timestamp,event,roll,pitch,yaw
0.0195761 ,Left ,64,8038524681466 ,43,0513399999708 ,16,1337986194479
0.0421598 ,Left ,64,8190428844963 ,43,0389906076471 ,16,1313882888286
0.0571523 ,Left ,64,8182431809314 ,43,0374562731563 ,16,1308470061003
0.0797064 ,Left ,64,8132263339333 ,43,0362881637555 ,16,1462551703349
0.1021323 ,Left ,64,8024175462575 ,43,0350290270327 ,16,1557094612106
0.1171204 ,Left ,64,7901675365583 ,43,0370961441851 ,16,1611693754689
0.1397162 ,Left ,64,7813735241225 ,43,0349328028772 ,16,1613627214696
0.1623785 ,Left ,64,7670635789587 ,43,0281432721988 ,16,1644685151174
0.1772672 ,Left ,64,7612480358749 ,43,0146631005673 ,16,1685404234442
0.1998164 ,Left ,64,7514292336186 ,42,9935010983867 ,16,1699208581656
0.2301205 ,Left ,64,7310500099037 ,42,9750971260939 ,16,1625007727835
0.2823484 ,Left ,64,7452158063767 ,42,9715931663734 ,16,1177522730113
0.3196643 ,Left ,64,7009298155086 ,42,963285346366 ,16,1128970796039
0.3423646 ,Left ,64,6844800384386 ,42,9572016740518 ,16,1122671120094
0.3804875 ,Left ,64,6778250721425 ,42,9624845221296 ,16,0986026606798
0.4030301 ,Left ,64,7002925790034 ,42,9776146999284 ,16,0813944604239
0.4400199 ,Left ,64,7219269355495 ,43,0193093260913 ,16,0597512257779
0.4623422 ,Left ,64,7182264862993 ,43,0208354430562 ,16,072894674538
0.4999101 ,Left ,64,7095737053743 ,43,0018849552976 ,16,1404761720042
0.5223815 ,Left ,64,660582878442 ,42,9883462133611 ,16,1994882157968
0.5598655 ,Left ,64,5626185189978 ,42,9769325067528 ,16,341761999836
0.5824969 ,Left ,64,5687928079708 ,43,0147339690961 ,16,3646281784564
0.6199814 ,Left ,64,4091055453344 ,43,0734297056144 ,16,388282917576
0.6425868 ,Left ,64,4072855266906 ,43,059324714494 ,16,3405853842428
0.6800021 ,Left ,64,4769588075926 ,42,9843752983657 ,16,2446244155569
0.7025499 ,Left ,64,4283883737827 ,42,9566197135331 ,16,2420912420458
0.7396332 ,Left ,64,3155536703193 ,42,86837010876 ,16,2947621039315
0.7698967 ,Left ,64,3093752755027 ,42,8395836046835 ,16,2896511160097
0.81494 ,Left ,64,2846887731427 ,42,777730000706 ,16,2167567731316
0.8297032 ,Left ,64,2122269556664 ,42,7073677101814 ,16,1816557961175
0.8822672 ,Left ,64,0008244649156 ,42,616217634098 ,16,2409253475536
0.9198094 ,Left ,63,909113081391 ,42,7174686853346 ,16,2493853462983
0.9422222 ,Left ,63,8052889070655 ,42,8242724913097 ,16,2513624290404
0.96495 ,Left ,63,761140150128 ,42,9308106680237 ,16,26312912326
0.9797546 ,Left ,63,6941401985456 ,43,0411892940475 ,16,3155883775779
1.0022445 ,Left ,63,6327835142523 ,43,1652278271918 ,16,3800592864549
1.0246799 ,Left ,63,4699972748843 ,43,2948454224723 ,16,5363813773422
1.0396249 ,Left ,63,3168172618026 ,43,4533999370374 ,16,7014332543717
1.0624091 ,Left ,63,1978338911424 ,43,5909995372975 ,16,8584017585662
1.0848231 ,Left ,63,1556663772483 ,43,6877533577735 ,16,9378471047191
1.0999115 ,Left ,63,1009098139456 ,43,6895582827268 ,16,9834468259282
1.122165 ,Left ,63,0187875795566 ,43,6925380211675 ,16,9560405454522
1.1448037 ,Left ,63,0468749281167 ,43,6489329827051 ,16,8326034335369
1.1596641 ,Left ,63,2568359632074 ,43,5886886061048 ,16,6480811813586
1.1822638 ,Left ,63,45070936433 ,43,5273243532653 ,16,4103355152113
1.2046787 ,Left ,63,6015984037639 ,43,535691449011 ,16,2861244314237
1.2196949 ,Left ,63,6454423725671 ,43,6079759722561 ,16,2909563577593
1.2424035 ,Left ,63,7615555122933 ,43,6268584925875 ,16,3064790875468
1.2647076 ,Left ,63,7904708003271 ,43,6081221951902 ,16,3348154959086
1.2799814 ,Left ,63,7734834405792 ,43,6185128699251 ,16,3611407193969
1.3022966 ,Left ,63,8105927766236 ,43,6304930015433 ,16,3488819200943
1.3250548 ,Left ,63,9282329729554 ,43,6655175867879 ,16,3036827139356
1.3399675 ,Left ,63,9812941829339 ,43,6256366099011 ,16,272004097418
1.3702155 ,Left ,64,016348003516 ,43,4350038181584 ,16,2552190870523
1.3925386 ,Left ,64,0664743241956 ,43,1734870061843 ,16,2738421037391
1.4223203 ,Left ,64,0190606369047 ,42,9868676632531 ,16,3360279898925
1.4454197 ,Left ,63,9610399354818 ,42,9278699722867 ,16,2865512576024
1.4830145 ,Left ,64,0266773309096 ,42,7129746121345 ,16,3432465817353
1.5053391 ,Left ,64,0508964668693 ,42,7361277825584 ,16,4193009403029
1.5421014 ,Left ,63,9754840806855 ,42,6924353236042 ,16,559514194267
1.5647196 ,Left ,64,0120716302905 ,42,6421244330777 ,16,6020654951646
1.6099062 ,Left ,63,9464545281528 ,42,5575096696847 ,16,721249497617
1.6321394 ,Left ,63,8997072928097 ,42,5095287663343 ,16,7613230809198
1.6772589 ,Left ,63,7556120744907 ,42,497058944443 ,16,8679041543782
1.6997789 ,Left ,63,7225693625921 ,42,5495683420237 ,16,886048591851
1.7240247 ,Left ,63,7215228758407 ,42,5890263537731 ,16,9112654025357
1.7371259 ,Left ,63,6217445239138 ,42,5755166228304 ,16,9699273258485
1.7598806 ,Left ,63,4785128333717 ,42,6177346204739 ,17,0078601659157
1.7825417 ,Left ,63,5387244417242 ,42,6034339400266 ,16,9876459462456
1.8048262 ,Left ,63,6815142025547 ,42,5743892900632 ,16,9066263527678
1.8196484 ,Left ,63,5054233104119 ,42,5779671151823 ,16,9568974084261
1.8424141 ,Left ,63,7068665692735 ,42,5497394843793 ,16,8324972444652
1.8649505 ,Left ,63,643283125219 ,42,5532433133121 ,16,814049246295
1.8798828 ,Left ,63,5580020659115 ,42,5287505915134 ,16,8425574049383
1.902305 ,Left ,63,5621111332754 ,42,5325764989585 ,16,8132725341717
1.9250429 ,Left ,63,5822182394623 ,42,5690837404843 ,16,798500455175
1.9396546 ,Left ,63,6078226021153 ,42,6260847728641 ,16,7777065511535
1.962325 ,Left ,63,636248866914 ,42,6940542557052 ,16,7552307870436
1.984781 ,Left ,63,6821093040991 ,42,7632770595961 ,16,7349581755404
1.9997349 ,Left ,63,7305693761214 ,42,8289862465547 ,16,7110284284975
2.0221251 ,Left ,63,8228626219437 ,42,8958723759477 ,16,6307153176157
2.0448106 ,Left ,63,7288395087231 ,42,9878408286739 ,16,6298123773988
2.0596739 ,Left ,63,6407159094532 ,43,0106230874624 ,16,6354180126798
2.0823702 ,Left ,63,6367294723019 ,43,0418211103311 ,16,6694493558388
2.1050634 ,Left ,63,7122249053583 ,43,0341540972473 ,16,6433535198911
2.1196016 ,Left ,63,7624311999519 ,43,017480305235 ,16,572692435508
2.142173 ,Left ,63,8937092473928 ,42,9759884031021 ,16,470535288529
2.1647742 ,Left ,63,8271134476562 ,42,9158627289836 ,16,4283009602581
2.179757 ,Left ,63,7421774169937 ,42,8465430041223 ,16,4268311616994
2.2023619 ,Left ,63,7473829524063 ,42,8463568423518 ,16,4392741338677
2.2246856 ,Left ,63,8381237965141 ,42,9043529523302 ,16,4404937489522
2.2395726 ,Left ,63,8877610346159 ,42,9550242895498 ,16,4557250959706
2.2621916 ,Left ,63,8458202402031 ,42,9781132875896 ,16,471103884232
2.2848885 ,Left ,63,8472857386574 ,43,0018818102174 ,16,473181488299
2.2998714 ,Left ,63,8714966494084 ,43,0191807058199 ,16,4708292945269
2.322385 ,Left ,63,8706566519724 ,43,0080445582007 ,16,4624527079675
2.3447935 ,Left ,63,857660019751 ,42,9633379555473 ,16,4798553852339
2.3599234 ,Left ,63,8481695866031 ,42,9343896627858 ,16,534100047784
2.3822583 ,Left ,63,8688077037666 ,42,9161884208118 ,16,5798931125521
2.404991 ,Left ,63,8487234437423 ,42,9129444986766 ,16,6010241799181
2.419598 ,Left ,63,7731042869918 ,42,9067055321812 ,16,600088062669
2.442074 ,Left ,63,7413056745375 ,42,910173316492 ,16,5705432105207
2.465505 ,Left ,63,6681709319299 ,42,9165763827654 ,16,5584835596857
2.4804243 ,Left ,63,6482600870939 ,42,9253745381056 ,16,5524965319522
2.5026943 ,Left ,63,6773990250439 ,42,9259847546431 ,16,5350682527102
2.5252522 ,Left ,63,7295921409202 ,42,8810912941631 ,16,5035509619987
2.5399844 ,Left ,63,7350927199292 ,42,8393937164572 ,16,4867846713407
2.5625282 ,Left ,63,7605347900839 ,42,8400169723974 ,16,4487950048503
2.5846674 ,Left ,63,7754325219745 ,42,7981485641517 ,16,4549581662353
2.6222821 ,Left ,63,8100466183783 ,42,7468953996956 ,16,4730665228141
2.6447441 ,Left ,63,8270641173217 ,42,7245298780457 ,16,4882695340842
2.6827482 ,Left ,63,7819568921332 ,42,7309199413891 ,16,5122414152925
2.7128911 ,Left ,63,7391691881152 ,42,7622970140462 ,16,5526975529686
2.7502566 ,Left ,63,7118256133882 ,42,8574958677822 ,16,6353050487391
2.7647507 ,Left ,63,6921431294659 ,42,8538783112277 ,16,6509251515889
2.8021662 ,Left ,63,6061690142552 ,42,8636264489903 ,16,6823452151536
2.8246426 ,Left ,63,5801535121601 ,42,8529599403028 ,16,7013268499386
2.8629575 ,Left ,63,5029063036977 ,42,7281378554401 ,16,680910427206
2.8855575 ,Left ,63,4578969280293 ,42,6960740037648 ,16,7005366229056
2.9228572 ,Left ,63,4426271976549 ,42,7170671284843 ,16,6367278595586
2.9453418 ,Left ,63,4010650218318 ,42,7005056305951 ,16,6213510942019
2.9827857 ,Left ,63,4304020507587 ,42,6553568015284 ,16,6288488693743
3.0046425 ,Left ,63,4439935206762 ,42,6973160793147 ,16,6718299845842
3.0429124 ,Left ,63,2742250967567 ,42,8676756811318 ,16,7852482438417
3.0652743 ,Left ,63,2009479924138 ,42,9657749430152 ,16,8498139311485
3.102705 ,Left ,63,0319506660226 ,43,2282908207671 ,16,9652356141771
3.1252796 ,Left ,62,9399374501787 ,43,3428055918704 ,17,0152225587725
3.1627535 ,Left ,62,8897172571298 ,43,4124722297118 ,16,9082263012414
3.1855413 ,Left ,62,8822491709875 ,43,3905620300028 ,16,8675069994418
3.2302253 ,Left ,62,8368200422052 ,43,4514247801306 ,16,7934255720707
3.252892 ,Left ,62,9098869860998 ,43,5577202473959 ,16,7236119989392
3.2975684 ,Left ,63,131458878746 ,43,7159269100763 ,16,6295370368293
3.3421381 ,Left ,63,2285392325911 ,43,7489530615805 ,16,4746266276452
3.3652392 ,Left ,63,3019105217685 ,43,7190574476162 ,16,4474873765562
3.4028234 ,Left ,63,4390705563189 ,43,6739551889727 ,16,4428152220399
3.4250679 ,Left ,63,4302465717413 ,43,6692039392337 ,16,3780863728071
3.4627153 ,Left ,63,6517726375021 ,43,700314964547 ,16,2930182234708
3.4847957 ,Left ,63,7100927204599 ,43,674648238779 ,16,334785620887
3.5000723 ,Left ,63,7094561736388 ,43,6512653027964 ,16,377592048833
3.5221423 ,Left ,63,6451033754191 ,43,6182346720311 ,16,3820340475013
3.5371546 ,Left ,63,6558758755239 ,43,5988033681049 ,16,3704005291817
3.5596303 ,Left ,63,6407174578273 ,43,5600103968743 ,16,3979965917548
3.57558 ,Left ,63,700711504112 ,43,4517509400253 ,16,4442139865302
3.5979816 ,Left ,63,7521315697917 ,43,3782275341084 ,16,4495552204261
3.6203273 ,Left ,63,8184631028222 ,43,2606709982916 ,16,4398243073585
3.6425666 ,Left ,63,8554984778219 ,43,0993614824942 ,16,4265021948858
3.6574248 ,Left ,63,8828603943932 ,42,8942371068115 ,16,4217426408212
3.6798435 ,Left ,63,9329784775117 ,42,7066951073771 ,16,4690031677207
3.7020986 ,Left ,63,8727916244136 ,42,6756365583281 ,16,4992264174639
3.7171284 ,Left ,63,8250128028773 ,42,6482502022524 ,16,5079398904947
3.7399266 ,Left ,63,7298186325838 ,42,5658560505373 ,16,4963764591591
3.7625297 ,Left ,63,6958046104931 ,42,5166502278834 ,16,5381101682839
3.7772293 ,Left ,63,7628244701406 ,42,4943279282285 ,16,6329542651327
3.7997254 ,Left ,63,8264083788222 ,42,6060295023188 ,16,6333209950411
3.822387 ,Left ,63,7399359382172 ,42,7158960026568 ,16,6897086260266
3.8375162 ,Left ,63,5003428123898 ,42,6560654411684 ,16,8091580005015
3.8671656 ,Left ,63,3657984518343 ,42,6114327062006 ,16,8895688180374
3.8897158 ,Left ,63,167070373435 ,42,5776997448717 ,16,9468115573284
3.904727 ,Left ,62,9091245440949 ,42,5460437718615 ,17,0369580151441
3.9425459 ,Left ,62,5119474856513 ,42,4507215651899 ,17,2233391069887
3.9573189 ,Left ,62,4595753264911 ,42,4722339472761 ,17,2382397039771
3.9796157 ,Left ,62,5119941382807 ,42,5160619003494 ,17,1979483656129
4.0021647 ,Left ,62,6719568426513 ,42,578327809283 ,17,0936034647714
4.0172808 ,Left ,62,9528197846623 ,42,6297606859359 ,16,9764063777586
4.0399295 ,Left ,63,1445281682637 ,42,6683673947855 ,16,8826321346396
4.0624233 ,Left ,63,2993347902954 ,42,6742211873085 ,16,8092614547723
4.0773778 ,Left ,63,3959768931556 ,42,6929078236797 ,16,7481066626256
4.0996358 ,Left ,63,4157879952849 ,42,703825248372 ,16,6971760771322
4.1224115 ,Left ,63,4288876645252 ,42,710101477475 ,16,6614448382604
4.137238 ,Left ,63,4736293905219 ,42,7034889779068 ,16,6378861804043
4.1602034 ,Left ,63,5142463647591 ,42,7007428802861 ,16,6180824359293
4.1830142 ,Left ,63,5274764627791 ,42,7040472669422 ,16,6257525086567
4.1978456 ,Left ,63,5151978160245 ,42,7222604148508 ,16,6376763001504
4.2201126 ,Left ,63,551173364089 ,42,7416550791823 ,16,6305625120516
4.2425891 ,Left ,63,5849852100536 ,42,7727466741798 ,16,6127141575811
4.2574129 ,Left ,63,6054703396204 ,42,8048313471243 ,16,5780070086155
4.2800311 ,Left ,63,6622257879541 ,42,8400305356219 ,16,5434250755022
4.3022479 ,Left ,63,7094701532419 ,42,8604941186464 ,16,5249908941706
4.3172708 ,Left ,63,7454178140003 ,42,8577190811486 ,16,5142980390374
4.3474592 ,Left ,63,7232786559415 ,42,8358797966746 ,16,5158401660542
4.370159 ,Left ,63,7342491451679 ,42,8141977380368 ,16,5070210034564
4.3852255 ,Left ,63,7504347968903 ,42,8125672506467 ,16,4711809500263
4.4003847 ,Left ,63,7874450147394 ,42,8350600959137 ,16,4304625838677
4.4301023 ,Left ,63,7922681502115 ,42,8752950370237 ,16,3914792860839
4.4447679 ,Left ,63,8115753962287 ,42,9165992425569 ,16,3635898350836
4.4672641 ,Left ,63,8387950576312 ,42,9532840388154 ,16,3451514167778
4.4822713 ,Left ,63,8960289163822 ,42,9845838984045 ,16,3178942661018
4.497134 ,Left ,63,9151858299136 ,43,0191330297502 ,16,2974713736878
4.5196953 ,Left ,63,949037145402 ,43,0725938149162 ,16,291402378258
4.5424245 ,Left ,63,9670720712248 ,43,1198417214801 ,16,3018098650045
4.5572889 ,Left ,63,9952788371561 ,43,1286420641005 ,16,3015109793476
4.587235 ,Left ,64,0661175374091 ,43,1129154029816 ,16,2676700691502
4.609677 ,Left ,64,1298147711767 ,43,0927884959977 ,16,2871116465398
4.6246727 ,Left ,64,0555093724821 ,43,1060564114445 ,16,333567600047
4.6554297 ,Left ,63,9377930067098 ,43,098385095117 ,16,300769939094
4.6706219 ,Left ,63,9932318794469 ,43,0826014550315 ,16,2203598670685
4.6925821 ,Left ,64,074749624335 ,43,0792789309821 ,16,1605963164401
4.7075297 ,Left ,64,0919196241841 ,43,0848935513556 ,16,1229424845589
4.7226054 ,Left ,64,0283637414603 ,43,1203919065858 ,16,117863681677
4.7451202 ,Left ,64,022274045876 ,43,125283114423 ,16,1211960719779
4.7603543 ,Left ,64,0574238753684 ,43,1213508244276 ,16,1101058114249
4.7827111 ,Left ,64,0712544868496 ,43,0544586401484 ,16,1208367663569
4.8052516 ,Left ,64,0194540428691 ,42,9654427800538 ,16,0734324272988
4.8203169 ,Left ,64,0035159395883 ,42,9128886568334 ,16,0329398828882
4.8428058 ,Left ,63,9334219409226 ,42,8687449462676 ,15,9810950992813
4.8645794 ,Left ,63,8917944031708 ,42,8148401847548 ,15,9710753335536
4.8797984 ,Left ,63,8489120369936 ,42,8319120129994 ,15,9716419718437
4.9022137 ,Left ,63,8298571100354 ,42,8894165452462 ,15,9674828204074
4.9330355 ,Left ,63,8091988991006 ,42,9621569186434 ,15,986863433165
4.9477467 ,Left ,63,748999938184 ,42,9719913739012 ,16,0363910368588
4.9704905 ,Left ,63,7134302877462 ,43,0098704198446 ,16,0929279315417
5.0005629 ,Left ,63,5507729324727 ,43,1429338619529 ,16,2031512902567
5.0229225 ,Left ,63,4850804776347 ,43,2279946440967 ,16,2444657571297
5.0452237 ,Left ,63,4799912729423 ,43,3252202734776 ,16,3069426137781
5.0604253 ,Left ,63,3953351544312 ,43,4253042645879 ,16,3780697307869
5.082648 ,Left ,63,2625456736949 ,43,4388894121682 ,16,437027212635
5.1051281 ,Left ,63,1828365419415 ,43,4101152121635 ,16,5043900961183
5.1201049 ,Left ,63,1421221411599 ,43,4610153287488 ,16,4877617417585
5.1426122 ,Left ,63,1845864076758 ,43,4932161680809 ,16,4452805675579
5.1649829 ,Left ,63,2429248892113 ,43,439019999024 ,16,3917686152184
5.1801244 ,Left ,63,2451310749754 ,43,2539253210805 ,16,3195540140867
5.2102302 ,Left ,63,3074646475844 ,43,0589754133045 ,16,2404886407483
5.2326239 ,Left ,63,4014473405866 ,42,9527958442889 ,16,1402203694131
5.2473614 ,Left ,63,4759560655022 ,42,9047060930379 ,16,0313387895531
5.2701113 ,Left ,63,5356497682943 ,42,9588401635233 ,15,9033324370547
5.2851277 ,Left ,63,7026025765688 ,43,06742187569 ,15,788897559762
5.3001572 ,Left ,63,8399308400518 ,43,2032027566012 ,15,7388351197284
5.3226295 ,Left ,63,8981687528255 ,43,3268664937733 ,15,7636589003071
5.3448787 ,Left ,63,8669621677371 ,43,4477170129372 ,15,8017817850159
5.3598665 ,Left ,63,8026108581259 ,43,5198322115274 ,15,8271649360796
5.3825297 ,Left ,63,8093037209963 ,43,5602518779638 ,15,8456114852878
5.4049707 ,Left ,63,8667807705729 ,43,5928432560078 ,15,8382097691433
5.4199436 ,Left ,63,9354896364485 ,43,6195217063853 ,15,8134978917812
5.442659 ,Left ,63,9478686634258 ,43,5277761083485 ,15,8154280109064
5.464917 ,Left ,63,977749169198 ,43,3307697319445 ,15,8435473460039
5.4874255 ,Left ,64,0108521311306 ,43,103659635512 ,15,8873137807299
5.5025461 ,Left ,64,0199525035128 ,42,9496882934017 ,15,9235253399306
5.5244884 ,Left ,63,9274427725666 ,42,9001353453227 ,15,9416890581859
5.5471947 ,Left ,63,9179673461209 ,42,8356211400901 ,15,9146752868732
5.5622887 ,Left ,63,9055868546246 ,42,7597721223783 ,15,8734654936561
5.5847146 ,Left ,63,9293332899901 ,42,6630373752785 ,15,9562131778965
5.6073595 ,Left ,63,9589078956416 ,42,7332902602546 ,16,0212711369282
5.6226198 ,Left ,63,9937468787311 ,42,788049027281 ,16,0673721885199
5.6449916 ,Left ,63,9634792780332 ,42,7932017143448 ,16,1294267533328
5.6672074 ,Left ,63,9607842702061 ,42,7744109463504 ,16,1663154428286
5.6822615 ,Left ,63,9739442955057 ,42,7544913659808 ,16,1903970802174
5.7046762 ,Left ,63,9749538396033 ,42,7406211520482 ,16,1892951904166
5.7271725 ,Left ,63,9507892547135 ,42,7050711243494 ,16,1979920276917
5.7421892 ,Left ,63,9680798427999 ,42,6746564992911 ,16,1998388618565
5.7649455 ,Left ,63,975562784552 ,42,6281895311891 ,16,1933323013013
5.7875209 ,Left ,63,9741889066121 ,42,5872535784527 ,16,1885075159608
5.8100931 ,Left ,63,9821248047821 ,42,5669437146719 ,16,2140354881887
5.8323004 ,Left ,64,0128097090039 ,42,5859297052291 ,16,2399200264808
5.8547818 ,Left ,64,0240825349827 ,42,6588066204147 ,16,2581133201833
5.8701524 ,Left ,64,0201495000959 ,42,7322577838348 ,16,2834592870664
5.8850771 ,Left ,64,0257059802672 ,42,7521866326838 ,16,3265157507324
5.9070683 ,Left ,64,0252081341195 ,42,7586651105014 ,16,356447221893
5.9224237 ,Left ,63,9974185887437 ,42,7804939944422 ,16,3542671364152
5.9449064 ,Left ,63,9937815306302 ,42,791251171413 ,16,321676094422
5.9671665 ,Left ,63,9932775702183 ,42,7927603434719 ,16,2992838954047
5.9823246 ,Left ,64,021212104061 ,42,7899629659613 ,16,2943557258125
6.0050123 ,Left ,64,0186808753771 ,42,7910763012912 ,16,2960301772145
6.0273194 ,Left ,64,0140922379595 ,42,7918578025962 ,16,2946907668153
6.0424312 ,Left ,64,0178084014327 ,42,8006820913151 ,16,2791097217826
6.065436 ,Left ,64,032834390976 ,42,8058312083635 ,16,2577055364788
6.0878199 ,Left ,64,058158794666 ,42,8153470169236 ,16,238049771972
6.1030499 ,Left ,64,0825072436741 ,42,84556860545 ,16,2122041826759
6.1246057 ,Left ,64,1096779922436 ,42,8931497312325 ,16,181825174056
6.1471668 ,Left ,64,1384757411454 ,42,9459014379071 ,16,1411802088958
6.1623107 ,Left ,64,1427072144208 ,42,9911698045751 ,16,1066790169617
6.1849782 ,Left ,64,204016327579 ,43,0321187477901 ,16,0847428227472
6.2072519 ,Left ,64,1958371486839 ,43,0782746450495 ,16,0757495484834
6.2223327 ,Left ,64,1837760158561 ,43,1214521602319 ,16,0583832991808
6.2447405 ,Left ,64,1348709267167 ,43,1258692502577 ,16,0492358780114
6.2674275 ,Left ,64,1786849308435 ,43,1605171794819 ,16,0210347777808
6.2822359 ,Left ,64,1679489731306 ,43,1787538921361 ,16,0091812557376
6.3048285 ,Left ,64,122784775679 ,43,1460645605976 ,16,003003090367
6.3273089 ,Left ,64,0793769252309 ,43,1093788285188 ,15,937216619845
6.3422821 ,Left ,64,0964014098253 ,43,0610447418027 ,15,8698944813966
6.3651594 ,Left ,64,172819125249 ,43,030123473835 ,15,8078493263028
6.3870121 ,Left ,64,1544229073545 ,42,999301435472 ,15,7601854824831
6.4021541 ,Left ,64,184804609817 ,42,9451355094486 ,15,7525113676379
6.4248799 ,Left ,64,2003332347242 ,42,8380614393731 ,15,7564562063361
6.4473028 ,Left ,64,2018904604049 ,42,686416425493 ,15,731061632658
6.4699147 ,Left ,64,2082517220458 ,42,6650177676645 ,15,7108690529661
6.4847637 ,Left ,64,1748280174272 ,42,6519283320404 ,15,6957706650597
6.5074144 ,Left ,64,1230296247783 ,42,5900154178839 ,15,6977203673557
6.5296778 ,Left ,64,0997440021793 ,42,6027717511584 ,15,6955161201341
6.544842 ,Left ,64,054076254223 ,42,6437490865027 ,15,7198610781047
6.5677685 ,Left ,64,0110648936035 ,42,6781766315286 ,15,7268576717428
6.5829658 ,Left ,64,013986940093 ,42,7131417069333 ,15,7282486544359
6.6047664 ,Left ,63,9941478023194 ,42,7896399834795 ,15,7515784138024
6.6271604 ,Left ,63,8856443989302 ,42,9106809238988 ,15,7634756886978
6.6499254 ,Left ,63,7891416633576 ,42,9673362748847 ,15,8410135956902
6.6648761 ,Left ,63,7004827777693 ,43,0597710822001 ,15,9347442809976
6.6872278 ,Left ,63,6364033284954 ,43,1491602679994 ,16,0086207596085
6.7100432 ,Left ,63,5749643339161 ,43,2235220075566 ,16,0838586635695
6.7247712 ,Left ,63,5176020606715 ,43,2489408758952 ,16,1427434072746
6.7476913 ,Left ,63,4143926111277 ,43,2493577478153 ,16,185009143114
6.7702879 ,Left ,63,3306553232125 ,43,2974453346975 ,16,2006933711331
6.7855295 ,Left ,63,2464474593613 ,43,3448480700722 ,16,2145142010841
6.8077989 ,Left ,63,2286862559567 ,43,4000317185736 ,16,1973369760518
6.830018 ,Left ,63,2757556603967 ,43,4092956988106 ,16,1476602291072
6.8448754 ,Left ,63,3487040180558 ,43,3155716099521 ,16,09788238251
6.87552 ,Left ,63,3249526635183 ,43,12054482854 ,16,0653693083863
6.9054911 ,Left ,63,3569173022789 ,42,9317958325687 ,16,0297858059144
6.920488 ,Left ,63,3134380920436 ,42,7737657260415 ,16,022440569928
6.9433809 ,Left ,63,2836080256517 ,42,6219513327313 ,15,9839641256863
6.9653181 ,Left ,63,4035060731483 ,42,4110181422756 ,15,7918968938489
6.9877443 ,Left ,63,5201766162922 ,42,4277745542117 ,15,6901509752955
7.0100369 ,Left ,63,5900451450696 ,42,4768075591867 ,15,5874264753128
7.0253064 ,Left ,63,6864149902545 ,42,6056162002858 ,15,470583198944
7.0477051 ,Left ,63,790326701612 ,42,7657378008447 ,15,3532695905621
7.0702224 ,Left ,63,8917750667951 ,42,9805481568256 ,15,2449453181534
7.0852844 ,Left ,63,946852965073 ,43,1426351323143 ,15,2196199055734
7.1076254 ,Left ,63,9828620659041 ,43,2405788457491 ,15,2643957516565
7.1302861 ,Left ,63,9786752264532 ,43,2679724849072 ,15,3210868488839
7.1599154 ,Left ,63,9545460848354 ,43,2832744197843 ,15,3455171600139
7.1830087 ,Left ,63,9496170252792 ,43,3184689373754 ,15,3417306741572
7.2055927 ,Left ,63,9867784101469 ,43,3087258338095 ,15,3459240928835
7.2205918 ,Left ,64,0026876424964 ,43,1165148277755 ,15,3896821251918
7.2352676 ,Left ,64,0367562845009 ,42,871018483629 ,15,478052038887
7.2502995 ,Left ,63,957732360938 ,42,6836925558831 ,15,5424185862516
7.2725129 ,Left ,63,8624723341031 ,42,5532498234197 ,15,5628846358352
7.2876961 ,Left ,63,8252125600827 ,42,4592026966325 ,15,570449933542
7.3100901 ,Left ,63,8717728348016 ,42,4069451162487 ,15,6629255423775
7.3325196 ,Left ,63,914696633336 ,42,5117199327316 ,15,7489665494483
7.3476203 ,Left ,63,8706609780308 ,42,6146222077282 ,15,8529434243381
7.3702938 ,Left ,63,7892566139278 ,42,6418259372475 ,15,9797679995363
7.3925575 ,Left ,63,7922186365511 ,42,6103953729348 ,16,053461276841
7.4071798 ,Left ,63,8376877831949 ,42,5985998557997 ,16,075130701722
7.4299142 ,Left ,63,8958955811065 ,42,5980905360365 ,16,0491936768817
7.4524076 ,Left ,63,9104945987878 ,42,5688954399691 ,15,9878693019228
7.4671998 ,Left ,63,9000153239662 ,42,5026691702483 ,15,9321370095888
7.4975032 ,Left ,63,902503868491 ,42,4333763650109 ,15,8792614883454
7.5201428 ,Left ,63,9381729180813 ,42,4193883459322 ,15,8574468315879
7.5350349 ,Left ,64,0175455695284 ,42,3941680808444 ,15,8274400601504
7.5726795 ,Left ,64,0070971705981 ,42,3762398451929 ,15,8834787023631
7.5874928 ,Left ,63,9696811142693 ,42,4059311473401 ,15,8718709259378
7.6102007 ,Left ,63,980861264672 ,42,4417822454527 ,15,8628066150703
7.6323987 ,Left ,64,0064995661627 ,42,4610871961806 ,15,896511619508
7.6475153 ,Left ,63,9709850150947 ,42,4762838748794 ,15,9428377825263
7.6699345 ,Left ,63,9389785048386 ,42,4939049041488 ,15,9686097124504
7.6926436 ,Left ,63,9328200507878 ,42,5147113522178 ,15,9499887091436
7.7075547 ,Left ,63,9577168270768 ,42,522373574028 ,15,9338143600501
7.730221 ,Left ,63,9809319682973 ,42,5332759237649 ,15,9233299047064
7.7522881 ,Left ,63,9776180734253 ,42,5487854336067 ,15,9199317797233
7.7823131 ,Left ,63,9711887761601 ,42,5652529717655 ,15,9026657239647
7.8062213 ,Left ,63,9976213219325 ,42,5819082417832 ,15,8811118394666
7.8271779 ,Left ,64,0163085562954 ,42,6407233465721 ,15,8657646179911
7.8422096 ,Left ,63,8269755838501 ,42,6506156237632 ,15,9220413371343
7.864747 ,Left ,63,7183249601423 ,42,7085996991688 ,15,9612021493689
7.8872666 ,Left ,63,7230766013585 ,42,7800404469194 ,15,9581817143513
7.9023716 ,Left ,63,9083243070153 ,42,850738343204 ,15,8675237525112
7.9249638 ,Left ,63,6440925335469 ,42,9540169734487 ,15,9882949038689
7.9472883 ,Left ,63,7638602058521 ,43,0251531755547 ,15,9484688721059
7.9624028 ,Left ,63,6018632218685 ,43,0382746982163 ,15,9766206718725
7.9923042 ,Left ,63,756305869791 ,43,089406832552 ,15,935485752911
8.0149286 ,Left ,63,7598181133414 ,43,0549771646221 ,15,9587994797798
8.0300175 ,Left ,63,6562001573959 ,42,9902679170791 ,15,918120098148
8.0450208 ,Left ,63,6300273556381 ,42,9431650173489 ,15,8610202700373
8.0674481 ,Left ,63,7452748637508 ,42,909274373821 ,15,7888671208866
8.0825856 ,Left ,63,801355140973 ,42,8525809748703 ,15,7023474758177
8.1049155 ,Left ,63,8697892643419 ,42,8329823054024 ,15,6206544843606
8.1272994 ,Left ,64,1069290447936 ,42,7866528047875 ,15,5390428826444
8.1425083 ,Left ,64,2851118539001 ,42,6580236205492 ,15,4668468901418
8.1647455 ,Left ,64,3421048279912 ,42,6070790477827 ,15,4548667603261
8.1872986 ,Left ,64,3667762208021 ,42,5795031894818 ,15,4404081795928
8.2022259 ,Left ,64,3446047622836 ,42,5273833041269 ,15,4506239539636
8.2249668 ,Left ,64,3264906865538 ,42,5165458115266 ,15,4515965286538
8.2471773 ,Left ,64,3315125124067 ,42,5632926537164 ,15,4716345576675
8.2705699 ,Left ,64,2509492625984 ,42,6811478903679 ,15,5124391433957
8.2927451 ,Left ,64,1650555378041 ,42,7716061903104 ,15,5650354426897
8.322898 ,Left ,64,0714625330117 ,42,9100618862363 ,15,7067228194199
8.345507 ,Left ,63,9607671668365 ,42,9752837506447 ,15,7910750841242
8.3676559 ,Left ,63,8137215244575 ,43,0749242409107 ,15,9440936303995
8.3829401 ,Left ,63,6908172303425 ,43,2184448293699 ,16,0798662339078
8.4051853 ,Left ,63,6319630238375 ,43,3510744444689 ,16,1632349268335
8.4275209 ,Left ,63,5920930975206 ,43,3898165920221 ,16,1458983576938
8.4502363 ,Left ,63,5684057984198 ,43,4076040257384 ,16,1362634651578
8.4652052 ,Left ,63,5025761573939 ,43,4362107898801 ,16,1048940927769
8.4874879 ,Left ,63,4932503788691 ,43,4286898941256 ,15,9860278358494
8.509787 ,Left ,63,5894488175946 ,43,375088570299 ,15,8753830799181
8.5248856 ,Left ,63,7038566632421 ,43,2572401751474 ,15,7816941063841
8.5473421 ,Left ,63,7744823333097 ,43,1384296746233 ,15,6968256995888
8.5699125 ,Left ,63,8457844303633 ,43,0681639857216 ,15,6389437669522
8.5924391 ,Left ,63,9019971427154 ,43,0808038046396 ,15,5723362220936
8.6146658 ,Left ,63,9586286559561 ,43,0860379080501 ,15,5218287048907
8.6448483 ,Left ,64,1106776015231 ,43,135667044294 ,15,4640683781934
8.6675729 ,Left ,64,1781472641234 ,43,2020448068057 ,15,4215447709459
8.690227 ,Left ,64,2172586380114 ,43,2727768940625 ,15,3959064338576
8.7125091 ,Left ,64,165527048167 ,43,3463785547454 ,15,4010064559867
8.7349498 ,Left ,64,1671114243486 ,43,3774723772013 ,15,4151734741797
8.7501238 ,Left ,64,1300923349585 ,43,4015404250025 ,15,4531605505134
8.7726856 ,Left ,64,170952622487 ,43,4084998710333 ,15,4822353389607
8.7946902 ,Left ,64,182430706583 ,43,4469679611744 ,15,4781490943521
8.8098668 ,Left ,64,1820571793477 ,43,4204647169596 ,15,4958007644518
8.8323202 ,Left ,64,196914056798 ,43,3127827536693 ,15,4985611208062
8.8548878 ,Left ,64,2475832802669 ,43,1679209414154 ,15,5006117270994
8.8699956 ,Left ,64,2583187889593 ,43,0367488406257 ,15,5156051848132
8.892501 ,Left ,64,2246168636663 ,42,8964965414025 ,15,519706301945
8.9150353 ,Left ,64,2767665745105 ,42,7681442481399 ,15,5271993256663
8.9300568 ,Left ,64,3125639511659 ,42,6508773485311 ,15,5288895303812
8.9524811 ,Left ,64,2992436153322 ,42,610745884498 ,15,5236401340991
8.9746314 ,Left ,64,2514720630689 ,42,610598412832 ,15,5158047763176
8.9897898 ,Left ,64,2782783958897 ,42,5872296895015 ,15,507612917398
9.0128534 ,Left ,64,1992387610514 ,42,5310204521982 ,15,4754815737165
9.0355222 ,Left ,64,2098455238095 ,42,4308110062878 ,15,5349654579207
9.0504368 ,Left ,64,2400342854438 ,42,4438136628939 ,15,5924480593976
9.072445 ,Left ,64,3126153128844 ,42,5293986460395 ,15,5635655561482
9.0946864 ,Left ,64,2653882118912 ,42,5656229747743 ,15,6084606601332
9.1101082 ,Left ,64,2611216718378 ,42,5536677960859 ,15,6542345386501
9.1401225 ,Left ,64,2837291046336 ,42,5504755985 ,15,6823413968522
9.1625022 ,Left ,64,3006287484932 ,42,5458082903542 ,15,6973491265654
9.177271 ,Left ,64,2864498355242 ,42,5185892495296 ,15,7179983455872
9.1997429 ,Left ,64,2778698164948 ,42,4672990251775 ,15,7537328755774
9.2149542 ,Left ,64,3516186422698 ,42,4460718517523 ,15,7528714396911
9.2300697 ,Left ,64,3575242039556 ,42,4304566088614 ,15,7455581764398
9.2525662 ,Left ,64,3954091316803 ,42,4315924802668 ,15,7192477766368
9.2749209 ,Left ,64,3854105356525 ,42,4516322301179 ,15,6988479269625
9.2899568 ,Left ,64,3546462751775 ,42,4838724407241 ,15,7038083510373
9.3122929 ,Left ,64,3289766944266 ,42,5169425918301 ,15,7202326252782
9.3346758 ,Left ,64,2900809173969 ,42,5493382019233 ,15,7346385904478
9.3503693 ,Left ,64,2564447299089 ,42,5747083355565 ,15,7510760865009
9.3798397 ,Left ,64,2239304765476 ,42,6085397058732 ,15,7684120031386
9.4022513 ,Left ,64,2026245163671 ,42,6499771970751 ,15,7729860107825
9.4246951 ,Left ,64,1817204496973 ,42,6924071479887 ,15,7667667860181
9.4396699 ,Left ,64,1786388609435 ,42,7205725858472 ,15,7574081846796
9.462266 ,Left ,64,166535880071 ,42,736690263879 ,15,751607314476
9.4772108 ,Left ,64,1425435013425 ,42,7421011052805 ,15,7552213862235
9.4921818 ,Left ,64,1489758018507 ,42,7504184946511 ,15,7589112351333
9.5146889 ,Left ,64,1743709415642 ,42,7524670752802 ,15,7649039819374
9.5375877 ,Left ,64,1876897878329 ,42,7511213512733 ,15,7686638088847
9.5524845 ,Left ,64,1785227018381 ,42,7444147425178 ,15,779884792767
9.5749574 ,Left ,64,190662684336 ,42,7525992415971 ,15,7764844752306
9.5972367 ,Left ,64,1984534149226 ,42,770356006303 ,15,7704952634004
9.6123618 ,Left ,64,2081017755563 ,42,802922232669 ,15,7604257221064
9.635025 ,Left ,64,2051750674956 ,42,8669712392836 ,15,7463577453115
9.6572387 ,Left ,64,2384344503162 ,42,94207398358 ,15,7206061333492
9.6724703 ,Left ,64,2424131096606 ,43,0125195523025 ,15,6935744832949
9.6948767 ,Left ,64,2558553858172 ,43,089122016791 ,15,6771378517472
9.7172915 ,Left ,64,2267968482043 ,43,1535118504828 ,15,6740890152259
9.732203 ,Left ,64,2345138844074 ,43,1890360802348 ,15,6617574425036
9.7555929 ,Left ,64,2358659806656 ,43,1700160791328 ,15,6432503535242
9.7779854 ,Left ,64,3234671292379 ,43,1394342958357 ,15,6040917709225
9.7927681 ,Left ,64,2812425661098 ,43,1120970619599 ,15,6647388831884
9.8153031 ,Left ,64,1980607682236 ,43,0856971149319 ,15,6658007362998
9.8376109 ,Left ,64,1822216713918 ,43,0851059805185 ,15,595213460716
9.8528062 ,Left ,64,2977946761917 ,43,089209592334 ,15,5279610145007
9.875211 ,Left ,64,3780122790872 ,43,1095065872908 ,15,4580268179049
9.8975828 ,Left ,64,3170015946787 ,43,0901475515993 ,15,4598471022449
9.9125826 ,Left ,64,2259604096453 ,43,0836405193361 ,15,5094461660963
9.9351157 ,Left ,64,1203621796929 ,43,0253019401978 ,15,4988502824542
9.9575051 ,Left ,64,1754100364775 ,42,9609595709323 ,15,4879459975784
9.9798689 ,Left ,64,2070439471116 ,42,8648695346457 ,15,4855172798719
10.0026938 ,Left ,64,245723032999 ,42,8047447393824 ,15,4505288261184
10.0329559 ,Left ,64,0155702589268 ,42,6107897810577 ,15,5507925771006
10.0553965 ,Left ,63,7852264688749 ,42,5635103400321 ,15,6249875923817
10.0773919 ,Left ,63,6080803512304 ,42,5228837193223 ,15,711382567756
10.0925749 ,Left ,63,5084848920449 ,42,499848678821 ,15,7858174603724
10.1150897 ,Left ,63,5185211586973 ,42,5173163561402 ,15,7913131125535
10.137429 ,Left ,63,7005040133984 ,42,5373400168035 ,15,7823300900636
10.1525187 ,Left ,63,8542430868436 ,42,6258611531752 ,15,7345539115134
10.1748829 ,Left ,63,9941739006652 ,42,6894468512965 ,15,6566874636019
10.1973164 ,Left ,64,0007335031216 ,42,656177079285 ,15,6794661346649
10.2125172 ,Left ,63,9994755733529 ,42,5817813432729 ,15,7166590734237
10.2426277 ,Left ,63,9984177700997 ,42,5204319936198 ,15,7433219137312
10.2649207 ,Left ,63,9749239235934 ,42,4912285915243 ,15,744384928924
10.2800405 ,Left ,63,9633281575973 ,42,4842077204232 ,15,7150444901241
10.29494 ,Left ,63,9705654900179 ,42,5376123821004 ,15,6631866359783
10.3174683 ,Left ,64,0612127929474 ,42,664042150421 ,15,5873189607536
10.3326594 ,Left ,64,0984900018635 ,42,8098431332664 ,15,5147582331145
10.3551461 ,Left ,64,1374876651141 ,42,9467992649276 ,15,4861422290018
10.3774594 ,Left ,64,099386602284 ,43,0372486529206 ,15,4999804098424
10.399885 ,Left ,64,0853138710901 ,43,058185089823 ,15,5160709981286
10.4149522 ,Left ,64,1067558698706 ,43,0468591215465 ,15,5262282266098
10.4372099 ,Left ,64,0997717921794 ,42,973157113792 ,15,531142279499
10.4599816 ,Left ,64,0532451728063 ,42,8791266148618 ,15,5455542176747
10.4747668 ,Left ,64,0062094693521 ,42,7981795488331 ,15,5692058223504
10.497228 ,Left ,63,8893494388023 ,42,7665410255158 ,15,5917438853562
10.5203304 ,Left ,63,8039398561698 ,42,7334000456392 ,15,6162315484634
10.5353821 ,Left ,63,7127440591792 ,42,7294023494766 ,15,6644237369573
10.557674 ,Left ,63,5786526700483 ,42,7575430113681 ,15,714203762427
10.5802808 ,Left ,63,3862677017506 ,42,842093002569 ,15,7798300840473
10.5951249 ,Left ,63,2270870039418 ,42,9575340496841 ,15,8531438627404
10.6176795 ,Left ,63,1500407333275 ,43,0864677182481 ,15,911854998437
10.6400089 ,Left ,63,0597360436906 ,43,1981069954712 ,15,9299722638801
10.6550649 ,Left ,62,9899902716812 ,43,2489070471211 ,15,8999802122202
10.6775281 ,Left ,63,0036078614159 ,43,2639026339126 ,15,8515506865747
10.700137 ,Left ,63,0740250850824 ,43,2403727010032 ,15,7886890381552
10.7151249 ,Left ,63,1759688112251 ,43,1563381556063 ,15,7021953976556
10.7449074 ,Left ,63,2913141300396 ,43,0320790765111 ,15,5932804459558
10.7671169 ,Left ,63,4344742747889 ,42,9375598163632 ,15,5007648098499
10.782304 ,Left ,63,583390185744 ,42,9619801924895 ,15,4288920347191
10.7972216 ,Left ,63,6988450526341 ,43,042174252175 ,15,3582602012571
10.8201633 ,Left ,63,7967873525857 ,43,1180257741016 ,15,3154261347698
10.8352554 ,Left ,63,8156799265082 ,43,184492503941 ,15,3290497530811
10.8577208 ,Left ,63,8312110268095 ,43,1989113232669 ,15,3623751865554
10.8799805 ,Left ,63,7953664561686 ,43,1913796507599 ,15,4103328263455
10.8953602 ,Left ,63,8106617963851 ,43,1717178129112 ,15,4294383136961
10.9177439 ,Left ,63,8578821696191 ,43,20930819735 ,15,3865621737545
10.9399977 ,Left ,63,9346164028847 ,43,2368895311303 ,15,3518511003701
10.9550139 ,Left ,63,9770023356523 ,43,1664627731215 ,15,3744640807078
10.977383 ,Left ,64,0703078537912 ,43,0378412705058 ,15,3906382954351
10.9997583 ,Left ,64,1296577792683 ,42,8454568262186 ,15,3896280452676
11.007215 ,Left ,64,146853967567 ,42,631415523586 ,15,399556574549
11.0296587 ,Left ,64,1031040607895 ,42,5496260096605 ,15,3945358602013
11.0596482 ,Left ,64,1210922794158 ,42,4694480006203 ,15,375278959137
11.0747377 ,Left ,64,183430748552 ,42,3685694490459 ,15,3708625492162
11.097151 ,Left ,64,2276485140294 ,42,2859705609553 ,15,3779428621724
11.1121009 ,Left ,64,1797318355677 ,42,2310567876554 ,15,3764061710356
11.1271974 ,Left ,64,1131129707534 ,42,175310892161 ,15,3420861326292
11.1498259 ,Left ,64,0583162957771 ,42,078668711888 ,15,3544479761378
11.1725578 ,Left ,64,0643905552506 ,42,0258034786782 ,15,40789064274
11.1872171 ,Left ,64,1255664752068 ,42,0987474879172 ,15,3882176476553
11.2097613 ,Left ,64,1454615072179 ,42,1894274488432 ,15,3911305148181
11.2324933 ,Left ,64,1793328645722 ,42,2476187124621 ,15,4296938721377
11.2480089 ,Left ,64,2529320879901 ,42,2815100637763 ,15,4784557324496
11.2696959 ,Left ,64,2811472537646 ,42,3191379605442 ,15,5257864904792
11.2924454 ,Left ,64,3145101268969 ,42,3232553528701 ,15,5297875547847
11.3304107 ,Left ,64,2965629076615 ,42,2819388394333 ,15,504744273188
11.3529978 ,Left ,64,3535395934935 ,42,3138938657633 ,15,495451706431
11.3677415 ,Left ,64,3370931524226 ,42,3200660589598 ,15,4988161106842
11.3903453 ,Left ,64,2700649238279 ,42,2889706158161 ,15,5377412777117
11.4128063 ,Left ,64,2567306708973 ,42,2508674508083 ,15,5427573615033
11.4275905 ,Left ,64,2142582547024 ,42,2469001372838 ,15,5506386882294
11.4504225 ,Left ,64,219721929617 ,42,2767466121503 ,15,558109864757
11.4726228 ,Left ,64,1569952878795 ,42,3347734329361 ,15,5986733718708
11.4872802 ,Left ,64,1423286034795 ,42,36103910392 ,15,6513973481315
11.5102601 ,Left ,64,0911333288289 ,42,3593424618399 ,15,701304279906
11.5321872 ,Left ,64,042668425434 ,42,374554334808 ,15,7256262639233
11.5472725 ,Left ,63,977309209403 ,42,4037637368708 ,15,7388734367002
11.5699463 ,Left ,63,9809709817797 ,42,4290034968985 ,15,7143031073503
11.600015 ,Left ,63,9872782452625 ,42,4547000623647 ,15,6906483964614
11.615054 ,Left ,63,9642375219303 ,42,4935815757105 ,15,659711427081
11.637556 ,Left ,63,9681099508192 ,42,5379585178996 ,15,6436662729493
11.6523935 ,Left ,64,0041054692279 ,42,6070489399859 ,15,6161979728285
11.6671956 ,Left ,64,0279428659168 ,42,6798273795119 ,15,5747489470261
11.6897236 ,Left ,64,0624016465668 ,42,7707547930258 ,15,5183967418364
11.7128382 ,Left ,64,0805311770545 ,42,8546072507953 ,15,4753676505981
11.7279546 ,Left ,64,0191269605848 ,42,9663623859092 ,15,4774048428416
11.7503037 ,Left ,63,9757304348382 ,43,0626015613383 ,15,4911145393908
11.7724271 ,Left ,63,9721557683556 ,43,0961521842435 ,15,47670156899
11.8097487 ,Left ,63,9895076732906 ,43,0627062101365 ,15,5099159645304
11.8322553 ,Left ,63,9150817233534 ,43,0005122310496 ,15,4568428660298
11.8698233 ,Left ,63,9901611792377 ,42,8799953336435 ,15,3132630764794
11.8922302 ,Left ,64,019492817507 ,42,840915820234 ,15,2678844630755
11.9299315 ,Left ,64,095676780983 ,42,7936085298482 ,15,2165242048456
11.9522484 ,Left ,64,1189291644932 ,42,6957742901503 ,15,1988489728169
11.9898174 ,Left ,64,1556069276052 ,42,5599136081763 ,15,1332948400178
12.0124494 ,Left ,64,1018881872957 ,42,5345366039431 ,15,1655877340979
12.0499174 ,Left ,64,00246934178 ,42,4992364785081 ,15,2207080456139
12.0723849 ,Left ,63,9665993492 ,42,567042518934 ,15,2538622296482
12.1099498 ,Left ,63,8122272791252 ,42,7568079494459 ,15,2727590489304
12.13251 ,Left ,63,8281934433625 ,42,8339337642884 ,15,2895092273409
12.1697263 ,Left ,63,7511724946412 ,42,9303208326751 ,15,346570587682
12.1924201 ,Left ,63,7001043445813 ,42,9729838554998 ,15,3930725398625
12.2299325 ,Left ,63,585989849567 ,43,0474000093922 ,15,480836973316
12.2525828 ,Left ,63,4684713770252 ,43,1033293389903 ,15,5251591042981
12.2899509 ,Left ,63,4270155846032 ,43,2419023599585 ,15,615215738687
12.3124067 ,Left ,63,3681606292813 ,43,293565731634 ,15,7249339932635
12.3500525 ,Left ,63,2011493110817 ,43,3572892308959 ,15,8435158069343
12.3723933 ,Left ,63,2209186336363 ,43,3670460923665 ,15,8150494076365
12.4100872 ,Left ,63,3466225184167 ,43,2377510175281 ,15,6998746722231
12.4322692 ,Left ,63,4059293547033 ,43,0882303020468 ,15,6096883816149
12.4697503 ,Left ,63,6217549501099 ,42,9819328381396 ,15,3471484704809
12.4925541 ,Left ,63,7380063653068 ,43,0379090798565 ,15,2133673367767
12.5300103 ,Left ,63,9397581139431 ,43,2372773913433 ,15,082229225625
12.5522419 ,Left ,63,9510930666224 ,43,2921156281614 ,15,0893051887165
12.5898781 ,Left ,63,9587427752417 ,43,3619676101553 ,15,1167290792626
12.6130365 ,Left ,64,0108382108306 ,43,4105921197275 ,15,1144257364236
12.6505425 ,Left ,64,1802315003218 ,43,2708515938794 ,15,1185242216023
12.6724632 ,Left ,64,2560102176125 ,43,1017400039434 ,15,1188327242058
12.6950273 ,Left ,64,2379455257513 ,42,8872482806635 ,15,1680452166591
12.7100723 ,Left ,64,1945295704643 ,42,6551875520647 ,15,2536714300679
12.7326009 ,Left ,64,1445413800261 ,42,5558623937212 ,15,2937434236533
12.755082 ,Left ,64,0251194304769 ,42,5187148069525 ,15,3029791901714
12.7925262 ,Left ,64,0374256166909 ,42,3821473524573 ,15,3194718238035
12.8150434 ,Left ,64,1081351470743 ,42,3971060980405 ,15,3670392106863
12.8522483 ,Left ,64,1447172487276 ,42,4500844037387 ,15,4305728589807
12.8900478 ,Left ,64,134038812587 ,42,3808371801084 ,15,5131441387125
12.9124773 ,Left ,64,1309933620059 ,42,3375340037552 ,15,5514527006775
12.9497221 ,Left ,64,1303512005408 ,42,3225780608255 ,15,6069363927548
12.972452 ,Left ,64,1240121986811 ,42,3138528947989 ,15,6331450813565
13.0102747 ,Left ,64,1573051417783 ,42,2911821063526 ,15,7034426318908
13.0325329 ,Left ,64,1205932008596 ,42,3103374871882 ,15,7258088428837
13.0702604 ,Left ,64,11700595067 ,42,3841761588718 ,15,7487605464195
13.0928555 ,Left ,64,1092777446838 ,42,403561485499 ,15,7573431876974
13.1302932 ,Left ,64,0742892421936 ,42,4743169167546 ,15,7841876856385
13.1526207 ,Left ,64,0402997416951 ,42,4807113400787 ,15,8094893150759
13.1901306 ,Left ,64,0515653714477 ,42,4864199700278 ,15,8239684754985
13.2126993 ,Left ,64,0943767321932 ,42,4863218434758 ,15,8191665981311
13.2500784 ,Left ,64,0931447653049 ,42,4616708321535 ,15,7893336527423
13.2725559 ,Left ,64,0962990110778 ,42,4513835060819 ,15,7748361377531
13.3174398 ,Left ,64,1654648838995 ,42,4861892323395 ,15,7422667041246
13.3398268 ,Left ,64,1709527847664 ,42,5290702327185 ,15,7410501114225
13.369672 ,Left ,64,1913882335638 ,42,647305070865 ,15,7031273999276
13.3921904 ,Left ,64,2076992110397 ,42,7336103675032 ,15,6593283391539
13.414652 ,Left ,64,213564774835 ,42,8132008994048 ,15,6075531463871
13.452148 ,Left ,64,1438573689586 ,42,9477189876513 ,15,5948289961684
13.4747047 ,Left ,64,1171061368655 ,42,9825123943101 ,15,591151058617
13.5122148 ,Left ,64,2204883218289 ,42,9258648399614 ,15,5508895084043
13.5347451 ,Left ,64,2406905663325 ,42,8695909135342 ,15,5882812436049
13.5801054 ,Left ,64,0763965894657 ,42,8383008502564 ,15,5269379618893
13.6025913 ,Left ,64,1167900432792 ,42,8203322945872 ,15,4443605153166
13.6325984 ,Left ,64,1996313859981 ,42,8378706205421 ,15,3537062678283
13.6552053 ,Left ,64,1967461243015 ,42,8805887587389 ,15,3443160620796
13.6927067 ,Left ,64,3277674359973 ,42,8404170193341 ,15,3556702161885
13.7150478 ,Left ,64,3084307078798 ,42,7860537271216 ,15,3353300078605
13.7523817 ,Left ,64,2742003873202 ,42,777012677642 ,15,2749179658862
13.7749477 ,Left ,64,2632572840196 ,42,749742428096 ,15,283183726344
13.8126134 ,Left ,64,1889695959841 ,42,7063990625011 ,15,3225515018846
13.8351403 ,Left ,64,1789373424364 ,42,7320790292975 ,15,338443786512
13.8726279 ,Left ,64,0872275002526 ,42,6963795341906 ,15,3262289753269
13.8951191 ,Left ,64,0536425758768 ,42,6912273215557 ,15,3501124447707
13.9323909 ,Left ,63,9042615312952 ,42,7860099367778 ,15,4766496239724
13.9549535 ,Left ,63,7988303624684 ,42,892297133433 ,15,5947630003691
13.9921815 ,Left ,63,5148538581678 ,43,2274134796258 ,15,8187947678151
14.015303 ,Left ,63,3810174952553 ,43,3756788646993 ,15,9002464599151
14.0521914 ,Left ,63,2710873707752 ,43,3919218444394 ,15,8139643202879
14.0750443 ,Left ,63,2681326928351 ,43,3319648811007 ,15,7790437805456
14.1125564 ,Left ,63,3524081160403 ,43,2625920408179 ,15,4760099610287
14.1351079 ,Left ,63,5249475326371 ,43,2416470310031 ,15,3399366765421
14.1725333 ,Left ,63,7160461232512 ,43,3604145736014 ,15,1817496891218
14.1950478 ,Left ,63,7813418261715 ,43,4050685701198 ,15,1457509403319
14.2328081 ,Left ,63,8817222024429 ,43,463763651374 ,15,2105876123775
14.2554953 ,Left ,63,9024993024716 ,43,5279737736687 ,15,2033569312003
14.2928032 ,Left ,63,952407395238 ,43,7099682883265 ,15,1479333035775
14.3154791 ,Left ,63,9982580387076 ,43,6732459218777 ,15,1399893797094
14.3525923 ,Left ,64,2030746070194 ,43,4251354344486 ,15,1400208492033
14.3900389 ,Left ,64,219513878203 ,43,1974225269931 ,15,1416552459801
14.4947001 ,Left ,64,2461503922448 ,42,2798419492731 ,15,2041030726017
14.5321943 ,Left ,64,2091879605901 ,42,1866642927204 ,15,2491820402818
14.5547071 ,Left ,64,1847364534565 ,42,1230509765055 ,15,2340412802517
14.5925479 ,Left ,64,1559351497133 ,42,0797466924629 ,15,1839736973371
14.6149649 ,Left ,64,1970368686674 ,42,0941889961673 ,15,1201358515499
14.6299353 ,Left ,64,1553657739339 ,42,0516237476136 ,15,0945568537056
14.6449457 ,Left ,64,1377768396105 ,41,9787132450385 ,15,1574661865434
14.6673045 ,Left ,64,2066906626962 ,42,01722489471 ,15,1749686886137
14.6898308 ,Left ,64,2904613851855 ,42,1074910585925 ,15,1510820084509
14.7048479 ,Left ,64,2947849691898 ,42,156558283547 ,15,1966427941535
14.7273831 ,Left ,64,3241691289363 ,42,1497051987325 ,15,2386200602572
14.7499134 ,Left ,64,3089233902674 ,42,1265663641918 ,15,2701640622585
14.7650312 ,Left ,64,2970438649292 ,42,1437255254148 ,15,2619411822403
14.7872628 ,Left ,64,2699458873406 ,42,1674046183533 ,15,2486891470743
14.8097196 ,Left ,64,3089894458046 ,42,17063370495 ,15,2304409990675
14.8249693 ,Left ,64,2908609978611 ,42,1217967076389 ,15,2523898101375
14.8473333 ,Left ,64,2628946811323 ,42,0939302931195 ,15,2768219596865
14.8700589 ,Left ,64,2608140246473 ,42,0832113999892 ,15,2734830704301
14.8848136 ,Left ,64,2283197107106 ,42,1003557859946 ,15,2445606583266
14.9073805 ,Left ,64,2310855086922 ,42,126334083965 ,15,2258057224042
14.9450848 ,Left ,64,2348347494485 ,42,1914055073456 ,15,2149236971851
14.9601628 ,Left ,64,2551181322954 ,42,2393325169661 ,15,2170307584961
14.9824198 ,Left ,64,2636395599243 ,42,2720916816134 ,15,2457103384864
15.0051366 ,Left ,64,2230075572327 ,42,312864353097 ,15,2323369181754
15.027399 ,Left ,64,2371179278165 ,42,3408794540762 ,15,223056638657
15.0501719 ,Left ,64,2336183462977 ,42,3818693446282 ,15,2161960784842
15.0651108 ,Left ,64,2072234425312 ,42,4199359424549 ,15,2229310854123
15.0874421 ,Left ,64,1895884820578 ,42,4590549114244 ,15,2347006105298
15.1097153 ,Left ,64,1874284616386 ,42,5081958980052 ,15,2489738365183
15.1247083 ,Left ,64,1944483159818 ,42,5550096288915 ,15,2586541570679
15.1472898 ,Left ,64,1870013187661 ,42,6070488073523 ,15,2593292607556
15.1697035 ,Left ,64,1991303483256 ,42,6593564170974 ,15,2493685463102
15.1924364 ,Left ,64,2472676260078 ,42,7398769894115 ,15,2347656104403
15.20735 ,Left ,64,2980854063823 ,42,8349286574219 ,15,2098635358297
15.2298119 ,Left ,64,2563999877298 ,42,9091396814476 ,15,1966053122386
15.2600155 ,Left ,64,2603169873888 ,42,9991218896296 ,15,1799164622686
15.2747981 ,Left ,64,2218165368664 ,43,0984768286233 ,15,186662912266
15.3121932 ,Left ,64,2645698006935 ,43,1942217780655 ,15,2142543262295
15.3272526 ,Left ,64,3336257599466 ,43,1667067835428 ,15,203340191425
15.350004 ,Left ,64,333687322553 ,43,0897674563683 ,15,2508025362233
15.3723024 ,Left ,64,2129859851013 ,43,0388374522056 ,15,3004098757895
15.3872552 ,Left ,64,0757807954102 ,43,0097884049216 ,15,2840220220825
15.4097533 ,Left ,64,0758394080482 ,42,9888594562144 ,15,228719590102
15.4324486 ,Left ,64,1499801460458 ,42,9812431270928 ,15,1725107255858
15.4471845 ,Left ,64,1457161398305 ,42,9859497968937 ,15,1354581423436
15.4772688 ,Left ,64,1536045075428 ,43,0223994714708 ,15,1025977510531
15.4998461 ,Left ,64,1754771164821 ,43,0390869512299 ,15,1022109061082
15.5150069 ,Left ,64,2196790124392 ,43,0040791016725 ,15,1290552337975
15.5373442 ,Left ,64,2042469356661 ,42,9332030100884 ,15,1128990192276
15.552503 ,Left ,64,2264485383911 ,42,8938804368169 ,15,1012540585092
15.5673757 ,Left ,64,2419980448388 ,42,9130791756784 ,15,08044571437
15.5897391 ,Left ,64,2239990001905 ,42,8565778606412 ,15,1155159860373
15.6124226 ,Left ,64,1675900156169 ,42,8103799613662 ,15,1227958678707
15.6273242 ,Left ,64,1826362026 ,42,8085950695308 ,15,1528578220565
15.6506226 ,Left ,64,1222131929368 ,42,862930869092 ,15,1611397416501
15.6728341 ,Left ,64,0749356211998 ,42,9052320515266 ,15,1516780964284
15.6879163 ,Left ,64,0402889976434 ,42,9581284598075 ,15,1828052503216
15.7108003 ,Left ,63,9898264930891 ,43,0135092719608 ,15,2554159803453
15.7330081 ,Left ,63,8914792629089 ,43,0886311974849 ,15,343895722497
15.7478966 ,Left ,63,7633067840477 ,43,1611735468152 ,15,5003647880976
15.7701716 ,Left ,63,6251294832613 ,43,3179193839749 ,15,6498473309902
15.7999764 ,Left ,63,5423027522967 ,43,4565067730215 ,15,7648374455735
15.8149145 ,Left ,63,4878626023295 ,43,5373525596093 ,15,7935500939016
15.8374018 ,Left ,63,4279317553606 ,43,5443302430171 ,15,7874060935864
15.8747453 ,Left ,63,3187752842589 ,43,4875648870125 ,15,734535962522
15.8896751 ,Left ,63,3802116336175 ,43,4742713095061 ,15,584185489263
15.9122349 ,Left ,63,5632012428706 ,43,5001040058666 ,15,4195924213171
15.9345116 ,Left ,63,6654659315585 ,43,5539675697122 ,15,2772463805084
15.949792 ,Left ,63,7451940789752 ,43,6165971265309 ,15,2050100595293
15.9722691 ,Left ,63,8158338665557 ,43,6920786064876 ,15,1582251813939
15.9946883 ,Left ,63,8907052519532 ,43,6847492017727 ,15,1181227463906
16.0101386 ,Left ,63,899080372553 ,43,6314026361073 ,15,1333611143415
16.0399734 ,Left ,63,9873830390815 ,43,5918169455205 ,15,1155942899089
16.0550096 ,Left ,64,063319192528 ,43,660727454887 ,15,0434010455684
16.0772796 ,Left ,64,1035704307124 ,43,7334909587822 ,15,0012079517016
16.0925848 ,Left ,64,1433740934396 ,43,720546835733 ,14,9743934214384
16.1147481 ,Left ,64,2474668377392 ,43,66164755306 ,14,9674194267798
16.1299727 ,Left ,64,3581778016633 ,43,580246027496 ,14,9823640271022
16.1523169 ,Left ,64,4008470116771 ,43,4946913004957 ,15,0152795847838
16.1747786 ,Left ,64,413366913247 ,43,3981420219221 ,15,0606906391131
16.1898697 ,Left ,64,3957040299578 ,43,2984711360701 ,15,1184014197193
16.2123272 ,Left ,64,3887674289781 ,43,2338712337938 ,15,1717146643183
16.2349145 ,Left ,64,3099333381294 ,43,2065705988087 ,15,228347695843
16.2500407 ,Left ,64,3229479383987 ,43,1856651132451 ,15,2600710441396
16.2724855 ,Left ,64,3570355423486 ,43,1349698580628 ,15,2888914091204
16.2948682 ,Left ,64,3313268622829 ,43,0869849735634 ,15,3089366936216
16.3104307 ,Left ,64,2599077282747 ,43,0427395594612 ,15,3284408042291
16.3327474 ,Left ,64,2249357354383 ,42,977048435979 ,15,3109813078219
16.3553707 ,Left ,64,2527588163137 ,42,8787871441556 ,15,2752887476852
16.3705273 ,Left ,64,2759719754129 ,42,780975898271 ,15,2397089251117
16.3929064 ,Left ,64,2106478099812 ,42,7116018639096 ,15,2413750526964
16.4150398 ,Left ,64,1517929910598 ,42,6669608376058 ,15,2362582602438
16.4298904 ,Left ,64,0712624646586 ,42,5856050658091 ,15,1946678663073
16.4522612 ,Left ,64,0720342061665 ,42,4442881655267 ,15,2602105346383
16.4747365 ,Left ,64,1561907896828 ,42,4358757645009 ,15,2729438514338
16.489726 ,Left ,64,2459746146961 ,42,5229007417541 ,15,2333482427998
16.5135512 ,Left ,64,2289331211079 ,42,5667325593654 ,15,2932184934459
16.5352921 ,Left ,64,2035565871885 ,42,5251025419952 ,15,351798418778
16.5506835 ,Left ,64,2099655208574 ,42,5028520129854 ,15,3676132331737
16.5723286 ,Left ,64,1970177745725 ,42,4990980663394 ,15,3516087846044
16.602567 ,Left ,64,1758261191259 ,42,5045521064634 ,15,3385898652379
16.6174129 ,Left ,64,1720793383736 ,42,5163579942226 ,15,3020996139148
16.6397094 ,Left ,64,125060267168 ,42,492509735946 ,15,272063389206
16.6547473 ,Left ,64,1247380130506 ,42,4618437888346 ,15,2480052327402
16.6701938 ,Left ,64,146280627074 ,42,4316342276806 ,15,2284648012092
16.6928317 ,Left ,64,1147912195165 ,42,4402231261478 ,15,2229788511853
16.7153208 ,Left ,64,0641514103626 ,42,4702959064775 ,15,2232725104109
16.7302271 ,Left ,64,032789248807 ,42,507675800517 ,15,2231901531472
16.7526961 ,Left ,64,0387123200732 ,42,5457827753221 ,15,2157728271085
16.7753815 ,Left ,64,0340516711282 ,42,5713267939756 ,15,2167372057808
16.7904192 ,Left ,64,0075698638011 ,42,6201080068002 ,15,2080794328287
16.812856 ,Left ,64,0030679531369 ,42,6529346478453 ,15,2049745672105
16.835248 ,Left ,64,0126792678819 ,42,6745991903891 ,15,2016723283007
16.8503163 ,Left ,64,0292264076494 ,42,689756413346 ,15,1957550611862
16.8876312 ,Left ,64,026881527923 ,42,7081521533394 ,15,1856662716648
16.9175759 ,Left ,64,045452601075 ,42,7275265995501 ,15,1780067149225
16.9327883 ,Left ,64,0557651137936 ,42,7575012949365 ,15,1678329426815
16.947634 ,Left ,64,0981639350719 ,42,807725654156 ,15,1423214984632
16.9703216 ,Left ,64,1455958660498 ,42,944470771748 ,15,0785213821737
16.9926691 ,Left ,64,1825670557061 ,43,0379446862568 ,15,0576212563243
17.0153204 ,Left ,64,1593858297636 ,43,1302177567062 ,15,0643142205386
17.03028 ,Left ,64,1340486875268 ,43,2224159013354 ,15,0730896292649
17.0526311 ,Left ,64,1609686023488 ,43,2916441595906 ,15,0732622356249
17.0754538 ,Left ,64,2229245094529 ,43,3020102158681 ,15,0741093836273
17.0972343 ,Left ,64,2980510425176 ,43,2328253318188 ,15,1562046604052
17.1122661 ,Left ,64,2225754239783 ,43,1733500951164 ,15,2402256778864
17.1356871 ,Left ,64,0939333788888 ,43,1574772751701 ,15,2066432517895
17.1578009 ,Left ,64,1463092197438 ,43,1597242263256 ,15,1637073635143
17.1730901 ,Left ,64,2084267075709 ,43,179837914404 ,15,1221164937927
17.1951991 ,Left ,64,2143378756535 ,43,1947025020223 ,15,0929304772079
17.2175505 ,Left ,64,1551075142822 ,43,220235096771 ,15,1007251871199
17.2326956 ,Left ,64,1116738718228 ,43,2089469914557 ,15,146883703572
17.2552488 ,Left ,64,116117360698 ,43,1822305965489 ,15,1517042726018
17.2771563 ,Left ,64,2054709548643 ,43,0960028130491 ,15,186344510974
17.2924573 ,Left ,64,1831535570651 ,43,0167090586307 ,15,1587533230379
17.3147269 ,Left ,64,1330437498947 ,42,9316243304031 ,15,1317825626523
17.3374868 ,Left ,64,157463894909 ,42,959960567714 ,15,0935757679893
17.352445 ,Left ,64,1145687916578 ,42,9077573777174 ,15,1227775012541
17.3747629 ,Left ,64,0087633445737 ,42,8253904588359 ,15,141774225582
17.3974947 ,Left ,63,9752151253713 ,42,8090570524033 ,15,1440175455492
17.4125054 ,Left ,63,9687837973357 ,42,8660412583518 ,15,1619949774165
17.4350346 ,Left ,63,8641944517618 ,42,9272104077459 ,15,1546601841459
17.4578399 ,Left ,63,8550986566147 ,42,9591759344335 ,15,1871753315039
17.4724483 ,Left ,63,8229847207202 ,43,0030634224789 ,15,253067608902
17.494801 ,Left ,63,7388467970433 ,43,0821953903926 ,15,3065156821674
17.5172299 ,Left ,63,6020447838518 ,43,183710785946 ,15,4282744058992
17.532518 ,Left ,63,4947552857724 ,43,3299974784342 ,15,5452343104455
17.555219 ,Left ,63,4568721060423 ,43,4772958272157 ,15,645737262905
17.5778523 ,Left ,63,3829819204393 ,43,5551818645963 ,15,6983150491756
17.592935 ,Left ,63,2693240013957 ,43,5847781678016 ,15,739140071941
17.6154961 ,Left ,63,1537141103563 ,43,6254233654757 ,15,7456461697728
17.6378222 ,Left ,63,1678809286713 ,43,6572515408464 ,15,6459468517245
17.6527153 ,Left ,63,2812966591812 ,43,6725205651929 ,15,5101562517685
17.6747328 ,Left ,63,4425093461786 ,43,6873552085857 ,15,3642489601559
17.7049454 ,Left ,63,4742389224505 ,43,7374416470275 ,15,2660533199998
17.7196392 ,Left ,63,556792751517 ,43,7963221998859 ,15,1881695824674
17.7499922 ,Left ,63,6370646197971 ,43,7913993001865 ,15,127484668817
17.7647496 ,Left ,63,6957115366374 ,43,7274072910953 ,15,1273628385038
17.7873078 ,Left ,63,7749317235325 ,43,7101739906216 ,15,0995433138066
17.8022834 ,Left ,63,878426600384 ,43,7640101799701 ,15,0369934052172
17.8173299 ,Left ,63,9334060405052 ,43,80370454379 ,15,013612832158
17.8395228 ,Left ,63,9883247768647 ,43,7284420001766 ,15,0207145153935
17.8554436 ,Left ,64,0960398850538 ,43,5351153544673 ,15,032818990506
17.8773299 ,Left ,64,1568789888365 ,43,2480315211288 ,15,0373611807893
17.8997363 ,Left ,64,1397555412526 ,42,942769224702 ,15,1052023922957
17.9147816 ,Left ,64,0306271935056 ,42,8152995758669 ,15,171253912894
17.9371748 ,Left ,64,0176425630036 ,42,7494500777713 ,15,1302298483917
17.9595794 ,Left ,64,0099129363071 ,42,6156236017165 ,15,1179474046554
17.9749913 ,Left ,63,9946569965003 ,42,5050045265317 ,15,2139550614053
17.9973019 ,Left ,64,0264045553247 ,42,5898726272268 ,15,2420424769231
18.0196909 ,Left ,64,0075229817547 ,42,6909099687762 ,15,2785213170122
18.0350579 ,Left ,63,9744392634583 ,42,7171137875845 ,15,339366599161
18.0575041 ,Left ,64,0191307747911 ,42,7142748618267 ,15,3797322448665
18.0797518 ,Left ,64,022166811892 ,42,7092745098621 ,15,4029628213632
18.0947908 ,Left ,64,0770595235195 ,42,7206097240552 ,15,3872214958805
18.1172672 ,Left ,64,040616513084 ,42,7172281219221 ,15,348265303368
18.1400156 ,Left ,64,0550010592054 ,42,7167699890645 ,15,2970464929037
18.1551201 ,Left ,64,0871427808197 ,42,7478562336556 ,15,2650656994228
18.1773826 ,Left ,64,1174960987106 ,42,7696828611923 ,15,2527878508924
18.19969 ,Left ,64,0802333880152 ,42,7611177524491 ,15,2602138400424
18.2150532 ,Left ,64,0643165862059 ,42,7506178787808 ,15,2639478890176
18.2372724 ,Left ,64,0126042406024 ,42,7523314755134 ,15,2823002457788
18.267302 ,Left ,64,0057042956558 ,42,76598433987 ,15,3030688592503
18.2821712 ,Left ,63,9486403588013 ,42,796479962783 ,15,3256134348633
18.3048289 ,Left ,63,9045449066728 ,42,7963690712858 ,15,3557412645929
18.3347224 ,Left ,63,8587001197256 ,42,744979589399 ,15,3613153080106
18.3510199 ,Left ,63,8397215314308 ,42,7397273358999 ,15,3373397455146
18.3723193 ,Left ,63,85940225325 ,42,7371206387218 ,15,3209182712906
18.3947024 ,Left ,63,8286778099951 ,42,7210549827369 ,15,3064211144531
18.4098672 ,Left ,63,878307641903 ,42,7636495351639 ,15,2568017588543
18.432372 ,Left ,63,684666045944 ,42,8232857078047 ,15,3108806622636
18.455628 ,Left ,63,8798826075872 ,42,8832911286904 ,15,2176688398274
18.4704633 ,Left ,63,8465966960016 ,42,9622551869046 ,15,2027649878926
18.493213 ,Left ,63,784367828513 ,43,0659682141291 ,15,1969446438638
18.5152938 ,Left ,63,929511183801 ,43,1529706723682 ,15,0972389155969
18.5302342 ,Left ,63,8547527515963 ,43,2191848818857 ,15,1203484010526
18.5526719 ,Left ,63,8666854849012 ,43,23322117716 ,15,1327577190283
18.5748118 ,Left ,63,8625597861743 ,43,1876469627468 ,15,1389909392448
18.5898171 ,Left ,63,9302201788813 ,43,1149981989263 ,15,1608250951119
18.6123994 ,Left ,63,8948850768969 ,43,0664698219839 ,15,22229585177
18.6350879 ,Left ,63,8065258991809 ,43,0625916196858 ,15,2315765371578
18.6500508 ,Left ,63,8620646951579 ,43,1014658741127 ,15,1638462059029
18.6723652 ,Left ,64,0491557130994 ,43,1292113009743 ,15,0639444176705
18.694968 ,Left ,64,120091562433 ,43,1351464729422 ,14,9877603770381
18.7098565 ,Left ,64,1205515991474 ,43,0994419757193 ,14,9924877891537
18.732472 ,Left ,64,0881796716252 ,43,0658731236226 ,15,0023176480713
18.7550337 ,Left ,64,0902785151502 ,43,0273486974359 ,14,996940796889
18.7699925 ,Left ,64,1691098326842 ,42,9682092615812 ,14,9875917806152
18.7925392 ,Left ,64,2190445180051 ,42,8740765471837 ,15,006148359999
18.8149812 ,Left ,64,163242251047 ,42,7872888016862 ,14,9726952307621
18.8374409 ,Left ,64,147719976173 ,42,7768298151294 ,14,9539738963706
18.8522055 ,Left ,64,1274621528768 ,42,7710135663135 ,14,9551338084957
18.8747943 ,Left ,64,0792462864702 ,42,7111920375464 ,15,0158197166045
18.897397 ,Left ,64,0167320964506 ,42,6877971263848 ,15,0442602792443
18.9125724 ,Left ,63,9616188307736 ,42,723668920097 ,15,0883625154503
18.9348347 ,Left ,63,8848862485398 ,42,7955868865809 ,15,0911948477118
18.9571669 ,Left ,63,8558705899416 ,42,8798264580723 ,15,0793542279546
18.9724875 ,Left ,63,8561648799626 ,42,9344378528383 ,15,1076933888678
18.9948154 ,Left ,63,860554751312 ,42,9731569826354 ,15,1562295376978
19.0177369 ,Left ,63,7843579678999 ,43,0343904077498 ,15,2373433253712
19.032125 ,Left ,63,6704927942536 ,43,1335772710078 ,15,3303867566736
19.0548206 ,Left ,63,5534437226668 ,43,285229589385 ,15,4071732656887
19.0851284 ,Left ,63,4918805432892 ,43,4428820002625 ,15,4698996152224
19.1073781 ,Left ,63,4268753882721 ,43,5670908689572 ,15,5380863005895
19.1374631 ,Left ,63,3677651626188 ,43,6039827705064 ,15,5600908349871
19.1674928 ,Left ,63,2110315026512 ,43,5330092995348 ,15,5835519025576
19.1974978 ,Left ,63,2540281970053 ,43,5773565408649 ,15,3834221792346
19.219894 ,Left ,63,368012091906 ,43,5467151622874 ,15,2564602589489
19.2426388 ,Left ,63,5173340741153 ,43,5481768028503 ,15,1423264872086
19.257613 ,Left ,63,5843681904935 ,43,6093004606732 ,15,0485919841613
19.2799828 ,Left ,63,6606450438073 ,43,6521586086045 ,14,9860078247303
19.3025333 ,Left ,63,7032232518048 ,43,6419776331556 ,14,9380260866929
19.3174642 ,Left ,63,7346880933411 ,43,6006545623322 ,14,959714174783
19.3401732 ,Left ,63,7777272816928 ,43,6240238545234 ,14,944301511485
19.362305 ,Left ,63,8314830073476 ,43,7029057694849 ,14,9143330638518
19.3773735 ,Left ,63,858047010198 ,43,7649248410367 ,14,9056128149495
19.4073197 ,Left ,63,887942616669 ,43,7330929013694 ,14,8930435036606
19.4300009 ,Left ,63,9748067554257 ,43,6374612843347 ,14,88317253207
19.4447158 ,Left ,64,0521754895254 ,43,4893837776149 ,14,8548393059003
19.4672369 ,Left ,64,0616542101779 ,43,3058320004803 ,14,8470042429759
19.482519 ,Left ,64,0314149564399 ,43,093032765903 ,14,8616039957256
19.4974155 ,Left ,64,0490180995481 ,42,9296597405631 ,14,8798207117392
19.5199657 ,Left ,64,0994484835333 ,42,8439966834446 ,14,8839117440423
19.5423123 ,Left ,64,1359455799599 ,42,7989297647202 ,14,8922810562781
19.557566 ,Left ,64,1762202612775 ,42,713838366597 ,14,9191795516368
19.5801652 ,Left ,64,1785019528112 ,42,624900511794 ,14,9247330238313
19.6021823 ,Left ,64,1527000352684 ,42,6013388184181 ,14,9187646280821
19.6173511 ,Left ,64,1232083955167 ,42,6057010894606 ,14,9036391424428
19.6396572 ,Left ,64,1099018766106 ,42,5926289305779 ,14,8905927025839
19.6623212 ,Left ,64,109595788515 ,42,5540063153371 ,14,8970913726263
19.6774357 ,Left ,64,0334022345365 ,42,4787566475407 ,14,927318289621
19.6997051 ,Left ,63,956588935285 ,42,4091781061822 ,14,9736801348398
19.7223703 ,Left ,63,9675579701641 ,42,3905999391211 ,14,9944056776885
19.7374588 ,Left ,64,0227713646854 ,42,496762534659 ,14,9725398973235
19.7598235 ,Left ,64,0615599756508 ,42,5594650339088 ,14,9928581755414
19.782214 ,Left ,64,0724562089952 ,42,6012791225379 ,15,0344744016088
19.7972377 ,Left ,64,0964004486843 ,42,5904281270379 ,15,0800726860383
19.8198111 ,Left ,64,0596296268187 ,42,5777602817438 ,15,0823762244326
19.8424721 ,Left ,64,0979330099285 ,42,5452719387614 ,15,0507952374242
19.8573973 ,Left ,64,115134320185 ,42,5043700720709 ,14,9922845992124
19.8799503 ,Left ,64,1593674906409 ,42,4392039826246 ,14,9405002825972
19.9024674 ,Left ,64,1556941941242 ,42,3932876358488 ,14,9062952049937
19.9249897 ,Left ,64,1929632669439 ,42,3933657591685 ,14,8712675921141
19.9400162 ,Left ,64,1718906447623 ,42,3666532204731 ,14,8443384570979
19.9624738 ,Left ,64,1764665336069 ,42,3210392400308 ,14,8546648122004
19.9853144 ,Left ,64,1830443611203 ,42,31755518814 ,14,8375222804892
20.0004496 ,Left ,64,1882907855779 ,42,3488780428997 ,14,80144907399
20.0229654 ,Left ,64,1509346215807 ,42,3797523412268 ,14,7896201758319
20.0455245 ,Left ,64,1365367068451 ,42,3899394976444 ,14,7990845433729
20.0607155 ,Left ,64,0946586378229 ,42,3771432267008 ,14,8147256796243
20.0828792 ,Left ,64,0763617158841 ,42,3786641237618 ,14,8195195624069
20.1051135 ,Left ,64,0770445541953 ,42,3931116239492 ,14,822202466665
20.1199874 ,Left ,64,0810338467277 ,42,4203338244746 ,14,822367813935
20.1424927 ,Left ,64,0721035095593 ,42,4764724661742 ,14,8161639107798
20.1646775 ,Left ,64,0803107056433 ,42,5534162957152 ,14,8079889758382
20.1800121 ,Left ,64,086925264763 ,42,6511782763864 ,14,8098683447642
20.2024769 ,Left ,64,0705398855529 ,42,7503659415443 ,14,8211656114129
20.2247417 ,Left ,64,0592033332088 ,42,8557780220178 ,14,833823557473
20.2398066 ,Left ,64,0926173205537 ,42,947561480198 ,14,839909409819
20.2624281 ,Left ,64,0413412781981 ,43,0172550108255 ,14,8607496648256
20.284859 ,Left ,64,0206489840498 ,43,0724860578089 ,14,8624986045024
20.3001086 ,Left ,64,0053977932654 ,43,0783787229176 ,14,8933251752216
20.3226256 ,Left ,64,0585542410138 ,43,0122090717489 ,14,9103190866756
20.3447044 ,Left ,64,0791991363981 ,42,9237463638535 ,14,9637621453447
20.3603571 ,Left ,64,0232999038909 ,42,8644401773242 ,14,9893613773284
20.3830715 ,Left ,63,940293234285 ,42,8299693025392 ,14,9575665538263
20.4051218 ,Left ,63,9430478657072 ,42,8062060990333 ,14,9171634336311
20.4202229 ,Left ,63,9734121961284 ,42,7918775838584 ,14,8856856019663
20.4425091 ,Left ,63,9128888054788 ,42,7718528168953 ,14,888138420438
20.4724384 ,Left ,63,8231093367393 ,42,7322945122873 ,14,9577684031048
20.4873334 ,Left ,63,9226980674303 ,42,7399583541377 ,14,9406570784235
20.5100005 ,Left ,64,0865358452668 ,42,7309322287576 ,14,9190402487115
20.540099 ,Left ,64,3846244516322 ,42,762107205181 ,14,7965299582191
20.562308 ,Left ,64,4953263013643 ,42,7515281640248 ,14,7519696568942
20.5848067 ,Left ,64,5150032160277 ,42,6536486387171 ,14,7612610213693
20.5998803 ,Left ,64,5028753957236 ,42,6607573496002 ,14,7888651555037
20.6229901 ,Left ,64,345717018481 ,42,6806572208593 ,14,8612109396927
20.6457049 ,Left ,64,1049105541006 ,42,6877342843487 ,14,9273114294152
20.6608977 ,Left ,63,8442248263619 ,42,6882483947477 ,15,0611569880315
20.6829402 ,Left ,63,6042075893417 ,42,767875818109 ,15,152835722023
20.7054034 ,Left ,63,4717789484411 ,42,9039874536683 ,15,2305519264387
20.7275354 ,Left ,63,4191745869526 ,43,0521316596412 ,15,3253486918327
20.7509272 ,Left ,63,3978072647086 ,43,1766222526582 ,15,4017047499212
20.7730762 ,Left ,63,370609016527 ,43,2797830000682 ,15,4578286825126
20.7952523 ,Left ,63,251584505235 ,43,3185476298203 ,15,4596102762828
20.8106812 ,Left ,63,1515434123766 ,43,332132720613 ,15,4582238428783
20.825162 ,Left ,63,132251892972 ,43,3899179372416 ,15,3698161874641
20.8477454 ,Left ,63,235103839458 ,43,4830266378022 ,15,2200065865831
20.8627439 ,Left ,63,3503660829412 ,43,5738180941349 ,15,095725927622
20.8850932 ,Left ,63,4058057256536 ,43,6163088678515 ,15,0529310237142
20.9079272 ,Left ,63,4180174869417 ,43,5983858509719 ,15,0335183999016
20.9229321 ,Left ,63,4404197212776 ,43,539908296468 ,15,0186816804134
20.945355 ,Left ,63,5197295176392 ,43,5186879129954 ,14,963508432187
20.9680768 ,Left ,63,6291427796687 ,43,5760088709394 ,14,8700167857082
20.982849 ,Left ,63,7214710330032 ,43,6579882549451 ,14,8059831081596
21.0053311 ,Left ,63,7874569733862 ,43,694684625069 ,14,7672966503806
21.0352557 ,Left ,63,8643829301648 ,43,6425259530927 ,14,7534440682453
21.0576718 ,Left ,63,9924909153598 ,43,5086688450081 ,14,7498549989443
21.0800723 ,Left ,64,0824448412899 ,43,2811212947938 ,14,7473068584768
21.0951868 ,Left ,64,0594705857079 ,43,0373857138362 ,14,8140360429474
21.1102425 ,Left ,63,9767317532706 ,42,8300891693425 ,14,8886671302629
21.1249362 ,Left ,63,9944991935839 ,42,6374292593031 ,14,8898772114118
21.1476056 ,Left ,63,9931820422021 ,42,5332634270508 ,14,8637566280766
21.1626709 ,Left ,63,9250937554881 ,42,4768752166386 ,14,8852020026493
21.1849448 ,Left ,63,9591471271503 ,42,4258105187817 ,14,8737201179639
21.2073971 ,Left ,63,90658077033 ,42,3432785822045 ,14,8550696843336
21.2227383 ,Left ,63,8914890621429 ,42,2512876733237 ,14,9263201380285
21.2449395 ,Left ,63,9018851297327 ,42,2650468519809 ,14,9581102580758
21.2675335 ,Left ,63,9764874406665 ,42,3855973255226 ,14,8980672525915
21.2823116 ,Left ,63,9579168869388 ,42,4240293989552 ,14,9287291462109
21.3121692 ,Left ,64,0043355976869 ,42,4165261152632 ,14,9815196649476
21.3347509 ,Left ,64,0578688689934 ,42,3995946868835 ,15,0011686632939
21.3497912 ,Left ,64,0814556419563 ,42,398205545589 ,15,0071549681373
21.3648053 ,Left ,64,0481088892152 ,42,4069620688415 ,14,9976521187664
21.3879558 ,Left ,64,0891738611383 ,42,3909848450752 ,14,9908042678475
21.4030711 ,Left ,64,1033127154173 ,42,3496365961508 ,14,9998394711686
21.4256115 ,Left ,64,1162620676398 ,42,3174202410285 ,15,014115946791
21.4475599 ,Left ,64,101881958073 ,42,3269583744264 ,15,0120358658907
21.4625652 ,Left ,64,0569653761603 ,42,3708808729524 ,15,0019617971047
21.4857165 ,Left ,64,0500801620108 ,42,4054712728658 ,15,0024514481291
21.5079947 ,Left ,64,045063748249 ,42,4257336783423 ,15,0057015141032
21.5229099 ,Left ,64,034068123199 ,42,4425173096969 ,14,9949521908634
21.5448425 ,Left ,64,0275347560802 ,42,4588338319681 ,14,9649628202694
21.5673775 ,Left ,64,0078256204489 ,42,4556215390135 ,14,9454192388996
21.5823802 ,Left ,64,0435194459066 ,42,4456159076503 ,14,9168977472356
21.6048244 ,Left ,64,0839520888356 ,42,4475369600306 ,14,8960803120629
21.6272944 ,Left ,64,1179662039651 ,42,4540102030904 ,14,8913157625249
21.6425679 ,Left ,64,1377574024802 ,42,483328901791 ,14,8899381028435
21.6647407 ,Left ,64,1758743990515 ,42,5237127542114 ,14,8778647157092
21.6872389 ,Left ,64,201051061986 ,42,5779079062618 ,14,8718880342538
21.702534 ,Left ,64,2394944546561 ,42,6653355087615 ,14,8566311561182
21.7251681 ,Left ,64,2670469394035 ,42,7637861436681 ,14,8451160410569
21.7475019 ,Left ,64,3206630811147 ,42,8673564868883 ,14,8218228153574
21.7700788 ,Left ,64,3456321373748 ,42,9674633873544 ,14,8029569097594
21.7851126 ,Left ,64,3403871579621 ,43,0795332338415 ,14,7871508581777
21.8151836 ,Left ,64,2987846991025 ,43,1803683755468 ,14,7930220746953
21.8376201 ,Left ,64,2768672363089 ,43,2414473994288 ,14,7781199414974
21.8601881 ,Left ,64,2761082765289 ,43,2530133628678 ,14,7447420151354
21.8976467 ,Left ,64,2729082768561 ,43,1082856747777 ,14,8687623631038
21.9123505 ,Left ,64,1854306306879 ,43,0489947475519 ,14,8723101548463
21.9274765 ,Left ,64,1423317375912 ,43,0422607700594 ,14,8115655206011
21.9498978 ,Left ,64,2017090891468 ,43,0367420332834 ,14,7470350478117
21.965133 ,Left ,64,2443776484382 ,43,0411269887613 ,14,7082321821464
21.9874985 ,Left ,64,2053221627691 ,43,0348734972417 ,14,7050166795751
22.0098026 ,Left ,64,1586303934528 ,43,0095282092986 ,14,7533271765645
22.025352 ,Left ,64,1014022023668 ,43,0007897944883 ,14,8109792671157
22.0479594 ,Left ,64,0922388539286 ,43,001315822066 ,14,8350801888508
22.0703563 ,Left ,64,133199433554 ,42,9488425193603 ,14,8874124051895
22.0856441 ,Left ,64,114954018212 ,42,9002005409837 ,14,8635905698686
22.1080945 ,Left ,64,0457284625014 ,42,8357980118947 ,14,8202840547338
22.1303998 ,Left ,64,0332874761884 ,42,8313435294891 ,14,8162429507497
22.1454874 ,Left ,64,0336384605232 ,42,8200081618751 ,14,806962804849
22.1601595 ,Left ,63,9866085711542 ,42,7069290060304 ,14,8535575234737
22.1826183 ,Left ,63,9519205483284 ,42,622728589285 ,14,8680095120058
22.1974588 ,Left ,64,0258997349979 ,42,6056150065301 ,14,8801736559424
22.2201109 ,Left ,63,9739733113359 ,42,625401846401 ,14,8611056791145
22.242601 ,Left ,63,8959157232551 ,42,6142197583322 ,14,8498419129122
22.2574993 ,Left ,63,9420292649629 ,42,6048397190829 ,14,8765168271338
22.2804725 ,Left ,63,9232225767685 ,42,6362613209773 ,14,90818050406
22.3030666 ,Left ,63,869299171821 ,42,6674485393368 ,14,9745626855114
22.3181234 ,Left ,63,7834646753103 ,42,7655990888275 ,15,0701070232614
22.3399748 ,Left ,63,6784268097617 ,42,9193890705766 ,15,1672906965828
22.3626204 ,Left ,63,5930304658008 ,43,1015777214381 ,15,261027380851
22.3774548 ,Left ,63,4674018205545 ,43,2300075547618 ,15,3385099460322
22.4000344 ,Left ,63,375040190913 ,43,2842925720163 ,15,3302521543559
22.4300008 ,Left ,63,2958974112873 ,43,2867184459262 ,15,3163546792937
22.4450917 ,Left ,63,2712170161208 ,43,3238032688103 ,15,3134876375256
22.4824519 ,Left ,63,2509334765524 ,43,4660430929801 ,15,0871360636221
22.4972064 ,Left ,63,3999561135386 ,43,5653814325776 ,15,0012772932616
22.5198478 ,Left ,63,5086625158632 ,43,6526100146809 ,14,9562012004085
22.5423749 ,Left ,63,5823741777369 ,43,7178306979813 ,14,9342601678868
22.5574922 ,Left ,63,5724995038634 ,43,7184281492418 ,14,9395023385231
22.5797689 ,Left ,63,6169567593875 ,43,6919039143346 ,14,9282872987582
22.6029789 ,Left ,63,6391502010037 ,43,6595134879818 ,14,9341198559961
22.6178538 ,Left ,63,7165587865776 ,43,6985638867036 ,14,8912582701833
22.6400574 ,Left ,63,8048526500295 ,43,7770023875793 ,14,8574198464194
22.6622482 ,Left ,63,8345096048851 ,43,761485222912 ,14,8677131653868
22.6999819 ,Left ,63,9773835127871 ,43,4261349388716 ,14,9035077792873
22.7224999 ,Left ,64,0040412109063 ,43,1289259003564 ,14,9394285568006
22.7372707 ,Left ,63,9970083417618 ,42,8832099871483 ,14,9836593122242
22.7597209 ,Left ,63,9173284906718 ,42,7618368774316 ,15,028314047336
22.7822487 ,Left ,63,8620763837159 ,42,6811484196729 ,15,0508314884823
22.8200772 ,Left ,63,8221240970835 ,42,4833938819567 ,15,0873148011609
22.8425775 ,Left ,63,8144876006285 ,42,4959299901047 ,15,1566486797424
22.8572732 ,Left ,63,8697641925864 ,42,6745478372907 ,15,1441524144595
22.8797781 ,Left ,63,8554836449039 ,42,768768860689 ,15,1844170923821
22.9031032 ,Left ,63,8692826270899 ,42,7801337162237 ,15,2372160876075
22.9397276 ,Left ,63,9453012065134 ,42,7608311804118 ,15,2624031611652
22.9697428 ,Left ,63,9264004626883 ,42,7712033232882 ,15,2462061529119
23.0081192 ,Left ,64,0016610287266 ,42,656267395958 ,15,1581828598073
23.02276 ,Left ,64,0914185947987 ,42,5956632277587 ,15,1337428077356
23.0607089 ,Left ,64,0339371289741 ,42,585615816391 ,15,1041517792137
23.0832051 ,Left ,64,0173132120332 ,42,6386558533004 ,15,1019471097422
23.1205121 ,Left ,64,0846904354036 ,42,7409212426228 ,15,1040376600383
23.1349746 ,Left ,64,0562217126024 ,42,7661099843085 ,15,1184146543827
23.1575285 ,Left ,64,0057112604693 ,42,7700555274451 ,15,1264387053985
23.1800532 ,Left ,63,9963221422107 ,42,7676935642071 ,15,1161181606495
23.1947843 ,Left ,63,9523045563593 ,42,700054137229 ,15,1441211499296
23.2173016 ,Left ,63,7907236286561 ,42,6904154795509 ,15,203595300561
23.2474756 ,Left ,63,7723881832816 ,42,7022640668885 ,15,2101530266665
23.270005 ,Left ,63,9696431348657 ,42,705916975572 ,15,1251881774781
23.2926435 ,Left ,63,8278717250463 ,42,751493173839 ,15,1884648488206
23.3075035 ,Left ,64,0074525678421 ,42,7947080272806 ,15,1200515414954
23.3226799 ,Left ,63,9862659256548 ,42,8596802932224 ,15,1127624722651
23.337478 ,Left ,63,8952251381743 ,42,9086325762051 ,15,1511091075133
23.3599627 ,Left ,63,8590767425885 ,42,9334061503677 ,15,1486543710152
23.3749432 ,Left ,63,9181006875315 ,43,0044541260729 ,15,1185341272768
23.3974694 ,Left ,63,9414549394418 ,43,0656359847972 ,15,0978643987089
23.4200523 ,Left ,63,9800833896168 ,43,1086896022631 ,15,0686289047485
23.4348448 ,Left ,64,001526122019 ,43,1293716256303 ,15,0512435510313
23.4573141 ,Left ,64,0556868589399 ,43,1507848687495 ,15,0650868100996
23.4798679 ,Left ,63,9138697362191 ,43,1168231868809 ,15,1911435683207
23.4947852 ,Left ,63,9578562314868 ,43,0618671793804 ,15,2147765171523
23.525028 ,Left ,64,0369183857633 ,43,0777050876991 ,15,1789825944794
23.5475004 ,Left ,64,0625722551665 ,43,0239242708651 ,15,120718535347
23.5701053 ,Left ,64,0663605852753 ,43,0100965494188 ,15,0867531900469
23.5774376 ,Left ,64,0401187765465 ,43,0104163511819 ,15,0758855363622
23.5997314 ,Left ,64,0476533337804 ,43,0169456215292 ,15,0608277048225
23.6229664 ,Left ,64,012516005949 ,43,0394928741185 ,15,0316074426018
23.6378737 ,Left ,64,0281385334988 ,43,0339355903965 ,15,0166885653232
23.6606619 ,Left ,64,0944936529792 ,42,9617722395891 ,15,0733216255807
23.6830987 ,Left ,64,0571793933082 ,42,8694644802977 ,15,0509003308533
23.6978356 ,Left ,64,0252594222845 ,42,8242035886971 ,15,033836520701
23.7204547 ,Left ,64,0460553224116 ,42,8390480433336 ,14,9866774685667
23.7429758 ,Left ,64,0791388796899 ,42,7548420260191 ,15,0009995630973
23.7574196 ,Left ,64,0663911138357 ,42,7079392859367 ,14,9905718186604
23.7801651 ,Left ,64,0955744398707 ,42,7195496163018 ,15,009475476774
23.8025201 ,Left ,64,0660037657817 ,42,7792364993215 ,15,0045223190714
23.8251536 ,Left ,64,0383544011315 ,42,8687623131535 ,14,9908109203742
23.8473315 ,Left ,64,0131105488231 ,42,9506626658637 ,15,0227726339852
23.8729188 ,Left ,63,9355985930064 ,43,0290982301027 ,15,0682456373851
23.8784436 ,Left ,63,821199970888 ,43,103304122393 ,15,174707099655
23.9002064 ,Left ,63,6845525779536 ,43,2191607910327 ,15,2682632362252
23.922484 ,Left ,63,5973304076289 ,43,3563602012808 ,15,3526051272854
23.9376016 ,Left ,63,5090162484173 ,43,5111029545327 ,15,4467702636585
23.9600064 ,Left ,63,4050730653007 ,43,5813503966467 ,15,4648751231176
23.9824815 ,Left ,63,2695025018273 ,43,5818669867742 ,15,4771716450381
23.9976132 ,Left ,63,175976252284 ,43,6309344957152 ,15,4856013001652
24.0201695 ,Left ,63,1538541718951 ,43,7104995658789 ,15,4068485898355
24.0426822 ,Left ,63,2115176788211 ,43,7934261506681 ,15,2988402834903
24.0873098 ,Left ,63,304634340148 ,43,8181304906531 ,15,1522286669906
24.1097039 ,Left ,63,3413436691501 ,43,7941438372308 ,15,1220209386828
24.1625611 ,Left ,63,4446179500798 ,43,638013918016 ,15,0004485015809
24.2005865 ,Left ,63,5736630591716 ,43,6487054566766 ,14,9731346021425
24.2222968 ,Left ,63,6128823033783 ,43,5856439238206 ,14,9654730790764
24.2598209 ,Left ,63,7992602447518 ,43,3059195541462 ,14,9135552016102
24.2825615 ,Left ,63,8268816764305 ,43,1142428636093 ,14,9258648922076
24.3201621 ,Left ,63,8933635891752 ,42,7251233508386 ,14,9468450859731
24.342636 ,Left ,63,8782770576746 ,42,6155607503199 ,14,9204295977105
24.3724304 ,Left ,63,827448935888 ,42,5612433536175 ,14,8935532096905
24.4250063 ,Left ,63,859327493066 ,42,2935317048939 ,14,8850615781658
24.4624365 ,Left ,63,8855642696974 ,42,3319040899697 ,14,8936082081455
24.4849066 ,Left ,63,9179223554112 ,42,3972030390089 ,14,8934646986044
24.5223821 ,Left ,63,9874869600177 ,42,3680467316481 ,14,9383870579421
24.5597219 ,Left ,63,9852748394468 ,42,3305809218471 ,14,932015074625
24.582567 ,Left ,63,9913329166097 ,42,3590249409431 ,14,9179565846655
24.6203445 ,Left ,64,1050139288569 ,42,3340800733063 ,14,8893775692548
24.6503715 ,Left ,64,1298517386616 ,42,2973125730643 ,14,8822217091476
24.7026065 ,Left ,64,0921640205488 ,42,4237861896154 ,14,8311827779315
24.7402808 ,Left ,64,0035020761073 ,42,4315650043023 ,14,8756430341352
24.7623313 ,Left ,64,0081368973527 ,42,4353345851621 ,14,8963606235208
24.7998756 ,Left ,63,9784329493727 ,42,4716961993513 ,14,8921467377371
24.822445 ,Left ,63,9699087204908 ,42,4647219504272 ,14,8933707354801
24.8602215 ,Left ,64,0146692378332 ,42,4513373866148 ,14,8532747245259
24.8824039 ,Left ,64,0505878332533 ,42,4682511684535 ,14,8358308100687
24.9200879 ,Left ,64,1181616454107 ,42,5684593433494 ,14,7999627190523
24.9425608 ,Left ,64,1387470333235 ,42,6447112800988 ,14,785291225686
24.9802164 ,Left ,64,1776091957555 ,42,8398008818248 ,14,7811425150585
25.0024124 ,Left ,64,1727339046124 ,42,954447540478 ,14,7870366024608
25.0399339 ,Left ,64,1945820924612 ,43,1482385266753 ,14,797932017493
25.062688 ,Left ,64,2280118913221 ,43,2226422034794 ,14,80328637365
25.085173 ,Left ,64,2023407016187 ,43,2530695641128 ,14,8080364305097
25.1227112 ,Left ,64,2249813801301 ,43,2312523199516 ,14,8454654860511
25.145077 ,Left ,64,2681032556817 ,43,2017511442256 ,14,8568326768971
25.1900629 ,Left ,64,317223573093 ,43,0668197005508 ,14,830303035611
25.2124558 ,Left ,64,2763405817872 ,43,0183403397853 ,14,8415896397912
25.272384 ,Left ,64,1443905893633 ,42,8123028752719 ,14,9868643028775
25.3025769 ,Left ,63,9101584701018 ,42,8292344172848 ,15,0788222823006
25.3250502 ,Left ,63,7398776017394 ,42,7918930132346 ,15,1250564360462
25.3622683 ,Left ,63,3778638116816 ,42,7326056455285 ,15,2187914796748
25.3848468 ,Left ,63,1569103566753 ,42,6900153054742 ,15,2708657920531
25.4225279 ,Left ,62,9532401128382 ,42,7002091321496 ,15,3568523277863
25.4449833 ,Left ,62,9523232369787 ,42,7093493410566 ,15,3491145873523
25.4897701 ,Left ,63,2091935365847 ,42,7499873718032 ,15,2756429869555
25.5123627 ,Left ,63,3657344179748 ,42,7809509655619 ,15,1846040388265
25.5425428 ,Left ,63,623237842045 ,42,6909446277147 ,15,0543646185728
25.5648976 ,Left ,63,6422164654414 ,42,6988117704641 ,15,0025795304984
25.6023625 ,Left ,63,5638760775252 ,42,6566405785704 ,14,9895331710374
25.6249261 ,Left ,63,5135568848331 ,42,6535849351149 ,14,967130533653
25.6625199 ,Left ,63,3877172289482 ,42,6742015987922 ,15,0504083188337
25.6850944 ,Left ,63,3742422218469 ,42,9371201041639 ,15,0748874821811
25.7223696 ,Left ,63,2005167219714 ,43,2090505470787 ,15,2608692231017
25.7447337 ,Left ,63,2175882426722 ,43,2551666391488 ,15,3212472969542
25.7600604 ,Left ,63,1233484467824 ,43,2969535372166 ,15,347536462901
25.7750559 ,Left ,63,0022684144842 ,43,3131725105608 ,15,3591673142104
25.79734 ,Left ,62,8930126793698 ,43,2920215428718 ,15,3889829449322
25.8198331 ,Left ,62,9049697732046 ,43,2265531719093 ,15,4201443164063
25.835164 ,Left ,62,921239114957 ,43,1835405445519 ,15,4219346218498
25.8574689 ,Left ,62,9037910679655 ,43,151634651667 ,15,4094831753367
25.8801446 ,Left ,62,8492682825168 ,43,1333201035958 ,15,3896386263618
25.8949558 ,Left ,62,8384693530525 ,43,1151980341366 ,15,378372038807
25.9174483 ,Left ,62,8840769882563 ,43,1366674382543 ,15,3887275642069
25.9400755 ,Left ,62,8971545955746 ,43,1830154762715 ,15,3974246562913
25.9549803 ,Left ,62,8736451515399 ,43,2488641105533 ,15,3995824935777
25.9775171 ,Left ,62,7093684069799 ,43,3046067461595 ,15,4304684817076
25.9998509 ,Left ,62,6825974558327 ,43,3509953046278 ,15,4519355237526
26.0151247 ,Left ,62,7124692063909 ,43,4542105652333 ,15,4707530400519
26.0372925 ,Left ,62,7017950722414 ,43,5484264902548 ,15,4350223884578
26.0599722 ,Left ,62,7459506283108 ,43,5575068730442 ,15,3985476622228
26.0749563 ,Left ,62,8173160818675 ,43,5092227469395 ,15,3426897441874
26.0980106 ,Left ,62,8652688680357 ,43,4553814552105 ,15,2387163850768
26.1206193 ,Left ,62,9406439801883 ,43,4450069486389 ,15,105431854871
26.1426966 ,Left ,63,0673589313248 ,43,4589112328755 ,15,000697516651
26.1578395 ,Left ,63,1695251757933 ,43,4726739406402 ,14,9507359528051
26.1799471 ,Left ,63,2584072553011 ,43,4602908670517 ,14,9345223447718
26.195045 ,Left ,63,2475744352107 ,43,4404797185184 ,14,9392956828928
26.2177264 ,Left ,63,2856873676923 ,43,4532304609443 ,14,9090673100848
26.2402918 ,Left ,63,4060516783567 ,43,5339348683236 ,14,832593482257
26.2626598 ,Left ,63,5154234526527 ,43,6203086134938 ,14,7677870367303
26.2776264 ,Left ,63,544706577844 ,43,6250725912166 ,14,731784294578
26.3077025 ,Left ,63,6469689916331 ,43,5472305562041 ,14,7388765283391
26.3302625 ,Left ,63,7483910328704 ,43,3874520054412 ,14,7652382809842
26.3525779 ,Left ,63,7642504061565 ,43,123576226009 ,14,8128069981221
26.3676101 ,Left ,63,7383492414414 ,42,8454410270034 ,14,8961300991611
26.3899634 ,Left ,63,6144572998762 ,42,7432641519005 ,14,9505419751159
26.4049767 ,Left ,63,6400611394829 ,42,693044995555 ,14,9168103556557
26.4199619 ,Left ,63,6443380275421 ,42,5905798062537 ,14,85597438982
26.4423906 ,Left ,63,6130596385941 ,42,4827872175946 ,14,9558138001705
26.4575798 ,Left ,63,6496763785738 ,42,5935660005274 ,15,0243324922888
26.4800421 ,Left ,63,6381697220033 ,42,7376504754106 ,15,0681257184488
26.5027119 ,Left ,63,6054948805689 ,42,7894912179149 ,15,1509315926374
26.5175832 ,Left ,63,6569969066822 ,42,7802635276548 ,15,2012763235049
26.5397164 ,Left ,63,6783423274684 ,42,7753617324008 ,15,2130582298383
26.5624911 ,Left ,63,6995641492689 ,42,7405124477793 ,15,1984290778495
26.5773158 ,Left ,63,6796615860435 ,42,7363365015194 ,15,1325234699448
26.5998548 ,Left ,63,703138615397 ,42,7197980925007 ,15,0445839988384
26.6223879 ,Left ,63,7172484045125 ,42,7224783420318 ,14,9776625118259
26.6372837 ,Left ,63,7614256012163 ,42,7159323531374 ,14,9594811077706
26.6599026 ,Left ,63,7607399544462 ,42,7143179558269 ,14,9588972206283
26.6824156 ,Left ,63,7573431649813 ,42,7190479000284 ,14,9926685746299
26.6972484 ,Left ,63,6876469318104 ,42,7679548692673 ,14,9977404845724
26.7198091 ,Left ,63,6871899795775 ,42,7977803056722 ,15,0038870734856
26.7423966 ,Left ,63,7407160833345 ,42,8437970773 ,14,9732869046751
26.7574862 ,Left ,63,7345914804643 ,42,8604325297127 ,14,966826438547
26.7800951 ,Left ,63,683842439633 ,42,8451440003491 ,14,9980401899609
26.8023504 ,Left ,63,6701911761975 ,42,8074546491384 ,15,0136258589927
26.8173713 ,Left ,63,6835493840869 ,42,7828352442718 ,15,0006263343039
26.8397468 ,Left ,63,7331171450158 ,42,7961515066145 ,14,9751809353485
26.8698278 ,Left ,63,7912520473433 ,42,8114332945812 ,14,9586656874531
26.8850191 ,Left ,63,8276192319004 ,42,8293724647362 ,14,9466692452994
26.9151141 ,Left ,63,8631861131655 ,42,8766163434595 ,14,9250161958736
26.9302719 ,Left ,63,9068544350061 ,42,9382443851642 ,14,9081210664614
26.9449817 ,Left ,63,9594398673204 ,42,988021483265 ,14,8974431662853
26.9600039 ,Left ,63,9936220649687 ,43,0507672456427 ,14,887848726359
26.98248 ,Left ,63,9975907975612 ,43,1220558595069 ,14,8731806399642
26.9975306 ,Left ,63,994775400297 ,43,1841100548058 ,14,8529803507611
27.0199201 ,Left ,63,9833857468241 ,43,217138142113 ,14,8504904087757
27.0427239 ,Left ,64,0106248793552 ,43,2190859139514 ,14,8781509643804
27.057542 ,Left ,63,9607935047102 ,43,2036808817529 ,14,9291700633169
27.0802583 ,Left ,63,9211353533788 ,43,1476320221261 ,14,92841348094
27.1029402 ,Left ,63,888709248373 ,43,0912384067678 ,14,8774530984427
27.1172466 ,Left ,63,9343745880439 ,43,0429163878526 ,14,8120143050548
27.14734 ,Left ,63,9680193468085 ,43,0182933174424 ,14,7438803664307
27.1698265 ,Left ,63,9543715943196 ,43,0009701177682 ,14,7194277990184
27.1848683 ,Left ,63,8980305879039 ,42,9888449046088 ,14,7098833170098
27.1997773 ,Left ,63,9181317100054 ,42,9322029168836 ,14,6950434137056
27.2223213 ,Left ,63,9897589989721 ,42,8658392853549 ,14,7190714236645
27.2374106 ,Left ,64,0072393617932 ,42,7708702581581 ,14,7005228067464
27.2600813 ,Left ,63,9546388247804 ,42,6925205117002 ,14,6724913168272
27.2823388 ,Left ,63,9584681183485 ,42,7145814096148 ,14,6287869558197
27.2973162 ,Left ,63,948049770136 ,42,701695167635 ,14,6290819620386
27.3198578 ,Left ,63,8701797065897 ,42,6380605165464 ,14,6392602906983
27.342469 ,Left ,63,8475899790631 ,42,6386012624558 ,14,6353158950629
27.3581302 ,Left ,63,8640097589435 ,42,7433846013147 ,14,6699130070907
27.380657 ,Left ,63,7636204793344 ,42,8454057420621 ,14,6735435770257
27.4027478 ,Left ,63,6664969964985 ,42,9165836085633 ,14,717783148531
27.4252096 ,Left ,63,6222590547572 ,42,989823912163 ,14,7890320394427
27.4400152 ,Left ,63,5291377099262 ,43,0911818128099 ,14,8554299084334
27.4626578 ,Left ,63,3554158393516 ,43,1924785280926 ,14,9790772003112
27.4853001 ,Left ,63,2671755755995 ,43,3406228402498 ,15,0821321522535
27.5001834 ,Left ,63,1799883888517 ,43,470445989879 ,15,1619301600174
27.5223205 ,Left ,63,1217599762201 ,43,5448415405097 ,15,1725249855576
27.5449097 ,Left ,63,010191941348 ,43,5647702003687 ,15,1792497297689
27.5598122 ,Left ,62,9140988535524 ,43,6053486289414 ,15,1666431031593
27.5823495 ,Left ,62,8963838980067 ,43,6611977986957 ,15,0638410468977
27.6047565 ,Left ,62,9541786971022 ,43,6998650255525 ,14,9416800949281
27.6199765 ,Left ,63,0677548425291 ,43,7275724457428 ,14,8298246251728
27.6424735 ,Left ,63,117398337136 ,43,7300327289649 ,14,7440727627701
27.6651201 ,Left ,63,1837646417695 ,43,7234524848164 ,14,6620588739442
27.6799049 ,Left ,63,2393612090129 ,43,6777425664215 ,14,6001133257338
27.7022688 ,Left ,63,3295141470043 ,43,6178835730424 ,14,5473688617168
27.7254127 ,Left ,63,4297943424249 ,43,6120312248817 ,14,4783058348501
27.7407688 ,Left ,63,5479305745024 ,43,6318054948349 ,14,4047319026578
27.7629458 ,Left ,63,642228440428 ,43,6485865454689 ,14,3313517063789
27.7847155 ,Left ,63,7269557814472 ,43,609137623652 ,14,3003417019582
27.7998246 ,Left ,63,8057686843672 ,43,4708136175635 ,14,3260891913168
27.8222729 ,Left ,63,8612577587507 ,43,2222028791113 ,14,3685616625581
27.8447082 ,Left ,63,9026868825486 ,42,9083830287087 ,14,4440979743916
27.860632 ,Left ,63,8543424996534 ,42,7001004241861 ,14,4972248571424
27.8823168 ,Left ,63,6999191815981 ,42,6172677713461 ,14,4854479506093
27.9049719 ,Left ,63,7284205215823 ,42,5204554012922 ,14,4510549756391
27.9198721 ,Left ,63,7382289953753 ,42,3891155619639 ,14,4719661361551
27.9422297 ,Left ,63,7597270015441 ,42,3168836596764 ,14,5714749909417
27.9650922 ,Left ,63,7587333563335 ,42,45281077637 ,14,5893817508042
27.9800476 ,Left ,63,734407352687 ,42,5723724443783 ,14,6294064959109
28.0027194 ,Left ,63,6774437153216 ,42,6243644382435 ,14,712663596273
28.0252079 ,Left ,63,7317547597681 ,42,6386114651207 ,14,7708921597575
28.0402158 ,Left ,63,7465025519886 ,42,6292773129325 ,14,7840968893943
28.0625365 ,Left ,63,7789471093847 ,42,5940260330834 ,14,7629820579179
28.0849733 ,Left ,63,7664110744963 ,42,5631713915602 ,14,6931618618744
28.1003138 ,Left ,63,782615369972 ,42,5434067301442 ,14,6228222702209
28.1228138 ,Left ,63,8189859684177 ,42,5357007239602 ,14,5653279060266
28.1450173 ,Left ,63,7966032028214 ,42,4792964042422 ,14,534792330341
28.1602436 ,Left ,63,8431536294563 ,42,4457910869677 ,14,5340985898997
28.1828019 ,Left ,63,7836855377815 ,42,4663401912831 ,14,5376904550953
28.2052464 ,Left ,63,7365953891256 ,42,4978194549232 ,14,5421357348725
28.2198054 ,Left ,63,7232075261019 ,42,5546929083607 ,14,5373796499345
28.2424749 ,Left ,63,7743632180222 ,42,6426423226859 ,14,5148036698551
28.2649292 ,Left ,63,8002828611824 ,42,699654479652 ,14,5189158975681
28.2799199 ,Left ,63,7887942678919 ,42,7172293115258 ,14,5293506583741
28.3023874 ,Left ,63,7707163330509 ,42,7030645025135 ,14,5428916722998
28.3251968 ,Left ,63,8350455216662 ,42,7039933161735 ,14,573080083516
28.3403949 ,Left ,63,8970519915909 ,42,7169013757819 ,14,6040451916824
28.3626118 ,Left ,63,9262967809255 ,42,732069913186 ,14,6311782976757
28.3850048 ,Left ,63,934066044927 ,42,7308380254801 ,14,6370220539563
28.4074017 ,Left ,63,964915054299 ,42,7171316316985 ,14,6213188392775
28.4227211 ,Left ,63,9952295540468 ,42,7222547320726 ,14,5983649227329
28.4448086 ,Left ,64,0450272801744 ,42,7224505891067 ,14,592268399478
28.4672265 ,Left ,64,0781229094559 ,42,7264388367879 ,14,6008690383247
28.4825332 ,Left ,64,0801636311554 ,42,7523404538991 ,14,5997057105816
28.5049195 ,Left ,64,0866686746478 ,42,760393463484 ,14,5982463960645
28.5275057 ,Left ,64,0996331607088 ,42,7736323261397 ,14,5909014473932
28.5426921 ,Left ,64,1042197680507 ,42,792610141509 ,14,5866587396301
28.57259 ,Left ,64,0687954957977 ,42,8186483507678 ,14,5914879682706
28.5950646 ,Left ,64,0527480378942 ,42,8373919224755 ,14,5916461718604
28.6102714 ,Left ,64,0406179787377 ,42,8583285670439 ,14,5914034002932
28.6250283 ,Left ,64,0691362527602 ,42,878688235338 ,14,585266758252
28.6476882 ,Left ,64,0834035393091 ,42,8878678744116 ,14,5831843606844
28.6627288 ,Left ,64,046673014067 ,42,8988943688808 ,14,5836648903809
28.68548 ,Left ,64,0292150995142 ,42,8943842172796 ,14,5846343885527
28.7078606 ,Left ,64,0232912093178 ,42,8867259825569 ,14,5796532797986
28.7227629 ,Left ,64,0245548561853 ,42,8969785920889 ,14,5687848075778
28.745021 ,Left ,64,0343463020111 ,42,9005864546192 ,14,5764681741718
28.7673635 ,Left ,64,0249555607468 ,42,9084124646349 ,14,5967625178336
28.7826241 ,Left ,64,0128861106372 ,42,9174245493685 ,14,6060742905288
28.8126254 ,Left ,64,0033867526218 ,42,9254161739834 ,14,6138033581514
28.8424151 ,Left ,64,026728428888 ,42,9389360296471 ,14,6123353129398
28.857493 ,Left ,64,0280211345019 ,42,9415529371112 ,14,6100184107147
28.8725225 ,Left ,64,0280211345019 ,42,9415529371112 ,14,6100184107147
28.9023715 ,Left ,64,0163806719989 ,42,9253305379891 ,14,6216141774553
28.9254663 ,Left ,64,0111134766815 ,42,913647309551 ,14,6238428871187
28.9478537 ,Left ,64,0143095754221 ,42,9079786763232 ,14,625939707319
28.962978 ,Left ,64,011967355757 ,42,9213570228831 ,14,6339013113835
28.9855928 ,Left ,64,0136001781786 ,42,950433906121 ,14,6343661799999
29.0078484 ,Left ,64,0092342685064 ,43,0146727942381 ,14,6317526014328
29.0229949 ,Left ,64,0299977572589 ,43,0924377062138 ,14,614528471381
29.0451447 ,Left ,64,0228373580374 ,43,1631235316068 ,14,5861506258898
29.0748806 ,Left ,64,0115970316528 ,43,229006451407 ,14,5788438168654
29.0898902 ,Left ,63,9894281549314 ,43,2941446389184 ,14,5942211009463
29.1122212 ,Left ,63,948332942196 ,43,3372920057823 ,14,6046652833148
29.142571 ,Left ,64,0235807535476 ,43,214306732449 ,14,6112777226995
29.1650794 ,Left ,64,0396714899172 ,43,2019715868191 ,14,6513008501358
29.1873808 ,Left ,63,8150822717113 ,43,1706274088637 ,14,6434932638137
29.2101855 ,Left ,63,7213420155832 ,43,1368483519224 ,14,6187702172985
29.2248433 ,Left ,63,8123138207146 ,43,1217940357885 ,14,5732077300195
29.2474071 ,Left ,63,8605818122151 ,43,0834365786498 ,14,5466881091348
29.2697822 ,Left ,63,8017069047384 ,43,0395064877013 ,14,5468977562919
29.2848751 ,Left ,63,7976376343706 ,42,9801096625542 ,14,5412893052275
29.3072991 ,Left ,63,7966687557243 ,42,9016377048295 ,14,5323909662321
29.3301264 ,Left ,63,8135167642349 ,42,7779447855633 ,14,4947724315217
29.3527336 ,Left ,63,7618979310116 ,42,6991431963864 ,14,4491893522454
29.3825936 ,Left ,63,7755818026442 ,42,6947463015256 ,14,3974195862526
29.4047282 ,Left ,63,7287112115318 ,42,6874794751715 ,14,4082250025143
29.4201705 ,Left ,63,68497244785 ,42,6686972814297 ,14,4324046262133
29.4498836 ,Left ,63,5433419711385 ,42,7038618769132 ,14,5371268158094
29.4650553 ,Left ,63,4713389572797 ,42,7231960772664 ,14,5722899266113
29.4872671 ,Left ,63,4296362688595 ,42,755315199835 ,14,6137317432606
29.5098035 ,Left ,63,3878511116976 ,42,8399657481302 ,14,6546480967435
29.5250581 ,Left ,63,3323423498859 ,42,9359756962189 ,14,6998836042789
29.5473443 ,Left ,63,3167776951094 ,43,0324609924792 ,14,735053332181
29.5700312 ,Left ,63,3158022426687 ,43,1099849599962 ,14,7791616485404
29.5851511 ,Left ,63,305654748928 ,43,1811469094463 ,14,8261427212525
29.6074642 ,Left ,63,2678685673692 ,43,247278803803 ,14,8692615406111
29.6298594 ,Left ,63,2074201621949 ,43,3022579642436 ,14,8878504181932
29.6522218 ,Left ,63,1603867329005 ,43,3355220533946 ,14,889332044222
29.6829448 ,Left ,63,1767964417073 ,43,3510950726938 ,14,8915376056717
29.7051189 ,Left ,63,1947733683114 ,43,3267094050494 ,14,8683153618744
29.720005 ,Left ,63,2221105836541 ,43,2729500840262 ,14,8353929490185
29.7351873 ,Left ,63,2244198941937 ,43,2132696246941 ,14,8096653926158
29.7501949 ,Left ,63,2459499917553 ,43,168332910806 ,14,7970104721447
29.7651905 ,Left ,63,2913954405424 ,43,1359790178535 ,14,7818899745218
29.7875184 ,Left ,63,3163909456729 ,43,0748639586165 ,14,761297405467
29.8099284 ,Left ,63,3169215389471 ,42,9858605130316 ,14,754232484857
29.8249702 ,Left ,63,34153061475 ,42,890169159002 ,14,7190064625641
29.847474 ,Left ,63,3759969075523 ,42,7823817292702 ,14,6850699723147
29.8705077 ,Left ,63,3857874584427 ,42,724760476093 ,14,6820931636454
29.8857291 ,Left ,63,2834225233461 ,42,7182705945033 ,14,6301113564388
29.9153917 ,Left ,63,2735433928344 ,42,7240618052078 ,14,586342455315
29.9380702 ,Left ,63,3437565397404 ,42,7514783855228 ,14,5946734411855
29.9603451 ,Left ,63,4523644236252 ,42,821709822941 ,14,6374106911837
29.975433 ,Left ,63,4511573898594 ,42,912490666024 ,14,6903560783219
29.9982065 ,Left ,63,4141167984068 ,43,0143694072296 ,14,7522954533641
30.0125946 ,Left ,63,4175986343366 ,43,1380026006186 ,14,7915190216379
30.0275676 ,Left ,63,394833016502 ,43,2652571354782 ,14,8355033179965
30.0501639 ,Left ,63,1948957894504 ,43,3627132357995 ,14,9160756905733
30.0722871 ,Left ,63,0797796898846 ,43,452548538112 ,14,9854919222038
30.0874976 ,Left ,63,0579567117278 ,43,5296292921901 ,15,0228151084539
30.1098598 ,Left ,63,0393439164999 ,43,5045897620796 ,15,0105469229717
30.1324418 ,Left ,62,9718816973419 ,43,4433785357462 ,15,0427388319632
30.1473735 ,Left ,62,8873498049153 ,43,453947171261 ,15,0171091603851
30.1702584 ,Left ,62,932867471384 ,43,4558978715999 ,14,9403171353772
30.1849966 ,Left ,63,0508106552442 ,43,4190502927331 ,14,8492209633563
30.2076515 ,Left ,63,1820823103836 ,43,3954051876702 ,14,7374459281524
30.2302002 ,Left ,63,2581081154982 ,43,4568015827013 ,14,6347355810237
30.2524656 ,Left ,63,3440945453797 ,43,5266483241964 ,14,5566572344254
30.2676463 ,Left ,63,4025414322563 ,43,564931425286 ,14,5051645757334
30.290015 ,Left ,63,4450262678761 ,43,5879679334155 ,14,490923682919
30.3124916 ,Left ,63,4577571949896 ,43,5868061400565 ,14,5237313223109
30.327288 ,Left ,63,5250870211954 ,43,6322035855761 ,14,51533468804
30.3504915 ,Left ,63,5957302362207 ,43,6889048429427 ,14,4564938339973
30.3728641 ,Left ,63,6346632285961 ,43,7376715958975 ,14,4031715199818
30.3880034 ,Left ,63,6721328196555 ,43,682464459663 ,14,3809556998566
30.4110434 ,Left ,63,783338019271 ,43,5807324644938 ,14,381295269453
30.4328626 ,Left ,63,8602105866441 ,43,3873647804021 ,14,4200880757882
30.4477576 ,Left ,63,8676575508162 ,43,0766304081274 ,14,4533439613674
30.4704536 ,Left ,63,8498253549829 ,42,8220937550343 ,14,5200358516174
30.5003631 ,Left ,63,6921313937468 ,42,7474355091449 ,14,5877173450791
30.5159646 ,Left ,63,6660023412097 ,42,6888213681186 ,14,5560283693427
30.5379098 ,Left ,63,6597368233578 ,42,629798326959 ,14,5815659485264
30.5527054 ,Left ,63,7258536508119 ,42,641107972469 ,14,6826513279233
30.5677494 ,Left ,63,7567516464774 ,42,836183755075 ,14,7156769690902
30.5902775 ,Left ,63,7174542646076 ,42,9328471505179 ,14,775385106411
30.6123265 ,Left ,63,6892591384296 ,42,957574071005 ,14,8284506477298
30.6275143 ,Left ,63,7267903273755 ,42,9653485879061 ,14,8375799803546
30.6498466 ,Left ,63,7532083396517 ,42,9744325874104 ,14,8328329882659
30.6721795 ,Left ,63,7328005760686 ,43,0000255066595 ,14,8029508571421
30.6873926 ,Left ,63,7189752568616 ,42,9865372814372 ,14,7568313491051
30.709743 ,Left ,63,6945820526727 ,42,9342102953866 ,14,7371019866878
30.7325113 ,Left ,63,6824019975527 ,42,8693397569234 ,14,7334947717721
30.7473269 ,Left ,63,6363707829665 ,42,8062012217912 ,14,7208424848531
30.7700359 ,Left ,63,5504081453334 ,42,8046933282858 ,14,6777470573949
30.792185 ,Left ,63,5285369750713 ,42,8020302550025 ,14,6419575115317
30.8074754 ,Left ,63,5634398860201 ,42,7911501530405 ,14,6154283807356
30.8298529 ,Left ,63,5672950560107 ,42,7952913867855 ,14,6004560742862
30.8523189 ,Left ,63,5366430793038 ,42,7951128461247 ,14,5895813332059
30.8675306 ,Left ,63,5258478397004 ,42,7994831203263 ,14,5752697485095
30.8902669 ,Left ,63,5487956428975 ,42,79907031292 ,14,564991517205
30.9125064 ,Left ,63,6006487628505 ,42,8126281383923 ,14,5543055618755
30.9350195 ,Left ,63,657776877509 ,42,8378920860697 ,14,5412938066258
30.9573417 ,Left ,63,7164678912993 ,42,8952119151617 ,14,5129781330433
30.9873146 ,Left ,63,8238630553306 ,43,0512217074273 ,14,4514563128126
31.0100758 ,Left ,63,8921163851086 ,43,1250307164886 ,14,4205424045761
31.0323044 ,Left ,63,9283276313071 ,43,1780155904302 ,14,4065698458391
31.0549023 ,Left ,63,945785211963 ,43,2408648956122 ,14,3712494005429
31.0697993 ,Left ,63,9844730835096 ,43,2750992853505 ,14,3291024253433
31.0849739 ,Left ,64,0298798620413 ,43,2662985642674 ,14,2934285307233
31.1073982 ,Left ,64,1177087910652 ,43,2345664452576 ,14,3127005237842
31.1300557 ,Left ,64,0349418223007 ,43,1876205040706 ,14,3771951801608
31.1448793 ,Left ,63,6792673405202 ,43,0680696860626 ,14,4547409228497
31.1672978 ,Left ,63,4846722419234 ,42,9996035159244 ,14,4971473306719
31.1903903 ,Left ,63,5081752336991 ,42,9689576115604 ,14,4602549000845
31.2051542 ,Left ,63,6679942451663 ,42,9516367475487 ,14,368670807073
31.2274158 ,Left ,63,4584431869874 ,42,9975439420965 ,14,4504621485587
31.2498697 ,Left ,63,6780028414883 ,43,0148952239209 ,14,3486489086054
31.2657337 ,Left ,63,5801268079901 ,43,0004557483145 ,14,3993871173152
31.2876292 ,Left ,63,5505066000978 ,42,8968635683574 ,14,4724825650834
31.3104585 ,Left ,63,4786851934397 ,42,7759198411951 ,14,4450425699464
31.3253103 ,Left ,63,4679316747053 ,42,7616016587839 ,14,4101985127208
31.3550158 ,Left ,63,435501074789 ,42,7426663886535 ,14,3920054099063
31.3773565 ,Left ,63,4075892070995 ,42,6546457623556 ,14,400164015386
31.407567 ,Left ,63,308049632543 ,42,5580155255389 ,14,4909387016028
31.4298671 ,Left ,63,0884666173059 ,42,5943324081427 ,14,5395535243808
31.4450803 ,Left ,62,8955122724506 ,42,5834595216568 ,14,6152006306366
31.4673961 ,Left ,62,9222584676982 ,42,6436192550501 ,14,6350148783982
31.4898205 ,Left ,62,8724891464287 ,42,702425398648 ,14,6429960595828
31.5049051 ,Left ,62,7989832036732 ,42,7339152789371 ,14,6662461549043
31.5273745 ,Left ,62,7777808335735 ,42,7705209583849 ,14,6996261270475
31.5499117 ,Left ,62,7846394198107 ,42,8184833776068 ,14,7376125316139
31.5651275 ,Left ,62,7836394939346 ,42,9253285678333 ,14,7601205182584
31.5873855 ,Left ,62,7454527605933 ,43,0272532372201 ,14,783856926094
31.609832 ,Left ,62,676563107279 ,43,0985919525205 ,14,7940863493582
31.6249663 ,Left ,62,635757608435 ,43,1615138563941 ,14,8053976639541
31.6474001 ,Left ,62,6484628110562 ,43,2335037723399 ,14,8277291800434
31.6701732 ,Left ,62,6602035331766 ,43,3004032522698 ,14,8226626425952
31.6853924 ,Left ,62,6810990810716 ,43,3365276805585 ,14,8186263364861
31.7081088 ,Left ,62,6503155530435 ,43,3485765251857 ,14,839794333887
31.730538 ,Left ,62,5640834408011 ,43,3708488752154 ,14,8423147278021
31.7456037 ,Left ,62,535933416065 ,43,3869208755607 ,14,8096073937644
31.7677159 ,Left ,62,5346664101897 ,43,407203634272 ,14,8211491574668
31.7902 ,Left ,62,5556017466605 ,43,4018403449715 ,14,8299649970148
31.8049955 ,Left ,62,6104788851249 ,43,4077430153349 ,14,8035135916488
31.8274355 ,Left ,62,6861484593346 ,43,3431793195887 ,14,7641021109934
31.850208 ,Left ,62,7587807590795 ,43,2295110423076 ,14,6939731379175
31.8656941 ,Left ,62,8147852733195 ,43,1252413311366 ,14,5909295361416
31.8880515 ,Left ,62,9444454071026 ,43,1132062914284 ,14,4781644612425
31.9103684 ,Left ,63,0634682541337 ,43,166361829774 ,14,3362948857785
31.9250371 ,Left ,63,2430085651393 ,43,2078684316616 ,14,2420932222072
31.9480128 ,Left ,63,3658759347303 ,43,2878300760572 ,14,2208697869275
31.9704097 ,Left ,63,4032369702559 ,43,3365161292455 ,14,2383728408933
31.9929439 ,Left ,63,4051685132351 ,43,3682148755986 ,14,2522937963427
32.0152724 ,Left ,63,4629140905369 ,43,4289152808433 ,14,2070380063574
32.0378313 ,Left ,63,4941515520094 ,43,5266336053205 ,14,1602140885132
32.0527815 ,Left ,63,5543047090631 ,43,6135000974449 ,14,1340122927356
32.0751052 ,Left ,63,5864185443803 ,43,6693247149398 ,14,1179391972156
32.0976603 ,Left ,63,6253167786334 ,43,6467580454348 ,14,1386668948067
32.1123918 ,Left ,63,6849328608427 ,43,5226746603398 ,14,175787214963
32.1423036 ,Left ,63,6905031431453 ,43,28109477638 ,14,2187164238276
32.1648817 ,Left ,63,6699037310937 ,42,9683370266296 ,14,2926928688524
32.1799646 ,Left ,63,5796052821791 ,42,7634819084868 ,14,3630003176154
32.1950162 ,Left ,63,4565476306729 ,42,6974553485633 ,14,3546381165424
32.2176724 ,Left ,63,4871724756288 ,42,6120847686034 ,14,2851314484513
32.2326594 ,Left ,63,490540521599 ,42,5430315487066 ,14,3225301930559
32.2550164 ,Left ,63,5356594839418 ,42,5597106413978 ,14,4341768920967
32.2773058 ,Left ,63,5635756995952 ,42,7384850398009 ,14,4935471712431
32.2924582 ,Left ,63,5366350330874 ,42,839709757283 ,14,5935731780739
32.314839 ,Left ,63,5231546820272 ,42,8141173489469 ,14,6895185813373
32.3373311 ,Left ,63,5744971056687 ,42,7885024636219 ,14,6952587200091
32.3526023 ,Left ,63,5754597813207 ,42,771080865506 ,14,6827099969001
32.3752958 ,Left ,63,5261325580041 ,42,7699057488507 ,14,6341661926348
32.3981865 ,Left ,63,5005901926254 ,42,719582261954 ,14,5910847840069
32.4129543 ,Left ,63,5028976710772 ,42,6367390227246 ,14,5871941923609
32.4353037 ,Left ,63,5124550222548 ,42,5589678356062 ,14,5878597601798
32.4573135 ,Left ,63,4976089084969 ,42,5354779266653 ,14,5830214130568
32.4725353 ,Left ,63,4502663060218 ,42,5760883063093 ,14,5491168621454
32.4948589 ,Left ,63,4366711230133 ,42,6046643648745 ,14,5230766830313
32.5173897 ,Left ,63,4593906934196 ,42,6211951365595 ,14,4898339207965
32.5325568 ,Left ,63,4666177125023 ,42,6261954554134 ,14,4692027459105
32.5550453 ,Left ,63,4553753369252 ,42,6360058370522 ,14,4500611946683
32.5773857 ,Left ,63,4504560750562 ,42,6474332977569 ,14,4371378215858
32.592644 ,Left ,63,4856334474307 ,42,645629993603 ,14,4214393248719
32.6154209 ,Left ,63,5278212272947 ,42,6345718823063 ,14,4061235849584
32.6381351 ,Left ,63,5971350695421 ,42,6520579973039 ,14,3699274620607
32.6531551 ,Left ,63,5857545226962 ,42,6622882418824 ,14,3589921690762
32.6751879 ,Left ,63,6075623442535 ,42,6784604963481 ,14,3496389995815
32.6975203 ,Left ,63,6556423355794 ,42,7087922014632 ,14,3297876748651
32.7126711 ,Left ,63,7434186912855 ,42,7862879780847 ,14,2925624268884
32.7350149 ,Left ,63,7678270317378 ,42,8797305774003 ,14,2576237302743
32.7574829 ,Left ,63,7628493910823 ,42,9628370498279 ,14,2282513871262
32.7727379 ,Left ,63,7897741536742 ,43,0384427792379 ,14,2117254889177
32.7948941 ,Left ,63,8154612981488 ,43,1019324684341 ,14,2082861559956
32.8180985 ,Left ,63,8664641483714 ,43,1612627659005 ,14,1760727316734
32.8406243 ,Left ,63,8701387022074 ,43,1377671333567 ,14,1639600958011
32.8553943 ,Left ,63,9218697436084 ,43,0942576180098 ,14,1918403572109
32.8777862 ,Left ,63,8992861768145 ,43,0821636214495 ,14,2669591148522
32.8927428 ,Left ,63,7264236441917 ,43,0661477997427 ,14,2686843404681
32.9151689 ,Left ,63,6562345863218 ,43,036464109281 ,14,236427812321
32.9372635 ,Left ,63,701845839781 ,43,0102217978266 ,14,2043717563953
32.9597923 ,Left ,63,7488971133948 ,42,9859648741745 ,14,1662532936293
32.9748854 ,Left ,63,7521371048591 ,42,9802616413281 ,14,1303093307894
32.9973514 ,Left ,63,717892579629 ,42,9381102034295 ,14,1148283383105
33.019844 ,Left ,63,7800189173507 ,42,8674945065411 ,14,1005641340782
33.0356282 ,Left ,63,7788834505434 ,42,7465721220649 ,14,1075232897999
33.0726139 ,Left ,63,7483387199427 ,42,6118037614513 ,14,0628092854516
33.0949029 ,Left ,63,7229155440048 ,42,5585273509436 ,14,0589804496161
33.110124 ,Left ,63,7305386870733 ,42,5318272024061 ,14,049975875789
33.1331967 ,Left ,63,7076588953567 ,42,5613571849788 ,14,0870466363393
33.1557941 ,Left ,63,676921952526 ,42,6359117527262 ,14,1172339767497
33.1706449 ,Left ,63,6486646559435 ,42,7217644235006 ,14,1283444206477
33.1929169 ,Left ,63,6229457880766 ,42,8022737517592 ,14,1814945661002
33.2151277 ,Left ,63,582214083995 ,42,9656920337681 ,14,2463121327671
33.2301549 ,Left ,63,3465897247446 ,43,0154222113913 ,14,3426786225552
33.2527956 ,Left ,63,1347514353556 ,43,059340805811 ,14,4667495497955
33.2752475 ,Left ,62,9894768173887 ,43,1499409365886 ,14,5460534270713
33.2902641 ,Left ,62,8166266530735 ,43,2083984671915 ,14,633671859602
33.3126137 ,Left ,62,6027126369262 ,43,235851138002 ,14,7088360260944
33.3275508 ,Left ,62,316238751766 ,43,1915922090714 ,14,766391382488
33.3425832 ,Left ,62,1257232044577 ,43,1285707782715 ,14,8038204991629
33.3650706 ,Left ,61,972496805837 ,43,10599082732 ,14,8211475147057
33.3876568 ,Left ,61,9204170384954 ,43,1393686445931 ,14,7751110428717
33.4026417 ,Left ,62,0285253676249 ,43,2246283393165 ,14,687469254122
33.4252629 ,Left ,62,2500179629441 ,43,3343792019263 ,14,5878545605766
33.4477435 ,Left ,62,5430459293945 ,43,4589810824736 ,14,4765116461574
33.4625886 ,Left ,62,7682356739117 ,43,5717410568546 ,14,3924016100257
33.4850594 ,Left ,62,8119682239091 ,43,5874070855038 ,14,3459335747699
33.5079632 ,Left ,62,84435965238 ,43,5512162939727 ,14,3189502095583
33.5230003 ,Left ,62,8945517827904 ,43,5091994956267 ,14,2797110236133
33.5453603 ,Left ,62,9478462893892 ,43,4673964644049 ,14,2768521810447
33.5754949 ,Left ,62,9933667779403 ,43,4312890708667 ,14,2715410590224
33.5902778 ,Left ,63,0008947714124 ,43,3825118586177 ,14,2827072073364
33.6276293 ,Left ,63,1401763935205 ,43,3915225751606 ,14,2334334173595
33.6425909 ,Left ,63,1977554328692 ,43,3349330448997 ,14,2463021327322
33.6650895 ,Left ,63,2348406906101 ,43,2009833625697 ,14,2731302750793
33.6877379 ,Left ,63,2538549688973 ,42,9541136907539 ,14,3109497663017
33.7027535 ,Left ,63,2958499839827 ,42,6731402274627 ,14,356814225463
33.7252736 ,Left ,63,1804829513468 ,42,5975013387878 ,14,3824205681838
33.7476999 ,Left ,63,1688463135103 ,42,5662576539674 ,14,3490132913052
33.7627316 ,Left ,63,2010005506348 ,42,4715596629138 ,14,3111571274691
33.7852494 ,Left ,63,1933218062603 ,42,3870280435148 ,14,4573825677334
33.8152856 ,Left ,63,2736322135028 ,42,5133405255271 ,14,5207119762801
33.8298013 ,Left ,63,3090042458811 ,42,6444611628931 ,14,5359564351702
33.8525065 ,Left ,63,2946333469518 ,42,7008587273269 ,14,6155474250479
33.867312 ,Left ,63,3193771141159 ,42,7057785362223 ,14,6450663951802
33.882542 ,Left ,63,3559521880922 ,42,6827504537145 ,14,6325212774253
33.9048271 ,Left ,63,3682395431194 ,42,6854901478362 ,14,5961745662756
33.9273849 ,Left ,63,3753177534521 ,42,6704364110223 ,14,5481349156009
33.9499858 ,Left ,63,377183207747 ,42,6484437288627 ,14,5220318400324
33.972632 ,Left ,63,3742835666466 ,42,6023748556962 ,14,5153765404947
33.9873601 ,Left ,63,3357124052193 ,42,5461532728198 ,14,5108439672541
34.0099612 ,Left ,63,3292759834656 ,42,5101667082699 ,14,4981018208224
34.0325633 ,Left ,63,3409060674911 ,42,5556094495273 ,14,4568823877411
34.0473724 ,Left ,63,3729546513104 ,42,6000615673943 ,14,404273312266
34.0774926 ,Left ,63,3837706490753 ,42,6385978173993 ,14,3646559896443
34.1000027 ,Left ,63,3942140585678 ,42,6500997177079 ,14,344427358349
34.1150661 ,Left ,63,4020987107169 ,42,6626271944751 ,14,3257502525921
34.1300734 ,Left ,63,4011775172228 ,42,6728004594525 ,14,2997646929237
34.1526458 ,Left ,63,4391623162596 ,42,6964308524367 ,14,259645759483
34.1676278 ,Left ,63,497344587512 ,42,7371816674728 ,14,2253127900168
34.1903039 ,Left ,63,5375058357601 ,42,7946351066113 ,14,2113575918978
34.2126656 ,Left ,63,5719914576593 ,42,8673917483987 ,14,1899466459007
34.2275167 ,Left ,63,6408315290043 ,42,9644134738345 ,14,15419385992
34.2500842 ,Left ,63,6898582226466 ,43,0291034676972 ,14,1202472872819
34.2726312 ,Left ,63,7394504492864 ,43,0970686531318 ,14,0895527959179
34.2876828 ,Left ,63,757234078119 ,43,163401998764 ,14,0524830315033
34.3099537 ,Left ,63,7539824775139 ,43,1872674156773 ,14,0025810023411
34.3326745 ,Left ,63,8154389838567 ,43,1802986299496 ,13,9649720822639
34.3697217 ,Left ,63,7845651735674 ,43,0878270490576 ,14,0091847503126
34.3925285 ,Left ,63,723940179015 ,43,0495632132328 ,13,9579056462376
34.4072638 ,Left ,63,7389293694438 ,43,0082317869181 ,13,9291247440775
34.4297934 ,Left ,63,8093125352901 ,42,9849959813025 ,13,8840481768118
34.4525606 ,Left ,63,770435101321 ,42,9562247357115 ,13,8614242125407
34.4897437 ,Left ,63,8037873202632 ,42,836264880413 ,13,8621067593979
34.5130348 ,Left ,63,794182747883 ,42,7016547016153 ,13,8474394332719
34.5505925 ,Left ,63,7859678107666 ,42,6020022310742 ,13,7932878319541
34.5730994 ,Left ,63,77776421094 ,42,5198799132755 ,13,8168361330382
34.6108367 ,Left ,63,7903090159095 ,42,5288574935102 ,13,8676105404542
34.6331071 ,Left ,63,7287202125495 ,42,5708697508897 ,13,8947187705165
34.6774562 ,Left ,63,6955441999317 ,42,6058029561709 ,13,9227499646496
34.6999767 ,Left ,63,6603024833352 ,42,6102874204299 ,13,9594162206929
34.7301722 ,Left ,63,548809448443 ,42,576333120689 ,14,0165383098156
34.7523313 ,Left ,63,5524658425633 ,42,5408198408997 ,14,0442733181137
34.7898448 ,Left ,63,5594203129071 ,42,5366374921924 ,14,109182943666
34.8125631 ,Left ,63,5467860901976 ,42,533345187377 ,14,1377466231577
34.8500474 ,Left ,63,5351252626215 ,42,5121642671313 ,14,1882601947047
34.8725573 ,Left ,63,5306092087027 ,42,519398979661 ,14,1873671272368
34.9101784 ,Left ,63,5110726906811 ,42,5674955006438 ,14,1580328828196
34.9401739 ,Left ,63,5101449666133 ,42,6292196575881 ,14,1506098408406
34.9927209 ,Left ,63,3774492918703 ,42,7679140899792 ,14,18025788395
35.0303647 ,Left ,63,3126720132882 ,42,8873104772472 ,14,1877138992548
35.0528003 ,Left ,63,287037249233 ,42,9316373309809 ,14,1959440157477
35.0898042 ,Left ,63,2724697454746 ,43,0742399456391 ,14,2510783734721
35.1128189 ,Left ,63,1590258569251 ,43,1271099086173 ,14,2793648101298
35.1504038 ,Left ,63,0445943828859 ,43,2501417763406 ,14,3106046565742
35.1727103 ,Left ,63,0418168691259 ,43,3229514030291 ,14,2924429684846
35.2101764 ,Left ,63,099771219704 ,43,353855904332 ,14,2777873936794
35.2322878 ,Left ,63,1368878466519 ,43,3580667331481 ,14,2211077700944
35.2698168 ,Left ,63,2758158735458 ,43,4858549985299 ,14,1222848983489
35.2922366 ,Left ,63,3629520980607 ,43,5152792142941 ,14,1030641953604
35.3304241 ,Left ,63,3269922981795 ,43,4681056550028 ,14,0840848425441
35.3531762 ,Left ,63,3726664741094 ,43,4321146893642 ,14,0797662314537
35.3904319 ,Left ,63,5643382689087 ,43,5302096034047 ,13,9455584602677
35.4131298 ,Left ,63,6022115714694 ,43,5112910216817 ,13,9206727875993
35.4500758 ,Left ,63,7399293465472 ,43,2211735572921 ,13,9094044960501
35.4724795 ,Left ,63,8049618210932 ,42,9892822366119 ,13,9579452170642
35.5101866 ,Left ,63,812478861605 ,42,5939279765164 ,13,9633659418571
35.532504 ,Left ,63,6783563080514 ,42,5100818274863 ,13,9682876771663
35.569963 ,Left ,63,7179804612499 ,42,34704350181 ,13,9306462719026
35.5923715 ,Left ,63,7076152573185 ,42,2764622772329 ,13,9898010904622
35.6301472 ,Left ,63,7388162874523 ,42,458691641998 ,14,0480243014571
35.6524434 ,Left ,63,7545824309033 ,42,5241563865912 ,14,1033451332395
35.690012 ,Left ,63,8609955783436 ,42,521131556283 ,14,1477809657626
35.7125409 ,Left ,63,8388429624311 ,42,5169799684619 ,14,1319625948158
35.7500753 ,Left ,63,8627151074384 ,42,5141712762822 ,14,0575273997811
35.7725174 ,Left ,63,8223506624292 ,42,5013659522689 ,14,0331066711008
35.8100389 ,Left ,63,7495708808224 ,42,4630000954254 ,13,9952097643618
35.8327277 ,Left ,63,7685365962209 ,42,4261853799892 ,14,0097171123895
35.870337 ,Left ,63,7645908140441 ,42,4973649343485 ,14,0106301862645
35.8928142 ,Left ,63,7881547175126 ,42,5132668277581 ,14,0336642570028
35.9301891 ,Left ,63,8042111832962 ,42,5709923113203 ,14,0848718447293
35.9527647 ,Left ,63,8268889334742 ,42,5785391526081 ,14,1039415112386
35.9902895 ,Left ,63,8734034069679 ,42,5431158087604 ,14,0782384670893
36.0126019 ,Left ,63,9077746804856 ,42,5640619204143 ,14,0393559365517
36.0499584 ,Left ,63,9885679216055 ,42,7532068564505 ,13,9556882104016
36.0727458 ,Left ,63,9749036584006 ,42,8660063901374 ,13,9333302549168
36.1104575 ,Left ,64,0070163969309 ,43,0693571613083 ,13,9430330817282
36.1331102 ,Left ,63,9935542784948 ,43,1610770229854 ,13,9329969050505
36.1704134 ,Left ,63,9854085427389 ,43,14118764696 ,13,9319319435711
36.1930737 ,Left ,64,0223316431494 ,43,0706011689692 ,13,9602620096235
36.2302689 ,Left ,63,8772609907848 ,42,9296839046687 ,13,9007739994839
36.2527693 ,Left ,63,899760804459 ,42,8664186221857 ,13,8460015312372
36.2751175 ,Left ,63,9765784396919 ,42,8525737351271 ,13,7995505414508
36.3126178 ,Left ,63,9630350178649 ,42,8357104321548 ,13,7431456474351
36.3500161 ,Left ,64,0350428208179 ,42,7469408273401 ,13,765163178867
36.3727049 ,Left ,63,9776684581511 ,42,6382184614102 ,13,7294358273846
36.410369 ,Left ,63,9046872644146 ,42,5504268347937 ,13,7017268923795
36.4323541 ,Left ,63,8356102452986 ,42,4613703542727 ,13,726341766485
36.4700369 ,Left ,63,7679523038063 ,42,5059332978009 ,13,8133193847353
36.4924496 ,Left ,63,7259728800991 ,42,5336661112172 ,13,8555443455426
36.5297991 ,Left ,63,5439200562954 ,42,6315632964371 ,13,9439328288597
36.5524136 ,Left ,63,4687551348782 ,42,7173526335383 ,13,9774137763628
36.5748468 ,Left ,63,3648554186326 ,42,8001458953982 ,14,0370140438122
36.6124963 ,Left ,63,299406203592 ,42,9688530665599 ,14,1739215605506
36.6350697 ,Left ,63,2136383144701 ,43,0422564507149 ,14,2517915608052
36.6724843 ,Left ,63,0056252054758 ,43,1480992977616 ,14,3353788479216
36.6951881 ,Left ,63,0031829599454 ,43,1789105983429 ,14,3403897514389
36.7325591 ,Left ,62,9356974408206 ,43,14196784269 ,14,2835507893017
36.7546835 ,Left ,62,9108524221979 ,43,1741032297136 ,14,2705687116597
36.7926911 ,Left ,62,9361656349381 ,43,3813730946801 ,14,1242287703807
36.815053 ,Left ,63,0298768382302 ,43,4903572276953 ,14,072471741562
36.8528812 ,Left ,63,1921608623628 ,43,6777334363272 ,13,9838289441584
36.875366 ,Left ,63,1910115141593 ,43,7002874620018 ,13,9544173735566
36.9056669 ,Left ,63,3003550393904 ,43,5922140432514 ,13,8857675280788
36.9279449 ,Left ,63,3080843877671 ,43,5101286324991 ,13,8813359858433
36.9504399 ,Left ,63,3340255894393 ,43,506247880608 ,13,840087203073
36.9657074 ,Left ,63,3750902036187 ,43,5288283315586 ,13,7814250492287
36.9881168 ,Left ,63,4415511652096 ,43,4736871414087 ,13,788165814212
37.0101654 ,Left ,63,523851486434 ,43,310401650363 ,13,8017795995722
37.0252669 ,Left ,63,5725197138652 ,43,0352095611424 ,13,8325230646342
37.0476445 ,Left ,63,598484318384 ,42,6986729038409 ,13,9006579529611
37.0702679 ,Left ,63,53771188936 ,42,5142699805111 ,13,9330943918631
37.0850788 ,Left ,63,4307635881717 ,42,4198588205307 ,13,9305802406608
37.1075946 ,Left ,63,4447671673664 ,42,2980654481581 ,13,9064827104627
37.1303457 ,Left ,63,4798387195103 ,42,203566076163 ,13,9308361875688
37.1452482 ,Left ,63,5360144758473 ,42,1812722333546 ,14,0350224693935
37.167716 ,Left ,63,5590639058878 ,42,3322414297596 ,14,08075595245
37.1900306 ,Left ,63,5396895116725 ,42,4294959673197 ,14,1610840572202
37.204975 ,Left ,63,5567553838381 ,42,4580234603505 ,14,2152525930851
37.2273795 ,Left ,63,6161141089894 ,42,4469975842773 ,14,2262127456582
37.2498703 ,Left ,63,6742146972254 ,42,4485221030741 ,14,2012725137771
37.2649982 ,Left ,63,6342037158996 ,42,4473625904484 ,14,1542950263156
37.287496 ,Left ,63,6381525069358 ,42,4546242265761 ,14,1152897935406
37.3099559 ,Left ,63,6784664198937 ,42,4499145806727 ,14,0622278922943
37.3252329 ,Left ,63,6446688419838 ,42,3534889853648 ,14,0487708687137
37.347453 ,Left ,63,6719687816208 ,42,2755217141664 ,14,0447546761188
37.3701161 ,Left ,63,6811310154348 ,42,2874961542648 ,14,0522051928344
37.3848652 ,Left ,63,7146883924205 ,42,348889811853 ,14,0458357170099
37.4073296 ,Left ,63,7491494098562 ,42,3935274804864 ,14,0684972411162
37.4301345 ,Left ,63,785686673283 ,42,4006923098054 ,14,0642705862966
37.4525191 ,Left ,63,7830528740975 ,42,3933926014941 ,14,0471545225363
37.4752998 ,Left ,63,8248119991947 ,42,4067998842044 ,14,0346161731327
37.5051162 ,Left ,63,8102106710522 ,42,4770034723888 ,14,0234146222276
37.5272098 ,Left ,63,8018518043661 ,42,5020556944416 ,14,0319480150728
37.5498404 ,Left ,63,8121141826093 ,42,5421923913072 ,14,0284581422622
