timestamp,event,roll,pitch,yaw
0.0201932 ,Left ,51.1558680942054 ,48.7306790773662 ,64.6042848524172
0.0415445 ,Left ,51.2505375168647 ,48.7081599187216 ,64.6319996285226
0.0566706 ,Left ,51.4823015093912 ,48.6353547959678 ,64.617164834339
0.0790011 ,Left ,51.6060566191728 ,48.5755537634768 ,64.5652872565679
0.1016782 ,Left ,51.5608429563323 ,48.5704109375132 ,64.5245050270203
0.1165743 ,Left ,51.4941080764606 ,48.5791226750915 ,64.4982152157485
0.1392966 ,Left ,51.5044577235931 ,48.5676677818348 ,64.4652586756401
0.1619991 ,Left ,51.5156325662875 ,48.5536648771825 ,64.4317584295617
0.1767711 ,Left ,51.4984188240799 ,48.5527518383565 ,64.4107949254072
0.2091367 ,Left ,51.4840621168683 ,48.558448012956 ,64.3980127046615
0.2363064 ,Left ,51.4861062170008 ,48.5622278968873 ,64.3918200399792
0.2514354 ,Left ,51.4903573938863 ,48.5623080277359 ,64.3912558103994
0.2666927 ,Left ,51.4918069667432 ,48.5654837041186 ,64.3980266210742
0.2816666 ,Left ,51.4713283043943 ,48.5728159261191 ,64.4050258147021
0.2968478 ,Left ,51.4481359968545 ,48.5834971341641 ,64.4145120903771
0.3189799 ,Left ,51.4407797610402 ,48.5909581348493 ,64.4214023200926
0.3492242 ,Left ,51.4374951938679 ,48.6024990271765 ,64.43505167528
0.3641685 ,Left ,51.43325872229 ,48.612332750557 ,64.4481661200382
0.3865248 ,Left ,51.4361414214473 ,48.6143866331342 ,64.4611449088409
0.4014707 ,Left ,51.4253114978833 ,48.6191080352645 ,64.4704651747979
0.4165549 ,Left ,51.3994919454558 ,48.6333082890285 ,64.4800052280872
0.438908 ,Left ,51.3777838147525 ,48.6561784943313 ,64.4914956980917
0.4617104 ,Left ,51.3850278791844 ,48.671406297354 ,64.5026849598775
0.4766672 ,Left ,51.4134552082681 ,48.6765346333885 ,64.5087789309789
0.5065279 ,Left ,51.4147931464677 ,48.6796414588806 ,64.5174704183408
0.5292103 ,Left ,51.3864680183863 ,48.6886435911011 ,64.5269488974514
0.5449487 ,Left ,51.360088122056 ,48.696983666245 ,64.5320797841043
0.5608402 ,Left ,51.3598561232105 ,48.7011498809534 ,64.5364580685122
0.5815172 ,Left ,51.3591825561908 ,48.6995896281248 ,64.5321130726849
0.6040924 ,Left ,51.3347433230791 ,48.7072563290967 ,64.5328935589589
0.6190398 ,Left ,51.2920809276074 ,48.7175044211527 ,64.5319436827031
0.642731 ,Left ,51.2548528899042 ,48.7211214213244 ,64.5236276282867
0.6641488 ,Left ,51.2302082547868 ,48.7101641001223 ,64.5107914842568
0.6793223 ,Left ,51.2330724657573 ,48.6795114039654 ,64.4932549650578
0.7016075 ,Left ,51.2432782000669 ,48.6458018056336 ,64.4664597549768
0.7241387 ,Left ,51.2447760540596 ,48.6077216372325 ,64.4392474507335
0.7388518 ,Left ,51.2217672126587 ,48.5682345136722 ,64.4197036077345
0.7616936 ,Left ,51.1635878471284 ,48.5367812187906 ,64.4081503900148
0.7840123 ,Left ,51.0883951597596 ,48.5197684779833 ,64.4014437107473
0.7991062 ,Left ,51.0388400092218 ,48.5158504658728 ,64.4005671553771
0.8215234 ,Left ,51.0270154311782 ,48.5132991481544 ,64.3946170205462
0.8441512 ,Left ,51.0288399828 ,48.521295380268 ,64.3902262492035
0.859048 ,Left ,51.0358009659427 ,48.5354424872315 ,64.3857090827336
0.8815999 ,Left ,51.0496037501471 ,48.5547916424354 ,64.3834776185413
0.9040422 ,Left ,51.0650920770847 ,48.5776436635791 ,64.3812397303297
0.9191973 ,Left ,51.0711745105585 ,48.6032498000356 ,64.3724678243307
0.9416246 ,Left ,51.051424231904 ,48.6243118396149 ,64.3603805530265
0.964484 ,Left ,51.033655228927 ,48.6447376132764 ,64.3415299233909
0.9793083 ,Left ,51.0224035017642 ,48.6647101467478 ,64.3115440669382
1.0016842 ,Left ,51.0061458529212 ,48.6828438994474 ,64.2803097957152
1.0239021 ,Left ,50.9869862612823 ,48.6999459627052 ,64.2529199521417
1.0390398 ,Left ,50.9719400706101 ,48.7125540768989 ,64.2316650882829
1.0689084 ,Left ,50.9557336130793 ,48.7275231020424 ,64.217144930434
1.0916251 ,Left ,50.9471854806543 ,48.7363428154656 ,64.2086858646347
1.1064925 ,Left ,50.9508841247383 ,48.7347849823257 ,64.2043325251566
1.1215923 ,Left ,50.9572726066993 ,48.7297891521148 ,64.1999389792578
1.1441944 ,Left ,50.9572726066993 ,48.7297891521148 ,64.1999389792578
1.1598593 ,Left ,50.9556024596199 ,48.7262791367471 ,64.199970578128
1.1838463 ,Left ,50.9475227016495 ,48.7090273370412 ,64.1910179736924
1.2041941 ,Left ,50.9388468858423 ,48.685702300821 ,64.1802302376247
1.2191602 ,Left ,50.9364959354386 ,48.6617285033821 ,64.1650626868078
1.2416776 ,Left ,50.9430288349804 ,48.6379424433743 ,64.1478608868221
1.2641368 ,Left ,50.9521129870902 ,48.6062951180356 ,64.1344064268482
1.2790368 ,Left ,50.9650783351314 ,48.5644476150425 ,64.1161094467509
1.3098913 ,Left ,50.9744375239833 ,48.532940048311 ,64.0983869942715
1.3314368 ,Left ,50.9878814559459 ,48.5057495383668 ,64.0848425466458
1.346533 ,Left ,50.9876148423633 ,48.4867551552758 ,64.0801405555964
1.3691144 ,Left ,50.979898852087 ,48.4752386970363 ,64.0822706467349
1.384138 ,Left ,50.9692443015599 ,48.4713256018872 ,64.0892469827373
1.3995281 ,Left ,50.9705882127635 ,48.4702312814867 ,64.0977910911233
1.421591 ,Left ,50.9805510962245 ,48.4736576500095 ,64.106097906395
1.4440133 ,Left ,50.9911350286326 ,48.4787054638899 ,64.1186742760408
1.459806 ,Left ,50.9896140595261 ,48.4853015557927 ,64.1296566200936
1.4815362 ,Left ,50.9810901868807 ,48.4953521342973 ,64.1383742031884
1.5040245 ,Left ,50.9810901868807 ,48.4953521342973 ,64.1383742031884
1.5269069 ,Left ,50.9811838685727 ,48.4952947225108 ,64.1389039070068
1.541684 ,Left ,50.9702757500438 ,48.4944772575368 ,64.1305874476383
1.5642436 ,Left ,50.9587468916305 ,48.4920220990833 ,64.1180151567325
1.595376 ,Left ,50.9686857429318 ,48.4885633519924 ,64.0939621316718
1.6166904 ,Left ,50.9804955040134 ,48.4887672791422 ,64.06557378741
1.6315316 ,Left ,51.0007975208294 ,48.4978853800568 ,64.0369630046851
1.6765889 ,Left ,51.0126798626566 ,48.5501396255077 ,63.9595408922964
1.7139975 ,Left ,50.9676739646343 ,48.5811286012593 ,63.9353007841961
1.7363902 ,Left ,50.9577190224886 ,48.582031611863 ,63.9251094124091
1.7816991 ,Left ,50.9340247409315 ,48.581100504877 ,63.9080372700133
1.8041611 ,Left ,50.9200791912273 ,48.5833047478454 ,63.9088678003478
1.8343694 ,Left ,50.9027795213922 ,48.5828943785626 ,63.9073944505681
1.8640916 ,Left ,50.8956967633143 ,48.5862001638229 ,63.9075362844877
1.9015734 ,Left ,50.8968823833845 ,48.6027024634787 ,63.9098116324328
1.9171071 ,Left ,50.9114144150648 ,48.6108281820591 ,63.9118473696761
1.9539201 ,Left ,50.8962276200448 ,48.6288544545848 ,63.9078223421507
1.9770456 ,Left ,50.8923061667883 ,48.6334475402912 ,63.8950963192839
2.0143259 ,Left ,50.9900839278426 ,48.6140207330587 ,63.8428372176504
2.0365335 ,Left ,51.1035822873839 ,48.6208714178132 ,63.809367287133
2.0740072 ,Left ,51.2303011890452 ,48.6786899022573 ,63.7556891827571
2.0964683 ,Left ,51.1992442012073 ,48.7230615879511 ,63.7550416627899
2.1416477 ,Left ,51.0709732940926 ,48.8377599796054 ,63.8029042412024
2.1645661 ,Left ,50.9666299017717 ,48.8926036027762 ,63.8484638052358
2.1953545 ,Left ,50.5034872458934 ,49.0302946298857 ,64.0148862017197
2.2186058 ,Left ,50.054117798074 ,49.1180703831856 ,64.1222381216629
2.2540156 ,Left ,48.9891772053294 ,49.2851039059548 ,64.2858781008174
2.2765081 ,Left ,48.6931904851619 ,49.3719377288728 ,64.37313987577
2.3139692 ,Left ,48.6408667300485 ,49.5528683181055 ,64.6129110847887
2.3367143 ,Left ,48.605025163827 ,49.6609952886071 ,64.7601997136405
2.3740613 ,Left ,48.493929237142 ,49.7904518113168 ,65.1086811614946
2.396589 ,Left ,48.3996548750678 ,49.7972683425453 ,65.2928537686437
2.4429569 ,Left ,48.3209305503181 ,49.7597245088281 ,65.6629347517281
2.4641568 ,Left ,48.3434005286734 ,49.7031946027659 ,65.844498625913
2.4940827 ,Left ,48.2631584156728 ,49.5701220431423 ,66.2799991789372
2.5164103 ,Left ,48.1715655334793 ,49.5305953951104 ,66.4743079116728
2.5539491 ,Left ,48.2304717302361 ,49.3980102170429 ,66.866754558167
2.576567 ,Left ,48.2824972680232 ,49.2963382704475 ,67.053318540278
2.6141965 ,Left ,48.2529954831602 ,49.1585532855948 ,67.3142045837252
2.6365349 ,Left ,48.2267729610187 ,49.1315231867362 ,67.438054452901
2.6740343 ,Left ,48.3800815203349 ,49.0028760108322 ,67.6276443353685
2.7041436 ,Left ,48.474546909632 ,48.9173149046943 ,67.7164000556664
2.7439054 ,Left ,48.5117148099286 ,48.7894012052645 ,67.851558455954
2.7565396 ,Left ,48.5420064744697 ,48.7320610052744 ,67.8879606848358
2.7940503 ,Left ,48.616710472902 ,48.6185126592034 ,67.8975677169576
2.8164369 ,Left ,48.6490934819271 ,48.5819733954967 ,67.8931989371077
2.8539557 ,Left ,48.689961474393 ,48.5447562334682 ,67.8928845122132
2.8765889 ,Left ,48.7193511322193 ,48.5331661910208 ,67.8939852947412
2.9139209 ,Left ,48.7203769064496 ,48.5138848755877 ,67.8698135441178
2.9364322 ,Left ,48.7041024801752 ,48.5076494781639 ,67.8511678703026
2.9814071 ,Left ,48.6827833816435 ,48.4863534899474 ,67.8333544917711
3.0041558 ,Left ,48.6640488410307 ,48.4567206023215 ,67.834447178241
3.0650992 ,Left ,48.5963333416088 ,48.3220109449389 ,67.8522886489252
3.0941038 ,Left ,48.615102273405 ,48.2042227361599 ,67.8391718998438
3.1165269 ,Left ,48.6213727855763 ,48.163429965316 ,67.8419787185278
3.1539738 ,Left ,48.4690162034657 ,48.1613748143894 ,67.7841373909048
3.1766059 ,Left ,48.3782540468452 ,48.2034525232569 ,67.7332448102893
3.2376375 ,Left ,48.6462764206798 ,48.1689901548013 ,67.5599637128605
3.2597144 ,Left ,48.6557305992107 ,48.169734894437 ,67.5064769191265
3.2965428 ,Left ,48.4828357219208 ,48.2678006702586 ,67.458751879062
3.3342448 ,Left ,48.4546835139843 ,48.2877080606497 ,67.3409719772335
3.356449 ,Left ,48.451916006963 ,48.2751983291977 ,67.310417843685
3.3941521 ,Left ,48.5025770273802 ,48.2643291829942 ,67.2502523873999
3.4168646 ,Left ,48.5822515335121 ,48.2592738945773 ,67.2100784461571
3.4540819 ,Left ,48.5791536652162 ,48.2999151234459 ,67.2138051564784
3.4841924 ,Left ,48.6281925656245 ,48.3271892881599 ,67.203618474127
3.4989754 ,Left ,48.655346948608 ,48.371981608336 ,67.1709014468815
3.5140031 ,Left ,48.6552035235419 ,48.4103395696482 ,67.1479643454517
3.5365758 ,Left ,48.6310353004271 ,48.4772426214832 ,67.1581971112274
3.5516992 ,Left ,48.5805046796828 ,48.5348937495715 ,67.1760944215437
3.5666352 ,Left ,48.5311899782403 ,48.5849527632811 ,67.1755731519223
3.5892274 ,Left ,48.5462545190748 ,48.6099422186957 ,67.1751966650854
3.6115823 ,Left ,48.5518051207097 ,48.640511250541 ,67.1634098427463
3.6271509 ,Left ,48.5273552789046 ,48.6802234327206 ,67.1739177809661
3.6494545 ,Left ,48.482332364772 ,48.7213755272525 ,67.198938651115
3.6716274 ,Left ,48.4526849106965 ,48.746595710602 ,67.2240286050104
3.6867085 ,Left ,48.4074379939849 ,48.7511538787508 ,67.2290046681416
3.7091461 ,Left ,48.3171852213572 ,48.7436423204571 ,67.2224619150399
3.7317164 ,Left ,48.2889484818392 ,48.7035465115386 ,67.2161981982725
3.7467253 ,Left ,48.1983718703457 ,48.6688217292633 ,67.2075914035723
3.7691251 ,Left ,48.1161042839068 ,48.6697440623617 ,67.1935994734039
3.7916273 ,Left ,48.0325282046927 ,48.7363084376356 ,67.1488108813837
3.8142491 ,Left ,48.0426275336252 ,48.809579894798 ,67.0852815162824
3.8368176 ,Left ,48.1726053272242 ,48.8364995536066 ,67.0100361170978
3.8667112 ,Left ,48.2986402376532 ,48.8520716832246 ,66.8536687224489
3.8892383 ,Left ,48.1815798413573 ,48.8669587919037 ,66.8158719956575
3.9116522 ,Left ,48.1231886618849 ,48.876599816863 ,66.7646184546508
3.9266011 ,Left ,48.0725325275076 ,48.8688908342525 ,66.6858743794873
3.9492044 ,Left ,48.0403844283598 ,48.8614351649863 ,66.6036834047236
3.9714757 ,Left ,48.0441752610158 ,48.8425701243014 ,66.5241261129295
3.994209 ,Left ,48.0250971372273 ,48.8079598296079 ,66.4518466082916
4.0091479 ,Left ,47.9799069422829 ,48.768459141689 ,66.3957662206621
4.0316642 ,Left ,47.9268333451373 ,48.7203141331882 ,66.3526486256362
4.04676 ,Left ,47.8834080693703 ,48.6673640268649 ,66.3250074706434
4.0692429 ,Left ,47.8564627270676 ,48.6196498472214 ,66.3250773785361
4.099077 ,Left ,47.8415728592425 ,48.5746783411295 ,66.332363719848
4.1142132 ,Left ,47.7839313727946 ,48.5647799214539 ,66.3404179076369
4.1365757 ,Left ,47.7230146902683 ,48.5894326740859 ,66.3275477791991
4.1515811 ,Left ,47.8004322325589 ,48.6105591677095 ,66.3191925268632
4.1665008 ,Left ,47.9870566762636 ,48.5840378624212 ,66.3106886420685
4.1890664 ,Left ,48.1291828551171 ,48.5622906442265 ,66.3060655156012
4.2115499 ,Left ,48.1584492233157 ,48.5576226333969 ,66.3268335175863
4.2341275 ,Left ,48.0737219474273 ,48.5784741878595 ,66.3893087255934
4.2491998 ,Left ,48.0448407962156 ,48.6068612513294 ,66.4790276224076
4.2716982 ,Left ,48.1072238958525 ,48.618566340731 ,66.5401208884769
4.2942628 ,Left ,48.1946617151021 ,48.6191687392323 ,66.573830908366
4.3093177 ,Left ,48.2684429974983 ,48.6230209004603 ,66.6057185473017
4.3315932 ,Left ,48.2716587637513 ,48.6333137638664 ,66.6434563861691
4.3466031 ,Left ,48.1792901962427 ,48.6716752236913 ,66.6741933579742
4.3765765 ,Left ,48.1366493020517 ,48.7062853968675 ,66.7012862891872
4.399015 ,Left ,48.2449072841072 ,48.7052033389059 ,66.7180038185722
4.4291834 ,Left ,48.4836195689518 ,48.7005740379933 ,66.7375200370328
4.4516149 ,Left ,48.5023934348242 ,48.70820370018 ,66.7582181003699
4.4741148 ,Left ,48.5116922865945 ,48.7191541116993 ,66.7814917062896
4.4891188 ,Left ,48.5325426561195 ,48.7299493889161 ,66.7997751951927
4.5116162 ,Left ,48.5835796556749 ,48.741100340948 ,66.8065476625898
4.5341201 ,Left ,48.6515847596984 ,48.7467070462238 ,66.8155583262005
4.549073 ,Left ,48.706548955195 ,48.7531992580484 ,66.8251508586763
4.5719319 ,Left ,48.7298119733173 ,48.7603092767425 ,66.8432862717299
4.5940634 ,Left ,48.7281514137168 ,48.7639150391243 ,66.8681174343256
4.6091534 ,Left ,48.7229583613707 ,48.7696492075062 ,66.8976553053748
4.638888 ,Left ,48.7075507462734 ,48.7882361081378 ,66.9219584439895
4.6691411 ,Left ,48.6917106166793 ,48.8138773361473 ,66.9483209530987
4.6839802 ,Left ,48.6732355586533 ,48.8388508527347 ,66.9749423734801
4.729044 ,Left ,48.7068959511235 ,48.9109770172067 ,67.0522711517326
4.7517446 ,Left ,48.7001685113439 ,48.9357484071892 ,67.0715017862033
4.7746326 ,Left ,48.7091391954185 ,48.9717343210301 ,67.0909801746732
4.7891358 ,Left ,48.7337063720957 ,49.0072828571961 ,67.1129926791451
4.8116524 ,Left ,48.7355899405583 ,49.0430305238334 ,67.1377217026432
4.8340699 ,Left ,48.7159730959262 ,49.0735518008838 ,67.1688469824568
4.8491146 ,Left ,48.7200727329395 ,49.0945967068295 ,67.2011841851814
4.8791044 ,Left ,48.7336929505077 ,49.100677163459 ,67.2272225532336
4.9016353 ,Left ,48.7437940399164 ,49.0975639671336 ,67.2587333820923
4.9241754 ,Left ,48.783557562238 ,49.0947471906677 ,67.2909476847964
4.9390642 ,Left ,48.8080300194724 ,49.0737011083776 ,67.3181203121025
4.9614686 ,Left ,48.8210982441696 ,49.0526488903378 ,67.3460191322959
4.9767267 ,Left ,48.8165138797254 ,49.040069676871 ,67.3740512156601
4.9916549 ,Left ,48.8009605059627 ,49.0383782585208 ,67.3911753938432
5.0140061 ,Left ,48.7864076480537 ,49.0518725962367 ,67.3907739560806
5.0293091 ,Left ,48.7791436324947 ,49.0766339091348 ,67.3829018112074
5.0520818 ,Left ,48.7932593076759 ,49.0951766689586 ,67.372010472536
5.0740981 ,Left ,48.8094013501765 ,49.1103560960529 ,67.3705277075054
5.0891569 ,Left ,48.8000342721271 ,49.1252157265513 ,67.3748215861291
5.1130608 ,Left ,48.7605815298496 ,49.1356323679536 ,67.3807715978488
5.134211 ,Left ,48.7131730683021 ,49.1440594413584 ,67.3848155598386
5.1490802 ,Left ,48.6961728753451 ,49.1498046953113 ,67.3855117352647
5.1715502 ,Left ,48.6950131550808 ,49.154974747174 ,67.3806048740672
5.1941377 ,Left ,48.7070855245548 ,49.1634993550646 ,67.3797614121903
5.208978 ,Left ,48.7174079483351 ,49.1732817738027 ,67.3831487178431
5.2316893 ,Left ,48.7054550694759 ,49.1874588638658 ,67.38508279124
5.2541928 ,Left ,48.6847350642074 ,49.2023884059281 ,67.3900582055369
5.276812 ,Left ,48.6776530993548 ,49.2137163507892 ,67.3965192091125
5.2916067 ,Left ,48.6864330261137 ,49.2178013984407 ,67.4071185310189
5.3149851 ,Left ,48.6996465959469 ,49.2097746723159 ,67.4093702008953
5.3365754 ,Left ,48.6923693313909 ,49.2049813121993 ,67.4054667783885
5.3591068 ,Left ,48.6641029943947 ,49.1992522895917 ,67.4003745085689
5.3816168 ,Left ,48.6398449121302 ,49.1886974983956 ,67.3932811078958
5.4116717 ,Left ,48.6147624668611 ,49.1468528164677 ,67.3853581012701
5.4414075 ,Left ,48.5949694938521 ,49.1275653641221 ,67.4081997463761
5.463968 ,Left ,48.6049194925384 ,49.1067786291539 ,67.4520210759973
5.4791453 ,Left ,48.6708527356255 ,49.0699631700872 ,67.5009257020741
5.4942089 ,Left ,48.7398299996878 ,49.0081600351903 ,67.5462519507796
5.516665 ,Left ,48.7481177816782 ,48.932945424807 ,67.5893722495805
5.5317201 ,Left ,48.7511564485445 ,48.8447083022556 ,67.619487982652
5.5541397 ,Left ,48.7584619413997 ,48.7511613723275 ,67.6363230716289
5.5766416 ,Left ,48.7553470471637 ,48.6709929116144 ,67.6573798289333
5.5915327 ,Left ,48.6563922342394 ,48.622185105949 ,67.6582919428293
5.6142092 ,Left ,48.5315947130635 ,48.6229106834015 ,67.6191946302823
5.6364169 ,Left ,48.4482731500636 ,48.6343995638505 ,67.5739159529636
5.6516762 ,Left ,48.4663047714347 ,48.6426580053516 ,67.52212770271
5.6897114 ,Left ,48.5889468795592 ,48.6351679393379 ,67.4635096312123
5.7116555 ,Left ,48.6464267027886 ,48.6428259315185 ,67.4249132666141
5.7278739 ,Left ,48.6421149032814 ,48.67479759725 ,67.4071138267812
5.7418741 ,Left ,48.6163946900922 ,48.7081719348293 ,67.3816219718957
5.7566214 ,Left ,48.5704083664857 ,48.7214884234613 ,67.3407741025973
5.7791175 ,Left ,48.5185924491348 ,48.7292745377286 ,67.302552333073
5.8014272 ,Left ,48.5170859574821 ,48.7225019882231 ,67.2645216596143
5.8315962 ,Left ,48.4380466543949 ,48.7389499224886 ,67.2052804635667
5.854081 ,Left ,48.3656072268204 ,48.788210301585 ,67.1726835660886
5.8765944 ,Left ,48.3973131422225 ,48.8068544110264 ,67.1375630304186
5.8915822 ,Left ,48.4750503940729 ,48.7957607824989 ,67.0946095952535
5.9141871 ,Left ,48.4802646214516 ,48.7878620911963 ,67.0810010298648
5.9366456 ,Left ,48.4358326302498 ,48.7923422825233 ,67.1084103318851
5.9517029 ,Left ,48.4088062050766 ,48.7840174673214 ,67.1339073765422
5.9742338 ,Left ,48.3854028312341 ,48.7754819290397 ,67.1356284903051
5.9965158 ,Left ,48.3416058679168 ,48.7807171088022 ,67.1275138499491
6.0115759 ,Left ,48.3021338388731 ,48.7794473053339 ,67.1300305384631
6.0493235 ,Left ,48.2358672863036 ,48.8215884935639 ,67.1428461404252
6.0716981 ,Left ,48.1435002027324 ,48.8802844574175 ,67.1199508264099
6.0868957 ,Left ,48.1149202809708 ,48.9329412651732 ,67.1043412920433
6.1017868 ,Left ,48.1621685355241 ,48.9561343759314 ,67.0787438751333
6.1166721 ,Left ,48.1929776949173 ,48.9597424228359 ,67.0558433559635
6.1316279 ,Left ,48.1380214075227 ,48.9567983071728 ,67.0730941425483
6.1541178 ,Left ,48.07648054837 ,48.949657296533 ,67.1165295108726
6.1766535 ,Left ,48.0165867567258 ,48.9366379624169 ,67.1492212119188
6.1916762 ,Left ,47.9203612534193 ,48.8945911741295 ,67.1594935438684
6.2142045 ,Left ,47.9497626680335 ,48.8792513233739 ,67.1587219739334
6.2366627 ,Left ,47.9528239070731 ,48.8579420952619 ,67.1285963320791
6.2591993 ,Left ,47.8757340510663 ,48.8794441373813 ,67.0891285934374
6.2741929 ,Left ,47.8579682705261 ,48.8953048460348 ,67.0599506763514
6.2970249 ,Left ,47.9459017807118 ,48.8823286010163 ,67.0206207507193
6.3192813 ,Left ,47.9851115577492 ,48.8808082145115 ,66.9976536416219
6.3341838 ,Left ,47.926949340502 ,48.9068862519222 ,67.0154089410315
6.3566124 ,Left ,47.8641685806785 ,48.9226832665402 ,67.0433597322341
6.3791499 ,Left ,47.867347765186 ,48.916098068388 ,67.0390956523111
6.3944567 ,Left ,47.8840750831019 ,48.9135662012945 ,67.006940463235
6.4166799 ,Left ,47.8897058313817 ,48.8996056112551 ,66.9714199032048
6.439212 ,Left ,47.9485150358502 ,48.8937774142737 ,66.9537469186394
6.4541557 ,Left ,47.9915728404618 ,48.8928408617687 ,66.9442241296672
6.4767285 ,Left ,47.9723640019771 ,48.9064959156597 ,66.9467336280497
6.4992125 ,Left ,47.9629652725369 ,48.9321859933068 ,66.9431107587331
6.5140993 ,Left ,47.9667747444418 ,48.9583280634316 ,66.9153252867009
6.5367055 ,Left ,47.9865268961805 ,48.9771015858559 ,66.8877922796738
6.5591107 ,Left ,48.032011826343 ,48.9788431977686 ,66.8642396197549
6.5741654 ,Left ,48.0677172210099 ,48.9797037208776 ,66.8437249786694
6.5967343 ,Left ,48.0615337695699 ,48.977633564814 ,66.8174041668614
6.6265764 ,Left ,48.0298469172364 ,48.981092766654 ,66.7831588529742
6.6415484 ,Left ,48.006018797636 ,48.9707619529635 ,66.747478694846
6.66405 ,Left ,48.0110755072501 ,48.9482918398294 ,66.7129832977207
6.6792423 ,Left ,48.0366566485126 ,48.9296813970988 ,66.6743515148414
6.6940798 ,Left ,48.0401399139429 ,48.919280751093 ,66.6344110849884
6.7166909 ,Left ,48.0062154308995 ,48.9194856545673 ,66.6079535192664
6.7391468 ,Left ,47.9927854647129 ,48.9285248812773 ,66.5855272080305
6.7543165 ,Left ,48.0104403966747 ,48.9285183445877 ,66.5571519332736
6.7841274 ,Left ,48.0049298601446 ,48.9188871077202 ,66.525107418325
6.8066101 ,Left ,47.9982591807504 ,48.9033327888372 ,66.4932740392523
6.8214463 ,Left ,48.0024559730146 ,48.879566934379 ,66.4633155035365
6.8363996 ,Left ,47.9856237318766 ,48.8479972081537 ,66.4471012521856
6.8665272 ,Left ,47.9497559735045 ,48.8121123515765 ,66.4437461190635
6.8816425 ,Left ,47.9267778098612 ,48.7805190927576 ,66.4504905351546
6.9041602 ,Left ,47.9278600564359 ,48.7552199954547 ,66.4528628391816
6.9192351 ,Left ,47.9178541783769 ,48.7451439408019 ,66.4497920163537
6.9342188 ,Left ,47.902822117304 ,48.7643132438405 ,66.4382169100339
6.9565232 ,Left ,47.9292857156993 ,48.772029318469 ,66.442011291076
6.9798402 ,Left ,48.0198473420101 ,48.7652378655421 ,66.4361762692013
6.9951896 ,Left ,48.1215872905083 ,48.7656307155103 ,66.4238631167199
7.0167928 ,Left ,48.2112596123218 ,48.7618936743683 ,66.42230282918
7.0391831 ,Left ,48.1547414802399 ,48.7915814190638 ,66.4795968751501
7.0541499 ,Left ,48.1414181644902 ,48.8337955757151 ,66.5669181775079
7.0765835 ,Left ,48.1795731040917 ,48.8584553238833 ,66.6095084660565
7.0991135 ,Left ,48.2691762998728 ,48.8367146386093 ,66.6255609006947
7.1214848 ,Left ,48.2548489585102 ,48.8520669276734 ,66.636593257735
7.144155 ,Left ,48.2041494713311 ,48.8861717216974 ,66.6485641387213
7.1817096 ,Left ,48.3855791643718 ,48.9374686863387 ,66.6620327460029
7.2040726 ,Left ,48.5282706301803 ,48.9317210631493 ,66.6602677311234
7.219764 ,Left ,48.5631417489015 ,48.9342669962027 ,66.6646209953118
7.2415095 ,Left ,48.5504775508296 ,48.9375699417601 ,66.683068573391
7.256575 ,Left ,48.5270034589944 ,48.9335057862396 ,66.6983023048536
7.2791475 ,Left ,48.4989690018039 ,48.9363712744655 ,66.7067614371919
7.3016454 ,Left ,48.5092095442406 ,48.9350758608196 ,66.7106701268953
7.3164871 ,Left ,48.5490657993823 ,48.9299813700652 ,66.7086057967427
7.339033 ,Left ,48.5796674760279 ,48.9278785800698 ,66.7024527481593
7.3617449 ,Left ,48.5809960969241 ,48.9337596420116 ,66.6998792516251
7.3690146 ,Left ,48.5589802681325 ,48.9466741973636 ,66.7046049709093
7.39166 ,Left ,48.5550439413148 ,48.9557996169981 ,66.7087823313193
7.4293163 ,Left ,48.5892621309763 ,48.987707441163 ,66.7095537782784
7.4517015 ,Left ,48.6111798020845 ,49.0067779111601 ,66.7158130298429
7.4892394 ,Left ,48.6575211705745 ,49.0185367169248 ,66.7331141273352
7.5115735 ,Left ,48.676327006554 ,49.0121693762894 ,66.7322903262023
7.5489647 ,Left ,48.6557132098686 ,49.0039318977537 ,66.7337689582908
7.571547 ,Left ,48.6613139180623 ,48.9985300399256 ,66.7383331644278
7.6089424 ,Left ,48.6825180532375 ,48.9708454890733 ,66.7545712873936
7.6315372 ,Left ,48.6909158810643 ,48.9595808093397 ,66.7680244119138
7.6691543 ,Left ,48.6739935491487 ,48.9453999932095 ,66.8012578649894
7.6914229 ,Left ,48.6589186264945 ,48.9364787102893 ,66.816197752208
7.7289158 ,Left ,48.6093540052006 ,48.9117325950692 ,66.8388740943656
7.7515191 ,Left ,48.5605080568603 ,48.9067287624923 ,66.853545957593
7.7901119 ,Left ,48.4737053271294 ,48.9024005543638 ,66.904349775834
7.8125002 ,Left ,48.4673844117344 ,48.9089059106448 ,66.9222190371872
7.8491669 ,Left ,48.4775685070729 ,48.9330740168796 ,66.95173423493
7.8714514 ,Left ,48.4998805038845 ,48.9403316311333 ,66.95204699639
7.9089705 ,Left ,48.4608747604873 ,48.9316869539734 ,66.9526312426246
7.9317125 ,Left ,48.4479215003635 ,48.9147414512563 ,66.9636598445219
7.9689423 ,Left ,48.4039915467708 ,48.8992464049954 ,66.9427703597107
7.9920673 ,Left ,48.3742508597223 ,48.9051428082402 ,66.9329083169359
8.0290919 ,Left ,48.3856992769049 ,48.905099424043 ,66.9299501870912
8.0591391 ,Left ,48.3607117563659 ,48.9133278939194 ,66.9374393922088
8.089183 ,Left ,48.3022650081378 ,48.9443493222971 ,66.9728369247393
8.1115306 ,Left ,48.2964247319058 ,48.9597443241705 ,66.9950331794748
8.1489705 ,Left ,48.3440902313559 ,48.972837751529 ,67.0065803084831
8.1714407 ,Left ,48.3607860540648 ,48.9741952280572 ,67.0056467394379
8.2089681 ,Left ,48.3660405995074 ,48.9756238737241 ,67.0076619848358
8.2313733 ,Left ,48.3807690821126 ,48.9850684365353 ,67.0057925454673
8.284079 ,Left ,48.4071888237198 ,49.0100081228009 ,67.0002590324954
8.3290366 ,Left ,48.4129038900763 ,49.0204657545703 ,67.0082343601416
8.3515625 ,Left ,48.3942087798194 ,49.0157605739061 ,67.0095234466178
8.389238 ,Left ,48.4057087901598 ,49.0042070668434 ,67.0054179584109
8.4140307 ,Left ,48.4023730064042 ,48.9948503183241 ,67.0063919969367
8.4490607 ,Left ,48.371018693873 ,48.9728217098762 ,67.0095717451524
8.4717506 ,Left ,48.3690873559863 ,48.9469175812341 ,67.0113182907523
8.5090978 ,Left ,48.3926390774502 ,48.8973801161761 ,67.0314064526814
8.539074 ,Left ,48.3997210555565 ,48.8733701791101 ,67.0507482847763
8.5916004 ,Left ,48.5130013284589 ,48.7895760227883 ,67.1151678029445
8.6312045 ,Left ,48.4249737183878 ,48.773587222489 ,67.1041496907692
8.6515689 ,Left ,48.271140755275 ,48.8005554602111 ,67.0743141956323
8.6888857 ,Left ,48.4020493475708 ,48.7911723259693 ,66.9953913439806
8.7115749 ,Left ,48.4846924298994 ,48.785190199297 ,66.990621441673
8.7489333 ,Left ,48.4563327419221 ,48.7809924280935 ,66.9727667871953
8.7714071 ,Left ,48.4075182353012 ,48.7638261922673 ,66.9429872530325
8.8167717 ,Left ,48.3883458682144 ,48.7170469974814 ,66.8867934350238
8.8392348 ,Left ,48.3843547517485 ,48.7008587473393 ,66.8726970344173
8.8688506 ,Left ,48.2998614823957 ,48.6502565427982 ,66.8509672165846
8.8913937 ,Left ,48.3366097814932 ,48.6306635662759 ,66.8387241734985
8.9291362 ,Left ,48.3582705418878 ,48.6098466348583 ,66.8677664633369
8.9514901 ,Left ,48.3705425603365 ,48.609849967795 ,66.8850296657765
8.9888947 ,Left ,48.2963687335127 ,48.6535123183105 ,66.8938474386625
9.0114492 ,Left ,48.2262503443593 ,48.6925739272721 ,66.9027231883435
9.0566197 ,Left ,48.2263801930381 ,48.7580979266283 ,66.9043786422976
9.071683 ,Left ,48.2668301705149 ,48.7775673825031 ,66.9088117997893
9.1016466 ,Left ,48.1390686220061 ,48.8400753587436 ,67.0034175290713
9.1314322 ,Left ,48.1433719750747 ,48.8366902646976 ,67.0417883904818
9.1689875 ,Left ,48.0565173152688 ,48.7588265615304 ,67.0996478104683
9.1916079 ,Left ,48.0491942457493 ,48.7248355467035 ,67.1077257270355
9.2290718 ,Left ,47.9554802103454 ,48.7464543999165 ,67.0519758036039
9.2504359 ,Left ,47.8772806221655 ,48.801446742838 ,66.9945877296232
9.2667156 ,Left ,47.8975567926668 ,48.8436338656913 ,66.9372678627259
9.2816213 ,Left ,47.9700941104711 ,48.8548873081965 ,66.8696190103343
9.3041681 ,Left ,48.0058030839328 ,48.8696228946679 ,66.8077612018208
9.3265094 ,Left ,47.9746429657385 ,48.8835350364852 ,66.7589149809822
9.3416992 ,Left ,47.9689507960433 ,48.8965599475088 ,66.7246190410066
9.3641818 ,Left ,48.0013304762126 ,48.8849582868573 ,66.6806013629921
9.3866522 ,Left ,48.023712337355 ,48.879165852747 ,66.6344809104995
9.4016018 ,Left ,48.0163164725802 ,48.8883169701917 ,66.5917108159018
9.4241234 ,Left ,47.9962787353551 ,48.8959562301755 ,66.5568287479904
9.4466947 ,Left ,47.9877558002335 ,48.8926843136535 ,66.5240125866664
9.4622755 ,Left ,47.9882557568214 ,48.8822195947556 ,66.4956388367294
9.4839728 ,Left ,47.9894340011902 ,48.8679095984903 ,66.4898180978191
9.5066986 ,Left ,47.9989006006866 ,48.8426891370915 ,66.5004136102762
9.5214119 ,Left ,47.9726725535791 ,48.8127803909791 ,66.5026346343851
9.5445202 ,Left ,47.9212187552505 ,48.7800184026959 ,66.5202723869923
9.5667277 ,Left ,47.9365110397125 ,48.7633786271249 ,66.5477445125547
9.5816636 ,Left ,47.93447393507 ,48.7382200263478 ,66.5610758342669
9.6041781 ,Left ,47.918622208393 ,48.7446381681534 ,66.5528470357921
9.6266658 ,Left ,47.9174025493162 ,48.759164235228 ,66.5606282400494
9.6416333 ,Left ,48.0522314831987 ,48.7408189012765 ,66.5653799639471
9.6641283 ,Left ,48.2539126670763 ,48.7132210143 ,66.5638611100382
9.6953454 ,Left ,48.290237150388 ,48.708704568885 ,66.5843357929869
9.7090995 ,Left ,48.202792718209 ,48.7187783018192 ,66.6636721631688
9.7315687 ,Left ,48.2191385043663 ,48.7283617660333 ,66.7629494017619
9.7476568 ,Left ,48.3047162398784 ,48.7231144072315 ,66.8134061578481
9.7616215 ,Left ,48.3629111910717 ,48.7148687182947 ,66.8462688148006
9.7839808 ,Left ,48.4157758991053 ,48.7212582293319 ,66.8846094234258
9.8066355 ,Left ,48.3746618975439 ,48.7298627873053 ,66.9006110773706
9.8215659 ,Left ,48.2552129434671 ,48.7890016218035 ,66.9133919493302
9.8443407 ,Left ,48.2660218558063 ,48.8284236647964 ,66.9299436332068
9.8668219 ,Left ,48.4226702019806 ,48.8337025968944 ,66.9277480163036
9.8892067 ,Left ,48.5555708208401 ,48.8255426579674 ,66.9270341410967
9.9040735 ,Left ,48.5611104660665 ,48.8315621706072 ,66.9302743839863
9.9266688 ,Left ,48.5165163864202 ,48.8377578394675 ,66.9439828788213
9.9493007 ,Left ,48.5133236614342 ,48.8376402507447 ,66.958021872796
9.9646952 ,Left ,48.5180314660624 ,48.8303474853268 ,66.9582306098271
9.9864445 ,Left ,48.5122580964514 ,48.836113256127 ,66.9602888980878
10.0015106 ,Left ,48.5018429645309 ,48.8490221649169 ,66.9600789445804
10.0238631 ,Left ,48.4854230362858 ,48.8518718310965 ,66.9611211118656
10.0466943 ,Left ,48.4642585696162 ,48.8508303619846 ,66.9649113244446
10.0691412 ,Left ,48.4425246220788 ,48.8524074248805 ,66.9660198883964
10.0841644 ,Left ,48.4279727739692 ,48.8699941546612 ,66.9682811986196
10.1065464 ,Left ,48.430495283331 ,48.8934032216531 ,66.9687482580719
10.129239 ,Left ,48.4291469166831 ,48.9212380235926 ,66.9645859371287
10.1514706 ,Left ,48.4388541447475 ,48.9448387090048 ,66.959935248869
10.1740151 ,Left ,48.4639020198652 ,48.9526321590033 ,66.957915219787
10.2115346 ,Left ,48.4333017557291 ,48.950249110871 ,66.9553387735045
10.2339949 ,Left ,48.4010302908657 ,48.9535959243438 ,66.9616607337232
10.2566682 ,Left ,48.4191920369273 ,48.9543537430478 ,66.9673456336937
10.2716436 ,Left ,48.4518728669525 ,48.9488489566073 ,66.9699018735075
10.2865408 ,Left ,48.4673654314824 ,48.9536351403614 ,66.9846984909915
10.3090884 ,Left ,48.4469677889158 ,48.9595319687693 ,67.0057759932737
10.3241171 ,Left ,48.4628781593115 ,48.9621418952937 ,67.0294690954383
10.3464795 ,Left ,48.4940688195106 ,48.9554761469751 ,67.0460817635467
10.3767817 ,Left ,48.48666929104 ,48.955638832724 ,67.0579029883681
10.3916382 ,Left ,48.4646380409805 ,48.9576747126414 ,67.0681411985531
10.4214425 ,Left ,48.4589748775844 ,48.9680429143109 ,67.0769875182246
10.4363804 ,Left ,48.4575436817588 ,48.9850022531248 ,67.0799465599062
10.4516176 ,Left ,48.4454374770208 ,49.0037239761799 ,67.0911745004346
10.4744717 ,Left ,48.4245458944375 ,49.0187426067693 ,67.0977998737248
10.4891293 ,Left ,48.4030394678196 ,49.0409257171652 ,67.1115348993576
10.5041769 ,Left ,48.391375305392 ,49.0690142156882 ,67.1328695288641
10.5266123 ,Left ,48.3929559834539 ,49.1005977068323 ,67.1580770902589
10.5491894 ,Left ,48.4098331741083 ,49.1392296651855 ,67.1884305204572
10.5641256 ,Left ,48.4303540610608 ,49.1918370444634 ,67.2243580201802
10.5866204 ,Left ,48.4201523181343 ,49.2537936364113 ,67.2644198200468
10.6090259 ,Left ,48.4099199132431 ,49.3111733811801 ,67.2977289873034
10.6241778 ,Left ,48.4134272638974 ,49.3712944071205 ,67.3186934179693
10.6469554 ,Left ,48.4067357422975 ,49.4328943943117 ,67.3356754803603
10.6690833 ,Left ,48.4115491567533 ,49.4943851586495 ,67.3495143061101
10.6841151 ,Left ,48.4213400825127 ,49.5526290484419 ,67.3617583706048
10.7140273 ,Left ,48.4218096555136 ,49.6027116302811 ,67.3705063355079
10.7442258 ,Left ,48.4193858114839 ,49.6476750569185 ,67.3746858455957
10.766654 ,Left ,48.4005822101299 ,49.6841854874325 ,67.3756455326207
10.7815171 ,Left ,48.3924115995096 ,49.7118489412539 ,67.374460551742
10.8116373 ,Left ,48.3844360782614 ,49.7098169803949 ,67.3724561814767
10.82659 ,Left ,48.3649429071888 ,49.6966009938396 ,67.3742998521623
10.8491422 ,Left ,48.3588406073558 ,49.6752567647699 ,67.3733695743863
10.8641886 ,Left ,48.3760490774147 ,49.6395360793574 ,67.3678339432747
10.8984852 ,Left ,48.3762362716002 ,49.5981658691276 ,67.3610774373324
10.9165741 ,Left ,48.3520888996962 ,49.5579686407959 ,67.3552793235243
10.9316977 ,Left ,48.3405511728329 ,49.5238471319392 ,67.3535347855153
10.9466129 ,Left ,48.349279962833 ,49.4937414201278 ,67.3596203759563
10.9690622 ,Left ,48.3403038773229 ,49.4607912231219 ,67.3665600146698
10.9840727 ,Left ,48.324276878626 ,49.4275429035429 ,67.3740249914725
11.0066164 ,Left ,48.3206284202553 ,49.3959072387253 ,67.3806375584612
11.0290897 ,Left ,48.3104692963761 ,49.3615300540854 ,67.3925628353399
11.0515846 ,Left ,48.3272175073471 ,49.3268148388568 ,67.407850913677
11.0665635 ,Left ,48.3783632054482 ,49.2847385490238 ,67.419242460666
11.0890835 ,Left ,48.4154339156435 ,49.2422755901369 ,67.4332479806662
11.1141312 ,Left ,48.4578125814042 ,49.2057666954085 ,67.458781210829
11.1268408 ,Left ,48.4937754592798 ,49.1845975897593 ,67.4806714652086
11.1490648 ,Left ,48.4522549773071 ,49.2230844112681 ,67.4621438484729
11.1715143 ,Left ,48.3850161639915 ,49.2691709996252 ,67.4152449679616
11.1863771 ,Left ,48.3695151075238 ,49.3240951433759 ,67.3508094958093
11.2091319 ,Left ,48.4103145374479 ,49.338354248014 ,67.3004769160282
11.231629 ,Left ,48.4091830621965 ,49.3442959082942 ,67.2593438367425
11.2465369 ,Left ,48.4228465624345 ,49.3532778913082 ,67.2305324331435
11.2691387 ,Left ,48.4402464414764 ,49.3467136573852 ,67.2118128881155
11.291687 ,Left ,48.4205510902107 ,49.3288445983286 ,67.2096530031528
11.3065955 ,Left ,48.3448656002704 ,49.3196860257781 ,67.2071741997897
11.3383781 ,Left ,48.3399337443606 ,49.2884325775095 ,67.2025631983984
11.3591123 ,Left ,48.3702738032087 ,49.2582788314073 ,67.1871599873089
11.3741375 ,Left ,48.305259187916 ,49.2301742392769 ,67.1562839546175
11.3891305 ,Left ,48.2433661082053 ,49.2342796188525 ,67.1326810485902
11.4115608 ,Left ,48.3036531332625 ,49.2157600683161 ,67.1122150518646
11.4263907 ,Left ,48.3578853600346 ,49.1874446157406 ,67.0950226043246
11.4490709 ,Left ,48.336924988844 ,49.1798870805051 ,67.1058353333863
11.4713164 ,Left ,48.3137583437963 ,49.1857018276374 ,67.1363696074125
11.4865294 ,Left ,48.2920827057781 ,49.192488530164 ,67.1503548150572
11.5090653 ,Left ,48.2986664433126 ,49.2062839905933 ,67.1400615035553
11.5333639 ,Left ,48.3372320156872 ,49.2396366820725 ,67.1311716726411
11.5466423 ,Left ,48.2536331153693 ,49.2845298752079 ,67.1214703022499
11.5765831 ,Left ,48.1815138162064 ,49.3340478396538 ,67.1177698626696
11.5988607 ,Left ,48.1940493370149 ,49.3579885344218 ,67.1084047015183
11.614129 ,Left ,48.2150574748337 ,49.3539445030197 ,67.0938627767379
11.6439129 ,Left ,48.1799893189544 ,49.3518821211464 ,67.0918446651456
11.6590132 ,Left ,48.0790955210297 ,49.3517354350377 ,67.1131570909577
11.6739545 ,Left ,48.024202657598 ,49.3320391152163 ,67.1539001346649
11.6890243 ,Left ,48.0045573827378 ,49.2905787547015 ,67.1809638789636
11.7131121 ,Left ,47.9760487659249 ,49.2503562486369 ,67.2150115426901
11.7266765 ,Left ,47.9931604919961 ,49.2143940296766 ,67.248645103105
11.7491406 ,Left ,48.0109248605447 ,49.1933271364272 ,67.2696322212162
11.7716028 ,Left ,47.9924891971054 ,49.2221777370227 ,67.2619390365277
11.7865639 ,Left ,47.9755193171582 ,49.2805908073777 ,67.2243207736699
11.8091026 ,Left ,47.9814562956958 ,49.3434072286036 ,67.1872053683371
11.8314458 ,Left ,48.0355143805356 ,49.3835155658421 ,67.1381047336728
11.8541092 ,Left ,48.0813313287155 ,49.4055169880638 ,67.0795321612583
11.8690579 ,Left ,48.1117258029051 ,49.4210101074441 ,67.0222854504248
11.8914389 ,Left ,48.1281538395627 ,49.4293363916466 ,66.9758787918771
11.9064732 ,Left ,48.1324108833039 ,49.4298650035274 ,66.9438194101015
11.9308628 ,Left ,48.1566883460694 ,49.4298499342412 ,66.9109260946429
11.9516619 ,Left ,48.1634234925907 ,49.4260358458264 ,66.8683061028557
11.9740594 ,Left ,48.1538788101754 ,49.4251972972723 ,66.8256899869686
11.9891256 ,Left ,48.1652770352722 ,49.4145495963211 ,66.7899885000599
12.0117146 ,Left ,48.1658036003364 ,49.3966931572022 ,66.7530747622701
12.0340291 ,Left ,48.1014241548181 ,49.3765609285504 ,66.7286478722431
12.048954 ,Left ,48.0708436604371 ,49.3577505885436 ,66.7181053934494
12.0715421 ,Left ,48.0752290747304 ,49.3252553039069 ,66.704573352733
12.0939375 ,Left ,48.0470681868958 ,49.2919165924866 ,66.701751573559
12.1091027 ,Left ,48.0226485773813 ,49.2599922664411 ,66.7255846198428
12.1390599 ,Left ,48.0404685234188 ,49.2079259846706 ,66.748844796989
12.1633152 ,Left ,48.0593457285564 ,49.152040731762 ,66.7545446392633
12.1763663 ,Left ,48.0016128505669 ,49.0955159990997 ,66.7555374927087
12.1915554 ,Left ,47.891917224276 ,49.0906424090625 ,66.738381591659
12.2140291 ,Left ,47.8835794998199 ,49.1122790163819 ,66.7147446935158
12.2293833 ,Left ,47.9915351741932 ,49.1203693680088 ,66.6824949891957
12.2514639 ,Left ,48.1655982468472 ,49.0986558226509 ,66.6798883646155
12.2742861 ,Left ,48.2911382495228 ,49.0714158751919 ,66.683018625393
12.2892738 ,Left ,48.2373911698782 ,49.0676482096705 ,66.718425550008
12.311591 ,Left ,48.1388510650641 ,49.0733698285534 ,66.8362979100246
12.3355263 ,Left ,48.1685325831697 ,49.0850527535594 ,66.9396529011245
12.34985 ,Left ,48.2123218193799 ,49.0888250499431 ,66.9973116976792
12.3716695 ,Left ,48.2788754728935 ,49.0859212414601 ,67.0636000770576
12.3941274 ,Left ,48.3173992520025 ,49.1229007478073 ,67.0905772677198
12.4091273 ,Left ,48.2587926416151 ,49.1817475692485 ,67.0672985789768
12.4316665 ,Left ,48.2234822331334 ,49.2593664374871 ,67.068529209925
12.4541911 ,Left ,48.3128925926738 ,49.3154113311098 ,67.0779806269312
12.4691329 ,Left ,48.4669530281133 ,49.3349611084932 ,67.080184507665
12.4915677 ,Left ,48.5034294753395 ,49.3477176858037 ,67.0909137345668
12.5141224 ,Left ,48.4569820722223 ,49.3675623848815 ,67.1259436868049
12.5291056 ,Left ,48.4447980440851 ,49.3696785625228 ,67.169295789211
12.5534198 ,Left ,48.4713809126365 ,49.3589424526658 ,67.1893806607452
12.5740964 ,Left ,48.5019706932578 ,49.3497755799099 ,67.1931705399063
12.5890892 ,Left ,48.5176612056906 ,49.338138839738 ,67.1929585650484
12.6116066 ,Left ,48.5308570726135 ,49.3366887769011 ,67.1834550690455
12.6414201 ,Left ,48.535439149955 ,49.335840787856 ,67.1719033517262
12.6566973 ,Left ,48.5209727097155 ,49.3261803439119 ,67.1637121097467
12.686544 ,Left ,48.5039285896453 ,49.32034284506 ,67.1630730422123
12.7015001 ,Left ,48.4925295768111 ,49.3204582096571 ,67.1658590303992
12.723991 ,Left ,48.482087875322 ,49.3225253900137 ,67.1726197664737
12.7391327 ,Left ,48.4840729494062 ,49.319605673936 ,67.1886391279089
12.7641023 ,Left ,48.5067273889569 ,49.3132890389113 ,67.2040498226923
12.776796 ,Left ,48.5396189580077 ,49.3120376866943 ,67.211336620341
12.7993295 ,Left ,48.5422967922015 ,49.3127055577464 ,67.2111279277914
12.8141186 ,Left ,48.5422967922015 ,49.3127055577464 ,67.2111279277914
12.8291034 ,Left ,48.5422967922015 ,49.3127055577464 ,67.2111279277914
12.8515722 ,Left ,48.5377101108274 ,49.3085139850977 ,67.2070570022556
12.8739386 ,Left ,48.528749856032 ,49.3047879969573 ,67.2053134603227
12.8966015 ,Left ,48.5049953490549 ,49.3031026727237 ,67.2069135002327
12.9115763 ,Left ,48.4832294330815 ,49.3048911410632 ,67.2102557559897
12.9341654 ,Left ,48.4907524321654 ,49.303045818562 ,67.2186954112426
12.9565924 ,Left ,48.5371298870598 ,49.2869067078035 ,67.2311813281672
12.9724445 ,Left ,48.5809708642415 ,49.2633872973618 ,67.251040960685
12.9941556 ,Left ,48.618010127766 ,49.2442097947657 ,67.2773163655259
13.0166028 ,Left ,48.7037783119431 ,49.2210758816286 ,67.3266349526321
13.031583 ,Left ,48.892472100081 ,49.1923498506168 ,67.3895691830173
13.061653 ,Left ,49.1094890223163 ,49.1272290411258 ,67.4485879396191
13.0838521 ,Left ,49.1954630650563 ,49.0773244923746 ,67.492824097655
13.098995 ,Left ,49.120346775422 ,49.0621293564641 ,67.5356147927786
13.1140814 ,Left ,49.0405704074556 ,49.0660661285416 ,67.5846555331991
13.136515 ,Left ,49.0276830907256 ,49.0630886693132 ,67.6241420960603
13.1440193 ,Left ,49.0458080437225 ,49.0614061872175 ,67.6529403646522
13.1666429 ,Left ,49.0447673246607 ,49.0806754712069 ,67.6868007427465
13.2039194 ,Left ,48.9695752183577 ,49.1374349409663 ,67.7495118180619
13.226409 ,Left ,48.9282904547739 ,49.1681374462703 ,67.7679591956705
13.2647294 ,Left ,48.9637336706434 ,49.2084157318119 ,67.7940426080632
13.2866431 ,Left ,48.9790232005215 ,49.2333256073243 ,67.8017124544057
13.3238719 ,Left ,48.9690435366745 ,49.278255003026 ,67.7815087895872
13.3475755 ,Left ,48.9517720914393 ,49.2931910412325 ,67.7611634228384
13.3840347 ,Left ,48.9592017802579 ,49.2946170605594 ,67.7147088378871
13.4066628 ,Left ,48.9557001092049 ,49.2871456483933 ,67.6876222368188
13.4441092 ,Left ,48.8905110344981 ,49.2718995373648 ,67.6548880776531
13.4664349 ,Left ,48.8579886318474 ,49.2666792582489 ,67.6450297557135
13.5041761 ,Left ,48.7813408706376 ,49.249942895536 ,67.6451869829922
13.5266258 ,Left ,48.734826154643 ,49.2492022538339 ,67.6517251292153
13.5715637 ,Left ,48.6901856541539 ,49.2336697688441 ,67.6663813632344
13.6240556 ,Left ,48.6853323585406 ,49.1535108305047 ,67.7257738105755
13.6465828 ,Left ,48.6992635566821 ,49.1456569991195 ,67.7599059079776
13.6840667 ,Left ,48.7655261245554 ,49.0991674837118 ,67.7340348821545
13.7066796 ,Left ,48.6820511250073 ,49.080762772853 ,67.668670472451
13.7439809 ,Left ,48.5954391608162 ,49.044325735454 ,67.5475144042362
13.7666186 ,Left ,48.6312623017578 ,49.0099375499806 ,67.5089506600553
13.8040018 ,Left ,48.6018768687759 ,48.9864294107092 ,67.4914840376834
13.8298765 ,Left ,48.5857609357161 ,48.9825532169246 ,67.4929075111116
13.8642374 ,Left ,48.5982222627684 ,48.9924885907234 ,67.4617099943759
13.8865023 ,Left ,48.5884612183786 ,49.0162952038542 ,67.4497278963216
13.9240067 ,Left ,48.4976561147765 ,49.0384235199625 ,67.4033927907062
13.9465564 ,Left ,48.5301823504745 ,49.0227478622303 ,67.3840804161988
13.9839581 ,Left ,48.4709355103404 ,49.003910273918 ,67.3846734412819
14.0063482 ,Left ,48.4796906468282 ,48.9900416478257 ,67.4006639328598
14.0441325 ,Left ,48.4635241272591 ,48.9927717330562 ,67.3949062340154
14.066726 ,Left ,48.4840269681796 ,49.0191037749396 ,67.3965154975306
14.1040557 ,Left ,48.3379926689621 ,49.0913190608162 ,67.3771820473333
14.1263716 ,Left ,48.3316396259776 ,49.1176781121628 ,67.3714289972268
14.1639806 ,Left ,48.3585528973669 ,49.1188565862853 ,67.3516932201569
14.186557 ,Left ,48.3021722716097 ,49.1285034324531 ,67.3655820572592
14.2240093 ,Left ,48.208881230076 ,49.1069793447452 ,67.4118379619655
14.2469295 ,Left ,48.2285746197872 ,49.0659768028657 ,67.4245857851491
14.2840678 ,Left ,48.2190986435398 ,48.9643365981023 ,67.4214757037461
14.3141368 ,Left ,48.1315971859785 ,48.98876648097 ,67.3868630243245
14.3515745 ,Left ,48.0980527057759 ,49.110829612381 ,67.2591665133584
14.3664947 ,Left ,48.1620848245658 ,49.1422918220455 ,67.191539869103
14.4039022 ,Left ,48.1943385545813 ,49.194032998237 ,67.0948623168
14.4263441 ,Left ,48.1792822734744 ,49.2040726873024 ,67.0679852594707
14.4641794 ,Left ,48.1602417687123 ,49.1758175710328 ,66.9922230733857
14.4865365 ,Left ,48.1307576531185 ,49.170755811054 ,66.944765884876
14.5240244 ,Left ,48.1573350578244 ,49.1590469106074 ,66.87619811415
14.5465234 ,Left ,48.1541522779541 ,49.144448589316 ,66.8618029991308
14.5840736 ,Left ,48.117171856645 ,49.1019028592541 ,66.8376942044536
14.606498 ,Left ,48.0703766561911 ,49.0682867886433 ,66.838783665658
14.6591718 ,Left ,48.1075239551071 ,48.9522313218052 ,66.8498987270566
14.6828668 ,Left ,48.0712791145815 ,48.9151942917407 ,66.8645167324242
14.7267038 ,Left ,48.1316726083458 ,49.0225338969295 ,66.8697981046938
14.7641108 ,Left ,48.3817499274634 ,48.9737681656069 ,66.8823542398491
14.7866446 ,Left ,48.4508732218127 ,48.9344031936996 ,66.921488813577
14.8241347 ,Left ,48.3805172926069 ,48.8840322776503 ,67.0263050402949
14.8465063 ,Left ,48.4136170369219 ,48.8677442359452 ,67.0639279036513
14.8916207 ,Left ,48.4858862945884 ,48.8286839404059 ,67.1254846687657
14.9440474 ,Left ,48.3426806673175 ,48.8274596078623 ,67.1892964682442
14.9666322 ,Left ,48.3864961659651 ,48.8625504106091 ,67.1883666913485
15.0039103 ,Left ,48.624029464258 ,48.8885406825335 ,67.191994926886
15.0191677 ,Left ,48.5920240820231 ,48.9079534925625 ,67.2016785578675
15.0415364 ,Left ,48.5052848528189 ,48.9307102647557 ,67.2121602374776
15.0565302 ,Left ,48.493044475178 ,48.9564187483504 ,67.22036587772
15.0789455 ,Left ,48.550337657206 ,48.9717962301952 ,67.2138545868849
15.1016843 ,Left ,48.6209081502413 ,48.9859915566364 ,67.1994866393272
15.1166368 ,Left ,48.6538812661999 ,48.9957836205731 ,67.2015997750017
15.139145 ,Left ,48.6406794062263 ,49.0084106060015 ,67.2083292182248
15.1616259 ,Left ,48.5994656038832 ,49.0196421997071 ,67.2145448716386
15.1840566 ,Left ,48.5918306983989 ,49.033301086978 ,67.2141051459184
15.2062598 ,Left ,48.6100800230115 ,49.0517094969749 ,67.207394220198
15.2290472 ,Left ,48.6362199383056 ,49.0608439716779 ,67.2033749271787
15.2441159 ,Left ,48.6611268919856 ,49.075275780774 ,67.1965737793825
15.2591529 ,Left ,48.6725144401235 ,49.0818171607517 ,67.1840591379361
15.2817108 ,Left ,48.6834190179799 ,49.0907317267132 ,67.164731382559
15.2966452 ,Left ,48.6823929354525 ,49.0907877877771 ,67.1421613571279
15.3192374 ,Left ,48.6578470871404 ,49.0823523706386 ,67.1258588692219
15.3416325 ,Left ,48.6230282586811 ,49.0689646832422 ,67.119386284335
15.3566023 ,Left ,48.5992079433567 ,49.0560137161034 ,67.1239696201764
15.3865168 ,Left ,48.5773440872847 ,49.0465462192573 ,67.1302876103997
15.4088672 ,Left ,48.5474126706332 ,49.0465330332592 ,67.1385981271197
15.4239641 ,Left ,48.56195109683 ,49.0495194669226 ,67.1537673699752
15.4391377 ,Left ,48.5966603154259 ,49.05182947532 ,67.165074183135
15.4690049 ,Left ,48.6087296063637 ,49.058621706159 ,67.1848053441986
15.4913361 ,Left ,48.6055691924932 ,49.0700957312342 ,67.2022562970903
15.5141934 ,Left ,48.6069079130638 ,49.0695941128618 ,67.2135340813138
15.5292124 ,Left ,48.6118848144834 ,49.0600943095378 ,67.2251937266258
15.5442011 ,Left ,48.6013873250186 ,49.0555277516828 ,67.2417360803196
15.5592705 ,Left ,48.5789195970352 ,49.064975688089 ,67.2581279023421
15.5816576 ,Left ,48.5764873281723 ,49.0736652365767 ,67.2736678368135
15.5972441 ,Left ,48.5718100998817 ,49.0745107170426 ,67.2852846085253
15.6190398 ,Left ,48.5510895253346 ,49.0714817990746 ,67.2978276676516
15.6416303 ,Left ,48.5459498575987 ,49.0680543299165 ,67.3123389499624
15.6564787 ,Left ,48.5512133799114 ,49.0630323650128 ,67.3257920626563
15.6791619 ,Left ,48.5565206230343 ,49.0578650293487 ,67.3371648285603
15.7090848 ,Left ,48.5693692958032 ,49.0571507577442 ,67.3430593429759
15.7392941 ,Left ,48.5647843515126 ,49.057727829479 ,67.3505261650033
15.7618242 ,Left ,48.5496560121628 ,49.0555863145404 ,67.3538241323779
15.7993314 ,Left ,48.5616565663814 ,49.0774185654987 ,67.3358772215291
15.8214538 ,Left ,48.5645272099781 ,49.0777525723401 ,67.3289241299739
15.8440751 ,Left ,48.5811431453402 ,49.0628736675966 ,67.3174632814556
15.8589944 ,Left ,48.5785448198263 ,49.0523552411743 ,67.2910203505833
15.8815741 ,Left ,48.5608857024013 ,49.0461353147387 ,67.2560783238415
15.9116115 ,Left ,48.5921955046294 ,49.0309982819917 ,67.2234963743742
15.9277652 ,Left ,48.6071883086786 ,49.0141589347302 ,67.18040755847
15.9642939 ,Left ,48.5594828699561 ,49.0227376451239 ,67.1147696276039
15.9791026 ,Left ,48.5504251810723 ,49.0321369754989 ,67.0941999115213
16.0015876 ,Left ,48.5313129398408 ,49.0361375104254 ,67.0747368072477
16.0313388 ,Left ,48.5107084737161 ,49.0456306817789 ,67.0596020428021
16.0465961 ,Left ,48.4896174249045 ,49.0558386217156 ,67.0603501332656
16.0690731 ,Left ,48.4633668175728 ,49.0581321828333 ,67.0682709137363
16.0841693 ,Left ,48.433620131964 ,49.0512950367121 ,67.0817576063379
16.0991122 ,Left ,48.4075847612594 ,49.0402502462457 ,67.1045608911068
16.1215566 ,Left ,48.3823424498821 ,49.0312756793546 ,67.1338933088447
16.1442268 ,Left ,48.3865497785566 ,49.0118502566162 ,67.1711174084114
16.1598756 ,Left ,48.4309406961603 ,48.9907259244928 ,67.2017809548285
16.1816022 ,Left ,48.4976567391602 ,48.9719498741785 ,67.2234760763926
16.2041089 ,Left ,48.5534934604847 ,48.9730555614232 ,67.2501000308577
16.2190602 ,Left ,48.5905767975974 ,48.9780960302918 ,67.249625205652
16.2416113 ,Left ,48.5069387143897 ,48.9931303241047 ,67.205704666086
16.2641588 ,Left ,48.3432958432003 ,49.03269568788 ,67.1563551448211
16.279431 ,Left ,48.3493600460154 ,49.0343517409586 ,67.1105167531063
16.3016236 ,Left ,48.4796257714959 ,49.0052218393952 ,67.0643555562709
16.3240941 ,Left ,48.5276727742345 ,48.9854485452261 ,67.0464524363411
16.3391265 ,Left ,48.4917124931748 ,48.9931249773234 ,67.0434179317918
16.3651792 ,Left ,48.4462718016289 ,48.9831549327728 ,67.0244925790101
16.3841316 ,Left ,48.4261815120177 ,48.9579607469342 ,66.9982615911189
16.3991922 ,Left ,48.3985471741056 ,48.9461171943841 ,66.9670367423939
16.4216419 ,Left ,48.4287918224021 ,48.9234905069186 ,66.9552442437297
16.4441826 ,Left ,48.4629075959792 ,48.9189700676407 ,66.9442744679505
16.4591503 ,Left ,48.3588927956002 ,48.9209323345517 ,66.9303096041991
16.4816745 ,Left ,48.2640403748997 ,48.9358949433695 ,66.9285749383846
16.5041504 ,Left ,48.3331249626397 ,48.9220685639666 ,66.9210000467942
16.5266436 ,Left ,48.400381177231 ,48.900217639423 ,66.9021157951701
16.541578 ,Left ,48.3905166842136 ,48.8945638348883 ,66.8987522360841
16.5716789 ,Left ,48.3695488421233 ,48.9029065502611 ,66.9150920920167
16.5865832 ,Left ,48.3864431489249 ,48.897524418012 ,66.9192549762977
16.608952 ,Left ,48.3817341710141 ,48.9000502797751 ,66.910239685241
16.6469946 ,Left ,48.3354020707703 ,48.941089610515 ,66.9192740095045
16.6690576 ,Left ,48.2002188858754 ,49.0071385021374 ,66.9252278160303
16.7066086 ,Left ,48.2030525079757 ,49.0719454038748 ,66.9497460599899
16.7215509 ,Left ,48.2284975273304 ,49.0775479159916 ,66.956972439642
16.7440763 ,Left ,48.1477457930484 ,49.0858604283917 ,66.9904105721141
16.7666295 ,Left ,48.0435979317739 ,49.1014916816664 ,67.0324372568198
16.7816716 ,Left ,48.0156260721054 ,49.1224481532205 ,67.0278502207534
16.8041667 ,Left ,47.998795560287 ,49.1682764929186 ,66.9735026217383
16.8265481 ,Left ,47.9944759190982 ,49.2538404081967 ,66.9103335706051
16.8415787 ,Left ,48.0702664821021 ,49.3408816960698 ,66.874880934571
16.8640864 ,Left ,48.175706337263 ,49.4283763454279 ,66.8315550332846
16.8866981 ,Left ,48.2019348490339 ,49.5079829644537 ,66.786386603935
16.90158 ,Left ,48.1381825489188 ,49.5765554045734 ,66.7424302431841
16.9241038 ,Left ,48.1267680835353 ,49.6031365148869 ,66.6914882429081
16.9465465 ,Left ,48.1720286368463 ,49.5982198400763 ,66.622433509312
16.9614852 ,Left ,48.1555534148668 ,49.5793725435572 ,66.5503006918515
16.9840797 ,Left ,48.0440524726097 ,49.5748497414093 ,66.5310967208277
17.0065396 ,Left ,48.0508605663672 ,49.5864698392985 ,66.5277696137755
17.0216448 ,Left ,48.1580529185424 ,49.5591435057443 ,66.4888333856496
17.0441915 ,Left ,48.200112821839 ,49.5304940840023 ,66.4371445118167
17.066472 ,Left ,48.1568025919722 ,49.521603307221 ,66.3951648513561
17.0816197 ,Left ,48.1118869525706 ,49.5188907507834 ,66.3680955514073
17.10402 ,Left ,48.083401375545 ,49.5027765815674 ,66.3530337931664
17.1265857 ,Left ,48.0729488680862 ,49.4836641816574 ,66.3460913918433
17.1415297 ,Left ,48.0798721383869 ,49.4639600567288 ,66.3425620901776
17.1714502 ,Left ,48.0818811500225 ,49.4362321466611 ,66.3465264345547
17.1938911 ,Left ,48.0611383478356 ,49.4129024745267 ,66.3628432238303
17.2093489 ,Left ,48.0131442457709 ,49.3948654761773 ,66.4004406589874
17.2240972 ,Left ,47.9857677615554 ,49.3801136765827 ,66.4207811711613
17.2478807 ,Left ,47.9358716954356 ,49.338309860864 ,66.4087955467814
17.261579 ,Left ,47.8358806939796 ,49.3124040842031 ,66.3765007337673
17.2841648 ,Left ,47.8275728548734 ,49.3478541670075 ,66.3650465241011
17.3063888 ,Left ,47.9176916739566 ,49.420051941597 ,66.3631625920578
17.3214637 ,Left ,48.028697769544 ,49.4374307888129 ,66.3089190686355
17.3441069 ,Left ,48.1758414411113 ,49.4278181863436 ,66.2487354550172
17.3664854 ,Left ,48.1974830165273 ,49.4269822516192 ,66.2523637189633
17.3817836 ,Left ,48.1162648252642 ,49.4412816810277 ,66.2974984508206
17.4040847 ,Left ,48.1046260341089 ,49.452163790488 ,66.3397373051529
17.4265845 ,Left ,48.1621670359016 ,49.4608417670634 ,66.3588575317219
17.4491034 ,Left ,48.2138373996776 ,49.4549783961343 ,66.3765218483048
17.4663251 ,Left ,48.2478718049482 ,49.4241439774049 ,66.4197905485793
17.4866501 ,Left ,48.1954479106581 ,49.4222611188389 ,66.4627687866389
17.5015365 ,Left ,48.0645595300752 ,49.4834763711771 ,66.509650644751
17.523899 ,Left ,48.05901522266 ,49.5509997106833 ,66.5414255531803
17.5466168 ,Left ,48.209701529485 ,49.558360934923 ,66.5245362413977
17.5691958 ,Left ,48.3874882766427 ,49.5235899360586 ,66.5119480632608
17.5840822 ,Left ,48.4706726451879 ,49.4901697596011 ,66.5283847484218
17.6066673 ,Left ,48.3826438742537 ,49.4725012557857 ,66.5671089533457
17.6291375 ,Left ,48.2831267629815 ,49.4661324775428 ,66.6031528643993
17.6444919 ,Left ,48.2782340158683 ,49.4630495590943 ,66.621427478209
17.6667663 ,Left ,48.3564164258389 ,49.4584607380996 ,66.6203351334701
17.6964867 ,Left ,48.4566145083265 ,49.4569548508587 ,66.6178903412206
17.711593 ,Left ,48.5159036394905 ,49.4589397212292 ,66.621888290614
17.7492319 ,Left ,48.4789369710147 ,49.4473506113307 ,66.6470606555624
17.7641387 ,Left ,48.444504825183 ,49.4429657167388 ,66.657539058014
17.7865958 ,Left ,48.430638517037 ,49.4467352858214 ,66.6647306004018
17.8091531 ,Left ,48.4519547654655 ,49.4415333434938 ,66.6729204613371
17.8241627 ,Left ,48.481920900665 ,49.4355867865301 ,66.6790868217568
17.846711 ,Left ,48.5097194730855 ,49.43306763056 ,66.6776198175228
17.8690873 ,Left ,48.5166760415296 ,49.4334460210084 ,66.677669036186
17.8846881 ,Left ,48.5097723858363 ,49.4486454499908 ,66.6771281925313
17.906512 ,Left ,48.4827060136335 ,49.4754193165235 ,66.6745116425541
17.9291063 ,Left ,48.4709228272148 ,49.4982018965685 ,66.680389256398
17.9440489 ,Left ,48.5016136025599 ,49.5167743182994 ,66.6866575131214
17.9666053 ,Left ,48.5234658077491 ,49.5359798041052 ,66.6984843312538
17.9891579 ,Left ,48.5074141137795 ,49.5640901543759 ,66.7200690098249
18.0041507 ,Left ,48.4847321969207 ,49.5851364337057 ,66.749061976023
18.0266348 ,Left ,48.4388445204672 ,49.597453214936 ,66.7814402846955
18.0491226 ,Left ,48.3164569361463 ,49.6138790512975 ,66.814978208183
18.0641001 ,Left ,48.1292767495756 ,49.6281138339015 ,66.8541060740133
18.0866578 ,Left ,48.0197654892476 ,49.6561685783784 ,66.8955453944713
18.1090687 ,Left ,48.0516619096328 ,49.6707315208924 ,66.9271661017851
18.124144 ,Left ,48.1217665787199 ,49.6637487351814 ,66.933388927463
18.1466148 ,Left ,48.1849573936965 ,49.6560115422348 ,66.9330524527184
18.1691185 ,Left ,48.2133064851241 ,49.6395484148066 ,66.9400329235886
18.1840722 ,Left ,48.1976069671326 ,49.6183954043756 ,66.9619184600436
18.2065484 ,Left ,48.184317949905 ,49.5982010985166 ,66.9912460753713
18.2290192 ,Left ,48.2035821047814 ,49.5676817270111 ,67.0146808025667
18.2440063 ,Left ,48.2478370394508 ,49.5333846461685 ,67.0352053629324
18.2741191 ,Left ,48.2923600591439 ,49.5035090493485 ,67.0574864594962
18.2967601 ,Left ,48.3069430490617 ,49.484639062825 ,67.0855147746359
18.3115892 ,Left ,48.3022174802137 ,49.4864676864822 ,67.1124513597754
18.32658 ,Left ,48.330237313849 ,49.4933387568717 ,67.1333362988721
18.349042 ,Left ,48.376342061816 ,49.4959252160659 ,67.1492899910666
18.3665676 ,Left ,48.4180174476475 ,49.5051484968288 ,67.1512918310935
18.3864331 ,Left ,48.4524949549896 ,49.5205942117548 ,67.1441570679409
18.409002 ,Left ,48.4832091899015 ,49.533777194852 ,67.1399858773954
18.4239999 ,Left ,48.5047119332337 ,49.5497401291313 ,67.1249021456526
18.4468416 ,Left ,48.5159668910158 ,49.5672245521329 ,67.105254272594
18.4690565 ,Left ,48.5041317401407 ,49.5804305241722 ,67.0892067987669
18.4841442 ,Left ,48.4845342677795 ,49.58507380236 ,67.0828485246428
18.5065779 ,Left ,48.4678855055507 ,49.5836026756048 ,67.0813103899386
18.5290764 ,Left ,48.4661400884643 ,49.5847986039465 ,67.0859482874154
18.5439759 ,Left ,48.4841304624319 ,49.5812184035865 ,67.0918597731141
18.5664954 ,Left ,48.4956264881882 ,49.5748764313566 ,67.1054490141051
18.5891611 ,Left ,48.4794296091525 ,49.5713653288379 ,67.117855338673
18.6118573 ,Left ,48.4750057265182 ,49.5608425716347 ,67.1275005062479
18.6266331 ,Left ,48.4556836466565 ,49.5474029323755 ,67.1268579760098
18.6491104 ,Left ,48.4228891084568 ,49.5310856978974 ,67.1359787467871
18.6716019 ,Left ,48.4227992762675 ,49.5201197962323 ,67.1433681611012
18.6866724 ,Left ,48.4420320835237 ,49.4998031596545 ,67.1506791603615
18.7091308 ,Left ,48.4461406558996 ,49.4663590921386 ,67.1680289433631
18.7315704 ,Left ,48.4467623330266 ,49.423647989481 ,67.1887613271537
18.746763 ,Left ,48.4916828143424 ,49.3907382719838 ,67.2112809367432
18.7690975 ,Left ,48.5870649114569 ,49.3430387250064 ,67.2254538745712
18.7916161 ,Left ,48.5577900304508 ,49.3304305851014 ,67.2048751579393
18.8064682 ,Left ,48.4323822410485 ,49.3515743888177 ,67.1553399481196
18.8294946 ,Left ,48.4069667026801 ,49.3693399890912 ,67.1058901378289
18.851602 ,Left ,48.5229557522267 ,49.3444167248996 ,67.067338054838
18.8666574 ,Left ,48.55897427161 ,49.3153245691098 ,67.0402891121201
18.8891479 ,Left ,48.5239644158687 ,49.3020694448671 ,67.0407694471731
18.9040644 ,Left ,48.4598298139214 ,49.2973328200094 ,67.0462836622767
18.9188344 ,Left ,48.4327859758661 ,49.2975920505217 ,67.0475483469737
18.9413585 ,Left ,48.4790933273323 ,49.2944867320766 ,67.0344234519204
18.9791109 ,Left ,48.585152509179 ,49.2742700454567 ,67.023830844605
19.001576 ,Left ,48.4681886782415 ,49.2822852588517 ,67.0175257227444
19.0240342 ,Left ,48.3537517733544 ,49.3023125296407 ,67.0130498896046
19.0390203 ,Left ,48.3978237405328 ,49.29645447348 ,67.0114648838671
19.0616225 ,Left ,48.4913933412009 ,49.2700959461722 ,66.9968446712503
19.0841567 ,Left ,48.4941888568787 ,49.259401812523 ,66.9948523954099
19.0989469 ,Left ,48.4339338571601 ,49.2662785077321 ,67.0157841582615
19.1216391 ,Left ,48.4222371059372 ,49.2831879738075 ,67.0425496868677
19.1590982 ,Left ,48.473688108307 ,49.3220120676028 ,67.0170440007377
19.1814295 ,Left ,48.4801185936795 ,49.3472129422913 ,67.0062371039964
19.2191433 ,Left ,48.2967758468137 ,49.3816888947339 ,66.9702832654229
19.2415289 ,Left ,48.2592820293847 ,49.3844157854873 ,66.9403944393584
19.2789255 ,Left ,48.2021390872706 ,49.3804702787824 ,66.9098522857281
19.3099541 ,Left ,48.1249406029844 ,49.4147248570199 ,66.9162922502339
19.3540756 ,Left ,48.025310295926 ,49.4865999716518 ,66.9118156863199
19.3690275 ,Left ,48.0278482194516 ,49.510087094559 ,66.9119272739183
19.3996802 ,Left ,48.1043850375406 ,49.5770884900383 ,66.9375279412861
19.4214897 ,Left ,48.1195807966767 ,49.6281190528316 ,66.9175890724074
19.4590815 ,Left ,48.0164044051091 ,49.7387769433191 ,66.844960712136
19.4816069 ,Left ,47.9783488589855 ,49.7629695691577 ,66.8023110203193
19.5192098 ,Left ,48.0709309847643 ,49.7164857983856 ,66.6932812704804
19.5413571 ,Left ,48.0585329874307 ,49.7030059096796 ,66.645206465759
19.5788899 ,Left ,47.9410947901042 ,49.692147031716 ,66.5729047435906
19.6014272 ,Left ,47.9533401702031 ,49.6824813974392 ,66.5282304279394
19.6465519 ,Left ,48.080075250491 ,49.6604217069909 ,66.4205893473859
19.6690652 ,Left ,48.0588553927347 ,49.648324202211 ,66.3914905093427
19.6990883 ,Left ,48.0329768908239 ,49.5973251079052 ,66.3756743550828
19.7217522 ,Left ,47.9836171520583 ,49.553474736354 ,66.3746789349026
19.7589149 ,Left ,47.957542510766 ,49.4413430245083 ,66.3862249254888
19.7817442 ,Left ,47.9215217661697 ,49.4006699557408 ,66.4183721406947
19.8189839 ,Left ,47.8444121052183 ,49.3796047020551 ,66.5003037742582
19.8413572 ,Left ,47.8292587892614 ,49.4091692836609 ,66.5121482047695
19.8788288 ,Left ,48.1274591496465 ,49.4361374606768 ,66.5027869533783
19.9014369 ,Left ,48.3602380801244 ,49.4040189907909 ,66.4957126993455
19.9389439 ,Left ,48.2246491575063 ,49.408325956083 ,66.5695136415822
19.9615859 ,Left ,48.1563459743364 ,49.4280251229569 ,66.6792355850464
19.9990709 ,Left ,48.2119211886252 ,49.4218397646461 ,66.7531717731174
20.0216444 ,Left ,48.2829318867436 ,49.3956686030634 ,66.7380407308938
20.058828 ,Left ,48.1198198389588 ,49.457963482615 ,66.7217296477614
20.0814898 ,Left ,48.119119318936 ,49.5141822700283 ,66.7135744536787
20.1192035 ,Left ,48.3244289014382 ,49.5563024257314 ,66.6899541268165
20.141486 ,Left ,48.3976478046046 ,49.5595050751679 ,66.7021864674663
20.1865068 ,Left ,48.3604727111613 ,49.5707826539102 ,66.7774100096214
20.216512 ,Left ,48.3170859240688 ,49.5788857223877 ,66.796798116571
20.2690687 ,Left ,48.4261895685352 ,49.5806746459073 ,66.7964179927223
20.2991303 ,Left ,48.390916163849 ,49.5631848140772 ,66.8036022405238
20.3214591 ,Left ,48.3446443155597 ,49.5660544485334 ,66.8189051439624
20.3594659 ,Left ,48.3773107059795 ,49.5769204032841 ,66.8351272733916
20.3817463 ,Left ,48.4013040838522 ,49.5721724370518 ,66.8411627763991
20.4191644 ,Left ,48.4063186395777 ,49.5092466773619 ,66.8626855691665
20.441502 ,Left ,48.4270499134192 ,49.4681548013557 ,66.8681915420755
20.4940473 ,Left ,48.2807915289917 ,49.4116443165266 ,66.921666337103
20.5613972 ,Left ,48.2592121215279 ,49.4072924117867 ,66.8963036972222
20.5991557 ,Left ,48.1751264508144 ,49.3967463190813 ,66.9192250131742
20.621468 ,Left ,48.1405801901578 ,49.4088028570238 ,66.9386244783265
20.6516231 ,Left ,48.203972536965 ,49.4273637323176 ,66.9722643457733
20.6814699 ,Left ,48.2502869452909 ,49.4186319537419 ,66.9815424995602
20.7189349 ,Left ,48.212472615823 ,49.3820351713479 ,67.0313575611898
20.7417124 ,Left ,48.1893849077355 ,49.3329539317762 ,67.0448829510138
20.7790979 ,Left ,48.1103606024456 ,49.245585206542 ,67.0827721211083
20.7938718 ,Left ,48.0821220443956 ,49.2333228768244 ,67.0921341201368
20.8165684 ,Left ,48.0706760774958 ,49.2336231129571 ,67.097142259782
20.831877 ,Left ,48.0773497395628 ,49.234751043891 ,67.1103829933057
20.8541644 ,Left ,48.0834363691261 ,49.2271397798687 ,67.1218471824414
20.8765873 ,Left ,48.0612992252266 ,49.2184496255042 ,67.1397425625893
20.8914843 ,Left ,48.0410206389635 ,49.2135561913623 ,67.1639178267255
20.9215488 ,Left ,48.052073873954 ,49.2080619266796 ,67.1887089620198
20.9448266 ,Left ,48.0542013436946 ,49.2101180276793 ,67.2110479937554
20.9590967 ,Left ,48.0823517760102 ,49.21656869493 ,67.2222147044222
20.974086 ,Left ,48.1191906717167 ,49.2218865132415 ,67.2291268807827
20.9966495 ,Left ,48.1312041546098 ,49.2306222826685 ,67.2300587867935
21.0114658 ,Left ,48.1280180712422 ,49.2438620827467 ,67.2267017143502
21.0342366 ,Left ,48.1391604721179 ,49.2505156779142 ,67.2211659613479
21.0565606 ,Left ,48.1638135352182 ,49.2487845069792 ,67.2085844343414
21.0715996 ,Left ,48.1808391390813 ,49.2494872805895 ,67.1959368816738
21.0938734 ,Left ,48.183238176567 ,49.2569796824699 ,67.1930952367276
21.1165667 ,Left ,48.1815665680277 ,49.2579757683232 ,67.1931404240113
21.1315485 ,Left ,48.1788834578204 ,49.2573057759663 ,67.1933888833427
21.1541538 ,Left ,48.1854590121994 ,49.2485146747628 ,67.1843395722747
21.1766005 ,Left ,48.1778668564851 ,49.2391032945887 ,67.1789240287043
21.1917684 ,Left ,48.1300590592472 ,49.2315455540504 ,67.1821752405037
21.2139168 ,Left ,48.1052716632125 ,49.2169492034496 ,67.1847752883426
21.2369453 ,Left ,48.1044478467016 ,49.1858308926042 ,67.189456296849
21.2515708 ,Left ,48.075211864362 ,49.1541186987843 ,67.2073394507537
21.274062 ,Left ,48.0402501324921 ,49.1334798111867 ,67.2403832480531
21.2965775 ,Left ,48.0395292214323 ,49.1172616130963 ,67.2758955255528
21.3114313 ,Left ,48.0730980195229 ,49.0890497707657 ,67.3008470043227
21.3341378 ,Left ,48.116706078406 ,49.043017931632 ,67.3197727644349
21.3565683 ,Left ,48.1664585030155 ,48.9901835174602 ,67.3206559073139
21.371597 ,Left ,48.2342666809658 ,48.9397319486565 ,67.3110085222915
21.394117 ,Left ,48.2563890164426 ,48.8899848224287 ,67.3108677088243
21.4165802 ,Left ,48.2135293964429 ,48.8515799586859 ,67.2987886298737
21.4394437 ,Left ,48.0559471283098 ,48.8379348763629 ,67.2589350994895
21.4538656 ,Left ,47.9391104889584 ,48.8492381887167 ,67.2120652859723
21.4766353 ,Left ,48.0138866266525 ,48.8273876720155 ,67.1582433758623
21.4989003 ,Left ,48.123563253346 ,48.791647420927 ,67.1011081136971
21.5139627 ,Left ,48.1681793784343 ,48.7817672447855 ,67.0604693454578
21.5364701 ,Left ,48.1359465851676 ,48.7950285912536 ,67.0206621065124
21.5590981 ,Left ,48.0619114469935 ,48.8083786409518 ,66.9979707961779
21.57409 ,Left ,48.0150249110569 ,48.8212133465356 ,66.9713427395985
21.5966048 ,Left ,48.0040995377416 ,48.8269860198545 ,66.95087868025
21.619138 ,Left ,48.0809304785323 ,48.8110043385597 ,66.9442987479821
21.6341385 ,Left ,48.0795623291717 ,48.8000322238247 ,66.9367095575972
21.6643572 ,Left ,47.9998551054497 ,48.8060371158051 ,66.9328070984684
21.6866892 ,Left ,47.9954883897109 ,48.8063235797444 ,66.9331800681776
21.701564 ,Left ,48.0361271072262 ,48.7981138378446 ,66.9286393336379
21.7167583 ,Left ,48.0611936527154 ,48.7947855179414 ,66.929206423059
21.7389023 ,Left ,48.0590049117489 ,48.8014934771 ,66.9512863369156
21.7540195 ,Left ,48.0538034527597 ,48.8031762603854 ,66.9741217550641
21.7766528 ,Left ,48.0371698152067 ,48.8062777978623 ,66.9799344756835
21.7992876 ,Left ,48.0236806668032 ,48.8143426294494 ,66.982470233215
21.8151484 ,Left ,48.0456070841759 ,48.8176550651243 ,66.9868454367061
21.8365253 ,Left ,47.9974733093908 ,48.8487921118201 ,67.0016162787841
21.8590628 ,Left ,47.9135737549858 ,48.8873675572895 ,67.0088240024537
21.8738264 ,Left ,47.9083173854714 ,48.9180033093768 ,67.0206464548371
21.8966009 ,Left ,47.9507387368317 ,48.9248151025024 ,67.0212433987148
21.9190071 ,Left ,47.9769220036228 ,48.9100971111797 ,67.0386980746382
21.9341104 ,Left ,47.9649489274622 ,48.8984033021934 ,67.076816820503
21.9565338 ,Left ,47.9196197739484 ,48.8774299242288 ,67.1226295046044
21.9812452 ,Left ,47.9182516651399 ,48.8344793611883 ,67.1604043707749
21.9938595 ,Left ,47.9405790521407 ,48.7733214079561 ,67.1596547582138
22.0178546 ,Left ,47.9197548936483 ,48.7150393173273 ,67.1526716451453
22.0392403 ,Left ,47.8702338584849 ,48.6610666235807 ,67.1683975953317
22.0542213 ,Left ,47.7576695494231 ,48.6571462292815 ,67.157882188745
22.0764219 ,Left ,47.6540138250637 ,48.7056339023248 ,67.1188679371478
22.0998068 ,Left ,47.637551771437 ,48.7633930186847 ,67.0783175010775
22.1141168 ,Left ,47.7217092893108 ,48.8014742125963 ,67.0178098481172
22.1367039 ,Left ,47.8445000399094 ,48.8213246422042 ,66.9568774787437
22.1591309 ,Left ,47.9247520634383 ,48.8349511493175 ,66.8977014217926
22.181734 ,Left ,47.9079996553927 ,48.8541006297876 ,66.8494746227655
22.196706 ,Left ,47.8314734459828 ,48.8817087980883 ,66.823424335535
22.2190966 ,Left ,47.8549772468747 ,48.9026030954906 ,66.7931104707508
22.2415954 ,Left ,47.9083255627234 ,48.9095697364831 ,66.7345338304536
22.2565118 ,Left ,47.9132231874378 ,48.9205616325711 ,66.6928671080017
22.2789521 ,Left ,47.9293858849217 ,48.925814991922 ,66.6665206343001
22.2939353 ,Left ,47.9215360133671 ,48.9198602804092 ,66.6338102244843
22.3166151 ,Left ,47.8520876324121 ,48.9028382046269 ,66.6200593158621
22.3390892 ,Left ,47.8188766015664 ,48.8820125183774 ,66.6333540251971
22.3615803 ,Left ,47.8218734072506 ,48.8489776998927 ,66.6383823339916
22.3765769 ,Left ,47.8124464974104 ,48.8093219742076 ,66.6382138774145
22.406722 ,Left ,47.7819514201222 ,48.7779187023331 ,66.6525405577342
22.4290122 ,Left ,47.7359087699159 ,48.7352930399625 ,66.6667341096606
22.4441195 ,Left ,47.6240094226591 ,48.7428173998859 ,66.6597120467912
22.4591187 ,Left ,47.4512205962663 ,48.7746728364059 ,66.6619327232543
22.4815784 ,Left ,47.4289080081538 ,48.7943412305724 ,66.6616310771633
22.4964207 ,Left ,47.6706001462581 ,48.7515029839716 ,66.6458233784188
22.5191111 ,Left ,47.86908251239 ,48.696572715129 ,66.6598559220651
22.5418399 ,Left ,47.8596879265103 ,48.6777812963165 ,66.7252196188261
22.5567933 ,Left ,47.7915259462305 ,48.6901408714616 ,66.8215192692264
22.5790554 ,Left ,47.7661002160149 ,48.6863487460217 ,66.9123001144162
22.6021441 ,Left ,47.7925284288346 ,48.6779199196864 ,66.9697756547164
22.6170547 ,Left ,47.8561511906661 ,48.6601526972778 ,67.0020198311438
22.6391743 ,Left ,47.9381063086391 ,48.6537823411628 ,67.0322760486488
22.6616151 ,Left ,47.9363106644339 ,48.6419809436 ,67.0516167123015
22.6765095 ,Left ,47.8843047285158 ,48.689156289571 ,67.0627802868166
22.699069 ,Left ,47.8708593042701 ,48.7426575302446 ,67.0632768882428
22.7215275 ,Left ,47.9343132633298 ,48.7681627540464 ,67.0539264006841
22.7365306 ,Left ,48.0210481430725 ,48.7914589290642 ,67.0474831931689
22.7590827 ,Left ,48.0363543048355 ,48.8079915793896 ,67.0654844741166
22.7814973 ,Left ,48.0318466429132 ,48.8232173731677 ,67.0962796789957
22.7963912 ,Left ,48.0353642667819 ,48.8355174601756 ,67.1178770369829
22.8197571 ,Left ,48.0457564838404 ,48.845419398734 ,67.1181022734374
22.841543 ,Left ,48.0700357114669 ,48.8623687570826 ,67.110675170909
22.8565298 ,Left ,48.0869311923349 ,48.8811231101009 ,67.0945560197306
22.8790195 ,Left ,48.0940828078889 ,48.8991374068234 ,67.0810103180867
22.9015478 ,Left ,48.1041093043089 ,48.9109093871035 ,67.0703296786631
22.9165447 ,Left ,48.0980984111184 ,48.9300291470238 ,67.0599249368803
22.9390876 ,Left ,48.0883844133123 ,48.9691408952621 ,67.0464572924659
22.9616721 ,Left ,48.1021110973952 ,49.0057461547819 ,67.0312838467264
22.9766157 ,Left ,48.1326449548428 ,49.0371408718385 ,67.0224025069325
22.9990984 ,Left ,48.2812751900144 ,48.9995748952331 ,67.0360113958496
23.0216725 ,Left ,48.4377269858327 ,48.9254540433846 ,67.0471008536754
23.0372339 ,Left ,48.3940833462227 ,48.8627556028303 ,67.0407730549355
23.0591192 ,Left ,48.2341057618499 ,48.8487801038741 ,67.0435358253849
23.0831514 ,Left ,48.0795437304873 ,48.9022733717578 ,67.0568657978982
23.1042003 ,Left ,48.0429587238253 ,48.9322363844551 ,67.0907669728782
23.1190771 ,Left ,48.1854281689598 ,48.9409713620869 ,67.1032567614131
23.1416468 ,Left ,48.323377071307 ,48.9342078108786 ,67.1124716566608
23.1639262 ,Left ,48.3690669628486 ,48.925701965291 ,67.1330947586125
23.1790066 ,Left ,48.3504716637318 ,48.9257802876415 ,67.1407880984275
23.2014423 ,Left ,48.31341385802 ,48.9044340401845 ,67.1311851612596
23.231734 ,Left ,48.2809074899941 ,48.8710235271312 ,67.1156382129664
23.2464354 ,Left ,48.2115079633054 ,48.8710620438058 ,67.1045847132599
23.2700128 ,Left ,48.1658867618386 ,48.8663168346786 ,67.1012716106113
23.2848385 ,Left ,48.2431005730177 ,48.8134882631253 ,67.1002405715423
23.3003372 ,Left ,48.3147790760577 ,48.7437944575657 ,67.0976788203524
23.3214904 ,Left ,48.2675150396366 ,48.6974376865004 ,67.1188114830223
23.3440019 ,Left ,48.1816071390123 ,48.6811701032157 ,67.1374853826317
23.3588574 ,Left ,48.1320672758728 ,48.6743569696616 ,67.1396828820906
23.381678 ,Left ,48.1339650416283 ,48.6633570129403 ,67.117928126004
23.4040507 ,Left ,48.1794576593156 ,48.6491464387006 ,67.0929145852151
23.4190466 ,Left ,48.2063704384599 ,48.6444534150504 ,67.0888083987168
23.4415626 ,Left ,48.1744978555317 ,48.6550972243285 ,67.115418304457
23.4731166 ,Left ,48.1301883020952 ,48.6643819493218 ,67.1449677478262
23.4867846 ,Left ,48.1200999206543 ,48.6734125262712 ,67.1702224301868
23.5091164 ,Left ,48.1603120581469 ,48.6703167848148 ,67.1831964213301
23.524178 ,Left ,48.2108610955253 ,48.6769330142943 ,67.196911224972
23.5391061 ,Left ,48.2370136499415 ,48.6891891288789 ,67.2190962301411
23.5615887 ,Left ,48.2645267970212 ,48.6961944822812 ,67.2412371116188
23.5840719 ,Left ,48.2828401866619 ,48.701371175522 ,67.250956417119
23.5991485 ,Left ,48.2863728987304 ,48.6991523886401 ,67.2462151995492
23.6215621 ,Left ,48.2958856004214 ,48.6954838213356 ,67.2415322368079
23.6441469 ,Left ,48.3188426693263 ,48.6951685264265 ,67.2353799603472
23.6596365 ,Left ,48.340900103685 ,48.6931458676277 ,67.2269302635874
23.6815479 ,Left ,48.3541486289307 ,48.6985801090794 ,67.2139733385604
23.7040479 ,Left ,48.3501865917482 ,48.7144642290625 ,67.213383133354
23.7190893 ,Left ,48.3208253091485 ,48.7298758727159 ,67.2141008647722
23.7415539 ,Left ,48.3006080841366 ,48.7372936158775 ,67.2105643822136
23.7641439 ,Left ,48.290655337887 ,48.7431083527908 ,67.2088255071413
23.7865285 ,Left ,48.2723307326299 ,48.7541977943517 ,67.2089755151584
23.8091262 ,Left ,48.2289754962698 ,48.7621352401054 ,67.2162084669579
23.8314192 ,Left ,48.1845643940627 ,48.7620072614442 ,67.2331012728094
23.8465226 ,Left ,48.1541820751467 ,48.7627788193131 ,67.2508065601846
23.861608 ,Left ,48.1081248368827 ,48.7505876966015 ,67.2825335652675
23.8864963 ,Left ,48.1195784274849 ,48.7174012778584 ,67.3166025936513
23.9000151 ,Left ,48.152234992766 ,48.6591326170127 ,67.3186455976462
23.9215564 ,Left ,48.1652951888389 ,48.5990562883392 ,67.3248019687091
23.9440459 ,Left ,48.2094137000723 ,48.566286543944 ,67.3490772508452
23.9591242 ,Left ,48.2181036093466 ,48.5359017916954 ,67.3511680984196
23.9817099 ,Left ,48.104046045905 ,48.5308496134259 ,67.3174772259419
24.0041333 ,Left ,48.0406843838304 ,48.5335948967647 ,67.279207780234
24.0265755 ,Left ,48.1059930393959 ,48.5109571710227 ,67.2305166759423
24.0415619 ,Left ,48.1644001363053 ,48.4653495186112 ,67.1798113019536
24.0641055 ,Left ,48.1804073095935 ,48.4505149927143 ,67.1524496037136
24.0865429 ,Left ,48.0912422382567 ,48.4670338134321 ,67.1448755981433
24.1015759 ,Left ,48.0117223288701 ,48.5055787428331 ,67.15264200179
24.1240765 ,Left ,47.9941924559097 ,48.5297793780972 ,67.1565354499501
24.1390863 ,Left ,48.0484695501607 ,48.5242837628262 ,67.1458645134272
24.1615123 ,Left ,48.0599733290396 ,48.5356789869085 ,67.1435726824105
24.1841707 ,Left ,47.9998307932867 ,48.5486276248125 ,67.1431674185167
24.1992225 ,Left ,47.9666814165252 ,48.5569584691213 ,67.1380364407667
24.2216166 ,Left ,47.9971416609045 ,48.554493966598 ,67.1361374182229
24.2442074 ,Left ,48.0205092794673 ,48.5473472126295 ,67.1299218126291
24.2664701 ,Left ,48.0286745029507 ,48.5472901755428 ,67.1408814307685
24.2817536 ,Left ,48.0403937002626 ,48.5499688741572 ,67.1553845240017
24.3041036 ,Left ,48.0294595944268 ,48.547646924947 ,67.1608706307154
24.3416882 ,Left ,48.0032280997629 ,48.5383401218114 ,67.1639856724689
24.3564034 ,Left ,48.0406140863892 ,48.5478076762751 ,67.1648183031801
24.4013629 ,Left ,47.7880809339042 ,48.7232958246975 ,67.1604798678807
24.4240391 ,Left ,47.8763946388386 ,48.7310079953971 ,67.1342779444511
24.4464037 ,Left ,47.9383362748613 ,48.7295666999198 ,67.1138536776022
24.4615597 ,Left ,47.8810324080215 ,48.7365261241413 ,67.1177904347276
24.4839615 ,Left ,47.7167234880961 ,48.7553622515652 ,67.1315269574965
24.5139251 ,Left ,47.5537073222661 ,48.7740647363258 ,67.1544920008604
24.529125 ,Left ,47.4960207440523 ,48.7856695891992 ,67.1944929663128
24.5516319 ,Left ,47.5351688264735 ,48.7914699888438 ,67.2292660426785
24.5667501 ,Left ,47.5778494428299 ,48.7871651929754 ,67.2850487525919
24.5818746 ,Left ,47.5927996785555 ,48.8215052597315 ,67.3282543476891
24.6039927 ,Left ,47.577459232105 ,48.8852075598066 ,67.3208947268029
24.6339353 ,Left ,47.5038449473903 ,48.9754956607478 ,67.2475045972422
24.6489925 ,Left ,47.4753028660383 ,49.0428092098677 ,67.1725961573425
24.6713603 ,Left ,47.5057056835916 ,49.0720039631748 ,67.0928149020223
24.6790826 ,Left ,47.4919743702284 ,49.0952473380278 ,67.0080303433434
24.6939984 ,Left ,47.4631874620961 ,49.1100894681273 ,66.9361045971048
24.720172 ,Left ,47.4131312858741 ,49.1285406036006 ,66.8751651414695
24.7538535 ,Left ,47.2772308183696 ,49.1434050018772 ,66.7597558925416
24.776361 ,Left ,47.2908244542801 ,49.1360962236932 ,66.7031535492183
24.8138262 ,Left ,47.3481365254413 ,49.0725307587456 ,66.6198562063264
24.8366126 ,Left ,47.3372386776254 ,49.0341103427688 ,66.590705063
24.8740696 ,Left ,47.2584764306581 ,48.9445227112425 ,66.5660277184412
24.9042025 ,Left ,47.2546024931662 ,48.8789915829124 ,66.5644121967686
24.9415045 ,Left ,47.1839370012098 ,48.7577677444951 ,66.5747667265428
24.9564597 ,Left ,47.0291641700256 ,48.6765849665058 ,66.6004858251712
24.9789898 ,Left ,46.8480856763279 ,48.640819257466 ,66.6088237958687
24.9938356 ,Left ,46.8390667821149 ,48.6119510150912 ,66.5774066373273
25.0165556 ,Left ,47.0181246161485 ,48.5834633237122 ,66.5314802915402
25.0390739 ,Left ,47.1904007661576 ,48.5581118843868 ,66.5018135886543
25.0539513 ,Left ,47.2496456076474 ,48.546201466143 ,66.4910535757148
25.07655 ,Left ,47.2200435563393 ,48.5517421080627 ,66.5293177675931
25.0990768 ,Left ,47.1448097604039 ,48.5765203780733 ,66.5961792417934
25.1139059 ,Left ,47.1136273675683 ,48.6128231610193 ,66.671475707151
25.1369478 ,Left ,47.1927202094995 ,48.6402020529676 ,66.7173132915774
25.1813203 ,Left ,47.381939321967 ,48.6211936216188 ,66.7919981168538
25.2040806 ,Left ,47.331303231863 ,48.620888557594 ,66.8259916588575
25.2340338 ,Left ,47.2692173568694 ,48.7266317351417 ,66.8515351005238
25.2565394 ,Left ,47.4228901316334 ,48.7500839596809 ,66.8516573230786
25.2789248 ,Left ,47.5874637402424 ,48.7650318658025 ,66.8494808446457
25.2939391 ,Left ,47.6227313485891 ,48.7818374122325 ,66.8694828061501
25.3166573 ,Left ,47.6066111001515 ,48.8024933262095 ,66.9118254441376
25.3391327 ,Left ,47.6030617175755 ,48.8084737711815 ,66.9432460820575
25.356101 ,Left ,47.6269566022586 ,48.8087653450701 ,66.9570964061189
25.3764837 ,Left ,47.6671289685522 ,48.8078023886731 ,66.9561224725792
25.4143815 ,Left ,47.7543833403304 ,48.8063577080501 ,66.9560941239134
25.4366012 ,Left ,47.7539180640006 ,48.807374895515 ,66.9693724731417
25.4739904 ,Left ,47.7157554518415 ,48.8312237810902 ,67.0024118276395
25.4965072 ,Left ,47.7478702722663 ,48.8447195970681 ,67.0116914011809
25.5351201 ,Left ,47.8373539100848 ,48.854365392503 ,67.0403328201563
25.5565416 ,Left ,47.879941417155 ,48.8593362625254 ,67.05472211791
25.5938316 ,Left ,48.0208358961308 ,48.8419509238438 ,67.059094165064
25.6165042 ,Left ,48.0828377382637 ,48.8276087111774 ,67.0537084779741
25.6538728 ,Left ,48.0644384197719 ,48.8272718611968 ,67.0549247417166
25.6763391 ,Left ,48.0635876002525 ,48.8350245094258 ,67.0681070250763
25.7137922 ,Left ,48.0704900705508 ,48.8469835413 ,67.0709988828865
25.7364079 ,Left ,48.0553530030416 ,48.8609140969159 ,67.0823568392296
25.7890976 ,Left ,48.0227076073849 ,48.9103295978187 ,67.096613261317
25.8341088 ,Left ,48.0688908751505 ,48.9431933531728 ,67.0725451448955
25.8563563 ,Left ,48.0532972496966 ,48.9609849418354 ,67.0584641487368
25.8939294 ,Left ,48.2024329898706 ,48.9319355824177 ,67.0051744031829
25.9164344 ,Left ,48.2928142485708 ,48.8816046653238 ,66.9650141262518
25.9578179 ,Left ,48.144572083483 ,48.8409304519765 ,66.9332203095756
25.9765561 ,Left ,48.1398855850044 ,48.8306722026649 ,66.945342404988
26.014008 ,Left ,48.2206214822327 ,48.8295724897228 ,66.9757155959224
26.0364206 ,Left ,48.2630516326697 ,48.8393761344347 ,67.001408563893
26.0739609 ,Left ,48.2357929106018 ,48.8591240529298 ,67.0424979571566
26.0962148 ,Left ,48.2261768063315 ,48.8675917123677 ,67.0584658198088
26.134074 ,Left ,48.1927434108677 ,48.8956653659898 ,67.0968774789393
26.1565031 ,Left ,48.1460564996331 ,48.9102604223707 ,67.1129248147875
26.1943031 ,Left ,48.0586829612582 ,48.943768783345 ,67.1592309114865
26.2165891 ,Left ,48.0556092367169 ,48.9488110470381 ,67.181695630714
26.2540204 ,Left ,48.0173136212374 ,48.9904437304001 ,67.2442137478045
26.2840743 ,Left ,48.0314039017943 ,49.0111227905875 ,67.2870371175929
26.3213369 ,Left ,48.066839361687 ,49.0371817380047 ,67.3327764974374
26.3363883 ,Left ,48.0718770661502 ,49.0391867858835 ,67.3435613088966
26.3755659 ,Left ,48.0068824833148 ,49.0133600717247 ,67.3660190295097
26.3962825 ,Left ,47.9808006299159 ,48.9859195512526 ,67.3703135243963
26.4341531 ,Left ,47.9702629419504 ,48.905923128094 ,67.3777587670822
26.4565189 ,Left ,47.9749124112848 ,48.8511160531458 ,67.3862692028837
26.4940099 ,Left ,47.9632729372096 ,48.7380319610867 ,67.4109250591285
26.516534 ,Left ,47.9564828773248 ,48.6880483166017 ,67.4270661803381
26.5465969 ,Left ,47.9363834819991 ,48.5888741050573 ,67.3239285771647
26.5691378 ,Left ,47.7717977428651 ,48.5911487272475 ,67.2445163585131
26.5915292 ,Left ,47.7693796299857 ,48.5785376437551 ,67.1848075798058
26.606553 ,Left ,47.8523517296302 ,48.5508434669996 ,67.1079291767061
26.6290055 ,Left ,47.8943287607241 ,48.5441010700605 ,67.0457455831082
26.6515898 ,Left ,47.8917394201955 ,48.5531987135897 ,67.0066037801142
26.6679157 ,Left ,47.8651476232374 ,48.5652672474931 ,66.9788421559507
26.6890572 ,Left ,47.8428817797949 ,48.5660152004468 ,66.9534785150371
26.7113778 ,Left ,47.7704652738583 ,48.5781744090444 ,66.9337561853383
26.7263608 ,Left ,47.7616201309777 ,48.564704554272 ,66.9173281007728
26.7489904 ,Left ,47.7753194104833 ,48.5515113457671 ,66.9040050888664
26.7715623 ,Left ,47.7237290556773 ,48.5315194746984 ,66.8944922268939
26.7865555 ,Left ,47.6568454781495 ,48.5412948659611 ,66.8997179412858
26.8090187 ,Left ,47.674895366923 ,48.5489366227144 ,66.8994238380713
26.838805 ,Left ,47.7306080699926 ,48.5498294390042 ,66.8875983581173
26.8541078 ,Left ,47.7453519019539 ,48.5478750727136 ,66.8866987741626
26.8764918 ,Left ,47.722383004334 ,48.5511138814068 ,66.91334469482
26.9065657 ,Left ,47.7171440487524 ,48.5238114463218 ,66.9435814492547
26.9291316 ,Left ,47.7284555409305 ,48.5226143336977 ,66.9604237955747
26.9515653 ,Left ,47.7194459421418 ,48.5510845895097 ,66.9720232289082
26.9666102 ,Left ,47.6152746869597 ,48.6077891299773 ,66.9709466955864
26.9891893 ,Left ,47.5470371454642 ,48.6746210131591 ,66.9636624573529
27.0116975 ,Left ,47.6294038665207 ,48.7113722382719 ,66.9413970857077
27.0341334 ,Left ,47.7038375201432 ,48.7342739495057 ,66.9151620237679
27.0488723 ,Left ,47.6473484449984 ,48.7490042813028 ,66.9117882104327
27.0715129 ,Left ,47.5407041705931 ,48.7792676031936 ,66.9423160383371
27.0939584 ,Left ,47.4753698983139 ,48.8051791486368 ,66.9608195711808
27.1165703 ,Left ,47.452574166831 ,48.7935285247423 ,66.9620154462641
27.1388474 ,Left ,47.5192379707871 ,48.7726380192206 ,66.9627858452629
27.1617629 ,Left ,47.6155557715892 ,48.7022963268648 ,66.9617704044849
27.1764583 ,Left ,47.5862779391296 ,48.6732268974368 ,66.9446548863925
27.1916842 ,Left ,47.4859897105802 ,48.6970466056992 ,66.8829800905523
27.2139489 ,Left ,47.4147908121374 ,48.7619614698034 ,66.817030142865
27.2290013 ,Left ,47.4485057772186 ,48.8065009993083 ,66.7532126931134
27.2514471 ,Left ,47.5559931228055 ,48.8308390199141 ,66.68568432099
27.2739973 ,Left ,47.6326358198694 ,48.8626084255785 ,66.6317496890454
27.2902548 ,Left ,47.6333672000442 ,48.8942257789579 ,66.5969443611349
27.3115295 ,Left ,47.6134365829131 ,48.9159141993302 ,66.580930807623
27.3340968 ,Left ,47.6358500425162 ,48.9183032972471 ,66.5698614917924
27.3491451 ,Left ,47.6563192495137 ,48.917113208394 ,66.5573224758654
27.3715849 ,Left ,47.658076092018 ,48.9221997767161 ,66.5429830342607
27.3940784 ,Left ,47.6475532099349 ,48.92975888619 ,66.5320826309545
27.4090644 ,Left ,47.6429988837771 ,48.9267357231403 ,66.5100968883729
27.4314808 ,Left ,47.6474472256189 ,48.9115009418376 ,66.4844331621536
27.4541304 ,Left ,47.6879552155723 ,48.8897012016361 ,66.465528207226
27.4690878 ,Left ,47.7098101900342 ,48.8629245355655 ,66.4484675307853
27.4913966 ,Left ,47.664049268096 ,48.8417018402152 ,66.4496364197302
27.5139325 ,Left ,47.6371414262406 ,48.8133676883954 ,66.4720318119352
27.5290201 ,Left ,47.6433627612966 ,48.7884724103877 ,66.4967529581104
27.5514197 ,Left ,47.619916074811 ,48.7712912158467 ,66.5536629795379
27.5746776 ,Left ,47.6298814762657 ,48.7423514699294 ,66.5851124107277
27.5891419 ,Left ,47.6292898656584 ,48.7166796301852 ,66.6031988993589
27.6114937 ,Left ,47.604972975971 ,48.7169730006264 ,66.6006721683943
27.6340188 ,Left ,47.6179239908945 ,48.7700199271804 ,66.5970177867397
27.6490876 ,Left ,47.728759654389 ,48.8004324997771 ,66.5804809744505
27.6789024 ,Left ,47.8682657165536 ,48.80954517245 ,66.5552824060799
27.7089503 ,Left ,47.9576637108491 ,48.8136415380039 ,66.5302546739464
27.7239019 ,Left ,47.8688795656863 ,48.8337518209809 ,66.5533116707306
27.7395209 ,Left ,47.8087803672908 ,48.8669435751612 ,66.6221135829475
27.7541888 ,Left ,47.8337488235979 ,48.8885412768806 ,66.6653016896354
27.7690382 ,Left ,47.9062750700572 ,48.8720230564682 ,66.6798598393795
27.7915838 ,Left ,48.0004496547394 ,48.8388125682335 ,66.6956982745553
27.8141741 ,Left ,48.0600036711858 ,48.7992208481038 ,66.7351511667768
27.8291353 ,Left ,48.0485760229118 ,48.8023706047375 ,66.7628489748017
27.8515718 ,Left ,48.0041441627925 ,48.857501029177 ,66.7637440882167
27.8741049 ,Left ,48.062608183987 ,48.9069052695064 ,66.7575082572187
27.8890055 ,Left ,48.2427220066339 ,48.9167611605744 ,66.7402231182413
27.911432 ,Left ,48.3962204425875 ,48.9133828056654 ,66.7347585627367
27.9340019 ,Left ,48.4047247307703 ,48.9225758244432 ,66.7562260950705
27.9640846 ,Left ,48.3033424993177 ,48.9374392129216 ,66.7885131418863
27.9790851 ,Left ,48.2399429597018 ,48.943559384917 ,66.8150308478511
28.0186864 ,Left ,48.2776046524574 ,48.9401603783245 ,66.8285518365168
28.0315459 ,Left ,48.307694368275 ,48.9387369905751 ,66.8379627238753
28.0539878 ,Left ,48.3227020618484 ,48.9462057302545 ,66.8473932097159
28.0839685 ,Left ,48.3104140997372 ,48.9491026772379 ,66.8547659732159
28.0990653 ,Left ,48.308732815561 ,48.9500813114514 ,66.8548186458723
28.1213423 ,Left ,48.3198216412062 ,48.9394972330475 ,66.8660356691996
28.1515717 ,Left ,48.3398721638449 ,48.9261705916522 ,66.8884719604488
28.1742029 ,Left ,48.3300401964066 ,48.9189889653835 ,66.9051969016559
28.1965212 ,Left ,48.3024405034961 ,48.9134107369597 ,66.9324125411674
28.211589 ,Left ,48.2949681385365 ,48.9185626366885 ,66.9550928159646
28.2340865 ,Left ,48.316488439605 ,48.9221516416127 ,66.9693939830001
28.2566252 ,Left ,48.3397583755524 ,48.9135116461613 ,66.9841141314895
28.2714932 ,Left ,48.3405023409719 ,48.9043952914405 ,66.9935373122925
28.2940749 ,Left ,48.3079381312767 ,48.903292732429 ,66.9983040024919
28.3165676 ,Left ,48.2679906701294 ,48.9090813462704 ,67.0047326611589
28.3316138 ,Left ,48.2495037394121 ,48.9135622790305 ,67.0171382327976
28.3540185 ,Left ,48.2517472210853 ,48.9147627264589 ,67.0285920950678
28.3765724 ,Left ,48.2323086145254 ,48.9242348723182 ,67.0309929705783
28.3940821 ,Left ,48.1889174276398 ,48.9369189114326 ,67.0489137168239
28.4140554 ,Left ,48.1611364122915 ,48.9496494532007 ,67.0701694549958
28.4365756 ,Left ,48.1629942129345 ,48.9532329976249 ,67.0743154824873
28.4516362 ,Left ,48.2072377543659 ,48.9472111151638 ,67.0695656895522
28.4814601 ,Left ,48.2432497428543 ,48.9345871671578 ,67.0614687234011
28.5040328 ,Left ,48.2715049958514 ,48.9244296691333 ,67.0558803972386
28.5190843 ,Left ,48.2734527229383 ,48.9231586734593 ,67.0486888394683
28.541553 ,Left ,48.2630618577034 ,48.9247566279154 ,67.0493967758542
28.5565493 ,Left ,48.2630618577034 ,48.9247566279154 ,67.0493967758542
28.5715926 ,Left ,48.2693633917201 ,48.9229020726943 ,67.040289254506
28.5942192 ,Left ,48.2674511139125 ,48.9147124504184 ,67.0293887017033
28.6166038 ,Left ,48.2575570763517 ,48.9090811085529 ,67.0260650969036
28.6314907 ,Left ,48.2422445895907 ,48.9022446070839 ,67.0253684853248
28.6540821 ,Left ,48.2011697386516 ,48.9016602792942 ,67.025831948765
28.6763211 ,Left ,48.159426241248 ,48.9085493337606 ,67.0349539694879
28.6915354 ,Left ,48.1412127515811 ,48.9127759231815 ,67.0402701782672
28.7140557 ,Left ,48.1335601013229 ,48.919696025117 ,67.0474479426294
28.7366018 ,Left ,48.1143709579917 ,48.9384134975761 ,67.0607893252568
28.7515136 ,Left ,48.0821603634097 ,48.9631984304709 ,67.0855424155641
28.7816051 ,Left ,48.0670921970075 ,48.9869885795426 ,67.1165519512753
28.8039977 ,Left ,48.0619078373029 ,49.0002615222681 ,67.1430632496901
28.8193573 ,Left ,48.0585686321203 ,49.0122928182305 ,67.1649284332521
28.8415606 ,Left ,48.0771648333938 ,49.0221672685791 ,67.1789106718175
28.856631 ,Left ,48.1138456637701 ,49.0230635230981 ,67.1808729824289
28.8715404 ,Left ,48.1155178471407 ,49.0220684237761 ,67.1808209122245
28.8940309 ,Left ,48.078179314576 ,49.0238350313302 ,67.1786809823863
28.9165594 ,Left ,48.0539155159078 ,49.0246291097792 ,67.1755621277817
28.9314826 ,Left ,48.0529009458403 ,49.0229613521405 ,67.1757936859155
28.9539176 ,Left ,48.0504062638542 ,49.0218488741268 ,67.1693950986703
28.9764931 ,Left ,48.0690531117507 ,49.0217994516692 ,67.1611333212168
28.9991544 ,Left ,48.1177250183664 ,49.0264783859874 ,67.1529896285546
29.0140733 ,Left ,48.1823171949443 ,49.046685563143 ,67.1474291667091
29.0370025 ,Left ,48.2630419952974 ,49.0757485251868 ,67.1493632704157
29.0590014 ,Left ,48.3210165906993 ,49.0984244584297 ,67.1646810696506
29.0741121 ,Left ,48.315973953356 ,49.1164224374902 ,67.2022722252661
29.0965856 ,Left ,48.2711307467858 ,49.1176331013148 ,67.2432615402311
29.1188702 ,Left ,48.2311002928767 ,49.1046926037781 ,67.2876624513333
29.1350908 ,Left ,48.2256608971386 ,49.084377511834 ,67.3233682363406
29.1565846 ,Left ,48.2945949746343 ,49.0616375825816 ,67.3460824843333
29.1790585 ,Left ,48.3778828973467 ,49.0341813841883 ,67.3470207339732
29.1940756 ,Left ,48.4239251644379 ,48.9904377894684 ,67.3494971201489
29.2166234 ,Left ,48.3803984367761 ,48.9662309973256 ,67.3382366679626
29.2391211 ,Left ,48.2259610637488 ,48.9693764139126 ,67.2952759055429
29.2541317 ,Left ,48.1089575468529 ,48.9744934821401 ,67.2577127263564
29.2765676 ,Left ,48.17131595134 ,48.9490994685946 ,67.2169443959482
29.2990759 ,Left ,48.2763335444146 ,48.9188009387172 ,67.1711008495963
29.3141147 ,Left ,48.3419210694141 ,48.9084089611767 ,67.1470425916778
29.351519 ,Left ,48.3368696908815 ,48.9178492742511 ,67.1378944917646
29.3740789 ,Left ,48.3071277549397 ,48.9125760058083 ,67.1289370521022
29.3888522 ,Left ,48.2733846905124 ,48.8974155378872 ,67.0914179537082
29.4038828 ,Left ,48.2831662700859 ,48.8611249970762 ,67.0618766831036
29.4190963 ,Left ,48.2756928482354 ,48.8130132173201 ,67.0502693298589
29.4361876 ,Left ,48.1376470630607 ,48.7857755519385 ,67.0464526328289
29.4564651 ,Left ,48.0530108461551 ,48.7786761667886 ,67.0328645645104
29.4795263 ,Left ,48.1478785358666 ,48.760395984205 ,67.0089650967229
29.4939779 ,Left ,48.2145997576805 ,48.735846061195 ,66.9790616629161
29.5238669 ,Left ,48.1457664246759 ,48.7265540541052 ,66.9805375451872
29.5463436 ,Left ,48.0688538022744 ,48.7412831694665 ,67.0073310872552
29.5615383 ,Left ,48.0391762944817 ,48.7549184740216 ,67.0292525571061
29.576616 ,Left ,48.0508762874074 ,48.7595325950833 ,67.0298101508824
29.5989149 ,Left ,48.125257406715 ,48.763041198279 ,67.0312298295273
29.6216016 ,Left ,48.1523296892789 ,48.7904565300513 ,67.0380468607751
29.6440662 ,Left ,48.0220768373351 ,48.843174936879 ,67.0521843791543
29.6740369 ,Left ,47.9651749793649 ,48.8995376212318 ,67.0515695546772
29.6964926 ,Left ,48.0018292287997 ,48.9182728706027 ,67.0428675170278
29.7263776 ,Left ,47.9944836073026 ,48.9410646535652 ,67.0506320263949
29.7490314 ,Left ,47.9725524034441 ,48.9982496368106 ,67.0745185387617
29.7640358 ,Left ,47.9876724829684 ,49.0669541571967 ,67.0884940033432
29.7791129 ,Left ,48.0367713670419 ,49.1539298904452 ,67.0962859275408
29.8014996 ,Left ,48.0882843247202 ,49.2307236681314 ,67.1144892116452
29.8166598 ,Left ,48.1650817909207 ,49.285711883742 ,67.1381076999505
29.8391546 ,Left ,48.1775961348285 ,49.3271341035851 ,67.1139532176567
29.8615413 ,Left ,48.0920812334405 ,49.407714966766 ,67.0723734489052
29.8766566 ,Left ,48.0470692192939 ,49.4791255070566 ,67.0152715410594
29.8990533 ,Left ,48.1285503568999 ,49.5111000066378 ,66.9406676276728
29.921513 ,Left ,48.229427044703 ,49.5113120084817 ,66.8638985996053
29.936638 ,Left ,48.2217885013373 ,49.5081492925972 ,66.7967887702179
29.9590946 ,Left ,48.1544557327579 ,49.5045925634945 ,66.7505688477303
29.9815667 ,Left ,48.102557793274 ,49.4854607756911 ,66.7117312100441
29.9964561 ,Left ,48.1014007420952 ,49.4525210453605 ,66.6690425190984
30.0191425 ,Left ,48.1016747724326 ,49.4249929697897 ,66.6172852397895
30.0415543 ,Left ,48.0930064082543 ,49.409854671504 ,66.5739415075006
30.0567017 ,Left ,48.1049908704276 ,49.3972501699497 ,66.549735408294
30.0790953 ,Left ,48.1299037120587 ,49.3689004247006 ,66.5344545919607
30.1017814 ,Left ,48.1020631038714 ,49.3456241767967 ,66.5129526780354
30.1165957 ,Left ,48.0239341040923 ,49.3337666782141 ,66.5070033315205
30.1390566 ,Left ,47.9927741650332 ,49.311636037694 ,66.5172206323026
30.1689916 ,Left ,48.0122762395107 ,49.2712927226821 ,66.5170040761344
30.1842994 ,Left ,47.9956736185908 ,49.2270773333434 ,66.5214684832018
30.2063356 ,Left ,47.9675156573531 ,49.1942083651722 ,66.5275561815309
30.236627 ,Left ,47.846673249561 ,49.0871435575484 ,66.5128828297044
30.2665957 ,Left ,47.7074412193635 ,49.0956198052979 ,66.490143672042
30.2891069 ,Left ,47.7245694770615 ,49.0961181695304 ,66.4733721203629
30.3040413 ,Left ,47.9135939637219 ,49.043629603059 ,66.446913084715
30.3190876 ,Left ,48.0887873900223 ,48.9837971654008 ,66.4292286842471
30.3416496 ,Left ,48.0697198419725 ,48.9701974002165 ,66.4310582117608
30.356585 ,Left ,47.9661249495821 ,48.9798324069681 ,66.4890658582014
30.3789703 ,Left ,47.9298389077868 ,48.9896299402657 ,66.544445551681
30.4013953 ,Left ,47.9988435102975 ,48.9968171997671 ,66.5792818821161
30.4165016 ,Left ,48.0977090305422 ,48.9773184413879 ,66.6105360825291
30.4465947 ,Left ,48.1294485123323 ,48.951923177014 ,66.65522013803
30.4615683 ,Left ,48.0374931792574 ,48.9536369229075 ,66.6680272138206
30.4765764 ,Left ,47.9428816703678 ,49.0308101030562 ,66.6677660403532
30.5140597 ,Left ,48.1254554271197 ,49.0859368010517 ,66.6293503782907
30.5287728 ,Left ,48.2312718089138 ,49.0901673146942 ,66.62723989308
30.5517946 ,Left ,48.2417638604477 ,49.1032075305572 ,66.6522894231668
30.5738645 ,Left ,48.1945200940099 ,49.1023104731854 ,66.6823915323648
30.5888552 ,Left ,48.1476390954211 ,49.100934655034 ,66.7009401001825
30.6115625 ,Left ,48.1188619642975 ,49.1018745922987 ,66.7026519683792
30.6341632 ,Left ,48.1428657541705 ,49.1081787658994 ,66.7007161407951
30.6490644 ,Left ,48.1974765530314 ,49.1171517579523 ,66.7012781309198
30.6791555 ,Left ,48.2286576437733 ,49.1284815810414 ,66.7030507130174
30.7016069 ,Left ,48.2233084049849 ,49.1431161977838 ,66.7089111000718
30.7166785 ,Left ,48.1783471420798 ,49.1512883423996 ,66.7132259357888
30.7312387 ,Left ,48.1500169418987 ,49.1500772242844 ,66.7241500176957
30.7539892 ,Left ,48.1485771130264 ,49.1444811271446 ,66.7313349442268
30.7764297 ,Left ,48.1478311160571 ,49.1362329101778 ,66.7386852431303
30.7992799 ,Left ,48.1391835630575 ,49.1306146985954 ,66.7530608525082
30.828872 ,Left ,48.1073609675569 ,49.1352552025811 ,66.8025032655865
30.8513966 ,Left ,48.1290743840561 ,49.1541537292492 ,66.8487253549006
30.8890592 ,Left ,48.1378490277092 ,49.2730955954425 ,67.0471956907461
30.9113836 ,Left ,48.2087124873436 ,49.3704004480702 ,67.226906951065
30.9338309 ,Left ,48.3734710224556 ,49.457037786313 ,67.4335824658803
30.9489217 ,Left ,48.5573434211161 ,49.518466397263 ,67.6317545929763
30.9723393 ,Left ,48.6637308647566 ,49.5563815491111 ,67.7874028872464
30.9937891 ,Left ,48.6715768299514 ,49.5757864985331 ,67.8961687034656
31.0088554 ,Left ,48.6591063006203 ,49.5673188578259 ,67.9593560302296
31.0312823 ,Left ,48.6532719677492 ,49.5367208857477 ,67.9656187130784
31.0540315 ,Left ,48.6304761918926 ,49.4946687070539 ,67.9297851065865
31.0690475 ,Left ,48.5641502538772 ,49.4532591655634 ,67.8525073693033
31.0913637 ,Left ,48.3570456613963 ,49.4241658103533 ,67.7265220767005
31.1141213 ,Left ,48.042470872277 ,49.3941450577077 ,67.5716123097342
31.1290695 ,Left ,47.7569572634365 ,49.3702438003219 ,67.4079143081604
31.151517 ,Left ,47.6544898489245 ,49.3610036107715 ,67.2493131778832
31.1746576 ,Left ,47.7305640826671 ,49.3313609532018 ,67.0945327136605
31.2113611 ,Left ,47.8181744211524 ,49.2482876973856 ,66.8634359150066
31.2339849 ,Left ,47.7412482865149 ,49.2489856048477 ,66.8388378287622
31.2488799 ,Left ,47.6616579138691 ,49.2483982182929 ,66.8438654239972
31.2790805 ,Left ,47.6175915522796 ,49.2312159926456 ,66.8463669891738
31.3165084 ,Left ,47.7101938281954 ,49.1768863375069 ,66.8401644103749
31.331385 ,Left ,47.7545552619009 ,49.1537630502729 ,66.8506088026139
31.3693075 ,Left ,47.7280196645336 ,49.133720172499 ,66.9014014342716
31.391456 ,Left ,47.7696364247683 ,49.1313699908954 ,66.9326353586498
31.4139131 ,Left ,47.8761038929829 ,49.1366781205358 ,66.9744591496084
31.452809 ,Left ,48.2219972853852 ,49.1936186237085 ,67.0435095484396
31.4738704 ,Left ,48.3674885986476 ,49.2061291701808 ,67.0821407737589
31.5201265 ,Left ,48.5863924015085 ,49.1814648573722 ,67.2010200233283
31.556558 ,Left ,48.6143778688813 ,49.1618653193785 ,67.2644022386375
31.5712753 ,Left ,48.6624725718267 ,49.1446404912024 ,67.2738082206957
31.6091706 ,Left ,48.7001194164338 ,49.0785177457978 ,67.2669402709297
31.6313697 ,Left ,48.6131396502682 ,49.0465769865836 ,67.2600821549064
31.6702376 ,Left ,48.5357737558077 ,48.9750106134641 ,67.262127480635
31.6915083 ,Left ,48.5476582669503 ,48.931663541052 ,67.2712133358172
31.7291633 ,Left ,48.4996028457799 ,48.8505995974425 ,67.3272475679349
31.7546145 ,Left ,48.4900651954063 ,48.8047875624655 ,67.3606740793095
31.7889665 ,Left ,48.4784068789244 ,48.7366187895273 ,67.3569766050432
31.811482 ,Left ,48.3241330213416 ,48.7387525795798 ,67.2744005008826
31.8564077 ,Left ,48.4198013784104 ,48.7286307325581 ,67.0848191523429
31.8789779 ,Left ,48.5243693659349 ,48.6991206218147 ,67.0185758156569
31.9316419 ,Left ,48.372583495269 ,48.7266009244433 ,67.0633654416967
31.969104 ,Left ,48.333481674168 ,48.7072474062027 ,67.0069028948594
31.9913406 ,Left ,48.4326905050938 ,48.6551338776508 ,66.9875382882176
32.0289879 ,Left ,48.2129628985939 ,48.6511738494075 ,66.9952376199472
32.051582 ,Left ,48.143614560688 ,48.681410815694 ,67.0137045417967
32.0889631 ,Left ,48.2968511569759 ,48.6967929441069 ,66.9896048381267
32.1112627 ,Left ,48.2829773510136 ,48.7052948292504 ,67.0013282965412
32.1489715 ,Left ,48.2116667501546 ,48.7321614049315 ,67.020138567691
32.1714585 ,Left ,48.1664241122434 ,48.7539988011482 ,67.012958915396
32.2090612 ,Left ,48.252535819948 ,48.795964967908 ,67.0102086727936
32.2315344 ,Left ,48.1504282448962 ,48.8465650427106 ,66.9931086501794
32.2688868 ,Left ,47.9823759789938 ,48.9542168438748 ,66.9802802606477
32.2914684 ,Left ,48.038179638095 ,48.9705058783674 ,66.9661532187809
32.3214864 ,Left ,47.9168456341126 ,49.0069615928221 ,67.0391794566839
32.3524156 ,Left ,47.930238400267 ,48.9988192350155 ,67.1342428980918
32.3741396 ,Left ,47.9948110670852 ,48.9770841185801 ,67.2561805554983
32.4039719 ,Left ,48.0361447683077 ,48.9336703884448 ,67.5207004376005
32.426529 ,Left ,48.1596876619818 ,48.9630552381973 ,67.5809354845289
32.4489499 ,Left ,48.2049492391085 ,48.9843134455626 ,67.544034908868
32.4640125 ,Left ,48.2087800942204 ,49.0092015242026 ,67.4755994104932
32.4864247 ,Left ,48.2144581754346 ,49.020787952469 ,67.3926724166067
32.5016011 ,Left ,48.1804232240671 ,49.0219057812237 ,67.2966398784398
32.5240255 ,Left ,48.1328634585487 ,49.0131169906674 ,67.2141666421606
32.5466299 ,Left ,48.1221894099984 ,48.9965842022294 ,67.1577314143173
32.5614837 ,Left ,48.119819653591 ,48.9919152948419 ,67.1172310964268
32.584513 ,Left ,48.0860552688111 ,48.9989782090036 ,67.0758373138759
32.6065346 ,Left ,48.0414174810598 ,49.0146025616249 ,67.0371955559478
32.6215439 ,Left ,48.0563442095707 ,49.0313420883583 ,66.9960336784626
32.6440772 ,Left ,48.0754013744368 ,49.0154602301942 ,66.9420396358992
32.6665226 ,Left ,48.0461284159813 ,48.9830901747192 ,66.8922460518637
32.6813073 ,Left ,48.012572543724 ,48.9494766621483 ,66.8635093309477
32.7040159 ,Left ,47.9670315396463 ,48.9010248389692 ,66.850198866116
32.726453 ,Left ,47.9060923480657 ,48.839218122033 ,66.8490299695154
32.7490338 ,Left ,47.8728195294596 ,48.7639190830231 ,66.85363343353
32.7639451 ,Left ,47.8065178105567 ,48.6945185413773 ,66.8628642815222
32.7878141 ,Left ,47.7382080361217 ,48.6377394032637 ,66.8760679021066
32.8089119 ,Left ,47.6171191322865 ,48.6202545036629 ,66.8793133785525
32.8239177 ,Left ,47.5972543267962 ,48.6202543846362 ,66.8743437567269
32.8467714 ,Left ,47.690890594553 ,48.6348442127556 ,66.855867994946
32.8691832 ,Left ,47.8097711517363 ,48.6235513935204 ,66.8378945270396
32.8838785 ,Left ,47.898341447456 ,48.6142387972129 ,66.8175515350551
32.9065108 ,Left ,47.8839202222448 ,48.5960697743394 ,66.8366853861124
32.9289771 ,Left ,47.8250361962027 ,48.5601038802783 ,66.8829604161944
32.9516636 ,Left ,47.7777968321498 ,48.4978151052757 ,66.9516580402351
32.973918 ,Left ,47.8337275777267 ,48.4136370697889 ,67.0317682020465
33.004597 ,Left ,47.9504169130274 ,48.1830309067017 ,67.1682010600631
33.0263328 ,Left ,47.9366240501368 ,48.0777713899413 ,67.2641404422037
33.0490587 ,Left ,47.9077726800999 ,48.0290185993898 ,67.3469086879971
33.0639136 ,Left ,47.829108660253 ,48.0478270182835 ,67.3826974103783
33.0864979 ,Left ,47.8373392680751 ,48.111961621959 ,67.395551568926
33.1163341 ,Left ,48.001595459886 ,48.1564078734766 ,67.3909746189279
33.1314773 ,Left ,48.1724501329594 ,48.180565573573 ,67.3772799725866
33.1539935 ,Left ,48.2201546578212 ,48.2132850113054 ,67.3721840307652
33.1691403 ,Left ,48.1524452673944 ,48.2729943865806 ,67.391143570969
33.1840995 ,Left ,48.1106988509095 ,48.3261300960699 ,67.4059577303606
33.2074098 ,Left ,48.1427361704526 ,48.3591310160859 ,67.4000892689243
33.2365305 ,Left ,48.1805574852111 ,48.3882381091349 ,67.3781231684613
33.2515473 ,Left ,48.1813179824891 ,48.4285183513052 ,67.36304773585
33.2739906 ,Left ,48.1475236113747 ,48.4740412387559 ,67.3643799434523
33.2892193 ,Left ,48.1024390446472 ,48.5195329091265 ,67.3642735558868
33.3038794 ,Left ,48.0696252544309 ,48.5620684685376 ,67.3585995845367
33.3264747 ,Left ,48.0508559507283 ,48.6184025584599 ,67.3392460569644
33.3488847 ,Left ,48.040818017596 ,48.680391920421 ,67.309718308642
33.3640465 ,Left ,48.0241868713226 ,48.7281466877189 ,67.2818257171877
33.3864978 ,Left ,48.0182184255251 ,48.7604643748388 ,67.2590938209954
33.4090757 ,Left ,48.0248559024871 ,48.7876448161817 ,67.2378096863754
33.4242143 ,Left ,47.9851167422594 ,48.8110661724495 ,67.2299832929205
33.4539933 ,Left ,47.9126850370456 ,48.8390067252772 ,67.2398396971562
33.4762871 ,Left ,47.8814912348075 ,48.8605790814805 ,67.2540989650667
33.4988783 ,Left ,47.904936125054 ,48.8807292825169 ,67.2550414600045
33.5215251 ,Left ,47.9385135540421 ,48.9011456036703 ,67.2437395474071
33.5364567 ,Left ,47.9623688683864 ,48.9203758653752 ,67.2314167663733
33.551584 ,Left ,47.9771525633638 ,48.9245488766227 ,67.2188130823477
33.5664902 ,Left ,47.9643923615145 ,48.9316498736095 ,67.2028732453117
33.5891356 ,Left ,47.922729008233 ,48.92847757941 ,67.1884131153042
33.6040913 ,Left ,47.8867106827228 ,48.9313380180109 ,67.177091720997
33.6266178 ,Left ,47.879284573313 ,48.9332905553137 ,67.1704246571257
33.649111 ,Left ,47.893320942745 ,48.9338790824845 ,67.1695400642723
33.6640309 ,Left ,47.9057587939178 ,48.9355836875794 ,67.1682494721528
33.686535 ,Left ,47.9037995699187 ,48.9369284190077 ,67.175457412404
33.7090422 ,Left ,47.9072988278079 ,48.9397422880223 ,67.1815824643098
33.7315662 ,Left ,47.9048116996785 ,48.9324724145497 ,67.1866692322842
33.7464479 ,Left ,47.8789139317638 ,48.927409719406 ,67.1895122114035
33.7689914 ,Left ,47.8530873678704 ,48.9224707593361 ,67.1919134005103
33.7915279 ,Left ,47.8486787855027 ,48.9117978477849 ,67.1949951902808
33.8064878 ,Left ,47.8232839002326 ,48.9046929196628 ,67.2043235807322
33.829176 ,Left ,47.7963605131513 ,48.903422410568 ,67.2199680032038
33.8588446 ,Left ,47.787844154571 ,48.9024066163367 ,67.234313326274
33.8740079 ,Left ,47.7999327281934 ,48.8980401715257 ,67.2500298207832
33.9115651 ,Left ,47.8384697496617 ,48.8897789418214 ,67.2750037976902
33.9263668 ,Left ,47.8582665859893 ,48.8947642433369 ,67.293295602137
33.9489651 ,Left ,47.8896310835499 ,48.8991107813079 ,67.3043178642888
33.9713951 ,Left ,47.9400531360862 ,48.895892161635 ,67.3034353322402
33.9864303 ,Left ,47.987262248121 ,48.883208851394 ,67.2987047127766
34.0089525 ,Left ,47.9906005640851 ,48.8812072723812 ,67.2985912276341
34.0316525 ,Left ,47.9682656479566 ,48.885485599268 ,67.297666827901
34.0540668 ,Left ,47.9585926142429 ,48.8909574037065 ,67.2887566062101
34.0765159 ,Left ,47.9797574123778 ,48.8982931149778 ,67.277334203509
34.0990095 ,Left ,47.9793088532816 ,48.9118988765436 ,67.2719186872979
34.1138674 ,Left ,47.9776387305928 ,48.9128982268882 ,67.2719749926875
34.1290213 ,Left ,47.9754304849905 ,48.9215408597766 ,67.2801857592418
34.1515226 ,Left ,47.9889173043943 ,48.9230599077511 ,67.2952894407958
34.1664309 ,Left ,48.0034543197996 ,48.9214994991277 ,67.3008732932183
34.1890742 ,Left ,48.0024312970708 ,48.9198350835122 ,67.3011176222445
34.2114996 ,Left ,47.9777166520945 ,48.9213149212007 ,67.3099120548906
34.2266523 ,Left ,47.9616270735367 ,48.9225130706292 ,67.3221657362616
34.2490496 ,Left ,47.9556374711425 ,48.9109796320784 ,67.3393574943368
34.2714569 ,Left ,47.9357739419953 ,48.8918282301108 ,67.358554540791
34.2864777 ,Left ,47.903730131966 ,48.8707244282848 ,67.3719347033625
34.3091021 ,Left ,47.8873533730277 ,48.837731206638 ,67.3829892890908
34.3391329 ,Left ,47.8658623365871 ,48.7965645607226 ,67.3949828975867
34.3614258 ,Left ,47.8634025659554 ,48.7396347329929 ,67.4186736518071
34.3838564 ,Left ,47.9313839226141 ,48.6786921630577 ,67.4414303208072
34.3989921 ,Left ,48.0081379182762 ,48.6184276733381 ,67.4450627114342
34.4141793 ,Left ,48.0773508450797 ,48.5420894814509 ,67.4484692305213
34.4290739 ,Left ,48.0213772798678 ,48.488502840851 ,67.4261031457706
34.4515677 ,Left ,47.8433695616505 ,48.4947326338795 ,67.3957166656242
34.4740196 ,Left ,47.7611490643727 ,48.5322923425076 ,67.3741713970574
34.488981 ,Left ,47.8295331031989 ,48.5354346277201 ,67.3425706560153
34.5116125 ,Left ,47.9132358156693 ,48.5338743885181 ,67.3104991281501
34.5413983 ,Left ,47.9172623959197 ,48.5471365682642 ,67.3044966623583
34.5563805 ,Left ,47.8703283444177 ,48.5709018197751 ,67.3038304115723
34.5865909 ,Left ,47.8593969666252 ,48.5555460698073 ,67.2699659714383
34.6166404 ,Left ,47.8735109819235 ,48.5300904341618 ,67.2438791848061
34.6466064 ,Left ,47.8851898070824 ,48.4904534803169 ,67.2263039236059
34.6765272 ,Left ,47.6198455757203 ,48.4910446472748 ,67.2022364210991
34.691548 ,Left ,47.5336713561238 ,48.5304312614086 ,67.1879647322816
34.7140695 ,Left ,47.6556761012899 ,48.5472253985364 ,67.1545706185736
34.7290208 ,Left ,47.7913388431015 ,48.5602748598634 ,67.1190836967009
34.7515045 ,Left ,47.825889012528 ,48.5713803185383 ,67.1101143848147
34.7741575 ,Left ,47.7785266459408 ,48.5820006583782 ,67.1293887279782
34.7891262 ,Left ,47.7365366769555 ,48.5846198994381 ,67.1347151741563
34.811495 ,Left ,47.6980797457939 ,48.5748078748596 ,67.1188979552518
34.834108 ,Left ,47.6991530148843 ,48.5454864126728 ,67.0876738817819
34.8491308 ,Left ,47.8013365646752 ,48.5253115171309 ,67.0761616658223
34.8716057 ,Left ,47.7531172610391 ,48.5486881146183 ,67.0623671579863
34.9020348 ,Left ,47.6435709578236 ,48.6239327476919 ,67.0418038457118
34.9165623 ,Left ,47.637921931603 ,48.6764463421672 ,67.0232355763644
34.9389175 ,Left ,47.7499613201232 ,48.6812068704898 ,66.9887168829366
34.9540681 ,Left ,47.8343264547415 ,48.6921791482322 ,66.9762704541934
34.9690523 ,Left ,47.78368268386 ,48.7162499237866 ,66.9958682338239
34.991511 ,Left ,47.6803742028323 ,48.7332652030425 ,67.0278225336673
35.0141796 ,Left ,47.6159261744621 ,48.7334486334979 ,67.0423247624225
35.0303011 ,Left ,47.6203153676394 ,48.7153739717642 ,67.0505265023719
35.053044 ,Left ,47.6476014420485 ,48.6859165929459 ,67.0554976912181
35.074178 ,Left ,47.6295022417806 ,48.6431742796467 ,67.0746061870618
35.0890451 ,Left ,47.6066628025307 ,48.6009192632879 ,67.0993495612412
35.1115942 ,Left ,47.6298538784071 ,48.5533137364463 ,67.1042933525119
35.1339485 ,Left ,47.6827293965239 ,48.4965630181488 ,67.09615295688
35.1488808 ,Left ,47.6422810909704 ,48.4850564092737 ,67.0671417533241
35.1714641 ,Left ,47.5089961319812 ,48.5324709709372 ,67.0266589569364
35.2015886 ,Left ,47.4545905143462 ,48.6051814158403 ,66.981199586322
35.2163706 ,Left ,47.5665955723608 ,48.6408135448229 ,66.9244644693357
35.2393317 ,Left ,47.6893677141837 ,48.6613681706892 ,66.8714804656696
35.2558029 ,Left ,47.729706747287 ,48.6904485597082 ,66.8359954128438
35.269113 ,Left ,47.7081003777691 ,48.7153831322225 ,66.8105814082426
35.2914355 ,Left ,47.6935627336682 ,48.7182962553029 ,66.7888645360761
35.3141737 ,Left ,47.6863918468387 ,48.7097863695321 ,66.7610000735447
35.3290629 ,Left ,47.6819769405759 ,48.7017523726726 ,66.7307729002452
35.3514432 ,Left ,47.693011952976 ,48.7006560124361 ,66.6982426800506
35.3741557 ,Left ,47.6966201932666 ,48.6886115845838 ,66.6788521428382
35.3890425 ,Left ,47.6973870607943 ,48.6650503624056 ,66.6676193548844
35.4114906 ,Left ,47.6850987085159 ,48.626397842904 ,66.6543896290033
35.4339124 ,Left ,47.6100940271886 ,48.5923083484615 ,66.6440159093991
35.4490526 ,Left ,47.5532944479967 ,48.5575987006656 ,66.6527876960196
35.4724804 ,Left ,47.5645078774245 ,48.5101908763276 ,66.6479029019961
35.4939576 ,Left ,47.5650449016419 ,48.5031163618119 ,66.646156356728
35.5089592 ,Left ,47.5962905034466 ,48.5033545737923 ,66.6501762252294
35.5315109 ,Left ,47.5775525189552 ,48.5269944961478 ,66.6358514474334
35.5538722 ,Left ,47.5227943210057 ,48.5684134624435 ,66.6118361762094
35.5690036 ,Left ,47.5866927029406 ,48.5844181093598 ,66.5770537763248
35.5915374 ,Left ,47.6971749302242 ,48.575432088006 ,66.5376013330877
35.6140085 ,Left ,47.7173636621431 ,48.5576825247451 ,66.4969808148389
35.6365165 ,Left ,47.5949367484158 ,48.5551311113416 ,66.4969716334648
35.6521091 ,Left ,47.4827581157762 ,48.569713008457 ,66.5407983573507
35.674122 ,Left ,47.4602126750461 ,48.5725824531631 ,66.6103466521105
35.6965301 ,Left ,47.5319291952808 ,48.5566411505921 ,66.6593661851932
35.7191107 ,Left ,47.6156409452225 ,48.5237474941382 ,66.690866818496
35.7489508 ,Left ,47.5684031499948 ,48.5381936514977 ,66.7097146593564
35.7715069 ,Left ,47.3913659616501 ,48.5961822694865 ,66.7262089168269
35.7940719 ,Left ,47.3400108134075 ,48.6763839909298 ,66.7402975582607
35.8089759 ,Left ,47.5425191099981 ,48.7006097307884 ,66.7224036560747
35.823954 ,Left ,47.764808460227 ,48.6931814428092 ,66.7022518472793
35.838993 ,Left ,47.8238914481694 ,48.7021649784851 ,66.7029555247073
35.855049 ,Left ,47.741516794719 ,48.7209960337283 ,66.7169686025766
35.8766108 ,Left ,47.6761988629542 ,48.7346029805635 ,66.7324147196269
35.8915416 ,Left ,47.6984511290823 ,48.7310529613641 ,66.7376152864216
35.9140495 ,Left ,47.7680606762066 ,48.7157076738975 ,66.7402205798188
35.9365361 ,Left ,47.815153631318 ,48.715538740981 ,66.7410433133891
35.9515682 ,Left ,47.829630936966 ,48.7303119732733 ,66.75181603211
35.974072 ,Left ,47.8481593470442 ,48.7401340948149 ,66.7611281904645
35.9965034 ,Left ,47.8624082920153 ,48.7345280386132 ,66.7669402927755
36.0113859 ,Left ,47.8650320251261 ,48.7290136612727 ,66.7784483899674
36.0340493 ,Left ,47.8648325815637 ,48.7228625638244 ,66.7928175300321
36.0565081 ,Left ,47.8650760922846 ,48.7209740254608 ,66.8041982632879
36.0721862 ,Left ,47.8747460121945 ,48.7158912395713 ,66.8149869183892
36.0940432 ,Left ,47.9060671446032 ,48.7093866286496 ,66.826798020681
36.1165796 ,Left ,47.9263420268778 ,48.7071667432224 ,66.838804075725
36.1390543 ,Left ,47.9332732190996 ,48.7126772094651 ,66.8488136091703
36.1689585 ,Left ,47.9381316121999 ,48.7146916948743 ,66.8598351259046
36.1989049 ,Left ,47.9375324623498 ,48.7140530768019 ,66.8915991889941
36.2061747 ,Left ,47.9281676857411 ,48.720635692651 ,66.916398381705
36.2290632 ,Left ,47.9217643266057 ,48.7321308330034 ,66.9408977633705
36.2438829 ,Left ,47.9226661971941 ,48.7388877101278 ,66.9513971815402
36.2742986 ,Left ,47.9306892777487 ,48.7458469293685 ,66.9591317784549
36.2967418 ,Left ,47.9416116212666 ,48.7578995319526 ,66.9686252451965
36.3116406 ,Left ,47.9716856292236 ,48.7564631867906 ,66.9776505454613
36.3264511 ,Left ,47.9741636008325 ,48.7527516695425 ,66.9752518164456
36.3488649 ,Left ,47.9498237527637 ,48.7532507609941 ,66.9729013361309
36.3638126 ,Left ,47.9409400081031 ,48.7605588133458 ,66.9684276945051
36.3867342 ,Left ,47.9462036844135 ,48.7637981228372 ,66.9538242402536
36.4088182 ,Left ,47.9500548087065 ,48.7609002902526 ,66.9404178277726
36.4238652 ,Left ,47.9414020188406 ,48.7517262444736 ,66.9237651535203
36.4464768 ,Left ,47.941036989443 ,48.7377115003298 ,66.9093413741906
36.4688416 ,Left ,47.9179740671427 ,48.7283599816456 ,66.9028385320889
36.483829 ,Left ,47.8756907022168 ,48.7259904195789 ,66.9067082505926
36.5067582 ,Left ,47.862397886741 ,48.7274543433341 ,66.9140562172996
36.528951 ,Left ,47.8758630276579 ,48.7242992684663 ,66.9201774387749
36.5437924 ,Left ,47.8968072818757 ,48.7193714601067 ,66.9324148296433
36.5664887 ,Left ,47.9049905858308 ,48.7133076232006 ,66.954744989692
36.5889467 ,Left ,47.8988482402848 ,48.7067031088981 ,66.9831341682412
36.6038713 ,Left ,47.8831166992621 ,48.6877554975092 ,67.0107636741489
36.6266045 ,Left ,47.8632170378661 ,48.6619992284503 ,67.0400206135532
36.6490116 ,Left ,47.8460246305664 ,48.6370949339139 ,67.0685447288369
36.6640013 ,Left ,47.8400080737474 ,48.6125692666415 ,67.1005718501649
36.6866529 ,Left ,47.8128058928793 ,48.598278951889 ,67.1337516206521
36.7089604 ,Left ,47.794100147829 ,48.5901930251625 ,67.1633697419957
36.7239843 ,Left ,47.8114679201507 ,48.5857342051437 ,67.1939428069415
36.7465488 ,Left ,47.8475162789986 ,48.5923865610176 ,67.2176999584013
36.7839164 ,Left ,47.8543886081686 ,48.6240507007101 ,67.254865989226
36.8065528 ,Left ,47.8455581255344 ,48.6576448512246 ,67.277499070273
36.8516501 ,Left ,47.8716865369195 ,48.7211403365241 ,67.317246987614
36.8740261 ,Left ,47.8755458957652 ,48.744564538398 ,67.3330483351444
36.903991 ,Left ,47.852128344719 ,48.7702014213937 ,67.3373802914081
36.9264108 ,Left ,47.8496782250736 ,48.7710143374801 ,67.316438464433
36.9641531 ,Left ,47.9867048970885 ,48.7204846085438 ,67.3239637890741
36.9864695 ,Left ,48.0035784212167 ,48.6772666636131 ,67.3535586383427
37.0240402 ,Left ,48.0845961435787 ,48.5639053982176 ,67.4118044789172
37.0463708 ,Left ,48.1714555551312 ,48.4955723714453 ,67.4265958006748
37.0689825 ,Left ,48.1898864332375 ,48.406741438611 ,67.4280958727359
37.1215133 ,Left ,47.7789451985895 ,48.446737254208 ,67.3307065017104
37.1665184 ,Left ,47.9407755940162 ,48.4622074728271 ,67.1739943418178
37.189103 ,Left ,47.8820404628064 ,48.4877182190076 ,67.1656382002017
37.2265118 ,Left ,47.7668786466592 ,48.4996876203853 ,67.1131376287684
37.2637736 ,Left ,47.8172612283878 ,48.4570929123418 ,67.0245892268702
37.2867724 ,Left ,47.8089207596844 ,48.4457738316592 ,67.0175327856026
37.3091655 ,Left ,47.6791845681615 ,48.4632046327126 ,67.0162362567062
37.3463233 ,Left ,47.6725608774128 ,48.4962834650779 ,67.0065215163389
37.3689897 ,Left ,47.7966253380077 ,48.4877509761797 ,66.9783273558042
37.413886 ,Left ,47.7769684820464 ,48.4890405316034 ,67.0049093713837
37.4664333 ,Left ,47.7806691020749 ,48.4512225866216 ,66.9652490137599
37.5039756 ,Left ,47.7765215026539 ,48.4512203228979 ,66.9611035620441
37.5263314 ,Left ,47.6335655729174 ,48.4986188564429 ,66.9533094992651
37.5639613 ,Left ,47.71703613493 ,48.5465552408849 ,66.9435895092002
37.586571 ,Left ,47.7153537096005 ,48.5475363041319 ,66.9436609855328
37.6240031 ,Left ,47.6652765830049 ,48.5803911888078 ,67.014624347569
37.6462939 ,Left ,47.6590702426793 ,48.5625840204829 ,67.0419351475257
37.6839697 ,Left ,47.7558777653786 ,48.4874785554293 ,67.1043721495208
37.706778 ,Left ,47.8606099271724 ,48.4211758973398 ,67.110081342556
37.7440306 ,Left ,47.7097380553183 ,48.4592328743499 ,67.0275685788579
37.7664497 ,Left ,47.7129631889207 ,48.5079109087817 ,66.9858217042373
37.8040557 ,Left ,47.8590258769453 ,48.5060318151256 ,66.8785659594417
37.8262237 ,Left ,47.8303293236824 ,48.5214459141583 ,66.8457574345758
37.8638513 ,Left ,47.7244057010532 ,48.5224418878142 ,66.8005563176339
37.8864488 ,Left ,47.6970397150597 ,48.52098287911 ,66.7695788412687
37.9243873 ,Left ,47.7133473094478 ,48.5421172268383 ,66.6987645648031
37.954135 ,Left ,47.6956640857262 ,48.5468357833861 ,66.6748013760515
38.0065487 ,Left ,47.6406124436846 ,48.530165101824 ,66.654330029923
38.0438984 ,Left ,47.6234944171793 ,48.4957343628894 ,66.6728984159704
38.0663686 ,Left ,47.6588452267135 ,48.4657619568058 ,66.6617053957118
38.0815414 ,Left ,47.66983511894 ,48.4395172841112 ,66.6701058583573
38.0965746 ,Left ,47.665558415451 ,48.3855020711419 ,66.6692909288469
38.1264447 ,Left ,47.6127063928361 ,48.3449911436306 ,66.6467896017075
38.1490607 ,Left ,47.5929239953196 ,48.3256498025297 ,66.6194893093011
38.1641052 ,Left ,47.6886315322661 ,48.2812652324075 ,66.5943374505479
38.1789705 ,Left ,47.7520287501517 ,48.2458211334287 ,66.5632447374688
38.2015974 ,Left ,47.6778434470463 ,48.2325731702614 ,66.5781619929303
38.2165845 ,Left ,47.7066345464458 ,48.2085282845883 ,66.6699206242619
38.2390443 ,Left ,47.8182618725086 ,48.1592487226179 ,66.7769265517306
38.261654 ,Left ,47.8387018591846 ,48.1211582380347 ,66.8687933397717
38.2840379 ,Left ,47.7796100225678 ,48.1090556492003 ,66.9591779395986
38.2990083 ,Left ,47.8516877699977 ,48.0871711576783 ,67.0360374486717
38.3214624 ,Left ,47.9268151474149 ,48.0874566220415 ,67.0778778540751
