timestamp,event,roll,pitch,yaw
0.7195042 ,Left ,48.214943518135 ,52.4895137324184 ,20.4655604410876
0.7419007 ,Left ,48.2313813673947 ,52.4858288897717 ,20.4558228975003
0.7568536 ,Left ,48.2516736149828 ,52.4839232584577 ,20.4458855574404
0.7794062 ,Left ,48.2688360573129 ,52.4778173172316 ,20.4400678684121
0.801808 ,Left ,48.2947134335528 ,52.466348004386 ,20.445759437669
0.8242877 ,Left ,48.3171000531446 ,52.4501859988432 ,20.4515540181296
0.8396411 ,Left ,48.3268561652033 ,52.4364654028048 ,20.4611382527601
0.8693261 ,Left ,48.3362031610574 ,52.422687008021 ,20.4649327324035
0.8917455 ,Left ,48.361308063521 ,52.4068946856067 ,20.4709168441485
0.9069549 ,Left ,48.3782380198759 ,52.3968864054475 ,20.4720490290404
0.9218595 ,Left ,48.3921570007811 ,52.3891779631258 ,20.4751493841735
0.944516 ,Left ,48.4149745899388 ,52.3837935543551 ,20.4724088596728
0.9597014 ,Left ,48.4453857948676 ,52.3822011182139 ,20.4670182340454
0.9820277 ,Left ,48.4635047819163 ,52.3843667844852 ,20.4534891322295
1.0056364 ,Left ,48.4799707174955 ,52.3837271174244 ,20.4493596403395
1.0195471 ,Left ,48.4890690717608 ,52.3832384355104 ,20.4407767665103
1.0427242 ,Left ,48.4912664296935 ,52.3735375780817 ,20.4329050000171
1.0645242 ,Left ,48.4881191252548 ,52.3600625139072 ,20.4212866546678
1.0794444 ,Left ,48.4886668044151 ,52.3484382040285 ,20.4067872085452
1.1018598 ,Left ,48.4936175288207 ,52.3361911175548 ,20.3933278669056
1.1243489 ,Left ,48.498754863309 ,52.3306726225384 ,20.3781772638549
1.1394616 ,Left ,48.5028040312744 ,52.3266926585875 ,20.3693641838966
1.1620502 ,Left ,48.5040304342058 ,52.3322642896157 ,20.3595690368741
1.1845363 ,Left ,48.5191336471204 ,52.3368077240568 ,20.347960645351
1.1995226 ,Left ,48.5249956029011 ,52.3356188657692 ,20.3323628292401
1.221938 ,Left ,48.5485380726661 ,52.3356121531563 ,20.3129433885455
1.2444667 ,Left ,48.5711425453501 ,52.3312382555842 ,20.2907844981346
1.2595059 ,Left ,48.5731127045137 ,52.3184033450901 ,20.2733864911839
1.2821645 ,Left ,48.5542345171156 ,52.306698323829 ,20.2591881819596
1.3044683 ,Left ,48.5440584924566 ,52.2875950024021 ,20.234404011604
1.3195261 ,Left ,48.5439598101165 ,52.265700947889 ,20.2079617824196
1.3419329 ,Left ,48.5390351509074 ,52.2500756082322 ,20.1859711922206
1.3645794 ,Left ,48.5267245725138 ,52.2544974169501 ,20.1613438363943
1.3799429 ,Left ,48.5011318563796 ,52.2886867638928 ,20.1695719069363
1.401823 ,Left ,48.4877472522772 ,52.3411022514417 ,20.2090398490496
1.4277655 ,Left ,48.4994106953648 ,52.4080872223472 ,20.2398298047038
1.43945 ,Left ,48.4509568743976 ,52.4846115623429 ,20.2347767965692
1.4618444 ,Left ,48.4302873841238 ,52.5329265750839 ,20.2274538770004
1.4845609 ,Left ,48.4543305923668 ,52.5265272718878 ,20.2193120195842
1.4994115 ,Left ,48.4873053041792 ,52.4830977561211 ,20.2007278938738
1.5217504 ,Left ,48.4741469612333 ,52.4262097757699 ,20.1877938061914
1.5443521 ,Left ,48.42902023913 ,52.3747358520811 ,20.1858548433605
1.5592889 ,Left ,48.3907822849689 ,52.3198679097384 ,20.1758331502522
1.5818216 ,Left ,48.3753956756949 ,52.282399458867 ,20.1722169884862
1.6043474 ,Left ,48.3200401669038 ,52.256366350645 ,20.1784773127896
1.6271512 ,Left ,48.1880536106937 ,52.2617481396256 ,20.1779114997085
1.6417771 ,Left ,48.0995913481525 ,52.2515099190229 ,20.1501304008637
1.6643418 ,Left ,48.1221216935183 ,52.2096147388958 ,20.1400236543485
1.6868201 ,Left ,48.1952796197648 ,52.1702983523887 ,20.1402207019576
1.7018001 ,Left ,48.255627348668 ,52.1236627286444 ,20.1398700465345
1.7243598 ,Left ,48.2265910569264 ,52.1075265901571 ,20.1280316250357
1.7467769 ,Left ,48.1711189857262 ,52.1379485090915 ,20.1220439832459
1.7691841 ,Left ,48.0468759671546 ,52.1642799773167 ,20.1027120560728
1.7920494 ,Left ,47.9785779499431 ,52.1820941203402 ,20.0505177827268
1.8217414 ,Left ,48.012756535945 ,52.1137185229768 ,20.0068589416188
1.8446361 ,Left ,48.0187302525847 ,52.0682167760963 ,20.025074074801
1.8671196 ,Left ,48.0353919446648 ,52.0537295508736 ,20.0490712535308
1.8818792 ,Left ,48.0491402451529 ,52.0888221005307 ,20.0656441881695
1.9043736 ,Left ,48.0602669286434 ,52.1496171451739 ,20.1009711879316
1.9270337 ,Left ,48.0832346658841 ,52.1866425643609 ,20.131318605021
1.9419418 ,Left ,48.0362219080381 ,52.1883972533376 ,20.1402491332595
1.9643393 ,Left ,47.9920705232656 ,52.1716330319318 ,20.1300673071337
1.9869779 ,Left ,48.0257983552697 ,52.1617246199895 ,20.1133213964181
2.0019151 ,Left ,48.0181314718787 ,52.1522467932086 ,20.0845625047217
2.0248819 ,Left ,47.9817430775716 ,52.1859948277695 ,20.0633757778563
2.0543852 ,Left ,48.0058585077633 ,52.2201792797166 ,20.0320809056389
2.0695153 ,Left ,48.0950738900396 ,52.2413529988277 ,19.9862531581576
2.0917925 ,Left ,48.1438612771333 ,52.264452368526 ,19.9276910912088
2.1071051 ,Left ,48.1123400360254 ,52.3031618979733 ,19.87675766921
2.1218454 ,Left ,48.0451558201456 ,52.3390837087054 ,19.8301795406052
2.1444688 ,Left ,48.0139918548713 ,52.3651224619518 ,19.777832704223
2.1668565 ,Left ,47.9919017130408 ,52.3770837554038 ,19.7226542494395
2.1819968 ,Left ,47.9721132918875 ,52.3852566165095 ,19.6713070872232
2.2044182 ,Left ,47.9507516130893 ,52.3906220312038 ,19.6294368734165
2.2270412 ,Left ,47.917933235054 ,52.3938341673894 ,19.5799478446928
2.2418347 ,Left ,47.9192798498665 ,52.380622976424 ,19.5357220383791
2.2644592 ,Left ,47.9540720250439 ,52.3590189490159 ,19.5212629309374
2.2871487 ,Left ,48.0011866255554 ,52.3475839254352 ,19.5243797916075
2.3017691 ,Left ,47.9570830908359 ,52.332138312248 ,19.5331607767334
2.3243854 ,Left ,47.9037191067743 ,52.3208026287298 ,19.5401409356658
2.3542944 ,Left ,47.9668915992745 ,52.2936669250817 ,19.5684834969244
2.3693317 ,Left ,48.0767219079274 ,52.2306161894967 ,19.595555924866
2.3917439 ,Left ,48.1366536214003 ,52.1313110466806 ,19.6205855149882
2.4070579 ,Left ,48.1440831620016 ,52.018989282046 ,19.6454071076953
2.4218123 ,Left ,48.1222442794656 ,51.9396283517785 ,19.6761927135798
2.4444919 ,Left ,48.1024530717042 ,51.8669894526402 ,19.7142042807714
2.4669026 ,Left ,48.1119711139782 ,51.7987287750793 ,19.7449603850036
2.4820859 ,Left ,48.1938089627232 ,51.7451142262983 ,19.7467901761666
2.5044767 ,Left ,48.2628862483864 ,51.7074929799552 ,19.7445486113398
2.5270886 ,Left ,48.2768713555095 ,51.7001241129091 ,19.747298139875
2.5495235 ,Left ,48.2400886598986 ,51.7192158024021 ,19.7466639119786
2.5644358 ,Left ,48.2026701503188 ,51.7509004412338 ,19.7476468395371
2.594302 ,Left ,48.2448391267465 ,51.7763357346063 ,19.7536252583982
2.6094459 ,Left ,48.3103929515114 ,51.7934678438305 ,19.7760096292892
2.6318676 ,Left ,48.3153019664206 ,51.7928506365148 ,19.8068478527163
2.6469584 ,Left ,48.2702564430467 ,51.7697705461387 ,19.827453190243
2.6693639 ,Left ,48.2300050981741 ,51.7300610340218 ,19.8367784283436
2.6918244 ,Left ,48.2357897447921 ,51.6943695979227 ,19.8562454528388
2.7145434 ,Left ,48.2456950912047 ,51.6607900037311 ,19.8815892739626
2.7446564 ,Left ,48.2449308118993 ,51.6220930543915 ,19.9255371780753
2.7744914 ,Left ,48.2388179189113 ,51.6135933802261 ,19.939790168532
2.7968985 ,Left ,48.2273123588946 ,51.6206893824793 ,19.9534827950696
2.8118335 ,Left ,48.2387189039247 ,51.6396810340769 ,19.9625605492269
2.8268943 ,Left ,48.2652508729462 ,51.6560214265574 ,19.9838317287517
2.8494463 ,Left ,48.2635775274976 ,51.6765011634144 ,20.0106010593053
2.8644502 ,Left ,48.2580601043356 ,51.6949956871372 ,20.0371421742386
2.8870203 ,Left ,48.2530685436057 ,51.7009118236908 ,20.0619095729903
2.9093921 ,Left ,48.2522643018773 ,51.7061205995107 ,20.0845492003385
2.9243849 ,Left ,48.2518157435743 ,51.7052070379432 ,20.0975385384159
2.9470593 ,Left ,48.2599306767479 ,51.7095754875678 ,20.1046447151083
2.9694937 ,Left ,48.2583386681107 ,51.7107304743876 ,20.1043561594376
2.9844854 ,Left ,48.2386298883822 ,51.7135361615893 ,20.1082065763348
3.0069514 ,Left ,48.2111399128386 ,51.7122345708445 ,20.1111628264184
3.0293209 ,Left ,48.1866642201116 ,51.7084963630683 ,20.1115721238451
3.0448566 ,Left ,48.1544273314493 ,51.7007978110917 ,20.1115605566464
3.0670053 ,Left ,48.1099993843342 ,51.6930400316694 ,20.1169250560933
3.0894808 ,Left ,48.0678848797757 ,51.6785608205115 ,20.1201349803142
3.10446 ,Left ,48.0373010003031 ,51.6594613302452 ,20.1406524782936
3.1268287 ,Left ,48.0143113354263 ,51.6579402375023 ,20.1481010567304
3.1491924 ,Left ,47.9836560603689 ,51.7020861824135 ,20.1475897645373
3.1643593 ,Left ,47.960961271208 ,51.7999441493686 ,20.1633414228961
3.1869972 ,Left ,47.9323736248899 ,51.8830419818912 ,20.2002913328077
3.2099965 ,Left ,47.9491924762169 ,51.9255252278256 ,20.2162982417163
3.2243405 ,Left ,47.9185511765334 ,51.940078380035 ,20.2093628403471
3.254518 ,Left ,47.8855696919516 ,51.9418672786791 ,20.1809460496451
3.2769975 ,Left ,47.8643701570244 ,51.910532842483 ,20.1269349681904
3.2920175 ,Left ,47.8752861458574 ,51.8438539264475 ,20.0302243232028
3.3143527 ,Left ,47.8640081272131 ,51.7657527360718 ,19.9437857429855
3.3367796 ,Left ,47.80457375171 ,51.697240447318 ,19.865359773622
3.3595404 ,Left ,47.6969399287295 ,51.6614041495376 ,19.8141847191669
3.3743648 ,Left ,47.5817397992123 ,51.6585724942241 ,19.7969280168306
3.3893949 ,Left ,47.4692175145315 ,51.645808402547 ,19.7741090253115
3.4118343 ,Left ,47.4594838796476 ,51.6454917637951 ,19.7525534480207
3.4344777 ,Left ,47.517871419032 ,51.6362075999989 ,19.7662534169116
3.4567014 ,Left ,47.5607671903276 ,51.62909944533 ,19.7844479192188
3.4870593 ,Left ,47.6849772353249 ,51.5976247657519 ,19.831368954139
3.50942 ,Left ,47.6752460219476 ,51.6343493800567 ,19.8409219532188
3.5242987 ,Left ,47.6681436117026 ,51.7152562875253 ,19.874994834986
3.5468414 ,Left ,47.6058735307646 ,51.7831342736368 ,19.8853493267581
3.5693181 ,Left ,47.6304473391453 ,51.8273190127804 ,19.8823027451436
3.58443 ,Left ,47.6672414867809 ,51.8348356669007 ,19.8870188041087
3.6070443 ,Left ,47.6818873496818 ,51.7946400917108 ,19.9219729929916
3.6293561 ,Left ,47.679477209086 ,51.7742341301785 ,19.960585129213
3.6518989 ,Left ,47.6921356135087 ,51.7783743671546 ,19.9720050061126
3.6668634 ,Left ,47.7088838487835 ,51.8248201174505 ,20.0009738223343
3.6894852 ,Left ,47.7349733230117 ,51.9070263928412 ,20.0452250862093
3.7119634 ,Left ,47.7269209467809 ,51.9491866806173 ,20.0471630735724
3.727045 ,Left ,47.6583422122163 ,51.9683132287727 ,20.0297160176495
3.7571297 ,Left ,47.5786387459663 ,51.9591467030403 ,19.9888975491545
3.7792092 ,Left ,47.5989446173148 ,51.920586663023 ,19.9317367756873
3.7944156 ,Left ,47.6234386095664 ,51.878164346422 ,19.8634347882005
3.8093524 ,Left ,47.5923861447075 ,51.8619921669819 ,19.8209061322053
3.8320174 ,Left ,47.515646486831 ,51.8896647548482 ,19.7905763590111
3.8468919 ,Left ,47.5245595834662 ,51.9394180922301 ,19.760563473763
3.8618272 ,Left ,47.5576609071431 ,51.9930007008293 ,19.7274695895491
3.8994844 ,Left ,47.5586738272159 ,52.076339463568 ,19.6733286498922
3.921969 ,Left ,47.5395160224086 ,52.1074848403527 ,19.6412256407197
3.9594595 ,Left ,47.4502005934443 ,52.1384123030637 ,19.5902203599519
3.9819728 ,Left ,47.4321330209871 ,52.1542543120977 ,19.557539765033
4.019152 ,Left ,47.468509978181 ,52.1792441471834 ,19.5260477333621
4.0443553 ,Left ,47.4611331640101 ,52.1891909302905 ,19.5261693097165
4.0793874 ,Left ,47.5170672081694 ,52.1588521689561 ,19.5616181251327
4.1020293 ,Left ,47.5738148095935 ,52.1404315512134 ,19.5821773604879
4.1394529 ,Left ,47.7120083606496 ,52.0258162926124 ,19.6242292234773
4.1619783 ,Left ,47.7177075666296 ,51.972276850435 ,19.650304012063
4.1993112 ,Left ,47.7173986333966 ,51.89637730695 ,19.7154931627972
4.2219244 ,Left ,47.7817749365376 ,51.8550646392979 ,19.7151385760722
4.2595827 ,Left ,47.8760183556296 ,51.781232917025 ,19.7438644452141
4.2818949 ,Left ,47.9015664900476 ,51.7597051151964 ,19.7577725898566
4.3196202 ,Left ,47.9043822739931 ,51.7496173660457 ,19.7958106302573
4.3418998 ,Left ,47.962282932889 ,51.7296590484259 ,19.7969595366175
4.37952 ,Left ,47.991500356708 ,51.69967712915 ,19.8255644625681
4.4017776 ,Left ,47.9691847511779 ,51.6885033293426 ,19.8404748055372
4.439261 ,Left ,47.9786335010624 ,51.6612279296172 ,19.851890028188
4.4618172 ,Left ,47.9668551917275 ,51.648181664195 ,19.8520411822301
4.4994398 ,Left ,47.9317160460497 ,51.6127056427614 ,19.8656452893506
4.5219767 ,Left ,47.9263725727085 ,51.5950895971596 ,19.8904381340146
4.5595774 ,Left ,47.9501719051196 ,51.5876161390492 ,19.9406727228799
4.5819745 ,Left ,47.9648469946665 ,51.5912964543784 ,19.9626256974538
4.6193434 ,Left ,48.002472958618 ,51.5898844769349 ,19.9813787188038
4.6420082 ,Left ,48.0051255508403 ,51.5801234888464 ,19.9759906343121
4.679244 ,Left ,47.9502270820173 ,51.5477353889451 ,19.9730753386722
4.7019046 ,Left ,47.9069069898562 ,51.5379126156536 ,19.9684184215778
4.7394812 ,Left ,47.9105388361242 ,51.5027757995965 ,19.9565827605441
4.7620042 ,Left ,47.9329817806062 ,51.4938938639834 ,19.9578691460117
4.8070391 ,Left ,47.98571840155 ,51.5166218653811 ,20.0413951188175
4.8600539 ,Left ,48.026052358833 ,51.5818695258841 ,20.0511251121108
4.8819839 ,Left ,48.0076959635872 ,51.5602117646049 ,20.0121189632695
4.9194574 ,Left ,47.9137107577931 ,51.5438332774172 ,19.9581378046786
4.9418262 ,Left ,47.7646986835766 ,51.5578862967929 ,19.9545143121298
4.9792914 ,Left ,47.5706462703734 ,51.653645181863 ,19.9154477288386
5.0018471 ,Left ,47.5405672897129 ,51.7157154841622 ,19.9112060018232
5.0394151 ,Left ,47.6274336486391 ,51.7690918750242 ,19.963105148109
5.062322 ,Left ,47.6113052914436 ,51.7734412488276 ,19.9828719307189
5.1067077 ,Left ,47.5037439491167 ,51.7754300828299 ,19.946170023087
5.1295565 ,Left ,47.4608106366224 ,51.7524243986596 ,19.8958257468249
5.1594412 ,Left ,47.4625654300792 ,51.7411449419068 ,19.8115757367281
5.1819383 ,Left ,47.4684905958976 ,51.7188919714555 ,19.8021823440935
5.2269884 ,Left ,47.5431169924846 ,51.651632836395 ,19.808157862172
5.2493095 ,Left ,47.568425920831 ,51.6535631567173 ,19.8157374288819
5.2793433 ,Left ,47.5509701705161 ,51.7098602976043 ,19.8638155931036
5.3020062 ,Left ,47.5712135526119 ,51.7381667079638 ,19.9028343457413
5.3394465 ,Left ,47.5562265385544 ,51.8246155287385 ,19.9735137445712
5.3618506 ,Left ,47.4784664429342 ,51.8676567822823 ,20.0003253477056
5.399336 ,Left ,47.5017403836085 ,51.999930400182 ,20.0022325835128
5.4293589 ,Left ,47.4464659604089 ,52.0541124268255 ,19.9799658836959
5.4593805 ,Left ,47.4706644395179 ,52.1393778284194 ,19.8809408142316
5.4820077 ,Left ,47.5064435606368 ,52.1496474215718 ,19.8256629906442
5.519442 ,Left ,47.445688659802 ,52.2079234210598 ,19.7345859640038
5.5425402 ,Left ,47.4606484873715 ,52.2161168364267 ,19.6958167635532
5.5795845 ,Left ,47.4857516755287 ,52.229404525908 ,19.6215963692826
5.6094058 ,Left ,47.4918776514005 ,52.2591206384345 ,19.5903593165779
5.6468303 ,Left ,47.4884389913234 ,52.3033910174134 ,19.5276819237161
5.6620045 ,Left ,47.4902355322374 ,52.3238823805206 ,19.4938808773227
5.6993279 ,Left ,47.4374569490418 ,52.3698820447591 ,19.4348626626057
5.7149115 ,Left ,47.4214057772749 ,52.3749618864732 ,19.406843210113
5.7370366 ,Left ,47.3904827480361 ,52.3725672654683 ,19.3851417310048
5.7520161 ,Left ,47.3990845831336 ,52.3679687135923 ,19.3776658653726
5.7744373 ,Left ,47.4307066034552 ,52.3513377190912 ,19.3833971368204
5.7970327 ,Left ,47.4494575612538 ,52.3465129099474 ,19.4111941919357
5.8118193 ,Left ,47.5106032156126 ,52.3025870643388 ,19.4579076357227
5.834476 ,Left ,47.590199580207 ,52.1897772731329 ,19.4787087106535
5.8567969 ,Left ,47.5941022345588 ,52.1160021029421 ,19.5016261547278
5.8717966 ,Left ,47.572423537857 ,52.097362198714 ,19.5747876519148
5.8943565 ,Left ,47.5269764703799 ,52.069463487268 ,19.6285181792209
5.9170348 ,Left ,47.5548002240699 ,52.0479708914511 ,19.6138203495699
5.9319367 ,Left ,47.6886898761302 ,51.9932651889279 ,19.5918796226218
5.9545307 ,Left ,47.7682050102231 ,51.9696729391087 ,19.6083748519292
5.9772258 ,Left ,47.7703573158451 ,51.9687941862659 ,19.6354937802923
5.9919892 ,Left ,47.7325749008583 ,51.9829231954968 ,19.6681382663488
6.0144774 ,Left ,47.8012796429432 ,51.9774560326462 ,19.6959194095899
6.0370243 ,Left ,47.9138392159808 ,51.95640481833 ,19.7136469309095
6.0518146 ,Left ,47.9607918523889 ,51.9512127460639 ,19.7320360216518
6.0819598 ,Left ,47.9436534539186 ,51.9536218913118 ,19.7521208350517
6.104395 ,Left ,47.9253269523502 ,51.9409202608135 ,19.7780661566327
6.1194779 ,Left ,47.9394744386761 ,51.9095788849938 ,19.8044383614098
6.1345244 ,Left ,47.946394019406 ,51.8753261163338 ,19.820841083895
6.1567899 ,Left ,47.9392526213 ,51.8414307741958 ,19.8375703468786
6.171808 ,Left ,35.94409644874133 ,38.85897923833103 ,14.887384870651875
6.1943942 ,Left ,23.9629608288597 ,25.8929055899124 ,9.92700768649895
6.2169945 ,Left ,11.982909524004224 ,12.9417244772482 ,4.962659947766075
8.6393236 ,Left ,47.6462884514078 ,51.9204031905143 ,19.8134828601461
8.6620333 ,Left ,47.6300846766234 ,51.9010751484918 ,19.8342366159214
8.6842301 ,Left ,47.6230474078042 ,51.877624494177 ,19.8566849906186
8.6994339 ,Left ,47.6191116112521 ,51.8486426972749 ,19.8708510964445
8.7219608 ,Left ,47.6061559228253 ,51.8171106503355 ,19.8701253341107
8.7442428 ,Left ,47.5942556713428 ,51.7835287719394 ,19.8593702869684
8.7620606 ,Left ,47.5713739977245 ,51.7620562215345 ,19.8399550542364
8.7820171 ,Left ,47.5416088892863 ,51.7572055112396 ,19.8216860813081
8.8045135 ,Left ,47.5088298979868 ,51.7554249979799 ,19.7874967179897
8.8269319 ,Left ,47.5038729982211 ,51.7683463905044 ,19.7470425652636
8.849376 ,Left ,47.4339435478781 ,51.7885435069618 ,19.6960792120724
8.8793658 ,Left ,47.232057849503 ,51.7981525977835 ,19.5957034320711
8.9018759 ,Left ,47.1602591204877 ,51.7775015162129 ,19.5392331864264
8.9242578 ,Left ,47.1032571818369 ,51.7537141798348 ,19.4856550703574
8.9394174 ,Left ,47.0506783827242 ,51.729283783347 ,19.4526884658487
8.9618295 ,Left ,47.0300868938783 ,51.7098202237971 ,19.4288552758759
8.9844741 ,Left ,47.0447101448828 ,51.6821495778081 ,19.4053077544598
8.9992992 ,Left ,47.0747379372996 ,51.6425719465738 ,19.3903224588772
9.0220098 ,Left ,47.1065008923071 ,51.598910361565 ,19.3897316308699
9.0452845 ,Left ,47.1379002756888 ,51.5689472531816 ,19.400830696095
9.0593529 ,Left ,47.1620780899006 ,51.5488976290655 ,19.4146995645217
9.082025 ,Left ,47.2025702015296 ,51.5384172741577 ,19.4261945352801
9.1045745 ,Left ,47.2493439423958 ,51.5372056674679 ,19.4314782634008
9.119799 ,Left ,47.310170128815 ,51.5454974298501 ,19.420357321689
9.1419788 ,Left ,47.3359604288344 ,51.5721030696528 ,19.4170293185312
9.1643454 ,Left ,47.2605777828074 ,51.5872271617994 ,19.3988867895476
9.1794022 ,Left ,47.1625655817693 ,51.6037799173606 ,19.3818986917711
9.2018795 ,Left ,47.1581944106973 ,51.5867526203764 ,19.3535261322765
9.2242455 ,Left ,47.2423464251947 ,51.5321974304825 ,19.3292384499003
9.2394503 ,Left ,47.2752606866084 ,51.4866994226587 ,19.3183573586648
9.2617781 ,Left ,47.1996234652596 ,51.4670712647866 ,19.3285658550541
9.2842614 ,Left ,47.0775316800413 ,51.4873642340737 ,19.3414028458085
9.3068675 ,Left ,46.9887420694246 ,51.5111682789774 ,19.3587907112632
9.3219922 ,Left ,46.9900008090979 ,51.5237960282832 ,19.3709860039492
9.3442446 ,Left ,47.005490524414 ,51.5155146477184 ,19.3916848328191
9.3669965 ,Left ,47.0474083967369 ,51.4833950555212 ,19.407640708857
9.3818345 ,Left ,47.0760302773903 ,51.4633519155854 ,19.4263914922348
9.4043695 ,Left ,47.1138754045263 ,51.4422672284538 ,19.4326448472421
9.4269052 ,Left ,47.1290498689712 ,51.4675902390504 ,19.4349676954047
9.4419295 ,Left ,47.0833051501674 ,51.5431942130711 ,19.45921361113
9.4718242 ,Left ,47.0021715683874 ,51.5989626818536 ,19.486111032297
9.5017611 ,Left ,46.9311653212502 ,51.6514919171712 ,19.4874646490304
9.5169237 ,Left ,47.0012790841327 ,51.6389419228992 ,19.496092611449
9.5319173 ,Left ,47.1405170755761 ,51.5748986000142 ,19.5215859261978
9.5544727 ,Left ,47.1049021036257 ,51.5387837363101 ,19.5648569591725
9.5769506 ,Left ,47.1031722872166 ,51.6018877592044 ,19.6016633083592
9.5993197 ,Left ,47.1579000034043 ,51.6557351688377 ,19.6189607438879
9.6145272 ,Left ,47.1764270295144 ,51.6651379615144 ,19.6275318825445
9.6369986 ,Left ,47.1723241326937 ,51.6694769821663 ,19.6195648513637
9.6818939 ,Left ,47.1930819377905 ,51.6092873999105 ,19.5617869397843
9.7344748 ,Left ,47.167339705987 ,51.5175706596929 ,19.5187261308235
9.7567912 ,Left ,47.150819368337 ,51.5076234182196 ,19.5173478617106
9.7942748 ,Left ,47.2110194334328 ,51.501861154536 ,19.5454756026516
9.817043 ,Left ,47.2035070461487 ,51.5120959585741 ,19.5662780832828
9.8544412 ,Left ,47.1987006867143 ,51.5571818833506 ,19.6152873338799
9.8767307 ,Left ,47.2307327269138 ,51.5721550236519 ,19.6316529692504
9.9142568 ,Left ,47.2683239605844 ,51.6053234804561 ,19.6531424715896
9.9369202 ,Left ,47.2429204683364 ,51.6236785179975 ,19.6557166844616
9.974413 ,Left ,47.2475590551414 ,51.6472522406268 ,19.6400845878949
9.9968283 ,Left ,47.2410409948967 ,51.6579818473774 ,19.6330023455239
10.0342147 ,Left ,47.2144316830661 ,51.685284563967 ,19.6414697843045
10.0569261 ,Left ,47.2216250265174 ,51.6820043373604 ,19.6565108061428
10.0942481 ,Left ,47.2340219322764 ,51.6898234343209 ,19.6943001552071
10.116728 ,Left ,47.2250204250877 ,51.7113732110562 ,19.7194421106842
10.1541829 ,Left ,47.2628855757427 ,51.741206258429 ,19.7544419362643
10.1768016 ,Left ,47.2858819386676 ,51.7430139145682 ,19.7677261552643
10.2145357 ,Left ,47.2873670012409 ,51.7452014317673 ,19.7744203002824
10.2370031 ,Left ,47.2908587150083 ,51.7366658042892 ,19.7635274390013
10.2743817 ,Left ,47.2729177721451 ,51.7789319683872 ,19.7500990458024
10.2969518 ,Left ,47.1876623326174 ,51.8149844454118 ,19.778779359052
10.3195735 ,Left ,47.0605841296369 ,51.8635666490425 ,19.7809157338408
10.3343079 ,Left ,47.0548174069886 ,51.8586554526046 ,19.7672190017416
10.3569765 ,Left ,47.1431032459203 ,51.8232743700942 ,19.7624719337122
10.3793144 ,Left ,47.1951872790198 ,51.7881383741007 ,19.7611420978138
10.3946808 ,Left ,47.1293434316265 ,51.7904061784458 ,19.7459078602145
10.4173283 ,Left ,47.0621605433183 ,51.8315043908297 ,19.7466467318196
10.4541489 ,Left ,47.1056355331771 ,51.8447158522195 ,19.7023149127011
10.4768792 ,Left ,47.1144124475806 ,51.8128419216474 ,19.6893247433021
10.5219571 ,Left ,47.157143359563 ,51.679414001155 ,19.6690818325425
10.5368496 ,Left ,47.1273094705322 ,51.6370891536603 ,19.6572532498718
10.5744498 ,Left ,47.1792780414616 ,51.6725894068559 ,19.626895336732
10.5967917 ,Left ,47.2149218713718 ,51.7130068410663 ,19.6172874832167
10.6343842 ,Left ,47.1773855964934 ,51.8160346533745 ,19.5997307650476
10.6566636 ,Left ,47.1671732048423 ,51.8593234575134 ,19.583685741411
10.6943198 ,Left ,47.2185416806801 ,51.8945222689867 ,19.5296874562176
10.7168995 ,Left ,47.1951400479226 ,51.9193289975671 ,19.5012122918631
10.7542529 ,Left ,47.1131007397313 ,51.9974768749773 ,19.4387224019345
10.7767831 ,Left ,47.1157714962494 ,52.0286578327906 ,19.4027296915691
10.8144392 ,Left ,47.1193826450567 ,52.0649731146472 ,19.3391037334971
10.8369343 ,Left ,47.0803068811504 ,52.0776825338794 ,19.3190500515022
10.8743259 ,Left ,46.9557935290206 ,52.1293032016725 ,19.3047884597758
10.8966084 ,Left ,46.8978160613642 ,52.1526469778301 ,19.3018157704539
10.9343588 ,Left ,47.0451278839884 ,52.1198147072382 ,19.378428319784
10.9566988 ,Left ,47.130082168903 ,52.0493687713225 ,19.4360853991459
11.0019353 ,Left ,47.1677658078811 ,51.8974833198179 ,19.5136194191433
11.0243142 ,Left ,47.2336501258873 ,51.8683196973702 ,19.5571246500198
11.054267 ,Left ,47.295525243496 ,51.8131403046843 ,19.5608752411617
11.0766701 ,Left ,47.3494343929445 ,51.7943762366322 ,19.5634430302712
11.1142629 ,Left ,47.3758147818314 ,51.8012175349568 ,19.6169644357742
11.1369258 ,Left ,47.3742598685731 ,51.8399202950834 ,19.6508151939953
11.1744249 ,Left ,47.5299276853502 ,51.8762975009675 ,19.7048958535017
11.1968877 ,Left ,47.5703289275702 ,51.889012840361 ,19.733087943395
11.2343198 ,Left ,47.5769693243702 ,51.8777569195766 ,19.7793013934206
11.2566493 ,Left ,47.5687876017323 ,51.8593995111853 ,19.7973363467469
11.3019766 ,Left ,47.5777697326686 ,51.7943474763392 ,19.828811013179
11.3166657 ,Left ,47.5704839465517 ,51.7537617818218 ,19.8268208023722
11.3544837 ,Left ,47.5178047834982 ,51.6837119350986 ,19.8030480719701
11.3769178 ,Left ,47.4865279364537 ,51.6769721645481 ,19.7989283095588
11.3917145 ,Left ,47.4736053332675 ,51.6756124657951 ,19.7901609331483
11.4067735 ,Left ,47.4782484196849 ,51.6788180262417 ,19.7840800719396
11.4371863 ,Left ,47.4706831390352 ,51.6917198982405 ,19.7871969191863
11.4595252 ,Left ,47.4305387277528 ,51.7063981277518 ,19.7885109410777
11.4744276 ,Left ,47.3969784735719 ,51.7134159372026 ,19.7853404457575
11.4979222 ,Left ,47.3953613726366 ,51.7145554488759 ,19.7849819026408
11.5118335 ,Left ,47.4077572982481 ,51.7048474587949 ,19.7784688675543
11.5269041 ,Left ,47.4125305742441 ,51.6944393620191 ,19.7605994625395
11.5494082 ,Left ,47.3953129935497 ,51.6935616485879 ,19.7307790595891
11.5794482 ,Left ,47.3707734164479 ,51.7232565332385 ,19.7121469097779
11.5943401 ,Left ,47.3557779957323 ,51.7394979945971 ,19.6975541361184
11.616889 ,Left ,47.3989391864374 ,51.7320176580776 ,19.6549827023392
11.632018 ,Left ,47.4197671750655 ,51.7070346437813 ,19.6091087383973
11.6469665 ,Left ,47.3870396777932 ,51.6808216703754 ,19.5741826112632
11.66944 ,Left ,47.3175092414009 ,51.6567821998951 ,19.5593254511992
11.6919704 ,Left ,47.300074783177 ,51.6249744596601 ,19.5281767308012
11.7067781 ,Left ,47.3425770685187 ,51.5896375490165 ,19.5036342208817
11.7292957 ,Left ,47.3695281919727 ,51.5492925900494 ,19.4838869993765
11.7518212 ,Left ,47.3228699017384 ,51.5239467217879 ,19.4938797349818
11.7668096 ,Left ,47.2511284539609 ,51.5100365597242 ,19.4932637727821
11.7892891 ,Left ,47.1899152677882 ,51.5186227377521 ,19.5020715601782
11.8122295 ,Left ,47.1678675729012 ,51.5491479496263 ,19.5271662433513
11.8267536 ,Left ,47.1438610522351 ,51.6003635372124 ,19.5348551440301
11.8494347 ,Left ,47.1325903421121 ,51.6457775254713 ,19.5291766310954
11.8724095 ,Left ,47.1964025144284 ,51.6716367021437 ,19.5258662056238
11.8869677 ,Left ,47.2542592677709 ,51.6718503745673 ,19.5120555473464
11.9168138 ,Left ,47.248972108609 ,51.6813400250846 ,19.4800993514743
11.9391178 ,Left ,47.1975123591665 ,51.7274099773391 ,19.4635721572944
11.9544432 ,Left ,47.0970677098755 ,51.7507690910314 ,19.4303251200281
11.9767657 ,Left ,47.086202678856 ,51.7621859117163 ,19.3859754308199
11.991931 ,Left ,47.0805125083598 ,51.7568682332795 ,19.3515380668937
12.0069929 ,Left ,47.060268206623 ,51.7313972564215 ,19.3560788117585
12.0293227 ,Left ,47.0630937647442 ,51.718464014748 ,19.3820890604054
12.0517753 ,Left ,47.1084868703419 ,51.7190170905837 ,19.4111803058178
12.0668622 ,Left ,47.1454802790149 ,51.7380710371188 ,19.4284582464528
12.0891892 ,Left ,47.169378932832 ,51.8311604886472 ,19.4881479814658
12.1118308 ,Left ,47.1663655961724 ,51.9331749720749 ,19.5607810914758
12.1343991 ,Left ,47.0892689283364 ,51.9978072279863 ,19.5819043391996
12.1493071 ,Left ,47.093734836052 ,52.0245293780533 ,19.5743235933875
12.1719826 ,Left ,47.1335155043917 ,52.0129087766179 ,19.5373559155412
12.1942889 ,Left ,47.1259623426443 ,51.9814332033259 ,19.4940929639931
12.2094631 ,Left ,47.0884079298657 ,51.9550329420247 ,19.4545498566839
12.2336203 ,Left ,47.0273337704179 ,51.9565097229022 ,19.4119644040768
12.2542468 ,Left ,47.0114513572165 ,51.9782232305647 ,19.3677014092599
12.269474 ,Left ,47.0711744133194 ,52.0022326553677 ,19.3276144268556
12.2918906 ,Left ,47.1248682773402 ,52.0452576795736 ,19.3095738373273
12.3143452 ,Left ,47.115363747133 ,52.1043285255766 ,19.2938475870688
12.3293717 ,Left ,47.0721530231054 ,52.1560926432489 ,19.279144772084
12.3591088 ,Left ,47.0590702789135 ,52.192740995876 ,19.2559489502401
12.3818682 ,Left ,47.0558710960731 ,52.2161009111975 ,19.2374428798884
12.3968133 ,Left ,47.0661675428023 ,52.2346205919609 ,19.2185764534513
12.4117958 ,Left ,47.0535465699866 ,52.2442671668958 ,19.2076278893806
12.4362104 ,Left ,47.0035403233228 ,52.2410467592735 ,19.1910869599363
12.4567184 ,Left ,46.9694284480919 ,52.2189438993508 ,19.1704657676835
12.4793053 ,Left ,46.9910514645256 ,52.181212391529 ,19.1418258632713
12.5092332 ,Left ,47.0320186336268 ,52.132910192034 ,19.1176118865019
12.5318174 ,Left ,47.09273379366 ,52.1313914521253 ,19.1343755413972
12.5545455 ,Left ,47.0549098067081 ,52.1455406731474 ,19.1512161487056
12.5694138 ,Left ,47.0932798285909 ,52.1385872433698 ,19.1906832285578
12.5919364 ,Left ,47.2601481442138 ,52.0895386761463 ,19.2458027234394
12.6142896 ,Left ,47.3545243173503 ,52.0080852968379 ,19.2878861228252
12.6367389 ,Left ,47.342009939849 ,51.9963376179073 ,19.3692568669764
12.6592553 ,Left ,47.3222259862205 ,51.9881795370351 ,19.4383479777468
12.6818429 ,Left ,47.3392569262083 ,51.9748266820368 ,19.464303784355
12.7118823 ,Left ,47.516568011318 ,51.8721099100887 ,19.471137408792
12.7342604 ,Left ,47.5687286208795 ,51.8235552293138 ,19.491268551716
12.7569175 ,Left ,47.5225088954106 ,51.8087598672165 ,19.5129842770344
12.7716704 ,Left ,47.4957858298038 ,51.8253012721437 ,19.5330778312249
12.7943958 ,Left ,47.5863792666341 ,51.8415283059019 ,19.5485315126143
12.8170339 ,Left ,47.6700592856512 ,51.8582727989064 ,19.5665874113339
12.8317074 ,Left ,47.681455216096 ,51.8843691612665 ,19.5946133527294
12.8542863 ,Left ,47.6714777645999 ,51.9073595003618 ,19.609240581883
12.8694159 ,Left ,47.664061969494 ,51.9205584732198 ,19.6160107293036
12.8919352 ,Left ,47.6736052696645 ,51.9238539739208 ,19.6204903299702
12.914461 ,Left ,47.6789874190475 ,51.9179200061044 ,19.6224860258719
12.9369423 ,Left ,47.6801871386105 ,51.8991513732694 ,19.6324066908597
12.9519798 ,Left ,47.658332774642 ,51.8750186420211 ,19.6395381840467
12.974331 ,Left ,47.6389965737583 ,51.8508067902154 ,19.6427733717333
12.9892554 ,Left ,47.626690713945 ,51.8333916305275 ,19.6434404240426
13.0117837 ,Left ,47.6280130522346 ,51.8252489908034 ,19.6420538307597
13.0344336 ,Left ,47.6371597548817 ,51.8280057245405 ,19.6397186156493
13.0492914 ,Left ,47.6499741567716 ,51.8326236008253 ,19.6344706603626
13.0717336 ,Left ,47.6653392235416 ,51.8272632690764 ,19.6208430651724
13.0947127 ,Left ,47.6696279117008 ,51.823167541089 ,19.6119348320153
13.1168323 ,Left ,47.6333103422828 ,51.8295441240796 ,19.6086198973527
13.1320075 ,Left ,47.5680363480203 ,51.8490752265922 ,19.6044817538399
13.1543266 ,Left ,47.5228601197748 ,51.8632576493745 ,19.5945907055055
13.1770178 ,Left ,47.5216702895595 ,51.8720626258031 ,19.580170886111
13.1918847 ,Left ,47.5226872532908 ,51.8804805652731 ,19.5760552293254
13.2144023 ,Left ,47.5115754683469 ,51.8916608821276 ,19.5851232755614
13.2369764 ,Left ,47.4871615826955 ,51.9011499121099 ,19.5994738334268
13.2518147 ,Left ,47.4179606395956 ,51.9120473403074 ,19.5791847702679
13.2742566 ,Left ,47.4067685644261 ,51.8861133581778 ,19.5549819255631
13.296847 ,Left ,47.4349152048215 ,51.8409217481564 ,19.5234103826626
13.311983 ,Left ,47.3907327432822 ,51.8222957240005 ,19.5052599427479
13.3344544 ,Left ,47.339547125208 ,51.8141483666706 ,19.4741702878821
13.3567924 ,Left ,47.2891780954821 ,51.8310839732142 ,19.4591099599246
13.3718908 ,Left ,47.24908096369 ,51.8524040649482 ,19.4615699390743
13.3942883 ,Left ,47.2084572386096 ,51.859292773391 ,19.4595907167003
13.4169571 ,Left ,47.2292148236977 ,51.872160537726 ,19.4686486780854
13.4318509 ,Left ,47.1813304061741 ,51.8824007275408 ,19.4714118673483
13.4544323 ,Left ,47.1622630369222 ,51.8858819277564 ,19.4871016594894
13.484261 ,Left ,47.193369127417 ,51.8892713845604 ,19.4989643818142
13.4994698 ,Left ,47.2455593655955 ,51.8886707029641 ,19.5022851282394
13.5216801 ,Left ,47.2916099025873 ,51.8894948196969 ,19.5207554361143
13.536999 ,Left ,47.2976115982721 ,51.8807184346282 ,19.5427634587772
13.5518929 ,Left ,47.2803119216092 ,51.8836154115668 ,19.5431316854793
13.5744791 ,Left ,47.2241057268225 ,51.8991877990994 ,19.5403481077683
13.5968563 ,Left ,47.194444300971 ,51.9149156175487 ,19.5185834211647
13.6127966 ,Left ,47.1786979681977 ,51.9129171094613 ,19.4724031502757
13.6342249 ,Left ,47.20282457969 ,51.8788637335473 ,19.4691934485551
13.6568929 ,Left ,47.211064055894 ,51.8767849273469 ,19.4806313606128
13.6719448 ,Left ,47.2358836776215 ,51.8747411395945 ,19.4892025795522
13.6942819 ,Left ,47.2673655235598 ,51.8822035752841 ,19.4973370006675
13.7167956 ,Left ,47.3017316363436 ,51.9244394060868 ,19.5335366720255
13.7318046 ,Left ,47.2907792357035 ,51.9734985836211 ,19.5596456547455
13.7543551 ,Left ,47.2687837526011 ,52.0172420941161 ,19.5748603444793
13.77678 ,Left ,47.2232864571462 ,52.0244156902821 ,19.5824731182364
13.7917499 ,Left ,47.2003197096318 ,52.0119918314031 ,19.5830063161626
13.8142972 ,Left ,47.2426938407028 ,52.0006814791188 ,19.5798157012825
13.8368799 ,Left ,47.2217516201843 ,51.9845341466937 ,19.5617995702493
13.851753 ,Left ,47.1305183033214 ,52.0221852313287 ,19.5381247459757
13.8743416 ,Left ,47.1062065281768 ,52.0596745464289 ,19.4936193248535
13.8969383 ,Left ,47.1681928728597 ,52.0762761973102 ,19.4651066763081
13.9117628 ,Left ,47.1943127803514 ,52.0896893836282 ,19.4369201272952
13.9343484 ,Left ,47.1872203832093 ,52.1210069189196 ,19.4200813752452
13.956771 ,Left ,47.156913421035 ,52.1565118696185 ,19.4036764429262
13.9718228 ,Left ,47.1505766042725 ,52.1819531103112 ,19.3839810092793
13.9942318 ,Left ,47.1547307943781 ,52.2020417191086 ,19.3609234846445
14.0168346 ,Left ,47.1642007184734 ,52.2059100599825 ,19.3322489953825
14.0394826 ,Left ,47.1703511389816 ,52.2047951598106 ,19.3032248558528
14.0542849 ,Left ,47.152908509017 ,52.2142846115522 ,19.284201256287
14.0769639 ,Left ,47.1252253057185 ,52.2261476606639 ,19.2657901409685
14.1018736 ,Left ,47.1020839153638 ,52.2380876443246 ,19.2353856147332
14.1153092 ,Left ,47.0992679457566 ,52.248157193905 ,19.2089211248819
14.1370006 ,Left ,47.1103168489971 ,52.2332073346869 ,19.1902168930255
14.1595159 ,Left ,47.0806484916827 ,52.2247307973062 ,19.1858036512564
14.1744504 ,Left ,47.0767228224113 ,52.2260172538878 ,19.1919221659379
14.1969851 ,Left ,47.0941008458503 ,52.2442672866643 ,19.2055788399545
14.2193363 ,Left ,47.1118171525816 ,52.2698234079506 ,19.2068857899263
14.23428 ,Left ,47.1696404681236 ,52.2702172976054 ,19.2425020820458
14.2567316 ,Left ,47.2177345522505 ,52.2456182829225 ,19.2903528410946
14.2795251 ,Left ,47.2077843262463 ,52.1963007486809 ,19.3287722667424
14.2944955 ,Left ,47.1870415742914 ,52.1797024795025 ,19.3789135757106
14.3168463 ,Left ,47.1902439571994 ,52.1594906581606 ,19.4230664726321
14.3392204 ,Left ,47.1916920720102 ,52.1342713671656 ,19.435639307841
14.3545041 ,Left ,47.2073601152181 ,52.0845775148926 ,19.4307123008723
14.3770595 ,Left ,47.2759070211121 ,52.017871466261 ,19.4347835823295
14.3992611 ,Left ,47.2937375180138 ,51.9608896248355 ,19.4408062078035
14.4219225 ,Left ,47.2637230489875 ,51.9351955312402 ,19.4639824401942
14.4442639 ,Left ,47.2492048582906 ,51.931563827348 ,19.4856136729748
14.4742807 ,Left ,47.3913370276518 ,51.9186893594377 ,19.5194224688769
14.4967674 ,Left ,47.4240303086268 ,51.9313714995448 ,19.5374692228187
14.5192447 ,Left ,47.4243219750758 ,51.9350506243046 ,19.550125084394
14.5342715 ,Left ,47.4122027105937 ,51.9415623971892 ,19.5533181484353
14.5567562 ,Left ,47.413712475946 ,51.9472576587756 ,19.5496026796897
14.5794723 ,Left ,47.4467378295482 ,51.9498276632141 ,19.5479912662149
14.5942716 ,Left ,35.599224720319576 ,38.96723712245978 ,14.66542927191465
14.6168875 ,Left ,23.7320023522581 ,25.97872334948245 ,9.77676670517745
14.6397829 ,Left ,11.863462499336825 ,12.987402405311775 ,4.887244459298075
16.6869438 ,Left ,47.6185221548644 ,52.1964764945105 ,19.7538613685139
16.7319125 ,Left ,47.6076055856195 ,52.1111234683668 ,19.6961861743833
16.7694314 ,Left ,47.6149033092954 ,52.0578250224438 ,19.653153900933
16.7918524 ,Left ,47.6095523893308 ,52.0403105141398 ,19.6348871659772
16.8294647 ,Left ,47.5887022121517 ,52.0379147785379 ,19.6313335301626
16.8517972 ,Left ,47.5870774549442 ,52.0390498717487 ,19.6309638007342
16.8894227 ,Left ,47.5886970945646 ,52.0517873287762 ,19.6263293938414
16.9118815 ,Left ,47.5791765316325 ,52.0450965052868 ,19.6327754346595
16.9494063 ,Left ,47.5604879584679 ,52.0114972025526 ,19.6410730881448
16.9721589 ,Left ,47.5685401234156 ,52.0055171053095 ,19.6597167467968
17.001978 ,Left ,47.5142400003536 ,52.0069604067049 ,19.6846692107364
17.0394971 ,Left ,47.470936295249 ,52.0273284491806 ,19.6769632935077
17.0841993 ,Left ,47.399766177249 ,52.0228802580415 ,19.5612242158517
17.1068898 ,Left ,47.3248901236477 ,52.0052709986769 ,19.5305381825282
17.1217665 ,Left ,47.2362474162008 ,51.9539878549716 ,19.4789083199444
17.1442186 ,Left ,47.2144006332161 ,51.9020064720982 ,19.4363679500465
17.1742214 ,Left ,47.2336102168568 ,51.8541429536226 ,19.4080107081666
17.1894303 ,Left ,47.2082548172703 ,51.834877089016 ,19.3966280137012
17.212684 ,Left ,47.1166635791978 ,51.8580725777289 ,19.4097652899479
17.2268323 ,Left ,47.0754426238971 ,51.8811538130654 ,19.420885392308
17.241938 ,Left ,47.0961297947575 ,51.8904996256258 ,19.4204823725258
17.2644174 ,Left ,47.1369033755363 ,51.8698447009989 ,19.4278061532037
17.2867141 ,Left ,47.178940969602 ,51.8513964389725 ,19.439175250564
17.3018329 ,Left ,47.2214897156245 ,51.833270946683 ,19.4393025906963
17.3243732 ,Left ,47.2276135075359 ,51.8078715510563 ,19.421652374443
17.3468589 ,Left ,47.2246542244501 ,51.8067179300475 ,19.3970774661634
17.3623986 ,Left ,47.2223893997753 ,51.8243606884969 ,19.3911684948858
17.3918677 ,Left ,47.2069526709675 ,51.8363372564017 ,19.3824968941011
17.4141345 ,Left ,47.1839068405986 ,51.8372932017319 ,19.3573914473799
17.429271 ,Left ,47.2134663626568 ,51.8143481657583 ,19.3394615411506
17.4516625 ,Left ,47.2466366843818 ,51.779738602769 ,19.3416209813845
17.4668626 ,Left ,47.2368520112397 ,51.7586183410776 ,19.346351950663
17.4819354 ,Left ,47.2623447316447 ,51.7541199306094 ,19.3383550736665
17.5043684 ,Left ,47.3018022133423 ,51.7660339576191 ,19.3325334476016
17.5268988 ,Left ,47.3128364904478 ,51.8063114318893 ,19.355493129034
17.541763 ,Left ,47.324740598502 ,51.8576998352147 ,19.3790002033769
17.5642609 ,Left ,47.2948103561042 ,51.897351949705 ,19.3946417663679
17.5867661 ,Left ,47.2485686990657 ,51.9170388566083 ,19.3869235785095
17.6019399 ,Left ,47.2656342509293 ,51.94146550906 ,19.3752454212636
17.6252494 ,Left ,47.245162240339 ,51.942984546436 ,19.3678691398145
17.6468401 ,Left ,47.1442097189647 ,51.9731201366558 ,19.367219045493
17.6617273 ,Left ,47.0920367750077 ,52.0048507419378 ,19.3314442896266
17.6843147 ,Left ,47.1366282943451 ,52.0176401581809 ,19.286999944985
17.7067344 ,Left ,47.1876256925009 ,52.0154108962177 ,19.2524939822954
17.7219295 ,Left ,47.1587843943428 ,52.0184368878163 ,19.2323143579716
17.7443127 ,Left ,47.1271723680815 ,52.0351977228729 ,19.2102594393219
17.7669007 ,Left ,47.1384835136 ,52.0413282196629 ,19.1908586563252
17.7893003 ,Left ,47.1645696149214 ,52.0585212064414 ,19.1719603792116
17.8044395 ,Left ,47.1694092950684 ,52.0829605976051 ,19.1508485527547
17.8267314 ,Left ,47.1490493176719 ,52.1162970047432 ,19.1347797771916
17.8494017 ,Left ,47.1241963212192 ,52.1391143393658 ,19.1252519839977
17.8644629 ,Left ,47.1138671398294 ,52.148363374099 ,19.1072378400374
17.8869713 ,Left ,47.1078103133816 ,52.1536369140934 ,19.0809554388632
17.9091701 ,Left ,47.0780166742841 ,52.1589688560379 ,19.0567923442262
17.9244341 ,Left ,47.0507287222159 ,52.1647656583409 ,19.0303397346692
17.9469438 ,Left ,47.0586005050807 ,52.1552892598958 ,19.0020069593996
17.9693009 ,Left ,47.0675277404772 ,52.143999273507 ,18.9816580273676
17.9842818 ,Left ,47.0382127743441 ,52.1607124741497 ,18.9734385479002
18.0069618 ,Left ,46.9783932489795 ,52.1949436360085 ,18.9780444407453
18.0293996 ,Left ,46.8974335568766 ,52.2052928646519 ,18.9765529228549
18.0443169 ,Left ,46.9422837362188 ,52.1766442918087 ,18.9740961535682
18.0667722 ,Left ,47.0213609512019 ,52.1317647638354 ,19.0057087303853
18.096893 ,Left ,47.0540006436376 ,52.0642120793108 ,19.0529931079424
18.1118568 ,Left ,47.0502299759509 ,52.0026999960803 ,19.0843268031865
18.1343972 ,Left ,47.0139767008464 ,51.949589788407 ,19.1178470709451
18.1642395 ,Left ,47.0827016301569 ,51.8589306535135 ,19.1646742842425
18.1867442 ,Left ,47.144812729862 ,51.7897400578514 ,19.1810693198363
18.2093743 ,Left ,47.1582509121986 ,51.7229001305016 ,19.1920505706584
18.2244452 ,Left ,47.1760796827525 ,51.6862032501647 ,19.2069980849716
18.2467684 ,Left ,47.2025945948863 ,51.6630530914491 ,19.2235538334094
18.2694365 ,Left ,47.1998496329196 ,51.6661113717224 ,19.2328427319418
18.2842497 ,Left ,47.2006044973801 ,51.6704245461151 ,19.2349216859102
18.3065959 ,Left ,47.204143281047 ,51.6999773045943 ,19.2445966232158
18.3369801 ,Left ,47.2450398761198 ,51.717925850224 ,19.255679742413
18.3519616 ,Left ,47.2986869447409 ,51.7337416990903 ,19.2629942183661
18.3741148 ,Left ,47.3105669391916 ,51.7405654185483 ,19.2705405817021
18.3894554 ,Left ,47.3051108362533 ,51.7431181778755 ,19.2795318416395
18.4046436 ,Left ,47.31145306375 ,51.7351546573613 ,19.28891677971
18.4268065 ,Left ,47.3272327495573 ,51.7200930717794 ,19.2941649048799
18.4492558 ,Left ,47.3426432786382 ,51.7044344507218 ,19.2925222017836
18.4642399 ,Left ,47.366828890553 ,51.6945159236805 ,19.2912263822616
18.4868522 ,Left ,47.395594135068 ,51.6950377842779 ,19.303490661148
18.5093363 ,Left ,47.422858822205 ,51.686171410868 ,19.3092773180637
18.5243473 ,Left ,47.4227708394174 ,51.6686746516132 ,19.3014783049709
18.5468753 ,Left ,47.4396574359697 ,51.6587273695033 ,19.2960009420304
18.5693911 ,Left ,47.4748002318349 ,51.6612084953624 ,19.3043985885378
18.5844415 ,Left ,47.4649361847086 ,51.6882874867292 ,19.3154818104068
18.606728 ,Left ,47.4436604505902 ,51.7230040215712 ,19.3235021799124
18.6304184 ,Left ,47.4142518359617 ,51.7668059177886 ,19.3392163632395
18.6443645 ,Left ,47.352811267042 ,51.8159050330055 ,19.3512266969967
18.66696 ,Left ,47.2936597713493 ,51.8579259639593 ,19.3572796607433
18.6892836 ,Left ,47.2703839825013 ,51.900070620962 ,19.3559492243877
18.7044081 ,Left ,47.2550102217601 ,51.9227946840074 ,19.3563508792972
18.7269472 ,Left ,47.2329023360196 ,51.925213934116 ,19.3480384066899
18.7492804 ,Left ,47.2046417894271 ,51.9120222577886 ,19.3316144164884
18.771908 ,Left ,47.1734011897177 ,51.884094505466 ,19.3137095488288
18.7867853 ,Left ,47.1557288114625 ,51.8548533196208 ,19.3047716453114
18.8094275 ,Left ,47.1549776761067 ,51.8158090710423 ,19.2912774337629
18.8317989 ,Left ,47.1733870719919 ,51.7695547026016 ,19.2713057572331
18.8469242 ,Left ,47.2208509228254 ,51.7346418395984 ,19.2553126728782
18.8692451 ,Left ,47.2711155869817 ,51.7213287721481 ,19.256695080023
18.8919256 ,Left ,47.3099175248968 ,51.7154199283442 ,19.2542971076764
18.9068281 ,Left ,47.3260425298279 ,51.7387397800316 ,19.2463921623028
18.9293916 ,Left ,47.3153474994798 ,51.7646576834918 ,19.2233594481741
18.9519666 ,Left ,47.3451245716122 ,51.7872999496716 ,19.2285879603671
18.9668928 ,Left ,47.3414851660534 ,51.7955515948851 ,19.2189036997763
18.9892637 ,Left ,47.3434683546996 ,51.8018628248388 ,19.2044950816899
19.0120392 ,Left ,47.3490998121246 ,51.7997302885568 ,19.1992101482928
19.0266961 ,Left ,47.3397590425716 ,51.7861636813022 ,19.1897282114671
19.0492319 ,Left ,47.3593873555191 ,51.7662412052487 ,19.1760162068675
19.0718608 ,Left ,47.3833961409705 ,51.7459118421645 ,19.1634726547439
19.0869336 ,Left ,47.3768385555351 ,51.7429497342172 ,19.1618165078052
19.1092077 ,Left ,47.3582729325214 ,51.7611504218105 ,19.1664701220596
19.1319285 ,Left ,47.3586382199489 ,51.7720759998282 ,19.1613028078778
19.1468331 ,Left ,47.4098304621057 ,51.7737804750255 ,19.1557020163933
19.1693747 ,Left ,47.4373529134529 ,51.7724304955782 ,19.1643923865359
19.1918524 ,Left ,47.4076791692758 ,51.7709110979297 ,19.177156677106
19.2069372 ,Left ,47.3761719823309 ,51.7699480893263 ,19.1852289010332
19.2299659 ,Left ,47.3761719823309 ,51.7699480893263 ,19.1852289010332
19.2519727 ,Left ,47.4056697949397 ,51.7607037281652 ,19.18080437332
19.266953 ,Left ,47.4311439984078 ,51.7495770427148 ,19.1740983658614
19.2893296 ,Left ,47.427858167868 ,51.7447830607286 ,19.1743026779882
19.3117895 ,Left ,47.3997958282461 ,51.7386870534895 ,19.177813693975
19.3268494 ,Left ,47.3983461580789 ,51.7397992058572 ,19.1800438582708
19.3493334 ,Left ,47.4089263605308 ,51.7446517160927 ,19.1839303628105
19.3717526 ,Left ,47.4186054718807 ,51.7556828155062 ,19.1918369989626
19.3867723 ,Left ,47.4077385337155 ,51.7848826755732 ,19.195466387864
19.4093661 ,Left ,47.3541413515156 ,51.8382601362241 ,19.2142220258169
19.4328652 ,Left ,47.2733475313079 ,51.8732687384909 ,19.2352172172485
19.4468572 ,Left ,47.238845945176 ,51.9060232533911 ,19.2499484432658
19.4694468 ,Left ,47.2801220411667 ,51.9004186397443 ,19.2625380565439
19.4919512 ,Left ,47.298068351224 ,51.8881674700059 ,19.2842355249146
19.5068264 ,Left ,47.2860704230143 ,51.8881814420391 ,19.292642963951
19.5292835 ,Left ,47.2714703721463 ,51.8842028153165 ,19.2937637637542
19.5517863 ,Left ,47.2697718425292 ,51.8817949420334 ,19.2838184971283
19.5669998 ,Left ,47.3022936508659 ,51.8668739926485 ,19.2688303035303
19.5967381 ,Left ,47.3212305739373 ,51.8737364518629 ,19.2578317947806
19.6193755 ,Left ,47.2484488433998 ,51.8958963775436 ,19.2777370148699
19.6344645 ,Left ,47.1662546277635 ,51.911797709737 ,19.2874849089545
19.6492274 ,Left ,47.1427458980827 ,51.9120333657606 ,19.2924131638918
19.6719721 ,Left ,47.2030766156105 ,51.8785445489077 ,19.3028685901414
19.6868624 ,Left ,47.2549999935059 ,51.8432448514284 ,19.328507142766
19.7094302 ,Left ,47.254817296223 ,51.8397593756631 ,19.336434712871
19.731778 ,Left ,47.2408476524061 ,51.8539278149382 ,19.3345404718121
19.7544303 ,Left ,47.2348808553186 ,51.8902003565127 ,19.3443903398781
19.7693827 ,Left ,47.245016461227 ,51.9256246126194 ,19.360861169645
19.7919176 ,Left ,47.205022367914 ,51.9607364446369 ,19.3805729335113
19.8145678 ,Left ,47.1717542619889 ,51.9955048145874 ,19.3954090367546
19.8293242 ,Left ,47.1744848263275 ,52.0270638891933 ,19.4143730201833
19.8518561 ,Left ,47.1820141571517 ,52.0446731248748 ,19.4260369750425
19.8819736 ,Left ,47.1799497496217 ,52.0518572783705 ,19.4341174817408
19.8968419 ,Left ,47.1800547876139 ,52.0487227386447 ,19.4283038573804
19.9344284 ,Left ,47.1578611357633 ,52.0374529250781 ,19.4055637712864
19.9492246 ,Left ,47.1468309537349 ,52.0458427153113 ,19.3921262666814
19.9793481 ,Left ,47.1045464997847 ,52.0743953268643 ,19.3850694410342
20.0018824 ,Left ,47.0389616906647 ,52.1179954858581 ,19.3677526276244
20.0167166 ,Left ,47.0465023465945 ,52.1565462168071 ,19.3586586883815
20.0392536 ,Left ,47.0689421761528 ,52.1888747756624 ,19.346469806905
20.0616592 ,Left ,47.0638586387538 ,52.230343749673 ,19.3280693982497
20.0767637 ,Left ,47.0808691175239 ,52.2620528786773 ,19.3013412177062
20.0990899 ,Left ,47.1097337959618 ,52.2764517942897 ,19.2771424369121
20.1143706 ,Left ,47.1192556679556 ,52.2834422860564 ,19.2568193677815
20.1293629 ,Left ,47.1312901184135 ,52.2909422106979 ,19.2342333856203
20.1520101 ,Left ,47.1397326079552 ,52.289561546811 ,19.2156135642332
20.1744046 ,Left ,47.1342829393513 ,52.302748237942 ,19.1983136527419
20.1893856 ,Left ,47.1199527063344 ,52.3347022383811 ,19.1691769181394
20.2118897 ,Left ,47.11857854602 ,52.3782862666214 ,19.1533856117524
20.241908 ,Left ,47.1028169771799 ,52.4219312193339 ,19.1346448315614
20.256926 ,Left ,47.105161782156 ,52.4470646354177 ,19.106451478019
20.2793387 ,Left ,47.1324488218404 ,52.4523884819677 ,19.0790140138393
20.3092777 ,Left ,47.1539484018093 ,52.4600592626698 ,19.0691540971267
20.3319299 ,Left ,47.175458530619 ,52.4602475592509 ,19.0592379602654
20.3542671 ,Left ,47.1700011647842 ,52.4806916298817 ,19.0438036895035
20.3694195 ,Left ,47.2395191557632 ,52.4776228665505 ,19.0588743933211
20.3918632 ,Left ,47.3772617381529 ,52.4442703444557 ,19.1101103346458
20.4144113 ,Left ,47.4812140332521 ,52.3851655942635 ,19.186308398522
20.436709 ,Left ,47.5008753990023 ,52.3380622846631 ,19.2763311907225
20.4517608 ,Left ,47.4903278346495 ,52.2826171530202 ,19.3591610159031
20.4742625 ,Left ,47.4591566794262 ,52.2234030428849 ,19.3918639326973
20.4974087 ,Left ,47.4719063216047 ,52.1728516241729 ,19.4000197830066
20.5117673 ,Left ,47.4955764390143 ,52.1073195160553 ,19.3884727139313
20.5344472 ,Left ,47.5271777378821 ,52.0355377401254 ,19.3917774906251
20.5494534 ,Left ,47.5536749444247 ,51.9704896804029 ,19.4180941855912
20.5717689 ,Left ,47.5086653741716 ,51.9637187119331 ,19.4550662226594
20.5942095 ,Left ,47.4725436386614 ,51.9803411749144 ,19.4799850503081
20.616913 ,Left ,47.5199939621471 ,51.9897006816321 ,19.4999150645359
20.6319532 ,Left ,47.5686971513268 ,51.9939481038212 ,19.5243464959355
20.6542736 ,Left ,47.5749384810115 ,52.0057426536763 ,19.56037320566
20.6768944 ,Left ,47.5559234307149 ,52.009151387869 ,19.5941228577783
20.6917538 ,Left ,47.519295299906 ,51.9976354777792 ,19.6195560956265
20.714294 ,Left ,47.5142439493627 ,51.9836336606987 ,19.6312795774513
20.7369134 ,Left ,47.5242078671185 ,51.9569943401218 ,19.6273380440201
20.7519439 ,Left ,47.5405578435819 ,51.9289078173918 ,19.6306613922769
20.7742014 ,Left ,47.5200479663125 ,51.9103317070136 ,19.6309803499533
20.7968326 ,Left ,47.5011530562302 ,51.9038969668816 ,19.6251148123748
20.8117138 ,Left ,47.4933401800119 ,51.9098233755073 ,19.6090947111632
20.8344403 ,Left ,47.4933613084642 ,51.9171150626077 ,19.5887459111401
20.856981 ,Left ,47.4849964853599 ,51.9358560365364 ,19.5771809210822
20.8720475 ,Left ,47.4511828141121 ,51.9695195094313 ,19.5789649364547
20.8944329 ,Left ,47.436882544176 ,52.0038553271447 ,19.5811643244481
20.9244249 ,Left ,47.4075605461364 ,52.0608239511289 ,19.5857873696716
20.9467426 ,Left ,47.3867881364887 ,52.0656103837473 ,19.5816577702707
20.984382 ,Left ,47.3414592327074 ,52.0594805884408 ,19.5613804587433
21.0069176 ,Left ,47.3017738215963 ,52.0643851175695 ,19.5664939930113
21.0446331 ,Left ,47.3251982608991 ,52.0530702226319 ,19.5893535002233
21.0668071 ,Left ,47.3248538901515 ,52.0491449372952 ,19.5762018049048
21.1041656 ,Left ,47.3103957143752 ,52.0864572278767 ,19.6007218898233
21.1268768 ,Left ,47.3403530617536 ,52.1052454452752 ,19.5792154444028
21.1641926 ,Left ,47.320552008218 ,52.1558467089824 ,19.5668110431756
21.1867158 ,Left ,47.2455320581973 ,52.1757343562392 ,19.5663906237632
21.2243403 ,Left ,47.1303003388684 ,52.1143199204727 ,19.5315101238927
21.2469666 ,Left ,47.084838974266 ,52.0735782629554 ,19.520346418414
21.284224 ,Left ,46.9553097102661 ,52.0499349345306 ,19.5131292429598
21.3068713 ,Left ,47.0303620488471 ,52.0334751744317 ,19.5203131372099
21.3519455 ,Left ,47.1192260185843 ,52.0437710102105 ,19.5153121215824
21.3742711 ,Left ,47.094324874837 ,52.1077528049674 ,19.5228776480344
21.4042383 ,Left ,47.011739185986 ,52.1989206824463 ,19.5194688038666
21.426585 ,Left ,47.067286991505 ,52.2130806659884 ,19.4938272707919
21.4642808 ,Left ,47.0221662370809 ,52.1794584104334 ,19.5183969311527
21.4867294 ,Left ,47.0109419027564 ,52.1601974883387 ,19.5270870481636
21.5241088 ,Left ,47.0891474011357 ,52.1824606514598 ,19.5209990501901
21.5468383 ,Left ,47.0706151623167 ,52.2417066664309 ,19.5435295119047
21.5844358 ,Left ,47.0893119982346 ,52.2407942949113 ,19.5471093539151
21.6065718 ,Left ,47.0432680164236 ,52.226797780803 ,19.5205425680185
21.6441594 ,Left ,47.1004890744017 ,52.2094113148715 ,19.4643293200984
21.6667213 ,Left ,47.0637075951286 ,52.2288134284867 ,19.4528346525623
21.7041112 ,Left ,47.1342169895318 ,52.2966433395311 ,19.3904907323522
21.7266299 ,Left ,47.1851247908129 ,52.3219989945095 ,19.3686143155412
21.7642161 ,Left ,47.1477639398462 ,52.372252383428 ,19.3377667192418
21.7869407 ,Left ,47.1326674097195 ,52.3853783393987 ,19.3221416253982
21.8243992 ,Left ,47.0847244048786 ,52.4205332647004 ,19.2847951103484
21.8466144 ,Left ,47.0697710483763 ,52.4372062997191 ,19.2785562979394
21.8844586 ,Left ,47.0415004847435 ,52.4658014445366 ,19.2595249462888
21.9143586 ,Left ,47.0341038868942 ,52.4621349846361 ,19.2482763256347
21.9519614 ,Left ,47.0906895712664 ,52.4298843118983 ,19.2321854852736
21.9668119 ,Left ,47.1313150425941 ,52.419615061197 ,19.2400732711582
22.0043 ,Left ,47.2470175817003 ,52.3712951525659 ,19.3002466177057
22.0267485 ,Left ,47.3038059464347 ,52.3215760341902 ,19.3136198588518
22.0642287 ,Left ,47.2114092482797 ,52.331780038693 ,19.3848726564223
22.0868315 ,Left ,47.1881885146443 ,52.3127346354531 ,19.3679463958485
22.1244155 ,Left ,47.4099294922992 ,52.1492629238672 ,19.3611033360658
22.1467887 ,Left ,47.470732027638 ,52.0747907054897 ,19.3889919830316
22.1843152 ,Left ,47.3839377369423 ,52.01814748251 ,19.4369806462795
22.2066624 ,Left ,47.5322213742499 ,51.9665009015714 ,19.4583912294606
22.2445827 ,Left ,47.7122190893325 ,51.8848420482267 ,19.498086746921
22.2668047 ,Left ,47.7124186496795 ,51.881568892673 ,19.5122159458973
22.3043294 ,Left ,47.7211151059884 ,51.8904870864037 ,19.5190229363871
22.3268761 ,Left ,47.713196695251 ,51.8928540347594 ,19.5314138996638
22.3642375 ,Left ,47.6454266489354 ,51.8910660414321 ,19.5770175389983
22.3868456 ,Left ,47.6272485545763 ,51.8891267669349 ,19.5917447601217
22.4242825 ,Left ,47.6030531790886 ,51.8749741030819 ,19.6098534801549
22.4468236 ,Left ,47.5822519718916 ,51.8864238433767 ,19.6014551433008
22.4844253 ,Left ,47.5312522769035 ,51.9162636601583 ,19.5881333417281
22.5068927 ,Left ,47.4955016357607 ,51.9168172861242 ,19.579101621109
22.5442527 ,Left ,47.4489893143953 ,51.9052271012196 ,19.5659844891659
22.5669532 ,Left ,47.4481854788278 ,51.9005411750579 ,19.5628135021243
22.6042345 ,Left ,47.4713036023988 ,51.8926377593777 ,19.5344247424944
22.6265841 ,Left ,47.4710935636401 ,51.9265801200345 ,19.5187350021578
22.6643158 ,Left ,47.3572225872989 ,52.05830082348 ,19.5101601660175
22.6868994 ,Left ,47.3204864536828 ,52.0848382521566 ,19.4957771465958
22.7242079 ,Left ,47.3274907333311 ,52.0980595667808 ,19.4905963560973
22.7465267 ,Left ,47.3264934157916 ,52.1107042835788 ,19.4717836103511
22.7617618 ,Left ,47.3197797461813 ,52.1286245551382 ,19.4465164016021
22.7769007 ,Left ,47.2915430265679 ,52.1262604499807 ,19.4216357108698
22.7994375 ,Left ,47.2575045580636 ,52.1020218426721 ,19.3796194449075
22.8217755 ,Left ,47.2058141569288 ,52.0756403074737 ,19.3567826048225
22.8377346 ,Left ,47.1137306796995 ,52.0534900447568 ,19.3643649881796
22.8592615 ,Left ,46.9817846907291 ,52.059965483988 ,19.3611510090459
22.8816272 ,Left ,46.9014633351137 ,52.0855250224508 ,19.3465977890218
22.8968039 ,Left ,46.9776049122909 ,52.1124511358462 ,19.3601237418176
22.9225698 ,Left ,47.0984477421327 ,52.1312355469751 ,19.370118401081
22.9418039 ,Left ,47.1602759144009 ,52.1580344052273 ,19.3801792963834
22.956878 ,Left ,47.126518144325 ,52.2096234793123 ,19.3918845802656
22.9793884 ,Left ,47.0553312526007 ,52.2692669573414 ,19.3934327723857
23.0018274 ,Left ,47.0070253151383 ,52.2826577685427 ,19.3671267652368
23.0169865 ,Left ,47.0143026895041 ,52.2727940269774 ,19.3334396297329
23.0393777 ,Left ,47.0329510130978 ,52.2443999901855 ,19.3256485365707
23.0618794 ,Left ,47.02903319832 ,52.1972353891684 ,19.3410597298571
23.0768785 ,Left ,47.0223494200172 ,52.1629463397285 ,19.3691504941997
23.0992318 ,Left ,47.0450978924081 ,52.1508236597053 ,19.3793786138478
23.1216846 ,Left ,47.0833007272418 ,52.1679803242509 ,19.3874197895798
23.1367487 ,Left ,47.0894012544681 ,52.2043920408333 ,19.4059361561507
23.159417 ,Left ,47.1272315488637 ,52.2273646780789 ,19.4218857096553
23.1817115 ,Left ,47.1307198788733 ,52.2359343467287 ,19.4316875956992
23.1968054 ,Left ,47.0830106141483 ,52.2361960216838 ,19.4320692638093
23.2192458 ,Left ,47.061120883177 ,52.2497410780986 ,19.4185743689512
23.2417967 ,Left ,47.0622253465967 ,52.2513313328516 ,19.4184963953009
23.2567923 ,Left ,47.0311756725178 ,52.2550748749512 ,19.4082234250431
23.2793272 ,Left ,46.9732551471759 ,52.2992188899971 ,19.4006558199797
23.3017794 ,Left ,46.9725968471893 ,52.3436345039548 ,19.3753491169611
23.3168813 ,Left ,47.0472915950443 ,52.3651845707662 ,19.3453903103644
23.3393164 ,Left ,47.0796902706761 ,52.3881687702672 ,19.3167330649757
23.3619296 ,Left ,47.0338732073512 ,52.4159804753142 ,19.3026373086692
23.3767619 ,Left ,47.006817943777 ,52.4359819929341 ,19.2788899166359
23.4069716 ,Left ,47.0229297061012 ,52.4461784744537 ,19.2465186923373
23.429053 ,Left ,47.0301516885923 ,52.4535731432249 ,19.2188521047527
23.4592293 ,Left ,46.9817120049953 ,52.4606501958711 ,19.1521141130173
23.4819317 ,Left ,46.9935393549397 ,52.4470202371915 ,19.1303857398609
23.5042225 ,Left ,47.0145261484626 ,52.4292255300043 ,19.1076122495576
23.5192784 ,Left ,47.0033733909234 ,52.4200457304994 ,19.0896674268814
23.5417708 ,Left ,46.9453364872067 ,52.4296627178846 ,19.0756613703258
23.5649634 ,Left ,46.9076204449476 ,52.4445315673035 ,19.064595622256
23.5792137 ,Left ,46.9000603320565 ,52.4546103330857 ,19.0503396941051
23.6018629 ,Left ,46.908316027131 ,52.4388733672387 ,19.0454349436758
23.6244686 ,Left ,46.8639533870674 ,52.4257252141478 ,19.0549179247889
23.6394119 ,Left ,46.7995182170848 ,52.4219312193339 ,19.0796965872388
23.6618422 ,Left ,46.725831974607 ,52.429388215509 ,19.0895578553822
23.6844147 ,Left ,46.7524696839331 ,52.4191042585285 ,19.0970045948894
23.6993545 ,Left ,46.9005842221368 ,52.3914250860293 ,19.1188408286585
23.7218465 ,Left ,47.0386257314708 ,52.3448836298802 ,19.1462698024406
23.7442731 ,Left ,47.0593156400556 ,52.2877140987718 ,19.1760135100537
23.7593042 ,Left ,47.0259496444356 ,52.2905562748723 ,19.2333397780807
23.7818672 ,Left ,47.0107152706406 ,52.2853398638903 ,19.2720094525479
23.8042607 ,Left ,47.0296739905134 ,52.2748977195863 ,19.2577022480422
23.8194496 ,Left ,47.1205395000746 ,52.2369182956216 ,19.2352175869294
23.8419454 ,Left ,47.1820975367325 ,52.1910541174465 ,19.2461611528498
23.864335 ,Left ,47.1747939133346 ,52.1524003327803 ,19.2897157600112
23.8793752 ,Left ,47.1188404460426 ,52.1333520696871 ,19.333303478678
23.9018477 ,Left ,47.1172698221584 ,52.1481276278627 ,19.3640759619497
23.9241859 ,Left ,47.1797919355103 ,52.17599900527 ,19.3846868067331
23.9392533 ,Left ,47.208585519477 ,52.2002985541422 ,19.3964924770506
23.9617827 ,Left ,47.2186903033657 ,52.2249819084579 ,19.4037205529523
23.9843925 ,Left ,47.2396703115803 ,52.2310202399237 ,19.3996443387306
23.9994355 ,Left ,47.2389681148275 ,52.2301964528115 ,19.3896458578557
24.0218881 ,Left ,47.2400714086223 ,52.231788825911 ,19.3895708180165
24.0442547 ,Left ,47.2610982516411 ,52.220883130439 ,19.3823129849772
24.0591696 ,Left ,47.2753714050766 ,52.1894930796382 ,19.3833605067818
24.0816859 ,Left ,47.3061119049325 ,52.1545284862057 ,19.38899226352
24.104381 ,Left ,47.3200945041044 ,52.1335082169382 ,19.3926510306695
24.1193836 ,Left ,47.3461884617323 ,52.129580787414 ,19.3943820623317
24.1416689 ,Left ,47.3752889689668 ,52.1335474631763 ,19.3991069877589
24.1651212 ,Left ,47.3793926108524 ,52.1428251380834 ,19.4015064700466
24.1792377 ,Left ,47.3538347484041 ,52.1680147945115 ,19.4025094600384
24.2019127 ,Left ,47.3124869291934 ,52.1978178223796 ,19.4093243901145
24.2243056 ,Left ,47.2965586068361 ,52.2231020011648 ,19.4083994306575
24.2395483 ,Left ,35.4855433134516 ,39.1837931412624 ,14.548275835278751
24.2618884 ,Left ,23.6691806201448 ,26.1314666003494 ,9.6961663568882
24.2843522 ,Left ,11.833021134738326 ,13.067781848528025 ,4.846472467455875
26.2867548 ,Left ,47.4259862558885 ,52.2591171646878 ,19.6886960342157
26.309409 ,Left ,47.4334058662693 ,52.2693877110792 ,19.6982125178037
26.3317492 ,Left ,47.4500204484071 ,52.2792790634907 ,19.6997249182634
26.3468842 ,Left ,47.4609598696362 ,52.2947180071362 ,19.695387386457
26.3693657 ,Left ,47.4489237110433 ,52.318684631054 ,19.6853635316453
26.3917622 ,Left ,47.4343953438683 ,52.3392919264858 ,19.6722953600092
26.4068081 ,Left ,47.4401495573674 ,52.3577655816179 ,19.6630501561311
26.4293819 ,Left ,47.4648013387928 ,52.3622258094905 ,19.6498074804088
26.4517262 ,Left ,47.4850104591038 ,52.3605761472555 ,19.6373455979907
26.4668163 ,Left ,47.4908336612037 ,52.3554776905702 ,19.6295414507595
26.4894366 ,Left ,47.4942441152634 ,52.3538561866259 ,19.617185278826
26.5118662 ,Left ,47.5165263773048 ,52.3413429591101 ,19.6065697186856
26.5270269 ,Left ,47.5350266289984 ,52.3338469902285 ,19.5946465159199
26.5492282 ,Left ,47.5669015918822 ,52.3279727514574 ,19.5949017786627
26.5717008 ,Left ,47.6042279777974 ,52.3187092001651 ,19.619427414554
26.5868732 ,Left ,47.625358479005 ,52.3171858059466 ,19.6504565793116
26.6018927 ,Left ,47.6503790780685 ,52.3111330688162 ,19.6690033965059
26.6393847 ,Left ,47.6903633680605 ,52.3029515926341 ,19.677905561467
26.6617028 ,Left ,47.7084911838016 ,52.3046799430568 ,19.6807234891936
26.6993517 ,Left ,47.7661196720984 ,52.3182565301664 ,19.6784857110513
26.7219293 ,Left ,47.7569554117453 ,52.3259783062361 ,19.6688125873773
26.7594021 ,Left ,47.7145943996116 ,52.3604833477698 ,19.5883090078499
26.7817386 ,Left ,47.6862492406068 ,52.3797879858674 ,19.543200763763
26.8190735 ,Left ,47.6147943591867 ,52.4066622252935 ,19.4710445933718
26.8417562 ,Left ,47.601149898145 ,52.4048564173086 ,19.455627901896
26.8791797 ,Left ,47.5982793395157 ,52.3968470660449 ,19.4700796389154
26.9017588 ,Left ,47.6008893197417 ,52.3897634553263 ,19.4851799222062
26.9393852 ,Left ,47.6256384909998 ,52.3795812478778 ,19.5224040823784
26.9618549 ,Left ,47.6123074233081 ,52.3738571404714 ,19.534438497525
27.0002372 ,Left ,47.6222787658918 ,52.3535473543587 ,19.5430165266565
27.021879 ,Left ,47.6291318679725 ,52.346319783042 ,19.5424349452018
27.0592889 ,Left ,47.6455603172481 ,52.3187644507232 ,19.5298023408768
27.0820652 ,Left ,47.6661166730401 ,52.2877025965011 ,19.4919082799521
27.1192309 ,Left ,47.6624779507266 ,52.2095964199429 ,19.396412108149
27.1419261 ,Left ,47.6880634235173 ,52.1851990181467 ,19.3636888631043
27.1793785 ,Left ,47.6111422979083 ,52.195839477019 ,19.3213497978439
27.2016796 ,Left ,47.6052190193095 ,52.2042932667243 ,19.3362870987367
27.2390973 ,Left ,47.6017644686413 ,52.2299879622168 ,19.3517289804632
27.26174 ,Left ,47.5514256430417 ,52.2468963547489 ,19.3569248938991
27.2992145 ,Left ,47.4810680500055 ,52.2901832807482 ,19.3492812127679
27.3217736 ,Left ,47.414176952719 ,52.2902440285002 ,19.3541751210252
27.3594351 ,Left ,47.3082380810679 ,52.2725625753123 ,19.3239707979058
27.381803 ,Left ,47.3430007480579 ,52.2434222036649 ,19.3225558673606
27.4193721 ,Left ,47.3997427825638 ,52.2077507706014 ,19.3182412335537
27.4416049 ,Left ,47.3574487861213 ,52.2467870036417 ,19.3347885703639
27.4810604 ,Left ,47.2347633002148 ,52.3452775511116 ,19.3600164179195
27.5016697 ,Left ,47.2773985776876 ,52.3756488661108 ,19.3661635704517
27.5393074 ,Left ,47.2762972317319 ,52.3740542743739 ,19.3662400919984
27.5619042 ,Left ,47.327088768175 ,52.3752047091032 ,19.356029592689
27.5993466 ,Left ,47.3699050385799 ,52.4101277128608 ,19.3271010090847
27.6216608 ,Left ,47.3667552209285 ,52.4433876873218 ,19.3298606309765
27.659233 ,Left ,47.348850621341 ,52.5029161187866 ,19.3620834784011
27.6833471 ,Left ,47.3689438801772 ,52.5074240403962 ,19.3756663195707
27.7194243 ,Left ,47.3984294821906 ,52.487593266312 ,19.3818062530273
27.7492434 ,Left ,47.3904690341399 ,52.4658811359965 ,19.3738815503189
27.8019106 ,Left ,47.2791493843534 ,52.5172005859604 ,19.3355119754258
27.8392568 ,Left ,47.1801068108454 ,52.5848811984694 ,19.3421018482031
27.8615286 ,Left ,47.2256326795419 ,52.5951076780182 ,19.3532595431382
27.8992578 ,Left ,47.2520956914202 ,52.602711004453 ,19.3367975487389
27.9219277 ,Left ,47.2827682701252 ,52.5962316688511 ,19.3074817788339
27.95939 ,Left ,47.2772947497021 ,52.6563401883074 ,19.2388641990957
27.9817616 ,Left ,47.2437558472288 ,52.6991544900986 ,19.2097159182594
28.0190927 ,Left ,47.2190048276604 ,52.7647573879171 ,19.1050517573739
28.0421667 ,Left ,47.2174009295939 ,52.7749852339528 ,19.054534261437
28.0791879 ,Left ,47.1565888249662 ,52.7939055297954 ,18.9793941799814
28.1016167 ,Left ,47.1368483346405 ,52.7909156507574 ,18.9335513384796
28.1393567 ,Left ,47.1209818014225 ,52.7477939851313 ,18.8874150166716
28.1618653 ,Left ,47.112760263078 ,52.7605845897151 ,18.8870718914808
28.1992699 ,Left ,47.1950318779326 ,52.7472590660595 ,18.9213379366629
28.2218732 ,Left ,47.3031442183555 ,52.7052082259328 ,18.960294502729
28.2593533 ,Left ,47.3706262646549 ,52.5110998287161 ,19.0131831653592
28.2819156 ,Left ,47.388940148309 ,52.4245970185464 ,19.0580271082413
28.3192119 ,Left ,47.4606281915554 ,52.2899620969092 ,19.1448565119972
28.3419116 ,Left ,47.5536360633136 ,52.2133734193556 ,19.1585274649981
28.3793009 ,Left ,47.781656386766 ,52.0695006795193 ,19.2125654134178
28.4018248 ,Left ,47.7222376880871 ,52.0753464621958 ,19.2558046567962
28.4390871 ,Left ,47.8020892400532 ,52.1137831249096 ,19.310580993332
28.4543846 ,Left ,47.8802517222719 ,52.1324951181063 ,19.3506403836998
28.4768419 ,Left ,47.8860873442797 ,52.1569106327236 ,19.3920769977121
28.4917439 ,Left ,47.8695250068166 ,52.1698759644031 ,19.4246067806179
28.5141902 ,Left ,47.8508720552175 ,52.1732792895308 ,19.4443392926412
28.5367636 ,Left ,47.8128428152304 ,52.179960434376 ,19.4568049056522
28.5519172 ,Left ,47.7833140228498 ,52.1858120352712 ,19.4510074953218
28.5742291 ,Left ,47.7683279914104 ,52.188577536038 ,19.4449405137125
28.5966625 ,Left ,47.7530033262085 ,52.1940285278151 ,19.4410396139722
28.6118719 ,Left ,47.7160423881377 ,52.2029394115466 ,19.4368961387062
28.6344093 ,Left ,47.6805030990616 ,52.2173964897726 ,19.4284128193672
28.6568106 ,Left ,47.6554063031717 ,52.2366283555514 ,19.4212022902855
28.6793241 ,Left ,47.6431624909413 ,52.2638031080113 ,19.4177586237608
28.7016515 ,Left ,47.6245307531518 ,52.3055528165567 ,19.4201964401323
28.7328738 ,Left ,47.5663024982666 ,52.3864549035264 ,19.4358215574893
28.7543548 ,Left ,47.5349867611534 ,52.4204754418729 ,19.4371758114338
28.7768724 ,Left ,47.5157905870562 ,52.4480500409896 ,19.4354360425047
28.7918573 ,Left ,47.4769909515826 ,52.4748548655131 ,19.4328152498662
28.8142461 ,Left ,47.4363121426271 ,52.4995212037423 ,19.4206699834633
28.8368669 ,Left ,47.4217389121306 ,52.5030389415374 ,19.4067581058115
28.8516359 ,Left ,47.4011665163508 ,52.4913731308804 ,19.3885192434943
28.8743672 ,Left ,47.3811172163029 ,52.4767454424968 ,19.3702232540829
28.8967565 ,Left ,47.3735487933456 ,52.4527469269542 ,19.3463816017501
28.9118554 ,Left ,47.3858136197953 ,52.4295479018985 ,19.3259756768613
28.9342 ,Left ,47.4115816830643 ,52.4085593468728 ,19.3040557031461
28.9569251 ,Left ,47.4325960921447 ,52.3977621907254 ,19.2967761590183
28.9718437 ,Left ,47.4610558960675 ,52.3944821713721 ,19.2788170636502
28.9943641 ,Left ,47.5146706626 ,52.3888036671766 ,19.2861257648118
29.0168324 ,Left ,47.5912011271087 ,52.3647951323133 ,19.2915571527705
29.0318704 ,Left ,47.5991511898194 ,52.3484021194314 ,19.299354475366
29.0541628 ,Left ,47.5316639369088 ,52.3586511140104 ,19.2714904867184
29.0768982 ,Left ,47.4318828056055 ,52.371567344353 ,19.2025666397829
29.0918732 ,Left ,47.437661222065 ,52.3541309713659 ,19.1354573396534
29.1143312 ,Left ,47.5198389532945 ,52.2943197163074 ,19.0927803102493
29.1367125 ,Left ,47.5468583419021 ,52.2403311656048 ,19.0732239649963
29.1594067 ,Left ,47.4729325502937 ,52.2192856422674 ,19.0639717671722
29.1743781 ,Left ,47.379201116758 ,52.2242604294196 ,19.0796834619173
29.1966743 ,Left ,47.3233126899041 ,52.2218340183937 ,19.1104971072723
29.2192303 ,Left ,47.3056038719972 ,52.2059299348052 ,19.1304346298234
29.2343083 ,Left ,47.3284383061115 ,52.2044387340783 ,19.1314168077902
29.2569196 ,Left ,47.3416126671704 ,52.192244063888 ,19.1432369176039
29.2793343 ,Left ,47.2832708961867 ,52.1906937839839 ,19.1470372665912
29.2942483 ,Left ,47.2674872590717 ,52.1744855704939 ,19.1395962342884
29.3169053 ,Left ,47.3160326676129 ,52.1554448379477 ,19.1221796592796
29.339312 ,Left ,47.3629991496969 ,52.1404459104355 ,19.1120896755058
29.3542599 ,Left ,47.3518572273314 ,52.159371816325 ,19.0895364939405
29.3767571 ,Left ,47.312211894275 ,52.2300006560616 ,19.1139978606145
29.3992696 ,Left ,47.2312410725258 ,52.299193726142 ,19.1435264104472
29.4143624 ,Left ,47.1603503636761 ,52.3348917483861 ,19.1501128510294
29.436785 ,Left ,47.1581129591054 ,52.3419522827757 ,19.1405340236629
29.4592578 ,Left ,47.2232907455144 ,52.3051013996396 ,19.1301309363568
29.4741885 ,Left ,47.2635446114875 ,52.2591726248638 ,19.1360425858287
29.4966964 ,Left ,47.2733973161837 ,52.2320712089281 ,19.1408098842416
29.5192582 ,Left ,47.2618233213478 ,52.2187348307862 ,19.1234712938322
29.5342187 ,Left ,47.2783169551856 ,52.2462842055107 ,19.1318884738964
29.5567412 ,Left ,47.3253448522824 ,52.2971837519548 ,19.1551827360233
29.579452 ,Left ,47.32169389896 ,52.3298190844088 ,19.168710334714
29.5942178 ,Left ,47.2931321340879 ,52.3506508964023 ,19.1764776119087
29.6168031 ,Left ,47.3005074556401 ,52.3614474352594 ,19.1721917332327
29.6391878 ,Left ,47.2993851751524 ,52.3668825055211 ,19.1711983332184
29.6544072 ,Left ,47.283982720236 ,52.3688410214181 ,19.1604480483393
29.6840803 ,Left ,47.2899544116577 ,52.3884278135003 ,19.1589712963667
29.7067031 ,Left ,47.2271895133284 ,52.4355314603333 ,19.1706407486323
29.7227113 ,Left ,47.1016738708367 ,52.4996728361109 ,19.1768895366966
29.7368956 ,Left ,47.0427693512551 ,52.5669847439285 ,19.181122395002
29.7593929 ,Left ,47.1001837760995 ,52.6264134370344 ,19.1807318387887
29.7816691 ,Left ,47.1896740508131 ,52.6563665232076 ,19.1770841529065
29.79667 ,Left ,47.2679526999541 ,52.6659732396232 ,19.1773747418794
29.8193888 ,Left ,47.2564013576747 ,52.6776217893637 ,19.1548209973494
29.8343948 ,Left ,47.2008050852978 ,52.7088121657387 ,19.137047985903
29.8569077 ,Left ,47.1451330777685 ,52.7577239000597 ,19.1116939870254
29.879308 ,Left ,47.1163782437389 ,52.7975129785168 ,19.0725242049594
29.8941562 ,Left ,47.1178561523359 ,52.836673550319 ,19.0263932648635
29.9169171 ,Left ,47.1304240913304 ,52.8777751218128 ,18.9962656159431
29.9392719 ,Left ,47.1108226028973 ,52.8986297197517 ,18.9836664119937
29.9542017 ,Left ,47.0504859168757 ,52.8983144196702 ,18.9594035222211
29.976885 ,Left ,47.0139640819015 ,52.877580683141 ,18.9218368037393
29.9996616 ,Left ,47.0304368901755 ,52.8433183739887 ,18.8926027096733
30.0141902 ,Left ,47.0436292857164 ,52.7743268605583 ,18.8857645773787
30.0368858 ,Left ,47.0177772205703 ,52.7218283776264 ,18.8738191126064
30.0592496 ,Left ,47.053002056329 ,52.6722933904832 ,18.8582661653574
30.0743573 ,Left ,47.0890598133515 ,52.6405361204582 ,18.8726942201817
30.0968341 ,Left ,47.1503135047527 ,52.6068468348981 ,18.9104024865049
30.1194518 ,Left ,47.2506522975541 ,52.5332791816476 ,18.9222751567962
30.1417443 ,Left ,47.3128672831276 ,52.4484325901729 ,18.9551519343671
30.1567236 ,Left ,47.2892367698236 ,52.4118458054028 ,19.0165908047064
30.17919 ,Left ,47.2632616084907 ,52.3549522126951 ,19.0566829086115
30.2019452 ,Left ,47.3363749455695 ,52.2658716508499 ,19.0838989871806
30.216926 ,Left ,47.4274661226627 ,52.1866817087884 ,19.0994142530108
30.239389 ,Left ,47.5449983579278 ,52.1387195855251 ,19.1360964536797
30.2617003 ,Left ,47.567165711249 ,52.1317395173973 ,19.185354883852
30.2768804 ,Left ,47.5156660052986 ,52.156471538612 ,19.2303152660338
30.2991343 ,Left ,47.545054844758 ,52.1739814158183 ,19.26960071039
30.3219032 ,Left ,47.6351360592507 ,52.1830541422679 ,19.2942761826636
30.3367622 ,Left ,47.6710881452942 ,52.1964744593052 ,19.3185787711995
30.3594682 ,Left ,47.6329786968856 ,52.2133796456113 ,19.3362790281308
30.3818501 ,Left ,47.6004385184358 ,52.2108922836001 ,19.3441668741618
30.3966732 ,Left ,47.6024220506131 ,52.1897526126754 ,19.33791018269
30.4192417 ,Left ,47.5838231015718 ,52.1665871597816 ,19.3322486997577
30.4416405 ,Left ,47.5854957691299 ,52.141505625861 ,19.3302025553366
30.4566818 ,Left ,47.5810208051551 ,52.1142288792006 ,19.3339042617434
30.4793147 ,Left ,35.677644007848976 ,39.06358796383567 ,14.505569269569826
30.5090554 ,Left ,23.78154683172755 ,26.03033968904795 ,9.677130007462
30.5243706 ,Left ,11.88661533191465 ,13.013296402699275 ,4.843771101043125
32.4368916 ,Left ,47.5119782126956 ,52.1615418657977 ,19.4020682997915
32.4741395 ,Left ,47.4896521167247 ,52.1466388474805 ,19.4041958625052
32.4965537 ,Left ,47.4744086005251 ,52.1418670034496 ,19.4127543037126
32.5348414 ,Left ,47.4609049642704 ,52.1219067385941 ,19.426259832898
32.5567714 ,Left ,47.4413024532747 ,52.1246405764415 ,19.4325744778127
32.5941543 ,Left ,47.4255042587244 ,52.1637735929772 ,19.4293716646383
32.6168275 ,Left ,47.4422461927609 ,52.1812658983663 ,19.4160907020199
32.6544274 ,Left ,47.4185520032074 ,52.2339212064314 ,19.3822288495763
32.6768537 ,Left ,47.411017619516 ,52.2438680991307 ,19.3647918515985
32.7141029 ,Left ,47.4107893211185 ,52.2408301045752 ,19.3388435828823
32.7367718 ,Left ,47.3937464378318 ,52.2402936794011 ,19.3352940366928
32.774283 ,Left ,47.3705247179694 ,52.2589092192199 ,19.3174092253097
32.7966357 ,Left ,47.3927099466945 ,52.2602407477243 ,19.3009486295122
32.8356682 ,Left ,47.4015897853556 ,52.3011572432005 ,19.2812817572358
32.8566096 ,Left ,47.3833576399443 ,52.3231883021003 ,19.2804793285887
32.894306 ,Left ,47.3133395183994 ,52.3816064342026 ,19.2634324848188
32.9172687 ,Left ,47.2648659191877 ,52.3983134282671 ,19.2436417851825
32.9541661 ,Left ,47.3071486461484 ,52.3704656314202 ,19.2026405546387
32.9766618 ,Left ,47.3030120546577 ,52.3474950933203 ,19.1859574564537
33.0143581 ,Left ,47.2327547439503 ,52.3252478978224 ,19.1694209094475
33.0366787 ,Left ,47.1798291411167 ,52.3245457803048 ,19.1729039409984
33.0816776 ,Left ,47.1090850172885 ,52.3078359338699 ,19.2100262805919
33.104377 ,Left ,47.1317447489235 ,52.288553048887 ,19.2183030935597
33.1341897 ,Left ,47.2410972027347 ,52.2591957432607 ,19.26539260993
33.1569945 ,Left ,47.2730382172762 ,52.2362902727205 ,19.2765293367287
33.1941139 ,Left ,47.2261435983609 ,52.3030478177618 ,19.2848726385659
33.2178295 ,Left ,47.2047360271138 ,52.3376930831948 ,19.290887967785
33.2543193 ,Left ,47.2127203199709 ,52.3213846299073 ,19.2989434019623
33.2842203 ,Left ,47.209806045089 ,52.2721546609005 ,19.3046386723751
33.3218989 ,Left ,47.2017508137312 ,52.2225309341665 ,19.2989343014094
33.3368058 ,Left ,47.2090227635065 ,52.2365375772774 ,19.2835271016995
33.3741228 ,Left ,47.2677606692978 ,52.3116215417449 ,19.2815657401167
33.3968734 ,Left ,47.2425684174836 ,52.3408444023414 ,19.2809975599086
33.4347107 ,Left ,47.1485111787764 ,52.3604099714895 ,19.275159272362
33.4566357 ,Left ,47.1594590346073 ,52.3834130415981 ,19.2732583507732
33.4940031 ,Left ,47.1063707533152 ,52.4554600853809 ,19.2714009532292
33.5167359 ,Left ,47.0826262522274 ,52.5081235512235 ,19.2592753608994
33.5543007 ,Left ,47.1279101881563 ,52.5583512202019 ,19.2012175358997
33.5768645 ,Left ,47.1372861876875 ,52.5588931206603 ,19.1686663293344
33.6143691 ,Left ,47.1812891140682 ,52.5478064392348 ,19.1219966680783
33.6368095 ,Left ,47.1954248164593 ,52.5408596856482 ,19.1089484817107
33.6744636 ,Left ,47.1978214597832 ,52.5479634302754 ,19.1044229334324
33.6965771 ,Left ,47.2290499346366 ,52.5450605177755 ,19.1015785502621
33.7416829 ,Left ,47.2437046078636 ,52.5421048429054 ,19.1018105031116
33.7942164 ,Left ,47.2612817207599 ,52.5263810028024 ,19.0918598149742
33.8167573 ,Left ,47.2518646711664 ,52.5301190981303 ,19.0891832263535
33.8542939 ,Left ,47.2388110891215 ,52.535065172374 ,19.0952200185688
33.8768825 ,Left ,47.2316384865889 ,52.5381761710516 ,19.1143924524041
33.914236 ,Left ,47.2114746936967 ,52.5655167773633 ,19.1931823250083
33.9365676 ,Left ,47.1808981908002 ,52.5927151700681 ,19.235581638412
33.9743874 ,Left ,47.1724219840616 ,52.6335721372217 ,19.3136679267842
33.9965482 ,Left ,47.2121815329271 ,52.6486109114395 ,19.3463968552545
34.0341996 ,Left ,47.1831582029979 ,52.6707484014177 ,19.3927108608352
34.0567748 ,Left ,47.1854348261863 ,52.667363008583 ,19.3948051679295
34.0943633 ,Left ,47.1984487317738 ,52.6476124367185 ,19.4044626799461
34.1164582 ,Left ,47.1907362262549 ,52.6434950419649 ,19.4038802034668
34.1316233 ,Left ,47.1653026267311 ,52.6517557427229 ,19.4035054855087
34.1466588 ,Left ,47.1448214056902 ,52.6636720361191 ,19.4033085891321
34.1693486 ,Left ,47.1370230089206 ,52.6737118778399 ,19.3860352522855
34.1917347 ,Left ,47.1411343157143 ,52.67054959687 ,19.350872912978
34.2067618 ,Left ,47.1389232182812 ,52.6546474348017 ,19.3130011992088
34.2369909 ,Left ,47.1162773135275 ,52.6364899654241 ,19.2772141504278
34.2591378 ,Left ,47.0760803263583 ,52.617451151057 ,19.2461499974213
34.2741606 ,Left ,47.0666207369141 ,52.5868337140109 ,19.2194771847624
34.2892232 ,Left ,47.0500927765277 ,52.5493266323114 ,19.1927496993292
34.3119194 ,Left ,46.9946288078057 ,52.5215715356748 ,19.1599783768981
34.3266169 ,Left ,46.9890202823021 ,52.5068011364793 ,19.1451070541872
34.3492902 ,Left ,47.0280942509997 ,52.4902517734934 ,19.1528488237021
34.3718701 ,Left ,47.0955729936019 ,52.4659608275188 ,19.1926250857308
34.3868027 ,Left ,47.1466764112563 ,52.4135340571376 ,19.2572488334959
34.4092511 ,Left ,47.1423841957605 ,52.3507495617049 ,19.3271153970434
34.431625 ,Left ,47.1690283379262 ,52.308900214585 ,19.381343954108
34.4469997 ,Left ,47.2103987033202 ,52.2647609482852 ,19.408463153547
34.4694518 ,Left ,47.3068935319122 ,52.2171653919562 ,19.418238059556
34.4917454 ,Left ,47.4091778394565 ,52.1814189974855 ,19.440250649612
34.5143196 ,Left ,47.4537679703587 ,52.1864342731356 ,19.4818595418863
34.5291298 ,Left ,47.4865184259055 ,52.1947320973982 ,19.5232494443548
34.55164 ,Left ,47.4947587550484 ,52.2296709758185 ,19.562496840969
34.5742378 ,Left ,47.5517606731845 ,52.2653525948715 ,19.5996493347059
34.5893264 ,Left ,47.6257566631222 ,52.291528485878 ,19.6185462262348
34.6116423 ,Left ,47.6518652452591 ,52.2977315962739 ,19.6255675131268
34.6267758 ,Left ,47.6337061634021 ,52.2957720948721 ,19.6222008437911
34.6492405 ,Left ,47.6131456142498 ,52.2873977867655 ,19.6099826913351
34.6718347 ,Left ,47.5873346761359 ,52.2683770015587 ,19.5959360308935
34.6867784 ,Left ,47.5718436750625 ,52.2598163482363 ,19.5938574531979
34.7093445 ,Left ,47.5620859152212 ,52.2560153916636 ,19.6029836384158
34.7318108 ,Left ,47.551124057643 ,52.2436014958269 ,19.6131553030654
34.7466124 ,Left ,47.533410656839 ,52.2355652483528 ,19.6186181575291
34.7691622 ,Left ,47.4751621139668 ,52.2517711512201 ,19.6257288931106
34.7918484 ,Left ,47.3955621936907 ,52.3026675911948 ,19.6185593337748
34.8067297 ,Left ,47.3254239257907 ,52.3839809930694 ,19.6060210374325
34.8290828 ,Left ,47.2999349929765 ,52.4782495512231 ,19.5868409283139
34.8516477 ,Left ,47.3020284750063 ,52.5636066156788 ,19.577262762281
34.8742681 ,Left ,47.2793581783949 ,52.627116804717 ,19.5764315283757
34.8892503 ,Left ,47.2320193785869 ,52.6627592670256 ,19.5733345959085
34.9117267 ,Left ,47.207722223055 ,52.6631167972653 ,19.5550851355541
34.9341935 ,Left ,47.2126042885096 ,52.6328560987642 ,19.5351448130522
34.9566615 ,Left ,47.2211034161892 ,52.5841131324635 ,19.5030179027702
34.9790449 ,Left ,47.210128730266 ,52.5249515880819 ,19.4661992849629
35.0091741 ,Left ,47.2342132101597 ,52.3715059512545 ,19.3922592307067
35.0391559 ,Left ,47.2713727290589 ,52.2983548144593 ,19.3423722908858
35.0616035 ,Left ,47.2912763420491 ,52.2620849817392 ,19.3161375516379
35.0768429 ,Left ,47.3418898973692 ,52.2763455290038 ,19.3157720117125
35.0918123 ,Left ,47.3342974662227 ,52.3135566399392 ,19.3242771128523
35.1141997 ,Left ,47.3418827759852 ,52.3590760187067 ,19.3311794929007
35.1366379 ,Left ,47.3660825789349 ,52.3732990760484 ,19.3332454924759
35.159329 ,Left ,47.4292152303138 ,52.3610606482091 ,19.3235590169829
35.1891222 ,Left ,47.4429014734515 ,52.2912896859019 ,19.315496529165
35.2118213 ,Left ,47.3973087260297 ,52.2773637391416 ,19.3097386989482
35.234367 ,Left ,47.3429206775178 ,52.2742253961641 ,19.323124592977
35.2491306 ,Left ,47.298414147833 ,52.2480634119913 ,19.3198680482721
35.2718075 ,Left ,47.3032717339613 ,52.2409909487916 ,19.3285199649334
35.2944131 ,Left ,47.3002631731231 ,52.219233913771 ,19.3281511437491
35.3093332 ,Left ,47.2566275825837 ,52.2151339067303 ,19.3174330334094
35.3317601 ,Left ,47.2790920497911 ,52.202965511539 ,19.3073789487417
35.3542349 ,Left ,47.3569847493873 ,52.1703312673572 ,19.3106315748512
35.3691988 ,Left ,47.3890929838045 ,52.1372189586473 ,19.3191604757174
35.3917551 ,Left ,47.386328445447 ,52.1228977325768 ,19.3213979329733
35.4142068 ,Left ,47.3781325838039 ,52.1280695084429 ,19.3358368666619
35.4291731 ,Left ,47.3637589031642 ,52.1244955677918 ,19.340610679388
35.4516732 ,Left ,47.3654078744724 ,52.1301924355375 ,19.3394452726439
35.4741659 ,Left ,47.3665240772369 ,52.1319940160985 ,19.3399281935641
35.4892899 ,Left ,47.3223832553191 ,52.1236103249403 ,19.3299431645148
35.5117056 ,Left ,47.3093937053627 ,52.1118911402185 ,19.3160074965449
35.534266 ,Left ,47.3490194922813 ,52.1242554424725 ,19.3141603590553
35.5493813 ,Left ,47.3789254053365 ,52.1536703030473 ,19.3179264163262
35.571872 ,Left ,47.3839101231274 ,52.1920617403084 ,19.3119357719401
35.5943717 ,Left ,47.3767324542287 ,52.2538167126726 ,19.3296821294754
35.6092553 ,Left ,47.3797665984009 ,52.3096801264779 ,19.3545583864486
35.631799 ,Left ,47.3748281776605 ,52.3397062055489 ,19.3777004881978
35.6550934 ,Left ,47.3767253889867 ,52.3553097243973 ,19.4157229614848
35.6692077 ,Left ,47.3924358115342 ,52.3633071740194 ,19.4511805025017
35.6917516 ,Left ,47.4114618573394 ,52.3487490595497 ,19.4778769430263
35.7217378 ,Left ,47.4444013699714 ,52.3238821408105 ,19.4823725950966
35.7368105 ,Left ,47.4624981204431 ,52.2916146361223 ,19.4782776535728
35.7592983 ,Left ,47.4685107364813 ,52.2794859689104 ,19.4740502383096
35.7741463 ,Left ,47.4440360491091 ,52.2755193708065 ,19.4742363561986
35.7967453 ,Left ,47.4155206831323 ,52.2829644821164 ,19.4678765770853
35.81163 ,Left ,47.4213335194087 ,52.287802762149 ,19.4643022161745
35.8342337 ,Left ,47.4320404876943 ,52.292765988507 ,19.4688464288914
35.8574712 ,Left ,47.4314431344216 ,52.2985796100457 ,19.4741946515802
35.8716454 ,Left ,47.4298050064076 ,52.2997099458123 ,19.4737905668343
35.8941213 ,Left ,47.4309126221316 ,52.3013011591478 ,19.4737189649007
35.9169711 ,Left ,47.4394011253111 ,52.2927433423711 ,19.4730622875359
35.9316953 ,Left ,47.4600917571727 ,52.274623494518 ,19.4635430135202
35.9542457 ,Left ,47.5132311046962 ,52.2548893358484 ,19.4531124836128
35.9771207 ,Left ,47.5656026710594 ,52.2377517128143 ,19.4389051288714
35.9918774 ,Left ,47.5687011920624 ,52.2320519283009 ,19.430132140042
36.0143394 ,Left ,47.5221669756411 ,52.2439207970735 ,19.4359304967895
36.0369363 ,Left ,47.4596842118728 ,52.2606338846801 ,19.4455034522713
36.0516193 ,Left ,47.4600299651568 ,52.2647633440941 ,19.4418121985103
36.0750009 ,Left ,47.4900899143635 ,52.2564893662218 ,19.431583185426
36.0815517 ,Left ,47.4900899143635 ,52.2564893662218 ,19.431583185426
36.0968348 ,Left ,47.4790315416099 ,52.2720525926836 ,19.4171827168826
36.1117258 ,Left ,47.4368230105274 ,52.31124188448 ,19.4013626407214
36.1342819 ,Left ,47.4305288252789 ,52.3548898700661 ,19.3728251074876
36.1566692 ,Left ,47.4628941284897 ,52.391907449568 ,19.3408786485173
36.1717859 ,Left ,47.4885598392368 ,52.4297467004002 ,19.3146813904013
36.2017842 ,Left ,47.5178036070913 ,52.4735188438017 ,19.2786572616915
36.224317 ,Left ,47.5282226785917 ,52.5113526987149 ,19.2256919728702
36.2391769 ,Left ,47.4900203846403 ,52.5478007938081 ,19.1769487383131
36.2543649 ,Left ,47.4555958275363 ,52.576123538986 ,19.123468275004
36.2767243 ,Left ,47.4673756988728 ,52.5745587156771 ,19.0674870004906
36.2917398 ,Left ,47.4986256785722 ,52.5626109436545 ,19.0316786625966
36.3141622 ,Left ,47.4735842310367 ,52.5579948000505 ,19.0102902113874
36.3368174 ,Left ,47.4204894788741 ,52.55413036126 ,18.990816836722
36.3524618 ,Left ,47.3936380749589 ,52.5428764230981 ,18.9808541869484
36.3742708 ,Left ,47.3782477553235 ,52.5550905105531 ,18.9779087116997
36.3966883 ,Left ,47.3384952636073 ,52.5805647511152 ,18.9823815952472
36.4115903 ,Left ,47.255444287628 ,52.6025036887836 ,18.9684397992483
36.4341065 ,Left ,47.248801139603 ,52.5994301810736 ,18.9666210901038
36.4567879 ,Left ,47.2323944188853 ,52.5782785763403 ,18.9857200745628
36.4717236 ,Left ,47.2939525891478 ,52.5167290391792 ,19.0315249717009
36.4940831 ,Left ,47.3495588096269 ,52.4393498314651 ,19.0739383398304
36.5166161 ,Left ,47.3121384890071 ,52.3660042186738 ,19.1083776834138
36.5318401 ,Left ,47.2746580413082 ,52.3310663718657 ,19.1634333798436
36.5543725 ,Left ,47.2938383637379 ,52.3094862265336 ,19.1909150824069
36.5769015 ,Left ,47.3423827765141 ,52.2934720949732 ,19.1971933752288
36.5917495 ,Left ,47.4353645706465 ,52.2483963800611 ,19.1994065433964
36.6218964 ,Left ,47.4941725806516 ,52.2149449610535 ,19.2394048218497
36.6440348 ,Left ,47.4751218030584 ,52.1899131451656 ,19.2741758193309
36.6742228 ,Left ,47.5104096230738 ,52.1776764465444 ,19.333981156235
36.696727 ,Left ,47.6318384052268 ,52.1526899403155 ,19.3567706944336
36.7118798 ,Left ,47.6823383895086 ,52.1213484930626 ,19.3906986640345
36.73423 ,Left ,47.6940886080005 ,52.103559945332 ,19.4095070612541
36.7567035 ,Left ,47.6891293262009 ,52.0824103076608 ,19.4222381665058
36.7792543 ,Left ,47.6728034474013 ,52.0655288265102 ,19.4429046720186
36.7943194 ,Left ,47.6836625862411 ,52.0430673773123 ,19.4584283003798
36.8241318 ,Left ,47.7081808526595 ,52.0229177948543 ,19.4753825774316
36.8465902 ,Left ,47.7068421564932 ,52.0209586035157 ,19.489726874834
36.8616131 ,Left ,47.6786268494179 ,52.0282166958249 ,19.5039683913617
36.8767081 ,Left ,47.66849199435 ,52.0373208135463 ,19.5208576925385
36.8994248 ,Left ,47.659041662188 ,52.0474964457144 ,19.5308371233901
36.9143407 ,Left ,47.6462145546144 ,52.0667963182407 ,19.5359990352242
36.9369047 ,Left ,47.6249029008017 ,52.094266196542 ,19.5409194161673
36.9593492 ,Left ,47.6067987181479 ,52.1232710174985 ,19.5365726751865
36.9742346 ,Left ,47.5960176246828 ,52.1421369604129 ,19.5314120517054
36.9968299 ,Left ,47.5881973063355 ,52.1515345062644 ,19.5247930826491
37.0191481 ,Left ,47.5533000833609 ,52.1602750412504 ,19.510821332907
37.0343144 ,Left ,47.4847229426043 ,52.1724316207441 ,19.4867649605625
37.0589906 ,Left ,47.4089987086221 ,52.1882591086177 ,19.4360968772465
37.0792677 ,Left ,47.3328670105762 ,52.1968518109279 ,19.3660555067087
37.094167 ,Left ,47.2445547683884 ,52.2084666371411 ,19.292822736865
37.1166928 ,Left ,47.1480664549455 ,52.2250798623154 ,19.2191103006554
37.1391784 ,Left ,47.0571647485679 ,52.2324891562524 ,19.1590455342634
37.1543122 ,Left ,46.9971150923525 ,52.2323370663591 ,19.0988840782692
37.1767864 ,Left ,46.9641037562398 ,52.2120383743301 ,19.0300876944614
37.199299 ,Left ,46.9693313272195 ,52.188710773036 ,18.9567393513573
37.2143197 ,Left ,46.9765412522359 ,52.1823869142109 ,18.9119510711683
37.2368912 ,Left ,46.9681366983514 ,52.2082653703122 ,18.9072399787021
37.25939 ,Left ,46.965123251241 ,52.2669970990458 ,18.9576951566687
37.2746412 ,Left ,46.967604588508 ,52.2984410898963 ,19.0074943568178
37.2966713 ,Left ,47.0448140257158 ,52.3350323527989 ,19.0232312126216
37.3194662 ,Left ,47.1406139921586 ,52.3676241090116 ,19.0335703478672
37.3345379 ,Left ,47.1614333591175 ,52.4362567527962 ,19.0545019405101
37.3567726 ,Left ,47.1969652434775 ,52.4851193305071 ,19.0555219290957
37.3792135 ,Left ,47.2761334844707 ,52.4865208078833 ,19.0479716940859
37.3942917 ,Left ,47.3312272003789 ,52.4621300641075 ,19.0601205951275
37.4168141 ,Left ,47.3456236182764 ,52.4231991479608 ,19.073247065664
37.4392024 ,Left ,47.3639634327785 ,52.3764546848792 ,19.0823374712452
37.4543064 ,Left ,47.3975834184659 ,52.341841638068 ,19.0848204658358
37.4765718 ,Left ,47.4325534533842 ,52.309443923316 ,19.0914195691269
37.4994403 ,Left ,47.4532123659376 ,52.2904509545271 ,19.1090878035722
37.5217287 ,Left ,47.4975215096851 ,52.2713893911622 ,19.1243676481507
37.5368558 ,Left ,47.5388413830786 ,52.2649716598788 ,19.1499530371298
37.5592352 ,Left ,47.5469178052302 ,52.2623719931075 ,19.1728141214839
37.5743538 ,Left ,47.553797103786 ,52.2514550615368 ,19.1796757983536
37.5966217 ,Left ,47.5851589687795 ,52.234448379847 ,19.1807184068235
37.6191687 ,Left ,47.6030280797103 ,52.236287158962 ,19.1803793045275
37.6341431 ,Left ,47.5394827596765 ,52.2751833264965 ,19.1964091224305
37.6568629 ,Left ,47.4663902714123 ,52.3417238009803 ,19.2112391978489
37.6794147 ,Left ,47.4121863454492 ,52.3913360972743 ,19.2124973465403
37.7025418 ,Left ,47.3920238395476 ,52.4217408334326 ,19.1930724702903
37.7166912 ,Left ,47.4366917748475 ,52.421266969599 ,19.1739569127713
37.7393485 ,Left ,47.497819019011 ,52.3892448832083 ,19.161074743676
37.7616286 ,Left ,47.4700543513883 ,52.3523518366217 ,19.1485813210845
37.7767701 ,Left ,47.3915173977731 ,52.3387139043728 ,19.1360627030641
37.7992051 ,Left ,47.3804785303869 ,52.3374294885062 ,19.103753282627
37.821761 ,Left ,47.3944149735532 ,52.3194288978175 ,19.0952100969275
37.8367499 ,Left ,47.3907886415488 ,52.3003848216278 ,19.091768367062
37.8593793 ,Left ,47.3879805657438 ,52.303191975864 ,19.0978778346951
37.881705 ,Left ,47.3528327046605 ,52.2864052439362 ,19.1084579783589
37.8967739 ,Left ,47.3469645700846 ,52.2843892737105 ,19.1173768539661
37.9191828 ,Left ,47.3913899419054 ,52.2969843622268 ,19.1232397716673
37.9418249 ,Left ,47.4091994823873 ,52.3333428345119 ,19.1337414490456
37.9568244 ,Left ,47.4027649125924 ,52.3760175993839 ,19.1379003072521
37.9716275 ,Left ,47.4221969473955 ,52.4180911779969 ,19.1471512498412
38.0092542 ,Left ,47.3955387468483 ,52.464782143452 ,19.1985268525998
38.0318351 ,Left ,47.3584703466304 ,52.4796330484752 ,19.2227841201025
38.0691149 ,Left ,47.3393312371104 ,52.4710849793132 ,19.2714463588036
38.0916624 ,Left ,47.2723385318395 ,52.463642957832 ,19.2906522137611
38.1291773 ,Left ,47.3114805378748 ,52.4330888999742 ,19.318114520377
38.1522222 ,Left ,47.1958119452424 ,52.4451376500644 ,19.3363692826014
38.1743304 ,Left ,47.0539555912211 ,52.5098418519955 ,19.3447404302442
38.1891086 ,Left ,47.0928236425518 ,52.5390494493074 ,19.3092763823454
38.2115068 ,Left ,47.2055438709604 ,52.5370470820927 ,19.279641952497
38.2342991 ,Left ,47.2196589308964 ,52.5300315496491 ,19.2666431148904
38.2715539 ,Left ,47.1254831295496 ,52.5470516365293 ,19.226542232988
38.3093055 ,Left ,47.1696311246161 ,52.5811777871926 ,19.1841023508742
38.3316913 ,Left ,47.1802315337273 ,52.6252538713975 ,19.1636219747753
38.3693891 ,Left ,47.1854790243072 ,52.6939703042042 ,19.1237306677038
38.3917343 ,Left ,47.1687133483698 ,52.7162878344885 ,19.0845732417275
38.4291175 ,Left ,47.1599914353817 ,52.7483148240626 ,19.006518670301
38.4517693 ,Left ,47.1480266880646 ,52.7531675440229 ,18.9683134875223
38.4893981 ,Left ,47.1205818683533 ,52.7389169485653 ,18.9205315029688
38.5115922 ,Left ,47.0864788408216 ,52.7310131720782 ,18.9155322426495
38.5491534 ,Left ,47.0974093543947 ,52.6832615480505 ,18.9284892754273
38.5716654 ,Left ,47.1593981473149 ,52.6219305663714 ,18.975274199769
38.6091664 ,Left ,47.2332691981321 ,52.4513881546833 ,19.0424065464705
38.6315651 ,Left ,47.2163834882178 ,52.4145009096615 ,19.1010449993588
38.6696505 ,Left ,47.3687532085589 ,52.3013031962609 ,19.1627787118416
38.6916263 ,Left ,47.462400642638 ,52.2497992884258 ,19.1904457250783
38.7141872 ,Left ,47.5169287091537 ,52.2098348060245 ,19.2482545109581
38.7293684 ,Left ,47.489716899337 ,52.1900927119752 ,19.2980552531852
38.7528605 ,Left ,47.5058373625677 ,52.1776498735016 ,19.3465294910451
38.7743812 ,Left ,47.6563923308287 ,52.1149835309016 ,19.4018272293917
38.7890375 ,Left ,47.777358303483 ,52.0573201659654 ,19.4541265403286
38.8118196 ,Left ,47.7679505963737 ,52.0322735413085 ,19.5283316490304
38.8341664 ,Left ,47.6447029791598 ,52.0365912734936 ,19.5739927846593
38.8493363 ,Left ,47.6019793253478 ,52.0168361417999 ,19.5735595719075
38.8717307 ,Left ,47.6500825336022 ,51.9796949011884 ,19.5676041018619
38.8941389 ,Left ,47.6750037672874 ,51.9502993519715 ,19.5694734385689
38.9092858 ,Left ,47.6479396381018 ,51.9151126989398 ,19.5736887210378
38.9317324 ,Left ,47.5800436258736 ,51.8902194638582 ,19.5801909458227
38.9692289 ,Left ,47.5355633401599 ,51.8883674971174 ,19.579832919854
38.991665 ,Left ,47.5270801770088 ,51.9240554884315 ,19.56919494429
39.0293383 ,Left ,47.5035197088337 ,52.0066983999522 ,19.5621306389223
39.0516531 ,Left ,47.4851853925732 ,52.0249393004378 ,19.566016834323
39.0891922 ,Left ,47.4310296710268 ,52.0331980481786 ,19.5546820031379
39.1118503 ,Left ,47.416621376173 ,52.033478880611 ,19.5321401148009
39.1493108 ,Left ,47.3642572263201 ,52.0653300758177 ,19.4558968322045
39.1716182 ,Left ,47.3351088743509 ,52.0824681950312 ,19.4107410384263
39.209281 ,Left ,47.3054117846472 ,52.1509576910494 ,19.321780568913
39.2315104 ,Left ,47.3223398837595 ,52.221122857389 ,19.2783280309842
39.2692524 ,Left ,47.3221644574685 ,52.3735012451581 ,19.2665849656518
39.2915926 ,Left ,47.2403581343816 ,52.4353733244567 ,19.2518699954788
39.3291625 ,Left ,47.2626728770847 ,52.4655450880941 ,19.2060352997178
39.3519101 ,Left ,47.2532998781284 ,52.4806516582998 ,19.1814849416771
39.3891647 ,Left ,47.0589943828306 ,52.5451439957362 ,19.1891829303999
39.4115115 ,Left ,47.0499344086918 ,52.5389289842512 ,19.1849663308772
39.4493574 ,Left ,47.0051972255491 ,52.5045818626247 ,19.206613846126
39.4715643 ,Left ,46.9895248747012 ,52.491920548929 ,19.223117263905
39.5089512 ,Left ,47.130582136514 ,52.3868716448494 ,19.2563812458808
39.5315311 ,Left ,47.1341330597355 ,52.3399809540026 ,19.2597712645261
39.5692034 ,Left ,47.0172452997982 ,52.3329379294171 ,19.2881214856376
39.592467 ,Left ,47.0050572885678 ,52.3323728867795 ,19.2919946323729
39.6291409 ,Left ,47.0636634090128 ,52.2995311619367 ,19.2973428873898
39.6518254 ,Left ,47.050819162945 ,52.2946125629733 ,19.3162025111561
39.689313 ,Left ,47.1040771840002 ,52.312956344755 ,19.3064289624297
39.7117279 ,Left ,47.1066311596864 ,52.3239099471877 ,19.2950686467805
39.7491275 ,Left ,47.1045178767117 ,52.3587701686826 ,19.2975293947733
39.7717808 ,Left ,47.1011268225792 ,52.3639269342958 ,19.3018939068573
39.8092825 ,Left ,47.1122606535463 ,52.34204135005 ,19.301957868647
39.8241075 ,Left ,47.1345741876834 ,52.3501573314853 ,19.3015900704331
39.8467776 ,Left ,47.1219264544804 ,52.3493870774498 ,19.2997489108867
39.8618236 ,Left ,47.0785418263796 ,52.3696634553897 ,19.2968544314702
39.8841054 ,Left ,47.066460873786 ,52.3873183693937 ,19.2777592401476
39.9066094 ,Left ,47.1162401383831 ,52.3974491524196 ,19.2443694186446
39.9218038 ,Left ,47.1558506991735 ,52.4074042289083 ,19.2067941403236
39.944309 ,Left ,47.1213737751716 ,52.420089757239 ,19.1793909266672
39.9667219 ,Left ,47.0519437018928 ,52.431224083978 ,19.1358947653695
39.9819002 ,Left ,47.0491066970675 ,52.4485591869073 ,19.096767463197
40.0042414 ,Left ,47.0605747174246 ,52.4700105351391 ,19.0541200282427
40.0266422 ,Left ,47.0241351556274 ,52.4942827639327 ,19.0171991919386
40.0418186 ,Left ,46.9869542265307 ,52.5243493498551 ,18.9853814603325
40.0642158 ,Left ,46.9715969393862 ,52.5518293084782 ,18.9561634191759
40.0866535 ,Left ,46.965615487331 ,52.5753681577681 ,18.929086135907
40.1019967 ,Left ,46.9579952302041 ,52.5963609773053 ,18.9090916079577
40.1241923 ,Left ,46.9454716655033 ,52.6131269978463 ,18.9022679217876
40.1467966 ,Left ,46.926779846671 ,52.6243400291429 ,18.9067432673385
40.1616281 ,Left ,46.8583499614051 ,52.6461462466332 ,18.9142192326983
40.1845528 ,Left ,46.8437449060451 ,52.627686739498 ,18.9142683106042
40.2067224 ,Left ,46.8701158543254 ,52.6134819376786 ,18.9376746333227
40.2216587 ,Left ,46.9375757867709 ,52.5713607822288 ,18.9789199549588
40.2441218 ,Left ,47.0223812567678 ,52.5024315526844 ,19.0155839632402
40.2668504 ,Left ,47.0444834606731 ,52.4359977106183 ,19.0513329902275
40.2818316 ,Left ,47.0740933670248 ,52.3874832681942 ,19.1015632580904
40.3043456 ,Left ,47.1330346862451 ,52.3365900414202 ,19.1469802759728
40.3266372 ,Left ,47.2170730473709 ,52.2778699125164 ,19.1754736569103
40.3493066 ,Left ,47.3444767457215 ,52.2371390146477 ,19.2113661485882
40.3643472 ,Left ,47.3793771891837 ,52.2037328300335 ,19.2506955383897
40.3867682 ,Left ,47.355134979683 ,52.2167375628882 ,19.2748706901181
40.4092133 ,Left ,47.325161700037 ,52.2493082145987 ,19.2909326911038
40.4241617 ,Left ,47.3397520253789 ,52.2698369448894 ,19.3095332888967
40.446733 ,Left ,47.3996474524899 ,52.2768035367093 ,19.3196136139566
40.4616434 ,Left ,47.4224396379591 ,52.2786915356815 ,19.327553353177
40.4841384 ,Left ,47.407678291882 ,52.2740664207847 ,19.3418355335371
40.5067297 ,Left ,47.4258095641972 ,52.2691615375192 ,19.3463445715207
40.5291114 ,Left ,47.4437683842241 ,52.2539483495125 ,19.3428551954674
40.5442393 ,Left ,47.4390519695841 ,52.2504694280178 ,19.3458297420148
40.5668163 ,Left ,47.4401551415013 ,52.2452398106975 ,19.3473252257177
40.5891151 ,Left ,47.4359541190633 ,52.2320114509702 ,19.3517804918998
40.6043055 ,Left ,47.4374777839438 ,52.2132964293377 ,19.3621498109417
40.6266127 ,Left ,47.4428920783123 ,52.1865283632631 ,19.3679102108904
40.6492779 ,Left ,47.4307370957 ,52.1553474221279 ,19.3717905153794
40.6642422 ,Left ,47.4114309116326 ,52.1307690292626 ,19.3719840415907
40.6943325 ,Left ,47.3851370433342 ,52.1103049588007 ,19.3643129397788
40.7165172 ,Left ,47.3732385624458 ,52.0997905642753 ,19.3667015567726
40.7318607 ,Left ,47.3558266827601 ,52.1056964311889 ,19.3728439568897
40.7467087 ,Left ,47.3264869969613 ,52.1184716439655 ,19.3857219155373
40.7692013 ,Left ,47.3151703100968 ,52.1362749890596 ,19.4072746068861
40.7841946 ,Left ,47.3221591971248 ,52.1425339993074 ,19.437978545879
40.8068254 ,Left ,47.3444443301376 ,52.1363287145943 ,19.4737930191746
40.8292177 ,Left ,47.3736984862752 ,52.1259433890098 ,19.5348068827605
40.8443045 ,Left ,47.3984454617527 ,52.0992026371649 ,19.5916399169944
40.8666074 ,Left ,47.4551972734156 ,52.0770865819667 ,19.6048880063241
40.8892904 ,Left ,47.4418071503589 ,52.072165396383 ,19.5837909873972
40.904344 ,Left ,47.3977450786207 ,52.0711622639112 ,19.5556279047684
40.9266356 ,Left ,47.3751876158437 ,52.0836893379583 ,19.5290504171318
40.9491382 ,Left ,47.3985906268663 ,52.0972230844368 ,19.4841828810235
40.9643064 ,Left ,47.4247206519383 ,52.1181211052741 ,19.4380344158925
40.9867884 ,Left ,47.4002317738367 ,52.144971186985 ,19.4041567568904
41.0092247 ,Left ,47.3750412310471 ,52.178435815718 ,19.360232826796
41.0242673 ,Left ,47.3472825789453 ,52.2150737985025 ,19.3110008933974
41.0468143 ,Left ,47.3097524778962 ,52.2335604976469 ,19.2898231090009
41.069349 ,Left ,47.2335070259379 ,52.2619241071601 ,19.2807938273081
41.0841646 ,Left ,47.1665075720749 ,52.2785864662948 ,19.304788183947
41.1066219 ,Left ,47.10842160495 ,52.3086444794794 ,19.3146643978249
41.1292714 ,Left ,47.1365098654062 ,52.3042938389665 ,19.3214370006927
41.1442939 ,Left ,47.203159006269 ,52.2827588880797 ,19.3315467514076
41.1667041 ,Left ,47.2368666891595 ,52.2522148041824 ,19.3309912028631
41.1892788 ,Left ,47.2379469919369 ,52.2297540843687 ,19.3113055142966
41.2041818 ,Left ,47.2187452021917 ,52.2573652123041 ,19.2950309248684
41.2267973 ,Left ,47.1857050335563 ,52.3168298589989 ,19.3012399598015
41.2490701 ,Left ,47.154109554141 ,52.364609526065 ,19.2992065066976
41.2643035 ,Left ,47.1498990119988 ,52.4180118834188 ,19.2708469099545
41.2867928 ,Left ,47.1953742763918 ,52.4393891869568 ,19.2594237984725
41.3093601 ,Left ,47.1692645086534 ,52.4493701296933 ,19.2858741830487
41.3242333 ,Left ,47.1409283218921 ,52.4737262494876 ,19.30214136813
41.3466911 ,Left ,47.1863877085572 ,52.484005604996 ,19.3132092814564
41.3691856 ,Left ,47.2506350667535 ,52.4833116634524 ,19.3231908634519
41.3843287 ,Left ,47.250945776624 ,52.5101276179639 ,19.3648578558462
41.4068159 ,Left ,47.2372940726022 ,52.5377822315197 ,19.4078499834307
41.4291248 ,Left ,47.2043750939053 ,52.5621335340405 ,19.4333113357364
41.4442231 ,Left ,47.2060113532402 ,52.5606744097593 ,19.4475318627862
41.4666344 ,Left ,47.2096314874503 ,52.5351457594942 ,19.4364798473485
41.4891618 ,Left ,47.2179033541284 ,52.5021153133329 ,19.4304667856168
41.5116205 ,Left ,47.1940058817717 ,52.4717412696104 ,19.4152143085015
41.5275059 ,Left ,47.1289974986745 ,52.4719915204098 ,19.3956987471654
41.549067 ,Left ,47.0804250133154 ,52.502662069468 ,19.3725943902329
41.5715796 ,Left ,47.1121331389862 ,52.5388588431495 ,19.3342765541403
41.5866285 ,Left ,47.1675095095881 ,52.5751478043052 ,19.2946116880876
41.6092125 ,Left ,47.1519936250377 ,52.6225676664728 ,19.2707767193025
41.6318026 ,Left ,47.1024668389015 ,52.6665333058669 ,19.2380132816409
41.6466503 ,Left ,47.0767442709454 ,52.7039718929339 ,19.1798454925352
41.6703838 ,Left ,47.0790702016685 ,52.7442131925882 ,19.1275514166273
41.691772 ,Left ,47.0709248130363 ,52.7865719710755 ,19.0749345755144
41.7067143 ,Left ,47.0543667399021 ,52.824305678439 ,19.0151878798079
41.729153 ,Left ,47.039612345034 ,52.8504141533588 ,18.9651729443531
41.7516462 ,Left ,46.9978664788053 ,52.8677162321456 ,18.9239259117877
41.7666389 ,Left ,46.9748351414923 ,52.8632897235862 ,18.8851851497284
41.7891612 ,Left ,46.9895614180474 ,52.8470868924559 ,18.860754425323
41.8191113 ,Left ,46.986532489603 ,52.8177197420171 ,18.8558093109678
41.8342911 ,Left ,46.9484937361969 ,52.775373180434 ,18.8540592663915
41.8565855 ,Left ,46.9056249007664 ,52.7360698159615 ,18.8528438065185
41.8716304 ,Left ,46.9303462529428 ,52.7088975916654 ,18.8611652951424
41.8867981 ,Left ,46.9650841057496 ,52.6927930663798 ,18.8793633990743
41.9091641 ,Left ,47.0641609496994 ,52.6551768904964 ,18.9200552351729
41.9318014 ,Left ,47.1536790296772 ,52.579190059989 ,18.9451932714986
41.9466942 ,Left ,47.1650917507505 ,52.5033578251583 ,18.980031746375
41.9691801 ,Left ,47.1475457597059 ,52.4727395159208 ,19.027634207961
41.9917303 ,Left ,47.1156366442958 ,52.4352624615132 ,19.058882736717
42.0067683 ,Left ,47.1296698650389 ,52.3928654670596 ,19.0601562702798
42.0291446 ,Left ,47.1850654500396 ,52.3237525775697 ,19.057233466011
42.0516242 ,Left ,47.1922743884778 ,52.2541676647379 ,19.0486598747395
42.0743511 ,Left ,47.2382963236277 ,52.2058403784026 ,19.065841966701
42.0892926 ,Left ,47.2182028047425 ,52.1760574172589 ,19.0919075810613
42.1117451 ,Left ,47.1740589182259 ,52.1772023221359 ,19.1206002702058
42.1343328 ,Left ,47.1988360768503 ,52.1819008001829 ,19.1417936711101
42.1491435 ,Left ,47.2704688408341 ,52.1753863993437 ,19.143662576766
42.1716912 ,Left ,47.2980690963345 ,52.1771814947008 ,19.1586986455739
42.1867431 ,Left ,47.3272482829708 ,52.1780511031581 ,19.1570763375254
42.2093086 ,Left ,47.3275805940617 ,52.1751436560403 ,19.154388567661
42.2316065 ,Left ,47.3269963174868 ,52.1600855872376 ,19.1634138203168
42.2468162 ,Left ,47.3195286135061 ,52.1385488330614 ,19.1761435511478
42.2693262 ,Left ,47.3068806471751 ,52.1201664473225 ,19.184510269074
42.2917257 ,Left ,47.3397527940994 ,52.0947976415402 ,19.2015448723211
42.3067252 ,Left ,47.3808235175979 ,52.0642393444797 ,19.2215403290403
42.3292301 ,Left ,47.4048437657111 ,52.0332610531006 ,19.2384902327121
42.3517202 ,Left ,47.4129320559577 ,52.0103095275265 ,19.2508745046358
42.366576 ,Left ,47.4086210173419 ,52.0003836286927 ,19.2617129895756
42.3892618 ,Left ,47.3981924732238 ,52.0093539928065 ,19.2753995804076
42.4117484 ,Left ,47.3830663178156 ,52.0287005119786 ,19.2895362843238
42.4341047 ,Left ,47.3893332844083 ,52.0411781697427 ,19.2918093757006
42.4490769 ,Left ,47.3770399301944 ,52.0438709658639 ,19.3023354814857
42.4716654 ,Left ,47.3579638813387 ,52.0440378776381 ,19.3096966046425
42.4941837 ,Left ,47.3291916565165 ,52.0366759200047 ,19.318735540685
42.5093483 ,Left ,47.3135079645565 ,52.0381278318933 ,19.3188934097861
42.5317708 ,Left ,47.3289887890291 ,52.0366850063568 ,19.3161396496673
42.554086 ,Left ,47.3363169496696 ,52.0230767884862 ,19.305898959328
42.569256 ,Left ,47.3050990105069 ,52.0023806264848 ,19.2700000690176
42.5918528 ,Left ,47.2998053624432 ,51.9982776598138 ,19.2284298594434
42.6141135 ,Left ,47.2809069274854 ,51.9882388144839 ,19.1958190726181
42.6292289 ,Left ,47.2618868741243 ,51.9887142301867 ,19.169183182963
42.6517942 ,Left ,47.2620675715945 ,52.0027473278707 ,19.1697651245149
42.6741201 ,Left ,47.2819454647817 ,51.9935208333954 ,19.168149789465
42.6891472 ,Left ,47.3086234899332 ,51.9732367655979 ,19.1727694994766
42.7117015 ,Left ,47.3141427522991 ,51.9467473915496 ,19.1790412601454
42.7341518 ,Left ,47.287715013226 ,51.9393686334994 ,19.1821500659911
42.7493011 ,Left ,47.2430548348721 ,51.9713535079974 ,19.2093032943633
42.7715995 ,Left ,47.1804929117507 ,52.0085505077758 ,19.2524707295719
42.7943046 ,Left ,47.1538997831522 ,52.066909925559 ,19.2847988848682
42.8092144 ,Left ,47.1355623571037 ,52.1056789659202 ,19.2865821978012
42.8317545 ,Left ,47.1562092493253 ,52.135765973738 ,19.2819732429999
42.8552924 ,Left ,47.1997056997539 ,52.1365948298538 ,19.2837248646633
42.8696028 ,Left ,47.2367898092839 ,52.1141628414226 ,19.2741207381568
42.8916081 ,Left ,47.2038519160261 ,52.0875049808284 ,19.2563100164883
42.914093 ,Left ,47.1517995781297 ,52.102169336028 ,19.2542229661491
42.9290558 ,Left ,47.0987265422372 ,52.1254042676622 ,19.2594233439281
42.9591099 ,Left ,47.0893735979332 ,52.1289555025209 ,19.2562987762997
42.9814335 ,Left ,47.1297104133816 ,52.1150859380324 ,19.2541542437945
42.9968145 ,Left ,47.1457725543886 ,52.0757372992947 ,19.2742230790975
43.0116667 ,Left ,47.1229179398266 ,52.0564119796014 ,19.29384737108
43.0342278 ,Left ,47.1207257022026 ,52.0602430292589 ,19.2929566633933
43.0493125 ,Left ,47.1457771496917 ,52.0826529803139 ,19.290140969502
43.0716223 ,Left ,47.1665683673031 ,52.1159642981393 ,19.3114716919042
43.0941053 ,Left ,47.1993989296822 ,52.1494894578429 ,19.3425882768405
43.1100065 ,Left ,47.1927383955867 ,52.1738200676347 ,19.383788332015
43.1318317 ,Left ,47.114839639387 ,52.178643134903 ,19.4186117606757
43.1541827 ,Left ,47.1060893674509 ,52.1627779455818 ,19.4134240985933
43.1693563 ,Left ,47.1341535113316 ,52.1548516079795 ,19.3962306269356
43.1917529 ,Left ,47.1288083016147 ,52.1716263291713 ,19.3860164296928
43.2143221 ,Left ,47.0537026501134 ,52.2290117379735 ,19.3699877255606
43.2290174 ,Left ,47.0253465923981 ,52.2991644881463 ,19.3235150018373
43.2518167 ,Left ,47.0897495390434 ,52.3548667313688 ,19.2814556388907
43.2749486 ,Left ,47.122026477419 ,52.4025122120142 ,19.2413227682381
43.2892259 ,Left ,47.071114720281 ,52.4474799397548 ,19.2086784279187
43.3117138 ,Left ,47.04357076698 ,52.4808258288817 ,19.1782546215477
43.3342881 ,Left ,47.0661151518223 ,52.5007443540254 ,19.1452606599863
43.3491731 ,Left ,47.0808197975678 ,52.5228122478726 ,19.123265688736
43.3717793 ,Left ,47.0721019327719 ,52.5592763329437 ,19.1065192316194
43.3941671 ,Left ,47.0570379133237 ,52.593602875068 ,19.0927916422692
43.416705 ,Left ,47.0461049530633 ,52.6026029598833 ,19.0712348289351
43.4317487 ,Left ,47.0590673312217 ,52.5838538274451 ,19.0511713245057
43.4542552 ,Left ,47.0780011878191 ,52.55247255518 ,19.0378894698525
43.4766036 ,Left ,47.0662754114363 ,52.5384452038283 ,19.0338726507918
43.4918193 ,Left ,47.006486386487 ,52.5311145622178 ,19.0405377924623
43.5143096 ,Left ,46.9651951433487 ,52.5401898511012 ,19.0537685632905
43.5371661 ,Left ,46.9942146077056 ,52.5369830675424 ,19.0565296714115
43.5516563 ,Left ,46.9963742570887 ,52.5227285485476 ,19.0642607420554
43.5741269 ,Left ,46.9877778777603 ,52.4987144225398 ,19.0870139296166
43.5967067 ,Left ,46.9969000953836 ,52.4695214459569 ,19.1228692906341
43.6116335 ,Left ,47.0171808213571 ,52.4291824591797 ,19.1357637299306
43.6342628 ,Left ,47.0722276061044 ,52.3694771211978 ,19.1658606492518
43.6566954 ,Left ,47.12315265852 ,52.3180151548788 ,19.2005416988558
43.6641894 ,Left ,47.1761433293245 ,52.2831518653605 ,19.2484098318726
43.6873925 ,Left ,47.1529896536422 ,52.2663736987631 ,19.2845216572333
43.7241125 ,Left ,47.2310917168117 ,52.2304138055648 ,19.2820271784099
43.7468088 ,Left ,47.3202244454898 ,52.1900407572828 ,19.3006986513243
43.7691362 ,Left ,47.3178810178085 ,52.1722104283278 ,19.3336664138844
43.7841471 ,Left ,47.2983787532826 ,52.1815930447371 ,19.3727265658846
43.806645 ,Left ,47.320255892363 ,52.1920083481659 ,19.4055926674028
43.8440085 ,Left ,47.456110989289 ,52.2072567666429 ,19.4543745565655
43.8667573 ,Left ,47.4883497517441 ,52.2086596429051 ,19.4741598142681
43.904536 ,Left ,47.444803000294 ,52.2014851246045 ,19.4573061703976
43.9265421 ,Left ,47.4549148864394 ,52.2021351036962 ,19.4623631300862
43.9642654 ,Left ,47.4752171828788 ,52.1827243582732 ,19.479130953311
43.9867068 ,Left ,47.4653959776363 ,52.1718879765033 ,19.4892782408824
44.0242356 ,Left ,47.4319961642924 ,52.120919701021 ,19.4823728090016
44.0467576 ,Left ,47.3777014655955 ,52.1054796706383 ,19.4520810452753
44.0843032 ,Left ,47.221402048505 ,52.1087124581748 ,19.3647928068187
44.1068986 ,Left ,47.1559316732571 ,52.1178423499877 ,19.322815839678
44.1440494 ,Left ,46.9976388674657 ,52.1104427723538 ,19.2593129814874
44.1665804 ,Left ,46.93211283679 ,52.0983110030534 ,19.2375836977005
44.2041746 ,Left ,46.8960925220873 ,52.0737110115479 ,19.2045122495067
44.2264798 ,Left ,46.9055490619615 ,52.0735768278363 ,19.1996656992476
44.2642781 ,Left ,46.9532446628371 ,52.0804187119465 ,19.1975947918707
44.2865698 ,Left ,46.9530516580739 ,52.0731682979478 ,19.2125124345253
44.3242486 ,Left ,46.8129156023238 ,52.004355663134 ,19.1599031930845
44.3467352 ,Left ,46.7317102131143 ,51.9475077155401 ,19.1155257621998
44.3767274 ,Left ,46.7058386689839 ,51.8948342068645 ,19.0687146955699
44.3916195 ,Left ,46.6514835475935 ,51.8910410823041 ,19.0300925330999
44.4440927 ,Left ,46.5196205847926 ,52.1288405203354 ,19.0539049991746
44.4664755 ,Left ,46.5465998380344 ,52.1759518447923 ,19.0813365197588
44.5042373 ,Left ,46.4513886692458 ,52.2087703938789 ,19.1425860379064
44.526932 ,Left ,46.548805573227 ,52.179694220168 ,19.1460388949045
44.549057 ,Left ,46.684478903976 ,52.1268769864423 ,19.1495360415148
44.564295 ,Left ,46.7454668140778 ,52.0727757948232 ,19.148917950436
44.5867752 ,Left ,46.7123513708994 ,52.069686401767 ,19.1493037558958
44.6240903 ,Left ,46.6026127120461 ,52.1116618071561 ,19.1446644316577
44.6464109 ,Left ,46.6931296539221 ,52.111700806905 ,19.1344505005253
44.6840312 ,Left ,46.6960863527081 ,52.1333713338196 ,19.1843404243454
44.7065688 ,Left ,46.7099137086016 ,52.1469620671434 ,19.1956231090287
44.7442971 ,Left ,46.769383639931 ,52.1603738973516 ,19.1814378251199
44.766516 ,Left ,46.7643466979276 ,52.1846191627327 ,19.1930817136636
44.8068501 ,Left ,46.7632110905086 ,52.2175786143419 ,19.2196624286142
44.8267303 ,Left ,46.7520347921069 ,52.2013887474704 ,19.2173662585209
44.8642655 ,Left ,46.7735014626348 ,52.2083831849982 ,19.173065795545
44.8864507 ,Left ,46.7349746664603 ,52.2218601227217 ,19.1483662826564
44.9242165 ,Left ,46.7166765225139 ,52.2720698436432 ,19.0999518487236
44.9467086 ,Left ,46.7423071997045 ,52.2991709588496 ,19.0687051347526
44.9844007 ,Left ,46.727272813714 ,52.36871979718 ,19.0236557998405
45.0067805 ,Left ,46.7285915113067 ,52.3989485064441 ,18.9966387453483
45.0440231 ,Left ,46.7253925420686 ,52.45116423439 ,18.9397336100145
45.066541 ,Left ,46.6981739038001 ,52.5031250256078 ,18.9122165901531
45.1040936 ,Left ,46.6903431589918 ,52.5845286467671 ,18.8579241619254
45.1267122 ,Left ,46.6988920432624 ,52.6084139826811 ,18.8374184932471
45.1639778 ,Left ,46.6239573306395 ,52.6242014268906 ,18.8258453866677
45.1891042 ,Left ,46.5942967856047 ,52.5870951899335 ,18.8062715105232
45.2241036 ,Left ,46.7336162905588 ,52.525471209119 ,18.8039102483565
45.246506 ,Left ,46.7750469734053 ,52.505442479764 ,18.8392265379639
45.2840076 ,Left ,46.8804779736074 ,52.4381260991493 ,18.929054697953
45.3066302 ,Left ,46.9217030899037 ,52.4204973953492 ,19.0000734241485
45.344199 ,Left ,46.9332547272849 ,52.3517366992819 ,19.1304965196282
45.3665977 ,Left ,47.0043282719509 ,52.3013428600573 ,19.1717325248063
45.4044482 ,Left ,47.0993059501517 ,52.219895848719 ,19.2446705180478
45.4265086 ,Left ,47.064023074934 ,52.1893859386336 ,19.2572190022165
45.4641502 ,Left ,47.0798529816361 ,52.2018549501624 ,19.2890437469773
45.4867888 ,Left ,47.1272086883823 ,52.2218301865663 ,19.3118637301199
45.5016773 ,Left ,47.1509934059576 ,52.2350822606449 ,19.3234701648059
45.5166308 ,Left ,47.15155779573 ,52.2396147381509 ,19.323451225738
45.5391004 ,Left ,47.1606682308124 ,52.24241640031 ,19.3212501489546
45.5615804 ,Left ,47.1846223225797 ,52.2423689727965 ,19.3223056266584
45.5767092 ,Left ,47.1659279045873 ,52.2361256029175 ,19.3198535358623
45.599265 ,Left ,47.1623952882203 ,52.2241077518727 ,19.3180019122236
45.6218157 ,Left ,47.1495151252772 ,52.2158825082802 ,19.313577198732
45.636511 ,Left ,47.169081621731 ,52.2096832254648 ,19.3154848524738
45.6592648 ,Left ,47.1872134445673 ,52.2045916246575 ,19.3195530410256
45.6892339 ,Left ,47.1982155555234 ,52.199892936874 ,19.3230749234469
45.7042396 ,Left ,47.1880072496402 ,52.2093272633795 ,19.3226946082794
45.7264776 ,Left ,47.1639594639602 ,52.2331449414815 ,19.323160755104
45.7417337 ,Left ,47.1567298180939 ,52.2573164608438 ,19.324085090208
45.7566517 ,Left ,47.1674911554811 ,52.2730535121835 ,19.3201552991442
45.7793127 ,Left ,47.1771477069589 ,52.2731410855829 ,19.3184564615048
45.8017811 ,Left ,47.1623783707416 ,52.2658298435741 ,19.3104489796495
45.8168348 ,Left ,47.1299289637154 ,52.2569905333238 ,19.3056961061608
45.8404734 ,Left ,47.1115374183907 ,52.2475852811573 ,19.3000112984128
45.8616779 ,Left ,47.1175260179847 ,52.2393267073378 ,19.2864421556979
45.8766151 ,Left ,47.1363050198562 ,52.2281765891445 ,19.2846969668144
45.8990625 ,Left ,47.1349766342152 ,52.2263709930953 ,19.2816209558091
45.9216739 ,Left ,47.1094359877823 ,52.227203134818 ,19.2965303596927
45.9366944 ,Left ,47.1027612107047 ,52.2350522012255 ,19.3011991663687
45.9591097 ,Left ,47.1286693353654 ,52.2518240924368 ,19.2962577526119
45.9816614 ,Left ,47.1731846408781 ,52.2709697409504 ,19.3006678983748
45.9965738 ,Left ,47.1895064509302 ,52.2845404761874 ,19.2916110246651
46.0191484 ,Left ,47.1431788419803 ,52.2799925114362 ,19.2659502867302
46.0415829 ,Left ,47.1204094637021 ,52.2714319193198 ,19.2600478446745
46.0566137 ,Left ,47.1041652220751 ,52.2514478749686 ,19.2399474119187
46.0791298 ,Left ,47.1374384329489 ,52.2307075617695 ,19.205981237451
46.1015887 ,Left ,47.1259345869955 ,52.2039345677692 ,19.1925566872098
46.1164877 ,Left ,47.0753825514787 ,52.206272596449 ,19.1979214275342
46.139133 ,Left ,47.0085185392926 ,52.2202387919342 ,19.2026392135853
46.1615981 ,Left ,46.9364125736454 ,52.2683949707124 ,19.2059945109838
46.176604 ,Left ,46.8785662511045 ,52.2952516999439 ,19.2291123706906
46.1991058 ,Left ,46.843148642998 ,52.3305098492636 ,19.237899921673
46.2220378 ,Left ,46.7987499043512 ,52.3563910187544 ,19.2365680941202
46.2441998 ,Left ,46.7860978690685 ,52.3765220765483 ,19.2474854636956
46.2591138 ,Left ,46.8356395055621 ,52.3719301878836 ,19.2418368881316
46.2817082 ,Left ,46.9041895747241 ,52.3396853477106 ,19.2328973072289
46.3041667 ,Left ,46.9175129841535 ,52.296299202455 ,19.226901983085
46.3190349 ,Left ,46.8793198399014 ,52.2685277029509 ,19.2278635218184
46.3416109 ,Left ,46.8679816086243 ,52.2693246986957 ,19.2284773933674
46.3642177 ,Left ,46.8580432180767 ,52.2581440407365 ,19.2350111841158
46.3790764 ,Left ,46.8370695184296 ,52.2314398599194 ,19.2265397940729
46.4017038 ,Left ,46.8969177417575 ,52.2036904471954 ,19.2239465170993
46.4243376 ,Left ,46.9013550311423 ,52.1579961082226 ,19.2236375808245
46.4391086 ,Left ,46.8934187623979 ,52.1427814612379 ,19.2449338393677
46.4616694 ,Left ,46.8708168233023 ,52.1552449800266 ,19.2382424635934
46.4843362 ,Left ,46.857934861579 ,52.1922563943834 ,19.2354176042385
46.4990731 ,Left ,46.9229869560141 ,52.2137004179752 ,19.254662840647
46.5216471 ,Left ,46.9907464430055 ,52.2251359044138 ,19.2833430134899
46.5442058 ,Left ,46.986854368185 ,52.2470489434385 ,19.301929952993
46.5667786 ,Left ,46.936077883429 ,52.3015019947084 ,19.3350379785978
46.5891072 ,Left ,46.9152440544441 ,52.3507953577816 ,19.361475396839
46.6192695 ,Left ,46.9681627288953 ,52.3719389412294 ,19.3688893638331
46.6417525 ,Left ,46.9833043298991 ,52.3624947407889 ,19.3771579990462
46.6644236 ,Left ,46.9371290837932 ,52.3649851752225 ,19.3839085736586
46.6792076 ,Left ,46.8312024376064 ,52.3404555320656 ,19.3735481913642
46.7017997 ,Left ,46.744195074123 ,52.3359411915474 ,19.3346433462647
46.7241701 ,Left ,46.8108382406296 ,52.3321012742108 ,19.3027455420296
46.7392576 ,Left ,46.8060248231506 ,52.3562942665013 ,19.2998939644444
46.7616603 ,Left ,46.7325206438552 ,52.447699052168 ,19.2845357204591
46.7841336 ,Left ,46.7362199347329 ,52.5233917805667 ,19.2389547069079
46.7992578 ,Left ,46.8144475465017 ,52.5647314441145 ,19.1998037176806
46.8217157 ,Left ,46.8234660916909 ,52.5749173588501 ,19.1687572814841
46.8441155 ,Left ,46.7855426525801 ,52.5761472085732 ,19.1293831979831
46.8592934 ,Left ,46.7818308479437 ,52.5822268784753 ,19.0759930138855
46.8815105 ,Left ,46.7860871663983 ,52.589134750348 ,19.0338545726527
46.9041692 ,Left ,46.7619588613126 ,52.6035367862464 ,18.9905585545578
46.9192895 ,Left ,46.7693737987732 ,52.6152698783874 ,18.9480130736377
46.9417779 ,Left ,46.7877784432358 ,52.6189274778203 ,18.9144377424689
46.9641224 ,Left ,46.7873161949097 ,52.6116011200723 ,18.8953454980246
46.9792488 ,Left ,46.7587935697648 ,52.6084457129097 ,18.8719434988075
47.0016477 ,Left ,46.7374126621481 ,52.619222096801 ,18.84982417329
47.0241288 ,Left ,46.7077793846558 ,52.6180918274416 ,18.833438275837
47.0465816 ,Left ,46.6874582538971 ,52.5844315570888 ,18.8155055175719
47.0616634 ,Left ,46.6920101213849 ,52.5663380382093 ,18.8099453602079
47.0842298 ,Left ,46.7035988984485 ,52.5835362458284 ,18.8337343563217
47.099361 ,Left ,46.7513813518395 ,52.5870278982685 ,18.8394664977116
47.1219682 ,Left ,46.7646716715958 ,52.6249985428481 ,18.8383151903229
47.1441563 ,Left ,46.7379749133658 ,52.6451369765864 ,18.8517187076373
47.1666084 ,Left ,46.801372762362 ,52.6219879052069 ,18.8743712148751
