timestamp,event,roll,pitch,yaw
0.0109446 ,Left ,57,5047940861918 ,46,6259956193275 ,88,6701944300487
0.0345561 ,Left ,57,5026495244809 ,46,6211123602491 ,88,6692368268048
0.0496751 ,Left ,57,5026495244809 ,46,6211123602491 ,88,6692368268048
0.0709311 ,Left ,57,5026495244809 ,46,6211123602491 ,88,6692368268048
0.0871924 ,Left ,57,5124342187025 ,46,6181430430739 ,88,6687090679475
0.1097104 ,Left ,57,5143825786145 ,46,6187664421876 ,88,6689144861985
0.1306543 ,Left ,57,5085376958861 ,46,616896229041 ,88,6682986467862
0.1471529 ,Left ,57,4976816079113 ,46,6174235618914 ,88,668349291019
0.1698078 ,Left ,57,4976816079113 ,46,6174235618914 ,88,668349291019
0.1981147 ,Left ,57,4957337763942 ,46,616800030118 ,88,6681448995574
0.2071037 ,Left ,57,4976816079113 ,46,6174235618914 ,88,668349291019
0.2299339 ,Left ,57,4933434831007 ,46,6144556732978 ,88,6647099231547
0.2522696 ,Left ,57,4842416512229 ,46,6113435381162 ,88,6642198086725
0.2674406 ,Left ,57,4776436369834 ,46,607388547864 ,88,6617589464646
0.2899105 ,Left ,57,4776436369834 ,46,607388547864 ,88,6617589464646
0.3124297 ,Left ,57,4776436369834 ,46,607388547864 ,88,6617589464646
0.3274109 ,Left ,57,4776436369834 ,46,607388547864 ,88,6617589464646
0.3498379 ,Left ,57,4776436369834 ,46,607388547864 ,88,6617589464646
0.3723923 ,Left ,57,4765728541918 ,46,6049457355809 ,88,6612842966578
0.3867906 ,Left ,57,4765728541918 ,46,6049457355809 ,88,6612842966578
0.4098818 ,Left ,57,4765728541918 ,46,6049457355809 ,88,6612842966578
0.4323277 ,Left ,57,4765728541918 ,46,6049457355809 ,88,6612842966578
0.4471915 ,Left ,57,4765728541918 ,46,6049457355809 ,88,6612842966578
0.4699039 ,Left ,57,4765728541918 ,46,6049457355809 ,88,6612842966578
0.4924675 ,Left ,57,4765728541918 ,46,6049457355809 ,88,6612842966578
0.5067612 ,Left ,57,482209589654 ,46,6039828564952 ,88,6545805691075
0.5296249 ,Left ,57,4926193882806 ,46,6024528525481 ,88,648011283517
0.5523794 ,Left ,57,5079957453458 ,46,6046188725481 ,88,6423301510438
0.5665986 ,Left ,57,5228635350498 ,46,6028832224635 ,88,6339955342578
0.590401 ,Left ,57,5428220491831 ,46,6016673329809 ,88,6211473974846
0.6124735 ,Left ,57,5721511474646 ,46,5965158682681 ,88,6012681742393
0.6268787 ,Left ,57,6057860964473 ,46,5869299399326 ,88,578868781536
0.6499564 ,Left ,57,637431340302 ,46,5642316819932 ,88,5637610739412
0.6724069 ,Left ,57,654354933153 ,46,5496735788355 ,88,5478713118341
0.6866606 ,Left ,57,6499009821692 ,46,5498487902925 ,88,5180946180796
0.7098152 ,Left ,57,6139753918748 ,46,532925989122 ,88,4750623603075
0.7323738 ,Left ,57,545222873229 ,46,4894540883331 ,88,4290261896109
0.7532986 ,Left ,57,4749256019279 ,46,4507796967444 ,88,3773092885499
0.7698999 ,Left ,57,4379738133743 ,46,4181005603151 ,88,321066121266
0.7923988 ,Left ,57,3926669230389 ,46,3880401867569 ,88,2685276355439
0.8132668 ,Left ,57,3408335101117 ,46,3569267905823 ,88,2081090152978
0.8296941 ,Left ,57,2772229922468 ,46,3302015755689 ,88,1459993356784
0.8523738 ,Left ,57,2208727922421 ,46,3051215197623 ,88,0875924101081
0.873251 ,Left ,57,1688038079372 ,46,2801115916894 ,88,0366237883242
0.8897206 ,Left ,57,1434903655235 ,46,2456054421819 ,87,9827678733586
0.9122597 ,Left ,57,1455023967263 ,46,2099684583848 ,87,919637416602
0.9332656 ,Left ,57,1621867493343 ,46,1821963041886 ,87,8548361639301
0.9497327 ,Left ,57,2111812230769 ,46,1686129313375 ,87,8030202860822
0.9723977 ,Left ,57,2362130102817 ,46,1199325929082 ,87,7621993743461
0.9935454 ,Left ,57,2687586130727 ,46,0638526153759 ,87,7047061745986
1.0097672 ,Left ,57,2994031184253 ,45,9992514273093 ,87,6306419943725
1.032402 ,Left ,57,3010833535774 ,45,9245393720931 ,87,5487826527404
1.0531558 ,Left ,57,3225834815342 ,45,8398923229664 ,87,4543662184485
1.0757355 ,Left ,57,3696884504977 ,45,7508050107249 ,87,3647695788862
1.0996474 ,Left ,57,4167696403058 ,45,6604443847028 ,87,2810596702802
1.1131908 ,Left ,57,4303840056164 ,45,5882434015256 ,87,1951794978333
1.1292347 ,Left ,57,4133610993851 ,45,5450209414694 ,87,113336041057
1.1529565 ,Left ,57,3539625429232 ,45,5439364047479 ,87,0476434314296
1.1823826 ,Left ,57,3358102660548 ,45,6109000236379 ,86,9674821300865
1.188996 ,Left ,57,4177808679839 ,45,7556329663432 ,86,8209098461214
1.2123809 ,Left ,57,5123140958269 ,45,9347023216923 ,86,6555517379694
1.235189 ,Left ,57,6649281484465 ,46,1364990829804 ,86,4408185727513
1.249345 ,Left ,57,8808956397228 ,46,3493975023644 ,86,21397273192
1.2725093 ,Left ,58,039149305021 ,46,5631832864603 ,85,9986933157261
1.2948397 ,Left ,58,1103600923615 ,46,7648316795484 ,85,7764881565879
1.3097528 ,Left ,58,1741131764111 ,46,9741342184008 ,85,5541835358815
1.3323546 ,Left ,58,3351149756385 ,47,2256651927541 ,85,3095036505913
1.3549171 ,Left ,58,4867687306711 ,47,4516447516681 ,85,0360970797532
1.3693028 ,Left ,58,6342483532156 ,47,6289730815644 ,84,7639258522499
1.3923472 ,Left ,58,73920239573 ,47,7899202221231 ,84,5037445471856
1.4206819 ,Left ,58,8086755987215 ,47,9356801754028 ,84,2780470334244
1.4357907 ,Left ,58,854373510814 ,48,0710342464736 ,84,0869129146118
1.4524108 ,Left ,58,8972516577495 ,48,2008020945579 ,83,8980925381429
1.4746208 ,Left ,58,9467918282225 ,48,314661178373 ,83,7080448060119
1.4958018 ,Left ,58,9779655128762 ,48,4133956288387 ,83,5229198557582
1.5123469 ,Left ,58,9811789830868 ,48,5299475294547 ,83,373625994071
1.5350166 ,Left ,58,9964579773681 ,48,6695064290399 ,83,2540285006133
1.5558638 ,Left ,58,9827217715014 ,48,7857976720995 ,83,2129588680676
1.5723339 ,Left ,58,9540518203499 ,48,8108511806936 ,83,2251422095303
1.5949073 ,Left ,59,0348864586725 ,48,7702205698564 ,83,2419114568159
1.6162402 ,Left ,59,1786012860268 ,48,6758020054011 ,83,2671242747855
1.6325179 ,Left ,59,2765618797082 ,48,5824404354617 ,83,3027051331772
1.6548689 ,Left ,59,2495867644206 ,48,4857667137703 ,83,3581105331136
1.6763873 ,Left ,59,1911564005352 ,48,3867674127157 ,83,4008236084838
1.6929102 ,Left ,59,2319452921152 ,48,3072457000983 ,83,4042857191242
1.7152452 ,Left ,59,3410437988243 ,48,2477778183195 ,83,405600079427
1.7360411 ,Left ,59,3802467584582 ,48,2008436253682 ,83,4240358905482
1.7525035 ,Left ,59,3190564318788 ,48,1819686286151 ,83,4453759400474
1.7745646 ,Left ,59,2734661090339 ,48,1812309970238 ,83,4675238585161
1.7956761 ,Left ,59,2714635966246 ,48,182652426307 ,83,5017476166719
1.8125679 ,Left ,59,2974262817765 ,48,1807156074443 ,83,5535349989725
1.8348619 ,Left ,59,2898503343973 ,48,1628178162368 ,83,604302237672
1.8561734 ,Left ,59,3116168142636 ,48,1404178165558 ,83,6270805339999
1.8727275 ,Left ,59,3256504270098 ,48,1060477442433 ,83,6433872228413
1.8949403 ,Left ,59,3146709465858 ,48,0756581860311 ,83,6547262326399
1.9158084 ,Left ,59,2876379838459 ,48,0582855205584 ,83,6551463811337
1.9323819 ,Left ,59,2820435213388 ,48,0258540985875 ,83,6502902914592
1.9546658 ,Left ,59,2843276294 ,47,9877937252257 ,83,6562692720582
1.9758024 ,Left ,59,2705377840635 ,47,9455892352128 ,83,6622920863461
1.9928217 ,Left ,59,2641012879773 ,47,9375282151192 ,83,6704252390224
2.0152701 ,Left ,59,2562239528241 ,47,9298811620748 ,83,6828629244513
2.0364063 ,Left ,59,2572049327587 ,47,9149002923889 ,83,6969831242571
2.0524678 ,Left ,59,2847739318069 ,47,9063011300639 ,83,706219919648
2.0746356 ,Left ,59,3365688969061 ,47,9078546558933 ,83,7183793990368
2.0972585 ,Left ,59,4188769830383 ,47,9112103133215 ,83,724319086938
2.1124352 ,Left ,59,4153218255345 ,47,8977139132226 ,83,714752277476
2.1422435 ,Left ,59,3840041238794 ,47,8773221699778 ,83,7004370590461
2.1573592 ,Left ,59,381729047124 ,47,8630024064297 ,83,6963841955229
2.1724932 ,Left ,59,3981751325015 ,47,8637361389435 ,83,6832648389231
2.1947095 ,Left ,59,3688253968271 ,47,8516990927164 ,83,659193905946
2.2172239 ,Left ,59,3552380033228 ,47,8454845583212 ,83,6457912444504
2.232357 ,Left ,59,3582080500342 ,47,8521981080349 ,83,6268307980792
2.2552263 ,Left ,59,3277999982544 ,47,8408993771786 ,83,6062988992824
2.2776534 ,Left ,59,2968459283291 ,47,8336914711073 ,83,577915880155
2.2917968 ,Left ,59,2195623386183 ,47,8561492291859 ,83,5366702218637
2.314909 ,Left ,59,1464973054003 ,47,8539764760502 ,83,4799868005906
2.3372855 ,Left ,59,0548643466132 ,47,7945995005541 ,83,4477215846105
2.3516298 ,Left ,59,041891267345 ,47,7619836139584 ,83,4543702202083
2.3748324 ,Left ,59,0830369937744 ,47,7643216989312 ,83,4426149043851
2.3974689 ,Left ,59,1464812810969 ,47,7632491295907 ,83,4005472481007
2.418199 ,Left ,59,1976628685122 ,47,7426362250857 ,83,3619733544475
2.4345834 ,Left ,59,1946199144945 ,47,7776618556774 ,83,3485748135627
2.4574322 ,Left ,59,1308455001614 ,47,8164117373339 ,83,3260050671394
2.4716008 ,Left ,59,0943481493622 ,47,7616838498179 ,83,2832814824912
2.4950247 ,Left ,59,0062721749691 ,47,6887655456679 ,83,2808746857567
2.5173639 ,Left ,58,9561704717675 ,47,6066760294903 ,83,3253029715185
2.5386941 ,Left ,59,051490773566 ,47,6235177349055 ,83,3583430998819
2.5549299 ,Left ,59,1527042300014 ,47,6567962133498 ,83,3669087232892
2.5774762 ,Left ,59,209164647676 ,47,6484350973589 ,83,3564685474905
2.5984886 ,Left ,59,1806272203482 ,47,6562360287746 ,83,3468713068119
2.6150333 ,Left ,59,0975300137549 ,47,7066940974719 ,83,3382651679471
2.6370532 ,Left ,59,0219219640204 ,47,6907599228366 ,83,317440584913
2.6584241 ,Left ,58,9859074258114 ,47,6126010400975 ,83,3400871028037
2.6746168 ,Left ,59,0504727406599 ,47,5583705248806 ,83,3887076318804
2.6982708 ,Left ,59,12312903975 ,47,5746320571195 ,83,3913312145107
2.7190257 ,Left ,59,1327786163597 ,47,5939672621626 ,83,4018979770062
2.735272 ,Left ,59,0890435168929 ,47,6403657517814 ,83,393752422439
2.7590957 ,Left ,59,0335232665115 ,47,6838823909349 ,83,3610575000342
2.7787481 ,Left ,59,0673380213736 ,47,7347868418624 ,83,3196669217334
2.7950405 ,Left ,58,9869462988429 ,47,7020730867377 ,83,2882788392538
2.8173442 ,Left ,58,8715778030741 ,47,6578132411723 ,83,2803673744111
2.8384271 ,Left ,58,8364071493042 ,47,6472768733509 ,83,3002836846119
2.8549411 ,Left ,58,8244313801349 ,47,7259963546601 ,83,2705011767212
2.8774166 ,Left ,58,8676761958745 ,47,764238226673 ,83,1958752266089
2.8983953 ,Left ,58,8680228891572 ,47,7432596911634 ,83,1183415161678
2.9146085 ,Left ,58,6853651245178 ,47,7252992337426 ,83,0245191725115
2.937209 ,Left ,58,5951516568332 ,47,7258071896143 ,82,8928563941015
2.9584926 ,Left ,58,5944280769856 ,47,6637089118798 ,82,7805493350867
2.974299 ,Left ,58,5629012782582 ,47,5691548020152 ,82,6967854684194
2.9972101 ,Left ,58,3306674316951 ,47,4421099514297 ,82,7588485219607
3.0184159 ,Left ,58,2227149376583 ,47,3542914176555 ,82,8820215193394
3.0341166 ,Left ,58,3606392797736 ,47,2383042398654 ,82,9509302239937
3.0573407 ,Left ,58,6289812577248 ,47,1832055266959 ,82,9833460849435
3.0798658 ,Left ,58,826655489615 ,47,2271781813108 ,83,1067180060551
3.0941707 ,Left ,58,8009871649744 ,47,3678713552155 ,83,2049012298052
3.1171998 ,Left ,58,9157618567077 ,47,4960000823077 ,83,180563964101
3.1399998 ,Left ,58,9217130254359 ,47,3901460072774 ,83,1990274252175
3.1543217 ,Left ,58,948757740725 ,47,1890397623128 ,83,2368735080931
3.1773687 ,Left ,58,968194795217 ,47,0521429934117 ,83,2467151512268
3.1995893 ,Left ,58,9337387507983 ,47,0393151215062 ,83,2391970422183
3.2146344 ,Left ,58,9380816629781 ,47,0146972009111 ,83,2426721763561
3.2371243 ,Left ,58,9773351610327 ,46,9896881210943 ,83,2498420209205
3.2597925 ,Left ,58,9833585947829 ,47,0101859194183 ,83,2482889904223
3.2741471 ,Left ,59,022404230049 ,47,0668018054167 ,83,2432179350709
3.297853 ,Left ,59,107562258237 ,47,1101465272538 ,83,2522269652289
3.3202087 ,Left ,59,1517786858374 ,47,1257684638898 ,83,2606699969843
3.3357391 ,Left ,59,2120930642027 ,47,1397736035561 ,83,2638369944968
3.3649676 ,Left ,59,2357258677319 ,47,1445462122032 ,83,2787272351039
3.3799854 ,Left ,59,1905504132786 ,47,1376038432732 ,83,2911073985647
3.3940894 ,Left ,59,1319035097249 ,47,132262192807 ,83,2955749265887
3.4170697 ,Left ,59,1308573923494 ,47,1479879068635 ,83,3068645288599
3.4398967 ,Left ,59,1485088547337 ,47,1831760136515 ,83,3106716951568
3.4542509 ,Left ,59,1880714595885 ,47,240976082167 ,83,311308894165
3.4773867 ,Left ,59,2549720648653 ,47,3173865459238 ,83,3178830531962
3.500353 ,Left ,59,2512279866199 ,47,3829765250928 ,83,3236116345621
3.5289527 ,Left ,59,196719894579 ,47,4172932104577 ,83,3213507487409
3.5378492 ,Left ,59,1431103844181 ,47,4427648859032 ,83,3181045418573
3.5599073 ,Left ,59,125589096393 ,47,4866611809265 ,83,3125814242252
3.5809751 ,Left ,59,0894271721263 ,47,5537222902978 ,83,2959791644142
3.5971824 ,Left ,58,9531466655622 ,47,5267483344265 ,83,2385104817808
3.6199124 ,Left ,58,8844053589906 ,47,4711804304474 ,83,1799717854959
3.6424204 ,Left ,58,9440581056091 ,47,4458147424299 ,83,1595683949487
3.6573825 ,Left ,58,9179184338657 ,47,4604507932946 ,83,1459917821529
3.6804137 ,Left ,58,84567956345 ,47,4701735704956 ,83,0930514380868
3.701558 ,Left ,58,8824734119235 ,47,4916549239893 ,83,0815155507395
3.7177314 ,Left ,58,9930905646197 ,47,530587653616 ,83,0646737743247
3.7398305 ,Left ,59,0573809956784 ,47,5372884717772 ,83,0230616622408
3.7608276 ,Left ,59,0369291182478 ,47,4511191220553 ,83,0050180954212
3.7771729 ,Left ,58,9980419275263 ,47,3279469107463 ,82,9965416939969
3.7998606 ,Left ,58,9273970410283 ,47,2638809593405 ,83,0044504987624
3.8206993 ,Left ,58,7768276544343 ,47,2488309209776 ,82,9850007249361
3.8374403 ,Left ,58,7035800561444 ,47,247452030558 ,82,9841764255485
3.8599153 ,Left ,58,7609616720902 ,47,2671006081377 ,83,0513321986094
3.8809864 ,Left ,58,933209795046 ,47,369782593586 ,83,1235129246084
3.8967799 ,Left ,59,160892998726 ,47,4791451210849 ,83,1478779114035
3.9205437 ,Left ,59,3340687289705 ,47,5068984105158 ,83,1446744769995
3.9412226 ,Left ,59,2791948866449 ,47,509794924451 ,83,1420393613626
3.9566735 ,Left ,59,1217210840922 ,47,5258392534318 ,83,082515545929
3.9811566 ,Left ,59,0249908874484 ,47,4210233332042 ,83,0699798682423
4.0022784 ,Left ,58,947802104681 ,47,2804116331391 ,83,1524949184758
4.0167513 ,Left ,58,9753003071893 ,47,2417479812479 ,83,2090524065226
4.0397606 ,Left ,59,0617403522713 ,47,3156289354302 ,83,223805404476
4.0702708 ,Left ,59,0941430865362 ,47,3636680107528 ,83,2002094903389
4.0778509 ,Left ,59,1078008242484 ,47,3628742800048 ,83,1386728295825
4.1004184 ,Left ,59,1033546477379 ,47,3234368904841 ,83,104465395529
4.1225098 ,Left ,59,1816818766437 ,47,3451460982724 ,83,1006856606823
4.1367029 ,Left ,59,14136974082 ,47,3629758711773 ,83,0808948054541
4.1598747 ,Left ,59,0724058881184 ,47,3927417597286 ,83,0718588891247
4.1825594 ,Left ,58,9971330444168 ,47,3728753813932 ,83,1038456234429
4.1970889 ,Left ,58,9015702796767 ,47,3098315454017 ,83,0796679368495
4.2197997 ,Left ,58,9021566022804 ,47,2786850908369 ,83,0615939681911
4.2424768 ,Left ,58,982196949577 ,47,3392264261931 ,83,0502369317802
4.2634477 ,Left ,59,0730661434769 ,47,4787454847073 ,83,0255915153411
4.279794 ,Left ,59,1575807088327 ,47,5570036023854 ,82,9746837240008
4.3024643 ,Left ,59,2063154443088 ,47,554981382904 ,82,9051480651009
4.3233332 ,Left ,59,19602378735 ,47,5287396662873 ,82,8338798520197
4.3399322 ,Left ,59,1161065322759 ,47,4972914669287 ,82,7733590537506
4.362387 ,Left ,59,019207526006 ,47,4752156940086 ,82,7203418613993
4.3829675 ,Left ,58,9172033824904 ,47,4832244906869 ,82,6678373514406
4.3998256 ,Left ,58,844928300328 ,47,4880697562977 ,82,5899688172346
4.4222136 ,Left ,58,7522212111434 ,47,4446900220023 ,82,6216894543013
4.4432926 ,Left ,58,6476173414886 ,47,3359965266961 ,82,7197494178946
4.4604469 ,Left ,58,7097694220965 ,47,2390873575938 ,82,8605570732842
4.4829217 ,Left ,58,9245135891905 ,47,1744786346415 ,82,9107594377657
4.5040689 ,Left ,59,0239626666546 ,47,1246260990599 ,82,8979408057768
4.5202256 ,Left ,59,0407255610256 ,47,1234426140337 ,82,9231450056232
4.5424463 ,Left ,58,9413408249565 ,47,1909457980701 ,82,9327081235105
4.5636694 ,Left ,58,9672054020254 ,47,2025843332156 ,82,8865636293174
4.5798999 ,Left ,58,9147045325567 ,47,042020428074 ,82,9294329054375
4.6022829 ,Left ,58,939514104904 ,46,8593258943175 ,83,0117097453931
4.6249498 ,Left ,59,0516559392084 ,46,79936641959 ,83,0587458350237
4.6396671 ,Left ,59,1413312428677 ,46,8594221517776 ,83,0911052260455
4.6623321 ,Left ,59,258669521517 ,46,9152095189812 ,83,115714619963
4.683371 ,Left ,59,3362426949178 ,46,9417293849521 ,83,1375644170164
4.7011404 ,Left ,59,3734783469433 ,46,9939973275706 ,83,166391394198
4.7224071 ,Left ,59,4001180683609 ,47,0757210045837 ,83,2063291739629
4.7435321 ,Left ,59,4520585606378 ,47,1253327107909 ,83,229916119258
4.7599457 ,Left ,59,5013268451587 ,47,1431242548386 ,83,2589819576118
4.7825301 ,Left ,59,53483433526 ,47,1586136612686 ,83,290110703229
4.8035817 ,Left ,59,5270161765206 ,47,1562367482305 ,83,3099962835135
4.8200419 ,Left ,59,4774855419079 ,47,1516936125257 ,83,3130105564273
4.8424384 ,Left ,59,4133009173735 ,47,1487383155342 ,83,3058641031587
4.8635164 ,Left ,59,3707595038432 ,47,1564331598786 ,83,285500323159
4.8800444 ,Left ,59,3570997069305 ,47,1738851815815 ,83,2527014448478
4.9025482 ,Left ,59,3446828360537 ,47,2157878825104 ,83,2205686204503
4.925026 ,Left ,59,3171414312138 ,47,2942013939802 ,83,1993753591991
4.9396358 ,Left ,59,2939573475675 ,47,3656960697632 ,83,1958671782462
4.9623873 ,Left ,59,2514217228883 ,47,3562309435332 ,83,1665442668307
4.9846461 ,Left ,59,2428932152981 ,47,2945458530042 ,83,1359114160305
4.9997319 ,Left ,59,2233058696161 ,47,267401000229 ,83,1138867183569
5.0299514 ,Left ,59,2371357707553 ,47,3063021724587 ,83,0763760392948
5.044744 ,Left ,59,2349464300948 ,47,3407498209178 ,83,0394298905051
5.0597964 ,Left ,59,2900236363751 ,47,4035357921224 ,83,0204948754673
5.0823636 ,Left ,59,2811456661521 ,47,4335051813987 ,82,9865753479356
5.1047834 ,Left ,59,2297344058591 ,47,3992312554941 ,82,9102677065017
5.118902 ,Left ,59,094624668333 ,47,3431183213779 ,82,9081856556801
5.1424002 ,Left ,59,0381995681489 ,47,3097368739632 ,82,9795499197869
5.1648578 ,Left ,59,0750453637431 ,47,3367891599102 ,83,0625192441307
5.1934076 ,Left ,59,2781286472491 ,47,3787697580181 ,83,0813806097475
5.2021721 ,Left ,59,396271623891 ,47,3845245814206 ,83,0976261028668
5.2252672 ,Left ,59,3545423056855 ,47,4123617886546 ,83,1017902367868
5.2459731 ,Left ,59,2748791140387 ,47,4540328717561 ,83,0888248433099
5.2622783 ,Left ,59,2051744958563 ,47,4187843635305 ,83,0895952928822
5.2860909 ,Left ,59,141965208175 ,47,3440168352544 ,83,167611454049
5.3075155 ,Left ,59,2162881669301 ,47,3429063179951 ,83,2254466011435
5.3223174 ,Left ,59,3206590522465 ,47,4027308542636 ,83,2314662514234
5.3448596 ,Left ,59,3305805715227 ,47,4426585734693 ,83,2373579188893
5.3594164 ,Left ,59,3437551552508 ,47,5112456711602 ,83,2317690849583
5.3824137 ,Left ,59,3277699659063 ,47,5689154489289 ,83,2047798274305
5.4046309 ,Left ,59,3392039424536 ,47,6152651713471 ,83,1620073108475
5.4259676 ,Left ,59,3486997326709 ,47,5682991271781 ,83,124607658288
5.4424254 ,Left ,59,1911404247209 ,47,509895162896 ,83,1604430346771
5.4650167 ,Left ,59,1386330520676 ,47,4860144615549 ,83,1933639123256
5.4861871 ,Left ,59,1901111224563 ,47,5257764792523 ,83,1894241057146
5.5024817 ,Left ,59,2233265724778 ,47,5200505425934 ,83,1269872277615
5.5249391 ,Left ,59,1905220750176 ,47,4692636168339 ,83,0367276282027
5.5460208 ,Left ,59,1541764961955 ,47,4716142033206 ,82,9255670308436
5.5623625 ,Left ,59,1211673561987 ,47,4627886177086 ,82,8077859436396
5.5846902 ,Left ,59,0879362335086 ,47,4161687625793 ,82,6945860248091
5.6060442 ,Left ,59,0203718277918 ,47,3695839939227 ,82,6140314997621
5.6225328 ,Left ,58,9218866590562 ,47,338051995686 ,82,5726907536264
5.6447394 ,Left ,58,834254816635 ,47,3788166384586 ,82,5572504956378
5.6656601 ,Left ,58,7469051005453 ,47,3637326919429 ,82,6256168420213
5.68157 ,Left ,58,7167668163547 ,47,2202306987574 ,82,6906784921909
5.7047069 ,Left ,58,8752170676234 ,47,1545302379243 ,82,7626154611304
5.733434 ,Left ,58,9918821261347 ,47,1256311687502 ,82,856508508592
5.749843 ,Left ,59,0936375673701 ,47,0957582285167 ,82,8857564784901
5.7649796 ,Left ,59,2661826522618 ,47,0544016447174 ,82,89162190641
5.7860265 ,Left ,59,3364071084298 ,47,0432601755036 ,82,9246690365578
5.8019121 ,Left ,59,2693450238324 ,47,0894570012831 ,82,9226887073307
5.8246706 ,Left ,59,231866133595 ,47,1488025464588 ,82,9166680818413
5.8458523 ,Left ,59,1542710232841 ,47,1376886918776 ,82,9557118196644
5.8622838 ,Left ,59,1258859834803 ,47,0236466259387 ,83,0015889337334
5.8846715 ,Left ,59,1874793565401 ,46,9360872024153 ,83,0320040012152
5.9071888 ,Left ,59,2164605813779 ,46,9662249575795 ,83,0452585336153
5.9222479 ,Left ,59,230796919165 ,47,0067173202533 ,83,0311806576903
5.9448368 ,Left ,59,2532483251625 ,47,0121282528605 ,83,0125977373934
5.9672072 ,Left ,59,270953036626 ,47,0178759298242 ,83,0012315666952
5.9824052 ,Left ,59,306547642556 ,47,0549994136074 ,83,0208384308853
6.0048285 ,Left ,59,3517182231684 ,47,1116164023037 ,83,0513979882708
6.0273886 ,Left ,59,365747451866 ,47,1479401851383 ,83,1007540218237
6.0417601 ,Left ,59,3562813964887 ,47,1673199473625 ,83,154393100861
6.0649587 ,Left ,59,3761899085434 ,47,1641025120335 ,83,1923916468847
6.0872028 ,Left ,59,3911654072098 ,47,158482201312 ,83,2193142637802
6.1017886 ,Left ,59,3969520064246 ,47,1823784349789 ,83,2416380808176
6.1247372 ,Left ,59,3966016866402 ,47,2384677260304 ,83,2555515784198
6.1474082 ,Left ,59,4044520911922 ,47,2896643532965 ,83,2504987178475
6.1617012 ,Left ,59,3967444160235 ,47,3377044499598 ,83,2330185286934
6.1850915 ,Left ,59,3720789029948 ,47,3904234101033 ,83,1881309340628
6.2074635 ,Left ,59,2471950754919 ,47,4188724381742 ,83,1365133975568
6.2286952 ,Left ,59,1183022233189 ,47,399377875845 ,83,1025622336912
6.2449763 ,Left ,59,1568090641318 ,47,3670977363934 ,83,1187152707602
6.2674985 ,Left ,59,2021916054062 ,47,3634092855529 ,83,1505150127759
6.2886613 ,Left ,59,1891863132227 ,47,382198460794 ,83,1130585356561
6.3053289 ,Left ,59,1710240387759 ,47,4205295002722 ,83,0716703063501
6.3274788 ,Left ,59,1678220465896 ,47,4494641392035 ,83,0445675992913
6.3417845 ,Left ,59,1761611621975 ,47,5106950261061 ,83,0012416718947
6.3649086 ,Left ,59,1764287212176 ,47,4792730091906 ,82,9462046274535
6.3870825 ,Left ,59,0793143831007 ,47,3419495911939 ,82,9061715351436
6.4168945 ,Left ,58,9775630001467 ,47,1990494889748 ,82,936095036594
6.4251716 ,Left ,58,9248868398508 ,47,1401393829897 ,83,0355538047617
6.4472685 ,Left ,59,0170768522564 ,47,1846164797199 ,83,0796544862934
6.4684787 ,Left ,59,1849736989483 ,47,2380366179157 ,83,0769262004898
6.4849162 ,Left ,59,3266411634942 ,47,2795756816862 ,83,0619397661848
6.5074063 ,Left ,59,3070085307826 ,47,3290874311704 ,83,040174550114
6.5283991 ,Left ,59,266915578724 ,47,3557619067822 ,83,0147150595982
6.5448824 ,Left ,59,1460924502584 ,47,2870167912494 ,83,021868808937
6.5673817 ,Left ,59,0824849872419 ,47,1828014982917 ,83,0538087541803
6.5884318 ,Left ,59,1273395433962 ,47,136166587015 ,83,1333226402152
6.6049019 ,Left ,59,2073395274211 ,47,1845568522593 ,83,1790365323225
6.6274328 ,Left ,59,2686363616041 ,47,2912655597544 ,83,1687929404154
6.6489927 ,Left ,59,3165847350703 ,47,3969163069535 ,83,1521835365607
6.6653821 ,Left ,59,4005807683111 ,47,47395044359 ,83,1041867081633
6.6934692 ,Left ,59,3508656191481 ,47,4714806610431 ,83,0966880550001
6.7085877 ,Left ,59,2343567962505 ,47,4155082425156 ,83,0645267931847
6.7325011 ,Left ,59,1414201518925 ,47,3809215465933 ,83,0092752503642
6.7475842 ,Left ,59,0392559525376 ,47,3705173606601 ,82,988029905251
6.7526436 ,Left ,59,0010194373344 ,47,4097735330724 ,82,9528811837121
6.7785176 ,Left ,58,9966910704307 ,47,429079305382 ,82,893334049286
6.7921199 ,Left ,58,9833706700139 ,47,4002376434868 ,82,8326257654872
6.8133013 ,Left ,58,9020484642377 ,47,3825121874642 ,82,7891248016911
6.8357388 ,Left ,58,9124829428748 ,47,3653691835693 ,82,7361646078193
6.8576674 ,Left ,58,9106699540384 ,47,3081557144071 ,82,6896693561758
6.8729754 ,Left ,58,9604032392267 ,47,2698731801829 ,82,6403752434381
6.8951333 ,Left ,58,762366620838 ,47,1902027332356 ,82,6870691869239
6.9122022 ,Left ,58,6004068837188 ,47,1299056593203 ,82,8400772396297
6.9330075 ,Left ,58,7236116313329 ,47,0817608108683 ,82,9649760255557
6.9553788 ,Left ,58,9389845821183 ,47,076056178614 ,83,0066827300288
6.9732654 ,Left ,59,1395307413058 ,47,0213814803512 ,83,033129283685
6.9926521 ,Left ,59,1974009509077 ,47,0315915926265 ,83,1064629106853
7.0153803 ,Left ,59,1304748118128 ,47,0896763551643 ,83,0859939299468
7.0390809 ,Left ,59,1039107360616 ,47,0581457440354 ,83,0054683769712
7.0527374 ,Left ,59,022773991362 ,46,911356003628 ,83,0435772484653
7.0749599 ,Left ,59,0304437171804 ,46,8166489836875 ,83,1072258008465
7.0917792 ,Left ,59,0959449719173 ,46,848420233745 ,83,1296351284121
7.1127402 ,Left ,59,1625156638532 ,46,8967982871827 ,83,1351275707076
7.1351903 ,Left ,59,2203666302416 ,46,9266698904901 ,83,1468718995458
7.1517944 ,Left ,59,2748294203534 ,46,9739815832921 ,83,1481566073747
7.1725831 ,Left ,59,30808340224 ,47,0516429260225 ,83,1528258911081
7.1951593 ,Left ,59,3332627368924 ,47,1273917606217 ,83,1753103416093
7.2101188 ,Left ,59,369714114463 ,47,1752895361697 ,83,1999696802081
7.2328865 ,Left ,59,4034206644391 ,47,1973301914489 ,83,2349151019261
7.2553727 ,Left ,59,4101123444365 ,47,2137703843331 ,83,2787043179222
7.2705062 ,Left ,59,3682663556171 ,47,2103903653811 ,83,3029008636554
7.2930324 ,Left ,59,3194343794274 ,47,1867107635427 ,83,2883628841226
7.315382 ,Left ,59,2866823115045 ,47,181677340435 ,83,2734020078915
7.3320891 ,Left ,59,2766279540043 ,47,2023115469662 ,83,2639978911986
7.3532514 ,Left ,59,2915004488816 ,47,2380856157856 ,83,2501898816186
7.3755921 ,Left ,59,3292247606324 ,47,2944050857616 ,83,2252822976056
7.3914641 ,Left ,59,3233205022915 ,47,3561863364464 ,83,1859003106735
7.4138317 ,Left ,59,2127728868355 ,47,3760468064765 ,83,1526922527209
7.4354301 ,Left ,59,1042896485585 ,47,3481810084708 ,83,1512905879535
7.451786 ,Left ,59,1774339569945 ,47,3099858824963 ,83,1644294016508
7.4726381 ,Left ,59,1893029460734 ,47,2889889939358 ,83,1319840478197
7.4953974 ,Left ,59,1734156290657 ,47,2957731658666 ,83,0878486260166
7.511779 ,Left ,59,1566225632553 ,47,3263208363715 ,83,0613634199632
7.5329751 ,Left ,59,1307768449699 ,47,3490025181934 ,83,0166825795002
7.5553118 ,Left ,59,163721860038 ,47,3333849148021 ,82,9727137857982
7.5714513 ,Left ,59,1696966964912 ,47,2628249688643 ,82,9326146060679
7.5933598 ,Left ,59,0346563426167 ,47,174193715022 ,82,927119809207
7.6158006 ,Left ,58,8910493488635 ,47,0982842576311 ,82,9887959781554
7.6331496 ,Left ,58,9265145942894 ,47,1247496540663 ,83,1039046801781
7.6529683 ,Left ,59,1518438448111 ,47,2199276222255 ,83,1508531557726
7.6749865 ,Left ,59,3594732335816 ,47,2870230480751 ,83,1527679254837
7.693401 ,Left ,59,4172924443052 ,47,3157482596081 ,83,1500739110804
7.7131398 ,Left ,59,2942774463149 ,47,3717537810353 ,83,1167859672477
7.7350912 ,Left ,59,2262937371111 ,47,3481401251894 ,83,0569567240782
7.7533703 ,Left ,59,1311426596328 ,47,2556701741743 ,83,0557122087164
7.7728511 ,Left ,59,1039202854311 ,47,2054619668178 ,83,0991137399064
7.7951795 ,Left ,59,1504252756993 ,47,2210586451891 ,83,1430729701837
7.813295 ,Left ,59,1837537396415 ,47,2630385991025 ,83,1943879218671
7.8329249 ,Left ,59,1688799475676 ,47,3426608841028 ,83,2148193419569
7.855059 ,Left ,59,1829367022945 ,47,4074674892174 ,83,1692974455458
7.8736699 ,Left ,59,2539205433475 ,47,4098818040276 ,83,0929546127172
7.8930999 ,Left ,59,16568110607 ,47,3252955050213 ,83,0191609585842
7.9154234 ,Left ,58,9946464683113 ,47,2427406540569 ,82,9745766763846
7.9335245 ,Left ,58,8990185674575 ,47,2317557627565 ,83,0005786091604
7.9527932 ,Left ,58,889550834741 ,47,306005876606 ,83,027180506534
7.9751362 ,Left ,58,968230171737 ,47,3860702088361 ,83,0017685280049
7.9976266 ,Left ,59,0271845227222 ,47,3878423790645 ,82,9282788464208
8.0128326 ,Left ,58,9582647641104 ,47,3620992980951 ,82,8207404353925
8.035197 ,Left ,58,9305826926981 ,47,3388248894952 ,82,7109061985556
8.0578385 ,Left ,58,9623495029542 ,47,3228725513855 ,82,6351636549341
8.072641 ,Left ,58,8964583875678 ,47,3090323085354 ,82,5501786045096
8.0954205 ,Left ,58,8132110085616 ,47,3251244750535 ,82,5070351756068
8.1176571 ,Left ,58,6300909294175 ,47,276268262355 ,82,6110277014578
8.132586 ,Left ,58,5544150587835 ,47,1710631531135 ,82,7829686120284
8.1559934 ,Left ,58,7480495421855 ,47,0238987341123 ,82,9343026541523
8.1782921 ,Left ,59,0306025875976 ,46,9657525154207 ,82,9752753910709
8.1931232 ,Left ,59,1964333084539 ,46,9715498892882 ,82,9670665450107
8.2152019 ,Left ,59,2499241897251 ,47,0547330420359 ,82,9883484927651
8.2467161 ,Left ,59,2298307400692 ,47,107672446533 ,82,941826605669
8.2527159 ,Left ,59,2065987153075 ,47,0794593449694 ,82,8653882677727
8.2757293 ,Left ,59,0508197792332 ,46,9639991903097 ,82,9206317725584
8.2978696 ,Left ,59,0145169670734 ,46,8596985890123 ,83,0086722872914
8.3129176 ,Left ,59,1026035926126 ,46,8504931718832 ,83,0566212748415
8.3351584 ,Left ,59,2204895173457 ,46,9157208017354 ,83,0743354918804
8.3687565 ,Left ,59,3327327615431 ,46,9541269518188 ,83,0703348832245
8.3740871 ,Left ,59,3955276660299 ,46,9696837749393 ,83,0643383012093
8.3952221 ,Left ,59,4286174212377 ,47,0229765865646 ,83,0709294243464
8.4179549 ,Left ,59,4898617820485 ,47,1141105033722 ,83,1048073230675
8.4343403 ,Left ,59,4970975952018 ,47,1591415475357 ,83,1325222955302
8.4555322 ,Left ,59,5174336251641 ,47,1570239586578 ,83,1665343522244
8.4733619 ,Left ,59,5550712066792 ,47,1643224011519 ,83,2016581139141
8.4943173 ,Left ,59,5486861956398 ,47,1514740534256 ,83,2186546531344
8.5151436 ,Left ,59,5184917547526 ,47,1314452298285 ,83,2302627423847
8.5329132 ,Left ,59,4650670287382 ,47,1115217629693 ,83,2467645434043
8.5541304 ,Left ,59,4467604906017 ,47,1041613995867 ,83,2540259488741
8.575403 ,Left ,59,4649839229495 ,47,1165780111938 ,83,2548678907953
8.5933426 ,Left ,59,5105611391821 ,47,1510262572068 ,83,2485408175884
8.6143278 ,Left ,59,4951278205713 ,47,1723451487504 ,83,2346296592278
8.6383087 ,Left ,59,4341396674753 ,47,1752061694252 ,83,2205308788032
8.653305 ,Left ,59,3755784750847 ,47,2062300748818 ,83,1950202723549
8.6741833 ,Left ,59,2886964274155 ,47,222811684704 ,83,1531098758935
8.6956447 ,Left ,59,141607089744 ,47,203309711772 ,83,1655246169101
8.7136425 ,Left ,59,194502084945 ,47,17490281983 ,83,1886146831559
8.736108 ,Left ,59,2550088889739 ,47,1532494297291 ,83,1919003365782
8.7557517 ,Left ,59,3252423285493 ,47,1437566002804 ,83,1495686316826
8.7776062 ,Left ,59,3233291705119 ,47,1586194450202 ,83,124444540408
8.803495 ,Left ,59,2412357338737 ,47,1911930834713 ,83,0858453798284
8.8152517 ,Left ,59,1858298238408 ,47,2263064641138 ,83,0490006303254
8.837623 ,Left ,59,18388052667 ,47,1775563105845 ,82,9993281017946
8.8554878 ,Left ,59,0724750349837 ,47,0889672817771 ,82,9921265148272
8.8754329 ,Left ,58,9940979814953 ,47,0224633125177 ,83,0722132660056
8.8977507 ,Left ,59,0830902197464 ,47,0585384089094 ,83,1621990911902
8.9155983 ,Left ,59,2774000655135 ,47,1515367157933 ,83,1918746855415
8.9351407 ,Left ,59,4148576906292 ,47,2203365405007 ,83,1985217726014
8.9575688 ,Left ,59,4135309396574 ,47,2712164719533 ,83,1934770533811
8.9807438 ,Left ,59,2954700077566 ,47,3020199260133 ,83,1769206937524
8.9966576 ,Left ,59,2471423408419 ,47,25507352483 ,83,1311062265361
9.0175775 ,Left ,59,1701805740719 ,47,178739308689 ,83,1659212994281
9.0355708 ,Left ,59,1779309625321 ,47,176162352368 ,83,2036018385862
9.0552317 ,Left ,59,2476168564163 ,47,2230851312353 ,83,2116295303163
9.077716 ,Left ,59,262662928712 ,47,2481549001367 ,83,2217679415523
9.095681 ,Left ,59,2274497364669 ,47,3021339742369 ,83,2321580972942
9.1152343 ,Left ,59,214308128829 ,47,345689380689 ,83,2194664637451
9.1377674 ,Left ,59,2340001477233 ,47,3416590598692 ,83,2038841405801
9.1553789 ,Left ,59,2628774218252 ,47,3288188695036 ,83,158808650042
9.1752065 ,Left ,59,1326057417505 ,47,2774965399609 ,83,1350783806685
9.1978154 ,Left ,59,0173903386757 ,47,220812646192 ,83,147853849604
9.2156281 ,Left ,59,0383022133009 ,47,2396324661481 ,83,1390260854518
9.2350522 ,Left ,59,0658452846946 ,47,2783422573947 ,83,0939033312855
9.2578403 ,Left ,59,101240136493 ,47,2908259165552 ,82,9895798210743
9.2757502 ,Left ,58,9969521816303 ,47,2456189346627 ,82,8593226102345
9.2968633 ,Left ,58,9053589342133 ,47,2209517205973 ,82,7395032099531
9.3176401 ,Left ,58,8979482674618 ,47,2017777747373 ,82,6600707270475
9.3357055 ,Left ,58,9204181053705 ,47,2449425288464 ,82,5751361279809
9.3569227 ,Left ,58,8509045911334 ,47,2855548482554 ,82,483845977752
9.3778863 ,Left ,58,6412337567506 ,47,2070287654131 ,82,5639767806411
9.3954567 ,Left ,58,5245494423769 ,47,092188092117 ,82,7359260414907
9.4167997 ,Left ,58,6991089552799 ,47,0103889419623 ,82,8591077256656
9.4381231 ,Left ,58,9349995217219 ,46,9689309411008 ,82,8815276773119
9.4560972 ,Left ,59,0952384565697 ,46,959352420523 ,82,8962824531405
9.4769425 ,Left ,59,1633624130664 ,47,0136605304955 ,82,9532706480309
9.4979549 ,Left ,59,0831677810108 ,47,0723418126023 ,82,9275687568085
9.5158651 ,Left ,59,0314597107565 ,47,0396687794056 ,82,8894284488025
9.5369475 ,Left ,58,9399325880706 ,46,8819361938942 ,82,9057823656779
9.5579378 ,Left ,58,9336141437771 ,46,7789074846611 ,82,9400601400439
9.5756603 ,Left ,58,954758689627 ,46,7886321830833 ,82,9505587390555
9.5970064 ,Left ,58,9921267860876 ,46,8460867226942 ,82,9507548055078
9.6176788 ,Left ,59,0564172080356 ,46,8674002333161 ,82,9558086174551
9.6372954 ,Left ,59,1250360184718 ,46,8678233112657 ,82,9677296515737
9.6581874 ,Left ,59,2209414028038 ,46,9029564977398 ,82,9996769919859
9.6777405 ,Left ,59,3023773606953 ,46,956373035787 ,83,0401804988418
9.7030458 ,Left ,59,3295230132722 ,46,9840162597719 ,83,0877003491961
9.7180578 ,Left ,59,3628734859854 ,47,0017244382052 ,83,1309044160136
9.7377897 ,Left ,59,3934988574016 ,47,0137593822616 ,83,1803823809794
9.7559925 ,Left ,59,3882537343239 ,47,0020456613245 ,83,2245010183341
9.7785599 ,Left ,59,3894932405737 ,46,9823389073386 ,83,2387480434396
9.7977678 ,Left ,59,3823595755027 ,46,9638415848688 ,83,2200884999016
9.8156945 ,Left ,59,3230211214199 ,46,9454534180934 ,83,1984578685329
9.8383461 ,Left ,59,2691985165287 ,46,9521711805909 ,83,1845302666671
9.8579016 ,Left ,59,2790566233178 ,46,9988197331766 ,83,1736502753305
9.8757271 ,Left ,59,2876576462378 ,47,0415335733885 ,83,1470232539664
9.8981078 ,Left ,59,2110465245935 ,47,0493595893446 ,83,1047001213105
9.9176316 ,Left ,59,1430789890623 ,47,0399619849358 ,83,0832524588713
9.935436 ,Left ,59,0671355780404 ,46,9972380496593 ,83,0910302410788
9.9586568 ,Left ,59,057143370708 ,46,987803218257 ,83,1066085627373
9.9780336 ,Left ,59,1118445155667 ,46,9971162411588 ,83,0975577705593
9.995948 ,Left ,59,1819640252254 ,47,0262748376562 ,83,0728151347738
10.0230411 ,Left ,59,1849871424238 ,47,0496191009024 ,83,0434562878516
10.0377704 ,Left ,59,1258768783182 ,47,0775968285555 ,83,0265455125222
10.0557618 ,Left ,59,0256213183462 ,47,0741966035161 ,82,991646566859
10.078069 ,Left ,58,9215596861076 ,46,9691907021566 ,82,9395070357757
10.1005546 ,Left ,58,8736336203565 ,46,8403621091074 ,82,9619181845328
10.1154723 ,Left ,58,9094428458603 ,46,823746648907 ,83,0494850574016
10.1381684 ,Left ,59,0243261688122 ,46,912164836508 ,83,1044478401024
10.1575864 ,Left ,59,1451683811756 ,46,9995899208228 ,83,1158980383198
10.1755099 ,Left ,59,1896498499025 ,47,0486425804825 ,83,1166728867395
10.197996 ,Left ,59,1803439718167 ,47,0926952782737 ,83,0917248041108
10.2184322 ,Left ,59,1328818752543 ,47,0710944075151 ,83,0499044714797
10.2357969 ,Left ,59,0206491953941 ,46,9951461540722 ,83,0594081571814
10.2581692 ,Left ,58,9409557129909 ,46,9276265803396 ,83,1022849744493
10.2793006 ,Left ,58,9818377862689 ,46,9306327461639 ,83,1268767840923
10.3033004 ,Left ,59,0254498786279 ,46,9644482132007 ,83,1489439054712
10.3173326 ,Left ,59,0637539923732 ,47,0274684758206 ,83,1662261545179
10.3394653 ,Left ,59,0797281184308 ,47,0934333819422 ,83,1682098831404
10.3549007 ,Left ,59,1244523808775 ,47,155338671479 ,83,1265738613119
10.3778821 ,Left ,59,0858239989427 ,47,1921063351623 ,83,101755675213
10.3985544 ,Left ,58,9904781305636 ,47,1394220440913 ,83,0453123293337
10.420786 ,Left ,58,8988955834848 ,47,0787334230642 ,83,039903924422
10.4372239 ,Left ,58,8616266208585 ,47,0915483773111 ,83,0270830767959
10.4584908 ,Left ,58,8999900256545 ,47,1492637303497 ,82,9672837348526
10.4811122 ,Left ,58,9516611105081 ,47,1283312266377 ,82,8783481388002
10.4973488 ,Left ,58,8815073725325 ,47,0824730793224 ,82,7984564179166
10.518459 ,Left ,58,8048978197895 ,47,0841722004407 ,82,7332543195136
10.5410743 ,Left ,58,8362118756498 ,47,0929726255988 ,82,6813239352078
10.5574435 ,Left ,58,8493182648045 ,47,1010359282743 ,82,6385639241147
10.5797227 ,Left ,58,8525636257943 ,47,1056299293896 ,82,5962009935117
10.5946486 ,Left ,58,6992809957496 ,47,0298902144338 ,82,6681198464447
10.6172353 ,Left ,58,6074344811559 ,46,9667827788224 ,82,8591904765437
10.6396248 ,Left ,58,7750701006434 ,46,8812671730351 ,82,9970333255715
10.6547849 ,Left ,59,0281608044807 ,46,8407576323803 ,82,9998889245758
10.6776706 ,Left ,59,2057974258928 ,46,8126065424603 ,83,0187142479339
10.699808 ,Left ,59,1606039196863 ,46,88658606114 ,83,0440196131618
10.7144007 ,Left ,59,1596130919705 ,47,0010394960921 ,82,9961517543937
10.7450174 ,Left ,59,1633928983735 ,46,9492283769685 ,82,9609835908907
10.7597554 ,Left ,59,0613350525874 ,46,8191811809137 ,82,9882352273363
10.7741612 ,Left ,59,0135403055603 ,46,7483414308184 ,83,0403662094433
10.7974137 ,Left ,59,0421002897419 ,46,7790436662033 ,83,0809729158625
10.8199138 ,Left ,59,1654065576755 ,46,8127801744932 ,83,0622857788314
10.8345228 ,Left ,59,2315671790336 ,46,7907955364158 ,83,0401699760065
10.8572243 ,Left ,59,2511816333232 ,46,7971035820463 ,83,0403074360538
10.8799051 ,Left ,59,2961618326637 ,46,858301640013 ,83,0524413338382
10.8943475 ,Left ,59,3213645418311 ,46,9300239343513 ,83,0734555886648
10.9172818 ,Left ,59,3224781955495 ,46,9867151418892 ,83,0897639362363
10.9398478 ,Left ,59,3208197991042 ,47,0084068559805 ,83,114639148292
10.9610103 ,Left ,59,3433926724178 ,47,017218155122 ,83,159179634587
10.9775657 ,Left ,59,3463200989712 ,47,0189187033774 ,83,206649358539
10.9998429 ,Left ,59,3539692053195 ,47,023186336496 ,83,2259196084695
11.0142502 ,Left ,59,3248886199036 ,47,0314016539589 ,83,2329792946694
11.03744 ,Left ,59,311216845455 ,47,0552675939254 ,83,2218353344769
11.0598815 ,Left ,59,3414230867808 ,47,0802999546166 ,83,2090659654198
11.0809314 ,Left ,59,3684666479357 ,47,110653246344 ,83,1873683670553
11.0973867 ,Left ,59,3017687926385 ,47,1267948557353 ,83,145045066486
11.119986 ,Left ,59,1695011017389 ,47,1498908497934 ,83,1165889937827
11.141222 ,Left ,59,0474155354915 ,47,1188142351078 ,83,0966827744617
11.1573257 ,Left ,59,0361630831148 ,47,0702046161472 ,83,0929496298142
11.1799127 ,Left ,59,0385161977651 ,47,0549990516901 ,83,1118369585578
11.2009164 ,Left ,59,0689136703903 ,47,0747620305456 ,83,0818984755626
11.2172879 ,Left ,59,0632262525054 ,47,0788740490536 ,83,0416176385337
11.2399194 ,Left ,59,0634733990755 ,47,0669340074643 ,83,0321125684419
11.2610723 ,Left ,59,0930922043379 ,47,0973637589504 ,83,0358047311809
11.2773981 ,Left ,59,0702619532349 ,47,1143794636829 ,83,0009329202769
11.2998332 ,Left ,59,0303973100675 ,47,0395413613769 ,82,9275582866484
11.3211135 ,Left ,58,9294207674317 ,46,9357213845638 ,82,9171645456257
11.337222 ,Left ,58,8701595928591 ,46,8906921884524 ,82,9742991294206
11.3603596 ,Left ,58,9410055131972 ,46,9379757049663 ,83,0378667670099
11.3815319 ,Left ,59,1047109982826 ,47,0022665694041 ,83,0694451800826
11.3976766 ,Left ,59,2493628825994 ,47,065944899589 ,83,087044770503
11.4200872 ,Left ,59,2763809450889 ,47,1294201459776 ,83,0867178961301
11.4409517 ,Left ,59,2214862452084 ,47,1885958900747 ,83,0799487546022
11.4566079 ,Left ,59,135160507191 ,47,1400451361779 ,83,0577278749982
11.4800401 ,Left ,59,0326490197512 ,47,0859750000606 ,83,0887304111121
11.5038391 ,Left ,59,06174489848 ,47,09283961958 ,83,1484533671762
11.5174271 ,Left ,59,1218328631658 ,47,1710507438931 ,83,1733047169995
11.5398933 ,Left ,59,1677852455548 ,47,212379399327 ,83,1694888113752
11.5625288 ,Left ,59,1806494986126 ,47,2226574417113 ,83,1766971743991
11.5773862 ,Left ,59,1366824039923 ,47,2513363433938 ,83,1823190657475
11.5998305 ,Left ,59,1207406325642 ,47,2859860937619 ,83,1411366265658
11.6224744 ,Left ,59,1136864826295 ,47,2983279602445 ,83,1137544111552
11.6374322 ,Left ,59,1104958754988 ,47,2702463722424 ,83,0458717907248
11.6599243 ,Left ,59,0088960057771 ,47,2030897985212 ,83,0039274200846
11.6826326 ,Left ,58,8459348088044 ,47,1731529374364 ,83,068743894338
11.6969555 ,Left ,58,8525277449732 ,47,2104219166657 ,83,0987388859974
11.7200364 ,Left ,58,9991383934157 ,47,2739079305786 ,83,0736069678411
11.7424932 ,Left ,59,1508047177817 ,47,3000920327052 ,83,0090943303379
11.7569465 ,Left ,59,1259398052138 ,47,2671878615508 ,82,9390284290024
11.780111 ,Left ,59,012903262573 ,47,2315717970881 ,82,8762106657648
11.8024294 ,Left ,58,9715247574985 ,47,2233224547001 ,82,8207842430066
11.8233149 ,Left ,58,9905717263879 ,47,225168402989 ,82,7595264893628
11.8403341 ,Left ,59,0001308201652 ,47,2652559913913 ,82,7164651818577
11.8628947 ,Left ,58,906335191865 ,47,1819727163358 ,82,6932827800882
11.883486 ,Left ,58,673594555183 ,47,0345652716799 ,82,7824645590512
11.8998968 ,Left ,58,6281377966333 ,46,9200498393811 ,82,9074665294001
11.9224252 ,Left ,58,7963404181231 ,46,8733082493234 ,82,9595168518359
11.9433541 ,Left ,58,9995043156961 ,46,8502106556135 ,82,992039088206
11.9674409 ,Left ,59,1141346969326 ,46,8988878600896 ,83,0425654811908
11.9823978 ,Left ,59,1085907535911 ,46,9962464339561 ,83,0242103761209
12.0035222 ,Left ,59,0557658041774 ,46,9978286191722 ,82,9818851259528
12.019912 ,Left ,58,932197519492 ,46,8817306766962 ,82,9698826506939
12.0422907 ,Left ,58,8838074360131 ,46,8161248453213 ,82,988139675984
12.063453 ,Left ,58,8784073953761 ,46,879528708198 ,83,0220697955293
12.0799226 ,Left ,58,9665961529419 ,46,9397230625085 ,83,0214957922691
12.1020846 ,Left ,59,0496249860054 ,46,9211849576259 ,83,0063330632019
12.1233788 ,Left ,59,0508876380062 ,46,90691652371 ,83,0087079511523
12.1399429 ,Left ,59,0485558025957 ,46,9491545730005 ,83,0173254037997
12.1624764 ,Left ,59,1025037702431 ,47,0145072240809 ,83,0236391404949
12.1834631 ,Left ,59,1171070067378 ,47,0946708158637 ,83,0638172329593
12.1997625 ,Left ,59,134782947049 ,47,1466240916862 ,83,1079952786507
12.2224964 ,Left ,59,1447249622891 ,47,1409389100492 ,83,1539990951374
12.2450646 ,Left ,59,1439797907447 ,47,1150901369624 ,83,208612457745
12.2598302 ,Left ,59,1452476074469 ,47,0901940474016 ,83,2349299791872
12.2822086 ,Left ,59,076354323931 ,47,0852427416418 ,83,2431492419057
12.3039907 ,Left ,58,9676091821283 ,47,0764873559433 ,83,2632728071646
12.3202996 ,Left ,58,9717852599318 ,47,0951655674104 ,83,2846432823678
12.3428234 ,Left ,59,1000428000239 ,47,1437575644019 ,83,2926210414152
12.3635663 ,Left ,59,1551881245051 ,47,1784693407535 ,83,2870283457964
12.379909 ,Left ,59,0920791345273 ,47,2134794485502 ,83,272178961095
12.4023266 ,Left ,58,976513781218 ,47,2357434398642 ,83,2464372635531
12.4240075 ,Left ,58,8710767389662 ,47,2568498601524 ,83,2182175023023
12.4393642 ,Left ,58,8427453538453 ,47,2923756074342 ,83,1817632667966
12.4622319 ,Left ,58,773741184949 ,47,2582800028655 ,83,1603191739252
12.4848927 ,Left ,58,750631807778 ,47,2112109360286 ,83,1527169826687
12.499861 ,Left ,58,735915175515 ,47,1950422399619 ,83,1861445649997
12.5224609 ,Left ,58,7853277766925 ,47,207634281785 ,83,1707152517711
12.545039 ,Left ,58,7808998594934 ,47,1917324595775 ,83,1160771863244
12.5598917 ,Left ,58,8146311278872 ,47,1811659715991 ,83,0905917009822
12.5824602 ,Left ,58,826974714261 ,47,193950516212 ,83,0561935841905
12.6048847 ,Left ,58,8180952591571 ,47,1910572151038 ,83,0063388700276
12.6261207 ,Left ,58,7482429679735 ,47,1574566623288 ,82,9577773255797
12.6424058 ,Left ,58,6604521635356 ,47,076890550011 ,82,9317723684383
12.6724694 ,Left ,58,580388226111 ,47,0056018482596 ,82,9902387753273
12.6793366 ,Left ,58,6232388945634 ,47,0258983149792 ,83,0728729840762
12.7021932 ,Left ,58,8064938966469 ,47,1170576890844 ,83,1202100072688
12.7250607 ,Left ,58,9869966173858 ,47,2049495298253 ,83,1321847020865
12.7462677 ,Left ,59,0355219443072 ,47,2713629307272 ,83,1298254990024
12.7625278 ,Left ,58,9721285218703 ,47,3233488480351 ,83,1015297429663
12.7850767 ,Left ,58,9323442194556 ,47,2797608744061 ,83,0495329180642
12.806299 ,Left ,58,820640786488 ,47,1932561373138 ,83,0741340354227
12.8226005 ,Left ,58,7903416829574 ,47,1611178697635 ,83,1067780867211
12.8450443 ,Left ,58,8439807792958 ,47,1882548838775 ,83,1213584237164
12.8593793 ,Left ,58,9145129151401 ,47,195752142314 ,83,1380597772028
12.882505 ,Left ,58,9495539213492 ,47,212066060458 ,83,1431536222271
12.9050749 ,Left ,58,9338742694071 ,47,2351558096791 ,83,1490606589779
12.9194145 ,Left ,58,9394430868561 ,47,2369529997885 ,83,1249708921173
12.9425456 ,Left ,58,9675842771114 ,47,2603572928762 ,83,0748210039318
12.9651169 ,Left ,58,8906894208907 ,47,2800080381196 ,83,0287257950737
12.9863302 ,Left ,58,7267254061524 ,47,2742123919883 ,83,0594267327323
13.0024552 ,Left ,58,704789899597 ,47,2604847523828 ,83,1155418946132
13.0253466 ,Left ,58,8236780539874 ,47,2828044075375 ,83,0963235437389
13.0465062 ,Left ,58,9146753929074 ,47,3055349050095 ,83,009679611492
13.0628887 ,Left ,58,9119739535621 ,47,2692000827706 ,82,9153808003751
13.0850185 ,Left ,58,881627577362 ,47,2136557441866 ,82,8229933157926
13.1061928 ,Left ,58,8681438837238 ,47,1890957731709 ,82,7413612030567
13.1225889 ,Left ,58,8447535688703 ,47,1968875648459 ,82,670364248426
13.1450739 ,Left ,58,8247553720592 ,47,2166489842674 ,82,5976282756974
13.1659944 ,Left ,58,7745401974601 ,47,2249615469202 ,82,5375694203819
13.1825845 ,Left ,58,7220579508406 ,47,2178819192992 ,82,4955091729294
13.2050015 ,Left ,58,6912756003979 ,47,2131112014958 ,82,4992456300463
13.225946 ,Left ,58,6349204693608 ,47,2055272406029 ,82,5541845662785
13.2423298 ,Left ,58,6393302274948 ,47,1669082561505 ,82,6402219997205
13.2649839 ,Left ,58,6651733494651 ,47,0807127789781 ,82,6950210892767
13.2858602 ,Left ,58,7151027644669 ,47,0014283227505 ,82,7283831120694
13.3022901 ,Left ,58,7650993286027 ,46,9404959760322 ,82,7440293717606
13.3247669 ,Left ,58,7873292418657 ,46,9024306309452 ,82,7568405034951
13.3535256 ,Left ,58,8351075640145 ,46,9150828760046 ,82,8020651823559
13.3625708 ,Left ,58,8667358755275 ,46,9845141946088 ,82,8307949801541
13.3849311 ,Left ,58,8951514007184 ,47,0234395322065 ,82,8070605718996
13.4074421 ,Left ,58,8019296115 ,46,9481082647562 ,82,82548841201
13.4226226 ,Left ,58,7981349735971 ,46,8627168438896 ,82,9055080806421
13.4449739 ,Left ,58,8563305340802 ,46,8612652903948 ,82,9531056550768
13.4674304 ,Left ,58,9027570299256 ,46,9147511623085 ,82,9617005223759
13.4824445 ,Left ,58,9581010134413 ,46,9538107365295 ,82,9715262063069
13.5049804 ,Left ,59,001286794373 ,46,9615570571281 ,82,9827024884432
13.527316 ,Left ,59,0244530791555 ,46,985278115502 ,82,9993145469316
13.5423307 ,Left ,59,0583906158145 ,47,0170841856976 ,83,0177843384877
13.5650468 ,Left ,59,0761385100573 ,47,0512847336027 ,83,0473709370978
13.5872903 ,Left ,59,0856021386151 ,47,056438746645 ,83,0780885128315
13.6017831 ,Left ,59,0909654233615 ,47,0644974039872 ,83,1167265693108
13.6312391 ,Left ,59,0928195981964 ,47,06728767106 ,83,1586989839011
13.6474722 ,Left ,59,1100031734701 ,47,0715443052786 ,83,1713427287887
13.6618595 ,Left ,59,0925258436853 ,47,0733911530168 ,83,1722610598348
13.6848475 ,Left ,59,0634327340493 ,47,0700474512764 ,83,167467477309
13.707502 ,Left ,59,0747526681116 ,47,0726645766107 ,83,1437129647646
13.7217869 ,Left ,59,0870982263951 ,47,0916753559531 ,83,1140792687715
13.7449715 ,Left ,59,010303919714 ,47,0928498693711 ,83,0769578283527
13.7673088 ,Left ,58,8914076558726 ,47,0832767561035 ,83,0126885951561
13.7887636 ,Left ,58,8082961313004 ,47,0693642692314 ,82,9808587671891
13.8049648 ,Left ,58,7702669057746 ,47,0358539983146 ,83,0104949768656
13.8278756 ,Left ,58,8131343024965 ,47,0387109675893 ,83,0422682021753
13.8491881 ,Left ,58,8729133242053 ,47,0576938454439 ,83,0357047114084
13.8653599 ,Left ,58,9445235027559 ,47,0877981420621 ,83,0109875757992
13.8872802 ,Left ,58,9261537966698 ,47,0954363953511 ,82,974799932392
13.9082301 ,Left ,58,9218000147985 ,47,1050398679468 ,82,9439092889266
13.9249709 ,Left ,58,9124766410267 ,47,0724749709955 ,82,9373092793912
13.9474597 ,Left ,58,9289110570326 ,46,9879613817447 ,82,8776553976889
13.9686002 ,Left ,58,778185619898 ,46,8632074204276 ,82,8843510434625
13.9925079 ,Left ,58,7226440880159 ,46,7959565265913 ,82,9339317003808
14.0071569 ,Left ,58,7909170178321 ,46,8651827554966 ,82,9814191769171
14.0285355 ,Left ,58,938790739648 ,46,9851698123038 ,82,9952685896787
14.0447334 ,Left ,59,0593443204678 ,47,079701397975 ,82,9993609483223
14.0671961 ,Left ,59,1046960584835 ,47,1511143464708 ,82,9903236167199
14.0899983 ,Left ,59,033971693724 ,47,1685377806819 ,82,9883669954272
14.1050431 ,Left ,58,9287568655569 ,47,116640698578 ,83,0128618651718
14.1274535 ,Left ,58,8967845641764 ,47,0929815489327 ,83,0757908448179
14.1483168 ,Left ,58,8877756681817 ,47,108894485584 ,83,1482649280429
14.1650162 ,Left ,58,9479021132531 ,47,1075346405346 ,83,1868269796781
14.187345 ,Left ,59,0431268795642 ,47,1065598648096 ,83,2061253181212
14.2085065 ,Left ,59,0622129720567 ,47,1057515823417 ,83,2144782137198
14.2247516 ,Left ,59,0439379153683 ,47,109787735072 ,83,1947340345445
14.2472168 ,Left ,59,0392610083258 ,47,1457954524523 ,83,1929517312543
14.2697204 ,Left ,59,0347177290624 ,47,1698590891951 ,83,1816528086088
14.2846402 ,Left ,59,0154831398519 ,47,2065955802516 ,83,13311854505
14.3074815 ,Left ,58,9369026570449 ,47,2090621907599 ,83,1455920577027
14.3284058 ,Left ,58,8769704405565 ,47,0966241213794 ,83,1440530563782
14.3511913 ,Left ,58,8717836387928 ,46,9975370773047 ,83,136358346885
14.3674829 ,Left ,58,9056052430456 ,47,0205360629914 ,83,1404648441789
14.3899323 ,Left ,58,8901098872627 ,47,1296108320266 ,83,106856143206
14.4049732 ,Left ,58,9130803851134 ,47,1989497645988 ,83,0514675912116
14.4273211 ,Left ,58,9758376018086 ,47,2143437032945 ,82,9878176407491
14.4503533 ,Left ,59,0173557883168 ,47,2344836600971 ,82,9045529293314
14.465345 ,Left ,58,9971076823135 ,47,2514718802824 ,82,8355375912123
14.487721 ,Left ,58,9043799696481 ,47,2609259847718 ,82,7912375724523
14.5103723 ,Left ,58,8699922379081 ,47,2521404136416 ,82,7639079541044
14.5244688 ,Left ,58,8684304029718 ,47,237615740775 ,82,7604795024977
14.5479404 ,Left ,58,8916789516108 ,47,2850641596539 ,82,7193915091716
14.5697256 ,Left ,58,8263927290198 ,47,3232574377547 ,82,6904646852738
14.5840493 ,Left ,58,7130967356884 ,47,2606774457853 ,82,75537207372
14.6071612 ,Left ,58,6625687810043 ,47,1580203427338 ,82,864858384723
14.6301494 ,Left ,58,801402742378 ,47,0563840980356 ,82,9475648516389
14.651105 ,Left ,58,9598890298647 ,46,9943983804051 ,82,9465813239288
14.6674983 ,Left ,58,9772807616897 ,46,9639727416016 ,82,9246125072191
14.689945 ,Left ,58,9219287168904 ,46,9903563748087 ,82,9422702091539
14.7118255 ,Left ,58,862318695397 ,47,0193279643201 ,82,8973117516184
14.7279327 ,Left ,58,8437152620813 ,46,9264559084357 ,82,8680902604332
14.7502239 ,Left ,58,7852371062862 ,46,7371295720759 ,82,8964935286159
14.770782 ,Left ,58,8031106774121 ,46,6549198279174 ,82,9655115613241
14.787228 ,Left ,58,8413855087642 ,46,7004489994353 ,83,0203624482868
14.8103212 ,Left ,58,9572148546618 ,46,7786162369336 ,83,0510837823242
14.8308785 ,Left ,59,1330512436277 ,46,8356993816542 ,83,0803036090951
14.8474824 ,Left ,59,2706855018428 ,46,8871605060813 ,83,0913509142154
14.8699277 ,Left ,59,3276330521 ,46,9466043695509 ,83,1080801178886
14.8909272 ,Left ,59,3069635326618 ,46,9886777016185 ,83,1428853580216
14.9075583 ,Left ,59,2708290509082 ,47,0158194313736 ,83,1734526433455
14.9299865 ,Left ,59,2666846935712 ,47,0187129255943 ,83,181359578566
14.9513099 ,Left ,59,2745861706562 ,47,007737177687 ,83,1951695242988
14.9675228 ,Left ,59,2484793448661 ,46,9888324828869 ,83,2120913485339
14.9899132 ,Left ,59,2168881163118 ,46,975932972957 ,83,2213706583418
15.0199961 ,Left ,59,1751400340404 ,46,9702037745422 ,83,2269972609854
15.0273024 ,Left ,59,1409550239911 ,46,9904947334433 ,83,231744718825
15.057466 ,Left ,59,1718282110914 ,47,0447357830932 ,83,2278104886442
15.0710161 ,Left ,59,2155029768151 ,47,113720382857 ,83,222509104014
15.0874978 ,Left ,59,186293281214 ,47,168728261406 ,83,2236465347689
15.1099752 ,Left ,59,0813553189978 ,47,2167321919579 ,83,2053347001072
15.1308316 ,Left ,59,0171416965726 ,47,2515711856014 ,83,1484852333442
15.1474584 ,Left ,58,9568246885431 ,47,2343399111787 ,83,1273122399013
15.1699746 ,Left ,58,930462452367 ,47,1934115148474 ,83,1358486804948
15.1911057 ,Left ,58,9669686991855 ,47,1826030972677 ,83,1082675211875
15.2078739 ,Left ,59,0098652703292 ,47,1920135891098 ,83,0618058360237
15.2303444 ,Left ,58,9814092678694 ,47,2081898165826 ,83,0265355086301
15.2515098 ,Left ,58,9388862124038 ,47,2424345229116 ,83,0016850483779
15.2675772 ,Left ,58,9264684991036 ,47,2719274627333 ,82,9886822143543
15.2900146 ,Left ,58,9465556339902 ,47,2190734153469 ,82,9378759866361
15.3121232 ,Left ,58,904018402572 ,47,1309582786529 ,82,9128288681753
15.3348338 ,Left ,58,8022782177747 ,47,0809706273669 ,82,9675737624127
15.3499104 ,Left ,58,8014013537457 ,47,127742283639 ,83,0519113658372
15.3723626 ,Left ,58,9943622576863 ,47,2214254148419 ,83,0716877882085
15.3869428 ,Left ,59,1665177772382 ,47,2665621624812 ,83,0643673220158
15.410017 ,Left ,59,1962856548196 ,47,2777322778574 ,83,0494434652132
15.4331422 ,Left ,59,1072344068466 ,47,2807272639109 ,83,024986616557
15.4537539 ,Left ,59,0120128595854 ,47,2165689073292 ,82,9952677891874
15.469988 ,Left ,58,9587729608435 ,47,1016591747457 ,82,977114391695
15.4925123 ,Left ,58,8997214733177 ,47,0107843637679 ,83,0153063681323
15.5067706 ,Left ,58,9469463367622 ,47,035449885684 ,83,0454608981081
15.5301199 ,Left ,59,0264286829887 ,47,1150153929726 ,83,0529986072135
15.5524703 ,Left ,59,0912208139556 ,47,1676050095726 ,83,0579333833497
15.5735863 ,Left ,59,1250820680781 ,47,2293529827653 ,83,0609159482965
15.5899864 ,Left ,59,0823715270346 ,47,2899318245617 ,83,0366690445816
15.6125556 ,Left ,59,0830470279734 ,47,3221059011389 ,82,9952087702707
15.6268233 ,Left ,59,0195039218798 ,47,2670506630433 ,82,9729098663495
15.6503216 ,Left ,58,9111921498647 ,47,1622197568283 ,82,9198070538071
15.6729014 ,Left ,58,8105955618624 ,47,109341774574 ,82,9384432993459
15.6940654 ,Left ,58,7692071152531 ,47,1492160093172 ,82,962693807117
15.7105107 ,Left ,58,8126693033484 ,47,1945254072677 ,82,9376321425368
15.7323806 ,Left ,58,8861681332742 ,47,1877739075358 ,82,892640732571
15.7468192 ,Left ,58,8142929753314 ,47,1620542035424 ,82,8349545916755
15.769949 ,Left ,58,7774703735766 ,47,1593726549323 ,82,7750839154655
15.7925164 ,Left ,58,8187107257547 ,47,1521809305466 ,82,7239191191072
15.8070013 ,Left ,58,8490890967024 ,47,1424251384386 ,82,6568243601821
15.8304744 ,Left ,58,8581157637797 ,47,14665397847 ,82,6204362017681
15.8528888 ,Left ,58,6566886709277 ,47,0466467954828 ,82,6747343825368
15.8735529 ,Left ,58,5177603309216 ,46,9562114299449 ,82,79062045465
15.8899455 ,Left ,58,5712868212245 ,46,8871162623619 ,82,9187086844584
15.9124773 ,Left ,58,7903537700319 ,46,8545666883658 ,82,9635354169373
15.9333898 ,Left ,59,0286490291192 ,46,8756435018774 ,83,0159779500768
15.9499857 ,Left ,59,0419886881908 ,46,9328085557814 ,83,0600685607291
15.9723728 ,Left ,59,0934488570272 ,46,984792259247 ,82,9859970413498
15.993476 ,Left ,59,020838572076 ,46,878485369398 ,82,9142310290987
16.0173606 ,Left ,58,8760805415683 ,46,7400369069567 ,82,9130775394428
16.0324323 ,Left ,58,7711366524019 ,46,6943792506859 ,82,9330066346799
16.0534835 ,Left ,58,7878765238413 ,46,7462346545819 ,82,9588473398577
16.0701013 ,Left ,58,913246985871 ,46,7789205580995 ,82,9623332339472
16.0923371 ,Left ,59,0284923309805 ,46,7720966497268 ,82,9654152861551
16.1133856 ,Left ,59,0633320338177 ,46,796505488766 ,82,9873414861674
16.13018 ,Left ,59,097243204992 ,46,8554681235481 ,83,0130651488122
16.1530369 ,Left ,59,138895664859 ,46,9226650342289 ,83,0325925606521
16.1739792 ,Left ,59,1864510106047 ,46,9817318065483 ,83,0690827676446
16.1894411 ,Left ,59,2096469589014 ,47,0317245735738 ,83,1146093342144
16.2125019 ,Left ,59,217915598934 ,47,0515842930791 ,83,1599736033137
16.23339 ,Left ,59,1824985260876 ,47,0299547754784 ,83,1955661674915
16.2499784 ,Left ,59,1391429681233 ,46,9934379993049 ,83,2056902595464
16.2723837 ,Left ,59,0872868761614 ,46,9830252108358 ,83,2069811398423
16.2946815 ,Left ,59,0426890304767 ,46,9914469388504 ,83,2066757284956
16.3097705 ,Left ,59,0638010285119 ,47,0107972789175 ,83,2055645114773
16.3324189 ,Left ,59,1182909962117 ,47,0386450859544 ,83,2076294579524
16.3549772 ,Left ,59,1187858571247 ,47,0532966961607 ,83,1977891482234
16.3700135 ,Left ,59,0533709037242 ,47,0727000371562 ,83,1725238628446
16.3924551 ,Left ,58,9230352200963 ,47,0862997628728 ,83,1265686469356
16.4151234 ,Left ,58,8546186445771 ,47,0557047875563 ,83,111689832171
16.4293895 ,Left ,58,8999345280145 ,47,0402181467956 ,83,1245038235199
16.4525005 ,Left ,58,9733201320472 ,47,0762279261515 ,83,1082164605836
16.4747205 ,Left ,59,0060811982015 ,47,1100083635048 ,83,0354543092115
16.4960862 ,Left ,58,9741385973043 ,47,0983854226589 ,82,9876523145057
16.5124174 ,Left ,58,9166664314743 ,47,1006225984777 ,82,980494166307
16.5350418 ,Left ,58,8873790306462 ,47,1068388555443 ,82,9639793883961
16.5491292 ,Left ,58,8600683748243 ,47,0372138973275 ,82,9076894668511
16.5723454 ,Left ,58,7557389534237 ,46,9261707592561 ,82,9094702073965
16.5947297 ,Left ,58,7456141560256 ,46,8752393261034 ,82,9809791342573
16.6159605 ,Left ,58,8071636573426 ,46,9368291020809 ,83,0438613200921
16.6324954 ,Left ,58,9446264144826 ,47,027544985869 ,83,0530918781653
16.6549651 ,Left ,59,0406125014342 ,47,0850736652771 ,83,0418575090608
16.6759075 ,Left ,59,0216074054114 ,47,1296157739477 ,83,0108854893854
16.6922962 ,Left ,58,9785917058852 ,47,1286056876636 ,82,9722360088647
16.7149883 ,Left ,58,9134369223335 ,47,0376585445637 ,82,9448100989526
16.7360754 ,Left ,58,8043474722748 ,46,9366141802039 ,82,9754366361356
16.7524348 ,Left ,58,7657012276205 ,46,8961345874604 ,83,0135310590545
16.7748009 ,Left ,58,811843685776 ,46,9155947637666 ,83,0331642356095
16.7960325 ,Left ,58,9006326103221 ,46,9729149410021 ,83,0563082152611
16.8125118 ,Left ,58,9406323254236 ,47,055462183973 ,83,0670435407251
16.8349914 ,Left ,58,9969592034547 ,47,1155835662356 ,83,040348658471
16.8559869 ,Left ,58,9846810325602 ,47,1339265896185 ,83,0344988750029
16.8722363 ,Left ,58,8824416278438 ,47,0776609915502 ,83,0248488594966
16.8948108 ,Left ,58,8383448807828 ,47,0463531304927 ,82,979153804821
16.9160054 ,Left ,58,7801728071645 ,47,0705228047707 ,82,9784469123699
16.9326091 ,Left ,58,7364545953034 ,47,1365384077737 ,82,9566463164122
16.9547357 ,Left ,58,7455326849195 ,47,1605283033275 ,82,9068527565365
16.976377 ,Left ,58,7472434423198 ,47,1477559260114 ,82,8420906344505
16.9922433 ,Left ,58,6312926251545 ,47,1287569602799 ,82,7660812274292
17.0147416 ,Left ,58,5953643494291 ,47,1073513811245 ,82,7038408703106
17.0361019 ,Left ,58,6178411414177 ,47,0587023504822 ,82,6586314582051
17.0525028 ,Left ,58,6526829254984 ,47,0683817029918 ,82,610723097031
17.0748883 ,Left ,58,6121022129877 ,47,0520614385933 ,82,5980562076423
17.0959094 ,Left ,58,3919890964658 ,46,9509125630542 ,82,6860181202614
17.112672 ,Left ,58,3556506892443 ,46,8994301877513 ,82,8717966362534
17.135127 ,Left ,58,6012035150034 ,46,8581840978258 ,82,9433527271689
17.1560462 ,Left ,58,846325650637 ,46,8402464756302 ,82,9255247887617
17.1718492 ,Left ,59,0011226092619 ,46,8708080087007 ,82,9801271535638
17.1950398 ,Left ,58,9619092820399 ,46,9860000124746 ,82,9868476531578
17.2173666 ,Left ,58,9810820831288 ,47,0063765602869 ,82,9272526632384
17.2397333 ,Left ,58,8969103166008 ,46,8436259031746 ,82,9120839890004
17.2550092 ,Left ,58,8190460906005 ,46,703910752067 ,82,9488202206053
17.2775585 ,Left ,58,8401013787276 ,46,6874412608088 ,82,9790659698569
17.2919346 ,Left ,58,9064330181234 ,46,7625323596368 ,82,9848827253903
17.3149265 ,Left ,59,0305995083737 ,46,8073658199669 ,82,973934007733
17.3374673 ,Left ,59,1224928378423 ,46,8100642108602 ,82,951527618712
17.3515221 ,Left ,59,1662504891782 ,46,842727599129 ,82,9401524801198
17.3747973 ,Left ,59,1845423755762 ,46,8896656762885 ,82,9488345890034
17.3974235 ,Left ,59,1969563304481 ,46,9402312920267 ,82,9585184326611
17.4116825 ,Left ,59,2009591385349 ,46,9909368517257 ,82,9868280654042
17.4349387 ,Left ,59,1960772492517 ,47,0317269870192 ,83,0247737130645
17.4574584 ,Left ,59,2008199829792 ,47,0286595628584 ,83,0677136073407
17.4717493 ,Left ,59,2015788853466 ,47,0019964096074 ,83,0900240348555
17.4948903 ,Left ,59,1674188008253 ,46,9665402798151 ,83,0967393391627
17.5176618 ,Left ,59,1477454388392 ,46,9395063361481 ,83,0928271557932
17.5315853 ,Left ,59,0976368687152 ,46,9557249195579 ,83,1063594161358
17.554946 ,Left ,59,0826149524702 ,47,0019996689131 ,83,1078352858398
17.5772764 ,Left ,59,1178028446949 ,47,0546475085961 ,83,091872327025
17.5916886 ,Left ,59,1191657838266 ,47,096268649355 ,83,0522809954968
17.6147653 ,Left ,59,0226700798937 ,47,1208795869483 ,82,9900582308694
17.6374998 ,Left ,58,9161281457244 ,47,0928402225089 ,82,9918015429398
17.6585791 ,Left ,58,9268558195859 ,47,0593389329784 ,83,0378025024477
17.6747322 ,Left ,58,9717712538205 ,47,0649791814997 ,83,0314411988811
17.6973811 ,Left ,59,0345001048513 ,47,0992561122352 ,82,9785486346543
17.7184883 ,Left ,59,026501764631 ,47,1131954775181 ,82,9315496141486
17.7349658 ,Left ,58,9649028078576 ,47,1287943263837 ,82,8884298382573
17.7574577 ,Left ,58,9248540606393 ,47,1579463583799 ,82,8500194562899
17.7783929 ,Left ,58,9492961785543 ,47,1383324056709 ,82,8004463536234
17.7948583 ,Left ,58,8621378238393 ,47,0490139346425 ,82,8211163321953
17.8001714 ,Left ,58,7938397057752 ,46,9728074669413 ,82,8960988647175
17.8229764 ,Left ,58,8768122037252 ,47,0171658950026 ,82,972944119151
17.845239 ,Left ,59,0483709848921 ,47,1213251265647 ,82,9995637322527
17.8607024 ,Left ,59,2069543411734 ,47,1986402329171 ,82,9871306098376
17.8830999 ,Left ,59,2406584053206 ,47,2421988144696 ,82,9769095888246
17.9060133 ,Left ,59,1348375902699 ,47,2853421125657 ,82,9445925999297
17.9207513 ,Left ,59,0142114667496 ,47,2396334292345 ,82,8956148265208
17.9428581 ,Left ,58,887742691282 ,47,13779270362 ,82,915118703573
17.9652664 ,Left ,58,8549023626774 ,47,0976078114302 ,82,9950402058399
17.9803593 ,Left ,58,9267953281729 ,47,1468502910027 ,83,0320064701105
18.0030106 ,Left ,59,0265966573609 ,47,1974588237489 ,83,0196555388612
18.0253784 ,Left ,59,0467761403142 ,47,2433190862236 ,83,0165251568976
18.0402855 ,Left ,59,032073399506 ,47,3086690167859 ,83,0085725811283
18.0628389 ,Left ,59,0578803069711 ,47,3351916201433 ,82,9902711073035
18.0860017 ,Left ,59,0140410825447 ,47,3190517467471 ,82,9530942591917
18.1006463 ,Left ,58,9490982657203 ,47,3004843517075 ,82,894678436382
18.1228253 ,Left ,58,7941328917838 ,47,2548785326724 ,82,9102921294465
18.1452454 ,Left ,58,7550569745767 ,47,2187197612156 ,82,968211488583
18.1605431 ,Left ,58,8388982458252 ,47,273015840813 ,82,9934042631803
18.1829036 ,Left ,58,9432112710713 ,47,316588817142 ,82,9527011005263
18.2060029 ,Left ,59,0111194805699 ,47,3017176013004 ,82,8698073186895
18.2210042 ,Left ,58,939110579007 ,47,2694583467271 ,82,7901584486237
18.2433423 ,Left ,58,8669305241989 ,47,2599354355476 ,82,7133401228928
18.2654115 ,Left ,58,8869499236535 ,47,2388351474716 ,82,6491701730315
18.280464 ,Left ,58,9133932355183 ,47,2076480106292 ,82,6027802953113
18.3029316 ,Left ,58,837439590201 ,47,1910521561713 ,82,574363593258
18.3252028 ,Left ,58,799762953311 ,47,2152626196413 ,82,5711233575036
18.3400001 ,Left ,58,5738049235342 ,47,105792695937 ,82,6437183985845
18.3625837 ,Left ,58,5346591719699 ,46,9712031886459 ,82,7675997324592
18.3852187 ,Left ,58,7111753344576 ,46,8727714278117 ,82,8512564952375
18.4001928 ,Left ,58,9409041847886 ,46,869199780284 ,82,8598502339897
18.4226689 ,Left ,59,1076402291069 ,46,8802456179462 ,82,8742650039913
18.445181 ,Left ,59,1499818488961 ,46,9511101745321 ,82,9016518237229
18.4610413 ,Left ,59,1276255380265 ,47,0359962638417 ,82,895639408604
18.4832733 ,Left ,59,016607711298 ,46,9826610505037 ,82,9008836132079
18.5139829 ,Left ,58,9448308296233 ,46,8554828772989 ,82,938505062593
18.5201799 ,Left ,58,9699369275605 ,46,774639615486 ,82,9962207545048
18.5426492 ,Left ,59,0045506262754 ,46,8302845486108 ,83,0175358242163
18.566045 ,Left ,59,085610131758 ,46,8827869085993 ,83,0117744362559
18.5814956 ,Left ,59,1462756737943 ,46,8872761924128 ,83,0173399111245
18.6103884 ,Left ,59,1746219017052 ,46,9148947238124 ,83,0297754644233
18.6252167 ,Left ,59,2133369763601 ,46,9599654830625 ,83,0634558213537
18.640196 ,Left ,59,2440491218859 ,47,0117974123964 ,83,089866817285
18.6628501 ,Left ,59,2911129291421 ,47,0286118955648 ,83,1008982889707
18.6854183 ,Left ,59,2714948937426 ,47,0139008402639 ,83,1055027347895
18.7002227 ,Left ,59,2353414582559 ,47,0079099088485 ,83,1146689313934
18.7227948 ,Left ,59,1901356822732 ,47,0156371815884 ,83,1350451037652
18.7454321 ,Left ,59,1505805260403 ,47,0304944314731 ,83,1393311562341
18.7617917 ,Left ,59,0721016615241 ,47,0350131908825 ,83,1446502795362
18.7829514 ,Left ,59,0481324614003 ,47,0287030064441 ,83,1541369640692
18.8054822 ,Left ,59,1256043934568 ,47,0671412361746 ,83,1764636231184
18.8217426 ,Left ,59,1947078610044 ,47,1205676114217 ,83,1862835510038
18.8430638 ,Left ,59,1595920030657 ,47,1726759755511 ,83,1854786514846
18.8654522 ,Left ,59,0541838376687 ,47,2136113090485 ,83,1553130738931
18.8818861 ,Left ,58,9421202350261 ,47,2173100678503 ,83,1038413100331
18.9026877 ,Left ,58,9111481202053 ,47,172064559429 ,83,0592899654601
18.9252654 ,Left ,58,9139470928655 ,47,0942294801359 ,83,0613577504464
18.9417265 ,Left ,58,9168389899621 ,47,0633232257634 ,83,0675301967157
18.9634314 ,Left ,58,8697394897947 ,47,0879955523276 ,83,0415013038931
18.9857534 ,Left ,58,8663399258488 ,47,1239079095147 ,83,0129612168408
19.0019142 ,Left ,58,9226279141123 ,47,1570797487519 ,82,9890924930487
19.0229208 ,Left ,58,9733823025742 ,47,1694621083594 ,82,9394477631558
19.0452997 ,Left ,58,9280858765132 ,47,1238225653484 ,82,9004044964271
19.0615993 ,Left ,58,8173281507916 ,47,0018149747225 ,82,8606787443654
19.0826216 ,Left ,58,7318050738609 ,46,9205103411477 ,82,8734648699705
19.1053251 ,Left ,58,7075268316799 ,46,9530034036608 ,82,943229921081
19.1233502 ,Left ,58,8086553035211 ,47,0603898808196 ,82,9895593885902
19.1427667 ,Left ,59,0166872788376 ,47,1464609193082 ,82,9989459299445
19.1654342 ,Left ,59,1524348063786 ,47,1966219878326 ,82,9851562213171
19.1831637 ,Left ,59,1017429596729 ,47,2401534944119 ,82,9531003435751
19.2031538 ,Left ,58,9917808372609 ,47,2203089662701 ,82,9118645091547
19.2253381 ,Left ,58,8570920142236 ,47,1175899247106 ,82,874695188212
19.2432553 ,Left ,58,7872221710326 ,47,0498701664196 ,82,9196736019571
19.2631264 ,Left ,58,7774968672087 ,47,0782525672734 ,82,9900013615239
19.2855684 ,Left ,58,8382292481385 ,47,1175090347496 ,83,0122446912159
19.3032689 ,Left ,58,9797579603133 ,47,1240255589628 ,83,0141060684435
19.3230844 ,Left ,59,0337557765768 ,47,163350908822 ,83,028975118148
19.3455318 ,Left ,58,9912771949496 ,47,2487456964042 ,83,0109270252538
19.3635083 ,Left ,58,9125140835362 ,47,3068362965843 ,82,9990702067257
19.3827129 ,Left ,58,9456745384444 ,47,3140645958008 ,82,9689780704133
19.40542 ,Left ,58,9466614534129 ,47,3304321522706 ,82,9432951857762
19.4232553 ,Left ,58,8956648398266 ,47,3406908962555 ,82,9274053953677
19.4427367 ,Left ,58,6992082564093 ,47,2912045584829 ,82,9597929288021
19.4652027 ,Left ,58,6961327860476 ,47,2424494502899 ,82,9975639869889
19.4831689 ,Left ,58,8240717677232 ,47,2864268428798 ,83,001643945433
19.5028253 ,Left ,58,9376183690122 ,47,3485571338306 ,82,9457163334238
19.525335 ,Left ,58,9829294051389 ,47,3421072425443 ,82,8731962146037
19.5477479 ,Left ,58,9383190068284 ,47,3129822330641 ,82,7970452732672
19.56292 ,Left ,58,8857030839861 ,47,2996414833868 ,82,7242344115306
19.58502 ,Left ,58,8683232095869 ,47,2767504538216 ,82,6561831270995
19.6036902 ,Left ,58,8621653810036 ,47,2381216117468 ,82,6107014127649
19.6232501 ,Left ,58,8559603424245 ,47,1945364883076 ,82,5857125273468
19.6456571 ,Left ,58,8149165009083 ,47,1827363283623 ,82,5836406521508
19.663113 ,Left ,58,7474920187359 ,47,2215672577287 ,82,5763983562547
19.6829846 ,Left ,58,6816764838938 ,47,2365214029199 ,82,6448380481435
19.7053264 ,Left ,58,6709264233422 ,47,1299758102305 ,82,7361369729256
19.72319 ,Left ,58,7788308405982 ,47,027578413739 ,82,7977483656206
19.744169 ,Left ,58,8598921706035 ,46,9494099271996 ,82,8406509296941
19.7657035 ,Left ,58,8852944870401 ,46,93026726631 ,82,8518006196298
19.7833523 ,Left ,58,9259117100407 ,46,9544897886418 ,82,8796475938744
19.8044265 ,Left ,58,9239409626413 ,47,0069330255433 ,82,8869903189486
19.8256594 ,Left ,58,95792415932 ,47,0182997995253 ,82,8304903347135
19.8434604 ,Left ,58,9010081960514 ,46,8895075642064 ,82,8075632076483
19.8641393 ,Left ,58,8445911407847 ,46,7460362898477 ,82,8600695783099
19.8854199 ,Left ,58,8163723584031 ,46,7125489946624 ,82,9143908827395
19.9032711 ,Left ,58,8360424808572 ,46,7622248260043 ,82,9359427260433
19.9240895 ,Left ,58,9231328704271 ,46,7817257280963 ,82,9539305973608
19.9454149 ,Left ,59,0485336328714 ,46,7892280371568 ,82,9721474991901
19.9678694 ,Left ,59,140440889185 ,46,8170942323668 ,82,9750127465381
19.9841899 ,Left ,59,1998917304575 ,46,8465657910766 ,82,9542465325753
20.0050949 ,Left ,59,1857681647947 ,46,8539040894983 ,82,9203711849175
20.0279243 ,Left ,59,1397529427538 ,46,8599206087735 ,82,9055127185559
20.0457795 ,Left ,59,1242653962263 ,46,8787116892349 ,82,9106065573229
20.0652584 ,Left ,59,1264079208251 ,46,904184916965 ,82,9399943681946
20.083265 ,Left ,59,1166129955638 ,46,9100211035445 ,82,962402912749
20.1058819 ,Left ,59,1319033265539 ,46,9021727120332 ,82,9612954706706
20.1253531 ,Left ,59,1034975035051 ,46,9057291164056 ,82,9689694379157
20.1432396 ,Left ,59,0875057057208 ,46,9334772712119 ,82,9853395538689
20.1657796 ,Left ,59,126917980832 ,46,9696591394844 ,82,998733551475
20.185259 ,Left ,59,1493786666628 ,47,0104218938507 ,83,0026993898876
20.2032556 ,Left ,59,0972900098077 ,47,0282836542291 ,82,9743709273068
20.2257142 ,Left ,59,0113410549596 ,47,0540414130397 ,82,9414451336711
20.2456098 ,Left ,58,8575540403372 ,47,0912605342452 ,82,93677984509
20.2680956 ,Left ,58,7948118194022 ,47,0579827664697 ,82,9243052126698
20.2919383 ,Left ,58,8649330408922 ,47,0144495309049 ,82,9348908683582
20.3053018 ,Left ,58,9268656645556 ,46,9921655225536 ,82,9364916773979
20.3278795 ,Left ,58,8801179056509 ,46,9972349108895 ,82,891912562138
20.3458069 ,Left ,58,8482404471464 ,47,0136442362371 ,82,8661812660232
20.3731022 ,Left ,58,9210831063333 ,47,0688066467873 ,82,8519213931078
20.3832801 ,Left ,58,9313923169087 ,47,1269796411459 ,82,82454189929
20.4058451 ,Left ,58,8998968774946 ,47,0947756026213 ,82,7814223893815
20.4253909 ,Left ,58,8169363946684 ,46,9836234880169 ,82,78231986789
20.4431715 ,Left ,58,7509368864769 ,46,8977156850117 ,82,8534965439554
20.4661654 ,Left ,58,8031454472462 ,46,9249332485686 ,82,9189413895396
20.4858372 ,Left ,58,9329855773746 ,47,0248917119492 ,82,9348076945561
20.5078255 ,Left ,59,0483170154316 ,47,0847326172179 ,82,9324216091526
20.5260107 ,Left ,59,0811135363569 ,47,1175297695903 ,82,9346132556217
20.5454858 ,Left ,59,0625209698317 ,47,1466319249168 ,82,9387389998666
20.5677423 ,Left ,58,9875172699063 ,47,0980377954937 ,82,9209720055575
20.5855523 ,Left ,58,8666725212022 ,47,0271567630278 ,82,9360166731134
20.6051305 ,Left ,58,869677263575 ,47,0384462341152 ,82,9771596959244
20.6233263 ,Left ,58,937083730101 ,47,1123317999953 ,82,9906711954683
20.6462103 ,Left ,59,0082100582824 ,47,1664528272924 ,82,9853273834654
20.6671137 ,Left ,59,0270514816585 ,47,2231182433746 ,82,9940134063689
20.6832933 ,Left ,59,0615011397706 ,47,2488720887515 ,82,9795034807541
20.7061282 ,Left ,59,0386357763399 ,47,2589063602978 ,82,963057971767
20.727261 ,Left ,58,9688249348561 ,47,2215016343495 ,82,9612933623035
20.747832 ,Left ,58,8838229536925 ,47,1657055815298 ,82,909186579028
20.7658206 ,Left ,58,8318101065067 ,47,1589351408871 ,82,8916114039228
20.7868688 ,Left ,58,808157189802 ,47,204178159102 ,82,8956514922864
20.8078215 ,Left ,58,8408841717077 ,47,2397665758343 ,82,8557447594547
20.8258787 ,Left ,58,9087827371822 ,47,2549834914657 ,82,7967298991595
20.8488202 ,Left ,58,874627664728 ,47,2429384409536 ,82,7229885357141
20.8685697 ,Left ,58,8107346704103 ,47,229822659812 ,82,6497383297503
20.8859246 ,Left ,58,7892079411413 ,47,2173295751611 ,82,6076595626886
20.9068414 ,Left ,58,7982528157873 ,47,2412309347874 ,82,5695793021105
20.927803 ,Left ,58,7446883506446 ,47,2909020782113 ,82,5196918026488
20.9457202 ,Left ,58,771631372881 ,47,3262949777127 ,82,5195567260873
20.9667302 ,Left ,58,6191222824216 ,47,2246612556029 ,82,5874614360135
20.9878336 ,Left ,58,5775007353868 ,47,1173016860705 ,82,6663168009705
21.0058807 ,Left ,58,6312086518553 ,47,0416006593554 ,82,7586234966764
21.0282396 ,Left ,58,8018634315062 ,47,0153190280343 ,82,7839907427002
21.0479359 ,Left ,58,962418758863 ,47,0457474583191 ,82,817228430523
21.0657876 ,Left ,58,9627368628748 ,47,1184120806993 ,82,8259012078568
21.0883154 ,Left ,58,9395140427141 ,47,1503068381635 ,82,7564846252477
21.109657 ,Left ,58,8856882572621 ,47,0479133799947 ,82,7407188975119
21.1266934 ,Left ,58,810508877557 ,46,9358856886893 ,82,7749858604456
21.1484219 ,Left ,58,8463696157186 ,46,8776751101236 ,82,8046522986899
21.1680361 ,Left ,58,8932509919322 ,46,8780196707989 ,82,8170858949532
21.1859677 ,Left ,58,9988487405811 ,46,9063385939058 ,82,8035795117696
21.2083041 ,Left ,59,0751730579971 ,46,9150803383093 ,82,8113472467426
21.227811 ,Left ,59,1092970267418 ,46,954105935256 ,82,8216967328911
21.245731 ,Left ,59,1414743339846 ,46,9992577028231 ,82,8220559460515
21.2743946 ,Left ,59,1955360426604 ,47,0473535659687 ,82,8423969182897
21.2909535 ,Left ,59,2428848053272 ,47,1074637481246 ,82,8760329356502
21.3059153 ,Left ,59,2686497454892 ,47,1381842832195 ,82,909219757516
21.3283246 ,Left ,59,2420351011534 ,47,1361985262994 ,82,9521460073711
21.3477739 ,Left ,59,2165113037245 ,47,1312848014119 ,82,9902350602838
21.3659984 ,Left ,59,1935989569588 ,47,1367537858828 ,83,0023768205046
21.3874482 ,Left ,59,1262524587214 ,47,1494394302914 ,83,008491160751
21.4087888 ,Left ,59,0901710453464 ,47,1604178118977 ,83,0064810427996
21.4250788 ,Left ,59,11224388729 ,47,1909708518585 ,83,0117605628619
21.4473959 ,Left ,59,1196134286008 ,47,2105144028102 ,82,9983072389793
21.4685716 ,Left ,59,0794895962534 ,47,2230071069462 ,82,9707327134574
21.4849681 ,Left ,58,9195451438102 ,47,2237766305915 ,82,923154901107
21.5075698 ,Left ,58,8208778383581 ,47,2095222190095 ,82,9144442993636
21.5284836 ,Left ,58,8123000726102 ,47,1815769943205 ,82,9409622514827
21.5448167 ,Left ,58,8827193698655 ,47,1887173077206 ,82,9408111614731
21.5672394 ,Left ,58,959495906185 ,47,2078559903182 ,82,895939027252
21.5885788 ,Left ,58,9597721970719 ,47,213722938744 ,82,8522648013085
21.6050095 ,Left ,58,9179771357472 ,47,2240992000456 ,82,827741917328
21.6273295 ,Left ,58,8620721051939 ,47,2308997413197 ,82,7933527386343
21.6491711 ,Left ,58,839492540404 ,47,1741034802455 ,82,7439433621542
21.6658703 ,Left ,58,7914846674796 ,47,0817534541874 ,82,7618008648294
21.6875373 ,Left ,58,7872393026706 ,47,0358093517469 ,82,8353442508043
21.7088872 ,Left ,58,8690195911127 ,47,1115451515533 ,82,8787777867895
21.7250116 ,Left ,58,986512882548 ,47,2076285012185 ,82,8821455156302
21.7476135 ,Left ,59,0598397897138 ,47,2619875335271 ,82,8926210227587
21.7683799 ,Left ,59,0575472382142 ,47,303681792102 ,82,8738490093126
21.7847774 ,Left ,59,0167607759387 ,47,2742368210617 ,82,8482573638986
21.8074747 ,Left ,58,9727374323529 ,47,1529227477536 ,82,8567186581227
21.8284321 ,Left ,58,8897770064935 ,47,0536253230429 ,82,8802441987548
21.8450105 ,Left ,58,858683949419 ,47,0416410798314 ,82,9056839732286
21.8673217 ,Left ,58,9153304129946 ,47,0955328610195 ,82,9278323289553
21.8886425 ,Left ,58,9586356888759 ,47,1700589644567 ,82,941473227102
21.9050543 ,Left ,59,026564758521 ,47,243552143389 ,82,9384615994513
21.9272368 ,Left ,59,0862452674759 ,47,2873145916175 ,82,9201519404569
21.9572095 ,Left ,59,0378361460859 ,47,2580555289909 ,82,8958673590876
21.963942 ,Left ,58,958999873392 ,47,2157859558296 ,82,8318276092663
21.9872552 ,Left ,58,8522891105098 ,47,1735036395246 ,82,7579508585862
22.0100493 ,Left ,58,7168614232736 ,47,1923154349999 ,82,7596469122252
22.0241156 ,Left ,58,6760023581376 ,47,2545811086477 ,82,7603316529317
22.0475558 ,Left ,58,7511266459721 ,47,2873070112564 ,82,71624479444
22.0699385 ,Left ,58,8116545985619 ,47,2742553534579 ,82,6371464147064
22.0842157 ,Left ,58,7327164913184 ,47,2322008666272 ,82,554940111834
22.1074174 ,Left ,58,6543808129868 ,47,2140105019818 ,82,4939004208828
22.1299003 ,Left ,58,6441618302887 ,47,2170511741289 ,82,4537375293427
22.1446694 ,Left ,58,6306791569834 ,47,2465995275869 ,82,4050868677321
22.1678832 ,Left ,58,5994835663141 ,47,2053381632721 ,82,4191175542632
22.1898682 ,Left ,58,4463412407492 ,47,0749354692316 ,82,5174073759781
22.2113101 ,Left ,58,4166041986599 ,46,9737223203219 ,82,6697880332178
22.2350344 ,Left ,58,5615104727982 ,46,8840169654225 ,82,7551003328864
22.2499694 ,Left ,58,7526051825294 ,46,8886855697779 ,82,7705376314816
22.270965 ,Left ,58,8283588280656 ,46,957482648188 ,82,7890755952922
22.2872452 ,Left ,58,8992246746662 ,47,0328594886464 ,82,7154475740709
22.3097731 ,Left ,58,8928023118076 ,46,9476805331931 ,82,6506774454879
22.3308347 ,Left ,58,7887750391419 ,46,7472446355728 ,82,6149785305969
22.3472754 ,Left ,58,6420610745214 ,46,6288371448382 ,82,6396278164751
22.3698022 ,Left ,58,5743831331939 ,46,6254439671971 ,82,717200913696
22.3907215 ,Left ,58,7413271134561 ,46,7065218962631 ,82,7479365214129
22.4078682 ,Left ,58,9900931265679 ,46,7540346571051 ,82,7520581676574
22.4302527 ,Left ,59,1167495418675 ,46,7653699654972 ,82,7501733020004
22.4511675 ,Left ,59,1240772224362 ,46,8050813113049 ,82,7536735904126
22.4675382 ,Left ,59,0935781639586 ,46,8760004032269 ,82,7467755523455
22.4900236 ,Left ,59,0586977514931 ,46,9330527251404 ,82,7362385654868
22.5111692 ,Left ,59,0466616766115 ,46,9662289428929 ,82,7397454448205
22.5278361 ,Left ,59,0264367835591 ,46,9808664266753 ,82,7606058678429
22.5499747 ,Left ,59,031142555307 ,46,9771366289808 ,82,7977571701407
22.5708538 ,Left ,58,9948503552057 ,46,9605559560415 ,82,839729049864
22.5872435 ,Left ,58,9582839342596 ,46,9454494317725 ,82,8749818919589
22.609778 ,Left ,58,9256102072811 ,46,9648362452674 ,82,9269869509368
22.6308466 ,Left ,58,9431235523798 ,46,9762151719725 ,82,982702284866
22.6472562 ,Left ,59,0677189969481 ,47,0128816614029 ,83,0175802694713
22.6697137 ,Left ,59,1311664345113 ,47,0419868852636 ,83,0274448632477
22.6914821 ,Left ,59,0387909641593 ,47,0626892062265 ,83,0209879166153
22.7078878 ,Left ,58,8878003830288 ,47,0814385635302 ,83,0117726867374
22.7298334 ,Left ,58,8561245439989 ,47,1065153757113 ,82,9398717277977
22.7510198 ,Left ,58,7657501679526 ,47,0641485538748 ,82,8769180087802
22.7672772 ,Left ,58,75488350359 ,47,0153842037469 ,82,8737915240026
22.7904359 ,Left ,58,7686116008649 ,46,9977045178311 ,82,8808987104883
22.8111019 ,Left ,58,6796118791255 ,46,9981630158352 ,82,8632596265598
22.826912 ,Left ,58,7064618063093 ,47,0039050131117 ,82,8537408059364
22.8500237 ,Left ,58,7794244871743 ,47,0361449244249 ,82,8455053023375
22.870952 ,Left ,58,8328417153223 ,47,0708426808437 ,82,8090806670641
22.8868221 ,Left ,58,7833186718045 ,47,0673637833271 ,82,792907894412
22.9103075 ,Left ,58,7602004532489 ,46,9932695843813 ,82,7532934035041
22.9327235 ,Left ,58,6242943432798 ,46,9077320479083 ,82,7807670696495
22.9475294 ,Left ,58,6164042114238 ,46,8857621026371 ,82,8478158248659
22.9700007 ,Left ,58,7407502239035 ,46,9622775911672 ,82,9023374421502
22.9924178 ,Left ,58,9121932579341 ,47,0631180384498 ,82,9153083024941
23.0069987 ,Left ,58,9990963665163 ,47,1301534774037 ,82,9151438680994
23.030353 ,Left ,58,9379522937335 ,47,1547834089263 ,82,9052326810689
23.0598795 ,Left ,58,8785793315615 ,47,1219701664865 ,82,8886061880851
23.0666964 ,Left ,58,7827621671016 ,47,0426191288074 ,82,9088159462404
23.089689 ,Left ,58,7283685327775 ,46,9977184007724 ,82,9363837288854
23.1123424 ,Left ,58,7643070561613 ,47,0444921829249 ,82,9480189976696
23.1267171 ,Left ,58,8269585370252 ,47,103736751101 ,82,9718819556893
23.14976 ,Left ,58,8758982902991 ,47,1632477707231 ,82,9811920519762
23.1722473 ,Left ,58,9192486295974 ,47,1987987325423 ,82,9567357318395
23.186593 ,Left ,58,8886111748208 ,47,1926688318841 ,82,9183017836064
23.2171776 ,Left ,58,8618706417347 ,47,1948578378684 ,82,8538221797359
23.2322529 ,Left ,58,7750334891684 ,47,182490705963 ,82,7933694965393
23.2532831 ,Left ,58,6262029022171 ,47,2029506964877 ,82,8270878502394
23.2695792 ,Left ,58,6290234169647 ,47,2895218941515 ,82,8533046347376
23.2924755 ,Left ,58,6860856443983 ,47,3882194297854 ,82,8289743708971
23.3136288 ,Left ,58,7585091316754 ,47,4140964664544 ,82,7464618972301
23.3298844 ,Left ,58,6689631943524 ,47,3455987135882 ,82,6393544792882
23.3530983 ,Left ,58,5364869468925 ,47,288142170797 ,82,5361006630855
23.3740526 ,Left ,58,5292966179822 ,47,2589876035014 ,82,4327064780558
23.3898181 ,Left ,58,4722295126274 ,47,2168045621154 ,82,3486569676088
23.4125105 ,Left ,58,4189153709698 ,47,1539380969084 ,82,3454465022089
23.4334166 ,Left ,58,2669760046599 ,47,0333594256578 ,82,413423102799
23.4498003 ,Left ,58,2168854220234 ,46,9563638563904 ,82,5917398175959
23.4723106 ,Left ,58,3087740257382 ,46,9026522906828 ,82,7171693208013
23.4933604 ,Left ,58,5408328974915 ,46,8958507819403 ,82,7553191243114
23.5100956 ,Left ,58,7398474292179 ,46,9061921166869 ,82,7877568602774
23.5326641 ,Left ,58,7335376246706 ,46,9761256943401 ,82,781166798852
23.5534346 ,Left ,58,7779000554077 ,46,996743088341 ,82,72045228518
23.5700467 ,Left ,58,7268792686037 ,46,8695563476669 ,82,7032556746126
23.5925678 ,Left ,58,6605466596933 ,46,7605920924655 ,82,7153229050023
23.6135381 ,Left ,58,6620867961512 ,46,7365015829314 ,82,7410175059248
23.6299944 ,Left ,58,7374009985747 ,46,7901012946341 ,82,7518926932869
23.6523255 ,Left ,58,8501144355434 ,46,8350777525806 ,82,7479889564552
23.6733237 ,Left ,58,9420767614427 ,46,8391195241981 ,82,7434879963342
23.6898538 ,Left ,58,9731430379288 ,46,8678120662964 ,82,7603069918543
23.7125322 ,Left ,59,0519375735496 ,46,9696243600062 ,82,7890465074498
23.7334717 ,Left ,59,0926607412869 ,47,0629284116398 ,82,8402300241704
23.7494154 ,Left ,59,0800094829733 ,47,1022924242473 ,82,8858490119574
23.7726103 ,Left ,59,0803803283719 ,47,0936668340982 ,82,9222780072731
23.7965614 ,Left ,59,0651573931679 ,47,0632930689287 ,82,9618943895739
23.8103235 ,Left ,59,0538822163412 ,47,053848749992 ,82,9840565128004
23.832916 ,Left ,58,957825032233 ,47,0451446774921 ,82,9804648436035
23.8556151 ,Left ,58,8972226852819 ,47,0297112533729 ,82,9797470675347
23.8700024 ,Left ,58,9326820474943 ,47,0403871914793 ,82,9901966133485
23.8998817 ,Left ,58,9870376205087 ,47,0647955900894 ,83,0086275597007
23.9151849 ,Left ,59,0044138285223 ,47,0889746378406 ,83,0193030650426
23.9299979 ,Left ,58,9690123333223 ,47,0972700686599 ,83,0300320754717
23.9526106 ,Left ,58,9121055029847 ,47,0985264988407 ,83,0489200884595
23.9810012 ,Left ,58,8833915748323 ,47,1061764620739 ,83,0686191310334
23.9894574 ,Left ,58,8733323866614 ,47,1198014102109 ,83,0776244676474
24.0125661 ,Left ,58,8711828264113 ,47,1302873904819 ,83,0786602930158
24.0351014 ,Left ,58,8786311682733 ,47,1555202637462 ,83,0808710951374
24.0493663 ,Left ,58,8934871287578 ,47,1724310481804 ,83,0755009564843
24.0724969 ,Left ,58,8753412666159 ,47,171047852424 ,83,0678734735533
24.0946823 ,Left ,58,844021408741 ,47,1664536706813 ,83,0723117204098
24.109403 ,Left ,58,8434193254241 ,47,1840671828149 ,83,0872881027421
24.1325928 ,Left ,58,8552384951405 ,47,2025097837667 ,83,0983387412783
24.1551698 ,Left ,58,8971034541547 ,47,2221665354443 ,83,1060167054677
24.1694932 ,Left ,58,9647147405105 ,47,2422325215365 ,83,1034095057214
24.1925192 ,Left ,58,9890676104675 ,47,2369940525497 ,83,0837435083194
24.2150463 ,Left ,58,9789312079466 ,47,2323458228931 ,83,0593352303468
24.2293375 ,Left ,58,9913955705171 ,47,2457902322238 ,83,0529926031606
24.2584697 ,Left ,58,9959135289904 ,47,276729394851 ,83,0544019571326
24.2748967 ,Left ,59,018291034538 ,47,3280691057302 ,83,0435947356033
24.2962992 ,Left ,59,005148958411 ,47,3552081013692 ,83,0387190006162
24.3125197 ,Left ,58,9981544986082 ,47,3638708306199 ,83,045532807186
24.3352147 ,Left ,58,9964289612187 ,47,381430006418 ,83,067334798398
24.3566227 ,Left ,59,0029918328168 ,47,4164066784752 ,83,0763667581011
24.3726318 ,Left ,59,0021116997319 ,47,4176437115879 ,83,0789915281903
24.3953602 ,Left ,59,0004465296209 ,47,4047114604448 ,83,088860947082
24.416546 ,Left ,59,023356374943 ,47,3886415517575 ,83,1006274684157
24.4324719 ,Left ,59,0355927469473 ,47,3719101807607 ,83,0999711057638
24.4548518 ,Left ,59,0172897454026 ,47,3504288403017 ,83,0962482027858
24.4760414 ,Left ,58,9752038317549 ,47,3183109260879 ,83,0706242918535
24.4925838 ,Left ,58,9439438452521 ,47,2657022555673 ,83,0362921497159
24.5148284 ,Left ,58,8561486514536 ,47,2134063531953 ,83,0042729137178
24.535982 ,Left ,58,8699088138923 ,47,1754778338894 ,82,9957740115922
24.5524677 ,Left ,58,917475856014 ,47,1489096782343 ,82,9909027467655
24.5748612 ,Left ,58,905243375112 ,47,1680127216363 ,82,9818074647218
24.5961325 ,Left ,58,90915877817 ,47,2207760412913 ,82,9607483647614
24.6200004 ,Left ,58,9446134424119 ,47,2568874134199 ,82,9354644608397
24.6351009 ,Left ,58,9438021493596 ,47,2841053961797 ,82,9100763103898
24.6564756 ,Left ,58,8965728840262 ,47,290167169759 ,82,8706463241746
24.6726242 ,Left ,58,861626359878 ,47,2046078633929 ,82,8221600304371
24.6949176 ,Left ,58,7505826535956 ,47,1025932523071 ,82,8176771359582
24.715871 ,Left ,58,6916897134997 ,47,050411505063 ,82,854105787011
24.7316615 ,Left ,58,7396596568847 ,47,0748233009978 ,82,9001672118588
24.7547468 ,Left ,58,8796303390833 ,47,1293285393837 ,82,9310761176218
24.7774783 ,Left ,58,9758189292328 ,47,1803136836702 ,82,9500076411685
24.7919334 ,Left ,58,9632213879523 ,47,2032097512703 ,82,9442401398824
24.815045 ,Left ,58,9095794809158 ,47,1566793365593 ,82,9391840216017
24.8388795 ,Left ,58,8540614866471 ,47,0700274287165 ,82,9369775412846
24.8525397 ,Left ,58,7332455540618 ,47,0410360979135 ,82,9685515137243
24.8749858 ,Left ,58,7320836213532 ,47,0701363465612 ,82,9848027470348
24.8979569 ,Left ,58,8255936447906 ,47,1381780160313 ,82,9850426659896
24.9127309 ,Left ,58,8811998247879 ,47,216535792785 ,82,9812321227985
24.9350106 ,Left ,58,8831769394527 ,47,2911150417512 ,82,9942999759844
24.957904 ,Left ,58,9089643699482 ,47,3377236912792 ,82,99146485417
24.9722992 ,Left ,58,8936028355567 ,47,3022587293594 ,82,9628964773878
24.994948 ,Left ,58,8180320992423 ,47,2485614040105 ,82,9145186236845
25.0176193 ,Left ,58,7489763398363 ,47,2088445797173 ,82,8517675927593
25.0382996 ,Left ,58,6659940516994 ,47,2153488390661 ,82,832375305328
25.0554328 ,Left ,58,6387724645452 ,47,2637510974797 ,82,8235377957416
25.0775884 ,Left ,58,7069786120319 ,47,3281014585094 ,82,7799406123202
25.0919111 ,Left ,58,7662832174771 ,47,3352832593359 ,82,7135009405513
25.1149489 ,Left ,58,6732587159041 ,47,2784393675936 ,82,6395111669958
25.1372714 ,Left ,58,5871683388532 ,47,2456123138792 ,82,5809878238554
25.1585128 ,Left ,58,5747032327278 ,47,2465268201018 ,82,5442741183245
25.1748868 ,Left ,58,5623614296632 ,47,2869176445706 ,82,4927839699313
25.1972643 ,Left ,58,5206433526953 ,47,2612322946043 ,82,506881359813
25.2183188 ,Left ,58,4560177907509 ,47,1220036780543 ,82,5922441283828
25.2349346 ,Left ,58,4330375282752 ,47,0104466379343 ,82,6998003473892
25.2573906 ,Left ,58,5856573732456 ,46,9845499337547 ,82,7551536868467
25.2783711 ,Left ,58,7498864371737 ,47,004804435393 ,82,7921345088769
25.2948435 ,Left ,58,8939002388657 ,46,9719340236894 ,82,8081496199298
25.3173397 ,Left ,58,982788472496 ,46,9702140392483 ,82,8302503035302
25.3385376 ,Left ,58,9793316309052 ,46,9801956816304 ,82,8101824588369
25.3549772 ,Left ,58,9116823602368 ,46,8899340309454 ,82,7494679069171
25.3775286 ,Left ,58,8591560398277 ,46,7445271025352 ,82,7238879368699
25.3985289 ,Left ,58,7616584246449 ,46,6625775716099 ,82,7386365129362
25.4148937 ,Left ,58,6846769530785 ,46,6938497953113 ,82,7539949368265
25.4374237 ,Left ,58,7322123488342 ,46,7698220010205 ,82,818125098138
25.4584806 ,Left ,58,9520548751266 ,46,8437810824427 ,82,8518624616125
25.4749718 ,Left ,59,0991986797426 ,46,8929270917305 ,82,851247975526
25.4975906 ,Left ,59,0685131232358 ,46,9084161972393 ,82,8332296476651
25.518612 ,Left ,59,0537716116003 ,46,9150433604552 ,82,8201755031002
25.5354783 ,Left ,59,0815096270842 ,46,9166511564831 ,82,8100847546429
25.5577515 ,Left ,59,1039393683428 ,46,9484405675169 ,82,8022419076891
25.5793324 ,Left ,59,0395683757791 ,46,9610523413807 ,82,7947612680889
25.5955796 ,Left ,58,9694689451365 ,46,9551667818255 ,82,810208032852
25.6179071 ,Left ,58,9633245419117 ,46,9717034949593 ,82,847471265197
25.6387245 ,Left ,59,0141091446138 ,47,0087950448371 ,82,8860484532231
25.6550383 ,Left ,59,0422740063093 ,47,0504764123842 ,82,9204844766217
25.6776793 ,Left ,59,0413510933881 ,47,0622103108706 ,82,9394750051803
25.6998511 ,Left ,59,0955487066611 ,47,0783260164513 ,82,9719068703042
25.7145247 ,Left ,59,1317287724881 ,47,116022623105 ,83,0107896472991
25.7373285 ,Left ,59,1243115314292 ,47,1662625826385 ,83,0135857183838
25.7600203 ,Left ,59,0562289294146 ,47,1871805432138 ,82,9840411303894
25.7749475 ,Left ,59,0289044184203 ,47,1958777657773 ,82,952633690207
25.797515 ,Left ,59,0293535335154 ,47,223879458008 ,82,9372255520812
25.8200132 ,Left ,58,9653033773915 ,47,2417372671601 ,82,9087174064042
25.840991 ,Left ,58,9405075553156 ,47,2217989259371 ,82,8819901720553
25.8575251 ,Left ,58,8786005914995 ,47,1353524326392 ,82,8828319663007
25.8800149 ,Left ,58,8294337629578 ,47,0969212312014 ,82,8945849604298
25.8942124 ,Left ,58,7939334619213 ,47,1147982733728 ,82,8736626196482
25.9173707 ,Left ,58,8573512719377 ,47,129319499254 ,82,8357071903689
25.9399154 ,Left ,58,8890148091174 ,47,1363277296253 ,82,8128507567546
25.9540338 ,Left ,58,9293998116397 ,47,1460475639952 ,82,7798285004868
25.9778924 ,Left ,58,9306984789346 ,47,1090782239822 ,82,7461377504442
26.0005377 ,Left ,58,9025198781954 ,46,9806088757096 ,82,7100954511514
26.0212252 ,Left ,58,8306790548623 ,46,8512743192976 ,82,7328155927067
26.0374875 ,Left ,58,8220541584989 ,46,8155507331454 ,82,8039306848519
26.0600411 ,Left ,58,8948013838458 ,46,9015224723182 ,82,8646501552301
26.0812393 ,Left ,59,0354290523007 ,47,037726960905 ,82,8870687861312
26.0974013 ,Left ,59,1359864946242 ,47,1315998724185 ,82,8886068494897
26.1198343 ,Left ,59,1935775564508 ,47,1615853751949 ,82,8729667956214
26.1410299 ,Left ,59,1914081395367 ,47,1778714570367 ,82,8701714623762
26.1573425 ,Left ,59,1127127773703 ,47,1575889672879 ,82,8453219904449
26.1879273 ,Left ,58,9779233797749 ,47,127238677569 ,82,825982022421
26.2029001 ,Left ,58,8833449901908 ,47,1297742768799 ,82,887570081245
26.2176234 ,Left ,58,985948333627 ,47,2005824361766 ,82,9100015496217
26.2401615 ,Left ,59,0978753019197 ,47,266028768407 ,82,8974394537781
26.2611517 ,Left ,59,122293717022 ,47,3009470477951 ,82,900830868274
26.2835525 ,Left ,59,0525411234035 ,47,333703493001 ,82,8961313623458
26.2999702 ,Left ,59,0264183381817 ,47,3415366420151 ,82,8415075869471
26.3213023 ,Left ,58,9800993610888 ,47,318896823217 ,82,7742461683335
26.3374888 ,Left ,58,8821651729541 ,47,2959795010585 ,82,7408580802419
26.3599566 ,Left ,58,7965369565695 ,47,2199808443203 ,82,7177010942736
26.3812636 ,Left ,58,7831025874321 ,47,1995426894184 ,82,7404381510524
26.3979399 ,Left ,58,7896354854086 ,47,2432277170583 ,82,7344832856706
26.420442 ,Left ,58,8327866147428 ,47,2774900418174 ,82,6661067543092
26.4413957 ,Left ,58,8082550525968 ,47,2566576401411 ,82,6010758703234
26.4575901 ,Left ,58,7158474009563 ,47,2422787483509 ,82,5305549071213
26.4805274 ,Left ,58,739862112749 ,47,2292319812344 ,82,4715712704229
26.5010977 ,Left ,58,777441956413 ,47,2105900294305 ,82,440896976069
26.517464 ,Left ,58,7445723244373 ,47,2032662349892 ,82,3976322895796
26.5403547 ,Left ,58,5564995257495 ,47,1466003509676 ,82,4476491639358
26.5629326 ,Left ,58,3602220805894 ,47,0805943469514 ,82,6210748787153
26.5772617 ,Left ,58,465347029461 ,47,003370618184 ,82,7639964178226
26.5998758 ,Left ,58,7602673737877 ,46,9621800066379 ,82,7736730068225
26.6210689 ,Left ,58,8878260382081 ,46,9027545391898 ,82,738177684342
26.6365718 ,Left ,58,9309234311492 ,46,8938870814273 ,82,7289822516515
26.6598196 ,Left ,58,9565725253469 ,46,9288309448086 ,82,7160710359609
26.6823612 ,Left ,58,8282906818044 ,46,8733852659879 ,82,6618864505303
26.6968933 ,Left ,58,6887062865416 ,46,7848752803585 ,82,6584517032667
26.7199622 ,Left ,58,6903855111152 ,46,727460147653 ,82,7258835953088
26.7425848 ,Left ,58,8095492362648 ,46,7936693846484 ,82,7517783381135
26.7569938 ,Left ,58,9684566240518 ,46,8509567334297 ,82,7585760677687
26.7800458 ,Left ,59,0534036208817 ,46,8604957289796 ,82,7745555299537
26.8025618 ,Left ,59,049717356697 ,46,8665540706886 ,82,7909265772635
26.8167492 ,Left ,59,0373274252329 ,46,8991204075434 ,82,8063315194039
26.8396889 ,Left ,59,0822392739756 ,46,9432891796722 ,82,8316356191941
26.8625429 ,Left ,59,142845522479 ,46,9904210870783 ,82,8716769300301
26.8773996 ,Left ,59,1942577375032 ,47,028402641861 ,82,9068072089377
26.8997713 ,Left ,59,1797187684452 ,47,0401560068019 ,82,9523027383987
26.9225857 ,Left ,59,1667729944976 ,47,0310684758853 ,82,9786466100527
26.9368568 ,Left ,59,1467999588405 ,47,0235020465687 ,82,9824303235238
26.9599823 ,Left ,59,1153406840962 ,47,049044337835 ,82,9810440606577
26.9823946 ,Left ,59,0946721734482 ,47,0803647186049 ,82,9713010312805
27.0039506 ,Left ,59,1051534669616 ,47,1073390834397 ,82,9642548501055
27.0204063 ,Left ,59,1008875643997 ,47,1138944665174 ,82,966664800539
27.0430201 ,Left ,59,0723952496149 ,47,1404579171799 ,82,9677989598478
27.0639532 ,Left ,58,9770815669735 ,47,1645163850707 ,82,9388960453947
27.0800004 ,Left ,58,8696242184106 ,47,1614664507233 ,82,9025049302971
27.1025362 ,Left ,58,7839210950506 ,47,1011478211814 ,82,9177534759999
27.1234647 ,Left ,58,8870785074057 ,47,0796874078847 ,82,9564629756157
27.1397739 ,Left ,58,9708381670524 ,47,078503548523 ,82,9323138535788
27.16256 ,Left ,58,9674381220216 ,47,0782134908378 ,82,8648674446703
27.183568 ,Left ,58,909203782495 ,47,0816601087052 ,82,8294518529892
27.200115 ,Left ,58,8886767213506 ,47,0995794986495 ,82,7945335650296
27.2298669 ,Left ,58,8993553582706 ,47,1277249262738 ,82,7322378679155
27.243465 ,Left ,58,8814209305231 ,47,1041237817471 ,82,6855856887135
27.2598156 ,Left ,58,856236268649 ,47,0351926233663 ,82,6696235910554
27.2830955 ,Left ,58,7210649226899 ,46,9575871227326 ,82,7462107788856
27.3039537 ,Left ,58,694427366454 ,46,9352900846612 ,82,8397194658224
27.3200279 ,Left ,58,8627818581044 ,46,9923061720314 ,82,8803871155758
27.3426757 ,Left ,59,0216402444795 ,47,063653985226 ,82,8861674526876
27.3636227 ,Left ,59,0287367626287 ,47,1555906351679 ,82,8508551809693
27.3799029 ,Left ,58,9716017466567 ,47,2086278111375 ,82,7821582922336
27.4025437 ,Left ,58,9317514694956 ,47,1366268731608 ,82,693579925062
27.4233328 ,Left ,58,7810191671095 ,47,0291624209931 ,82,7129603434427
27.4398771 ,Left ,58,7130052812783 ,47,0220708422165 ,82,7590438229754
27.462365 ,Left ,58,7468974267954 ,47,1019700125712 ,82,7901514636644
27.4834631 ,Left ,58,8290007876502 ,47,1526484833809 ,82,7990241874272
27.4993481 ,Left ,58,8591587511345 ,47,2078992240206 ,82,8225167798233
27.5226426 ,Left ,58,9044563985557 ,47,253333265286 ,82,7929833332627
27.5435487 ,Left ,58,902550635155 ,47,2887051562396 ,82,7409210793817
27.5599645 ,Left ,58,8802761456203 ,47,3047281726474 ,82,6693810657093
27.5826126 ,Left ,58,7666056841007 ,47,2407083477045 ,82,6047992478281
27.6050831 ,Left ,58,5664759897586 ,47,1710686950949 ,82,6438861976887
27.619898 ,Left ,58,5262261196896 ,47,1499014543882 ,82,7074204570157
27.6425885 ,Left ,58,6152823444847 ,47,1696143949966 ,82,7032231617177
27.6714361 ,Left ,58,7282458952306 ,47,197893377941 ,82,6292775746451
27.6794279 ,Left ,58,7373208823111 ,47,1701175173412 ,82,5433482962897
27.7022385 ,Left ,58,6514321381668 ,47,1409802480754 ,82,4466463414232
27.7249891 ,Left ,58,633695982427 ,47,0969437796729 ,82,3803567710296
27.7391536 ,Left ,58,6557932687691 ,47,0785072873059 ,82,3388308155126
27.762531 ,Left ,58,6571671809634 ,47,0760343483195 ,82,2780957591128
27.7850765 ,Left ,58,6112556027731 ,47,0667873307275 ,82,249305840921
27.7994089 ,Left ,58,4707562493761 ,47,0002905681096 ,82,3406341972262
27.8226133 ,Left ,58,4159936181277 ,46,8846195957166 ,82,4555843611338
27.8452522 ,Left ,58,5778948340732 ,46,8130577429513 ,82,5515292771791
27.8596943 ,Left ,58,7609394117914 ,46,8007561841858 ,82,5942502402835
27.8829105 ,Left ,58,862256316838 ,46,794808122983 ,82,6066426708046
27.9052424 ,Left ,58,9069061333556 ,46,820108547934 ,82,6322127877323
27.926501 ,Left ,58,8457528216294 ,46,8655305138772 ,82,614528185234
27.9497387 ,Left ,58,8046919641488 ,46,8166648336159 ,82,5847701997657
27.9650455 ,Left ,58,729616856655 ,46,667614007013 ,82,6314105169512
27.9861326 ,Left ,58,6966548438967 ,46,5838155442648 ,82,7047846628639
28.0024358 ,Left ,58,7218856283951 ,46,6154108939727 ,82,7377009539636
28.0250267 ,Left ,58,8214447393926 ,46,6893759975518 ,82,7315970759741
28.0458715 ,Left ,58,9108982062651 ,46,7189825413719 ,82,7036541821339
28.0625385 ,Left ,58,9555052403815 ,46,7285396625708 ,82,6809363215516
28.0853305 ,Left ,58,9897635645236 ,46,7704003242949 ,82,6912172197725
28.1064344 ,Left ,59,0777859280428 ,46,838802978227 ,82,7016372890069
28.1300015 ,Left ,59,1104721757375 ,46,8804450942231 ,82,7087387995046
28.1450845 ,Left ,59,0905358005167 ,46,9149378647197 ,82,7381915280586
28.1663633 ,Left ,59,0770316052209 ,46,9547661426437 ,82,7811694652654
28.1825074 ,Left ,59,0650199124771 ,46,984518058301 ,82,8290384419338
28.2050605 ,Left ,59,1181669915001 ,47,0171129106913 ,82,8516871302321
28.2278101 ,Left ,59,0880625499892 ,47,0112120110733 ,82,8637837253069
28.2428476 ,Left ,59,1026809375495 ,47,0166174635187 ,82,8664705276944
28.2648121 ,Left ,59,1000409723851 ,47,0308751571819 ,82,8708520669202
28.2861341 ,Left ,59,0351127268574 ,47,0402303334686 ,82,8657978593963
28.302538 ,Left ,58,968898964195 ,47,0558358004418 ,82,8411884954632
28.3248435 ,Left ,58,9090274283346 ,47,0566973921257 ,82,7920334075908
28.3461252 ,Left ,58,8733007311966 ,47,0864995884716 ,82,7607602402073
28.362563 ,Left ,58,7636967632764 ,47,103879988813 ,82,7621622941281
28.3847758 ,Left ,58,7594457388388 ,47,0416161035993 ,82,7501899757212
28.4060357 ,Left ,58,7869637726615 ,46,9476223103112 ,82,7582819690625
28.4223842 ,Left ,58,7850678105495 ,46,9133561372837 ,82,7768580250639
28.444964 ,Left ,58,7819615460354 ,46,936153044622 ,82,7533891304246
28.4663085 ,Left ,58,7907356074552 ,46,9663454830344 ,82,7281106534464
28.4826615 ,Left ,58,8403277509956 ,47,0002198276272 ,82,7072625188502
28.5050203 ,Left ,58,8629363879609 ,47,0136379599294 ,82,6859438062699
28.5262088 ,Left ,58,7915875588283 ,46,9601758750249 ,82,6415976934285
28.5420762 ,Left ,58,7207794927143 ,46,8565608611592 ,82,6058389261914
28.565119 ,Left ,58,6155831176987 ,46,8002811934082 ,82,6780468050238
28.5875154 ,Left ,58,6198588644511 ,46,8716923331245 ,82,7583010774552
28.6019554 ,Left ,58,7909932474832 ,46,9764053569023 ,82,8002554940671
28.6248504 ,Left ,58,96522730308 ,47,0430657987854 ,82,8049356980672
28.6475635 ,Left ,59,0094791680358 ,47,0724566376058 ,82,7897422966684
28.6618443 ,Left ,58,9131525470541 ,47,0939169262538 ,82,7669499840163
28.6848112 ,Left ,58,8510676250897 ,47,079667387579 ,82,7549768872071
28.7075999 ,Left ,58,7671129690227 ,47,0033667553665 ,82,7374530719646
28.7219117 ,Left ,58,7153671595777 ,46,9186336381034 ,82,7546910893046
28.7454202 ,Left ,58,7219927729905 ,46,924341431004 ,82,7784136737456
28.7675747 ,Left ,58,7422275843227 ,46,9820126576255 ,82,7776472662076
28.7818647 ,Left ,58,7802903023752 ,47,0464828306446 ,82,7923828451074
28.8048074 ,Left ,58,823340232048 ,47,115137997193 ,82,8117702182935
28.827565 ,Left ,58,8420811719197 ,47,1627342472281 ,82,7885224193268
28.833106 ,Left ,58,8346317828796 ,47,1988337806738 ,82,749311542429
28.8509537 ,Left ,58,8182774691794 ,47,2069904688942 ,82,694180010234
28.8705888 ,Left ,58,6738894383249 ,47,1637704483058 ,82,6799267617836
28.8929924 ,Left ,58,5561079067171 ,47,1563331466401 ,82,7569953138988
28.9108421 ,Left ,58,5990890104659 ,47,1777336408359 ,82,7841535005958
28.9309959 ,Left ,58,7034459526813 ,47,2079265611976 ,82,7306586553984
28.9534155 ,Left ,58,7806379738199 ,47,1893060845951 ,82,6647499983453
28.9712563 ,Left ,58,7628216816035 ,47,1549152358996 ,82,5911499980863
28.990655 ,Left ,58,7018735154331 ,47,12157393341 ,82,5158816970799
29.0127599 ,Left ,58,6667947015885 ,47,0614911183827 ,82,4648933754385
29.0293979 ,Left ,58,6814542699654 ,47,0142439835557 ,82,4239517024822
29.0504629 ,Left ,58,6200934306312 ,47,0007589506783 ,82,3954113855815
29.0727002 ,Left ,58,5685438965057 ,47,0266105689564 ,82,3789274938159
29.0893158 ,Left ,58,4983531235687 ,46,9555805843683 ,82,4335197136384
29.1103166 ,Left ,58,4979196758176 ,46,8725285269838 ,82,5368778537399
29.1333283 ,Left ,58,6278116186298 ,46,8090666640913 ,82,6272273253846
29.1586122 ,Left ,58,8423457749868 ,46,7830775577173 ,82,638476671836
29.1706989 ,Left ,58,9590696306163 ,46,7880651310425 ,82,6522475385248
29.1930016 ,Left ,58,9258527496189 ,46,847116214215 ,82,689064092275
29.2156824 ,Left ,58,9619427660996 ,46,9515348684943 ,82,6430668287504
29.2306391 ,Left ,58,9408849684177 ,46,8726416954056 ,82,6274915585107
29.253026 ,Left ,58,9179460171144 ,46,696952673303 ,82,6170754201714
29.2759921 ,Left ,58,8757203714377 ,46,6274125750036 ,82,6220673801809
29.2908685 ,Left ,58,8216023960529 ,46,6792508013994 ,82,6266089638763
29.3128506 ,Left ,58,8685536617476 ,46,7368417998694 ,82,6224458805079
29.3382467 ,Left ,58,9717039246094 ,46,7573326969457 ,82,6079331823298
29.3505862 ,Left ,59,0717923769103 ,46,7763454113376 ,82,5921953635253
29.3730298 ,Left ,59,1332499954857 ,46,8479158992965 ,82,5866612341639
29.3907619 ,Left ,59,1473965151831 ,46,9240870858725 ,82,5768748642192
29.4102218 ,Left ,59,1198679692434 ,46,991018103683 ,82,5837762735074
29.4331247 ,Left ,59,109635527449 ,47,045510255647 ,82,6140623550017
29.4510313 ,Left ,59,107289255763 ,47,0711978962719 ,82,6719422011874
29.4705806 ,Left ,59,1309890492649 ,47,0753460278364 ,82,7122106943373
29.4928918 ,Left ,59,1299104549247 ,47,0599363052887 ,82,7234128387578
29.5109975 ,Left ,59,0926063753939 ,47,0453841735902 ,82,7331335756611
29.5306607 ,Left ,59,0332537239873 ,47,0623705058886 ,82,7489667159623
29.5529716 ,Left ,59,0037674396456 ,47,0987016982566 ,82,7668426107515
29.5706047 ,Left ,59,0188804366569 ,47,1406567744868 ,82,7793186637126
29.5904427 ,Left ,59,0387054346671 ,47,1837894011159 ,82,798116748104
29.6130516 ,Left ,59,0130577369311 ,47,2154487860614 ,82,804309240527
29.63081 ,Left ,58,9436294235355 ,47,2457292007334 ,82,8099397844074
29.6506302 ,Left ,58,9014094242169 ,47,2947633800834 ,82,8231405142713
29.6731604 ,Left ,58,8799172528134 ,47,3394630903284 ,82,8346177261524
29.6911525 ,Left ,58,8853460090346 ,47,3823529202216 ,82,8388752991306
29.7108184 ,Left ,58,8823963012152 ,47,4139856767929 ,82,8496057203784
29.7331992 ,Left ,58,8783607290934 ,47,442061059411 ,82,8525603718516
29.7551557 ,Left ,58,8670296915356 ,47,4632181036176 ,82,8466800348961
29.7704189 ,Left ,58,8500265407183 ,47,4869606444389 ,82,8361908168281
29.7930282 ,Left ,58,8479632728371 ,47,4971453525631 ,82,8088455421723
29.8153037 ,Left ,58,8473201580433 ,47,5062940792676 ,82,7892307778672
29.8305101 ,Left ,58,8532446834287 ,47,5116268113342 ,82,771608276007
29.8529259 ,Left ,58,8293188732438 ,47,5052203439274 ,82,7498856394951
29.8755457 ,Left ,58,8354810299249 ,47,4993976752807 ,82,7393198156473
29.8902937 ,Left ,58,8946308637261 ,47,5043671339462 ,82,7435142384818
29.912786 ,Left ,58,9185545905701 ,47,4714502777481 ,82,7393018619099
29.9355822 ,Left ,58,9525842459006 ,47,4383814746796 ,82,7402503863969
29.9504795 ,Left ,58,9969197452131 ,47,424072425751 ,82,7480014287729
29.9730218 ,Left ,58,9860592080323 ,47,4160618203959 ,82,7546999895089
30.0041373 ,Left ,58,9663941992703 ,47,4081540206746 ,82,7693863105194
30.0102369 ,Left ,58,9823779242666 ,47,3941917064603 ,82,786220443972
30.0329638 ,Left ,58,9898591057918 ,47,4024652641594 ,82,7997552101484
30.0554523 ,Left ,58,9064537550958 ,47,3925197707646 ,82,7781763733982
30.0703768 ,Left ,58,926945080353 ,47,3576973146968 ,82,7334588403854
30.0930679 ,Left ,58,909254418917 ,47,2966412143218 ,82,7041426949548
30.1156055 ,Left ,58,8519353807168 ,47,2983072671136 ,82,6968956143872
30.1318758 ,Left ,58,8167286809096 ,47,3403140180554 ,82,6857675079063
30.1530574 ,Left ,58,8447460653722 ,47,3636900119804 ,82,6670250028248
30.1756695 ,Left ,58,8436609565779 ,47,3311604897334 ,82,6494320151952
30.1916382 ,Left ,58,8758592404938 ,47,3032418468024 ,82,6545646276361
30.2133347 ,Left ,58,8035518231472 ,47,2458784690005 ,82,6658112008013
30.2359585 ,Left ,58,6827194178066 ,47,1208639158704 ,82,6380386035166
30.252355 ,Left ,58,5713176231318 ,47,0177400303725 ,82,6762488083153
30.2805859 ,Left ,58,5724625846315 ,47,022214699932 ,82,7452187230363
30.2954336 ,Left ,58,7218977389107 ,47,1297259425562 ,82,7731794665638
30.3119916 ,Left ,58,912710624818 ,47,2189119411608 ,82,7963930787012
30.3329888 ,Left ,58,9777944464589 ,47,2508560645212 ,82,8114629262276
30.3555231 ,Left ,58,9070985304161 ,47,2338850659469 ,82,8004639292632
30.3719435 ,Left ,58,7797804648459 ,47,2177200817336 ,82,8084889490604
30.3930599 ,Left ,58,7274455196263 ,47,1421851887394 ,82,7852539695953
30.4152277 ,Left ,58,6945274355018 ,47,0822159590518 ,82,7850502215464
30.4333838 ,Left ,58,6699618732384 ,47,091332404661 ,82,8505320605395
30.4527928 ,Left ,58,7353085731109 ,47,2045510192215 ,82,8876261594548
30.4752133 ,Left ,58,828043543063 ,47,2778485220499 ,82,8861262797885
30.4935249 ,Left ,58,8982103983564 ,47,2905029808119 ,82,8632120586397
30.5126623 ,Left ,58,9077881226537 ,47,2719835426794 ,82,8236023567582
30.5353204 ,Left ,58,8676599484176 ,47,2626279471834 ,82,7847677244398
30.5594583 ,Left ,58,8112134687258 ,47,2127566809978 ,82,7339391836603
30.5729571 ,Left ,58,8085388021228 ,47,1642338431344 ,82,7084894581915
30.595509 ,Left ,58,811977008824 ,47,1362407102421 ,82,7238267649223
30.6132715 ,Left ,58,843898480983 ,47,1865241760066 ,82,7429674766091
30.6327957 ,Left ,58,8967748575558 ,47,229029830057 ,82,745028434429
30.6555956 ,Left ,58,9904880532059 ,47,2902525965487 ,82,7488698388986
30.6734254 ,Left ,59,065179542382 ,47,3355919697129 ,82,732682949464
30.6927663 ,Left ,59,0875661188226 ,47,3566700396679 ,82,7103038160414
30.7155062 ,Left ,59,0471243981466 ,47,3349393112494 ,82,7019639283182
30.7334511 ,Left ,58,9990588922999 ,47,3176326472475 ,82,6865429795054
30.7529207 ,Left ,58,9454239510476 ,47,3086270336415 ,82,6627573455446
30.7753763 ,Left ,58,9258219252819 ,47,3148415363806 ,82,6489411141597
30.793577 ,Left ,58,9135503643958 ,47,3210249545278 ,82,6732243260294
30.8131423 ,Left ,58,9507066782807 ,47,2954687755036 ,82,700336946432
30.8369873 ,Left ,59,0099132887531 ,47,261299333594 ,82,7266220965545
30.8533052 ,Left ,59,0416538333805 ,47,2306577422312 ,82,7311183795463
30.8731268 ,Left ,59,0127996391554 ,47,2027612524186 ,82,716823913779
30.8952477 ,Left ,58,9698684688368 ,47,2042188654824 ,82,7162017508165
30.9133864 ,Left ,59,009765354682 ,47,2268281710096 ,82,7094926208008
30.9330739 ,Left ,59,0123754737072 ,47,2186178912289 ,82,6900470658327
30.9558995 ,Left ,59,0320720912997 ,47,1963002832829 ,82,660678788469
30.9737234 ,Left ,59,0422956520252 ,47,1880649268395 ,82,6398684579116
30.9944426 ,Left ,58,9926770184022 ,47,2115984585704 ,82,6309736268761
31.0154729 ,Left ,58,9540625370307 ,47,2433617010598 ,82,5844849203301
31.0336153 ,Left ,58,91070595199 ,47,2433715722902 ,82,5371678266967
31.0546061 ,Left ,58,8857824710717 ,47,2236765724193 ,82,5169504611946
31.0757865 ,Left ,58,9062443830337 ,47,1935729144799 ,82,5118818245279
31.0934311 ,Left ,58,9359168661759 ,47,2087489607527 ,82,5224592480235
31.116102 ,Left ,58,9569623901056 ,47,2357118974269 ,82,502580755023
31.1354633 ,Left ,58,8747851185185 ,47,2370253537628 ,82,473592739854
31.1532273 ,Left ,58,8077968920451 ,47,2353323037999 ,82,4747616466475
31.1743823 ,Left ,58,8487779523969 ,47,2135602507598 ,82,4764325632754
31.1960466 ,Left ,58,9381726347057 ,47,1869079508498 ,82,4674656577174
31.2136439 ,Left ,58,9481185142761 ,47,1822393006765 ,82,4611171188473
31.234604 ,Left ,58,901500824627 ,47,1853827191494 ,82,4323028613124
31.2553659 ,Left ,58,8467902000647 ,47,1489155831315 ,82,4168507940735
31.2777288 ,Left ,58,8530079483747 ,47,1293980880828 ,82,4127558118482
31.2943461 ,Left ,58,8830430123677 ,47,1318995142572 ,82,4170148848697
31.3155798 ,Left ,58,8940034734361 ,47,1362593916959 ,82,4264861868165
31.3409069 ,Left ,58,8888793288682 ,47,1410041108339 ,82,4446832408713
31.3542647 ,Left ,58,8902733496791 ,47,1356192784462 ,82,460862516328
31.37543 ,Left ,58,9101821141523 ,47,1249421584441 ,82,47445490712
31.3936514 ,Left ,58,92442260234 ,47,1168063377177 ,82,4834772165623
31.4159301 ,Left ,58,916357038141 ,47,1288089112135 ,82,4942604630166
31.4355379 ,Left ,58,9122512813783 ,47,1528940681272 ,82,5048577873833
31.4532756 ,Left ,58,9155326333221 ,47,1837655499149 ,82,5155290695271
31.4762369 ,Left ,58,9227039570089 ,47,2023225066064 ,82,5163976749291
31.4960622 ,Left ,58,9319331849267 ,47,2166324872198 ,82,5098351088391
31.5135898 ,Left ,58,9304006810964 ,47,2294388275345 ,82,5029705679508
31.5432809 ,Left ,58,9788285102586 ,47,2451011879319 ,82,4875584113872
31.5554047 ,Left ,58,957146293585 ,47,2466750036732 ,82,4673223558536
31.573289 ,Left ,58,9354168175449 ,47,2564130615586 ,82,4532060575765
31.5956825 ,Left ,58,9253930061688 ,47,2704162998885 ,82,4504032212954
31.6155809 ,Left ,58,9509812342652 ,47,2986924954574 ,82,4368038990539
31.6331788 ,Left ,58,9370114109406 ,47,2876523381876 ,82,4175974250669
31.6557021 ,Left ,58,9423197300026 ,47,2709682015347 ,82,4096311591442
31.6752475 ,Left ,58,9397580800921 ,47,2783978520936 ,82,4125531721535
31.6932048 ,Left ,58,9210895814844 ,47,2676662494795 ,82,4004099989541
31.7159171 ,Left ,58,8848492736721 ,47,2493567114988 ,82,4060435478735
31.735534 ,Left ,58,8828082462394 ,47,2574641911546 ,82,4280251039308
31.7531223 ,Left ,58,8912683952852 ,47,2722960734261 ,82,4582602525623
31.77593 ,Left ,58,8800536739458 ,47,264303039206 ,82,5043450176612
31.8030264 ,Left ,58,8623722763057 ,47,249794506833 ,82,5720800588974
31.8208658 ,Left ,58,8521281714818 ,47,2428905291337 ,82,6368036433869
31.8363895 ,Left ,58,8489812200105 ,47,231733007861 ,82,6863200062911
31.8555936 ,Left ,58,850220551314 ,47,2206111986429 ,82,7263198105152
31.8733396 ,Left ,58,8470655044194 ,47,2154020638654 ,82,7608853260668
31.8959202 ,Left ,58,8489816593403 ,47,2267756753677 ,82,7886940982285
31.9156939 ,Left ,58,8672783322641 ,47,2546835400986 ,82,8070992772777
31.9335508 ,Left ,58,8505630344327 ,47,2545110555799 ,82,8173346920222
31.955966 ,Left ,58,8241874329662 ,47,2573037481308 ,82,8318081824824
31.9752298 ,Left ,58,8167371509138 ,47,2781535721061 ,82,8368632208426
31.9931452 ,Left ,58,8173060905466 ,47,2807289485557 ,82,8375119798785
32.0158887 ,Left ,58,8358011487956 ,47,2968049575483 ,82,8353726915342
32.0369568 ,Left ,58,8585418254051 ,47,3230885690548 ,82,830925862234
32.0531097 ,Left ,58,896015345979 ,47,3496307903584 ,82,8213435764589
32.0759148 ,Left ,58,9096545417263 ,47,363092610722 ,82,8084582329208
32.096628 ,Left ,58,8880499288382 ,47,3536955203961 ,82,7950870541514
32.1134116 ,Left ,58,8723290646996 ,47,3430820054607 ,82,7910137881359
32.1358435 ,Left ,58,8720848529945 ,47,3400943120413 ,82,7928139450362
32.156973 ,Left ,58,8699367424945 ,47,3387800336872 ,82,7931068217146
32.1734079 ,Left ,58,8973286937961 ,47,3346046220976 ,82,7872243577313
32.1958786 ,Left ,58,8967614514387 ,47,3320308552232 ,82,7865633337028
32.2259528 ,Left ,58,8967614514387 ,47,3320308552232 ,82,7865633337028
32.2333276 ,Left ,58,9015183234676 ,47,3398408137165 ,82,7856179516477
32.2558358 ,Left ,58,9197027224562 ,47,3471697432965 ,82,7893494716877
32.2769063 ,Left ,58,9197027224562 ,47,3471697432965 ,82,7893494716877
32.2934842 ,Left ,58,9098058577452 ,47,3437353290825 ,82,7895725935736
32.3158421 ,Left ,58,9037235852553 ,47,3443552187524 ,82,7921992009968
32.3382407 ,Left ,58,9147323063612 ,47,3521360217491 ,82,7965329432403
32.3533011 ,Left ,58,9260790006865 ,47,3561151574397 ,82,7975715098501
32.3760866 ,Left ,58,939755980452 ,47,358611921586 ,82,8004660182628
32.3985818 ,Left ,58,9482513231126 ,47,3638793665978 ,82,8091151118
32.4135398 ,Left ,58,9402823028594 ,47,3737368288477 ,82,8185318700163
32.4358738 ,Left ,58,9332223867683 ,47,3823698686728 ,82,8253104177313
32.4576156 ,Left ,58,9540680470701 ,47,3835837786772 ,82,8308766062215
32.4785915 ,Left ,58,9765204168343 ,47,3843375514833 ,82,8322715771751
32.4954658 ,Left ,58,9750466981761 ,47,3829944350418 ,82,8342345758956
32.5176197 ,Left ,59,0068688025429 ,47,3853979438999 ,82,8315623381509
32.5387537 ,Left ,59,0358380802207 ,47,3749577003302 ,82,8255242234015
32.5550988 ,Left ,59,0345371418278 ,47,3566796583995 ,82,8186321011007
32.5776362 ,Left ,59,0538775795573 ,47,3499959678809 ,82,8135255108447
32.5988158 ,Left ,59,0801013809247 ,47,3459286740787 ,82,7945897937225
32.6150752 ,Left ,59,0520521225616 ,47,3268873196208 ,82,7760253716248
32.6376157 ,Left ,59,0545509438362 ,47,3044987591108 ,82,7653714002458
32.658698 ,Left ,59,0719014462296 ,47,296265963325 ,82,7716546405914
32.6748939 ,Left ,59,0681943159951 ,47,305363477975 ,82,7747536383834
32.6975736 ,Left ,59,0754016123589 ,47,3581285889517 ,82,7827514596333
32.7184163 ,Left ,59,0158222177225 ,47,4244466920725 ,82,8013599208745
32.7349392 ,Left ,58,9812569145298 ,47,3890879509381 ,82,7650834087186
32.7575947 ,Left ,59,0196756494377 ,47,2922783915636 ,82,7317064462432
32.7784652 ,Left ,58,9624085269045 ,47,2628959784072 ,82,7441543289438
32.7948851 ,Left ,58,886363055193 ,47,2902701631746 ,82,7549934155352
32.8174964 ,Left ,58,9151242125149 ,47,3333703628843 ,82,7657592123357
32.8462042 ,Left ,58,9624359329227 ,47,4058730543033 ,82,7889587424248
32.8608972 ,Left ,58,9738963576206 ,47,4874324117208 ,82,7773335765437
32.8777401 ,Left ,58,9492079916053 ,47,4420964971174 ,82,7267166812064
32.8984823 ,Left ,58,8984947411263 ,47,3432991792477 ,82,7238585461463
32.9149638 ,Left ,58,8175893497713 ,47,3273424281028 ,82,7527122835405
32.9374965 ,Left ,58,8235620681484 ,47,394381842087 ,82,7580050070552
32.9587783 ,Left ,58,9166350027689 ,47,4448036598317 ,82,7554291347397
32.9748385 ,Left ,59,0176303912911 ,47,4297398535806 ,82,7450540870393
32.9978853 ,Left ,59,1147645118754 ,47,4041838956239 ,82,7481620675922
33.0188697 ,Left ,59,083241185994 ,47,4162987752774 ,82,7411801175703
33.0350696 ,Left ,58,9753350430299 ,47,4338610304782 ,82,7052831588231
33.0580228 ,Left ,58,8624537421087 ,47,3849083762882 ,82,6823461893159
33.0787822 ,Left ,58,8302516049478 ,47,3845708580519 ,82,7552434087276
33.0950625 ,Left ,58,9027988483097 ,47,4836039361083 ,82,8289115067035
33.1178781 ,Left ,58,9913514712315 ,47,585523681612 ,82,8390033951872
33.1387208 ,Left ,59,0752929324363 ,47,579604334382 ,82,790376397626
33.1614399 ,Left ,59,0528014978833 ,47,54620689132 ,82,7752159311343
33.1779514 ,Left ,58,9702359492222 ,47,5818441626881 ,82,7749198829377
33.1991689 ,Left ,58,8598701601691 ,47,6574154938148 ,82,7496897005956
33.2228217 ,Left ,58,8833706199966 ,47,7212045928881 ,82,6732090125098
33.2375516 ,Left ,58,8997839616258 ,47,7277472241404 ,82,6082903833642
33.2599192 ,Left ,58,7403926377634 ,47,6511134348471 ,82,6225483861627
33.2744344 ,Left ,58,6303623881422 ,47,5581832220554 ,82,6685499699225
33.2973804 ,Left ,58,7327938356153 ,47,5190478942583 ,82,6544948257492
33.3198512 ,Left ,58,8092380039731 ,47,515651323719 ,82,5970792374205
33.3344774 ,Left ,58,8126915310694 ,47,4943415243452 ,82,5339133139017
33.3575583 ,Left ,58,738140171503 ,47,4738547325532 ,82,4525070432404
33.3800184 ,Left ,58,6674443190253 ,47,456489997439 ,82,3551120188303
33.3948388 ,Left ,58,6477651827685 ,47,4199411028727 ,82,2737910230814
33.4181171 ,Left ,58,6209041470127 ,47,3945040719346 ,82,239703793947
33.440502 ,Left ,58,6016965679092 ,47,3640248387782 ,82,2159476351339
33.4546755 ,Left ,58,5526995834471 ,47,2825767446732 ,82,1975260350652
33.4776451 ,Left ,58,5130049818692 ,47,2214885096679 ,82,2214831955456
33.500148 ,Left ,58,4958783147468 ,47,2509217870426 ,82,2598105774168
33.514475 ,Left ,58,5226751305661 ,47,2983890771392 ,82,3039938803149
33.5376073 ,Left ,58,5753993956172 ,47,3112928656593 ,82,3135753756854
33.5600669 ,Left ,58,5968355364698 ,47,2467135241396 ,82,2718050658475
33.5745269 ,Left ,58,6090792113227 ,47,1719073374587 ,82,207096153639
33.5976301 ,Left ,58,5585539768721 ,47,1638373190044 ,82,1593314860799
33.6201082 ,Left ,58,4819884345044 ,47,150446986757 ,82,1062587554061
33.6346774 ,Left ,58,4219082871517 ,47,1325773808192 ,82,0742664814617
33.6575467 ,Left ,58,4458602792847 ,47,1406350809844 ,82,0715410288412
33.6798423 ,Left ,58,5168302358402 ,47,173854701648 ,82,0863072222149
