timestamp,event,roll,pitch,yaw
0.0259112 ,Left ,60,8554012801735 ,46,3355239283486 ,28,1402616744474
0.0486921 ,Left ,60,8680356239839 ,46,3327071454316 ,28,1470543690707
0.0629087 ,Left ,60,8815449445019 ,46,3313164322164 ,28,1618840603492
0.0862407 ,Left ,60,8994632937781 ,46,3390178580995 ,28,1659799889931
0.1087346 ,Left ,60,9117573199567 ,46,3429791248452 ,28,1655433525301
0.1230515 ,Left ,60,9193288184094 ,46,3471550905649 ,28,1642926023357
0.1461297 ,Left ,60,9216033851441 ,46,3522418435516 ,28,1605182479207
0.1687323 ,Left ,60,9205844054616 ,46,3524667410201 ,28,1558629103941
0.1831373 ,Left ,60,9174342197463 ,46,3459562254152 ,28,1515928150579
0.2061373 ,Left ,60,9121637353889 ,46,3354172369239 ,28,1542644706621
0.2285717 ,Left ,60,9114867639925 ,46,3262209260782 ,28,1556940358258
0.2430956 ,Left ,60,9142265650783 ,46,3176220216584 ,28,1534979578994
0.2660462 ,Left ,60,9161827192325 ,46,3067069944262 ,28,1583449937314
0.2885792 ,Left ,60,927686701707 ,46,2916674845795 ,28,1678816000186
0.3096899 ,Left ,60,9581789051875 ,46,2641093815918 ,28,1748526123209
0.3262601 ,Left ,61,0417833713909 ,46,173328896787 ,28,1610187407611
0.3484511 ,Left ,61,1430147064741 ,46,0992530973836 ,28,146696715541
0.369629 ,Left ,61,1902499195934 ,46,067626830721 ,28,1468596046243
0.3861983 ,Left ,61,2240825399319 ,46,0479966296346 ,28,1552300899396
0.408812 ,Left ,61,2335918170952 ,46,0297432995228 ,28,1561200717038
0.4300141 ,Left ,61,2411234767751 ,46,0428230070846 ,28,1486856176635
0.446439 ,Left ,61,2691360260445 ,46,0748866168024 ,28,136029381762
0.4690468 ,Left ,61,2980018850927 ,46,0993892643147 ,28,1430022474804
0.4902138 ,Left ,61,3007188681799 ,46,1221025808303 ,28,1599968090358
0.50648 ,Left ,61,3151893015209 ,46,1536233436694 ,28,1683971953892
0.5287497 ,Left ,61,3439320759126 ,46,1911780926398 ,28,168365727997
0.549526 ,Left ,61,3916937971248 ,46,2240860013625 ,28,1560340497317
0.5660784 ,Left ,61,4389382382724 ,46,2362737149314 ,28,1498912098193
0.5887879 ,Left ,61,4916250667683 ,46,2522040969678 ,28,1408773295722
0.6098145 ,Left ,61,5540165290993 ,46,2880873710758 ,28,1132677220518
0.6262596 ,Left ,61,6101235387139 ,46,32416047048 ,28,0882502233028
0.6487908 ,Left ,61,6536546385665 ,46,3682257413812 ,28,0773975143556
0.6697336 ,Left ,61,7023579053527 ,46,4322050059275 ,28,0709484512608
0.6862556 ,Left ,61,727294078841 ,46,5105178753419 ,28,0548228370584
0.7086496 ,Left ,61,724833191579 ,46,5862982606412 ,28,0407536090543
0.7297071 ,Left ,61,7080252801611 ,46,6742062988505 ,28,0301438261531
0.7461946 ,Left ,61,6893278234868 ,46,7756303398967 ,28,0156468751376
0.7688686 ,Left ,61,657443258986 ,46,8862536258482 ,28,0021722409818
0.7914005 ,Left ,61,6132674021005 ,46,9907431988951 ,27,9984579986276
0.8066432 ,Left ,61,5721816173302 ,47,0901851237789 ,28,0116026344495
0.8289852 ,Left ,61,5464379152553 ,47,1782705686567 ,28,0369626542672
0.8513645 ,Left ,61,5291145473446 ,47,2319178159743 ,28,0673974945588
0.8661547 ,Left ,61,4960648430133 ,47,2425446724593 ,28,1163745395294
0.8886269 ,Left ,61,4874330598022 ,47,2330808342768 ,28,1863934130687
0.9112443 ,Left ,61,5027566869137 ,47,2253525020837 ,28,2583497667864
0.9255911 ,Left ,61,5455772130083 ,47,2108421979882 ,28,3008369942472
0.9488272 ,Left ,61,6006962364245 ,47,2419159153794 ,28,2880788655759
0.9712646 ,Left ,61,6792948240784 ,47,2849462399841 ,28,2032283122151
0.985415 ,Left ,61,7469824057533 ,47,3167501196053 ,28,1040186378303
1.0084687 ,Left ,61,806088566839 ,47,3486696825608 ,27,9999881962511
1.0312704 ,Left ,61,8282838254051 ,47,3714121290915 ,27,9087723326566
1.0454836 ,Left ,61,8425460726674 ,47,3762504415034 ,27,862771401932
1.0686314 ,Left ,61,8322557563613 ,47,3676493086217 ,27,8470304342919
1.091255 ,Left ,61,8240656322051 ,47,3318844919893 ,27,8502074945793
1.1054742 ,Left ,61,826171435581 ,47,2674279584456 ,27,8549926674408
1.1291162 ,Left ,61,836910400659 ,47,1762056014223 ,27,8680342694187
1.1515895 ,Left ,61,8379080684228 ,47,1216129902339 ,27,9011777757385
1.1656757 ,Left ,61,8382082835205 ,47,1329300525589 ,27,9034080965995
1.1890548 ,Left ,61,8728501737713 ,47,1804422200549 ,27,8951367765061
1.2115956 ,Left ,61,9146851261393 ,47,2131537101438 ,27,8800334005934
1.2258331 ,Left ,61,9824359030252 ,47,2192976243636 ,27,9031219709072
1.2488468 ,Left ,62,0406259722283 ,47,25217724663 ,27,9340898944385
1.2713414 ,Left ,62,0475089276266 ,47,3137490783743 ,27,9329629485151
1.2926383 ,Left ,62,038681089531 ,47,3522043179865 ,27,9141712675344
1.3087435 ,Left ,62,0284579041773 ,47,3488590671412 ,27,900725320525
1.3315202 ,Left ,61,9538525322563 ,47,3250811762779 ,27,8986384009013
1.3526065 ,Left ,61,9159508074308 ,47,2781067617291 ,27,8928268704067
1.3751168 ,Left ,61,9313587616858 ,47,2290734148041 ,27,9175177133992
1.3914264 ,Left ,61,9293681329803 ,47,2057591909753 ,27,9580509896312
1.4127665 ,Left ,61,9215983953055 ,47,1920615279905 ,27,9733872823206
1.4286374 ,Left ,61,9604027693835 ,47,1763379988139 ,27,9822728810512
1.4511574 ,Left ,62,0396560110964 ,47,1423046213438 ,28,0007543897875
1.4721126 ,Left ,62,1362772302119 ,47,1011950862451 ,28,0034336962228
1.4885909 ,Left ,62,1487672206321 ,47,0614346635662 ,27,9771584370681
1.5111931 ,Left ,62,1266085746722 ,47,008224952187 ,27,9722405106557
1.5322325 ,Left ,62,1258042819872 ,46,9623377360299 ,27,9908585934316
1.5485425 ,Left ,62,1146622959225 ,46,9451279887095 ,28,0140129765449
1.5713162 ,Left ,62,0851579313509 ,46,9542348125997 ,28,035535985361
1.5927046 ,Left ,62,0646719770168 ,46,9729883614038 ,28,0528793400961
1.6084648 ,Left ,62,0388718334243 ,46,9890289170457 ,28,0707149643312
1.6316487 ,Left ,61,9952649510769 ,46,995424424606 ,28,0863677149346
1.6526096 ,Left ,61,9548305091097 ,46,9915890383042 ,28,103518252066
1.6685723 ,Left ,61,9467658564799 ,46,9676123180949 ,28,1142358473081
1.6912476 ,Left ,61,9511248360543 ,46,9323547685292 ,28,1304836820774
1.7136112 ,Left ,61,9592046225006 ,46,891245329471 ,28,1556874895817
1.7287673 ,Left ,61,9612504117576 ,46,8593512888848 ,28,1955567880362
1.7514309 ,Left ,61,9705127857693 ,46,8464265821581 ,28,2251144298945
1.7740954 ,Left ,61,996055426961 ,46,8426478918418 ,28,2471122278817
1.7887614 ,Left ,62,0267525769432 ,46,8525295329601 ,28,2678934786034
1.8114057 ,Left ,62,0641138542828 ,46,8810351784124 ,28,2790349197683
1.8338771 ,Left ,62,1105886795616 ,46,9112519532717 ,28,2844432154481
1.8482844 ,Left ,62,1567757153291 ,46,948049075828 ,28,2773129959682
1.8715767 ,Left ,62,1672806216906 ,46,9868626825959 ,28,2754854575028
1.8940657 ,Left ,62,158374260274 ,47,0398871753909 ,28,2745796183042
1.9083014 ,Left ,62,1537978353713 ,47,0930069924877 ,28,26169467005
1.9314218 ,Left ,62,1679244237633 ,47,159267102307 ,28,2416709546951
1.9538493 ,Left ,62,1656315207254 ,47,2406652500869 ,28,2114821148839
1.9683926 ,Left ,62,1455855606977 ,47,3120231563319 ,28,1995732176145
1.991375 ,Left ,62,1245921326779 ,47,3659237713628 ,28,2194820197002
2.0138445 ,Left ,62,1047214482099 ,47,4062187898199 ,28,2588700788789
2.0283959 ,Left ,62,0990575112234 ,47,4515681175435 ,28,2921828669601
2.0514052 ,Left ,62,1091936721894 ,47,5076505181415 ,28,2898496784903
2.0738808 ,Left ,62,0856178575872 ,47,561995085435 ,28,2629266110408
2.0882306 ,Left ,62,1011778763557 ,47,5996116089464 ,28,2448314213006
2.1113691 ,Left ,62,1413691031388 ,47,6370213490197 ,28,2325835009986
2.1339463 ,Left ,62,1595385164828 ,47,6859945446662 ,28,2106997119026
2.148241 ,Left ,62,1654290669842 ,47,7306943487668 ,28,175580708719
2.1715717 ,Left ,62,1578972672431 ,47,7566843894017 ,28,1398243144296
2.1940649 ,Left ,62,1393580755881 ,47,7783649969728 ,28,1009163878137
2.2150152 ,Left ,62,1119375200402 ,47,7890698807431 ,28,0527715685428
2.2313359 ,Left ,62,1027015898516 ,47,7863947721265 ,28,0073121864922
2.2539716 ,Left ,62,0755917466336 ,47,7817860428277 ,27,9572887892485
2.2749272 ,Left ,62,0249882116844 ,47,771177949369 ,27,932416882659
2.2915282 ,Left ,62,0236412933793 ,47,7694948223263 ,27,932313530439
2.3137957 ,Left ,62,0174922822452 ,47,7680810001567 ,27,9178345715454
2.3350871 ,Left ,62,0305614938756 ,47,7512828677464 ,27,899961358776
2.3512703 ,Left ,62,0587434063939 ,47,7194436757236 ,27,8960949619523
2.3740915 ,Left ,62,0740946942189 ,47,7160881749035 ,27,8778699570343
2.3953364 ,Left ,62,0609209918044 ,47,7632498481533 ,27,8240634692728
2.4116357 ,Left ,62,0421104575864 ,47,8565818125112 ,27,7526871709276
2.4340418 ,Left ,62,0185097917403 ,47,9563493908098 ,27,6642585219004
2.4547514 ,Left ,61,9722116923776 ,48,0277371305989 ,27,6062063467563
2.4714384 ,Left ,61,920086482125 ,48,0665943507962 ,27,5788027967708
2.4935698 ,Left ,61,8578335449124 ,48,0882526940815 ,27,566532952641
2.5147956 ,Left ,61,7947088458173 ,48,1064240495656 ,27,5716145632373
2.5309775 ,Left ,61,7127706744705 ,48,1237169474602 ,27,5645325425716
2.5537332 ,Left ,61,6220705700137 ,48,1317037053072 ,27,5377627122318
2.5745044 ,Left ,61,5511560704335 ,48,1392407088218 ,27,5087113764924
2.5912317 ,Left ,61,4977779983098 ,48,1514326340779 ,27,4800360655963
2.6135527 ,Left ,61,4412247348705 ,48,1306569091284 ,27,4494199671861
2.6360382 ,Left ,61,4035002259692 ,48,0789908475491 ,27,4393440625228
2.6516279 ,Left ,61,3784195068503 ,47,9894861922144 ,27,4757476804563
2.674124 ,Left ,61,4185466424403 ,47,8399954362734 ,27,5260596085694
2.6966367 ,Left ,61,5091641057568 ,47,6592250046328 ,27,5691684970372
2.7176112 ,Left ,61,637503844805 ,47,467422187123 ,27,5932201867402
2.7340281 ,Left ,61,7264846162624 ,47,3067421032954 ,27,6148725539636
2.7563352 ,Left ,61,7682142091107 ,47,1894450874062 ,27,668060453633
2.7707302 ,Left ,61,8295818510606 ,47,1026784967814 ,27,7129058309712
2.7937533 ,Left ,61,8870049194247 ,47,0427021405861 ,27,7553507327414
2.816244 ,Left ,61,9503414630081 ,47,0448987860836 ,27,791230036145
2.8370695 ,Left ,62,0129366568853 ,47,1185264827273 ,27,8099449646936
2.8534507 ,Left ,62,0685024061748 ,47,2356907086079 ,27,8144320778795
2.8760853 ,Left ,62,0965029021112 ,47,3348301134823 ,27,8403316846889
2.89059 ,Left ,62,110731115418 ,47,3905558612571 ,27,8864689489507
2.913681 ,Left ,62,0856478455806 ,47,4115175098944 ,27,9379885003438
2.9362865 ,Left ,62,07200885147 ,47,431271664247 ,27,9764886563869
2.9506766 ,Left ,62,0605298437936 ,47,4528223632299 ,27,993426052485
2.9737059 ,Left ,62,0614802560964 ,47,4716718474136 ,28,0043416619161
2.9960789 ,Left ,62,0960844414374 ,47,4901066381486 ,28,0253835242067
3.0106014 ,Left ,62,1127435325807 ,47,5056001863155 ,28,0443238535987
3.033799 ,Left ,62,1302433931597 ,47,5282787744317 ,28,0528968626513
3.0559218 ,Left ,62,1548684228954 ,47,5610913569661 ,28,0553867888102
3.0708581 ,Left ,62,1665174351992 ,47,6010873554857 ,28,0556313746228
3.0937545 ,Left ,62,1586145833786 ,47,6411481834744 ,28,058298496431
3.11629 ,Left ,62,1791788216935 ,47,6640317181796 ,28,0657436425844
3.1376583 ,Left ,62,1926429952315 ,47,6665811706975 ,28,0668178140726
3.1541203 ,Left ,62,1864411726531 ,47,6579857417532 ,28,0601324509285
3.1766183 ,Left ,62,1520218866344 ,47,6518582647426 ,28,0524457767826
3.1977814 ,Left ,62,1335853440904 ,47,6485060697915 ,28,0527823492861
3.214027 ,Left ,62,1200318995295 ,47,6535934237797 ,28,0630395904609
3.2363188 ,Left ,62,1066931580073 ,47,664262105151 ,28,0810620397094
3.2575249 ,Left ,62,0906200104851 ,47,6782974014895 ,28,0989895555474
3.2737881 ,Left ,62,0762244787035 ,47,6919473999834 ,28,1134344240362
3.2962636 ,Left ,62,058213693846 ,47,6982752403569 ,28,1258979280255
3.3175696 ,Left ,62,0728498007612 ,47,7185895644672 ,28,1399719253948
3.3337847 ,Left ,62,0712709013954 ,47,7200290538086 ,28,1411648718824
3.3562742 ,Left ,62,059057396355 ,47,7075286505362 ,28,1587415796641
3.3773322 ,Left ,62,0563380486425 ,47,6950869797905 ,28,1781921643007
3.3937012 ,Left ,62,0409988920488 ,47,6792656866894 ,28,2035688300244
3.4163202 ,Left ,62,0280705959005 ,47,6788592692368 ,28,2375376006541
3.4374573 ,Left ,62,052537951378 ,47,7013863590257 ,28,2697708793392
3.4536971 ,Left ,62,0554312869462 ,47,7315953259435 ,28,2872703333665
3.4762718 ,Left ,62,0738974330316 ,47,758190814069 ,28,2920663261908
3.4979382 ,Left ,62,082340720653 ,47,7912294863903 ,28,2956324883139
3.5144703 ,Left ,62,0926585773321 ,47,8442058287329 ,28,2861869709197
3.5365566 ,Left ,62,070647333585 ,47,8894009909083 ,28,288221175356
3.5571274 ,Left ,62,0419401414326 ,47,9300845842533 ,28,3038696229829
3.5735031 ,Left ,62,0179008630473 ,47,9751404366848 ,28,3327710070141
3.5962008 ,Left ,61,9768942036454 ,48,0150610806799 ,28,3762072354897
3.6186588 ,Left ,61,9462206086846 ,48,0339193462847 ,28,4381391578178
3.6337767 ,Left ,61,9390419586239 ,48,0052581852401 ,28,5203337549452
3.6563786 ,Left ,61,9407328512686 ,47,9416360391739 ,28,6047980659899
3.6785487 ,Left ,61,9538815441657 ,47,8861828992451 ,28,6752109603828
3.6839047 ,Left ,61,9786537995866 ,47,834301153377 ,28,7060508304116
3.6989767 ,Left ,62,0479355204513 ,47,7919058439025 ,28,7163256922923
3.7216454 ,Left ,62,1638580723574 ,47,7815378199072 ,28,7018713885451
3.7441715 ,Left ,62,2875656453653 ,47,794576273455 ,28,6659020771183
3.7607346 ,Left ,62,3786152702616 ,47,7980236500573 ,28,6271086629328
3.781906 ,Left ,62,4148204848678 ,47,8070028157494 ,28,5962090731544
3.804484 ,Left ,62,434240345743 ,47,8348536228092 ,28,5697470985004
3.820764 ,Left ,62,4476531615407 ,47,8580235061015 ,28,527657197944
3.8419698 ,Left ,62,4360797888598 ,47,8547259410168 ,28,496360124744
3.8643789 ,Left ,62,3893925843984 ,47,8102568444889 ,28,4651589734491
3.8807463 ,Left ,62,2838302440836 ,47,7617396589434 ,28,4578887204623
3.9018938 ,Left ,62,2169962516861 ,47,7338075466652 ,28,4579469911753
3.9243081 ,Left ,62,2182663837306 ,47,7333625185315 ,28,4624952125095
3.9407072 ,Left ,62,2530678187011 ,47,7360725505085 ,28,4554734173905
3.9618724 ,Left ,62,2853495718881 ,47,7233064428188 ,28,4530633541655
3.9844932 ,Left ,62,3176153546895 ,47,6882655674872 ,28,4431205028233
4.000676 ,Left ,62,3525160781278 ,47,6752194219406 ,28,4419017666274
4.0220052 ,Left ,62,4112936632194 ,47,6874010264481 ,28,4084218244996
4.0444665 ,Left ,62,430937401412 ,47,6777609397177 ,28,3382003547823
4.0607353 ,Left ,62,4018774756807 ,47,6611997880847 ,28,2995763369389
4.0813875 ,Left ,62,4384017179675 ,47,7140513658912 ,28,2777426353435
4.1039449 ,Left ,62,4718383791249 ,47,8454709154214 ,28,2956132186655
4.1218648 ,Left ,62,4411762762307 ,47,9659050552074 ,28,3252845238751
4.141669 ,Left ,62,4060644702457 ,48,057481022788 ,28,3592108948967
4.1642108 ,Left ,62,3953230510741 ,48,1370388129359 ,28,3910768946737
4.1821028 ,Left ,62,360719210837 ,48,2096176883444 ,28,4102359449148
4.201711 ,Left ,62,2905981500308 ,48,2670449948196 ,28,4091506227305
4.2240521 ,Left ,62,2016106081172 ,48,2913374990249 ,28,4028379288513
4.2406021 ,Left ,62,1142786072528 ,48,2846678556746 ,28,4244299334657
4.2617243 ,Left ,62,0798142743618 ,48,2929646406286 ,28,4855850658037
4.2839571 ,Left ,62,0717075867913 ,48,323250338956 ,28,5201542994657
4.3004213 ,Left ,62,0438620547091 ,48,3311839362964 ,28,5284392375297
4.3217635 ,Left ,61,9914022310788 ,48,2930928504677 ,28,517958541955
4.3442502 ,Left ,61,9557149467921 ,48,2220222646157 ,28,5056900047967
4.3605948 ,Left ,61,9326543170308 ,48,1962870969414 ,28,4818876073314
4.3814325 ,Left ,61,9124508010733 ,48,2115955151968 ,28,4167918054419
4.4041744 ,Left ,61,9138729061032 ,48,2186277098921 ,28,3612441402595
4.420619 ,Left ,61,9441078030782 ,48,1977352250129 ,28,3253004029395
4.4418174 ,Left ,61,9759984170321 ,48,1715203910245 ,28,3258786448187
4.4644235 ,Left ,61,9707767626242 ,48,1296370899592 ,28,3466647445709
4.4807192 ,Left ,62,0169534680149 ,48,0951712119376 ,28,3620338173871
4.5017409 ,Left ,62,0758701892759 ,48,0843721408544 ,28,3484052261679
4.5244862 ,Left ,62,1100540352537 ,48,0740362600943 ,28,315138288839
4.5422035 ,Left ,62,1235464634115 ,48,0694557456944 ,28,2894587392832
4.5618757 ,Left ,62,1096804816688 ,48,074162999912 ,28,2597368078274
4.5844796 ,Left ,62,0770031725844 ,48,0892005689402 ,28,2363067957262
4.6022245 ,Left ,62,0429974018123 ,48,1132548036829 ,28,2250964518626
4.6219197 ,Left ,62,0218001215274 ,48,1426658621637 ,28,2168160445366
4.6444678 ,Left ,62,0061295884227 ,48,1871652395376 ,28,2102635001328
4.6621934 ,Left ,61,9621522420288 ,48,2514529878958 ,28,193399706472
4.6818385 ,Left ,61,8896207134941 ,48,3246758560144 ,28,1614156393834
4.7039535 ,Left ,61,8174250914211 ,48,3798989735198 ,28,1104406021122
4.7219828 ,Left ,61,7255238091779 ,48,3767594201107 ,28,0707497589107
4.741694 ,Left ,61,6387238726877 ,48,3031417713199 ,28,0607647729648
4.7640743 ,Left ,61,5336173951514 ,48,2279132615051 ,28,0406635891859
4.7866717 ,Left ,61,3976985428749 ,48,153974893623 ,27,9928685023301
4.8014803 ,Left ,61,3270526247797 ,48,0713686033175 ,27,9762089361936
4.8242022 ,Left ,61,3597945144378 ,47,9528994424604 ,27,9837875653383
4.8466012 ,Left ,61,4221101332708 ,47,8312248224499 ,27,9970280025861
4.8618146 ,Left ,61,5134791759281 ,47,7067274078235 ,28,0101861096821
4.884074 ,Left ,61,6056450836517 ,47,562302965629 ,28,0291909708609
4.9066228 ,Left ,61,7199650130355 ,47,4299687256414 ,28,0460940618212
4.9218304 ,Left ,61,797935638713 ,47,3572583435459 ,28,0625816035378
4.9442965 ,Left ,61,8062238914606 ,47,3403059609747 ,28,07799846204
4.9665833 ,Left ,61,7966115832959 ,47,3687927168253 ,28,1024109738098
4.9815893 ,Left ,61,8177669438081 ,47,4449827652771 ,28,1491860537171
5.0039801 ,Left ,61,8489577638237 ,47,545060495241 ,28,1681187224424
5.022109 ,Left ,61,8564254061201 ,47,6204399775194 ,28,198674539473
5.041819 ,Left ,61,8355411689354 ,47,6529539812639 ,28,2657862916101
5.0641618 ,Left ,61,8020481022447 ,47,6536865705995 ,28,3314693042191
5.0819742 ,Left ,61,800993211094 ,47,6788409318756 ,28,3770290547024
5.1030581 ,Left ,61,7896478950751 ,47,7055094166249 ,28,3772101435474
5.1239683 ,Left ,61,8006333061088 ,47,7316262328887 ,28,3818902018609
5.1418854 ,Left ,61,8251160469675 ,47,7460298507411 ,28,3973265041858
5.1629141 ,Left ,61,8637306992886 ,47,752723011539 ,28,4198306242376
5.1842023 ,Left ,61,8963423229802 ,47,7710823872249 ,28,426076130159
5.2065312 ,Left ,61,9154082922295 ,47,8153509108619 ,28,4120882481864
5.2229746 ,Left ,61,914649633224 ,47,8396233499955 ,28,3966636275772
5.2442395 ,Left ,61,9404956552101 ,47,8427913711493 ,28,3909660451735
5.2665844 ,Left ,61,9819859309791 ,47,8363275400055 ,28,3856238340492
5.28452 ,Left ,62,0080784743314 ,47,8222761528777 ,28,374807326276
5.3042907 ,Left ,61,9990287507037 ,47,8029609494173 ,28,3643212856546
5.3266887 ,Left ,62,0093034622466 ,47,8011109237651 ,28,3621894915068
5.3430725 ,Left ,62,0080945241022 ,47,8020060703047 ,28,3631363176972
5.3641848 ,Left ,61,993481232031 ,47,7919376921127 ,28,3747655872779
5.3865323 ,Left ,61,9911636379808 ,47,7856843766532 ,28,3940216898223
5.4029771 ,Left ,61,9753070105305 ,47,7816467842084 ,28,4166898922222
5.4239931 ,Left ,61,9647949876394 ,47,7754918134012 ,28,4441433199009
5.4466625 ,Left ,61,9712549936423 ,47,7794174256101 ,28,4461342499105
5.4644419 ,Left ,61,9722993055979 ,47,7759652937827 ,28,4441352540066
5.4839697 ,Left ,61,9793839926549 ,47,7692741158654 ,28,4464583094819
5.506694 ,Left ,61,9981639644709 ,47,7628406260064 ,28,4522661994031
5.5245656 ,Left ,62,015664703015 ,47,76191522996 ,28,4635827421906
5.5441625 ,Left ,62,0255292788664 ,47,7787775156773 ,28,4777790880588
5.5666743 ,Left ,62,0159254822861 ,47,8106433904508 ,28,4902840170817
5.5846289 ,Left ,62,0194914480927 ,47,8438406971064 ,28,5140687911474
5.6042981 ,Left ,62,031506289978 ,47,8835365817881 ,28,5429311068824
5.6268207 ,Left ,62,013867843207 ,47,9316877926508 ,28,5706414411745
5.6447758 ,Left ,61,9704942447105 ,47,975815510396 ,28,606033266011
5.6644193 ,Left ,61,9294693531759 ,48,0074314665135 ,28,6481157206686
5.6869174 ,Left ,61,9034444223611 ,48,024287473177 ,28,6964138008374
5.7046639 ,Left ,61,8392251346292 ,48,0017160055993 ,28,7571086470594
5.7245026 ,Left ,61,8171716772814 ,47,9583254094263 ,28,8271342506017
5.7468783 ,Left ,61,8188108172702 ,47,9363344186233 ,28,8847784324048
5.7647275 ,Left ,61,8435937785088 ,47,905746123672 ,28,9119311428281
5.7845242 ,Left ,61,9169815187342 ,47,9067567357678 ,28,9221098522033
5.806614 ,Left ,62,0141300371797 ,47,9033336102929 ,28,9058306950054
5.82472 ,Left ,62,1068907240949 ,47,8840680034232 ,28,8864880907198
5.8441285 ,Left ,62,1711009451986 ,47,8625542912886 ,28,8581614238524
5.8667551 ,Left ,62,2094555390517 ,47,8444606183657 ,28,8148677089942
5.8846959 ,Left ,62,2127992335533 ,47,8246383777328 ,28,7785803448956
5.904209 ,Left ,62,2187541040806 ,47,801788659404 ,28,7556433060415
5.9267137 ,Left ,62,2097040285215 ,47,7821256271879 ,28,7450244882063
5.9445668 ,Left ,62,1784984549171 ,47,7456012812352 ,28,7248384343684
5.9640413 ,Left ,62,1518328296174 ,47,7123454494292 ,28,7069452333158
5.9865414 ,Left ,62,15839448968 ,47,6995821055157 ,28,6960772283677
6.0043635 ,Left ,62,1557080975193 ,47,7182911211711 ,28,6845133738422
6.0239941 ,Left ,62,1775560523112 ,47,7225619823072 ,28,6729253243913
6.0464385 ,Left ,62,2140169946198 ,47,6824288831629 ,28,6827110920443
6.06452 ,Left ,62,2808382193142 ,47,6812337515358 ,28,7088746948174
6.0857442 ,Left ,62,3101575239111 ,47,7356529269333 ,28,6961240230908
6.106705 ,Left ,62,2935571224977 ,47,7617947494692 ,28,6776966399636
6.1244976 ,Left ,62,301728637129 ,47,7486881906361 ,28,66337085378
6.1454658 ,Left ,62,3809021323851 ,47,7595155360516 ,28,6666957401303
6.1665649 ,Left ,62,4021867586203 ,47,8421944191888 ,28,6853687014643
6.1846754 ,Left ,62,4036948769513 ,47,9236913921913 ,28,6956280893579
6.2058934 ,Left ,62,3769218234261 ,47,9655719751789 ,28,7194522868145
6.2269577 ,Left ,62,3960653290997 ,48,020039204416 ,28,7760995320339
6.2447261 ,Left ,62,3748725737548 ,48,1143526071019 ,28,8002221426897
6.2657312 ,Left ,62,3146427648567 ,48,2211464276386 ,28,8045782797432
6.2870959 ,Left ,62,2593486157912 ,48,2686429425564 ,28,7881583632559
6.3049977 ,Left ,62,196858532263 ,48,2590863666856 ,28,7647775409131
6.3260318 ,Left ,62,1400460083934 ,48,2597946052943 ,28,746439517816
6.3472066 ,Left ,62,0669356078194 ,48,2889145836084 ,28,7174920603984
6.3649517 ,Left ,62,0036426161617 ,48,3250165233799 ,28,6746281029226
6.3859755 ,Left ,61,950383373902 ,48,3286358728417 ,28,6322754480922
6.4072582 ,Left ,61,932219143052 ,48,3042576533113 ,28,5837150644264
6.4247283 ,Left ,61,95115072077 ,48,2618072867333 ,28,5243714701027
6.4472077 ,Left ,62,0244717920089 ,48,2070591454155 ,28,4738599180261
6.466731 ,Left ,62,0633529240666 ,48,1649935115578 ,28,4253410268766
6.4847774 ,Left ,62,0644052471428 ,48,1159754719652 ,28,3877114898568
6.507032 ,Left ,62,112181006932 ,48,0709742795608 ,28,3580228329105
6.5263273 ,Left ,62,1498664927566 ,48,0695450998123 ,28,3245787121639
6.544616 ,Left ,62,1515483508165 ,48,1200035309969 ,28,2879232643322
6.567245 ,Left ,62,1415242941334 ,48,189875482906 ,28,2535858135397
6.5866807 ,Left ,62,1210454329398 ,48,2488819538077 ,28,2286580789668
6.6046992 ,Left ,62,061877483294 ,48,2914401873009 ,28,208141693911
6.6269088 ,Left ,61,9730223433624 ,48,3140390622147 ,28,1897836227732
6.6465146 ,Left ,61,8666761426918 ,48,3153952649604 ,28,1579260121283
6.6643397 ,Left ,61,7677386429433 ,48,3039524770545 ,28,1280959532615
6.6868564 ,Left ,61,6896893831755 ,48,2691459656245 ,28,1153570456795
6.706521 ,Left ,61,6039687842191 ,48,2552937657578 ,28,1274263212409
6.7245718 ,Left ,61,5446875785661 ,48,2400643812091 ,28,1504258992242
6.7471067 ,Left ,61,5843395697835 ,48,1892825470822 ,28,1861732580454
6.76649 ,Left ,61,6945557217876 ,48,0469733500075 ,28,2125496092756
6.7843692 ,Left ,61,8354199812367 ,47,8781582266767 ,28,2430957656974
6.807182 ,Left ,61,9283143502806 ,47,7401195667063 ,28,2766668909899
6.8270081 ,Left ,61,9759858047343 ,47,6510099758504 ,28,3086076370727
6.8448598 ,Left ,62,0440949858391 ,47,5758734992148 ,28,3329393667382
6.8673068 ,Left ,62,0968594132046 ,47,5406980005092 ,28,3728965417965
6.8865095 ,Left ,62,1437044857124 ,47,5593702674443 ,28,4025140379462
6.9043506 ,Left ,62,1809406765606 ,47,6297161477156 ,28,4301883912497
6.9270276 ,Left ,62,2111981718965 ,47,7142486983895 ,28,4460822399427
6.9466745 ,Left ,62,232484859824 ,47,776809147305 ,28,4634989637406
6.9643666 ,Left ,62,1895724569577 ,47,7841061165783 ,28,5121299089736
6.9871379 ,Left ,62,1708819131635 ,47,769990122937 ,28,562990681366
7.0065878 ,Left ,62,1672182205607 ,47,7579663726872 ,28,5982877375889
7.0245644 ,Left ,62,1430291291764 ,47,7412026591144 ,28,6210990525614
7.0468395 ,Left ,62,1639880038206 ,47,7361807204168 ,28,6526866664762
7.067985 ,Left ,62,2003606883588 ,47,7485741638378 ,28,6889710434635
7.0845979 ,Left ,62,2146365604567 ,47,7651994113688 ,28,7329966848919
7.1071336 ,Left ,62,2327567869905 ,47,8041809946364 ,28,8036474359208
7.1281165 ,Left ,62,2510482388679 ,47,825634363937 ,28,8273507252077
7.1449264 ,Left ,62,2675256826659 ,47,7983789894846 ,28,8480307516451
7.1674863 ,Left ,62,2987133578805 ,47,7942920404274 ,28,8500572554532
7.1882072 ,Left ,62,2860324062794 ,47,819707874311 ,28,8374874899764
7.204312 ,Left ,62,2880937476643 ,47,855847197726 ,28,8320782916876
7.2261511 ,Left ,62,327616685297 ,47,8744678318229 ,28,8334292486906
7.24713 ,Left ,62,3218921001144 ,47,8640483208798 ,28,8360736070849
7.2637412 ,Left ,62,2986976456312 ,47,8414636634929 ,28,8478102267892
7.2862583 ,Left ,62,291365086067 ,47,8303935779338 ,28,8560150535108
7.3075994 ,Left ,62,2924431910912 ,47,8263202141346 ,28,8616317628862
7.3299313 ,Left ,62,2863155542681 ,47,8294131924783 ,28,8783710759692
7.3463463 ,Left ,62,2865339673032 ,47,8494709693707 ,28,8978019777015
7.369014 ,Left ,62,2636860173893 ,47,8812038974576 ,28,9127708447749
7.3894874 ,Left ,62,2346561983008 ,47,9218310628999 ,28,9183523220303
7.4061168 ,Left ,62,2164281562563 ,47,9665551923234 ,28,9215608813912
7.4287864 ,Left ,62,2201329288655 ,48,0102635841575 ,28,9316510808681
7.4429794 ,Left ,62,2251252752242 ,48,0589976653747 ,28,9410488697037
7.4666961 ,Left ,62,2071177792546 ,48,1040885747785 ,28,957205584193
7.4892244 ,Left ,62,1726637864346 ,48,1503600836061 ,28,9875777785611
7.5034642 ,Left ,62,1417534585633 ,48,1887003503934 ,29,0259841637066
7.5266877 ,Left ,62,1022762282356 ,48,2134887088979 ,29,0744693611418
7.5491016 ,Left ,62,0654180764173 ,48,2096125569848 ,29,1353111672764
7.5631649 ,Left ,62,0493139432872 ,48,1869233106329 ,29,1935015289323
7.5864055 ,Left ,62,0311446329353 ,48,1734137704309 ,29,2303697271983
7.6087977 ,Left ,62,0406049510628 ,48,1641177941572 ,29,2385277567479
7.623206 ,Left ,62,0736419939803 ,48,1795466041528 ,29,2360513876357
7.6462489 ,Left ,62,1591724019812 ,48,2048175180711 ,29,1958297896975
7.6688554 ,Left ,62,2361251797386 ,48,1934892576525 ,29,1580016076407
7.6832096 ,Left ,62,3057508657461 ,48,1712119474848 ,29,1358931493565
7.7062577 ,Left ,62,3443218827111 ,48,1457721608205 ,29,1054275384566
7.7288054 ,Left ,62,3701561970892 ,48,1366597279086 ,29,0761361642887
7.7431376 ,Left ,62,3929857501518 ,48,1207910494391 ,29,0476425211531
7.7662327 ,Left ,62,4206587842668 ,48,0985134122246 ,29,0273407186647
7.7886831 ,Left ,62,3809962124976 ,48,0583532587085 ,29,0215705620209
7.8030846 ,Left ,62,3314657964259 ,48,0359648833533 ,29,0271569070622
7.8262753 ,Left ,62,3022920691932 ,48,0438303205376 ,29,0258355023944
7.8487726 ,Left ,62,282713049688 ,48,0556198110958 ,29,0253394786343
7.8696365 ,Left ,62,2769887394982 ,48,0727523704579 ,29,0115758504264
7.8862481 ,Left ,62,3094660351192 ,48,0805835670629 ,28,9847853816675
7.9087703 ,Left ,62,3559216044869 ,48,0625055279191 ,28,9751986535462
7.9297162 ,Left ,62,3768204880995 ,48,0457000655012 ,28,9755809720485
7.9461904 ,Left ,62,4066946630718 ,48,02948630123 ,28,9649314297153
7.9688014 ,Left ,62,3595059840532 ,47,9943922929045 ,28,969399468771
7.991397 ,Left ,62,3414804475836 ,47,9851796142582 ,28,9954145344782
8.0062799 ,Left ,62,3660939674447 ,48,0178496475051 ,29,0140769046921
8.0284857 ,Left ,62,4307247981372 ,48,0510737736586 ,29,0440497982685
8.0497517 ,Left ,62,4381201577261 ,48,0800827237188 ,29,0543485234109
8.0664256 ,Left ,62,4210058863067 ,48,0894066018258 ,29,0596795510362
8.0887621 ,Left ,62,419887644154 ,48,1116277261121 ,29,0934983375829
8.1101477 ,Left ,62,4202079244317 ,48,1553259310111 ,29,1130436529598
8.1264338 ,Left ,62,365988455488 ,48,1950398139073 ,29,1194150189228
8.1487757 ,Left ,62,2979285921041 ,48,2190415329939 ,29,1261707948805
8.1701308 ,Left ,62,1711254128806 ,48,258169719224 ,29,1629139252365
8.18577 ,Left ,62,1035295883519 ,48,269475547974 ,29,1893410580458
8.2088979 ,Left ,62,1099196160577 ,48,2589117221714 ,29,2162484135403
8.2299948 ,Left ,62,1080685363226 ,48,2740374971888 ,29,2181872462869
8.2458024 ,Left ,62,0399204545168 ,48,3014097942593 ,29,1815571364
8.2690626 ,Left ,62,0158819853905 ,48,3178095211209 ,29,1476744491378
8.2914478 ,Left ,62,0651875073689 ,48,3184943442893 ,29,1097376416957
8.3063898 ,Left ,62,1451888884081 ,48,2947977325985 ,29,0684183110997
8.3288595 ,Left ,62,1622624880188 ,48,2685712523833 ,29,0196306752834
8.3509282 ,Left ,62,1602450445381 ,48,2455386222476 ,28,9738106957414
8.3660833 ,Left ,62,1729018435812 ,48,2403206553688 ,28,943343669258
8.3887608 ,Left ,62,1768846499754 ,48,2624351107042 ,28,9202391526911
8.4112149 ,Left ,62,1466764916468 ,48,3036582717625 ,28,8994495134152
8.4262378 ,Left ,62,0761169506057 ,48,3560567285805 ,28,8638757658018
8.4487482 ,Left ,61,9905204731283 ,48,3949009455724 ,28,8195013752813
8.471343 ,Left ,61,9069603007383 ,48,3814973930077 ,28,7752882869598
8.4854317 ,Left ,61,8507855263549 ,48,3369619315299 ,28,7527557926333
8.5088048 ,Left ,61,7727466233556 ,48,2672451567462 ,28,708973570305
8.531267 ,Left ,61,6728386681504 ,48,184900973812 ,28,6677378895916
8.5453796 ,Left ,61,6412321724233 ,48,0947103151348 ,28,6435781023133
8.5687913 ,Left ,61,7103696565535 ,47,9897852612694 ,28,6420054226689
8.5916186 ,Left ,61,7904026536829 ,47,8686824921696 ,28,6391054512758
8.6129912 ,Left ,61,8735169303017 ,47,7273881873398 ,28,6434770221831
8.6292367 ,Left ,61,9586097895313 ,47,5978134345346 ,28,6665207605771
8.6515725 ,Left ,62,0515688311983 ,47,4867051279136 ,28,6910238812957
8.6723158 ,Left ,62,1138608590724 ,47,4365793527892 ,28,7280214811992
8.6888864 ,Left ,62,151291486344 ,47,4450988052506 ,28,7486476283593
8.7112738 ,Left ,62,2210813779006 ,47,4860741385827 ,28,787138044554
8.7323102 ,Left ,62,3001948731672 ,47,5342718859536 ,28,8409922866079
8.7487687 ,Left ,62,3572347636061 ,47,5755377066707 ,28,8848460419238
8.7713551 ,Left ,62,3551995424694 ,47,5907418185445 ,28,9603281259329
8.792347 ,Left ,62,3547198256694 ,47,6064898930691 ,29,0379071849374
8.8088159 ,Left ,62,3769329394328 ,47,6432387562005 ,29,0878099501509
8.8318672 ,Left ,62,3693817450184 ,47,6806594316935 ,29,1128640540916
8.8521163 ,Left ,62,3720751543053 ,47,7061864129109 ,29,1078813103766
8.868673 ,Left ,62,3666609612066 ,47,7144380030645 ,29,1188744989185
8.8912447 ,Left ,62,3683149118603 ,47,7328574723292 ,29,1448635726156
8.9122794 ,Left ,62,3754615939238 ,47,7673289343851 ,29,1993250415767
8.9288091 ,Left ,62,3868739209537 ,47,8099918041714 ,29,2533161398192
8.9512971 ,Left ,62,3843933630064 ,47,8209716717666 ,29,2928590489364
8.9721561 ,Left ,62,4199110620942 ,47,8463457332257 ,29,3325636686542
8.9887945 ,Left ,62,3858569218449 ,47,8709074998281 ,29,3458624843386
9.0111467 ,Left ,62,3760165747211 ,47,8891464178984 ,29,355209584844
9.032719 ,Left ,62,3890323578795 ,47,9102381331824 ,29,3599483651155
9.0487591 ,Left ,62,3690894707078 ,47,9217310791094 ,29,3621012836284
9.0712358 ,Left ,62,3429669391905 ,47,9182463054061 ,29,370131172871
9.092339 ,Left ,62,3233241835225 ,47,9061630963859 ,29,3925950423472
9.1086316 ,Left ,62,3056288179811 ,47,9007507115521 ,29,4172523874104
9.1315859 ,Left ,62,2844279155921 ,47,9110078163086 ,29,4322418815192
9.1521665 ,Left ,62,278603265664 ,47,9273258587348 ,29,449387024195
9.1686241 ,Left ,62,2805267224364 ,47,9439643268503 ,29,4587061899119
9.1912748 ,Left ,62,274187755984 ,47,953947565499 ,29,4551437894214
9.2120998 ,Left ,62,2613885599798 ,47,9496095024725 ,29,4500614806829
9.2288069 ,Left ,62,2446871419966 ,47,9474849543493 ,29,4577798656599
9.2513059 ,Left ,62,2401662592125 ,47,9619187959768 ,29,46839222033
9.2739317 ,Left ,62,2210994424382 ,47,9830696620794 ,29,4768540942091
9.2888572 ,Left ,62,2236859997946 ,48,0168797389437 ,29,4909369132342
9.3113347 ,Left ,62,2142578893208 ,48,0646422396992 ,29,4948076383932
9.3337589 ,Left ,62,1943457507323 ,48,1120016273066 ,29,5073160710876
9.3487272 ,Left ,62,1841918413447 ,48,1642004002356 ,29,5183900337791
9.3712784 ,Left ,62,1543511087021 ,48,2137915698014 ,29,5325819039797
9.3937861 ,Left ,62,116831674453 ,48,2519962741853 ,29,5571573730215
9.4081286 ,Left ,62,0917932211433 ,48,2778151771936 ,29,5950842162757
9.4312104 ,Left ,62,0586811197082 ,48,2928222381281 ,29,6437742969168
9.4537398 ,Left ,62,0209075126047 ,48,2855159944953 ,29,6947153270765
9.4681594 ,Left ,61,9974740558599 ,48,2422071436085 ,29,7532958389704
9.4911456 ,Left ,62,0046779227844 ,48,1829419859827 ,29,8020413130151
9.5138121 ,Left ,62,0059694394149 ,48,1448391325368 ,29,83627813955
9.5283173 ,Left ,62,0051608099939 ,48,113954231966 ,29,8385544463625
9.55142 ,Left ,62,0389214653277 ,48,1227781546576 ,29,825587674828
9.5738575 ,Left ,62,1378663074196 ,48,1436932241612 ,29,7901758860448
9.5882667 ,Left ,62,2509696271096 ,48,1433350511921 ,29,7530777216671
9.6113135 ,Left ,62,3261834435293 ,48,1324060225446 ,29,7088382597225
9.6340642 ,Left ,62,3741979980572 ,48,1170970165192 ,29,6566912962504
9.6484855 ,Left ,62,379996755709 ,48,0915052523905 ,29,6225908744806
9.6716592 ,Left ,62,3827494190409 ,48,0664991411114 ,29,6103922063038
9.6941651 ,Left ,62,3855301105774 ,48,0383137634971 ,29,6045368486944
9.7083353 ,Left ,62,3796218778357 ,48,0119433201696 ,29,5974857616286
9.7315464 ,Left ,62,3300229536212 ,48,0007472881414 ,29,5872042215807
9.7540447 ,Left ,62,301977740131 ,47,9798839265569 ,29,580295949504
9.7749548 ,Left ,62,3284973039303 ,47,9651822249772 ,29,5949898916571
9.7913855 ,Left ,62,3721024072557 ,47,9650142494352 ,29,6100100253113
9.8137469 ,Left ,62,3729775089708 ,47,984515469082 ,29,5952652911253
9.8349761 ,Left ,62,3958557694469 ,47,9939642643219 ,29,5758585468167
9.8512265 ,Left ,62,4453955094762 ,47,9820438999779 ,29,5781975680797
9.8738131 ,Left ,62,4485975528865 ,47,9836026820853 ,29,580312495089
9.895072 ,Left ,62,4283373002233 ,47,9893948696269 ,29,5671222226615
9.911326 ,Left ,62,3800476623773 ,48,001536844227 ,29,5540244055185
9.9336805 ,Left ,62,3801318292699 ,48,0527918029447 ,29,5459996716193
9.9547339 ,Left ,62,4495834503469 ,48,1413724853306 ,29,5605939226893
9.9714469 ,Left ,62,4526109778326 ,48,2302540330755 ,29,5733853189941
9.9936504 ,Left ,62,3949745121977 ,48,275684630621 ,29,580575844764
10.0146695 ,Left ,62,3809937834686 ,48,3075687576016 ,29,6177018303919
10.0311189 ,Left ,62,3648029445569 ,48,354912617275 ,29,6649417538588
10.0536416 ,Left ,62,3022148327878 ,48,4025106222407 ,29,6973796849141
10.0750701 ,Left ,62,2283990725429 ,48,4275353968945 ,29,707984990119
10.0914063 ,Left ,62,1463492575848 ,48,4102090744694 ,29,6926258421928
10.1138008 ,Left ,62,0538561713531 ,48,4167271479484 ,29,6858512923861
10.1351492 ,Left ,62,0007929347085 ,48,4474823955578 ,29,6527802461345
10.1514614 ,Left ,61,9929321705656 ,48,4738431307659 ,29,5946435370996
10.1739468 ,Left ,61,9597356728661 ,48,4888840130294 ,29,5221391140166
10.196389 ,Left ,61,9170032601368 ,48,4999195244703 ,29,448436329415
10.2113426 ,Left ,61,9331834126721 ,48,5015713107393 ,29,3894163588503
10.2339547 ,Left ,62,0108422630853 ,48,4916851254205 ,29,3509153660015
10.2562994 ,Left ,62,0154189134108 ,48,4818707820302 ,29,3218453913892
10.2714665 ,Left ,61,9972135987134 ,48,4667031030626 ,29,2879947123524
10.2937562 ,Left ,61,9943312506355 ,48,4414437212077 ,29,2549157219017
10.3164083 ,Left ,61,9710384706842 ,48,434081838679 ,29,2261353221177
10.3312989 ,Left ,61,9311075249607 ,48,4684910278744 ,29,1974147589048
10.3537167 ,Left ,61,8751610779925 ,48,5183296926462 ,29,164978116228
10.3762389 ,Left ,61,829043666823 ,48,5320371417028 ,29,124209508551
10.390617 ,Left ,61,8083125435001 ,48,5220326854219 ,29,1088856192367
10.4135815 ,Left ,61,7635961645491 ,48,4916987044359 ,29,0803545591434
10.4362789 ,Left ,61,7273919991969 ,48,4485865186206 ,29,0643066584142
10.4508746 ,Left ,61,7242105566976 ,48,3771854371088 ,29,0693031527765
10.474083 ,Left ,61,7647306047589 ,48,2880954467171 ,29,1007896968833
10.4966225 ,Left ,61,8211904556879 ,48,1772547609194 ,29,1195865607882
10.5175579 ,Left ,61,8908690451754 ,48,04554916307 ,29,1317628623231
10.5340695 ,Left ,61,9573984963489 ,47,916127429737 ,29,1552566106653
10.5564294 ,Left ,61,9951647520571 ,47,8172896470516 ,29,1630310493372
10.5773548 ,Left ,62,0562979191705 ,47,7735309320943 ,29,1808528429089
10.5938617 ,Left ,62,1125617974564 ,47,7461804126392 ,29,2125670390497
10.6163901 ,Left ,62,1601077864691 ,47,7457516041531 ,29,2387518214595
10.6374131 ,Left ,62,2010283702323 ,47,8086328344584 ,29,2828029210015
10.6537127 ,Left ,62,2501569697168 ,47,8925742553342 ,29,3176829985692
10.6763989 ,Left ,62,2721252033225 ,47,9567458644408 ,29,3486369682294
10.6973546 ,Left ,62,2621015371424 ,47,9795306814548 ,29,4063365818443
10.7137374 ,Left ,62,2560230118759 ,47,9796095789248 ,29,4654083988288
10.7360561 ,Left ,62,2335809202306 ,47,9598754027274 ,29,4981865418148
10.7571417 ,Left ,62,2482906154046 ,47,9720416495136 ,29,531754121956
10.7737925 ,Left ,62,2280969706472 ,47,981017770828 ,29,5404072449237
10.7961375 ,Left ,62,2415221759895 ,47,9806224506481 ,29,5611472268986
10.8174412 ,Left ,62,2567144952241 ,47,9932602431789 ,29,592215938039
10.8338602 ,Left ,62,2608392730044 ,48,0296973281226 ,29,6403036729273
10.8563768 ,Left ,62,2648402989274 ,48,0625325267325 ,29,6893935938566
10.8776115 ,Left ,62,2785858979251 ,48,0395230770925 ,29,728224828013
10.8938603 ,Left ,62,3064186256493 ,47,9971066128051 ,29,7610202553041
10.9162358 ,Left ,62,3093176053624 ,47,9961348717395 ,29,7621178450152
10.9371345 ,Left ,62,289948520489 ,48,020290160939 ,29,7438939248456
10.9538927 ,Left ,62,3011386937004 ,48,0505109289208 ,29,7353561024628
10.9766573 ,Left ,62,2866489114285 ,48,0564032937965 ,29,7277023458029
10.9979522 ,Left ,62,2683232868306 ,48,0546338204181 ,29,7180257318017
11.0142269 ,Left ,62,2428958418475 ,48,0424890195914 ,29,7140043385452
11.0365487 ,Left ,62,227751597031 ,48,0313524312782 ,29,729814763599
11.0573354 ,Left ,62,2344116903633 ,48,0358511304107 ,29,7448371948648
11.0738256 ,Left ,62,2182756408738 ,48,0418892172127 ,29,7634201580911
11.0961931 ,Left ,62,2266138906017 ,48,057000878365 ,29,7800055637318
11.1174 ,Left ,62,2079453938826 ,48,0675961388245 ,29,7963166552868
11.1338112 ,Left ,62,2202043581021 ,48,0903459882674 ,29,8148625921019
11.1561254 ,Left ,62,2216194476863 ,48,1252520541996 ,29,8169140574008
11.1789 ,Left ,62,2204446821913 ,48,1722743081665 ,29,8149583291469
11.1938245 ,Left ,62,2275293711425 ,48,2286504094392 ,29,8064341919577
11.2165179 ,Left ,62,2141429121324 ,48,2774381411733 ,29,8067525640461
11.2392342 ,Left ,62,1872159032998 ,48,3136593757137 ,29,8215476063892
11.2541373 ,Left ,62,1536307957634 ,48,3400437569303 ,29,8470992713422
11.27667 ,Left ,62,1263223354869 ,48,357400514988 ,29,8818372772379
11.2987714 ,Left ,62,0934321042114 ,48,3458128311102 ,29,9288835702609
11.3130713 ,Left ,62,0837113235905 ,48,3001463672852 ,29,9890949471023
11.3363326 ,Left ,62,0710251627395 ,48,2721565528383 ,30,050093419207
11.3587879 ,Left ,62,0691091033739 ,48,2524978041137 ,30,0982607362121
11.3730924 ,Left ,62,0855333507587 ,48,2492383056158 ,30,1396111889828
11.3963013 ,Left ,62,1482566399703 ,48,2563278176615 ,30,1418342563769
11.4191093 ,Left ,62,2324671838264 ,48,2585447771373 ,30,1065485950242
11.4331951 ,Left ,62,3124291730956 ,48,2606344188679 ,30,0545933193705
11.456269 ,Left ,62,3520045509568 ,48,2553887251472 ,30,0028697115864
11.4790177 ,Left ,62,3790618045517 ,48,2368438540512 ,29,9571208926372
11.4931521 ,Left ,62,3987012700933 ,48,2074955568904 ,29,9192905883376
11.5164217 ,Left ,62,4031974301089 ,48,1852583222954 ,29,8950249786704
11.5387998 ,Left ,62,3564677883665 ,48,1855280636951 ,29,8961752219019
11.5531674 ,Left ,62,3142925691013 ,48,2175896863573 ,29,9046232018561
11.5765162 ,Left ,62,3330107291012 ,48,2335411665195 ,29,9051441600008
11.5989815 ,Left ,62,3452349970101 ,48,2464302962746 ,29,9014532892484
11.6131719 ,Left ,62,3408357727372 ,48,2494009124587 ,29,8709828225789
11.6360553 ,Left ,62,3081986649887 ,48,2103933568229 ,29,8420728936264
11.6585374 ,Left ,62,3545530846146 ,48,1615030234736 ,29,8503224594975
11.6796341 ,Left ,62,424729896708 ,48,1423146112234 ,29,8298617207451
11.6961261 ,Left ,62,3897300457766 ,48,1047125742801 ,29,8049920223539
11.7187484 ,Left ,62,3811618568424 ,48,0614348890401 ,29,8118075419316
11.739992 ,Left ,62,4248985517897 ,48,0618380820203 ,29,8322824630922
11.7562256 ,Left ,62,4564465806046 ,48,1191069842813 ,29,8543851744132
11.7789654 ,Left ,62,4758703867547 ,48,1744958092249 ,29,8569137498341
11.7998736 ,Left ,62,4389762546474 ,48,2029160926542 ,29,8723934553831
11.8164008 ,Left ,62,4209495524595 ,48,247797503143 ,29,9166239811678
11.8387042 ,Left ,62,3875344972211 ,48,3006180368155 ,29,959332845961
11.8597678 ,Left ,62,3603995149689 ,48,342892315288 ,29,9771251531479
11.8763016 ,Left ,62,3235406665754 ,48,3256874820187 ,29,9797027078002
11.8987726 ,Left ,62,2314567287501 ,48,2945658840948 ,29,9874092938946
11.9198176 ,Left ,62,1174341330033 ,48,3184813466298 ,29,9702676991691
11.936295 ,Left ,62,0516912124175 ,48,413834297934 ,29,9338341038293
11.9588146 ,Left ,62,0006673891306 ,48,4749768580128 ,29,882396225564
11.9799703 ,Left ,62,0021365353042 ,48,4793127541244 ,29,8376925804301
11.9957153 ,Left ,62,0068610991454 ,48,4640850352754 ,29,780959517373
12.0188139 ,Left ,62,0099141042149 ,48,4543747318516 ,29,7245386586533
12.039802 ,Left ,62,0169768244951 ,48,4552186057403 ,29,6942607276553
12.0562925 ,Left ,62,0391932711744 ,48,453360004364 ,29,6705551848396
12.0787561 ,Left ,62,0198902861321 ,48,4353624025832 ,29,646256276847
12.1013067 ,Left ,62,0223932198492 ,48,3966346049965 ,29,6262886267053
12.116382 ,Left ,62,0392867631357 ,48,3627714900663 ,29,6137465888274
12.1389068 ,Left ,62,013793108305 ,48,3642014058104 ,29,6024997140723
12.1615243 ,Left ,61,9516225987797 ,48,4086070139568 ,29,5886053279766
12.1763368 ,Left ,61,8952941125659 ,48,4520945944883 ,29,5669183616481
12.1988609 ,Left ,61,8320339503418 ,48,4488070563859 ,29,5405427191593
12.2211007 ,Left ,61,7789825583769 ,48,4336037843013 ,29,5262361048261
12.23538 ,Left ,61,6951948722982 ,48,4057426186117 ,29,5015634073734
12.258852 ,Left ,61,6185918697814 ,48,3558116221978 ,29,490967810438
12.2812323 ,Left ,61,5976464726651 ,48,280316281491 ,29,4871750216754
12.2958555 ,Left ,61,6533479035231 ,48,1607291115091 ,29,4927799227763
12.3191042 ,Left ,61,7327089597049 ,48,0372220139393 ,29,4980044356308
12.3414866 ,Left ,61,8209029155655 ,47,8981745756108 ,29,497457443841
12.3627707 ,Left ,61,9004609351513 ,47,7425185986259 ,29,4991457184605
12.3790165 ,Left ,61,9619659292261 ,47,6023651835946 ,29,5255884239013
12.4015694 ,Left ,62,0222075272946 ,47,5166997401485 ,29,5603662208667
12.4226602 ,Left ,62,0665413018021 ,47,5030605933746 ,29,5865866784848
12.4391176 ,Left ,62,1159096580243 ,47,5173439814934 ,29,6106443157324
12.4617724 ,Left ,62,1865568621903 ,47,5606310907222 ,29,6629798372577
12.4828515 ,Left ,62,2215590879355 ,47,6486665967921 ,29,7075383092604
12.4988548 ,Left ,62,215814213362 ,47,7536617779332 ,29,7310553134668
12.5216256 ,Left ,62,1981203719049 ,47,8074782003588 ,29,7742444233195
12.5356449 ,Left ,62,1550827496259 ,47,8293839878522 ,29,8274385330253
12.5587705 ,Left ,62,1430256966999 ,47,8773431073597 ,29,8682592124887
12.5812958 ,Left ,62,0868966524757 ,47,919347111012 ,29,8734013334145
12.6022033 ,Left ,62,0533642929343 ,47,9322781975858 ,29,898404453233
12.6189479 ,Left ,62,0539521284658 ,47,9461206230452 ,29,9399438148273
12.6489049 ,Left ,62,0635145421456 ,47,9635596075733 ,29,992565476081
12.6625786 ,Left ,62,0687529780956 ,48,0026208921366 ,30,0484741097249
12.6788767 ,Left ,62,0627301812468 ,48,0242332205107 ,30,1158268146933
12.7014552 ,Left ,62,0670120012014 ,48,0191288255993 ,30,1806263604672
12.722712 ,Left ,62,1084867019602 ,48,0453459284002 ,30,2184065507934
12.7389281 ,Left ,62,086917073296 ,48,0886405161834 ,30,2268447675423
12.7614537 ,Left ,62,0585871559873 ,48,1202478472964 ,30,2349782499874
12.7826663 ,Left ,62,0519207585301 ,48,1463577626346 ,30,2510599710697
12.7989233 ,Left ,62,063977047349 ,48,176718826268 ,30,2550631894235
12.8214281 ,Left ,62,0183095883418 ,48,1835498683658 ,30,2556146154067
12.8426827 ,Left ,61,9759350251384 ,48,1812264614129 ,30,2662566577895
12.8589263 ,Left ,61,9372355321152 ,48,1829709896598 ,30,2798986386147
12.8814041 ,Left ,61,9095377035437 ,48,2065187904746 ,30,2966122359607
12.9024704 ,Left ,61,8989713799525 ,48,2291882935457 ,30,3021690815025
12.9190593 ,Left ,61,8993599481267 ,48,231713147864 ,30,3031147259477
12.9414386 ,Left ,61,8914778436102 ,48,2387862248915 ,30,2960866780847
12.9627086 ,Left ,61,9048721428225 ,48,2494336008261 ,30,3012509368922
12.9789065 ,Left ,61,9241600591711 ,48,2783184072445 ,30,3021255702916
13.0013842 ,Left ,61,9419528888961 ,48,3174028947063 ,30,285071865093
13.0226167 ,Left ,61,9480890504719 ,48,3519329046127 ,30,2597596888324
13.0389583 ,Left ,61,9363356563438 ,48,3766759807187 ,30,2487869102999
13.0614827 ,Left ,61,9352244432589 ,48,4100113651311 ,30,2480729608216
13.0839022 ,Left ,61,9289324090385 ,48,4574591454362 ,30,2473767580212
13.0989087 ,Left ,61,9198684346791 ,48,5078934006846 ,30,2487665767845
13.1213612 ,Left ,61,905138896631 ,48,5380203876736 ,30,2661867189436
13.1439505 ,Left ,61,8711443005186 ,48,5336540818905 ,30,3107242573033
13.15891 ,Left ,61,84494093704 ,48,5030560941275 ,30,3745801167137
13.1814193 ,Left ,61,8202723568319 ,48,4826572182041 ,30,4345047485624
13.2039647 ,Left ,61,8013167930274 ,48,4992541840045 ,30,4726434264603
13.2182317 ,Left ,61,8023818228391 ,48,5133466686131 ,30,4932923275632
13.2414435 ,Left ,61,8632057531065 ,48,537446412802 ,30,5017511959794
13.263892 ,Left ,61,9689058695242 ,48,5611922648899 ,30,4730511784917
13.2783653 ,Left ,62,0547292782472 ,48,5802264194472 ,30,4232679206304
13.3015037 ,Left ,62,0834898903333 ,48,5968923562791 ,30,3754825035261
13.3239258 ,Left ,62,1059947577462 ,48,6134643826101 ,30,3397535497594
13.3382146 ,Left ,62,1483839336381 ,48,6094716790957 ,30,3039835513647
13.3614539 ,Left ,62,1556433908181 ,48,5900402885448 ,30,2856891933003
13.3838858 ,Left ,62,1374421174188 ,48,5617627086092 ,30,2795394375798
13.3982612 ,Left ,62,1078758800052 ,48,5333969777455 ,30,2770863785623
13.4212885 ,Left ,62,0486410491922 ,48,5003995303701 ,30,2671453264968
13.4439444 ,Left ,62,0330448689041 ,48,4792281767631 ,30,2530821586024
13.4581858 ,Left ,62,0649986199953 ,48,4628760590725 ,30,2381748588891
13.4814312 ,Left ,62,1151951462834 ,48,4571987078026 ,30,2293692285491
13.5039457 ,Left ,62,1277622378428 ,48,4443335722067 ,30,2120596872595
13.5251615 ,Left ,62,1783938082783 ,48,4188598985445 ,30,2147759027702
13.5414559 ,Left ,62,2234143496906 ,48,3845546077526 ,30,2306494749327
13.5639811 ,Left ,62,2449284340042 ,48,3762059777068 ,30,2223566340882
13.5851941 ,Left ,62,2263543376811 ,48,3436281722785 ,30,1966350776594
13.6014512 ,Left ,62,1684711174793 ,48,3209914242131 ,30,1986373499123
13.6238604 ,Left ,62,1283813603051 ,48,3355794535458 ,30,1802805968032
13.6452074 ,Left ,62,1831869624434 ,48,3925488066197 ,30,1814588932809
13.6614738 ,Left ,62,2002765501735 ,48,4753435278304 ,30,1937289847843
13.6839129 ,Left ,62,1946992844172 ,48,5768646863732 ,30,2265507634001
13.7051651 ,Left ,62,2058913937338 ,48,6487695397246 ,30,2511805628963
13.7214156 ,Left ,62,1979716718265 ,48,6523217854201 ,30,283278995192
13.7439396 ,Left ,62,1686860756006 ,48,6368820145542 ,30,3370376628446
13.7649796 ,Left ,62,1211249588336 ,48,6463879300107 ,30,3767796091288
13.7814256 ,Left ,62,0699131109607 ,48,6633699838406 ,30,3877609309041
13.8039481 ,Left ,62,022368322792 ,48,6657636352208 ,30,396366523284
13.8251716 ,Left ,62,0026040209284 ,48,6647240695412 ,30,3971638601654
13.841437 ,Left ,62,009012183631 ,48,6758167603209 ,30,3997881945264
13.8639819 ,Left ,62,0207665320403 ,48,6860214187123 ,30,3876766869547
13.8852642 ,Left ,62,0082794521525 ,48,6513714005803 ,30,3618749514101
13.9015862 ,Left ,61,9959652715967 ,48,5849896687476 ,30,3276898248326
13.9239043 ,Left ,61,9801512624114 ,48,5431981026978 ,30,3050037383643
13.9451178 ,Left ,61,9838975686834 ,48,5488916126495 ,30,2884507605466
13.9613489 ,Left ,61,9788988567868 ,48,568638487587 ,30,2755790889906
13.983798 ,Left ,62,000810633362 ,48,5753389859748 ,30,2713304308531
14.0063079 ,Left ,62,0346778850716 ,48,5578805351599 ,30,2681945305212
14.0213662 ,Left ,62,0616902250253 ,48,5281566852188 ,30,2746993663218
14.0436247 ,Left ,62,0968072844872 ,48,5016668346591 ,30,2646153763679
14.0662533 ,Left ,62,1301271944336 ,48,4858990542536 ,30,2443721082919
14.0810051 ,Left ,62,1487260748933 ,48,4599166031179 ,30,2296158043281
14.103977 ,Left ,62,1635306075155 ,48,4399028593285 ,30,2211715176222
14.1263091 ,Left ,62,1849812392983 ,48,4422652619734 ,30,2048943435772
14.1406304 ,Left ,62,1780353922883 ,48,469800865869 ,30,1809104915879
14.1638674 ,Left ,62,155058243927 ,48,5234646513262 ,30,1555809342756
14.1862957 ,Left ,62,1150732110368 ,48,5846221613905 ,30,1184878334924
14.200645 ,Left ,62,0547743143115 ,48,6430026644221 ,30,071241870116
14.2238548 ,Left ,61,9672705737531 ,48,6801903539033 ,30,0133025138674
14.2462593 ,Left ,61,8583343671797 ,48,6924504250551 ,29,9591631039219
14.2676841 ,Left ,61,7354483223266 ,48,632398749568 ,29,9074691855247
14.2839121 ,Left ,61,623014249609 ,48,5586023246868 ,29,8877267755068
14.3060997 ,Left ,61,5173763821443 ,48,4866849949426 ,29,8591055316476
14.3276183 ,Left ,61,4551758458243 ,48,4358791770057 ,29,8532770791785
14.3437816 ,Left ,61,4733934841414 ,48,3606967475474 ,29,8752157247332
14.3664792 ,Left ,61,5678988603335 ,48,2379788556426 ,29,9107756327852
14.3873671 ,Left ,61,6792962469835 ,48,0888901454517 ,29,9384915306031
14.4038197 ,Left ,61,7485297873467 ,47,922115705297 ,29,9636621901836
14.4264531 ,Left ,61,8225983963556 ,47,7673282158486 ,29,9782212499749
14.4474169 ,Left ,61,9001671230408 ,47,6579747132324 ,29,9948954658234
14.4638089 ,Left ,61,9418158365824 ,47,6244890338076 ,30,0263384293891
14.4864207 ,Left ,61,9581029084421 ,47,6585960247668 ,30,0380813821538
14.5073524 ,Left ,62,0040788877372 ,47,7258490000291 ,30,0691330202457
14.5237692 ,Left ,62,0520863551112 ,47,80158130457 ,30,0982715100281
14.5462871 ,Left ,62,0369725296549 ,47,8776377856631 ,30,1267300677327
14.5674061 ,Left ,61,9918093943233 ,47,947665987179 ,30,1904653212335
14.5741103 ,Left ,61,975194540092 ,47,9859903064869 ,30,2683757646161
14.589253 ,Left ,61,9496668715982 ,47,9779049042905 ,30,3315657100914
14.6118639 ,Left ,62,0153717549581 ,47,9907491624327 ,30,3931040050232
14.6339949 ,Left ,62,0212180798995 ,47,9992754926715 ,30,4023890646136
14.648918 ,Left ,62,0468635754105 ,48,0088964741347 ,30,4029463005327
14.671697 ,Left ,62,0791277596229 ,48,0243792485598 ,30,4239790082489
14.6942424 ,Left ,62,1076022831819 ,48,0708526732667 ,30,4724167539315
14.7092183 ,Left ,62,1076534665718 ,48,1350779468576 ,30,5154325280727
14.7314688 ,Left ,62,1071473528853 ,48,1689584027094 ,30,5579901027297
14.7539871 ,Left ,62,1451519855899 ,48,1687899732573 ,30,595634662631
14.7693147 ,Left ,62,1383651048612 ,48,1336839630869 ,30,6153425909869
14.7917531 ,Left ,62,1399272629316 ,48,111359749013 ,30,6202015343013
14.8233334 ,Left ,62,1286067408533 ,48,1182449420336 ,30,6018219421763
14.8295913 ,Left ,62,1143173114168 ,48,1262474282957 ,30,574839444698
14.8519667 ,Left ,62,1230844054586 ,48,1279973153635 ,30,552536660128
14.8745355 ,Left ,62,1381680378503 ,48,1084467172392 ,30,5339538819316
14.8897125 ,Left ,62,1425809934931 ,48,086221715479 ,30,5303519796272
14.9119465 ,Left ,62,1284044073973 ,48,0745564778858 ,30,5375768840219
14.9345203 ,Left ,62,138945405976 ,48,0733918083208 ,30,5461194944993
14.9492597 ,Left ,62,1415749905365 ,48,0794252818096 ,30,5478700619378
14.9718755 ,Left ,62,1543478335652 ,48,0956184917003 ,30,5430860425513
14.9942412 ,Left ,62,1469606117882 ,48,115959709134 ,30,5367996756899
15.009514 ,Left ,62,1444476606582 ,48,14990809131 ,30,53225825024
15.0317846 ,Left ,62,1402175503713 ,48,1914877829603 ,30,5240093871186
15.0541842 ,Left ,62,1383506543996 ,48,2405351712824 ,30,5231990345741
15.0693029 ,Left ,62,1239419532833 ,48,3026357637207 ,30,5321061631015
15.0920065 ,Left ,62,1112603895598 ,48,3738429483785 ,30,5391769988794
15.1143467 ,Left ,62,0796138997635 ,48,4415159264079 ,30,5507277561017
15.129502 ,Left ,62,0499743350886 ,48,4984896228525 ,30,5719614901815
15.1519696 ,Left ,62,026010518016 ,48,5391326074129 ,30,611986622409
15.1744768 ,Left ,61,9890860954993 ,48,5374117599012 ,30,6607623091179
15.1893461 ,Left ,61,9738735009539 ,48,4697125906202 ,30,7400093422153
15.2116634 ,Left ,61,9786882375204 ,48,3946703219008 ,30,8270362703946
15.2342503 ,Left ,61,9946997607912 ,48,3468931073509 ,30,8892351540335
15.2492426 ,Left ,62,0385359521441 ,48,3423990792783 ,30,9183445705158
15.2717434 ,Left ,62,1340867174438 ,48,3565018770125 ,30,8862642509343
15.294484 ,Left ,62,2156797692807 ,48,3647175788926 ,30,8333833013871
15.3095195 ,Left ,62,2883686488986 ,48,3717836124132 ,30,780122471226
15.3318114 ,Left ,62,3412527381481 ,48,3790976120761 ,30,7105791706629
15.3544898 ,Left ,62,368536335542 ,48,3680695625271 ,30,643772911149
15.3693984 ,Left ,62,375805207644 ,48,3477485242904 ,30,597075909468
15.3916931 ,Left ,62,3866334715612 ,48,3257405433083 ,30,5585022406507
15.414781 ,Left ,62,3418626276049 ,48,2729154223868 ,30,5325714611117
15.4295447 ,Left ,62,310414768444 ,48,2151981103327 ,30,5455476247668
15.4518913 ,Left ,62,3146498191065 ,48,1735738387008 ,30,5535748782128
15.4743032 ,Left ,62,3160765618397 ,48,1720685211857 ,30,5524346851586
15.4907891 ,Left ,62,353483432926 ,48,1893085656556 ,30,5398346517564
15.5119604 ,Left ,62,3994188706628 ,48,1919033568713 ,30,5254362131398
15.5343163 ,Left ,62,4752130884475 ,48,1814257894369 ,30,5253309266725
15.5508242 ,Left ,62,4854550664214 ,48,2013924753519 ,30,5130146418127
15.5718681 ,Left ,62,4688070836425 ,48,2040350165467 ,30,4894935213665
15.5945485 ,Left ,62,4181680882636 ,48,220867566692 ,30,4914248261812
15.610812 ,Left ,62,434854063689 ,48,2759364284418 ,30,5127177637579
15.6321395 ,Left ,62,4507124058476 ,48,3586673972485 ,30,5389024932845
15.6545988 ,Left ,62,4482587036744 ,48,4260332488518 ,30,5542669492279
15.6707934 ,Left ,62,4371898716638 ,48,4562482141484 ,30,5839066994251
15.6918359 ,Left ,62,4099848971265 ,48,478927867221 ,30,6407911388222
15.714045 ,Left ,62,3940348863729 ,48,5046511557069 ,30,6724480138554
15.7303805 ,Left ,62,3405358761565 ,48,5211990337448 ,30,6769425457633
15.7514788 ,Left ,62,279136626222 ,48,5093024989533 ,30,6665189753656
15.7740224 ,Left ,62,1727851048967 ,48,4954219336626 ,30,674782420857
15.7907983 ,Left ,62,1099053711395 ,48,511845897028 ,30,654177399561
15.8118626 ,Left ,62,1291954274269 ,48,5642342528023 ,30,6123803530758
15.8342159 ,Left ,62,1070465987392 ,48,6114370338635 ,30,5613196322273
15.8520806 ,Left ,62,0500959064976 ,48,6238350287366 ,30,506447393695
15.8718642 ,Left ,62,0674863156618 ,48,6097129602418 ,30,451920817533
15.8944468 ,Left ,62,1474875406967 ,48,5652229560055 ,30,4122214480667
15.9123067 ,Left ,62,187024298791 ,48,5141628512598 ,30,3799644883682
15.9317425 ,Left ,62,1978802561828 ,48,4723405757916 ,30,338089324088
15.9543582 ,Left ,62,2006155491492 ,48,4264167114292 ,30,2995812688889
15.9723675 ,Left ,62,2299638742337 ,48,4041457567965 ,30,2750829023924
15.9923225 ,Left ,62,2666987162031 ,48,4182293833581 ,30,2562218979464
16.0147676 ,Left ,62,2792265371036 ,48,4532477727575 ,30,2494512144798
16.03209 ,Left ,62,2590805227287 ,48,483659257821 ,30,2362837186827
16.0519529 ,Left ,62,2268831341567 ,48,4901919034585 ,30,2269221714491
16.0742511 ,Left ,62,1938102432576 ,48,4703456458131 ,30,2242475823254
16.0918775 ,Left ,62,1421183054965 ,48,4472281376045 ,30,2314246695114
16.1117003 ,Left ,62,094918171322 ,48,412652712975 ,30,2271243631071
16.1341638 ,Left ,62,0500852811296 ,48,365009877526 ,30,2139360720135
16.151937 ,Left ,62,0258122626943 ,48,2905827797484 ,30,2129397646738
16.1714493 ,Left ,62,0641352299411 ,48,1688983601997 ,30,2262942400204
16.1942672 ,Left ,62,1106200653286 ,47,9859154772563 ,30,2423650316132
16.212009 ,Left ,62,1765803226395 ,47,787551654766 ,30,2637598774252
16.2318491 ,Left ,62,2192563861829 ,47,6044440497583 ,30,2909666707905
16.2558106 ,Left ,62,2761829529541 ,47,4643442942582 ,30,3462904090825
16.2724589 ,Left ,62,3315617549343 ,47,3975026809081 ,30,4245340060779
16.2920419 ,Left ,62,37777396979 ,47,3973852621828 ,30,4782195563306
16.3144565 ,Left ,62,4599806039885 ,47,4649353080259 ,30,5272306324644
16.3321399 ,Left ,62,5510943033244 ,47,5692771778152 ,30,5699836741104
16.3518381 ,Left ,62,5927853216382 ,47,6652693531195 ,30,6067013109299
16.37452 ,Left ,62,5785642849077 ,47,7335136965256 ,30,6732331966179
16.3922506 ,Left ,62,5481543250016 ,47,7718928666027 ,30,7467338452971
16.4116972 ,Left ,62,5052055726614 ,47,7879343262514 ,30,7941495897866
16.4339831 ,Left ,62,5139381358037 ,47,8193231542865 ,30,8279514854189
16.4520362 ,Left ,62,4846336234293 ,47,8290413117107 ,30,842476194211
16.4730497 ,Left ,62,5004599375933 ,47,8395547730124 ,30,876868567894
16.4940004 ,Left ,62,5414053793006 ,47,8642663332251 ,30,9115273349791
16.5122321 ,Left ,62,5367756692715 ,47,8883334075993 ,30,9415657485684
16.533118 ,Left ,62,5283755981673 ,47,9282680037834 ,30,9875213962494
16.5545771 ,Left ,62,5004949683814 ,47,9838190452424 ,31,0520236054677
16.5725275 ,Left ,62,4990564243602 ,48,052706618859 ,31,1083997048274
16.5931709 ,Left ,62,4844010282966 ,48,0791694232578 ,31,1351253023686
16.6143127 ,Left ,62,4981966043378 ,48,0774309574945 ,31,149724733249
16.6322488 ,Left ,62,4416029869608 ,48,060023405096 ,31,1533171612522
16.6532412 ,Left ,62,4083733054358 ,48,0505621836163 ,31,1601411972952
16.6745275 ,Left ,62,4027328311626 ,48,0526013632704 ,31,1654118585131
16.6922292 ,Left ,62,3931201586436 ,48,0399557316285 ,31,1754448272355
16.7132539 ,Left ,62,3885679441633 ,48,0298455008177 ,31,1799357585096
16.7345751 ,Left ,62,3778311862471 ,48,013446040586 ,31,1787127046512
16.7522334 ,Left ,62,3839360064256 ,48,0138975463911 ,31,1743949194541
16.7732909 ,Left ,62,3946381307094 ,48,0313576889539 ,31,173614047866
16.7944997 ,Left ,62,4268992048812 ,48,06672802651 ,31,1836237806835
16.8121834 ,Left ,62,4373475198292 ,48,1004448368888 ,31,1801957614828
16.8346023 ,Left ,62,4280393863201 ,48,1274293060667 ,31,1827966369544
16.8539591 ,Left ,62,4244106381313 ,48,1751980257848 ,31,1777197947117
16.872132 ,Left ,62,4189676590603 ,48,2409183880113 ,31,1636355884849
16.8946973 ,Left ,62,3894188148482 ,48,3106243532732 ,31,1540305596982
16.914074 ,Left ,62,350387883868 ,48,3676614014026 ,31,1541868839334
16.932539 ,Left ,62,3134151102465 ,48,4218035409385 ,31,1696494919367
16.9549784 ,Left ,62,2845531344786 ,48,4657676751791 ,31,2053669768929
16.974471 ,Left ,62,2340043389514 ,48,4911773409212 ,31,2397490797684
16.9923229 ,Left ,62,1972719428203 ,48,479056401201 ,31,2958290930564
17.0145984 ,Left ,62,1690736621023 ,48,4529757716333 ,31,3630066141001
17.0344084 ,Left ,62,1320629088932 ,48,4469345609164 ,31,431464808773
17.0521609 ,Left ,62,0917111095213 ,48,4582380730863 ,31,473480865353
17.0748153 ,Left ,62,1211385065941 ,48,4842447311023 ,31,4904175484505
17.0941299 ,Left ,62,1950954969323 ,48,4979809060681 ,31,4859101354888
17.1123985 ,Left ,62,2869391213947 ,48,4957602100392 ,31,4664185718247
17.134846 ,Left ,62,3953150742257 ,48,4894711355996 ,31,4273390452221
17.1543107 ,Left ,62,4883409752919 ,48,4578072686524 ,31,3815584013486
17.1722956 ,Left ,62,5735071253041 ,48,4111576945133 ,31,3461125122972
17.19474 ,Left ,62,617007506349 ,48,3817764293607 ,31,3039917031172
17.2141797 ,Left ,62,6365867594043 ,48,3623022793095 ,31,2614245071895
17.2322547 ,Left ,62,6565293950794 ,48,3426337153168 ,31,2260731970764
17.2548022 ,Left ,62,6556607878 ,48,3183469579197 ,31,1954491252697
17.2742878 ,Left ,62,6390857464229 ,48,2979769066585 ,31,181771925825
17.2921628 ,Left ,62,6248852566413 ,48,287035857532 ,31,1715368553825
17.3147282 ,Left ,62,5597011645117 ,48,30861520152 ,31,1651019145285
17.3357695 ,Left ,62,563475359155 ,48,3324406630575 ,31,1419316689754
17.3518116 ,Left ,62,6035727625094 ,48,356530488544 ,31,1144506094002
17.3745889 ,Left ,62,6479957585003 ,48,3441130586024 ,31,0892341592531
17.3955565 ,Left ,62,6544455054013 ,48,3152668358415 ,31,0691406259281
17.411897 ,Left ,62,6566833069641 ,48,2879718840303 ,31,0511142927332
17.4345602 ,Left ,62,6696142571088 ,48,25429191654 ,31,0517189352387
17.4555241 ,Left ,62,681163916424 ,48,2310923487856 ,31,0574675005235
17.4720181 ,Left ,62,698604858616 ,48,2097173321495 ,31,0494805905567
17.4948748 ,Left ,62,6834787633458 ,48,1828851721781 ,31,044946437663
17.5160479 ,Left ,62,6606432087027 ,48,1652291521192 ,31,0597032228487
17.5367521 ,Left ,62,6587834762676 ,48,1501603523828 ,31,0735798890717
17.5546808 ,Left ,62,7107363260814 ,48,1689142362535 ,31,0821140971384
17.5756658 ,Left ,62,6904285290753 ,48,1943947454504 ,31,0754092330272
17.5968198 ,Left ,62,662706872494 ,48,2008003044365 ,31,0851002327677
17.6146079 ,Left ,62,6902424266962 ,48,1984795718089 ,31,0898599897706
17.6357032 ,Left ,62,7139333038684 ,48,1923015046379 ,31,1066861928627
17.6568389 ,Left ,62,7084122749972 ,48,182082615024 ,31,1289785605305
17.674861 ,Left ,62,7003542765604 ,48,1547940892224 ,31,1343539449039
17.6958458 ,Left ,62,7231304546681 ,48,1077166878657 ,31,1328518073233
17.7168888 ,Left ,62,7484840885342 ,48,0689936835847 ,31,1366666116398
17.7347714 ,Left ,62,7600681767775 ,48,0625798343743 ,31,1523407988078
17.7572352 ,Left ,62,7493263061398 ,48,0777400940831 ,31,1904394834236
17.776781 ,Left ,62,7439421701823 ,48,0952400059327 ,31,2152508975868
17.7947656 ,Left ,62,7416119745975 ,48,0955870806475 ,31,2362008498412
17.817181 ,Left ,62,7308184384906 ,48,0819606673813 ,31,2586257037378
17.8367714 ,Left ,62,7204577702661 ,48,0719142756723 ,31,2800196383722
17.8547258 ,Left ,62,7165348897816 ,48,0740583589403 ,31,2947964040788
17.8773441 ,Left ,62,7080402845172 ,48,0850993128477 ,31,3051621150266
17.8968271 ,Left ,62,6953113991917 ,48,091743768587 ,31,3149421921505
17.9145792 ,Left ,62,673658201026 ,48,1058725487335 ,31,3210967579174
17.937284 ,Left ,62,6495678217167 ,48,1347595108898 ,31,3272181313128
17.9570943 ,Left ,62,6575833241373 ,48,1682503052837 ,31,3321796568015
17.9747595 ,Left ,62,639545315623 ,48,1785649870721 ,31,3278317341125
17.9973276 ,Left ,62,6342015062599 ,48,177329719988 ,31,3240659427802
18.0171112 ,Left ,62,6198701136249 ,48,1745887937407 ,31,3126022727879
18.0349075 ,Left ,62,5941257668035 ,48,1661237230956 ,31,3173030829764
18.0574336 ,Left ,62,6226207835142 ,48,1737255512596 ,31,3212900473019
18.0770455 ,Left ,62,628068093995 ,48,1868964561405 ,31,3154316081028
18.0939812 ,Left ,62,6134396996393 ,48,2156627775562 ,31,3157157437682
18.1165821 ,Left ,62,6308284410971 ,48,2582909212513 ,31,3266201098683
18.1374952 ,Left ,62,6371263645545 ,48,3190385755521 ,31,3343247659733
18.1541517 ,Left ,62,645072543241 ,48,3909910240635 ,31,3214752619378
18.1766673 ,Left ,62,6206606495923 ,48,4344351356819 ,31,3137890440727
18.1990057 ,Left ,62,5955960334312 ,48,4618631712932 ,31,3340772567012
18.2140404 ,Left ,62,5727227248603 ,48,5000503053697 ,31,3483383929802
18.2365605 ,Left ,62,5397875877579 ,48,5324637067181 ,31,3282133171709
18.2575638 ,Left ,62,5001866907163 ,48,5199166313343 ,31,2753766452865
18.2738941 ,Left ,62,4163376499737 ,48,5147221359819 ,31,212340687975
18.2961493 ,Left ,62,3078752063143 ,48,6013637555563 ,31,1392359026776
18.3173649 ,Left ,62,1952447193013 ,48,7418712647566 ,31,0718785375763
18.3338473 ,Left ,62,0875128727713 ,48,8593058279965 ,31,0216823950369
18.3563321 ,Left ,62,0084844763454 ,48,9321657893056 ,30,9932920442961
18.3773829 ,Left ,61,9339525849421 ,48,986099208211 ,30,9677095168655
18.3939209 ,Left ,61,8757320945519 ,49,0022887186129 ,30,9490302497151
18.4161234 ,Left ,61,8172692380697 ,48,9462865414903 ,30,9384244557579
18.4372806 ,Left ,61,7414755528499 ,48,8587401729826 ,30,9251772142151
18.4539091 ,Left ,61,6563982123706 ,48,7771766960738 ,30,8798746304287
18.4763395 ,Left ,61,5501280568671 ,48,7131220326526 ,30,8157397270464
18.4974798 ,Left ,61,4548310904505 ,48,6603200127628 ,30,7729703867204
18.5136099 ,Left ,61,3748342204242 ,48,6407618930001 ,30,7690447686138
18.5361742 ,Left ,61,3135326163339 ,48,6254144749089 ,30,7511997191566
18.5574734 ,Left ,61,321838201061 ,48,6121845558735 ,30,7459536777378
18.5729997 ,Left ,61,3334793398861 ,48,6095901175868 ,30,7464373112607
18.5961366 ,Left ,61,3582223434697 ,48,6403083322531 ,30,7588056894343
18.6174699 ,Left ,61,4062661060465 ,48,6542941815635 ,30,7825153782067
18.6339201 ,Left ,61,4676821636439 ,48,6207661985681 ,30,8306064306725
18.6563856 ,Left ,61,5401937454174 ,48,5698208768946 ,30,8979696906645
18.6776467 ,Left ,61,58740799663 ,48,5295020232674 ,30,9494868277826
18.6938181 ,Left ,61,6473151789373 ,48,496308359256 ,30,999908889388
18.7160998 ,Left ,61,7446254738551 ,48,482927979147 ,31,0617319797692
18.7387661 ,Left ,61,8427974869764 ,48,4832939166859 ,31,1138724152177
18.7530979 ,Left ,61,9456472240562 ,48,4921008333762 ,31,1804744499991
18.7763044 ,Left ,62,0448120824939 ,48,4966536613753 ,31,2761096770406
18.798868 ,Left ,62,1321659379302 ,48,4573986229123 ,31,3763828389422
18.8131928 ,Left ,62,2166904850668 ,48,4305848119254 ,31,457672173041
18.8363944 ,Left ,62,2656222679884 ,48,4364162059935 ,31,4871303152533
18.8590851 ,Left ,62,2782100198918 ,48,4612298452017 ,31,4889503525184
18.8731898 ,Left ,62,3184969273963 ,48,4883657377705 ,31,5005826865592
18.8961926 ,Left ,62,3542028906751 ,48,5142923110684 ,31,5056605069159
18.9188896 ,Left ,62,3777428652858 ,48,527069284246 ,31,5063866315187
18.9331168 ,Left ,62,3746560355388 ,48,5100479549568 ,31,5048967448785
18.9563211 ,Left ,62,3954804531393 ,48,4812531375634 ,31,5156507876436
18.9791432 ,Left ,62,3963541069499 ,48,4754335869597 ,31,525243346811
18.9931916 ,Left ,62,3853910744541 ,48,4877508570627 ,31,5340307251964
19.0164332 ,Left ,62,3763379204978 ,48,484788629768 ,31,545469554766
19.0389527 ,Left ,62,3765999256871 ,48,4767831576512 ,31,5617792414947
19.0532458 ,Left ,62,3722805744847 ,48,4673204444328 ,31,5639224099252
19.0764164 ,Left ,62,3583109278801 ,48,4592742150621 ,31,5623165111128
19.0989539 ,Left ,62,3637195007434 ,48,4582149602666 ,31,5552310929052
19.1132839 ,Left ,62,3623668391219 ,48,4597444500375 ,31,5563343019384
19.136418 ,Left ,62,3759962298461 ,48,4923394183071 ,31,5464089423036
19.1587909 ,Left ,62,3599999757858 ,48,5290891460125 ,31,5350679562806
19.1729246 ,Left ,62,3420711539863 ,48,5651652103666 ,31,531466089055
19.1960267 ,Left ,62,3374264092724 ,48,6122664498179 ,31,533401654898
19.218536 ,Left ,62,3377552335641 ,48,671002431158 ,31,5263484301361
19.2395687 ,Left ,62,2934702647059 ,48,7072403868591 ,31,535545627177
19.256031 ,Left ,62,2443440563199 ,48,7447529543903 ,31,5664274447502
19.2785786 ,Left ,62,180266847182 ,48,7913430986491 ,31,6029572841441
19.2995943 ,Left ,62,1423584988389 ,48,832984566014 ,31,6465483580539
19.3160359 ,Left ,62,0776469184158 ,48,815958959885 ,31,7029517164813
19.3385577 ,Left ,62,0672755389379 ,48,7547668210605 ,31,7741103171691
19.3596512 ,Left ,62,0670281801818 ,48,6905239944161 ,31,8506428694787
19.3761177 ,Left ,62,061763509254 ,48,6372949993386 ,31,9109686308532
19.3986284 ,Left ,62,1293701164692 ,48,6327785381807 ,31,9332882409312
19.4196505 ,Left ,62,2461537819363 ,48,6457818119168 ,31,9092031409871
19.436719 ,Left ,62,3500766854236 ,48,6483505109533 ,31,8693339384785
19.4592112 ,Left ,62,4383027794495 ,48,6545317150211 ,31,8255299240017
19.4804506 ,Left ,62,4968563987032 ,48,6632996553704 ,31,7769412612992
19.4967142 ,Left ,62,5167469036448 ,48,6652525399412 ,31,7320385439027
19.5191679 ,Left ,62,5265069589787 ,48,6687593755288 ,31,7008344304557
19.5399796 ,Left ,62,5192358468098 ,48,6698339036253 ,31,6737751714162
19.5564574 ,Left ,62,4965393995145 ,48,6723931123576 ,31,6694711191151
19.5788746 ,Left ,62,452683894846 ,48,6866443038989 ,31,6766702909835
19.5999806 ,Left ,62,4052157035284 ,48,6843887003435 ,31,6827332312773
19.6164958 ,Left ,62,3990492131535 ,48,6348201712736 ,31,6556896542017
19.6388221 ,Left ,62,3903148507152 ,48,5919325229635 ,31,6472080804082
19.6613116 ,Left ,62,3852144146765 ,48,5912646778017 ,31,641066572904
19.6762732 ,Left ,62,4108542767468 ,48,629252341659 ,31,6372633179596
19.6987757 ,Left ,62,4302276744641 ,48,6623857398752 ,31,6159130114249
19.7210471 ,Left ,62,4191364698163 ,48,6577112547154 ,31,5974543314353
19.7366788 ,Left ,62,4160952158846 ,48,6352619627613 ,31,5911233100019
19.7592327 ,Left ,62,3744459247538 ,48,6361021015857 ,31,5794839464429
19.7818909 ,Left ,62,3407061203253 ,48,6267501496937 ,31,5560695441121
19.7960984 ,Left ,62,3408741613731 ,48,5727243704683 ,31,5350787741965
19.8188609 ,Left ,62,3968021709695 ,48,480516964305 ,31,5446666899401
19.8413162 ,Left ,62,4384865403128 ,48,4771180172096 ,31,5772953060412
19.8554978 ,Left ,62,4339153350041 ,48,5378896358893 ,31,5978567113985
19.8787492 ,Left ,62,4160789313134 ,48,5873001738723 ,31,6298339618393
19.9011868 ,Left ,62,4535593425792 ,48,6072268087051 ,31,6988380416942
19.9163131 ,Left ,62,4575810794664 ,48,6540285626318 ,31,7551513753191
19.9392075 ,Left ,62,3971015555201 ,48,7126192717359 ,31,7791053391053
19.961786 ,Left ,62,3232359740122 ,48,7529926514121 ,31,7889855062985
19.9760557 ,Left ,62,2597078833857 ,48,763892202988 ,31,8125230619079
19.9989457 ,Left ,62,1445501272086 ,48,7749894330781 ,31,9028933626745
20.0211964 ,Left ,62,0710013375613 ,48,7209576084813 ,31,9630454319486
20.042427 ,Left ,62,0615052797481 ,48,7258785965825 ,31,9678871004884
20.0589048 ,Left ,62,0033159088682 ,48,7775434775099 ,31,9007332451154
20.0811574 ,Left ,61,9405536948297 ,48,7887525952954 ,31,8373933485795
20.1021028 ,Left ,62,0033411010978 ,48,76692355886 ,31,8225317806583
20.1187393 ,Left ,62,0974129129773 ,48,7791065728176 ,31,7852980061213
20.1413061 ,Left ,62,0813659900642 ,48,8192353417608 ,31,7082121266525
20.1629254 ,Left ,62,0399378495346 ,48,8363719768295 ,31,6508237798643
20.1790847 ,Left ,62,0295714208395 ,48,8138282264194 ,31,627185651567
20.2014616 ,Left ,62,0324902359594 ,48,7942399100877 ,31,6107412849311
20.2227192 ,Left ,61,9744793213572 ,48,7992983826035 ,31,5779256358733
20.2389941 ,Left ,61,8847712231519 ,48,8230519768753 ,31,5348223494331
20.2614168 ,Left ,61,8096925844498 ,48,8309096467079 ,31,5028986279457
20.2826156 ,Left ,61,7345664372893 ,48,785514034373 ,31,47401313208
20.2988941 ,Left ,61,6843412676907 ,48,7134957119039 ,31,4296186091418
20.3214555 ,Left ,61,634383396124 ,48,6756217335065 ,31,3744382112071
20.3427251 ,Left ,61,5455335901916 ,48,679948925959 ,31,3131276536091
20.3589321 ,Left ,61,509014769445 ,48,6737401131254 ,31,291586839941
20.3813966 ,Left ,61,5377084608918 ,48,6438612150099 ,31,3131566614035
20.4026499 ,Left ,61,58544264853 ,48,5875891039611 ,31,3555451118151
20.41897 ,Left ,61,6626908684532 ,48,5097213791722 ,31,3798952788591
20.4414397 ,Left ,61,7763784478609 ,48,3891022366618 ,31,3947743664775
20.4625823 ,Left ,61,8889773730355 ,48,2490916849083 ,31,4151840604118
20.4782615 ,Left ,61,9437306401305 ,48,1850618642917 ,31,4254016496879
20.5014625 ,Left ,61,9793236517379 ,48,1810366817704 ,31,4149968838483
20.5221431 ,Left ,62,0406613428281 ,48,1782011758613 ,31,4068737210723
20.5381665 ,Left ,62,0974930291181 ,48,1509235795629 ,31,3870519637614
20.5613519 ,Left ,62,1070877836235 ,48,1498483986074 ,31,4057934045177
20.5822945 ,Left ,62,0807092333809 ,48,1825186270936 ,31,4430422244
20.5988322 ,Left ,62,0486590533578 ,48,2333388101468 ,31,4996493101986
20.6212469 ,Left ,62,0072308842325 ,48,2661552371317 ,31,5783005169854
20.6438363 ,Left ,62,0329134746705 ,48,2797736973206 ,31,6575466528968
20.6588132 ,Left ,61,9869607043177 ,48,2501155214278 ,31,7106115132133
20.681324 ,Left ,61,9889266102645 ,48,2288386929711 ,31,7820939807128
20.7035836 ,Left ,61,9679529538674 ,48,2296272617895 ,31,832967479152
20.718554 ,Left ,61,9603627191455 ,48,2558543354219 ,31,8660212731319
20.7413692 ,Left ,61,9735279440845 ,48,2764889269264 ,31,9075040586444
20.7634721 ,Left ,62,0244210799397 ,48,3021672012947 ,31,9593696621002
20.7778072 ,Left ,62,0426602272371 ,48,3277551891598 ,31,9818750245851
20.8010859 ,Left ,62,0649752045169 ,48,3122836003175 ,31,9978583816385
20.8235351 ,Left ,62,1129066486974 ,48,2913707743278 ,32,0136228316301
20.838025 ,Left ,62,0894998270444 ,48,2944931332034 ,32,0195772837219
20.8672535 ,Left ,62,0908656130236 ,48,324159785818 ,32,024539158384
20.8841022 ,Left ,62,1382310588166 ,48,347292620444 ,32,012731100292
20.8979689 ,Left ,62,162307324955 ,48,3547852945766 ,32,006226070394
20.9211353 ,Left ,62,1474702397328 ,48,3424979173691 ,32,0005338473701
20.9438322 ,Left ,62,1408101474972 ,48,3091864196617 ,32,0128120084213
20.9581839 ,Left ,62,1423847885213 ,48,2769479094014 ,32,0278817888832
20.981229 ,Left ,62,1452285107297 ,48,2574656479609 ,32,0357163867271
21.0038239 ,Left ,62,1526948174759 ,48,2492886505273 ,32,044656265296
21.0181645 ,Left ,62,1488764211117 ,48,2416886362219 ,32,0571795025502
21.0412872 ,Left ,62,1473580173874 ,48,2497666877092 ,32,0611531318976
21.063814 ,Left ,62,1463961447622 ,48,261033925067 ,32,0565121579434
21.0850098 ,Left ,62,1654231857843 ,48,2712742218737 ,32,0526428993635
21.1013508 ,Left ,62,1734148411895 ,48,2798911838412 ,32,0563702827719
21.1238187 ,Left ,62,2069720866523 ,48,3018211152965 ,32,0605253077386
21.1450942 ,Left ,62,206576972919 ,48,3291819752253 ,32,0601803425475
21.161348 ,Left ,62,1947238393391 ,48,3697019578481 ,32,061668950976
21.1838106 ,Left ,62,1925438961494 ,48,4185594776143 ,32,0538651598319
21.2048773 ,Left ,62,1774501302647 ,48,45569421367 ,32,0571473307124
21.2213723 ,Left ,62,1608588536621 ,48,4972352776556 ,32,0724760473824
21.2438726 ,Left ,62,1425722618537 ,48,5313327474096 ,32,0850723948803
21.2650233 ,Left ,62,1288113881535 ,48,5646268057866 ,32,1008373361459
21.2813485 ,Left ,62,104354835242 ,48,5832922474896 ,32,1184072789461
21.3038652 ,Left ,62,084957523793 ,48,584368822545 ,32,1489419589154
21.3251058 ,Left ,62,0476713420505 ,48,5758039003617 ,32,1782326907092
21.3412928 ,Left ,62,0119085865859 ,48,5585450531421 ,32,2131272131889
21.3638409 ,Left ,61,9789680298851 ,48,5420799551367 ,32,2620105404614
21.3849803 ,Left ,61,9675518236868 ,48,5044437937895 ,32,3250233949683
21.4013398 ,Left ,61,9891194825772 ,48,4986745995645 ,32,3893236581694
21.4238023 ,Left ,62,051943410145 ,48,5385058831874 ,32,4050134862601
21.4451037 ,Left ,62,1297812291893 ,48,5735592038563 ,32,4047001026121
21.4613392 ,Left ,62,20796711713 ,48,5781594081849 ,32,4107370476207
21.4838117 ,Left ,62,2688458146721 ,48,5879442242343 ,32,3898736353252
21.5050452 ,Left ,62,2942492261788 ,48,5986745248995 ,32,3382831024332
21.5274899 ,Left ,62,3089642798802 ,48,6082037277163 ,32,284264822813
21.5437894 ,Left ,62,3134435999308 ,48,5967636718561 ,32,2438059857663
21.5663411 ,Left ,62,322418224566 ,48,5651219904224 ,32,2152367099438
21.5813596 ,Left ,62,3175920554964 ,48,5276081624925 ,32,18827593402
21.6039781 ,Left ,62,3055353707131 ,48,5067425073086 ,32,1583975529557
21.6262917 ,Left ,62,23228569803 ,48,4838454421212 ,32,1410809574063
21.6413041 ,Left ,62,2472224364402 ,48,4518554748828 ,32,1350342081975
21.6637458 ,Left ,62,2864472551093 ,48,4312691379461 ,32,121762247393
21.6864002 ,Left ,62,3154223258838 ,48,4240963794214 ,32,1221914109569
21.7074964 ,Left ,62,3519546659233 ,48,4319034148896 ,32,1145221587517
21.7238781 ,Left ,62,3427633603564 ,48,4126361480806 ,32,0966545942679
21.7462865 ,Left ,62,4120499496792 ,48,3699444196543 ,32,096165820546
21.7608204 ,Left ,62,4579832395557 ,48,3392964367044 ,32,0906549620195
21.7838894 ,Left ,62,4745276530793 ,48,3400159769047 ,32,0515276671283
21.806341 ,Left ,62,4362150976906 ,48,33970753482 ,32,0091450951731
21.8208339 ,Left ,62,4535576453183 ,48,3527953272055 ,31,9972549020228
21.8438073 ,Left ,62,4950907251805 ,48,3908482364879 ,32,006100088667
21.8662386 ,Left ,62,4994084151038 ,48,4507586417461 ,32,0261522356141
21.8807814 ,Left ,62,4934591851516 ,48,5016275293121 ,32,0429569292857
21.9038804 ,Left ,62,4945900567367 ,48,5074531965053 ,32,0672643519592
21.9263915 ,Left ,62,4880852480482 ,48,5049972744572 ,32,1100062827923
21.9406819 ,Left ,62,4627747330909 ,48,5219263355129 ,32,1496541752718
21.9638962 ,Left ,62,3926962908899 ,48,5479931950306 ,32,1722708070674
21.9864527 ,Left ,62,3155214610316 ,48,548564039049 ,32,1832552723794
22.0007477 ,Left ,62,2384056195093 ,48,5424080172828 ,32,2254580397061
22.0238455 ,Left ,62,202950106552 ,48,543578080701 ,32,2437164781377
22.0462218 ,Left ,62,2069227037998 ,48,5527704135288 ,32,2269629958293
22.0672899 ,Left ,62,1826541580734 ,48,5827831846343 ,32,1612848897626
22.0837262 ,Left ,62,1403869119414 ,48,5935141513434 ,32,0901091465634
22.1063686 ,Left ,62,1379085697935 ,48,5919614509598 ,32,0436145314076
22.1275879 ,Left ,62,2018463132605 ,48,5885024390219 ,32,0257163047154
22.1438208 ,Left ,62,2204343228824 ,48,6237171946043 ,32,0107121187259
22.1664754 ,Left ,62,1744100508551 ,48,6434763315789 ,31,9737027348199
22.1874581 ,Left ,62,1557418190297 ,48,6414499083841 ,31,9414904460642
22.203924 ,Left ,62,1530524799656 ,48,6441032841445 ,31,9115002762065
22.2263022 ,Left ,62,1081406500075 ,48,6797744884279 ,31,8684970129701
22.247922 ,Left ,62,0144897717865 ,48,7331738446205 ,31,8175081151391
22.2639189 ,Left ,61,9144960590934 ,48,7561335967172 ,31,7797607151586
22.2862925 ,Left ,61,8288281582144 ,48,7168434465803 ,31,7735803457868
22.3070774 ,Left ,61,7496562457654 ,48,641214143496 ,31,8022084400273
22.3236562 ,Left ,61,6479758360956 ,48,5859275412378 ,31,8039841169837
22.3462401 ,Left ,61,5681271777521 ,48,532157656549 ,31,7782032950992
22.3675443 ,Left ,61,5479321302916 ,48,4642438408108 ,31,7564642993278
22.3840138 ,Left ,61,6093097228991 ,48,3611954083352 ,31,7527595576977
22.4063021 ,Left ,61,679376822574 ,48,2227706594488 ,31,7654453442505
22.4275189 ,Left ,61,7792935320394 ,48,0723828974638 ,31,7702337192745
22.4431643 ,Left ,61,8888812228167 ,47,9385715667194 ,31,7800091569035
22.4663401 ,Left ,61,9650318820423 ,47,8118067315284 ,31,7726150582497
22.488998 ,Left ,62,057823657384 ,47,7140028414521 ,31,7763838792077
22.5032267 ,Left ,62,1227233163382 ,47,6760640442548 ,31,8122622312614
22.5260541 ,Left ,62,1646983955264 ,47,6844667607722 ,31,8316860073039
22.5488208 ,Left ,62,2204597233073 ,47,7357941592527 ,31,8730142882822
22.5631764 ,Left ,62,2821444314488 ,47,8037544412005 ,31,9001968163807
22.5863556 ,Left ,62,2775998911283 ,47,8743855159834 ,31,9230911660292
22.6088882 ,Left ,62,2593613152262 ,47,9303926468225 ,31,9731424433902
22.6232465 ,Left ,62,2368180750789 ,47,9621250344222 ,32,0333208983996
22.6462805 ,Left ,62,2347766379209 ,47,9832618794687 ,32,0896758654701
22.6684407 ,Left ,62,2287971779568 ,48,0167265319119 ,32,1257122136723
22.6830711 ,Left ,62,2075098996571 ,48,0365410547977 ,32,1531939870639
22.7062864 ,Left ,62,2462512591447 ,48,077896812199 ,32,178691351918
22.7289249 ,Left ,62,2543730152907 ,48,1037794998741 ,32,1777339104349
22.7431933 ,Left ,62,2492562186953 ,48,1160470017589 ,32,18468924637
22.7661303 ,Left ,62,2346725409498 ,48,1437704700077 ,32,2060676861656
22.7888174 ,Left ,62,2129035374923 ,48,1996157164156 ,32,2564528869886
22.8029538 ,Left ,62,2006445646467 ,48,2652979202138 ,32,2958642030053
22.8262689 ,Left ,62,1939298817537 ,48,2793394138423 ,32,3209879671867
22.8488424 ,Left ,62,2184554363607 ,48,2721101521674 ,32,3275909554611
22.8631703 ,Left ,62,1953990053043 ,48,2660886750696 ,32,3197485149856
22.8864273 ,Left ,62,1700941874256 ,48,2681895403851 ,32,3184570362944
22.9151285 ,Left ,62,1665626450786 ,48,2727131211762 ,32,3288171770176
22.9231317 ,Left ,62,1956363477951 ,48,2680386445851 ,32,3472648447746
22.946281 ,Left ,62,1877488552626 ,48,2567031189355 ,32,3568722185172
22.9688493 ,Left ,62,1758806200875 ,48,2354127107541 ,32,3683109159174
22.9904675 ,Left ,62,1821380218216 ,48,2218648768708 ,32,3678927384719
23.0067478 ,Left ,62,1916379885835 ,48,217870462988 ,32,3608935324142
23.0293099 ,Left ,62,1959282219293 ,48,2239525472707 ,32,3500036998909
23.0504501 ,Left ,62,1938284763853 ,48,2305901474385 ,32,3511459183864
23.0662438 ,Left ,62,1901567096567 ,48,2566905930028 ,32,348896398497
23.0885634 ,Left ,62,1853883437944 ,48,2969167920135 ,32,352999943861
23.1096271 ,Left ,62,1837511652367 ,48,3388748453706 ,32,359380830431
23.1261027 ,Left ,62,1868904514954 ,48,3870518032622 ,32,3693860158503
23.1485774 ,Left ,62,1749853995939 ,48,4504817515713 ,32,3732221232084
23.169845 ,Left ,62,1512866609481 ,48,524675572553 ,32,3777335596271
23.1858476 ,Left ,62,1264529880271 ,48,5889207715901 ,32,3828441270479
23.2085622 ,Left ,62,1172224597596 ,48,6284315721669 ,32,4047778976044
23.2299534 ,Left ,62,0962783034477 ,48,6313442399563 ,32,4290328495305
23.2461149 ,Left ,62,072071600643 ,48,6029332782923 ,32,4653135847857
23.2692823 ,Left ,62,0716411893224 ,48,5634224737886 ,32,5021673437795
23.2904605 ,Left ,62,0619026801511 ,48,5264158399989 ,32,5403915006885
23.3064905 ,Left ,62,0758527192384 ,48,4844210278419 ,32,5743794058363
23.3291219 ,Left ,62,1231028808081 ,48,4687871867885 ,32,6123539249504
23.3501699 ,Left ,62,2502392997163 ,48,4938866982551 ,32,5886946462247
23.3666179 ,Left ,62,3219188100392 ,48,4984261375593 ,32,5332958131851
23.388793 ,Left ,62,3685970206264 ,48,4851760046079 ,32,4772610731927
23.4100345 ,Left ,62,4162917710043 ,48,4996293763199 ,32,4255921444745
23.4262058 ,Left ,62,4385006786023 ,48,5226479177515 ,32,3679187163418
23.4489486 ,Left ,62,4327679517988 ,48,5188265578894 ,32,3214228740538
23.4713831 ,Left ,62,4353943440908 ,48,5031348232524 ,32,2967423994341
23.4863372 ,Left ,62,3817382353441 ,48,4911663823835 ,32,2806268824603
23.5091908 ,Left ,62,3326138727694 ,48,4584646738575 ,32,2689358256426
23.5316751 ,Left ,62,3192603529442 ,48,3947823561815 ,32,2771443542482
23.5465555 ,Left ,62,3409728721259 ,48,3182834004843 ,32,2691176025596
23.569255 ,Left ,62,3632598491092 ,48,2854767543174 ,32,2724744763971
23.5913437 ,Left ,62,4054913356367 ,48,2880198301817 ,32,2728920072
23.6056943 ,Left ,62,4292176180576 ,48,2920894713328 ,32,2747934113716
23.6289165 ,Left ,62,4861776708809 ,48,2966773140586 ,32,2788616021947
23.6514809 ,Left ,62,4788234338386 ,48,3182094687244 ,32,2662182153698
23.665643 ,Left ,62,4455776951018 ,48,3515956357337 ,32,2494023728215
23.6888855 ,Left ,62,4474133301891 ,48,4137670854698 ,32,2662743956481
23.7113078 ,Left ,62,4629474186216 ,48,4578674336096 ,32,3004743618965
23.7255956 ,Left ,62,4622388058914 ,48,4868730817455 ,32,3476242438563
23.7490003 ,Left ,62,4556343974174 ,48,5201762566714 ,32,3812769452195
23.7713165 ,Left ,62,4406517142939 ,48,5331496381943 ,32,4206838448085
23.7855949 ,Left ,62,3866633628486 ,48,5657219489748 ,32,4849195117098
23.8088284 ,Left ,62,3245812203689 ,48,619197543853 ,32,5333663329183
23.8312451 ,Left ,62,278564394978 ,48,6618855834689 ,32,5502815610343
23.8456797 ,Left ,62,2244673205143 ,48,6285668994071 ,32,5735371221338
23.8688436 ,Left ,62,1427513640741 ,48,5571293327065 ,32,6320474110526
23.8914802 ,Left ,62,0816385662397 ,48,4986448222582 ,32,658702199394
23.9056223 ,Left ,62,0444005771001 ,48,4836085127357 ,32,6266940351153
23.9289191 ,Left ,61,9738476557721 ,48,4949593038804 ,32,5692581328265
23.9514938 ,Left ,61,9170689038375 ,48,5116199643103 ,32,5536539894527
23.9726606 ,Left ,61,9239731936008 ,48,5213905358043 ,32,5847902679774
23.9888738 ,Left ,61,966752317276 ,48,5351826468298 ,32,6172047254231
24.0113812 ,Left ,62,0023313490305 ,48,534019552569 ,32,6308507665691
24.0327638 ,Left ,62,0193323078848 ,48,5143219665213 ,32,6224929910658
24.0489513 ,Left ,62,0581784733939 ,48,4871288270457 ,32,6048029672112
24.0713625 ,Left ,62,0832735062549 ,48,4976559744764 ,32,5705615254142
24.092501 ,Left ,62,0801545855275 ,48,5356233749794 ,32,524452609477
24.1089097 ,Left ,62,0658149286162 ,48,5855118207569 ,32,4743050715425
24.1313498 ,Left ,62,0377023641706 ,48,618717743979 ,32,4404110552091
24.1521486 ,Left ,61,994970146708 ,48,6396339992719 ,32,4078059424139
24.1688632 ,Left ,61,9062690439833 ,48,6639483184921 ,32,3579164367715
24.1914526 ,Left ,61,7718683654433 ,48,6625428194155 ,32,285627996904
24.2126997 ,Left ,61,6485087297117 ,48,607508088594 ,32,2516652565013
24.2284027 ,Left ,61,5575531672604 ,48,5474166335261 ,32,235767062269
24.2516202 ,Left ,61,4932462218975 ,48,4801268388051 ,32,2023985191692
24.2726732 ,Left ,61,5069705946416 ,48,3974830733189 ,32,1771768434129
24.2883053 ,Left ,61,5975045611537 ,48,2833596775317 ,32,158113606688
24.3116813 ,Left ,61,7461937169277 ,48,1478591840269 ,32,1459707454391
24.3325533 ,Left ,61,9029979194727 ,47,9986629367032 ,32,1452749345852
24.3482418 ,Left ,62,0120776227457 ,47,8649953913397 ,32,1492511942029
24.3714384 ,Left ,62,0839448074914 ,47,7732301209117 ,32,1551104716695
24.3940938 ,Left ,62,1903311740539 ,47,6938776069509 ,32,1499069272724
24.4083735 ,Left ,62,2367524015471 ,47,6336134126955 ,32,1644080710431
24.4314228 ,Left ,62,26195302435 ,47,6268638820457 ,32,1751797716914
24.4539438 ,Left ,62,2838108173383 ,47,6373587435232 ,32,1923182614838
24.4683855 ,Left ,62,3036532558821 ,47,6492011655521 ,32,2204021555094
24.491361 ,Left ,62,3104873990877 ,47,6789087681116 ,32,2533095673019
24.5141742 ,Left ,62,2976607519817 ,47,7148894574563 ,32,3049913574959
24.5283931 ,Left ,62,2842280646847 ,47,7398277696043 ,32,3737904852151
24.5515225 ,Left ,62,2825348691822 ,47,7525029907698 ,32,4381580236435
24.5735416 ,Left ,62,2907047129032 ,47,7501087248224 ,32,4708860607061
24.5885891 ,Left ,62,2976109492845 ,47,7720787203919 ,32,5051192878818
24.6113292 ,Left ,62,2707723565634 ,47,8008712431104 ,32,5407740890292
24.6334946 ,Left ,62,2692433136464 ,47,8442751210366 ,32,5748225567355
24.6480218 ,Left ,62,2838333948422 ,47,8941506877892 ,32,6068060652851
24.6713632 ,Left ,62,2935211966403 ,47,9429022476445 ,32,6179467325331
24.6941236 ,Left ,62,2951807542651 ,47,9986031749857 ,32,6176212840476
24.7082076 ,Left ,62,25586753713 ,48,0527115172441 ,32,6121003919094
24.7315196 ,Left ,62,2387702628692 ,48,1045117005017 ,32,6179416062016
24.754135 ,Left ,62,2171052052895 ,48,1439055008951 ,32,6245709083788
24.7683781 ,Left ,62,2294054182919 ,48,1727960555689 ,32,6286347246709
24.7914515 ,Left ,62,2275332760503 ,48,1872828022724 ,32,6209625862823
24.813934 ,Left ,62,2141020201704 ,48,1855555152241 ,32,628987752134
24.8283858 ,Left ,62,1979318323073 ,48,2013387719258 ,32,6504065821367
24.8515413 ,Left ,62,1961008790586 ,48,2332888175789 ,32,6550387972292
24.8741126 ,Left ,62,1809787941627 ,48,2432183827224 ,32,6444199738613
24.8954569 ,Left ,62,1342164740806 ,48,2467076756817 ,32,6644069523666
24.9114701 ,Left ,62,1248143806011 ,48,2641448824229 ,32,6843769315887
24.9341117 ,Left ,62,1336105625964 ,48,3011431326363 ,32,7000990229874
24.9552405 ,Left ,62,1162566141716 ,48,3361713154343 ,32,7103746159541
24.9713335 ,Left ,62,1272445071555 ,48,3602986999215 ,32,7295653999925
24.9942625 ,Left ,62,161784083816 ,48,3823675175347 ,32,7386778082572
25.0151115 ,Left ,62,1683661261787 ,48,3816134893553 ,32,750954947035
25.0314567 ,Left ,62,1843518895141 ,48,3705235132286 ,32,7609985857275
25.0541165 ,Left ,62,2158412133597 ,48,3637929960465 ,32,7584676113317
25.0751868 ,Left ,62,2331500004571 ,48,3675348044798 ,32,7575377318688
25.0915154 ,Left ,62,2472350583008 ,48,3799582142661 ,32,7660292530892
25.1141225 ,Left ,62,255057522518 ,48,4043756515458 ,32,779096375509
25.135048 ,Left ,62,2502280636361 ,48,440823541554 ,32,7937691196187
25.1516923 ,Left ,62,2461695247927 ,48,4722013150697 ,32,8083599936421
25.1739215 ,Left ,62,2283631007528 ,48,4958962350661 ,32,8284067281669
25.1952902 ,Left ,62,2038926001919 ,48,5294348578398 ,32,859409551933
25.2115314 ,Left ,62,1771851370358 ,48,5778576049096 ,32,8923924852272
25.2341318 ,Left ,62,1686777065506 ,48,6186695377698 ,32,9290574496554
25.2550517 ,Left ,62,1489664613794 ,48,6373340364695 ,32,9593008210162
25.2714797 ,Left ,62,1280297968752 ,48,6399724752217 ,32,9855369010649
25.2939948 ,Left ,62,1099193656398 ,48,643716735052 ,32,9993252790179
25.3164157 ,Left ,62,1011458735393 ,48,6461550276106 ,33,017149367388
25.3314578 ,Left ,62,1210162513751 ,48,6406069374456 ,33,035789799303
25.3540937 ,Left ,62,1544203708523 ,48,6233720234785 ,33,0481855069187
25.3765208 ,Left ,62,1807092017363 ,48,6174812804518 ,33,052906125931
25.3914559 ,Left ,62,2238797041554 ,48,6243901574092 ,33,0559301720331
25.4142329 ,Left ,62,2481104966354 ,48,6274288144528 ,33,0576331289594
25.4365285 ,Left ,62,2804979447786 ,48,5956974089488 ,33,0615945399209
25.451492 ,Left ,62,2980528324512 ,48,5159200185787 ,33,075353821619
25.4741334 ,Left ,62,2835717527136 ,48,4259105120346 ,33,1299409697721
25.479474 ,Left ,62,2012588434433 ,48,3811138215035 ,33,2012747740795
25.5017492 ,Left ,62,1354713530511 ,48,3721552866707 ,33,2495322979775
25.5181476 ,Left ,62,1504165906758 ,48,415292348575 ,33,2757339808396
25.5392184 ,Left ,62,2033657188951 ,48,4758991299318 ,33,2579021071122
25.5617097 ,Left ,62,2363293782726 ,48,5172612845532 ,33,2064379730411
25.5784099 ,Left ,62,2437186535994 ,48,5187574827505 ,33,1425093092432
25.5993777 ,Left ,62,242050399931 ,48,5094855581926 ,33,0740513033111
25.6221379 ,Left ,62,2504592143001 ,48,5100339010155 ,33,0260876470772
25.6383492 ,Left ,62,2208924469932 ,48,5226573260491 ,33,0013564244452
25.6596106 ,Left ,62,2144429406884 ,48,5265856619071 ,33,0072690637864
25.6818954 ,Left ,62,2356647565145 ,48,5319600931353 ,33,0059871875998
25.6983183 ,Left ,62,2440282561654 ,48,5351664514481 ,32,9952382868608
25.7196409 ,Left ,62,2171735006263 ,48,5250542814063 ,33,0009418011271
25.7420847 ,Left ,62,2337497447063 ,48,5250035487594 ,33,0276487834976
25.758247 ,Left ,62,3063806294389 ,48,5352200391024 ,33,0644881922078
25.7794507 ,Left ,62,3568691628048 ,48,536888750327 ,33,1039705150331
25.8020981 ,Left ,62,3657548562912 ,48,5383869208367 ,33,0949101762417
25.81846 ,Left ,62,346634187406 ,48,5230997536349 ,33,0671922991154
25.8395657 ,Left ,62,3475501854608 ,48,5171171781667 ,33,059588284739
25.8620885 ,Left ,62,366452791545 ,48,535933348737 ,33,0381658771741
25.8784099 ,Left ,62,3462236003287 ,48,55252131554 ,33,0147988773657
25.8993612 ,Left ,62,3020491857881 ,48,5413565491163 ,32,9984923286637
25.9218378 ,Left ,62,3082310352381 ,48,4842920215298 ,33,0131111517121
25.9383172 ,Left ,62,4015901872329 ,48,4809994083134 ,33,0478145114319
25.9590146 ,Left ,62,3983388967915 ,48,5369188781984 ,33,0512365087963
25.9815309 ,Left ,62,3552482612081 ,48,5654629871594 ,33,0661300174392
25.9982179 ,Left ,62,3667012221558 ,48,5873687457032 ,33,1157383027075
26.0191229 ,Left ,62,36248719249 ,48,6505716740653 ,33,1681804593108
26.0420568 ,Left ,62,2859379714403 ,48,7218360339332 ,33,1958393540703
26.0583073 ,Left ,62,1830358528932 ,48,7581018517009 ,33,2031962331423
26.0792802 ,Left ,62,103516091728 ,48,7634941163904 ,33,2100793299808
26.1018622 ,Left ,62,0372359594658 ,48,7454379830185 ,33,2466400345625
26.1181548 ,Left ,62,0354037259007 ,48,6609602370747 ,33,269590214355
26.1390451 ,Left ,62,0756797210976 ,48,6420196227082 ,33,2507438968251
26.1617569 ,Left ,61,975199540591 ,48,6572369095517 ,33,1812296916395
26.1842284 ,Left ,61,8847026544172 ,48,6738075819063 ,33,1068477808353
26.1990591 ,Left ,61,9077980534494 ,48,670970064708 ,33,0540094503794
26.2217895 ,Left ,61,9701347180332 ,48,6913874460633 ,33,0094337717747
26.2442949 ,Left ,61,9743940035494 ,48,7420780017292 ,32,9522561576937
26.2591599 ,Left ,61,9548628564787 ,48,7613491691623 ,32,8836128972484
26.2817554 ,Left ,61,9560675651683 ,48,7302347695071 ,32,824593764367
26.2993152 ,Left ,61,9442329682494 ,48,6887578150602 ,32,7840275894006
26.3196512 ,Left ,61,8883954152639 ,48,6741468293297 ,32,747447179786
26.3422649 ,Left ,61,7690556380948 ,48,6407296403569 ,32,6941522329415
26.3647927 ,Left ,61,7075966852554 ,48,5911170610667 ,32,6690293560418
26.3795543 ,Left ,61,6662325375626 ,48,5404558299726 ,32,6525281639216
26.4018826 ,Left ,61,6021570090865 ,48,4893352244719 ,32,6324758507549
26.4244122 ,Left ,61,6106660248057 ,48,3895739886855 ,32,616054249383
26.4396663 ,Left ,61,691234199504 ,48,2215602433857 ,32,6062238837141
26.4622165 ,Left ,61,7856633863263 ,48,0551542351893 ,32,5962265484712
26.4846267 ,Left ,61,8614064852157 ,47,9441499087613 ,32,5825383770275
26.4994229 ,Left ,61,9157634589576 ,47,8449143076884 ,32,5601373707051
26.5221411 ,Left ,61,9760982836675 ,47,7897715146126 ,32,5784952489254
26.5444929 ,Left ,62,0497127433622 ,47,790728770914 ,32,6118229726256
26.5593135 ,Left ,62,1227267819537 ,47,8505548198307 ,32,6612607031182
26.5821703 ,Left ,62,1896391080279 ,47,9388717155008 ,32,713155197087
26.6046217 ,Left ,62,222970651879 ,48,0294234471731 ,32,7689917402257
26.6189793 ,Left ,62,2142632169026 ,48,084529448277 ,32,8461088504102
26.6417315 ,Left ,62,1751565933446 ,48,1102185713493 ,32,9170146093925
26.65956 ,Left ,62,1586844525483 ,48,1505152839961 ,32,963299050976
26.6790773 ,Left ,62,1072326558025 ,48,172480691669 ,32,9372315714678
26.7018383 ,Left ,62,0608740148854 ,48,1890543472761 ,32,9047831084327
26.7195917 ,Left ,62,0330044617079 ,48,232458986121 ,32,8929410246726
26.7393817 ,Left ,62,0054991127157 ,48,2825151044775 ,32,9076091674166
26.7617877 ,Left ,61,9810371363888 ,48,3351976751712 ,32,9655812893031
26.7843314 ,Left ,61,9582575424187 ,48,3798684591628 ,33,0700387039066
26.7993556 ,Left ,61,9769445609364 ,48,4079589393573 ,33,1748077282848
26.8216678 ,Left ,61,9972248587287 ,48,3701479013196 ,33,234617305929
26.8443294 ,Left ,62,0322320802832 ,48,339587830031 ,33,2599092884341
26.8607332 ,Left ,61,9890851411588 ,48,3362230615089 ,33,2417879614949
26.8814387 ,Left ,61,9461673748052 ,48,3491405486418 ,33,2137329634424
26.9040798 ,Left ,61,9969818195943 ,48,3728616798695 ,33,1952298225354
26.9205804 ,Left ,62,0239614838827 ,48,3667299221842 ,33,1803157738299
26.9419199 ,Left ,61,9906673009298 ,48,3241299757942 ,33,1763861668074
26.96448 ,Left ,61,9639950700699 ,48,2892874158118 ,33,1835812590946
26.9807852 ,Left ,61,9678835935777 ,48,2786306738023 ,33,1923825738225
27.00208 ,Left ,61,9896068184611 ,48,2850816087209 ,33,2034449182408
27.0245559 ,Left ,61,9943154285103 ,48,3072848152559 ,33,2162275283935
27.0406527 ,Left ,62,0092156884346 ,48,336804547867 ,33,2197642845427
27.0618651 ,Left ,62,0144351310867 ,48,3683923714387 ,33,2195194121903
27.0845691 ,Left ,62,0010138664103 ,48,4014351425931 ,33,2228396507596
27.1023077 ,Left ,61,999914005915 ,48,4531008707612 ,33,2281514799621
27.1221068 ,Left ,62,0009039899883 ,48,5157680506432 ,33,2372919117128
27.1445136 ,Left ,61,9901461196622 ,48,5741534190058 ,33,2550941684756
27.1608047 ,Left ,61,9597122859349 ,48,6185357505941 ,33,2794034551253
27.1815428 ,Left ,61,9146056186188 ,48,6524738751088 ,33,3104141164529
27.2040988 ,Left ,61,8858124476984 ,48,6783800533619 ,33,3525460758617
27.2221716 ,Left ,61,8620983619047 ,48,6661833392072 ,33,3968787465826
27.2417665 ,Left ,61,8394519018033 ,48,5875736277011 ,33,4491209587952
27.2640225 ,Left ,61,8320287261285 ,48,4895291449605 ,33,5130338905233
27.2821179 ,Left ,61,8436827164469 ,48,4261328681801 ,33,5716757557572
27.3018448 ,Left ,61,8979642870678 ,48,4282204508583 ,33,5863396330616
27.3244248 ,Left ,62,0036398835228 ,48,435551382308 ,33,5752658546887
27.3423597 ,Left ,62,1174698674093 ,48,4526559939983 ,33,5491688786327
27.3618101 ,Left ,62,1973253608753 ,48,4606965913151 ,33,5019731405366
27.3841184 ,Left ,62,2389092716184 ,48,4770368933445 ,33,4378031469875
27.4023458 ,Left ,62,2677854445581 ,48,4869081023175 ,33,3645926298845
27.4217719 ,Left ,62,2734917005187 ,48,4808918412891 ,33,3052850635241
27.444483 ,Left ,62,240335113991 ,48,4494465069854 ,33,2675015406419
27.4623962 ,Left ,62,1956774200346 ,48,4067702792811 ,33,2690279726325
27.4818537 ,Left ,62,1494668351028 ,48,3889008059816 ,33,2838130616594
27.5041903 ,Left ,62,1487065429244 ,48,3913369079527 ,33,2898893463989
27.5221973 ,Left ,62,2134498268797 ,48,3687091002073 ,33,2860979825421
27.5417919 ,Left ,62,2692747797298 ,48,3280333693832 ,33,2504367203512
27.5641841 ,Left ,62,3105889652105 ,48,2696934798675 ,33,2108835894106
27.5821336 ,Left ,62,3507118790301 ,48,2405762132227 ,33,1986714538703
27.6031327 ,Left ,62,3770768142419 ,48,2629877796445 ,33,1526886338471
27.6241015 ,Left ,62,3685115418609 ,48,2995844167001 ,33,1230735797319
27.6420226 ,Left ,62,3913554915768 ,48,3165812913429 ,33,1502710736492
27.6614522 ,Left ,62,4493426399554 ,48,3359609924975 ,33,1925008472216
27.6839748 ,Left ,62,4925047185907 ,48,3872460848556 ,33,2120882758521
27.7019984 ,Left ,62,4248591620354 ,48,4141542717764 ,33,2241426080343
27.7215281 ,Left ,62,3646241815645 ,48,4421677973113 ,33,2845837961177
27.7440367 ,Left ,62,3321247288952 ,48,5380363446241 ,33,3181786312896
27.762004 ,Left ,62,289136971238 ,48,6455232025177 ,33,3137407300995
27.7815642 ,Left ,62,2258335334035 ,48,6778116387795 ,33,3088348240293
27.8042705 ,Left ,62,0940030538243 ,48,6257147704862 ,33,3513555505086
27.8221991 ,Left ,61,9965648742503 ,48,5443414874543 ,33,3843924589733
27.8431699 ,Left ,61,9554495233171 ,48,5485278404017 ,33,3685039123989
27.864206 ,Left ,61,9100509008709 ,48,5992478244783 ,33,2752130775865
27.8823285 ,Left ,61,8138222289929 ,48,6439276233879 ,33,1783631007969
27.9032584 ,Left ,61,7890187547153 ,48,6798192282191 ,33,1014880443216
27.924419 ,Left ,61,8143275422648 ,48,7266085378982 ,33,0275239876514
27.9424838 ,Left ,61,8367573033768 ,48,7326121321532 ,32,9662628823618
27.963402 ,Left ,61,7951392225214 ,48,6918957349341 ,32,9174963030968
27.9845292 ,Left ,61,7796988404399 ,48,6353006432697 ,32,8792252044388
28.0022053 ,Left ,61,7543845956383 ,48,5890831519822 ,32,8192148846316
28.0234912 ,Left ,61,7229549497599 ,48,5580637809186 ,32,7572740645237
28.0444492 ,Left ,61,6846104828263 ,48,5605554993923 ,32,7159031400192
28.0624277 ,Left ,61,6445204408079 ,48,5767832525203 ,32,6852223069538
28.0830346 ,Left ,61,6020496887977 ,48,6061219208905 ,32,6509546741576
28.10435 ,Left ,61,5421640334783 ,48,5910971804165 ,32,6129665208485
28.1224321 ,Left ,61,495501983906 ,48,5689626899744 ,32,6311929568641
28.1447204 ,Left ,61,4518827458119 ,48,5623535106084 ,32,6740583146937
28.1642807 ,Left ,61,4674622286117 ,48,5577196740402 ,32,7425745681977
28.1882402 ,Left ,61,5489192898217 ,48,4965962500338 ,32,8015950883285
28.2046539 ,Left ,61,6510902304957 ,48,3748959694192 ,32,8488100414502
28.2244372 ,Left ,61,7379427025415 ,48,2295797735805 ,32,8894820640842
28.2423502 ,Left ,61,7948550965727 ,48,0958203344094 ,32,9421906343068
28.2646316 ,Left ,61,8364182298456 ,47,9921514915202 ,32,9752831493669
28.284477 ,Left ,61,9025773124036 ,47,9253961009057 ,32,9779978403028
28.3019048 ,Left ,61,9856946387531 ,47,9185000991556 ,32,9865757406949
28.3244559 ,Left ,62,0522001439198 ,47,9230227293846 ,32,971273869342
28.3440576 ,Left ,62,1072080374069 ,47,9347739632243 ,32,9720194684892
28.3622106 ,Left ,62,1169904213289 ,47,957312116487 ,32,9979527794236
28.3846331 ,Left ,62,104528927817 ,48,0014111084088 ,33,0470355252621
28.4043512 ,Left ,62,0717799317478 ,48,0268759199493 ,33,1227286648444
28.4222687 ,Left ,62,055115170425 ,48,0395322774388 ,33,1951254056734
28.4445714 ,Left ,62,0513290084161 ,48,0503534609882 ,33,2271574533699
28.4640049 ,Left ,62,0958053659797 ,48,0960760412102 ,33,2268245021231
28.4822417 ,Left ,62,0914018850343 ,48,0993966018009 ,33,2103439727678
28.5046261 ,Left ,62,1270733928841 ,48,0985013496894 ,33,221214789173
28.5241274 ,Left ,62,1471154381213 ,48,1071376056108 ,33,2334053541866
28.5420963 ,Left ,62,1461846823005 ,48,1414911617948 ,33,2651744165229
28.5644514 ,Left ,62,16416209609 ,48,189831800522 ,33,33587181983
28.5857332 ,Left ,62,1721253579126 ,48,2040823939934 ,33,3874543699084
28.6022444 ,Left ,62,194711718085 ,48,14828181397 ,33,4237605633242
28.6246039 ,Left ,62,2415006153322 ,48,1319520600013 ,33,4272794983539
28.6444467 ,Left ,62,1999019968719 ,48,1592217433638 ,33,3912869862305
28.6624862 ,Left ,62,1911602460103 ,48,2039648453872 ,33,3628199636041
28.6846586 ,Left ,62,2291279449107 ,48,2264007718548 ,33,3592361164093
28.7044233 ,Left ,62,2255480954227 ,48,2165985511357 ,33,3752592584747
28.7224612 ,Left ,62,1902992989511 ,48,2127550620617 ,33,3979563255884
28.7448671 ,Left ,62,1600541805413 ,48,2087812742718 ,33,4286914751603
28.7657251 ,Left ,62,1459278315924 ,48,1975681432577 ,33,4683173818695
28.7824627 ,Left ,62,12993196447 ,48,2016266220494 ,33,5080589006261
28.804632 ,Left ,62,111095559481 ,48,2182094704939 ,33,532237518675
28.8257795 ,Left ,62,1084839431632 ,48,2384673104062 ,33,5417313129361
28.842426 ,Left ,62,1002951278832 ,48,2531046720852 ,33,5406008488356
28.8646914 ,Left ,62,1043430310709 ,48,2771537830899 ,33,5354765774288
28.8856983 ,Left ,62,1239376133342 ,48,3199959837374 ,33,5292583605237
28.9024789 ,Left ,62,1128866257352 ,48,3691291790643 ,33,5173717918807
28.9246135 ,Left ,62,0964853865766 ,48,4066229772913 ,33,5234909352631
28.945462 ,Left ,62,0849321182061 ,48,4544924431681 ,33,5421757028162
28.9621887 ,Left ,62,0574826213694 ,48,5086307639408 ,33,5627475369818
28.9845629 ,Left ,62,0094408959983 ,48,5439076880221 ,33,5856818578161
29.0056906 ,Left ,61,9636353308861 ,48,5715786707189 ,33,6261006008721
29.0221036 ,Left ,61,9211064409212 ,48,6078945947805 ,33,6809449587601
29.043956 ,Left ,61,8800927650619 ,48,6318887532898 ,33,7396613843883
29.0653073 ,Left ,61,8748311150864 ,48,5838282143417 ,33,8017183767657
29.0877026 ,Left ,61,8622842060237 ,48,4999431079187 ,33,8603368877033
29.1040572 ,Left ,61,8635467220569 ,48,4403209619484 ,33,9037217842091
29.1264284 ,Left ,61,8866560830315 ,48,4190726119514 ,33,9243530728981
29.1476282 ,Left ,61,9783720683505 ,48,4059343744252 ,33,9183159637047
29.1640683 ,Left ,62,1266450976995 ,48,3771121298461 ,33,8853599258469
29.1860871 ,Left ,62,2198471809508 ,48,3302552156639 ,33,8328165709371
29.2074606 ,Left ,62,3029858031287 ,48,3016700154711 ,33,7715167942523
29.2239516 ,Left ,62,3644335294055 ,48,2649809729138 ,33,7122773497584
29.2463443 ,Left ,62,4117575705848 ,48,2212218405176 ,33,6846915492265
29.2673605 ,Left ,62,4723706996018 ,48,2137328592279 ,33,6879953690276
29.284248 ,Left ,62,5261657347615 ,48,2438162226006 ,33,6977676062212
29.3067241 ,Left ,62,5245750327678 ,48,2802255129885 ,33,7048238088843
29.3211287 ,Left ,62,5107040386555 ,48,313528321638 ,33,7113671819322
29.3440411 ,Left ,62,4092798896421 ,48,3096191845184 ,33,7239028147871
29.3667021 ,Left ,62,3409309829915 ,48,2997395734728 ,33,7672967328964
29.3806555 ,Left ,62,2550339173914 ,48,2996088649341 ,33,8289700312745
29.4040578 ,Left ,62,1717009994837 ,48,2587800228903 ,33,8889582223897
29.4266539 ,Left ,62,1587021525148 ,48,240700770667 ,33,9133026730913
29.4408163 ,Left ,62,0866746646744 ,48,2632863607591 ,33,8786795614824
29.4640263 ,Left ,62,002610482741 ,48,3464667681432 ,33,8655787691779
29.4864992 ,Left ,61,9093072873117 ,48,4635815742518 ,33,9038996934469
29.5077243 ,Left ,61,8847210907594 ,48,5873061262892 ,33,956724366709
29.5242174 ,Left ,61,9124434811489 ,48,6761594549117 ,33,9577824711268
29.5465241 ,Left ,61,9384932966225 ,48,6894818268103 ,33,9282713492961
29.5678176 ,Left ,61,9586981749714 ,48,6624515466985 ,33,8999898767293
29.5841077 ,Left ,61,9611724398996 ,48,6265415032203 ,33,8773978959657
29.6064114 ,Left ,61,9432298976714 ,48,6254323284052 ,33,84848887948
29.6274778 ,Left ,61,9299643964976 ,48,6188925955301 ,33,8136421029683
29.6440135 ,Left ,61,9232051373453 ,48,5754285163177 ,33,8163490173542
29.6664031 ,Left ,61,9369876428297 ,48,5394532921394 ,33,8689161998283
29.6876592 ,Left ,61,9546968169516 ,48,525232679186 ,33,9316186087682
29.7039974 ,Left ,61,9842716835007 ,48,5215634591213 ,33,9980752206041
29.726363 ,Left ,62,0547632869294 ,48,5140307711878 ,34,0427138593758
29.7475185 ,Left ,62,0875221340061 ,48,5139478786826 ,34,0623332829809
29.7637163 ,Left ,62,1054810300442 ,48,535933348737 ,34,0550483161461
29.7864144 ,Left ,62,1130079470654 ,48,5384275276142 ,34,021027468458
29.8072432 ,Left ,62,1308735309488 ,48,4883712171312 ,33,9881775062774
29.8239678 ,Left ,62,1588842920104 ,48,4444346100172 ,33,9762087634128
29.8461709 ,Left ,62,1355344103422 ,48,4560428172007 ,33,9590867035643
29.8674973 ,Left ,62,0611811352829 ,48,4808808820757 ,33,9277516766549
29.8839734 ,Left ,62,026848271325 ,48,5042604908832 ,33,9181608577776
29.9061423 ,Left ,62,0501324470754 ,48,5266662855733 ,33,9165863994053
29.9274372 ,Left ,62,0755400831202 ,48,5716004584899 ,33,9122665463108
29.9444028 ,Left ,62,0996291127588 ,48,6027094867291 ,33,8977547925046
29.9666108 ,Left ,62,1120987847825 ,48,6109780443052 ,33,8598460002148
29.9879944 ,Left ,62,1480566362747 ,48,6025402144159 ,33,8136401492041
30.0044442 ,Left ,62,1714015496099 ,48,5754208967158 ,33,7840594110064
30.0268094 ,Left ,62,1874765365922 ,48,5621255008018 ,33,7789339537338
30.0491872 ,Left ,62,159239348366 ,48,571400439508 ,33,7760148121329
30.0639951 ,Left ,62,1177023208648 ,48,5797997327637 ,33,7978433395273
30.0863555 ,Left ,62,1460055310108 ,48,4904466907588 ,33,8380841536615
30.1089713 ,Left ,62,2375555686268 ,48,40033367413 ,33,8912102210983
30.1232237 ,Left ,62,2700584661171 ,48,4290885312202 ,33,8947736063927
30.1464048 ,Left ,62,222886819773 ,48,5155443859897 ,33,8612621756271
30.1688901 ,Left ,62,2032608453622 ,48,566638492149 ,33,8526391613186
30.1830726 ,Left ,62,2585806270069 ,48,5935409362893 ,33,8730558584957
30.2063238 ,Left ,62,2463474644854 ,48,6097866419883 ,33,9022560085183
30.2289183 ,Left ,62,2227581164263 ,48,6277879035105 ,33,9350899798813
30.2429982 ,Left ,62,2123314295561 ,48,6338049513856 ,33,9617589510055
30.2663322 ,Left ,62,1879275815177 ,48,6399323675201 ,33,9873686115
30.2890042 ,Left ,62,1809092110116 ,48,667290010983 ,34,0007529480851
30.3032679 ,Left ,62,1498254294708 ,48,6823947233189 ,34,0057055200147
30.3263984 ,Left ,62,1010659575838 ,48,6625891102551 ,34,0265875696293
30.3489406 ,Left ,62,0629036874293 ,48,6208048821211 ,34,0450367659874
30.3631419 ,Left ,62,0371596377069 ,48,5756279354695 ,34,0139910234458
30.3864346 ,Left ,62,0350945205212 ,48,5849476441351 ,33,9474235721366
30.4092459 ,Left ,62,0085705861408 ,48,6349435921159 ,33,859068273896
30.4231574 ,Left ,61,9899554578763 ,48,6803265957581 ,33,7950266444709
30.4462981 ,Left ,62,0145151408783 ,48,7057142090194 ,33,7635905800921
30.4688454 ,Left ,62,0313289081164 ,48,7102457136282 ,33,7255052416871
30.4830768 ,Left ,61,9857526364623 ,48,7168305982405 ,33,6853599601179
30.5063305 ,Left ,61,9393701157441 ,48,7347293112161 ,33,6596334417041
30.5292379 ,Left ,61,9004064311926 ,48,7465698988091 ,33,636685581305
30.5501212 ,Left ,61,8597416212905 ,48,7402608977857 ,33,5968488648764
30.5665419 ,Left ,61,7725561215514 ,48,7320837260543 ,33,5660672888377
30.5890377 ,Left ,61,6720103354947 ,48,6887348512906 ,33,5648921302159
30.610245 ,Left ,61,6041398237448 ,48,5883136295232 ,33,5657010542206
30.626561 ,Left ,61,5761667643566 ,48,4912667959143 ,33,5433109145821
30.6490188 ,Left ,61,5653104612779 ,48,411983799717 ,33,4715665649737
30.6703146 ,Left ,61,5834745574916 ,48,2951458624627 ,33,4025165511989
30.6856968 ,Left ,61,6527418752955 ,48,1666123087094 ,33,3738376001201
30.7090464 ,Left ,61,7487000441763 ,48,090221533385 ,33,3703535703977
30.730065 ,Left ,61,8438229441474 ,48,0501098512668 ,33,3531398500572
30.746433 ,Left ,61,9313161822979 ,48,0399241876851 ,33,3596667208421
30.7692478 ,Left ,61,9625741585093 ,48,0015458082777 ,33,3797843685413
30.7904122 ,Left ,61,9863825963787 ,48,0033688439068 ,33,409355355284
30.806746 ,Left ,62,0200954181295 ,48,0698082640584 ,33,4542689266343
30.829157 ,Left ,62,0453553099252 ,48,1509050749657 ,33,4911366312513
30.8500227 ,Left ,62,0428350277564 ,48,206723333203 ,33,5535631333296
30.8665149 ,Left ,62,0055539139596 ,48,2206844035553 ,33,6244339127299
30.8888619 ,Left ,62,0162865407728 ,48,2191513128525 ,33,6660281021417
30.909975 ,Left ,61,9740450780612 ,48,1789957583621 ,33,6797385397014
30.926401 ,Left ,61,9711607085649 ,48,12643919458 ,33,7057320923487
30.9489202 ,Left ,62,0037670808032 ,48,1102259754216 ,33,7585129387289
30.9703234 ,Left ,62,0060464206623 ,48,1178450261059 ,33,7942634769066
30.9868699 ,Left ,61,994639049938 ,48,1405147642167 ,33,8400467440608
31.0092442 ,Left ,61,991219207135 ,48,1784376293849 ,33,9114672563353
31.0318394 ,Left ,62,0733327137875 ,48,2619474528752 ,33,9740111863285
31.0466728 ,Left ,62,0552866948983 ,48,2708820200517 ,33,9872795999398
31.0689207 ,Left ,62,0975210335645 ,48,2105642419815 ,34,0093645849682
31.0914757 ,Left ,62,1006415396707 ,48,1709602026138 ,34,0106167856483
31.106453 ,Left ,62,0465920293137 ,48,2035086126564 ,33,9942520021358
31.1288822 ,Left ,62,0287446415049 ,48,2598441114851 ,33,9947031225179
31.151246 ,Left ,62,0475180297485 ,48,2914998204133 ,34,00770452509
31.1657594 ,Left ,62,0348390902145 ,48,2682110117116 ,34,0248018844281
31.1889386 ,Left ,62,0180303519222 ,48,2212237497039 ,34,0542206897868
31.211322 ,Left ,62,0132114842538 ,48,1755975344465 ,34,0882795432478
31.2256745 ,Left ,61,9942350312309 ,48,1696937124338 ,34,1097580716607
31.2487499 ,Left ,61,9827306955553 ,48,1880065568594 ,34,1229925271432
31.2714991 ,Left ,62,0270187353248 ,48,2252233192672 ,34,1172843146434
31.2857665 ,Left ,62,0653562648824 ,48,2498294396648 ,34,0725238723333
31.3089381 ,Left ,62,0633847098896 ,48,2447843814847 ,34,0378924301129
31.3313116 ,Left ,62,0632943311918 ,48,260662213751 ,34,0139022118424
31.3457526 ,Left ,62,0770873038871 ,48,2988286661336 ,34,0052542478459
31.3688429 ,Left ,62,1097756474055 ,48,3630507985353 ,33,9951848243444
31.3914201 ,Left ,62,1059989746418 ,48,4166343153896 ,34,0023607353827
31.4060333 ,Left ,62,0799573992728 ,48,4657339606006 ,34,0322262019897
31.4293444 ,Left ,62,0496943078259 ,48,5146334080131 ,34,0701080941733
31.4516748 ,Left ,61,997462182846 ,48,5499373196704 ,34,1222134231603
31.4660868 ,Left ,61,9586466956067 ,48,571549025059 ,34,1623202712554
31.4894032 ,Left ,61,9268270466404 ,48,5806288183395 ,34,2025113520234
31.5192523 ,Left ,61,8910698912274 ,48,5587724722633 ,34,2425769466923
31.5324306 ,Left ,61,8842899973139 ,48,5125437020838 ,34,286309581165
31.5488394 ,Left ,61,8844231045509 ,48,4869758802063 ,34,3226289189998
31.571385 ,Left ,61,9073406804066 ,48,4591462613542 ,34,3476279887526
31.5925284 ,Left ,61,9927188354553 ,48,4361941023642 ,34,3748483945184
31.6090555 ,Left ,62,1004500084317 ,48,4150411381863 ,34,3755827125278
31.6312979 ,Left ,62,2080774822331 ,48,4124799136322 ,34,3651295661503
31.652614 ,Left ,62,3140764061181 ,48,4154165235828 ,34,3501335699182
31.668994 ,Left ,62,411265889872 ,48,427089615732 ,34,3244598883381
31.6915 ,Left ,62,4647399039992 ,48,4292527331278 ,34,2876193042842
31.7125185 ,Left ,62,4897481538957 ,48,4144430222933 ,34,2602636519126
31.7289716 ,Left ,62,5028510022408 ,48,4101594981907 ,34,2382161023104
31.7514196 ,Left ,62,4594011277884 ,48,4082544941187 ,34,2278264863422
31.7723348 ,Left ,62,4112304850115 ,48,394899872905 ,34,2232963554753
31.788625 ,Left ,62,3783259929615 ,48,3770203467206 ,34,2243985917579
31.8112534 ,Left ,62,3946963949736 ,48,3248610351154 ,34,2186287268635
31.8326451 ,Left ,62,435886417903 ,48,3247751826307 ,34,223886550739
31.8489502 ,Left ,62,434790800578 ,48,3500568743002 ,34,2021604761846
31.8711855 ,Left ,62,4517431404826 ,48,3667426773125 ,34,192866030086
31.8932002 ,Left ,62,5165360694819 ,48,3716062383675 ,34,205759989169
31.9093649 ,Left ,62,5330857207363 ,48,3992257621513 ,34,2015469078454
31.931817 ,Left ,62,5246566222294 ,48,4183150649292 ,34,1672373534542
31.9542837 ,Left ,62,5273337245906 ,48,4121362211398 ,34,1614051188288
31.9684354 ,Left ,62,5756813920812 ,48,3893820937689 ,34,1784697183726
31.9916197 ,Left ,62,6269419973489 ,48,403955667314 ,34,204062117874
32.013944 ,Left ,62,6398864965231 ,48,4446064218099 ,34,2042072454419
32.0289927 ,Left ,62,5989522089673 ,48,4726040867767 ,34,2015799039652
32.0513615 ,Left ,62,5781346268808 ,48,5079543812598 ,34,2322455416897
32.0736483 ,Left ,62,5596035459832 ,48,5683020213138 ,34,2564497360985
32.088255 ,Left ,62,5087762841764 ,48,6065656861654 ,34,270075301537
32.1114206 ,Left ,62,4381619021107 ,48,6127085336436 ,34,3007698558077
32.1340561 ,Left ,62,3723197172344 ,48,629682125386 ,34,3725090021358
32.1483223 ,Left ,62,2970969682201 ,48,617382486798 ,34,4339202356857
32.1713928 ,Left ,62,2668305990726 ,48,5685705038305 ,34,4444483880163
32.194262 ,Left ,62,2578570101374 ,48,5297703274528 ,34,4065747813743
32.2086026 ,Left ,62,1871492496424 ,48,5423726509034 ,34,3433724117931
32.2313996 ,Left ,62,1439379006046 ,48,5861343296734 ,34,2809896655933
32.2539014 ,Left ,62,1743348378187 ,48,6261628919875 ,34,2239291465919
32.2682489 ,Left ,62,202072036948 ,48,6322615208363 ,34,1767784889162
32.2914253 ,Left ,62,2331392086882 ,48,63262726553 ,34,1381956987108
32.3138866 ,Left ,62,2165536267993 ,48,6503782873045 ,34,1003343114757
32.3284823 ,Left ,62,1782529362861 ,48,6601795915265 ,34,0718345320091
32.3514651 ,Left ,62,1488498859836 ,48,6775999553787 ,34,0561496442463
32.3742281 ,Left ,62,1286998714863 ,48,7056366387016 ,34,0279709249776
32.3883218 ,Left ,62,0607917992469 ,48,7471320479846 ,33,9895110215075
32.4114206 ,Left ,61,9786428786681 ,48,8008326560521 ,33,9521094851543
32.4339286 ,Left ,61,8941138263605 ,48,8424953400076 ,33,9314272357167
32.455007 ,Left ,61,8299535435039 ,48,8057041559863 ,33,9112555329629
32.4714516 ,Left ,61,7931954761074 ,48,7359998695816 ,33,89435061441
32.49384 ,Left ,61,7393840511499 ,48,692935390918 ,33,8668600648895
32.5149605 ,Left ,61,6501177937125 ,48,67147222004 ,33,8194006356365
32.5314105 ,Left ,61,6335025324368 ,48,6180053620379 ,33,809156166905
32.5536669 ,Left ,61,6870460243701 ,48,4795470689271 ,33,8338179081884
32.5749547 ,Left ,61,7526339988629 ,48,2830759272899 ,33,8398216321236
32.5914793 ,Left ,61,8365805162782 ,48,0979807487301 ,33,8159418443
32.6138284 ,Left ,61,915244411606 ,47,9088327161887 ,33,7711739995003
32.6348738 ,Left ,61,9911847185863 ,47,7481945927014 ,33,7638669181929
32.6515654 ,Left ,62,0441799770067 ,47,6180802148697 ,33,7917716686993
32.6739502 ,Left ,62,1151741294391 ,47,5370357228748 ,33,8302037629671
32.6950966 ,Left ,62,1585678475995 ,47,5210096091128 ,33,8505165539166
32.7113792 ,Left ,62,2123844222065 ,47,5636153456384 ,33,8650179858905
32.7340696 ,Left ,62,2646907813662 ,47,6297173467853 ,33,8952121176802
32.7550599 ,Left ,62,3053017823406 ,47,7365051097208 ,33,934945692481
32.7714493 ,Left ,62,3236490827758 ,47,8532400499586 ,33,9761934287375
32.7940431 ,Left ,62,2954734062353 ,47,9363905032838 ,34,0252797676982
32.8152657 ,Left ,62,2896780476827 ,47,9922676742362 ,34,0677242304411
32.8311443 ,Left ,62,2728559407469 ,48,0336158407207 ,34,0951011929427
32.853882 ,Left ,62,2118439321881 ,48,0817086360489 ,34,1068746682795
32.876268 ,Left ,62,1776226999394 ,48,133195020619 ,34,1173467386961
32.8912792 ,Left ,62,1542249032882 ,48,1635672448636 ,34,1320122254361
32.91413 ,Left ,62,1163589547071 ,48,1787282721078 ,34,1534380379237
32.9367427 ,Left ,62,1000437757431 ,48,2085986921402 ,34,2130125467798
32.9515326 ,Left ,62,0809981030714 ,48,2412576986063 ,34,2602148251011
32.9739506 ,Left ,62,0849326190193 ,48,209458974114 ,34,3114560754686
32.9963885 ,Left ,62,1550094324837 ,48,1562730937333 ,34,3522965344767
33.0115493 ,Left ,62,1391027056745 ,48,1008133951903 ,34,3680556556279
33.0340311 ,Left ,62,1381138192852 ,48,1040507167241 ,34,3650505716744
33.0563204 ,Left ,62,1276797163718 ,48,1245764469994 ,34,3531168708103
33.0705216 ,Left ,62,1198837115998 ,48,1384692971425 ,34,3447738140645
33.0936867 ,Left ,62,1413166095663 ,48,1392845266881 ,34,3509434181619
33.116121 ,Left ,62,13691789307 ,48,1056697659128 ,34,3661068804917
33.1305142 ,Left ,62,1505162214903 ,48,0482835403172 ,34,3894508893134
33.1537324 ,Left ,62,1630452968902 ,48,0078968574596 ,34,4250487232448
33.1763733 ,Left ,62,1934217400977 ,48,0105438404866 ,34,4459823577552
33.1907462 ,Left ,62,1812962908613 ,48,0218219410295 ,34,4589517048603
33.2139735 ,Left ,62,171352200488 ,48,0616434743646 ,34,4669918997858
33.2365101 ,Left ,62,1692486697506 ,48,1246059407038 ,34,4686929935235
33.250884 ,Left ,62,179039540967 ,48,204053633379 ,34,4624999193337
33.2739738 ,Left ,62,1495995764405 ,48,2767243822532 ,34,4590611747929
33.2964882 ,Left ,62,1137429862726 ,48,3477154999205 ,34,4750218116518
33.3107432 ,Left ,62,0798942278965 ,48,4139321373038 ,34,5024740008141
33.3339096 ,Left ,62,0458664204662 ,48,4747188306175 ,34,5342327318201
33.3563556 ,Left ,61,98381168487 ,48,5125008262798 ,34,5870616921108
33.377337 ,Left ,61,9312548348534 ,48,5247126098394 ,34,6589083170675
33.3940232 ,Left ,61,9093379418322 ,48,5229673232097 ,34,7315266059922
33.4163567 ,Left ,61,8895262287946 ,48,5168002627838 ,34,7967410325792
33.4373707 ,Left ,61,8678135256291 ,48,5123301566528 ,34,8375806603083
33.453925 ,Left ,61,8862812880884 ,48,5109471665759 ,34,8790104950418
33.4763852 ,Left ,61,9447669584634 ,48,5014842433788 ,34,907300966848
33.497345 ,Left ,62,0417233158648 ,48,5105829566695 ,34,9103119797594
33.5138823 ,Left ,62,1442540742508 ,48,5135648576164 ,34,8672161136472
33.5365429 ,Left ,62,229874482018 ,48,4912077151253 ,34,8152608501677
33.5577132 ,Left ,62,2882319892575 ,48,4857644505208 ,34,7629546927876
33.5740719 ,Left ,62,3237752859396 ,48,4793589738473 ,34,7018401252689
33.5963972 ,Left ,62,3433284621185 ,48,4699892100679 ,34,6457839972973
33.6174797 ,Left ,62,3455408507842 ,48,4575351559757 ,34,599905395876
33.6339431 ,Left ,62,2740516623616 ,48,4563803400069 ,34,5969907689645
33.6564336 ,Left ,62,2541912547216 ,48,4469555306974 ,34,612052978919
33.6775066 ,Left ,62,2834634129833 ,48,4060238762823 ,34,6385434607465
33.6939412 ,Left ,62,3044868947483 ,48,3621550546034 ,34,6752832288473
