timestamp,event,roll,pitch,yaw
0.0596327 ,Left ,64,9529662161261 ,43,5158771864219 ,39,8962609874686
0.0747027 ,Left ,64,9538694644562 ,43,513289175873 ,39,8967895805643
0.0974334 ,Left ,64,95438589055 ,43,5099288048174 ,39,8992456821225
0.1197435 ,Left ,64,9714461124658 ,43,5102376524451 ,39,895623276795
0.1346903 ,Left ,64,9714461124658 ,43,5102376524451 ,39,895623276795
0.157286 ,Left ,64,9714461124658 ,43,5102376524451 ,39,895623276795
0.179805 ,Left ,64,9714461124658 ,43,5102376524451 ,39,895623276795
0.1948955 ,Left ,64,9775620001963 ,43,5112967050147 ,39,8962812679733
0.2180699 ,Left ,64,982264419974 ,43,5093738801153 ,39,89799251556
0.2404547 ,Left ,64,9851570635846 ,43,5126289057476 ,39,8986525396587
0.2551389 ,Left ,64,9851570635846 ,43,5126289057476 ,39,8986525396587
0.2772802 ,Left ,64,9753059683632 ,43,5141589268029 ,39,9054191008736
0.2999594 ,Left ,64,962623101136 ,43,5186622139751 ,39,9102550389479
0.3147108 ,Left ,64,9498183920493 ,43,5183710002091 ,39,9147430383763
0.3373389 ,Left ,64,9498183920493 ,43,5183710002091 ,39,9147430383763
0.3597134 ,Left ,64,9498183920493 ,43,5183710002091 ,39,9147430383763
0.3746566 ,Left ,64,9498183920493 ,43,5183710002091 ,39,9147430383763
0.3971411 ,Left ,64,9498183920493 ,43,5183710002091 ,39,9147430383763
0.4197468 ,Left ,64,953227819503 ,43,5271930475939 ,39,9138144977074
0.4348121 ,Left ,64,9626224175866 ,43,5412041029255 ,39,909166215195
0.4647263 ,Left ,64,9766365734557 ,43,5500387723277 ,39,8976409131481
0.4871899 ,Left ,64,9969675172848 ,43,5496976118025 ,39,885777022457
0.5024156 ,Left ,65,0077169300656 ,43,5455867936568 ,39,8795464755725
0.5246832 ,Left ,65,0183345553686 ,43,5456173777516 ,39,8689355079661
0.539996 ,Left ,65,0303179990894 ,43,5411319571243 ,39,8596820354744
0.5549096 ,Left ,65,0590516230887 ,43,5437033067824 ,39,8463163482091
0.5775941 ,Left ,65,0502748593576 ,43,511015895651 ,39,8334689555543
0.599746 ,Left ,65,0280449403133 ,43,4934123389073 ,39,8339645588126
0.6221 ,Left ,64,9959002918677 ,43,5031217448646 ,39,8488630572616
0.6372521 ,Left ,64,9224564838079 ,43,4782886027459 ,39,8615388744738
0.6596805 ,Left ,64,8956581686677 ,43,4429499394501 ,39,8515517452125
0.6746323 ,Left ,64,873347413 ,43,4010759651958 ,39,8184820853255
0.6972503 ,Left ,64,8860214155241 ,43,3509623512654 ,39,7429156636795
0.727233 ,Left ,64,903076288691 ,43,3250566859264 ,39,6407506605369
0.7497493 ,Left ,64,8965365336476 ,43,2837076547372 ,39,5293179236861
0.7572017 ,Left ,64,9207121710069 ,43,2263873050741 ,39,4586228405579
0.7730744 ,Left ,64,917726893209 ,43,1777462361321 ,39,4327012684767
0.8101334 ,Left ,64,8579573458063 ,43,1409257071139 ,39,3573919978771
0.8326556 ,Left ,64,874065219366 ,43,12209490437 ,39,3249554898307
0.8699526 ,Left ,64,8315515808335 ,42,9816597090072 ,39,2194359896788
0.8924581 ,Left ,64,7734322504192 ,42,972922473847 ,39,1506144221494
0.9300602 ,Left ,64,7168137988298 ,42,8874022597308 ,39,1205231811357
0.9526089 ,Left ,64,6833133393875 ,42,9495831634315 ,39,1112638587335
0.9976457 ,Left ,64,629634904494 ,43,0255079310089 ,39,1149202656184
1.0197382 ,Left ,64,6183719173996 ,43,0431688673623 ,39,1177264751104
1.0497556 ,Left ,64,544256893259 ,43,1455736377335 ,39,1206586105313
1.0723735 ,Left ,64,4688440006391 ,43,2346713570837 ,39,1977588182985
1.1096716 ,Left ,64,2927399171448 ,43,5222778515142 ,39,3905722023115
1.1321328 ,Left ,64,1559908144136 ,43,7148128546799 ,39,5056824703384
1.155468 ,Left ,64,0071963788642 ,43,8884123838476 ,39,5945209730224
1.1703816 ,Left ,63,905891403804 ,43,9997273777383 ,39,65771193488
1.1929711 ,Left ,63,8597849814338 ,44,081158442532 ,39,7016964267402
1.2149729 ,Left ,63,7919441485231 ,44,0566908678338 ,39,7608517776301
1.2298174 ,Left ,63,7258582032071 ,44,0039701669662 ,39,8028421621626
1.2523444 ,Left ,63,6872602175342 ,43,9450886820398 ,39,7836389564364
1.2746152 ,Left ,63,6956304344547 ,43,8760529569061 ,39,7434967462619
1.2896065 ,Left ,63,7704283833258 ,43,7283415741339 ,39,709499446904
1.312382 ,Left ,63,8010101755885 ,43,5180526641279 ,39,6487697561636
1.3347349 ,Left ,63,869967606179 ,43,2993216387322 ,39,5512662187667
1.3498525 ,Left ,63,9068127345415 ,43,1645494946777 ,39,435905777018
1.372394 ,Left ,64,0042305364725 ,43,1060488340022 ,39,337843564895
1.3950812 ,Left ,64,1244286846745 ,43,1445721961567 ,39,2776640894021
1.4101531 ,Left ,64,2896186584535 ,43,2188054164726 ,39,2064206654255
1.4402418 ,Left ,64,424220200952 ,43,3459240225458 ,39,1370325810641
1.4624599 ,Left ,64,4842900394109 ,43,477359694559 ,39,1295186401563
1.4777368 ,Left ,64,4872772636025 ,43,5766307495597 ,39,1936721140749
1.492451 ,Left ,64,4877749660437 ,43,6837472493506 ,39,2379632906272
1.5146911 ,Left ,64,4709897555247 ,43,735561689454 ,39,2472188326145
1.5297119 ,Left ,64,4521904695181 ,43,7663793498996 ,39,243431563607
1.5522348 ,Left ,64,4419858227952 ,43,8009781163574 ,39,2362988152342
1.5747211 ,Left ,64,4499415452351 ,43,8203099418941 ,39,2348962886496
1.5897145 ,Left ,64,456486719197 ,43,8142924838723 ,39,2427873271764
1.6125868 ,Left ,64,4884252474429 ,43,7847263157864 ,39,2336489978415
1.6502846 ,Left ,64,5593289596923 ,43,7065838701902 ,39,2064272365206
1.6727617 ,Left ,64,6075212851716 ,43,6436019756113 ,39,2180368511707
1.7101014 ,Left ,64,7047103166787 ,43,3707114291119 ,39,2544109526429
1.7321179 ,Left ,64,6778480984555 ,43,1917324368994 ,39,2224576575633
1.7547924 ,Left ,64,6565433338053 ,43,1059111332954 ,39,2057114014207
1.777215 ,Left ,64,6452033745972 ,43,0477019239417 ,39,2142030279315
1.8071782 ,Left ,64,6883452938744 ,42,9550926589195 ,39,2212020182277
1.8372078 ,Left ,64,7043985839307 ,42,7232990249106 ,39,2948189661422
1.8746874 ,Left ,64,6436842385027 ,42,7065955445755 ,39,3707238108108
1.8899306 ,Left ,64,6757183850258 ,42,7619649138037 ,39,3999419835475
1.9124804 ,Left ,64,7010839701737 ,42,7610126807284 ,39,4759317606543
1.9423702 ,Left ,64,719711629494 ,42,739122242596 ,39,54053195571
1.9574299 ,Left ,64,7042020856867 ,42,7051159495995 ,39,5840360334193
1.9947754 ,Left ,64,6519071845681 ,42,6292125003657 ,39,612063191245
2.0097527 ,Left ,64,6394781204031 ,42,5922405333674 ,39,650777847071
2.0321809 ,Left ,64,6312551479036 ,42,5276881998834 ,39,7269169389708
2.054735 ,Left ,64,6529240868597 ,42,5166770967494 ,39,7822624653883
2.0695957 ,Left ,64,6308411625105 ,42,55849639989 ,39,8274331142234
2.0998102 ,Left ,64,6415589885721 ,42,6152415852987 ,39,8592063579937
2.1224411 ,Left ,64,6420358423723 ,42,6741542157103 ,39,8803211849331
2.1530326 ,Left ,64,62286665983 ,42,8254505323757 ,39,9031839329477
2.1747247 ,Left ,64,6011871996418 ,42,8987333448189 ,39,9019678173332
2.2121613 ,Left ,64,5537976148167 ,43,035327254727 ,39,9040679442623
2.2346614 ,Left ,64,5544133808893 ,43,115753778908 ,39,8960154305292
2.2729703 ,Left ,64,519867710944 ,43,2280783549429 ,39,9042830735946
2.295514 ,Left ,64,4981268147779 ,43,2473921353051 ,39,9045836265101
2.3328491 ,Left ,64,5013720126094 ,43,2637446161856 ,39,8581661470162
2.355107 ,Left ,64,5091165329581 ,43,274740704146 ,39,8365784489941
2.3922475 ,Left ,64,4907307364634 ,43,3061619493733 ,39,8198615335148
2.4147194 ,Left ,64,5048306597563 ,43,3320722309801 ,39,8129520317383
2.4523449 ,Left ,64,5117611843901 ,43,3620844677975 ,39,8086897462764
2.4746748 ,Left ,64,5179907950304 ,43,3639594556988 ,39,8141307907253
2.512364 ,Left ,64,5302469222728 ,43,3497717285601 ,39,8404682985259
2.534748 ,Left ,64,50543629716 ,43,3471992412992 ,39,8435927699497
2.5723594 ,Left ,64,4770196137601 ,43,3467044960667 ,39,8355272862619
2.5954095 ,Left ,64,4698343531921 ,43,3843125488434 ,39,8178564066205
2.6404059 ,Left ,64,4627690910122 ,43,4655779044402 ,39,7989656450288
2.6622525 ,Left ,64,4413475874396 ,43,4827087712811 ,39,8136687522849
2.6921633 ,Left ,64,4405321329935 ,43,447804351707 ,39,837943822711
2.7154663 ,Left ,64,3969149375791 ,43,3720058653272 ,39,8285113379155
2.7528009 ,Left ,64,3452385275362 ,43,2658954174025 ,39,8396696789409
2.7755811 ,Left ,64,325122163437 ,43,2205452720147 ,39,7868036060182
2.8125638 ,Left ,64,4452311276534 ,43,1525591730396 ,39,6181496516486
2.8351144 ,Left ,64,4952870845373 ,43,0777228701655 ,39,5159161410412
2.8729051 ,Left ,64,540083724335 ,43,0167846384294 ,39,3955750504902
2.8952827 ,Left ,64,5843879794878 ,42,9793879179367 ,39,3877301918774
2.9401599 ,Left ,64,6561826587981 ,42,7927884320856 ,39,3273712224282
2.9627991 ,Left ,64,6617353850169 ,42,7421446905639 ,39,2721207334267
2.9925495 ,Left ,64,6214654152945 ,42,632675082951 ,39,2974805794338
3.0151147 ,Left ,64,5743083284652 ,42,6786133455966 ,39,2959884217458
3.0525573 ,Left ,64,5131097330591 ,42,8247912983135 ,39,2915892612462
3.0748321 ,Left ,64,504231962792 ,42,9098109039892 ,39,2693721394898
3.112202 ,Left ,64,4278252806326 ,43,1610149345422 ,39,2251304698054
3.1349228 ,Left ,64,4297695231556 ,43,2695748073491 ,39,1884628025951
3.1723424 ,Left ,64,4207155618483 ,43,420792837889 ,39,1426611549657
3.2024262 ,Left ,64,4029995086838 ,43,4923329986983 ,39,1358198490453
3.2399622 ,Left ,64,3885070741662 ,43,5472730107166 ,39,1279307721961
3.254995 ,Left ,64,3342598372958 ,43,5385800477918 ,39,1384411546507
3.2923364 ,Left ,64,3110155465243 ,43,5191102008644 ,39,2133585056145
3.3151328 ,Left ,64,278140295498 ,43,4749695061614 ,39,2759651150164
3.3525693 ,Left ,64,2551509722023 ,43,1192992327243 ,39,4160692483057
3.3750333 ,Left ,64,2061311628586 ,42,9467992649276 ,39,4588559707755
3.412246 ,Left ,64,0075248193513 ,42,6473901139644 ,39,5026092898133
3.4347518 ,Left ,63,9529960092908 ,42,4970734520791 ,39,4999199715005
3.4798302 ,Left ,63,9474966112874 ,42,3558300291923 ,39,5347954886166
3.5026255 ,Left ,63,9544299018346 ,42,3468404744449 ,39,5790143598864
3.5550548 ,Left ,64,0487983110487 ,42,4645106376025 ,39,6319066878222
3.5923269 ,Left ,64,0901168354937 ,42,5937342508781 ,39,635602072421
3.6153228 ,Left ,64,1072105386014 ,42,6361769107989 ,39,6427104522575
3.6527761 ,Left ,64,1858664342984 ,42,7785845141486 ,39,6464354613119
3.6750992 ,Left ,64,2118838779829 ,42,8744803914873 ,39,6586807572453
3.7125527 ,Left ,64,2029457323442 ,43,0930938004341 ,39,6666479131071
3.7350655 ,Left ,64,1648563203557 ,43,212949486525 ,39,6927077407565
3.7801435 ,Left ,64,0289632791574 ,43,4461265049806 ,39,7411025137399
3.8027925 ,Left ,63,9828642476059 ,43,5275990995127 ,39,7754593566612
3.8546999 ,Left ,63,8407642250268 ,43,6386832980612 ,39,826660274185
3.8920888 ,Left ,63,7330265915283 ,43,6675325902948 ,39,8005795963625
3.9151694 ,Left ,63,7356293403356 ,43,6828237017172 ,39,7941009280918
3.9527449 ,Left ,63,7885109001022 ,43,5755762704232 ,39,7565407845819
3.9746508 ,Left ,63,7678020540342 ,43,4423626818663 ,39,7443133368892
4.0123934 ,Left ,63,7935993428494 ,43,1942080951236 ,39,7253199251521
4.0346237 ,Left ,63,8339620143297 ,43,067556722753 ,39,7121261723393
4.0722776 ,Left ,63,8975728772253 ,42,8953127467074 ,39,6592040786135
4.0947401 ,Left ,63,9311921877544 ,42,8537993352275 ,39,6046008889505
4.1174844 ,Left ,63,9712167828995 ,42,8498534538136 ,39,5381137255387
4.1546669 ,Left ,64,1728857089681 ,43,0036437956024 ,39,3194421129878
4.1775311 ,Left ,64,2824305713186 ,43,1319792774335 ,39,2073852435816
4.214844 ,Left ,64,3814208631544 ,43,3443893660831 ,39,1384209911459
4.2377328 ,Left ,64,4047015668574 ,43,4302935918293 ,39,1379752803841
4.2749931 ,Left ,64,4234569007717 ,43,5278598999817 ,39,1113210227517
4.3047548 ,Left ,64,4397773177691 ,43,5342477750445 ,39,1270589052069
4.3271481 ,Left ,64,4536469411532 ,43,5189097761542 ,39,1384531792797
4.3498115 ,Left ,64,4619328384407 ,43,4616091412185 ,39,1292518228362
4.3722361 ,Left ,64,4714229767452 ,43,3193805124776 ,39,120782965771
4.3944882 ,Left ,64,4462621330783 ,43,0567231851974 ,39,143262456017
4.4097104 ,Left ,64,4155019965541 ,42,9771717087004 ,39,1568368646332
4.4321911 ,Left ,64,4698747590372 ,42,9182272398526 ,39,1604428247561
4.4472379 ,Left ,64,5357091766388 ,42,8564157096332 ,39,1847906864383
4.4696832 ,Left ,64,5593099532912 ,42,8263759935454 ,39,2112413824973
4.4922297 ,Left ,64,5522320747692 ,42,846039022022 ,39,2360894465265
4.5082 ,Left ,64,5132434265063 ,42,8918272421209 ,39,2784923990058
4.530478 ,Left ,64,5154126066708 ,42,9368227141682 ,39,3093626639167
4.5528321 ,Left ,64,483481292468 ,42,9724857165489 ,39,3161586063081
4.5677027 ,Left ,64,3970930858294 ,43,0044989400315 ,39,3279622600354
4.5973389 ,Left ,64,386053250923 ,43,0299687072229 ,39,2916200280377
4.6047897 ,Left ,64,386053250923 ,43,0299687072229 ,39,2916200280377
4.6274631 ,Left ,64,3850928666404 ,42,994320584991 ,39,3177900134229
4.6422244 ,Left ,64,4846199835244 ,42,9977299183124 ,39,3790997038541
4.6573621 ,Left ,64,5590699531319 ,43,0735479212996 ,39,3811696106387
4.6875101 ,Left ,64,4903714129429 ,43,1029674202521 ,39,5178439147486
4.7097423 ,Left ,64,491747345072 ,43,0657155108525 ,39,5694522917862
4.7322009 ,Left ,64,4463640873019 ,43,0260179918808 ,39,5918556524851
4.747158 ,Left ,64,4013146569639 ,43,0062749402023 ,39,6024218768518
4.769816 ,Left ,64,4007679955255 ,42,9772691462878 ,39,6072263299041
4.7922287 ,Left ,64,4179736165917 ,42,94155018023 ,39,6264863344199
4.8075079 ,Left ,64,400140250106 ,42,8879742508683 ,39,6514385172155
4.8298637 ,Left ,64,3642983312035 ,42,8543039886171 ,39,671441018019
4.8598014 ,Left ,64,3474163359068 ,42,8580440276294 ,39,6820675269554
4.8746823 ,Left ,64,3545197792864 ,42,8972879053618 ,39,6781952194414
4.8972796 ,Left ,64,3525437553146 ,42,9368831114672 ,39,6801425729194
4.927268 ,Left ,64,3255339747686 ,43,015578354254 ,39,6740979647218
4.9506364 ,Left ,64,3021450637834 ,43,034967757806 ,39,6662526710231
4.97303 ,Left ,64,2962826376776 ,43,0486312072097 ,39,642023236416
4.9881941 ,Left ,64,2770572484335 ,43,076026695126 ,39,6074987026122
5.0105559 ,Left ,64,2746830230664 ,43,0925265802685 ,39,5948123176303
5.0325549 ,Left ,64,2630698183605 ,43,1000101270853 ,39,6053267867019
5.0472742 ,Left ,64,2504549619833 ,43,0901272921591 ,39,6205375227471
5.0697407 ,Left ,64,2339675206945 ,43,0725989150621 ,39,6306651823164
5.0924426 ,Left ,64,2312514075727 ,43,0714613021489 ,39,6331839519068
5.1072976 ,Left ,64,2441997669138 ,43,0747220790454 ,39,6370288438355
5.1299095 ,Left ,64,2464877994106 ,43,075135685776 ,39,6364843554866
5.152435 ,Left ,64,2554665232523 ,43,099336001645 ,39,6144849728995
5.1672173 ,Left ,64,2813775232659 ,43,1466271167617 ,39,5807295556719
5.1897543 ,Left ,64,2840186769577 ,43,198863504523 ,39,549335478663
5.2124691 ,Left ,64,2741344855571 ,43,2473953882131 ,39,531711015516
5.2347846 ,Left ,64,2643993132376 ,43,2893971905253 ,39,5398483529322
5.2497948 ,Left ,64,2801721917503 ,43,3022642001532 ,39,543086392334
5.2724753 ,Left ,64,2523300381462 ,43,2499903324285 ,39,4960463949918
5.2879187 ,Left ,64,2756168595754 ,43,165582443361 ,39,4220342588515
5.3104889 ,Left ,64,2957366851849 ,43,1279448667089 ,39,3514232030887
5.332262 ,Left ,64,2709209936362 ,43,0591589604049 ,39,2695109343699
5.3546918 ,Left ,64,3005140341905 ,43,0018884935125 ,39,1687282878182
5.3698255 ,Left ,64,3269432640156 ,42,9665830351005 ,39,0696337750639
5.3923478 ,Left ,64,3945367812332 ,42,9354667661198 ,38,9949275324914
5.4223879 ,Left ,64,4352236050173 ,42,9178626815102 ,38,9220370425072
5.4375542 ,Left ,64,4415877360145 ,42,9049547481112 ,38,8740551942548
5.4598347 ,Left ,64,4745397663475 ,42,9096214177108 ,38,8479911743746
5.4747207 ,Left ,64,5401687945531 ,42,9114138727548 ,38,8231762883319
5.4897507 ,Left ,64,5961325017594 ,42,8637771165645 ,38,7364206242368
5.5124336 ,Left ,64,5736996282288 ,42,7624103972562 ,38,6935490167126
5.5348724 ,Left ,64,6033692603716 ,42,7136436471072 ,38,6704588535821
5.549802 ,Left ,64,4997470843238 ,42,640567534005 ,38,7076785749175
5.5723926 ,Left ,64,5273002577696 ,42,6451186437081 ,38,7243596998793
5.5948733 ,Left ,64,4745643248527 ,42,7210448062193 ,38,7282448587379
5.6098347 ,Left ,64,421518817818 ,42,7851251482221 ,38,7413843997499
5.6325374 ,Left ,64,3729705898018 ,42,8712154258484 ,38,7871564713442
5.6549495 ,Left ,64,31981033107 ,42,9492117278145 ,38,8320836010222
5.669738 ,Left ,64,2571811091761 ,43,0332115882222 ,38,8542284288038
5.6924089 ,Left ,64,1647223617692 ,43,1236577073009 ,38,9064378260989
5.7146979 ,Left ,64,0908175103075 ,43,2072739069578 ,38,9429637906387
5.7298962 ,Left ,64,0289485776061 ,43,2807025875213 ,38,9846541627735
5.7525413 ,Left ,63,9869239770048 ,43,3391464875907 ,39,0220103515269
5.7747015 ,Left ,63,946746417641 ,43,3868475173296 ,39,0372065875716
5.7898297 ,Left ,63,875781889068 ,43,4026883989492 ,39,0646257832395
5.8129868 ,Left ,63,825477726092 ,43,4113805188682 ,39,0874295953588
5.8352715 ,Left ,63,8583788606549 ,43,4179032257919 ,39,0631700977881
5.849683 ,Left ,63,9099225359169 ,43,3821096334163 ,39,0390053546199
5.8730406 ,Left ,63,9557958326357 ,43,2914027049595 ,39,0173480449092
5.8954352 ,Left ,63,9982860451102 ,43,1605030919707 ,38,9931307864197
5.9102352 ,Left ,64,0520910777555 ,43,0223155223538 ,38,9964993035482
5.9327899 ,Left ,64,0490517558051 ,42,9252643406898 ,38,9886912974406
5.9552511 ,Left ,64,0576967764387 ,42,8184716502499 ,38,99162863682
5.9702062 ,Left ,64,0801712559826 ,42,7493138051762 ,38,9909752891466
5.9926132 ,Left ,64,1241467902908 ,42,6921277715367 ,38,9793110319914
6.0150184 ,Left ,64,1800282177711 ,42,6791695519176 ,38,9438168900833
6.0300048 ,Left ,64,1955352944122 ,42,710217687533 ,38,8911255880088
6.052513 ,Left ,64,2405398002637 ,42,789841501711 ,38,8216677281683
6.0750669 ,Left ,64,2902512281561 ,42,9128420123986 ,38,7467717234464
6.0898602 ,Left ,64,3560348436646 ,43,0575835368629 ,38,6684088137161
6.1124397 ,Left ,64,3772642606105 ,43,1869195373492 ,38,6174904311874
6.1348316 ,Left ,64,3895817521247 ,43,26869862347 ,38,6233252096393
6.1574464 ,Left ,64,3949691649434 ,43,3182383129722 ,38,6209315828931
6.1725736 ,Left ,64,3478997684453 ,43,3677549140696 ,38,6133390913288
6.1949515 ,Left ,64,3167921588901 ,43,3938831372024 ,38,6279855406237
6.2173764 ,Left ,64,3078679777649 ,43,421750768282 ,38,6419482028055
6.232591 ,Left ,64,320770020505 ,43,4093126669533 ,38,6529095550399
6.2625508 ,Left ,64,3319829506686 ,43,3272547985544 ,38,6565031644032
6.2849528 ,Left ,64,3652556928067 ,43,174417856775 ,38,6401720804456
6.2999924 ,Left ,64,3811770089373 ,43,0076859513924 ,38,633711685609
6.3149928 ,Left ,64,3881550279211 ,42,9209944691291 ,38,6314342146116
6.3373532 ,Left ,64,3936224285863 ,42,8610606524955 ,38,6305486475875
6.3525919 ,Left ,64,4812232420715 ,42,81402668036 ,38,654052401077
6.3748727 ,Left ,64,5515163565107 ,42,76636641888 ,38,6932126862064
6.3974458 ,Left ,64,566881856778 ,42,7390552734881 ,38,7151369757317
6.4124638 ,Left ,64,5327839886106 ,42,7411356102022 ,38,7184201031596
6.434919 ,Left ,64,5279670263607 ,42,7522430118747 ,38,7060788703098
6.4574223 ,Left ,64,5385837634172 ,42,7571618848913 ,38,6908136903637
6.4723976 ,Left ,64,576183589636 ,42,7693159971916 ,38,696391037817
6.4949731 ,Left ,64,4819787563761 ,42,7816063333014 ,38,7131984297036
6.5172772 ,Left ,64,5476019947886 ,42,7663738096561 ,38,7948708882817
6.5324183 ,Left ,64,6408460073567 ,42,8428448498271 ,38,8207069460474
6.5548265 ,Left ,64,6731028800857 ,42,9390878008987 ,38,8343533905761
6.5775226 ,Left ,64,6264525341769 ,42,94455320834 ,38,9125078182463
6.5925192 ,Left ,64,6098091065233 ,42,9095771340078 ,38,990365091343
6.6149257 ,Left ,64,5744055359526 ,42,8637860644862 ,39,0355667255869
6.6374221 ,Left ,64,529710360492 ,42,8176345169787 ,39,0933170281268
6.6524234 ,Left ,64,5053141598205 ,42,7905441681318 ,39,1582836973256
6.6747668 ,Left ,64,4912116057332 ,42,7548249948019 ,39,2299947104202
6.6972021 ,Left ,64,4696287894438 ,42,7230963009957 ,39,3045897575231
6.7122845 ,Left ,64,4510995569367 ,42,7029889955576 ,39,3754299794733
6.7349125 ,Left ,64,4374622802031 ,42,7003202202007 ,39,4312594919619
6.7576445 ,Left ,64,4054307174015 ,42,7406543047965 ,39,4565485826603
6.7724676 ,Left ,64,3855035363892 ,42,7749602312088 ,39,4691949023505
6.7949444 ,Left ,64,3439332246074 ,42,7982401996138 ,39,4686539815878
6.8249998 ,Left ,64,363956734997 ,42,8248042090995 ,39,4507151960781
6.8399106 ,Left ,64,3631800965092 ,42,8665611193345 ,39,4283451832846
6.8623287 ,Left ,64,3390513684718 ,42,907682209448 ,39,4147060862411
6.8925518 ,Left ,64,3483188845549 ,43,0155596223881 ,39,3545527934091
6.9148903 ,Left ,64,3526216635749 ,43,0678169983158 ,39,3361591165063
6.9372204 ,Left ,64,346571269285 ,43,108477188206 ,39,3287886317294
6.9523106 ,Left ,64,32735216452 ,43,1395862199035 ,39,3255815664147
6.9748574 ,Left ,64,3218668026813 ,43,1535585573592 ,39,3238744996549
6.9974873 ,Left ,64,3317226631076 ,43,1464522568586 ,39,3118684613055
7.0123092 ,Left ,64,336624671917 ,43,1315136117822 ,39,304219490941
7.0349185 ,Left ,64,3305619113332 ,43,1114793420315 ,39,2957164312945
7.0575135 ,Left ,64,3127466278328 ,43,0711975232975 ,39,2941841073878
7.0800022 ,Left ,64,31318425569 ,43,0442713000293 ,39,2885546570544
7.1025354 ,Left ,64,3267576846433 ,43,0371595041204 ,39,2728479657343
7.1250941 ,Left ,64,370089817283 ,43,0689017636774 ,39,2285917826572
7.1401419 ,Left ,64,3732205656243 ,43,1054879679973 ,39,1953307793428
7.1550564 ,Left ,64,3660032774502 ,43,1506425186148 ,39,1793224428449
7.1776273 ,Left ,64,3197756921134 ,43,19511402462 ,39,1778327922287
7.1926731 ,Left ,64,3027345103372 ,43,2201059213852 ,39,1999649994394
7.2151444 ,Left ,64,3525796426537 ,43,2165281470533 ,39,1795825075193
7.2377711 ,Left ,64,3758795327035 ,43,1711347991652 ,39,1349176146147
7.2526767 ,Left ,64,4357516607506 ,43,1535165472665 ,39,0869129090093
7.2750066 ,Left ,64,452309209105 ,43,1183921055974 ,39,0071578100106
7.2976271 ,Left ,64,4923397519479 ,43,0641543857902 ,38,8895673642641
7.3201492 ,Left ,64,5854802905997 ,43,0283919330937 ,38,7906711539875
7.3351941 ,Left ,64,6392981543156 ,43,0067879109577 ,38,7305229043132
7.3649741 ,Left ,64,7197412065848 ,42,9783182545491 ,38,6808675156287
7.3883068 ,Left ,64,6860405469505 ,42,9463855324219 ,38,6421090036262
7.4100128 ,Left ,64,6623144139093 ,42,9360396401913 ,38,6047222904174
7.4251932 ,Left ,64,6603374081118 ,42,9093639932253 ,38,6181053531002
7.4478682 ,Left ,64,6969142517128 ,42,8851260318654 ,38,5831662958463
7.4624551 ,Left ,64,7318267665903 ,42,8047268114194 ,38,5103875156484
7.4777687 ,Left ,64,77103805747 ,42,7505011533858 ,38,4823417697408
7.5001395 ,Left ,64,7624417148685 ,42,7086248197257 ,38,4509519913177
7.5152434 ,Left ,64,7148690642299 ,42,627752791019 ,38,4884849168284
7.5376643 ,Left ,64,7156685650748 ,42,6227328314655 ,38,4810071910628
7.5601584 ,Left ,64,7116541574462 ,42,6531235106423 ,38,472260465944
7.5751035 ,Left ,64,6341616887789 ,42,6866189831568 ,38,4722260152691
7.6050511 ,Left ,64,5915480286186 ,42,7057564546283 ,38,4932533941251
7.6277907 ,Left ,64,5582181688361 ,42,7209859938145 ,38,5470239969074
7.6425585 ,Left ,64,478769559294 ,42,7460220936992 ,38,6083883002664
7.6650464 ,Left ,64,3910168122973 ,42,7810926464173 ,38,6738814261043
7.6871314 ,Left ,64,3074326059121 ,42,8516963981334 ,38,7748157361306
7.7022226 ,Left ,64,2137343747662 ,42,9656398218272 ,38,8706304764222
7.7173151 ,Left ,64,1049011707477 ,43,090455101503 ,38,9608782745178
7.7397706 ,Left ,63,9546575800704 ,43,2089232843391 ,39,0463542831361
7.7547926 ,Left ,63,9066177479174 ,43,2850699771344 ,39,0546063537305
7.777501 ,Left ,63,8759143030069 ,43,3153320059755 ,39,0773574613087
7.7999388 ,Left ,63,8398759243471 ,43,3658606716037 ,39,1212838624683
7.8149188 ,Left ,63,8008424251649 ,43,3999743230027 ,39,0948278526284
7.8376889 ,Left ,63,8254359382527 ,43,3796230742671 ,39,0641910194514
7.8599458 ,Left ,63,8794177356652 ,43,2941033165564 ,39,0199076626017
7.8746219 ,Left ,63,9512180306084 ,43,1917444266132 ,38,973272910352
7.897337 ,Left ,63,9956672182124 ,43,12946902119 ,38,9529912568924
7.9198212 ,Left ,64,0900588901073 ,43,1261683859188 ,38,9337732996724
7.9348201 ,Left ,64,214922869151 ,43,1651060126378 ,38,8736141877364
7.9574776 ,Left ,64,2896094137357 ,43,2009084466063 ,38,8306992755823
7.9797107 ,Left ,64,3613513090903 ,43,2761642163116 ,38,8442535794044
7.9946605 ,Left ,64,3489161181452 ,43,3595372481706 ,38,9099622974023
8.0174102 ,Left ,64,3033231018914 ,43,4313770963096 ,38,9521614639512
8.0399141 ,Left ,64,252269281239 ,43,4792088256599 ,38,989944614844
8.0624146 ,Left ,64,2462948496561 ,43,5315683609957 ,39,0291778961105
8.0774778 ,Left ,64,2325718738226 ,43,564123745921 ,39,0583424552274
8.0999284 ,Left ,64,2299801903635 ,43,5505071532636 ,39,0881797576445
8.1147201 ,Left ,64,2377417440806 ,43,4787974560361 ,39,1100573529909
8.1375549 ,Left ,64,2527706336165 ,43,3702587609204 ,39,1072904340082
8.1597858 ,Left ,64,2550606420054 ,43,240047994551 ,39,1044272797563
8.174855 ,Left ,64,2367525515685 ,43,1381882061669 ,39,0993215745778
8.2047826 ,Left ,64,2303153135466 ,43,0561443719373 ,39,07570276337
8.2274179 ,Left ,64,2237563793699 ,42,9732703017331 ,39,0538947686207
8.2423847 ,Left ,64,2317557483915 ,42,9147595047604 ,39,0485121728868
8.2575909 ,Left ,64,2362958079477 ,42,8781463360485 ,39,067772622764
8.2799735 ,Left ,64,2324108907757 ,42,8337077557805 ,39,0476266602903
8.3025935 ,Left ,64,1891250999849 ,42,7928249604344 ,39,0670430940576
8.3175688 ,Left ,64,2793119086415 ,42,7662349683688 ,39,1217380340672
8.3399859 ,Left ,64,4131268674589 ,42,8632849771447 ,39,1249264102529
8.3626008 ,Left ,64,4297724316635 ,42,8989620644782 ,39,1812237284085
8.3776751 ,Left ,64,4285916953196 ,42,8716948180467 ,39,257177805668
8.3999379 ,Left ,64,4478103517642 ,42,8220309085299 ,39,3175061501966
8.4224261 ,Left ,64,443406980727 ,42,8152837621661 ,39,3426116946647
8.4375165 ,Left ,64,4184653352406 ,42,7969285354932 ,39,387496534906
8.4598422 ,Left ,64,4330343027108 ,42,7963601050127 ,39,426696147713
8.4825265 ,Left ,64,4351371919546 ,42,804880517019 ,39,4644948718145
8.4973223 ,Left ,64,3853889589721 ,42,8324116012686 ,39,4804300712624
8.5198939 ,Left ,64,3236496036008 ,42,8773042701146 ,39,4784712580535
8.5426393 ,Left ,64,2983631578149 ,42,9011098494094 ,39,4761555056249
8.5574523 ,Left ,64,3118875251098 ,42,9214032613397 ,39,4527293866374
8.5797865 ,Left ,64,3257952691366 ,42,9307188736883 ,39,4230319349909
8.6022989 ,Left ,64,291818913507 ,42,9746314126737 ,39,3785131951544
8.6174356 ,Left ,64,2474467716196 ,43,0293650845139 ,39,3368310090777
8.6401673 ,Left ,64,2503885080679 ,43,0791228181633 ,39,3128525214719
8.6625644 ,Left ,64,2703408310475 ,43,1161394644308 ,39,300469800271
8.6777318 ,Left ,64,281348526373 ,43,129510799362 ,39,3035996375556
8.7002209 ,Left ,64,2880826566838 ,43,1424659946003 ,39,2944968952529
8.7227839 ,Left ,64,2906603958323 ,43,1359240637194 ,39,283203527384
8.7451511 ,Left ,64,3073369563118 ,43,117010865342 ,39,2669433644948
8.7751799 ,Left ,64,3085252612088 ,43,0983662779573 ,39,2495656659985
8.8050453 ,Left ,64,3090394410062 ,43,0640144238814 ,39,2464743013975
8.8202733 ,Left ,64,3209421607036 ,43,04151142103 ,39,2413113066956
8.8350693 ,Left ,64,339922242732 ,43,0549338564198 ,39,2231350584655
8.8578534 ,Left ,64,3241516636601 ,43,136333019589 ,39,1873425133383
8.8802882 ,Left ,64,3176789676994 ,43,1887039899981 ,39,1910260568431
8.9025817 ,Left ,64,296494207263 ,43,2368620683826 ,39,2089933840864
8.9177624 ,Left ,64,2961900029079 ,43,2671477585874 ,39,2164753757563
8.9402702 ,Left ,64,3269953193821 ,43,2503067505834 ,39,1778553244668
8.9627557 ,Left ,64,33312453197 ,43,1751392847167 ,39,1056353801225
8.9778146 ,Left ,64,341164523149 ,43,1225003676443 ,39,0447172786131
9.0002988 ,Left ,64,3506580247541 ,43,0766817958121 ,39,0320863549484
9.0227286 ,Left ,64,4022615165019 ,43,0464311688742 ,38,9325998480743
9.0378137 ,Left ,64,4468126067821 ,43,0064021681566 ,38,8346650839894
9.0676178 ,Left ,64,5214512736924 ,42,9537441425338 ,38,7630707521411
9.0900923 ,Left ,64,564630596396 ,42,933374635473 ,38,6825782161467
9.1051078 ,Left ,64,5514918293524 ,42,9315089008088 ,38,6139838360941
9.127755 ,Left ,64,5702737295033 ,42,9021472824123 ,38,5721856112401
9.1425487 ,Left ,64,639209021054 ,42,8661873097184 ,38,5499287519463
9.1578492 ,Left ,64,6596468180657 ,42,7605570140142 ,38,5374709971495
9.1802534 ,Left ,64,6158057401637 ,42,6716109121731 ,38,4619764389427
9.2027548 ,Left ,64,5922615634888 ,42,6446370929962 ,38,4222155302673
9.2250168 ,Left ,64,5289214625717 ,42,5978172326616 ,38,4196377732966
9.2398326 ,Left ,64,4515805040023 ,42,5295458325946 ,38,4656026371848
9.2622669 ,Left ,64,4805192648105 ,42,5465641637944 ,38,4698996409588
9.2847376 ,Left ,64,4152903991888 ,42,5733210019269 ,38,481591955479
9.299947 ,Left ,64,3557701086981 ,42,6143223933573 ,38,4851385385365
9.3224952 ,Left ,64,2966747953355 ,42,716006640174 ,38,518924784901
9.3450878 ,Left ,64,1921643780894 ,42,8295713679656 ,38,5743847475878
9.3597874 ,Left ,64,1070751520654 ,42,9277282628827 ,38,6584818968576
9.3823084 ,Left ,64,0107425063417 ,43,0202320509118 ,38,7517089551033
9.4050134 ,Left ,63,9201780508674 ,43,1162491743906 ,38,8639065943498
9.4199317 ,Left ,63,8455312084713 ,43,2173734640137 ,38,9786644579335
9.4432155 ,Left ,63,7907122294513 ,43,2970083693997 ,39,0315295636378
9.4653352 ,Left ,63,6817167629035 ,43,3703117950993 ,39,0509974383093
9.4804669 ,Left ,63,5717977650584 ,43,4669698312699 ,39,095466229207
9.5028939 ,Left ,63,536423188373 ,43,58453400963 ,39,1075582281524
9.5248594 ,Left ,63,5611486945343 ,43,6807160312245 ,39,1031375494078
9.5400017 ,Left ,63,5781250790828 ,43,6880210165877 ,39,1030955848142
9.562611 ,Left ,63,5878132310544 ,43,5837806414017 ,39,1023977107579
9.5923783 ,Left ,63,6357521382806 ,43,4668472331344 ,39,0858613987299
9.6072382 ,Left ,63,6395509889287 ,43,3353917403193 ,39,0550754432974
9.6372038 ,Left ,63,6668318550637 ,43,1591480553857 ,39,0459400903478
9.6524203 ,Left ,63,6627997317082 ,42,9835296093183 ,39,0550725396072
9.6677013 ,Left ,63,683744873299 ,42,8678364612381 ,39,0231041108127
9.6826185 ,Left ,63,7857386405914 ,42,8085385239619 ,38,9666672827477
9.7049963 ,Left ,63,8743143030788 ,42,7869065719358 ,38,9078670948014
9.7200651 ,Left ,63,9563348613201 ,42,8437814089565 ,38,8501758903226
9.742391 ,Left ,64,0050862394301 ,42,9411594884894 ,38,8311954633538
9.7647498 ,Left ,64,0417863438033 ,43,0032519891439 ,38,80300943079
9.7797888 ,Left ,64,0645328722688 ,43,0923088384259 ,38,7673422931911
9.8022743 ,Left ,64,1115292029995 ,43,2175678931472 ,38,7373610604068
9.8247844 ,Left ,64,1558541372133 ,43,3117347657236 ,38,7280928500199
9.8398645 ,Left ,64,1825836058414 ,43,3915351455363 ,38,7472675518697
9.8624845 ,Left ,64,115383346251 ,43,4261267824054 ,38,7704515484175
9.8849283 ,Left ,64,1226586874114 ,43,4458039178983 ,38,793940596105
9.8999229 ,Left ,64,1311312356699 ,43,5200265618327 ,38,7784084191192
9.9225637 ,Left ,64,1721839051376 ,43,5479949880701 ,38,7984554900695
9.9450928 ,Left ,64,217383606976 ,43,507883964108 ,38,8351243390538
9.9598672 ,Left ,64,2596779307736 ,43,4068680066963 ,38,8556262053996
9.982454 ,Left ,64,2523698390601 ,43,2682030459198 ,38,8787993086249
10.0049389 ,Left ,64,2215845875396 ,43,1454665002666 ,38,9033426499493
10.0273357 ,Left ,64,2500108125768 ,43,0530703740925 ,38,9264071409679
10.0425615 ,Left ,64,2883096948322 ,42,9861741199159 ,38,9231214906239
10.0649575 ,Left ,64,2971362376043 ,42,9230163128776 ,38,92168320313
10.0872524 ,Left ,64,3003862901634 ,42,8692068760183 ,38,9296605506627
10.1025097 ,Left ,64,3369878474839 ,42,8408777652043 ,38,9385177728746
10.1248489 ,Left ,64,3913329339792 ,42,8250953591515 ,38,9337029438533
10.1396064 ,Left ,64,431376045699 ,42,8147209212376 ,38,9419087525826
10.162306 ,Left ,64,4665286177227 ,42,8205735473877 ,38,949552415911
10.1922766 ,Left ,64,4878576806261 ,42,8291238998713 ,38,9662760052982
10.2149346 ,Left ,64,5172698752121 ,42,8488865250896 ,38,9724828131546
10.2298365 ,Left ,64,5140920694357 ,42,8680577628569 ,38,9640519122544
10.2448054 ,Left ,64,4895887439662 ,42,8766158173151 ,38,9645904462566
10.2672868 ,Left ,64,4934500798222 ,42,8677783068217 ,38,9649957812018
10.2826779 ,Left ,64,496311223114 ,42,841341138165 ,38,9652242176437
10.3049272 ,Left ,64,4698130732988 ,42,8342735643702 ,38,9716506462633
10.3271651 ,Left ,64,4422649399313 ,42,8156393050328 ,38,9652348857119
10.3424124 ,Left ,64,3746840188998 ,42,7908813846235 ,38,9350470532227
10.3646658 ,Left ,64,3476523632821 ,42,7429659320193 ,38,9557472110471
10.3873409 ,Left ,64,4125580415972 ,42,773758600838 ,38,9450223873307
10.4025408 ,Left ,64,4198663480814 ,42,7741076020324 ,38,9491139297581
10.4248417 ,Left ,64,4109439796401 ,42,760568894166 ,38,9587368910806
10.4475229 ,Left ,64,4335489450166 ,42,7323702150452 ,38,9685124562156
10.4624228 ,Left ,64,4182385816328 ,42,7265450776189 ,38,9508020481665
10.4847539 ,Left ,64,4494025237777 ,42,6924022536304 ,38,9515456139685
10.5075101 ,Left ,64,4739367426144 ,42,6638706960935 ,38,9626028438746
10.5225036 ,Left ,64,4947355486656 ,42,6421994209392 ,38,9695169135051
10.5448072 ,Left ,64,5115704767229 ,42,6287666287469 ,38,9826271770561
10.5678609 ,Left ,64,5219353144095 ,42,5793314119978 ,39,0077843388005
10.5826564 ,Left ,64,5555389550179 ,42,5302556955456 ,39,0196038585791
10.6051058 ,Left ,64,5299707164259 ,42,5505512020262 ,39,0206092645526
10.6278912 ,Left ,64,5051124310687 ,42,5788629352765 ,39,0278314196875
10.6426157 ,Left ,64,4769387211581 ,42,6066344575022 ,39,0498195874042
10.6651279 ,Left ,64,4605615648783 ,42,6265599760606 ,39,0740929031673
10.6876656 ,Left ,64,4453979624671 ,42,6584173078064 ,39,0931695967023
10.7099913 ,Left ,64,4398322221386 ,42,7034011741093 ,39,1017143750004
10.7327667 ,Left ,64,4175393623342 ,42,7355428339043 ,39,1100288157877
10.7554231 ,Left ,64,3887105852939 ,42,7511739031583 ,39,1252933689109
10.7702288 ,Left ,64,3807508881732 ,42,757862219508 ,39,1321925466378
10.7851658 ,Left ,64,371643781653 ,42,7538314916923 ,39,1311968442939
10.8078446 ,Left ,64,340164999812 ,42,7441458524032 ,39,1244893627176
10.8226 ,Left ,64,3193494151228 ,42,729174823472 ,39,1197735098526
10.8452734 ,Left ,64,3089085971824 ,42,7252558929303 ,39,1104581569575
10.8677668 ,Left ,64,3324979629656 ,42,738822927917 ,39,1154783880992
10.8822998 ,Left ,64,3381333530075 ,42,7858087906193 ,39,1163878810343
10.9055171 ,Left ,64,3620871028861 ,42,8396942186799 ,39,1204982131314
10.9281357 ,Left ,64,3783909774467 ,42,9198157481438 ,39,1081346741864
10.9429349 ,Left ,64,3709727983065 ,42,9994765245141 ,39,0933465077763
10.9724772 ,Left ,64,3509787946216 ,43,0815164699031 ,39,0910557992341
10.9948584 ,Left ,64,3303995452158 ,43,1682957437773 ,39,1029506509669
11.0175996 ,Left ,64,2951144240454 ,43,2116993827755 ,39,1396321613722
11.0321924 ,Left ,64,2990077932639 ,43,1895166149461 ,39,1554713203416
11.0548475 ,Left ,64,2604620701241 ,43,0952498050661 ,39,1350353958829
11.070047 ,Left ,64,2784739847564 ,42,9963795688054 ,39,1380961741958
11.0849596 ,Left ,64,2216222545548 ,42,9895066685819 ,39,1651077983545
11.1076287 ,Left ,64,1419652579648 ,43,0293134945703 ,39,1082722648289
11.1297077 ,Left ,64,1866953412232 ,43,095398395418 ,39,0431750345211
11.1446441 ,Left ,64,2717469765211 ,43,1135960545859 ,38,9937966043755
11.167527 ,Left ,64,2844761539129 ,43,0987657483659 ,38,9539714812639
11.1900395 ,Left ,64,2426716609031 ,43,0945281460367 ,38,9381126645973
11.2049991 ,Left ,64,2143829132174 ,43,1052888603267 ,38,9343657794512
11.2279725 ,Left ,64,20198022244 ,43,0793820905701 ,38,9204336730954
11.2575942 ,Left ,64,1778103203828 ,43,0255186692114 ,38,875797593421
11.2726391 ,Left ,64,2681575316788 ,42,9471763713589 ,38,8803426210262
11.3102733 ,Left ,64,3102045172854 ,42,8090914537207 ,38,7483144225073
11.3251443 ,Left ,64,3219904971808 ,42,8174766544175 ,38,7026935624428
11.3479955 ,Left ,64,2579020984324 ,42,769573066356 ,38,7201622630231
11.3699906 ,Left ,64,2270505693073 ,42,7375658025146 ,38,7441405247444
11.3852264 ,Left ,64,27194912241 ,42,7737787889105 ,38,7486805106314
11.4078951 ,Left ,64,2409877977188 ,42,8340812748321 ,38,7684905447427
11.4300585 ,Left ,64,1837682304428 ,42,9007635054607 ,38,7904872956135
11.4451601 ,Left ,64,1800482200838 ,42,9866297100092 ,38,8157255093325
11.467833 ,Left ,64,109475833917 ,43,0254505732353 ,38,847725731764
11.4904084 ,Left ,64,0699262230074 ,43,0694674131834 ,38,8636706707017
11.5051892 ,Left ,64,0020211636578 ,43,1237822792887 ,38,906905844982
11.5275906 ,Left ,63,9355049588814 ,43,1747053605752 ,38,9633633657038
11.5503381 ,Left ,63,9000356043783 ,43,2588497482711 ,39,0185930550422
11.5652666 ,Left ,63,8787913345766 ,43,346363762752 ,39,0812267756235
11.5877738 ,Left ,63,8984322801026 ,43,4081059660801 ,39,11319106533
11.6102217 ,Left ,63,8503105424003 ,43,4363686963546 ,39,1497925781505
11.6248247 ,Left ,63,7964148474407 ,43,4613323489789 ,39,2068993693839
11.6474882 ,Left ,63,7103370008531 ,43,5085078915324 ,39,2777236457645
11.6697849 ,Left ,63,6869916864524 ,43,567867918153 ,39,3411170556938
11.6772897 ,Left ,63,6660609237697 ,43,6430740076337 ,39,3601692077672
11.6998657 ,Left ,63,6393572287909 ,43,6781062252895 ,39,3427880608865
11.7222338 ,Left ,63,6558999427327 ,43,6279330314876 ,39,3247382134302
11.7373187 ,Left ,63,6803887054127 ,43,4597424344297 ,39,3014073756617
11.7598414 ,Left ,63,7144627489719 ,43,265020832991 ,39,260313555273
11.782479 ,Left ,63,7287891623995 ,43,1014671807424 ,39,1838273352919
11.8049516 ,Left ,63,7673711040834 ,42,9556897367493 ,39,1024570340026
11.8275733 ,Left ,63,8557032946633 ,42,8744250111752 ,38,9768161017645
11.8575085 ,Left ,64,1310428899174 ,42,9942107445299 ,38,6871116009514
11.879845 ,Left ,64,298610342332 ,43,1299357588349 ,38,5600073280199
11.9022671 ,Left ,64,3812914852972 ,43,2796306431555 ,38,489203013957
11.9398104 ,Left ,64,3620339120209 ,43,4623408197653 ,38,5027429800606
11.962314 ,Left ,64,3476730514397 ,43,4822122528325 ,38,498465882499
11.977229 ,Left ,64,3840419441429 ,43,5401895316219 ,38,4937243159232
11.9997539 ,Left ,64,3812149301238 ,43,6221748439595 ,38,4732577398746
12.0224789 ,Left ,64,3516011871025 ,43,5985510542958 ,38,4965365025735
12.0600514 ,Left ,64,4534886554487 ,43,3508509064021 ,38,5529594475919
12.0826112 ,Left ,64,4530403246738 ,43,1590940510991 ,38,5661776776404
12.1274972 ,Left ,64,3860902537395 ,42,9389139728682 ,38,5284715670392
12.1499185 ,Left ,64,3930815928797 ,42,8771677381968 ,38,5032561861033
12.179955 ,Left ,64,3835113877269 ,42,7670723624004 ,38,5487588539438
12.2026999 ,Left ,64,3189682110222 ,42,7199989867547 ,38,6008856615844
12.2397855 ,Left ,64,4471823538124 ,42,8247602070121 ,38,6757957708879
12.2623002 ,Left ,64,4772153710396 ,42,873396709566 ,38,727003352201
12.3000783 ,Left ,64,465377798996 ,42,7988362853302 ,38,8562428004396
12.3228119 ,Left ,64,4442896101506 ,42,7801235581935 ,38,8566587098487
12.3748276 ,Left ,64,4434223717422 ,42,6753467127887 ,38,9060153395617
12.3974954 ,Left ,64,4437966390584 ,42,6075558612899 ,38,9548764746353
12.442445 ,Left ,64,3791834396267 ,42,5534625304824 ,38,9802093378791
12.4572973 ,Left ,64,3891280775888 ,42,5659077121115 ,38,9693831171571
12.4799801 ,Left ,64,3586934588795 ,42,6109986535855 ,38,9540923239289
12.5025492 ,Left ,64,3131350878587 ,42,6557494621347 ,38,9488880973496
12.5398854 ,Left ,64,2848550904057 ,42,726878069009 ,38,9556500335179
12.5622563 ,Left ,64,2661389286089 ,42,7646829939624 ,38,9653640385324
12.5999003 ,Left ,64,2605660414452 ,42,8366626023934 ,38,9771691160495
12.6299818 ,Left ,64,2614060626164 ,42,8665470406961 ,38,9750690744655
12.6675255 ,Left ,64,2594232342319 ,42,8751083793352 ,38,9760165762513
12.6824963 ,Left ,64,257850308233 ,42,862207903163 ,38,9718029293084
12.7198464 ,Left ,64,2758721272841 ,42,8623623933876 ,38,9308865957728
12.742298 ,Left ,64,3018022151166 ,42,8965739697039 ,38,90554776289
12.7800075 ,Left ,64,3214763056934 ,43,0009290995485 ,38,8370297085419
12.8023004 ,Left ,64,3186899246494 ,43,0813557913934 ,38,8137436146284
12.8397252 ,Left ,64,2730492676651 ,43,2153617819404 ,38,8152939059268
12.8622701 ,Left ,64,3052637442141 ,43,2384523994689 ,38,7862166186949
12.8997278 ,Left ,64,2924853634645 ,43,126919412614 ,38,8280848927045
12.9222203 ,Left ,64,2620136591512 ,43,0751954445396 ,38,8094455942095
12.9671969 ,Left ,64,3663088434036 ,42,980902986831 ,38,6454064669792
12.9897797 ,Left ,64,4028907947182 ,42,9562973017526 ,38,6041137527096
13.0197612 ,Left ,64,360320830965 ,42,9336116530151 ,38,5310293725257
13.0425243 ,Left ,64,3694559507187 ,42,9577474087001 ,38,5021068682541
13.0803326 ,Left ,64,3714190388847 ,42,7347517889879 ,38,4631283221237
13.1028827 ,Left ,64,388228043064 ,42,7327036750008 ,38,3893580237533
13.1404566 ,Left ,64,3348717030419 ,42,672405095732 ,38,3387475252576
13.1626384 ,Left ,64,3515689631916 ,42,7188692046807 ,38,332655547929
13.1998788 ,Left ,64,2848315874435 ,42,8641912185811 ,38,3843082833435
13.2300355 ,Left ,64,268704731246 ,42,9347054573711 ,38,4042468834608
13.2674301 ,Left ,64,1410068194238 ,43,1123538650821 ,38,5430555589887
13.2826404 ,Left ,64,0740932985914 ,43,2094079744482 ,38,6250454438676
13.319867 ,Left ,63,9107965192291 ,43,4883264202883 ,38,8830075159349
13.3424185 ,Left ,63,7806136198211 ,43,6305483656343 ,39,0198243988202
13.379863 ,Left ,63,5740364988072 ,43,7404401182665 ,39,1715440461535
13.4030264 ,Left ,63,5296024497024 ,43,7834462616072 ,39,2332787265845
13.4254098 ,Left ,63,5192775628993 ,43,8084051976419 ,39,2517846731295
13.4702693 ,Left ,63,5509814092817 ,43,6877284173269 ,39,2063731877961
13.4926471 ,Left ,63,6193421038561 ,43,5569475013316 ,39,1536993583042
13.5228134 ,Left ,63,7518033014453 ,43,352383859141 ,39,0588695569644
13.5452253 ,Left ,63,8163696080669 ,43,3122012923597 ,38,9739204165089
13.5824044 ,Left ,64,0821103324463 ,43,3467798825504 ,38,828638116106
13.604889 ,Left ,64,1255277463156 ,43,4155003279652 ,38,7925575353818
13.6424385 ,Left ,64,1730873370343 ,43,5065740696579 ,38,7852305172626
13.6799069 ,Left ,64,0904184707681 ,43,6145889298975 ,38,7736033116465
13.702855 ,Left ,64,0624059188683 ,43,654505655418 ,38,78899153155
13.7479987 ,Left ,64,0392003806398 ,43,7312361014966 ,38,8333664327225
13.7777878 ,Left ,64,0369047943876 ,43,7042062460293 ,38,8606310226094
13.8228673 ,Left ,64,1007794141257 ,43,3198108405476 ,38,9020341104505
13.8451105 ,Left ,64,0861798728457 ,43,1974157513005 ,38,8828972374032
13.8824323 ,Left ,64,1285034440408 ,43,0620976728879 ,38,8193726349927
13.9046345 ,Left ,64,1685131478514 ,43,0040705842985 ,38,7956099033727
13.9423264 ,Left ,64,1872460160179 ,42,9724348267415 ,38,7962061205462
13.9800676 ,Left ,64,1403693585253 ,42,9051999843303 ,38,8097428517637
14.0025235 ,Left ,64,179667801028 ,42,8557278751633 ,38,8425223090106
14.0475229 ,Left ,64,3177668333701 ,42,9289076240487 ,38,8671729612681
14.0999019 ,Left ,64,4120739901191 ,42,8174178840214 ,38,9417810485772
14.1224962 ,Left ,64,422226716438 ,42,795904140419 ,38,9350841853853
14.1447875 ,Left ,64,4626120723385 ,42,7561532709341 ,38,9361315427745
14.1823343 ,Left ,64,5056080334152 ,42,7390649159914 ,38,9620116939015
14.2048209 ,Left ,64,4598427763707 ,42,745443134208 ,38,978794920099
14.2422902 ,Left ,64,4207782587681 ,42,7470223064152 ,38,9725000433076
14.2647623 ,Left ,64,4227279894319 ,42,7620757902551 ,38,9731714588099
14.3025851 ,Left ,64,4037766486971 ,42,8343571967983 ,38,9723949490586
14.3247444 ,Left ,64,3949804042695 ,42,8640342367615 ,38,960345733125
14.3624881 ,Left ,64,3661916554866 ,42,9377926028367 ,38,9482736271943
14.3847355 ,Left ,64,3216826056588 ,42,977619814358 ,38,9464609175247
14.4224774 ,Left ,64,3353641314909 ,43,0382557170519 ,38,9514252707068
14.4449594 ,Left ,64,3534600589829 ,43,0469795231646 ,38,947054992219
14.4823463 ,Left ,64,3102404878309 ,43,0108640161748 ,38,9370930023965
14.5048418 ,Left ,64,3073924204488 ,42,9887126289152 ,38,9352535519489
14.5423699 ,Left ,64,3174494302989 ,42,9851639334676 ,38,9544893519958
14.5725114 ,Left ,64,2985028112789 ,43,0025438431529 ,38,959829128036
14.6097554 ,Left ,64,2977854853304 ,43,053275804393 ,38,9491250360168
14.6248555 ,Left ,64,2955228249429 ,43,0857193378315 ,38,9403890148656
14.6622506 ,Left ,64,2906998525309 ,43,1830144334269 ,38,9269295669252
14.6848408 ,Left ,64,3143848716784 ,43,2164035160992 ,38,920233616781
14.7223986 ,Left ,64,3216549339144 ,43,2592670233915 ,38,9157852493392
14.74509 ,Left ,64,301364708845 ,43,2443924359346 ,38,9153494337373
14.7822746 ,Left ,64,2563284538814 ,43,1358923443101 ,38,9483526395793
14.8048665 ,Left ,64,1578858689202 ,43,0527198312523 ,39,0087385322581
14.8425637 ,Left ,64,0652909972137 ,43,0668033511648 ,38,9565148683866
14.8653377 ,Left ,64,1244610479326 ,43,0800941316769 ,38,9095924357231
14.9028719 ,Left ,64,1687180305346 ,43,071771766075 ,38,7912672454339
14.9253451 ,Left ,64,1344616670284 ,43,1004800078283 ,38,7519303070038
14.9625258 ,Left ,64,0581364129311 ,43,1038463404893 ,38,7465753169991
14.9849217 ,Left ,64,0210943667983 ,43,0962458839526 ,38,7046150960477
15.0223641 ,Left ,64,0837019085148 ,43,0034216851402 ,38,6581173279106
15.044974 ,Left ,64,0804444368864 ,42,913427756651 ,38,615823494412
15.0825943 ,Left ,64,038876262393 ,42,8490567434598 ,38,5610395088958
15.104953 ,Left ,63,9975096147389 ,42,8048512523721 ,38,5920775273389
15.1499882 ,Left ,64,0368450190738 ,42,9865540628138 ,38,606156277877
15.1722936 ,Left ,63,9865372965964 ,43,1436073971298 ,38,643459126702
15.2023193 ,Left ,63,9462075369385 ,43,3358406954184 ,38,7401845614307
15.2175496 ,Left ,63,8563368998927 ,43,4194245255101 ,38,7654775816457
15.2399055 ,Left ,63,7600179116069 ,43,4975802691474 ,38,7852707015199
15.254961 ,Left ,63,6903598925287 ,43,5169055983146 ,38,8047106792668
15.277599 ,Left ,63,6445007825624 ,43,5295861719275 ,38,841418716936
15.2999812 ,Left ,63,6418302541325 ,43,5876772628879 ,38,8519834113778
15.3149357 ,Left ,63,5304031922051 ,43,6044631007058 ,38,8982936995962
15.3376083 ,Left ,63,4763658998948 ,43,5977192313964 ,38,976684230201
15.3672439 ,Left ,63,4789643056993 ,43,6271686891747 ,38,9392571635094
15.3823067 ,Left ,63,5251650351198 ,43,5828217636734 ,38,9271256305624
15.4122769 ,Left ,63,5823192142166 ,43,4417892618967 ,38,9040446866478
15.4347244 ,Left ,63,5689270248526 ,43,1951712308291 ,38,8606986770534
15.4498216 ,Left ,63,5814038249049 ,42,9399482626209 ,38,7983383381451
15.4725172 ,Left ,63,5953815826084 ,42,75030493758 ,38,7462454716205
15.502347 ,Left ,63,6788051460535 ,42,5174163805655 ,38,5826648490812
15.5176704 ,Left ,63,757627849652 ,42,4605906972166 ,38,5191407870613
15.539976 ,Left ,63,8157103561808 ,42,4776524676819 ,38,4779845311761
15.5624409 ,Left ,63,9060794057901 ,42,5456952001325 ,38,4375319684282
15.5775899 ,Left ,63,9465745211753 ,42,6488921073703 ,38,3726089422139
15.5997857 ,Left ,64,0111614492571 ,42,7960865006472 ,38,2968417619768
15.6225412 ,Left ,64,0486821553017 ,42,9654234956105 ,38,2164858870341
15.6373502 ,Left ,64,0363495302252 ,43,1046940127661 ,38,1599999981729
15.6598651 ,Left ,64,0775125261556 ,43,211897490335 ,38,1333799083359
15.6900366 ,Left ,64,0759087408067 ,43,2826727174517 ,38,1152067929598
15.7050464 ,Left ,64,063758739448 ,43,3572946789182 ,38,0781890899335
15.7275771 ,Left ,64,0413169481722 ,43,3951497893326 ,38,0364757221401
15.742597 ,Left ,64,0081711422124 ,43,3943927837531 ,38,0170711916303
15.7576809 ,Left ,64,0191836329604 ,43,3717458926435 ,38,0165517172424
15.7800032 ,Left ,64,0098127904882 ,43,3658602825521 ,38,0305871166715
15.8026332 ,Left ,64,0182950029897 ,43,3344888809091 ,38,0651481362078
15.8176448 ,Left ,64,0106876866061 ,43,2995105499433 ,38,1106029546975
15.8400077 ,Left ,64,0424979461081 ,43,1711145871513 ,38,1388421312725
15.8625878 ,Left ,64,0787417678906 ,43,0022879162797 ,38,1587488759106
15.877795 ,Left ,64,0779236626902 ,42,8639087034042 ,38,1957034762186
15.9224337 ,Left ,64,0798393639645 ,42,7012651143959 ,38,300078895656
15.944778 ,Left ,64,1341458745314 ,42,6558305098624 ,38,3489327109432
15.9898065 ,Left ,64,0759726264493 ,42,573255278323 ,38,4501488712714
16.0123503 ,Left ,64,2509379036268 ,42,5704837421787 ,38,4077248600062
16.0651076 ,Left ,64,2899935397838 ,42,563957262995 ,38,5157290519478
16.1021871 ,Left ,63,9877881551278 ,42,556581759098 ,38,7025906560748
16.1248362 ,Left ,63,9207621711973 ,42,4519645255152 ,38,7658294470135
16.1622788 ,Left ,63,9976894334234 ,42,5502558290468 ,38,7878051789153
16.1850759 ,Left ,64,0060520964753 ,42,5695665708067 ,38,8356283795832
16.2224798 ,Left ,63,9677587510919 ,42,5443695823197 ,38,8934924544276
16.2524496 ,Left ,63,8222624711422 ,42,5118620139983 ,38,9401662866499
16.304784 ,Left ,63,8968945921119 ,42,518271762572 ,38,943481964828
16.342345 ,Left ,63,9093129778136 ,42,511980414561 ,38,9420859507611
16.3649988 ,Left ,63,9178220842723 ,42,5326623824103 ,38,9250741120492
16.4022729 ,Left ,63,9087216103079 ,42,5810269768727 ,38,8978457823028
16.4249362 ,Left ,63,9065714783368 ,42,6023690189612 ,38,8899191248799
16.4624881 ,Left ,63,8973377537439 ,42,63529874017 ,38,8635839732355
16.4847533 ,Left ,63,9028585108357 ,42,6552995905422 ,38,8607231738965
16.5222889 ,Left ,63,9063076479173 ,42,7075469980452 ,38,8601220432686
16.5451115 ,Left ,63,8909867458485 ,42,727418776302 ,38,8587783645274
16.5824599 ,Left ,63,9316211135969 ,42,7361613362036 ,38,8542351722611
16.6049315 ,Left ,63,9260787915556 ,42,7254480317483 ,38,8462252941444
16.6424366 ,Left ,63,9209063887865 ,42,7295495402446 ,38,8256631935201
16.6650724 ,Left ,63,9422353193184 ,42,7569910564031 ,38,8139480097083
16.7024747 ,Left ,63,9717682486119 ,42,8495480416746 ,38,7682398840718
16.7247809 ,Left ,63,9688791043435 ,42,9180117896378 ,38,7471662338462
16.7622972 ,Left ,63,9336964158076 ,43,0303264239081 ,38,7345414067628
16.7772975 ,Left ,63,9015060681919 ,43,0501595423907 ,38,7301794663516
16.8072502 ,Left ,63,8467884066771 ,43,0079094751173 ,38,6994488402216
16.8297091 ,Left ,63,8636442900522 ,42,9525567313682 ,38,6568350037669
16.8600061 ,Left ,63,8444635929799 ,42,890183096133 ,38,6697195489215
16.8822963 ,Left ,63,8552117985551 ,42,8924956585439 ,38,5922710523664
16.904828 ,Left ,63,8968589188305 ,42,8503489526694 ,38,5176953249348
16.9198608 ,Left ,63,9179728136076 ,42,8067821357651 ,38,4750295077185
16.9422417 ,Left ,63,9200955447872 ,42,7673979438345 ,38,4417319994908
16.9647463 ,Left ,63,8784378112253 ,42,7351650159286 ,38,4250921607553
16.9798444 ,Left ,63,9251223755549 ,42,703227020388 ,38,4192203017835
17.0026427 ,Left ,63,9687876417977 ,42,6601963218888 ,38,4286846508267
17.025036 ,Left ,63,9863453757845 ,42,5496108619505 ,38,3962985971904
17.0399357 ,Left ,64,002966229171 ,42,4914650161494 ,38,3559774027321
17.0625697 ,Left ,64,0522811145907 ,42,4802472482099 ,38,2641371484543
17.0847594 ,Left ,64,0551830463082 ,42,4135373693356 ,38,2518664536659
17.0999899 ,Left ,64,0697982997128 ,42,4077413440978 ,38,2450819662573
17.1224842 ,Left ,64,0279748327798 ,42,4292817463189 ,38,255558147682
17.144747 ,Left ,64,0045796024943 ,42,4475780193919 ,38,274876844667
17.1598586 ,Left ,63,9827414708232 ,42,4901279154555 ,38,295360177649
17.1823899 ,Left ,63,9467106490716 ,42,5126361327138 ,38,3243341172387
17.2048095 ,Left ,63,8808307199202 ,42,5830938421851 ,38,3431230040132
17.2199178 ,Left ,63,7922263290397 ,42,6497393070247 ,38,3616516180978
17.2424848 ,Left ,63,7643035696654 ,42,7081070678763 ,38,3969845687249
17.2649931 ,Left ,63,7487410168009 ,42,7715886400329 ,38,4298660058362
17.2800126 ,Left ,63,7020588401725 ,42,8376832245759 ,38,4647524183518
17.3026003 ,Left ,63,6220324346697 ,42,9195187296382 ,38,4977814335305
17.3249016 ,Left ,63,5546443219533 ,42,9780189997468 ,38,5090209963533
17.3476674 ,Left ,63,5094691817218 ,43,0152686876742 ,38,5116736425995
17.3777267 ,Left ,63,4895191913164 ,43,0539132846865 ,38,523363291548
17.4072609 ,Left ,63,4702322169028 ,43,1029228660937 ,38,5446601255816
17.422261 ,Left ,63,4229784030568 ,43,1443031043655 ,38,5903414757922
17.4374769 ,Left ,63,3274044007332 ,43,2093141891942 ,38,6656107419554
17.4600377 ,Left ,63,2394236267377 ,43,3898707637989 ,38,7641926808099
17.4825517 ,Left ,63,2251725582253 ,43,4446790461744 ,38,785642807535
17.5047878 ,Left ,63,2676088468182 ,43,4079369263035 ,38,7877319390449
17.5275763 ,Left ,63,28803034176 ,43,2767532883994 ,38,7634353689749
17.5424481 ,Left ,63,3579404899797 ,43,0946279925576 ,38,7170712071304
17.5648999 ,Left ,63,3984038667544 ,42,9474354737027 ,38,6379500612707
17.5874304 ,Left ,63,490091972066 ,42,8435695564216 ,38,5518264028542
17.6024237 ,Left ,63,5914674030437 ,42,8332802319474 ,38,4646085919812
17.6249339 ,Left ,63,7102084883251 ,42,8888854715757 ,38,3529823470454
17.6472758 ,Left ,63,9041109759662 ,42,9901217513577 ,38,2432118508814
17.6697152 ,Left ,63,9933946226287 ,43,1205522722045 ,38,198754889307
17.6923263 ,Left ,63,9666662957916 ,43,246996058983 ,38,2310816188208
17.7148775 ,Left ,63,924015687341 ,43,3225988874636 ,38,2738147411536
17.7299393 ,Left ,63,9145539856319 ,43,3901070191857 ,38,263289007012
17.7450286 ,Left ,63,9265332663442 ,43,432439986705 ,38,2631134589901
17.7676448 ,Left ,63,9064771334738 ,43,5244747733492 ,38,2625833222121
17.7825326 ,Left ,63,8793046284613 ,43,5516757572733 ,38,2712010155424
17.8049252 ,Left ,63,904219976 ,43,4937845178332 ,38,294763044052
17.8278286 ,Left ,63,9612982130433 ,43,3568121365912 ,38,3005324842994
17.8423005 ,Left ,63,9619684775448 ,43,1766831398284 ,38,3177511754456
17.8648096 ,Left ,63,9400604168873 ,43,0324438410484 ,38,344452662098
17.8873698 ,Left ,63,9256398923817 ,42,9668234912216 ,38,3559277364303
17.9098168 ,Left ,63,9330099979992 ,42,9125152367397 ,38,3444322256399
17.932269 ,Left ,63,950251490705 ,42,8647166351289 ,38,34623215111
17.9623371 ,Left ,63,906718414362 ,42,7211395666556 ,38,3815694772434
17.9850413 ,Left ,63,9850870019884 ,42,755023163684 ,38,4005716447449
18.0074076 ,Left ,64,075854462012 ,42,8034633926212 ,38,3998342359881
18.0224558 ,Left ,64,0553091976764 ,42,7401148749933 ,38,4985562714041
18.0450562 ,Left ,64,1980030315153 ,42,7574593144227 ,38,5126603566678
18.0677626 ,Left ,64,231996487414 ,42,7293389277545 ,38,5632183238265
18.0826793 ,Left ,64,1329023798294 ,42,7109214170931 ,38,5947794505941
18.1047607 ,Left ,64,0842252627759 ,42,6844651384479 ,38,6403723557309
18.1273064 ,Left ,64,0585408202916 ,42,6707701150908 ,38,6929425253715
18.1424499 ,Left ,64,0641676127023 ,42,6828473115592 ,38,7334281078369
18.1647937 ,Left ,64,1178051252044 ,42,7450792983141 ,38,7368313375203
18.1948418 ,Left ,64,2416213258158 ,42,825079286682 ,38,7021361391006
18.2097901 ,Left ,64,4569607320131 ,42,9015332122024 ,38,6527862177783
18.2322275 ,Left ,64,6470641141792 ,42,9849753969438 ,38,5855187104925
18.2473159 ,Left ,64,7910332977372 ,43,0260956461761 ,38,524437460313
18.2625735 ,Left ,64,9231143615307 ,43,0342098692923 ,38,4698767794271
18.2849399 ,Left ,64,9674500616676 ,43,0266956603949 ,38,4364518968476
18.3077767 ,Left ,65,0298082593271 ,43,0754019187649 ,38,3888809283447
18.3225055 ,Left ,65,0032130980271 ,43,0830990280024 ,38,3832023080515
18.344931 ,Left ,64,9934509271898 ,43,0967030094135 ,38,3742352159288
18.367532 ,Left ,64,9756933619615 ,43,0917099758892 ,38,3671502651856
18.3824353 ,Left ,64,9548630247806 ,43,0854028562398 ,38,3579890941073
18.4048641 ,Left ,64,9525357602849 ,43,0894312750978 ,38,3360087138792
18.4277307 ,Left ,64,9443450949967 ,43,0912176251636 ,38,3083462805991
18.4427679 ,Left ,64,927884053321 ,43,114378702411 ,38,2933770647147
18.4723823 ,Left ,64,9308277018336 ,43,1523925626964 ,38,2864518876566
18.5024468 ,Left ,64,9254306220917 ,43,2045468318408 ,38,2837403745262
18.5172973 ,Left ,64,9026038235833 ,43,25816256032 ,38,2886882314116
18.5323084 ,Left ,64,8501729118115 ,43,3234443996203 ,38,3026437080848
18.5623148 ,Left ,64,7754178485357 ,43,3986119611994 ,38,2800690355092
18.5848115 ,Left ,64,7754773280706 ,43,38342375121 ,38,2807084746776
18.6075836 ,Left ,64,7111305582779 ,43,3036139890112 ,38,3432500269004
18.6224339 ,Left ,64,6772205876008 ,43,2331010312155 ,38,3104424976037
18.6455255 ,Left ,64,696420541716 ,43,1863863083436 ,38,1900000361267
18.668235 ,Left ,64,7377471200835 ,43,1064124187047 ,38,0900678381494
18.6904422 ,Left ,64,7335060970034 ,43,083661436261 ,38,0307971839936
18.7055197 ,Left ,64,6900719485717 ,43,0452412489785 ,38,019817191414
18.7278445 ,Left ,64,6555814579241 ,43,008003810596 ,38,0195810178477
18.7502521 ,Left ,64,6688712053865 ,42,9729303432959 ,38,0174663461784
18.7652142 ,Left ,64,7008622825935 ,42,9407866466924 ,38,0506213427424
18.7950156 ,Left ,64,7061282040901 ,42,907722684691 ,38,0207101715835
18.8176484 ,Left ,64,6688683038839 ,42,8642376682139 ,37,9840205638848
18.8322343 ,Left ,64,6483480750648 ,42,8573725470153 ,37,9976676374589
18.8475852 ,Left ,64,6080156458279 ,42,8438349972938 ,37,9835864994798
18.8700621 ,Left ,64,563439682964 ,42,792548161569 ,38,0027774499536
18.8850125 ,Left ,64,5094755210843 ,42,7466330009824 ,38,0218890200337
18.9076823 ,Left ,64,4989604574773 ,42,7604648766899 ,38,0704850946213
18.9300434 ,Left ,64,4370561966902 ,42,8649538790854 ,38,0872282824493
18.9447999 ,Left ,64,3712280238088 ,42,9559639953149 ,38,113640706056
18.9672733 ,Left ,64,3458753004424 ,43,0306474753556 ,38,1736881823606
18.989908 ,Left ,64,2871298189618 ,43,074569999184 ,38,2526501522795
19.005076 ,Left ,64,1494476937475 ,43,1569210263115 ,38,3257962367538
19.0276289 ,Left ,64,0198838014494 ,43,2656113911727 ,38,4312256012672
19.0579185 ,Left ,63,9494196147561 ,43,4080503967694 ,38,5220415852775
19.0725743 ,Left ,63,871268499277 ,43,5318870969955 ,38,629564600129
19.0950824 ,Left ,63,7426510792392 ,43,6485776657208 ,38,7460867642409
19.1251261 ,Left ,63,5269361603783 ,43,7211818793044 ,38,927578221903
19.1479395 ,Left ,63,4834587313913 ,43,758890294218 ,38,9596947523529
19.1702936 ,Left ,63,4651718634004 ,43,788483905875 ,38,9430693589997
19.1852883 ,Left ,63,4995272149322 ,43,7461937535617 ,38,9297524106123
19.2076782 ,Left ,63,5443371247901 ,43,6236957319736 ,38,860487961637
19.2301755 ,Left ,63,5995109433394 ,43,4650758511182 ,38,7661035540524
19.2451584 ,Left ,63,7056601318593 ,43,3886387893659 ,38,6743683689104
19.2678233 ,Left ,63,8177732484618 ,43,3695693094782 ,38,5531100873684
19.2977067 ,Left ,63,9538216236592 ,43,3369649404417 ,38,4648043390785
19.3126039 ,Left ,64,0398062270212 ,43,3353165894354 ,38,4607749673783
19.3422857 ,Left ,64,0897992198635 ,43,3190571786765 ,38,4741122631366
19.3575492 ,Left ,64,1339755073379 ,43,3810648379919 ,38,4611677056125
19.3800084 ,Left ,64,1201492207392 ,43,4550965951473 ,38,5036336998902
19.3949372 ,Left ,64,1466753723135 ,43,4966700688786 ,38,5634661468345
19.4099701 ,Left ,64,1590268634317 ,43,5488831493297 ,38,5573718694549
19.4327093 ,Left ,64,1610974006042 ,43,4933652993579 ,38,5652801293848
19.4473108 ,Left ,64,2101524109168 ,43,3162385966036 ,38,5605725264259
19.4699701 ,Left ,64,2789793027474 ,43,1016519376869 ,38,5566785006617
19.4922799 ,Left ,64,2834349630396 ,42,9549727171693 ,38,556993071097
19.5074243 ,Left ,64,2401271559246 ,42,8998828423741 ,38,530335001254
19.5304785 ,Left ,64,2254704992939 ,42,8737518896278 ,38,4832237718882
19.552206 ,Left ,64,2538036467283 ,42,8361466164607 ,38,4675501414568
19.567463 ,Left ,64,2734095269296 ,42,8002628388019 ,38,4606321882516
19.5974877 ,Left ,64,2130329664794 ,42,7565663575791 ,38,4699917719343
19.6198926 ,Left ,64,2675024990479 ,42,7237632763914 ,38,5259127686409
19.6348705 ,Left ,64,3835669220147 ,42,8261524361299 ,38,5016575958333
19.6498368 ,Left ,64,4240661663581 ,42,8988603238584 ,38,5142398353103
19.6723767 ,Left ,64,4080260912689 ,42,876109267924 ,38,5761976843471
19.6875662 ,Left ,64,4221082146906 ,42,8307091767053 ,38,6229684110882
19.7101995 ,Left ,64,3954489130564 ,42,8154707586905 ,38,6048365856725
19.7320699 ,Left ,64,3462041988351 ,42,7996628237451 ,38,5814849036165
19.7473588 ,Left ,64,3150818031122 ,42,7446445387875 ,38,5931420187648
19.7698119 ,Left ,64,3433946620545 ,42,697352450734 ,38,6060273144319
19.7922854 ,Left ,64,3386253366271 ,42,6695352206114 ,38,5994008144028
19.8074363 ,Left ,64,3077849321608 ,42,6582635677482 ,38,5874471757486
19.829706 ,Left ,64,2564244853284 ,42,661684473694 ,38,575676634249
19.8525404 ,Left ,64,222077530847 ,42,6667324730889 ,38,5762398775393
19.8673207 ,Left ,64,2107728870314 ,42,6798764745335 ,38,5720648488098
19.8899333 ,Left ,64,1920184792986 ,42,6982992835264 ,38,5690719226115
19.9123489 ,Left ,64,172255775845 ,42,7331568262538 ,38,5663794476061
19.9274148 ,Left ,64,1457032298029 ,42,7897486557692 ,38,5552829815362
19.9499204 ,Left ,64,1167237514022 ,42,8624200309527 ,38,5311900987871
19.9725558 ,Left ,64,1092672596626 ,42,9060860264044 ,38,5213834406103
19.9876216 ,Left ,64,1229741151084 ,42,9196862216016 ,38,5164918427414
20.0099641 ,Left ,64,1111243530544 ,42,9116716756031 ,38,5099887812041
20.0325734 ,Left ,64,072578802965 ,42,8850306925158 ,38,5129300887733
20.0475352 ,Left ,64,0817892084743 ,42,8601152396061 ,38,4959305552888
20.0699497 ,Left ,64,100791579027 ,42,8447779797824 ,38,4713901047922
20.0925795 ,Left ,64,1225927569886 ,42,8715020884826 ,38,4475710367543
20.1076796 ,Left ,64,1550577635366 ,42,91524010877 ,38,4222676448471
20.1300904 ,Left ,64,1400790095077 ,42,9626529801883 ,38,4152557814168
20.1522158 ,Left ,64,1200564907528 ,43,0323771991476 ,38,4061251879105
20.1749828 ,Left ,64,0719324472593 ,43,0868068043669 ,38,4178394834178
20.1975797 ,Left ,64,0163653445251 ,43,128420503084 ,38,4295620140935
20.2274098 ,Left ,64,0387906585184 ,43,0440366287013 ,38,373663068975
20.2498387 ,Left ,64,0589857940347 ,42,98524548371 ,38,3751217496359
20.2725027 ,Left ,64,0308602821736 ,42,9409749060621 ,38,3668915413998
20.2874787 ,Left ,64,0340374029491 ,42,9297515378059 ,38,2621736255734
20.309979 ,Left ,64,1116582866762 ,42,9117146425507 ,38,1560140152603
20.3326648 ,Left ,64,1490430077436 ,42,8937000626241 ,38,1178177620084
20.3476957 ,Left ,64,1068381078097 ,42,9197324623721 ,38,0895472307413
20.3700271 ,Left ,64,0863761324219 ,42,8870769435948 ,38,1004439957869
20.3927285 ,Left ,64,0579606247763 ,42,9144090982925 ,38,1104835974378
20.4148576 ,Left ,64,0681216957039 ,42,876570174257 ,38,1247762028955
20.430535 ,Left ,64,0898684827197 ,42,8007064816263 ,38,1273317023275
20.4529279 ,Left ,64,0496745813596 ,42,714290989036 ,38,0534966615724
20.4680637 ,Left ,64,0506910131677 ,42,6779037483906 ,38,0380817746285
20.4905049 ,Left ,64,0169006562636 ,42,6459856816448 ,38,0138352587111
20.5128515 ,Left ,63,9320578935723 ,42,5728196402313 ,38,0473022834778
20.5351258 ,Left ,63,913041298017 ,42,5799517446795 ,38,0520623236058
20.5501796 ,Left ,63,8882555591415 ,42,6587189592811 ,38,0813883983545
20.5728098 ,Left ,63,8451459593544 ,42,7512176083045 ,38,1005576324375
20.5951379 ,Left ,63,8118774556473 ,42,8423805762946 ,38,1373519970293
20.6102697 ,Left ,63,7864104368226 ,42,9097177378469 ,38,2190218347976
20.6330549 ,Left ,63,7128909604675 ,43,0093048272726 ,38,2639824529677
20.6553763 ,Left ,63,6349302251397 ,43,0833333005319 ,38,3415949410195
20.6775937 ,Left ,63,5720137053569 ,43,2063525300292 ,38,4225068216288
20.7000943 ,Left ,63,5521024552394 ,43,3143172100815 ,38,5238827931372
20.722804 ,Left ,63,4791453275085 ,43,426509098606 ,38,6263674889669
20.7375324 ,Left ,63,3789572687453 ,43,4990737033914 ,38,6950704747528
20.7529032 ,Left ,63,296499485773 ,43,5372833750469 ,38,7462044231871
20.775162 ,Left ,63,2585671216098 ,43,5573164605563 ,38,7899612665901
20.790388 ,Left ,63,2476514210994 ,43,5753920107348 ,38,7603663090499
20.8128735 ,Left ,63,2947666573269 ,43,5507076649476 ,38,715545767376
20.8351545 ,Left ,63,3582763080769 ,43,4860420315617 ,38,6443961027908
20.8500884 ,Left ,63,460686444415 ,43,4654326692188 ,38,5609462654101
20.8725974 ,Left ,63,5308296356313 ,43,4937076270099 ,38,5182513264893
20.8951266 ,Left ,63,6176868389151 ,43,5277559673421 ,38,4905118737017
20.9101496 ,Left ,63,6870025800119 ,43,5466786431176 ,38,4682511239651
20.9325554 ,Left ,63,7157672830397 ,43,5482728068885 ,38,4923097570547
20.9624383 ,Left ,63,7740218265933 ,43,5289899710465 ,38,5172409215945
20.9772655 ,Left ,63,8039441185694 ,43,5098006665223 ,38,5209994481204
20.9998533 ,Left ,63,8452142014337 ,43,5149839700522 ,38,4882817128647
21.0149153 ,Left ,63,8665535464305 ,43,5161070737741 ,38,4718981084337
21.0299783 ,Left ,63,9033293151311 ,43,4566402720394 ,38,476737595725
21.0524724 ,Left ,63,9727912244029 ,43,3748518275017 ,38,4821967707228
21.0747888 ,Left ,64,0169550036138 ,43,25750475686 ,38,4846330458635
21.0899003 ,Left ,64,032972989342 ,43,0898399989399 ,38,468357456348
21.1127202 ,Left ,64,0314829870996 ,42,9042914447455 ,38,4849672888328
21.134945 ,Left ,64,0113249249604 ,42,8083480608969 ,38,4889994035356
21.1574806 ,Left ,63,9770300671071 ,42,7501118896482 ,38,4555303584918
21.172523 ,Left ,63,981104176375 ,42,7021373812196 ,38,4507263948744
21.1950861 ,Left ,63,984529484864 ,42,6630275776059 ,38,4599759298849
21.2100999 ,Left ,63,9364909425878 ,42,6333798525642 ,38,4564199223578
21.2400581 ,Left ,63,9366053641076 ,42,6108661688843 ,38,4941471163057
21.2629129 ,Left ,63,9951680894891 ,42,6745891315412 ,38,5164722919083
21.2781674 ,Left ,64,072257018244 ,42,7691596168568 ,38,5073503977813
21.292965 ,Left ,64,0947100403257 ,42,8028663364667 ,38,5484320523677
21.3155565 ,Left ,64,1047293337116 ,42,7823281723999 ,38,5991633076299
21.3305558 ,Left ,64,0873705240935 ,42,7608367244365 ,38,6169654344737
21.3526005 ,Left ,64,045048937915 ,42,7532245486728 ,38,5954766480548
21.3750406 ,Left ,64,0130424805186 ,42,7343135882951 ,38,5956666636241
21.3900027 ,Left ,64,0222126265354 ,42,7212524329774 ,38,6280609480629
21.4123539 ,Left ,64,0486996396549 ,42,6867115956415 ,38,6647025569864
21.4346881 ,Left ,64,0109384973593 ,42,663912930874 ,38,7012927391185
21.4499734 ,Left ,63,9945360237352 ,42,669157157871 ,38,7196133149293
21.4724622 ,Left ,63,9942246694254 ,42,6974619615231 ,38,6986526861395
21.4949287 ,Left ,64,0360325411239 ,42,7126319593367 ,38,6721927131028
21.5172629 ,Left ,64,0375871963718 ,42,7135051086971 ,38,638319755054
21.5325327 ,Left ,64,0203454023166 ,42,7054171630861 ,38,6112471845776
21.5549258 ,Left ,64,0154249034614 ,42,6960213622991 ,38,5831844095996
21.5775117 ,Left ,63,9977442999184 ,42,6996596374087 ,38,5605421753554
21.592662 ,Left ,64,0030419304617 ,42,7036107656096 ,38,5424412273981
21.6151162 ,Left ,64,0165246683867 ,42,7299580770036 ,38,5286626792668
21.6374685 ,Left ,63,9993426605711 ,42,7656225814847 ,38,5184378503232
21.6525294 ,Left ,64,0032359346119 ,42,8027963342486 ,38,5162918912858
21.6750557 ,Left ,64,0091595777443 ,42,8324991897832 ,38,5119256448093
21.6977847 ,Left ,63,9778027218778 ,42,8408727614255 ,38,5127486673174
21.7126719 ,Left ,63,9745145430778 ,42,8354366287291 ,38,5044350600185
21.7351654 ,Left ,63,9638693569176 ,42,8213443322851 ,38,4964534848436
21.7575418 ,Left ,63,9707570302542 ,42,7954393348078 ,38,4866668425982
21.7726928 ,Left ,63,9703940073197 ,42,77237984466 ,38,4746245675978
21.7949432 ,Left ,63,9626808277041 ,42,7712656076734 ,38,4611015837717
21.8174892 ,Left ,63,9630372981913 ,42,7576149588857 ,38,4649595972084
21.8326197 ,Left ,63,9790683678712 ,42,7707834284168 ,38,4544786290231
21.8554682 ,Left ,64,0103586515372 ,42,8022941858931 ,38,4409476497567
21.8780246 ,Left ,64,0222672734863 ,42,8450025957627 ,38,4115295758858
21.8928896 ,Left ,64,0298292486842 ,42,9139275625892 ,38,3731148386786
21.9154476 ,Left ,64,0266244170624 ,42,9952155486167 ,38,3589662254963
21.938342 ,Left ,64,0381038941422 ,43,0517538897896 ,38,3485631825114
21.9528295 ,Left ,63,9953581417857 ,43,0859976457483 ,38,3472379116513
21.975223 ,Left ,63,9686909479125 ,43,0912641550272 ,38,3512769667298
21.9979552 ,Left ,63,9869473105641 ,43,0376250127552 ,38,3223060999603
22.0128755 ,Left ,64,0022747604306 ,42,9292180859281 ,38,3150528112305
22.0352092 ,Left ,63,9923416990866 ,42,8467333778026 ,38,3991982424859
22.0653171 ,Left ,63,9378224493645 ,42,8733878957901 ,38,3850248108506
22.0801481 ,Left ,63,8810065417058 ,42,9594816549306 ,38,2991549210918
22.1026882 ,Left ,63,908922706966 ,43,0103086591597 ,38,258801525684
22.1327637 ,Left ,63,9300140923382 ,43,0178952621844 ,38,2070023909479
22.1549967 ,Left ,63,8364155671109 ,43,0144282246986 ,38,2189441043131
22.1772583 ,Left ,63,8188880226444 ,42,9474828574507 ,38,2581405001879
22.192281 ,Left ,63,8328808700149 ,42,896572260762 ,38,2664774978216
22.2148946 ,Left ,63,9142656508521 ,42,8553751339834 ,38,2760465801642
22.2376606 ,Left ,63,9345530600711 ,42,7992749373631 ,38,2517365307822
22.2527329 ,Left ,63,9062795974748 ,42,7041441929739 ,38,1915964680353
22.2752061 ,Left ,63,9497565634908 ,42,7083387086477 ,38,151501677123
22.297297 ,Left ,63,9687033221982 ,42,7107418835623 ,38,0954190990835
22.3123404 ,Left ,63,9829054579405 ,42,6722945730308 ,38,0666676235913
22.3350039 ,Left ,63,9488365064938 ,42,618919015544 ,38,0630197257704
22.3574612 ,Left ,63,9662549181313 ,42,6484684991246 ,38,1196514760921
22.3723633 ,Left ,63,9344178232502 ,42,7469869152051 ,38,1035766023795
22.4025297 ,Left ,63,8983798479159 ,42,8164673966189 ,38,1391188689834
22.4248831 ,Left ,63,8491557778409 ,42,8905930555409 ,38,220603955023
22.4547953 ,Left ,63,594409076751 ,43,0530481299731 ,38,4021229533128
22.4774965 ,Left ,63,5411439121691 ,43,1965148330934 ,38,5168890920088
22.4998466 ,Left ,63,5049899519862 ,43,3417494006752 ,38,6542828289861
22.5150104 ,Left ,63,3472878900961 ,43,4775507787795 ,38,8097597494138
22.5376605 ,Left ,63,2363717104345 ,43,5463271281389 ,38,8660644723563
22.5600791 ,Left ,63,1866975076855 ,43,5863625788791 ,38,9125218928476
22.5747142 ,Left ,63,1617000224624 ,43,6529821504106 ,38,9387535250051
22.5973746 ,Left ,63,2009461886341 ,43,6439796059003 ,38,8826822074691
22.6198679 ,Left ,63,2653289734064 ,43,5755691785696 ,38,792181118916
22.6273672 ,Left ,63,3366778452961 ,43,4619870756472 ,38,6534747637815
22.6499192 ,Left ,63,4747337909665 ,43,4235835586785 ,38,5253690289557
22.6727182 ,Left ,63,6366824517462 ,43,4627025794039 ,38,4095066537748
22.6878108 ,Left ,63,7627232874577 ,43,4446415196583 ,38,335337133733
22.710436 ,Left ,63,8415272813853 ,43,4279526199364 ,38,3446359292085
22.7330458 ,Left ,63,8671148612352 ,43,4268911518519 ,38,386379407625
22.7482295 ,Left ,63,8839071255376 ,43,433219238692 ,38,3880218167829
22.7706113 ,Left ,63,9293007633181 ,43,488382901336 ,38,3979851387562
22.8077708 ,Left ,63,9498666283882 ,43,4530907396038 ,38,4168510768331
22.8302275 ,Left ,63,9778489054242 ,43,3359058511974 ,38,4143513569595
22.8527324 ,Left ,64,0088828904832 ,43,1548746738769 ,38,3991506651607
22.8675844 ,Left ,64,0225962270094 ,42,9650940841264 ,38,4056262162048
22.8901395 ,Left ,64,0154750149535 ,42,8812859407512 ,38,4200843714063
22.9127538 ,Left ,63,9628225244598 ,42,8236066462511 ,38,4212282944012
22.9274968 ,Left ,63,9665136019392 ,42,7679113185694 ,38,4035421781572
22.9497935 ,Left ,63,9582188576487 ,42,69801532919 ,38,3875162782751
22.9873049 ,Left ,63,9779478428098 ,42,621347331763 ,38,428987903172
23.0100767 ,Left ,64,0941627715599 ,42,7342326057276 ,38,4187745829945
23.0325821 ,Left ,64,1570461556204 ,42,8293477005414 ,38,4045162874701
23.0472804 ,Left ,64,1732457276887 ,42,831677165696 ,38,4469813730316
23.0698246 ,Left ,64,2251170276028 ,42,8012689039802 ,38,4667167084734
23.0923481 ,Left ,64,2157317173964 ,42,7539207431797 ,38,4378191378581
23.1297727 ,Left ,64,1473642863755 ,42,681572919496 ,38,3532869069822
23.1748731 ,Left ,64,1644088691889 ,42,5545265756658 ,38,4044831425223
23.2054842 ,Left ,64,1351299842798 ,42,5191942880317 ,38,4174162527254
23.2356405 ,Left ,64,1118726501109 ,42,5061584341887 ,38,383493829728
23.2506431 ,Left ,64,1165142202206 ,42,511745874584 ,38,3597537660961
23.2651665 ,Left ,64,0983535949681 ,42,5116530159565 ,38,3487483880401
23.2877651 ,Left ,64,0854543747332 ,42,5148544840813 ,38,3375645346268
23.310066 ,Left ,64,2085976943581 ,42,5368475201179 ,38,2655497879584
23.3250854 ,Left ,64,2013976129736 ,42,5662051961376 ,38,2596747052985
23.347414 ,Left ,64,3985244197315 ,42,5870998925516 ,38,159011226229
23.3700336 ,Left ,64,2692465534101 ,42,5880346045138 ,38,2236019014541
23.3849233 ,Left ,64,2712870924636 ,42,6101431295313 ,38,2372374257256
23.4077272 ,Left ,64,3992607719252 ,42,6177250740679 ,38,182460523279
23.4298473 ,Left ,64,18597906531 ,42,6487340828118 ,38,2789920846692
23.452479 ,Left ,64,0494146742997 ,42,5913590252124 ,38,3253769909437
23.474699 ,Left ,64,0105388434279 ,42,59663125447 ,38,3596094348292
23.4981475 ,Left ,64,0221160856988 ,42,6126101750282 ,38,3569387363758
23.5050169 ,Left ,64,0180343179483 ,42,6510558923362 ,38,3498627626686
23.5279478 ,Left ,64,042637578473 ,42,695408704543 ,38,3435017906183
23.5502986 ,Left ,64,0438373126928 ,42,7696121280229 ,38,326247948268
23.5649758 ,Left ,64,0203967435331 ,42,859470121921 ,38,3181262637989
23.587434 ,Left ,63,8826229750645 ,42,8814467863606 ,38,3543900873401
23.6099782 ,Left ,63,9019106396245 ,42,9249383433462 ,38,3337464848838
23.6250069 ,Left ,63,7595777115639 ,42,867564239798 ,38,3678393662099
23.6476018 ,Left ,63,7279733081033 ,42,8191183616122 ,38,3681644948511
23.6698423 ,Left ,63,7269747823757 ,42,7375232678406 ,38,3706237391376
23.684829 ,Left ,63,6722177850388 ,42,6985049405541 ,38,4302921039421
23.7072125 ,Left ,63,6342137690663 ,42,7116969164424 ,38,3618200843819
23.7298619 ,Left ,63,6698409537976 ,42,7448722203837 ,38,2771944732115
23.7448987 ,Left ,63,733805799159 ,42,7327928524975 ,38,2209555785181
23.7749402 ,Left ,63,7638252385886 ,42,75431260184 ,38,1820197930991
23.7978196 ,Left ,63,7091569734627 ,42,7705852234901 ,38,1577262605913
23.8123316 ,Left ,63,6857294972418 ,42,7454498694257 ,38,1786387566645
23.8273277 ,Left ,63,6239614484885 ,42,7552535450432 ,38,1743167831942
23.8500366 ,Left ,63,6204201793627 ,42,7232255475498 ,38,1589048274176
23.864972 ,Left ,63,6929031203185 ,42,684651037116 ,38,1935994563339
23.8873009 ,Left ,63,7509833685005 ,42,6471654513296 ,38,1324674211171
23.9097936 ,Left ,63,7328225619693 ,42,6018326980254 ,38,1020641925482
23.9248012 ,Left ,63,7447802649944 ,42,6068135145988 ,38,0773981168146
23.9473077 ,Left ,63,7292768480269 ,42,596330208759 ,38,0553088481541
23.9698492 ,Left ,63,733785643305 ,42,5660345415816 ,38,0465544029183
23.9849283 ,Left ,63,7327149239043 ,42,5173816646775 ,38,0458871075914
24.0076823 ,Left ,63,763755681623 ,42,5408675562071 ,38,0641796953173
24.037853 ,Left ,63,7654692576391 ,42,6177037272329 ,38,0522422390791
24.0525904 ,Left ,63,7470126313622 ,42,7151939677186 ,38,0546856374154
24.075307 ,Left ,63,7172180569592 ,42,7832144877291 ,38,1047205335656
24.0902164 ,Left ,63,6515063766901 ,42,8348672841589 ,38,169023613713
24.112751 ,Left ,63,5978380829976 ,42,9241557791256 ,38,2389455317551
24.1503547 ,Left ,63,4867949475603 ,43,1944322340683 ,38,3943414154945
24.1725098 ,Left ,63,4174467425156 ,43,3258100912576 ,38,4604813646883
24.2098051 ,Left ,63,2887804033788 ,43,4153785924435 ,38,5039039539595
24.2322754 ,Left ,63,2361697337441 ,43,4176299859363 ,38,5532871149382
24.2699972 ,Left ,63,3106552964773 ,43,5222499598125 ,38,5386401326955
24.3077955 ,Left ,63,3843667839275 ,43,4870398696353 ,38,4784447810525
24.3896659 ,Left ,63,7552548079503 ,43,496886249944 ,38,2659869771049
24.4124124 ,Left ,63,7652155938123 ,43,4515017598213 ,38,2837508076187
24.4498303 ,Left ,63,8260014034895 ,43,4783784541327 ,38,2751111270425
24.4723946 ,Left ,63,7951814074413 ,43,5386228994306 ,38,288810264665
24.5098473 ,Left ,63,8035809614073 ,43,4756941943514 ,38,3204470039256
24.5321732 ,Left ,63,8403491136279 ,43,3080189589934 ,38,2977217597305
24.577312 ,Left ,63,8509920179167 ,42,9383412792723 ,38,2565615726143
24.5997526 ,Left ,63,8523928261396 ,42,8210837167824 ,38,1983258069548
24.6297334 ,Left ,63,8616121918743 ,42,6653694009593 ,38,1002200314177
24.6531185 ,Left ,63,8884703321463 ,42,6172226904087 ,38,0909709225353
24.6904513 ,Left ,63,8654127533453 ,42,4679700714023 ,38,101840034418
24.7126875 ,Left ,64,0138967134039 ,42,5152685784363 ,38,1102127821227
24.7499326 ,Left ,64,1563448626335 ,42,6690225315125 ,38,0858618842398
24.7731599 ,Left ,64,139511426477 ,42,6432436682338 ,38,1356626686372
24.8101387 ,Left ,64,110887960817 ,42,5679458199051 ,38,1108146958507
24.8324876 ,Left ,64,1067029064599 ,42,5186866097785 ,38,10153170859
24.8700208 ,Left ,64,141081694643 ,42,4216672655688 ,38,1323944578452
24.8923567 ,Left ,64,1086923759991 ,42,4129724429736 ,38,1161101498289
24.9301231 ,Left ,64,0355651906531 ,42,4377431472561 ,38,0821977554699
24.9528315 ,Left ,64,026328899087 ,42,4788524007693 ,38,067227528979
24.9903045 ,Left ,64,0270597983865 ,42,560346103707 ,38,0633054232055
25.012712 ,Left ,64,0208562231206 ,42,5923340835236 ,38,0514540740836
25.0501712 ,Left ,64,03603060739 ,42,6164915747577 ,38,0469169279482
25.0727293 ,Left ,64,0649840564405 ,42,6272864864092 ,38,0410698822751
25.1097859 ,Left ,64,0630267120052 ,42,6100110391269 ,38,0439950951955
25.1325011 ,Left ,64,0534489533805 ,42,5898743523966 ,38,0526565418577
25.1698531 ,Left ,64,0874550256856 ,42,5933134906356 ,38,0430970654677
25.1922167 ,Left ,64,107760461933 ,42,6259685226349 ,38,0436120601286
25.2303334 ,Left ,64,143957153504 ,42,8065025548993 ,38,0475185699058
25.2529333 ,Left ,64,1147719387796 ,42,8950510047345 ,38,0707705294966
25.2904795 ,Left ,64,011104115501 ,43,0381847666746 ,38,1545363561814
25.3129539 ,Left ,63,9849933401062 ,43,0665772056557 ,38,175329533782
25.3500397 ,Left ,63,9208817963474 ,42,9197692447574 ,38,262407301177
25.3725816 ,Left ,63,7918396724778 ,42,8443336148227 ,38,3768347116774
25.4176812 ,Left ,63,9668796503672 ,42,9788167006676 ,38,1831829893386
25.4398947 ,Left ,64,1289558821429 ,43,0206083373089 ,38,1126584948307
25.4923764 ,Left ,64,5815322374103 ,43,1504954707033 ,37,8655850741747
25.5298414 ,Left ,64,822995797707 ,43,1301667100399 ,37,7065679853429
25.5523094 ,Left ,64,8906352075742 ,43,0315336244638 ,37,7171354802134
25.5748242 ,Left ,64,8031244127398 ,42,9208148984752 ,37,6831907281814
25.6123019 ,Left ,64,4367847686183 ,42,7879399536682 ,37,724605986043
25.6346507 ,Left ,64,2290109260545 ,42,7390322899754 ,37,755125657744
25.6798804 ,Left ,64,1631134022757 ,42,7131283552446 ,37,7130438676863
25.7249083 ,Left ,64,134026951729 ,42,940940903925 ,37,7440688542081
25.7925313 ,Left ,63,8759324682461 ,43,2556169996724 ,37,9075783876519
25.8147426 ,Left ,63,8534210688181 ,43,3334648944487 ,37,9576021359797
25.8525152 ,Left ,63,7424647703886 ,43,4467225007181 ,38,0365756064682
25.8752925 ,Left ,63,668158050663 ,43,4683803268793 ,38,1050371889468
25.912892 ,Left ,63,6416266099728 ,43,4423194589199 ,38,0878856168776
25.9581028 ,Left ,63,7227267914327 ,43,2366747744746 ,37,9815982116087
25.9802242 ,Left ,63,7988627912077 ,43,1871897331443 ,37,8808308074968
26.0327401 ,Left ,64,1598062974374 ,43,3404492006659 ,37,7384375892696
26.0551072 ,Left ,64,1740479500811 ,43,3854715692249 ,37,7981850766987
26.0927196 ,Left ,64,1015610283205 ,43,3297878286515 ,37,8782968381127
26.130202 ,Left ,64,1543411864246 ,43,3801741454185 ,37,8850872656783
26.1524173 ,Left ,64,1447812929484 ,43,3276070085003 ,37,910486158275
26.1825638 ,Left ,64,2011817190796 ,43,1099532167375 ,37,9414413895885
26.2051707 ,Left ,64,2293094700596 ,42,9404668396474 ,37,9451903706568
26.2277177 ,Left ,64,2432482356746 ,42,8365222149844 ,37,9170470552151
26.250193 ,Left ,64,2236538440688 ,42,7647039795676 ,37,8718666437345
26.2728255 ,Left ,64,1839317140998 ,42,6897056136242 ,37,8356101535586
26.2947593 ,Left ,64,1860343471061 ,42,6103123529821 ,37,8368292117892
26.3172842 ,Left ,64,1585816037299 ,42,5187547085705 ,37,8525832830034
26.3323101 ,Left ,64,0968781885582 ,42,4442994980379 ,37,853403051366
26.3474063 ,Left ,64,1201012318044 ,42,3737549744141 ,37,9032593128319
26.3699813 ,Left ,64,2035163069593 ,42,4510638674401 ,37,8905989329053
26.3851293 ,Left ,64,2293495604553 ,42,5350816466645 ,37,8826511508694
26.4075099 ,Left ,64,2117895746181 ,42,553743657663 ,37,9364840324498
26.4299609 ,Left ,64,2012221298887 ,42,5157401311915 ,37,9907572566677
26.4450615 ,Left ,64,2098074072171 ,42,463950638341 ,38,0203346775487
26.467369 ,Left ,64,1942561553905 ,42,448527968514 ,38,0045426780258
26.4898491 ,Left ,64,1835489170438 ,42,4372304050241 ,38,0051340057994
26.5048897 ,Left ,64,2016948829501 ,42,4416657109005 ,38,0387877395058
26.5351636 ,Left ,64,2114083690004 ,42,437924638634 ,38,0805202529278
26.557489 ,Left ,64,1774907117058 ,42,4162281344441 ,38,1166951091277
26.5724804 ,Left ,64,1347166074807 ,42,4379438411862 ,38,1120400523166
26.5876252 ,Left ,64,1282189601324 ,42,4685878154628 ,38,0859894843842
26.610103 ,Left ,64,1135700485386 ,42,4823051799814 ,38,0721593110197
26.6250033 ,Left ,64,1122540332939 ,42,4870601150412 ,38,0640421239217
26.6478043 ,Left ,64,1040067509326 ,42,488632595167 ,38,0545744303294
26.6701897 ,Left ,64,0830173577752 ,42,4839877517822 ,38,0446911249325
26.6850687 ,Left ,64,0835755739873 ,42,515256074543 ,38,0228007940949
26.7077708 ,Left ,64,0821912350184 ,42,5741869474319 ,38,0006460727426
26.7299392 ,Left ,64,1064518910865 ,42,6336936674935 ,37,9982963081817
26.7448255 ,Left ,64,0902349567429 ,42,6789677413155 ,38,0179229966753
26.7675707 ,Left ,64,0663689976933 ,42,7092693536426 ,38,0349742305938
26.8048304 ,Left ,64,0451481562356 ,42,7380335481522 ,38,047607360154
26.8197974 ,Left ,64,0546496414967 ,42,7342344552502 ,38,062348311131
26.8426294 ,Left ,64,0756846994329 ,42,7284280195661 ,38,0735257884123
26.8651083 ,Left ,64,1122937225439 ,42,7274725558346 ,38,0854979753317
26.8873098 ,Left ,64,1351210533649 ,42,7318628842822 ,38,0969508513949
26.9098663 ,Left ,64,1493472477257 ,42,7466024955087 ,38,094755107791
26.9249614 ,Left ,64,1534711382394 ,42,7442430545878 ,38,1099944634985
26.9475386 ,Left ,64,1483179568641 ,42,7562512293155 ,38,1254303917318
26.9698593 ,Left ,64,1612315201115 ,42,7687074953129 ,38,1406837784513
26.9850039 ,Left ,64,1733109005895 ,42,7758665375997 ,38,1645725322849
27.0074248 ,Left ,64,1766920429477 ,42,7801372781296 ,38,1793217523438
27.0298519 ,Left ,64,1663382156683 ,42,7836892283755 ,38,189751295464
27.0600426 ,Left ,64,1898160822201 ,42,7878878567114 ,38,1827676352999
27.0753997 ,Left ,64,2295170143949 ,42,7824982085642 ,38,1639191612026
27.1054885 ,Left ,64,2782738257934 ,42,774750440582 ,38,1197038239562
27.1277275 ,Left ,64,2458018385552 ,42,7688678368585 ,38,1112739667897
27.1500943 ,Left ,64,2370722326777 ,42,7727654114042 ,38,0942434037902
27.1724062 ,Left ,64,221833932263 ,42,789718718172 ,38,0777808999378
27.1874429 ,Left ,64,2158200760902 ,42,8048987085431 ,38,0746560913556
27.209822 ,Left ,64,2009550974186 ,42,8336824680188 ,38,0713512556243
27.2325034 ,Left ,64,1852046371458 ,42,8610788130019 ,38,0720544258668
27.2476317 ,Left ,64,1647420843021 ,42,875379091834 ,38,0719555013927
27.2698453 ,Left ,64,1564987409322 ,42,8871868729286 ,38,0726166657015
27.292457 ,Left ,64,1476244984744 ,42,8784555617036 ,38,0826895254222
27.3074866 ,Left ,64,1453980929047 ,42,8608129843042 ,38,0923360856364
27.337423 ,Left ,64,1556307118661 ,42,8439442803653 ,38,0927326840445
27.3601692 ,Left ,64,1588080919837 ,42,8368069400437 ,38,0876340599311
27.3749862 ,Left ,64,187209224926 ,42,8351786271698 ,38,0754294943757
27.4128567 ,Left ,64,2236092348313 ,42,8787319025651 ,38,0572013454402
27.4276115 ,Left ,64,2494963886617 ,42,9009090097901 ,38,0453684693941
27.4497897 ,Left ,64,2579041390175 ,42,939482980602 ,38,0175507482729
27.4725172 ,Left ,64,2567198262595 ,43,0129033914181 ,37,9829065858227
27.4875954 ,Left ,64,2415793416356 ,43,0978127352324 ,37,9462898907263
27.5099462 ,Left ,64,1963413323546 ,43,1579380261518 ,37,923802133619
27.532472 ,Left ,64,1795925388808 ,43,1855953782455 ,37,8975606904616
27.547359 ,Left ,64,1586678010609 ,43,1493920043177 ,37,8678841700161
27.5700103 ,Left ,64,1783390482967 ,43,0625230745293 ,37,8382170414212
27.5924042 ,Left ,64,1504950107787 ,43,0041188057103 ,37,8767082598188
27.6077365 ,Left ,64,116515221641 ,42,9884660362733 ,37,8839607566528
27.6299489 ,Left ,64,0900256653375 ,43,0180764113064 ,37,8398653050738
27.6598835 ,Left ,64,1475457741949 ,43,0325183384214 ,37,8090714623353
27.6749549 ,Left ,64,1808181088401 ,43,0348170716956 ,37,7742396869079
27.6975677 ,Left ,64,1884285903778 ,43,0252020217638 ,37,7499023925156
27.7275819 ,Left ,64,1639856571359 ,42,969914111091 ,37,7021437872711
27.7499088 ,Left ,64,2091232342501 ,42,9068937208783 ,37,706768982758
27.7722651 ,Left ,64,2279499070095 ,42,8346913292773 ,37,7144587618537
27.7873679 ,Left ,64,2292064922839 ,42,7860977812035 ,37,7145118104374
27.8100349 ,Left ,64,2118980945289 ,42,7571381220951 ,37,6967093775808
27.8326454 ,Left ,64,2166188008593 ,42,7306546387907 ,37,6780613368089
27.8477797 ,Left ,64,2177757576876 ,42,7123049023108 ,37,669706831733
27.8700616 ,Left ,64,2236960886384 ,42,7008103255317 ,37,6634259359231
27.9000614 ,Left ,64,2274101737392 ,42,7089244139124 ,37,661541300064
27.9148464 ,Left ,64,2162479601145 ,42,7167467253647 ,37,6568312848823
27.9376254 ,Left ,64,209377537968 ,42,716081984503 ,37,6409789448042
27.9523961 ,Left ,64,2162706395202 ,42,7126681812935 ,37,6226484221096
27.9673967 ,Left ,64,2139951600866 ,42,7227334035139 ,37,6106298947591
27.9898348 ,Left ,64,2054977612276 ,42,7344357883605 ,37,6114636197288
28.0126323 ,Left ,64,1837830124531 ,42,744251242802 ,37,6189636466282
28.0276871 ,Left ,64,1745707611937 ,42,7522997870735 ,37,6430153025631
28.049881 ,Left ,64,1662096492531 ,42,7348764974177 ,37,6734613204548
28.0723765 ,Left ,64,1637988881388 ,42,7020830305348 ,37,7022749022504
28.0873421 ,Left ,64,1467312889428 ,42,6694126419338 ,37,7278443820599
28.1099074 ,Left ,64,1491700089235 ,42,6556195469666 ,37,7329954936366
28.1325617 ,Left ,64,145316211523 ,42,6486731510885 ,37,7285055896034
28.1548887 ,Left ,64,0666312833262 ,42,6396126354474 ,37,7032804624953
28.1700658 ,Left ,64,0134336759411 ,42,6151982252835 ,37,684507559636
28.1925034 ,Left ,63,9734938163527 ,42,6266862980609 ,37,7070164567931
28.2149691 ,Left ,64,0507226185552 ,42,6472979176968 ,37,7162001777948
28.2300305 ,Left ,64,0901628728725 ,42,6337216297381 ,37,6973806275076
28.2526259 ,Left ,64,0791424149291 ,42,5896378705562 ,37,7052604428994
28.2747569 ,Left ,64,0310285566853 ,42,5995872946019 ,37,6938741390083
28.2900072 ,Left ,63,9881998814079 ,42,5731916789882 ,37,6970021388287
28.3125201 ,Left ,63,9840219932258 ,42,5392731079888 ,37,7146602743617
28.3350872 ,Left ,64,0206812137285 ,42,5301966627901 ,37,7309100601614
28.3502667 ,Left ,64,0331489816394 ,42,5273150911076 ,37,7538767994158
28.372722 ,Left ,64,029435360885 ,42,5251373823098 ,37,7930811416334
28.3951199 ,Left ,63,9879834175748 ,42,5509661545265 ,37,8354271721286
28.4101583 ,Left ,63,9116502089963 ,42,5765229700144 ,37,8690528064163
28.4328377 ,Left ,63,9217170144227 ,42,6017306859187 ,37,8809187379406
28.4627431 ,Left ,63,9677402433526 ,42,6190258780826 ,37,8758349402495
28.4778694 ,Left ,63,9685637949354 ,42,6321273450773 ,37,8803574420692
28.5079983 ,Left ,63,9127856962802 ,42,6524072564871 ,37,8980637015328
28.5227995 ,Left ,63,8955530880933 ,42,6620450147067 ,37,9123529903305
28.537605 ,Left ,63,9230733134622 ,42,6685458411122 ,37,9093880011782
28.5525547 ,Left ,63,9381450985597 ,42,6808971311317 ,37,9077379666516
28.5751333 ,Left ,63,9218516174842 ,42,7141338144978 ,37,9138177420207
28.5900874 ,Left ,63,9052582511698 ,42,7441698888401 ,37,9299277387029
28.6125487 ,Left ,63,9096572719013 ,42,770032829764 ,37,9556674295014
28.6350507 ,Left ,63,924342752838 ,42,7674090296469 ,37,9619490880658
28.6501767 ,Left ,63,9313250351796 ,42,7629415375589 ,37,972638698968
28.6726782 ,Left ,63,9332345897517 ,42,7826059812216 ,37,9666440846886
28.6950222 ,Left ,63,9434857862012 ,42,7776301279045 ,37,964249320421
28.7102276 ,Left ,63,9678228773433 ,42,7808016327472 ,37,9676506947975
28.7477989 ,Left ,63,9754717187484 ,42,7916510217527 ,37,963698585779
28.7699244 ,Left ,63,9406859796724 ,42,8049915115235 ,37,955098951851
28.7851511 ,Left ,63,9032248520837 ,42,7778800072325 ,37,9509860998752
28.8002183 ,Left ,63,9101754991326 ,42,7904358941289 ,37,9071124325654
28.8151719 ,Left ,63,9088728491995 ,42,7989962153514 ,37,8827946426612
28.8300482 ,Left ,63,8714167433111 ,42,8212965046202 ,37,8982879641296
28.852518 ,Left ,63,8161968768296 ,42,840200272979 ,37,8940997000499
28.8751566 ,Left ,63,8426190809868 ,42,8492382824248 ,37,8907537866577
28.8899571 ,Left ,63,8713679888462 ,42,8420623226233 ,37,9072186656731
28.9125383 ,Left ,63,8590292989997 ,42,8648196647433 ,37,9219697225233
28.9349459 ,Left ,63,8383528716704 ,42,9519233757401 ,37,9538821713277
28.9499455 ,Left ,63,7775826292493 ,43,0702292269279 ,37,9928186054397
28.9725488 ,Left ,63,760094845187 ,43,2128782430113 ,38,0496986213021
29.0024931 ,Left ,63,7001040696777 ,43,374102563886 ,38,0959614732744
29.0323765 ,Left ,63,5639313880893 ,43,4572102245643 ,38,1381562926247
29.047975 ,Left ,63,438474858921 ,43,4882490010451 ,38,1759038792182
29.0930104 ,Left ,63,3020843046255 ,43,6287623819793 ,38,1486623835283
29.1152524 ,Left ,63,2366869826632 ,43,6549122561649 ,38,1653492999211
29.1375816 ,Left ,63,1885470826334 ,43,7051330012459 ,38,2033925920541
29.1527506 ,Left ,63,1498272322535 ,43,7605081192792 ,38,2404473016718
29.1749922 ,Left ,63,1653138917814 ,43,7844108585639 ,38,2670192405657
29.1977822 ,Left ,63,2321794890329 ,43,7011419593756 ,38,2620982252476
29.2127078 ,Left ,63,2806764238698 ,43,5333171795895 ,38,2116454148955
29.2350573 ,Left ,63,3591455323369 ,43,3699209741558 ,38,1380169054957
29.2578558 ,Left ,63,4311349458832 ,43,2952257603625 ,38,0096624604407
29.2801783 ,Left ,63,4873948121828 ,43,2308675175178 ,37,8648219132802
29.3027025 ,Left ,63,6653323879037 ,43,2135512084116 ,37,7240405399687
29.3251716 ,Left ,63,8464182454778 ,43,266096731315 ,37,636157738883
29.3400276 ,Left ,63,9329237350383 ,43,3320155056306 ,37,6352403821716
29.3554317 ,Left ,63,8996567772246 ,43,344306578146 ,37,6820484693281
29.3781759 ,Left ,63,8529099002394 ,43,2873610199595 ,37,7334787965217
29.3929311 ,Left ,63,8453487412972 ,43,2648231544076 ,37,7518161014014
29.4153459 ,Left ,63,9161527087552 ,43,32437194704 ,37,7468678413056
29.4379584 ,Left ,63,9643607740051 ,43,4134612040423 ,37,7280092237915
29.4528036 ,Left ,63,9607218682835 ,43,3871274702014 ,37,7586916670671
29.4752165 ,Left ,63,9859284089392 ,43,2465739543482 ,37,787438731467
29.4978391 ,Left ,64,0173676446863 ,43,030960144079 ,37,8119465739919
29.5129662 ,Left ,64,0631502837337 ,42,8308898947322 ,37,8336064376449
29.5356357 ,Left ,64,0050490773851 ,42,7515965598263 ,37,825505068856
29.5577564 ,Left ,63,9599130153064 ,42,7036044183792 ,37,792760941156
29.5801182 ,Left ,63,9827801238222 ,42,6372661427336 ,37,7886850656324
29.6031478 ,Left ,64,0140987396421 ,42,5786817289026 ,37,7715267119781
29.6253292 ,Left ,64,017649450397 ,42,553891261714 ,37,8317176465643
29.6406443 ,Left ,64,1174982437143 ,42,6884916880813 ,37,832307395079
29.6552229 ,Left ,64,1774087228992 ,42,8099450166135 ,37,8355290992083
29.6779012 ,Left ,64,1843189495299 ,42,8332906369372 ,37,9090767323731
29.6929033 ,Left ,64,212538162177 ,42,8225595005405 ,37,9536447087114
29.7149178 ,Left ,64,2191628459441 ,42,8007211158043 ,37,9411301562201
29.7373896 ,Left ,64,229853778576 ,42,7544690535236 ,37,9139346174123
29.7524249 ,Left ,64,2590630667488 ,42,6929628512331 ,37,9161468576869
29.7750425 ,Left ,64,306846234194 ,42,6606107709694 ,37,8881088033391
29.7973905 ,Left ,64,253272543388 ,42,6388495705442 ,37,8613227146942
29.8124492 ,Left ,64,1699177343157 ,42,5911114076411 ,37,8602737269935
29.8349992 ,Left ,64,144889703341 ,42,5870967073437 ,37,8705757963383
29.857344 ,Left ,64,1705354207539 ,42,5932947812047 ,37,8727242319681
29.8797487 ,Left ,64,1752398540244 ,42,6173470606045 ,37,865748854493
29.8948445 ,Left ,64,1192638225305 ,42,6578582254341 ,37,8536821720502
29.9173268 ,Left ,64,0791311651617 ,42,6823917331163 ,37,8444867930363
29.9323187 ,Left ,64,0577278903045 ,42,7243402446092 ,37,8464360207368
29.9548246 ,Left ,64,0284023993767 ,42,7481839882702 ,37,8847029275458
29.9773487 ,Left ,64,0169147410365 ,42,7487247365386 ,37,9238111877187
29.9998178 ,Left ,64,0186294142076 ,42,7550132618697 ,37,9401922886845
30.014683 ,Left ,64,0409720422555 ,42,7672040734819 ,37,9264338136781
30.0373297 ,Left ,64,0473696868965 ,42,7737483088746 ,37,9138307420046
30.0599058 ,Left ,64,0446684279488 ,42,7712764282536 ,37,9066621318193
30.0748478 ,Left ,64,0450861376881 ,42,7823748697745 ,37,9034433578354
30.0982866 ,Left ,64,0447849530715 ,42,8042355023222 ,37,9061503838732
30.1206266 ,Left ,64,0379046308661 ,42,8415445777739 ,37,9063587096183
30.1354632 ,Left ,64,0314290894416 ,42,8990310744115 ,37,8923253455863
30.1580083 ,Left ,64,0610954180248 ,42,9608244303899 ,37,8796366987378
30.1803355 ,Left ,64,0729701994871 ,43,0114189710631 ,37,8795181947632
30.1953499 ,Left ,64,0145539758775 ,43,0648527479093 ,37,8812383286263
30.2177898 ,Left ,63,9609451845286 ,43,1092461052024 ,37,8761291247267
30.2401768 ,Left ,63,8994091146001 ,43,1203670942492 ,37,8629077829731
30.2554279 ,Left ,63,9125198290502 ,43,0631386678965 ,37,8363675218939
30.2780204 ,Left ,63,8989102283771 ,42,9850653386992 ,37,8977708393869
30.3001868 ,Left ,63,8549348894879 ,42,9510969507225 ,37,9128336433238
30.3153223 ,Left ,63,8274424926642 ,42,9418544860301 ,37,9074797054784
30.3379576 ,Left ,63,8898204546103 ,42,9343858548495 ,37,9311063300484
30.3604444 ,Left ,63,935667722514 ,42,9344750129676 ,37,9357020251884
30.3753351 ,Left ,63,915262522382 ,42,9459367476403 ,37,9158333724127
30.4051507 ,Left ,63,8939717877636 ,42,9611928510947 ,37,9050903847059
30.4352959 ,Left ,63,9512557910074 ,42,9401122388575 ,37,88940344878
30.4504765 ,Left ,63,9988905913076 ,42,8921082047924 ,37,8741192103375
30.4650005 ,Left ,63,9979525667724 ,42,8556279760845 ,37,8525870801211
30.4949606 ,Left ,64,0212152215709 ,42,8102709621167 ,37,8326063100948
30.5182082 ,Left ,64,0354494995871 ,42,7781218368826 ,37,8138939326703
30.5405956 ,Left ,64,0141022831554 ,42,7434429768568 ,37,8016027799318
30.555583 ,Left ,64,0119625991669 ,42,7244051297638 ,37,7738520792286
30.5782447 ,Left ,63,9997890663523 ,42,7224727914486 ,37,7389233833544
30.6006149 ,Left ,63,9712888653323 ,42,7367578983641 ,37,7355344193966
30.6154385 ,Left ,63,9631830577225 ,42,742435125548 ,37,7600133896859
30.6376827 ,Left ,63,9466163420915 ,42,7477095221178 ,37,7832695286304
30.6675808 ,Left ,63,8805051611026 ,42,7578400413762 ,37,7994799429565
30.6825781 ,Left ,63,7911222975947 ,42,79300588725 ,37,7926236666129
30.705071 ,Left ,63,7670622873575 ,42,8255946557278 ,37,7332961700732
30.7352235 ,Left ,63,6960982893773 ,42,7831821697626 ,37,7413667349774
30.757429 ,Left ,63,7254882224172 ,42,7712674550897 ,37,7051742654341
30.779843 ,Left ,63,7648443839158 ,42,7230110614214 ,37,7001367637751
30.7948735 ,Left ,63,7084384346135 ,42,6572620543659 ,37,7287780533163
30.8173832 ,Left ,63,6924338772703 ,42,689497386843 ,37,6841500122514
30.8404833 ,Left ,63,6220883665998 ,42,6668381167023 ,37,6778750329132
30.855518 ,Left ,63,564629978478 ,42,636238661438 ,37,6666252464772
30.8781995 ,Left ,63,6356925780727 ,42,6638379938898 ,37,625362482477
30.9005847 ,Left ,63,632338109067 ,42,7571868358087 ,37,6375082400053
30.9229341 ,Left ,63,5684860612565 ,42,8133992416036 ,37,6313833435677
30.9377851 ,Left ,63,5713844039572 ,42,8507378166479 ,37,6407118996203
30.9602576 ,Left ,63,5928060284652 ,42,83620350964 ,37,6903625063539
30.9822115 ,Left ,63,613570781413 ,42,8451112166581 ,37,7298886339018
30.9975113 ,Left ,63,5742605221774 ,42,8793783549395 ,37,7295142537485
31.0197967 ,Left ,63,5836404470273 ,42,9032744503054 ,37,7223230467865
31.042342 ,Left ,63,6499727984623 ,42,9560133353741 ,37,7013399097971
31.0576871 ,Left ,63,6504211677625 ,42,9892256040099 ,37,7050445036982
31.0803182 ,Left ,63,5662294943407 ,42,9910147288322 ,37,7208974824381
31.1027437 ,Left ,63,5281521959815 ,42,9721074512959 ,37,7145157592863
31.1181278 ,Left ,63,5568492283527 ,42,9583638590549 ,37,6757478996197
31.140421 ,Left ,63,5978506112915 ,42,943302460667 ,37,6538655061224
31.1626799 ,Left ,63,5783580232817 ,42,9510195174484 ,37,6361451804102
31.1780917 ,Left ,63,5164513291487 ,42,9565597454387 ,37,6136120027426
31.2006034 ,Left ,63,5820770786013 ,42,9565206414595 ,37,5853868526338
31.2227415 ,Left ,63,6752925315593 ,42,9467160462995 ,37,545647395522
31.2381425 ,Left ,63,7301002579328 ,42,9728052188404 ,37,5240175716633
31.2603662 ,Left ,63,7120740099079 ,43,0128980203205 ,37,5023057289663
31.2827209 ,Left ,63,6997293431303 ,43,0203765149959 ,37,4724780917398
31.2978375 ,Left ,63,7397734371376 ,43,0221917592362 ,37,4438765315105
31.3200832 ,Left ,63,8162089268184 ,43,0066498092506 ,37,4257189701057
31.3426895 ,Left ,63,8274275096824 ,42,9965823278218 ,37,4158869748592
31.3575582 ,Left ,63,8171274483272 ,42,9602446319345 ,37,4187562748063
31.3808028 ,Left ,63,8231759986572 ,42,9172914664126 ,37,4116741321639
31.4029136 ,Left ,63,7799918039789 ,42,8807863017059 ,37,4003312627317
31.4180197 ,Left ,63,6685319841512 ,42,8644608360787 ,37,420462226046
31.4401908 ,Left ,63,5396656556337 ,42,8757751594411 ,37,4667968839039
31.4628678 ,Left ,63,5139846897063 ,42,8912212644731 ,37,5236242089281
31.4779725 ,Left ,63,4487869261896 ,42,9245590160836 ,37,5895045086646
31.5001697 ,Left ,63,4032359806187 ,42,9611176715567 ,37,6423387742648
31.5227349 ,Left ,63,3206861568976 ,43,0303620382476 ,37,6220884579427
31.5379852 ,Left ,63,3069053828721 ,43,0819513047938 ,37,5634711222612
31.5603302 ,Left ,63,2924366432808 ,43,2094359797185 ,37,4919032971964
31.5824737 ,Left ,63,2521732651226 ,43,3714889003439 ,37,4544102141241
31.5976837 ,Left ,63,2562122379686 ,43,5125700078379 ,37,5247929454977
31.6200491 ,Left ,63,3189790565311 ,43,6916445097895 ,37,5970045487605
31.6426381 ,Left ,63,3816121730302 ,43,7416762855 ,37,6807685940181
31.6648909 ,Left ,63,3769377186464 ,43,6408773652418 ,37,7689841799267
31.6799756 ,Left ,63,3531942269924 ,43,4758748146705 ,37,8381281960899
31.7026645 ,Left ,63,3180070997382 ,43,3683388450521 ,37,8280528459224
31.7247096 ,Left ,63,3004577485759 ,43,2102905855876 ,37,7944702116836
31.7399741 ,Left ,63,3067973969283 ,42,9905009943824 ,37,7833599736884
31.7623725 ,Left ,63,333135768214 ,42,6835648709005 ,37,7682102521362
31.7925821 ,Left ,63,3797285371418 ,42,4573617944226 ,37,7200045597631
31.8076021 ,Left ,63,4286072797917 ,42,2984440220484 ,37,6870875091972
31.844903 ,Left ,63,568953161809 ,42,1359249014129 ,37,6313897816814
31.8599802 ,Left ,63,7011771575874 ,42,2198819743681 ,37,5571802013731
31.8826563 ,Left ,63,8213658799988 ,42,4144758208579 ,37,4271705395702
31.9048657 ,Left ,63,9391223150218 ,42,625153831245 ,37,3096614188115
31.9199224 ,Left ,63,9777305527793 ,42,8474894638088 ,37,2358969677188
31.9423309 ,Left ,64,0265223652325 ,43,0475376838054 ,37,2717895879064
31.9648318 ,Left ,64,0290412778216 ,43,1925219246966 ,37,3286704701451
31.9799264 ,Left ,64,0381135060424 ,43,290155119878 ,37,3092026049223
32.0023104 ,Left ,63,9413935161136 ,43,3383253568639 ,37,3137747641834
32.0248771 ,Left ,63,9400565849065 ,43,3625317917075 ,37,3387086478166
32.0400036 ,Left ,63,9497033341557 ,43,4079909413984 ,37,3203914409208
32.0622932 ,Left ,63,9551964355804 ,43,3860085529568 ,37,3225627626865
32.0923017 ,Left ,63,9414984606577 ,43,2743411639566 ,37,3366116115412
32.1073434 ,Left ,63,9715597725814 ,43,1012018032247 ,37,3412293158393
32.1299743 ,Left ,63,9868526083084 ,42,9389506028681 ,37,3412127250404
32.1450917 ,Left ,63,958564053269 ,42,8451719125421 ,37,3134826389431
32.1600387 ,Left ,64,0082484948196 ,42,7705317792123 ,37,2846029411202
32.1825565 ,Left ,64,0464337175037 ,42,7613257828953 ,37,2753718983586
32.2051375 ,Left ,64,0677659842554 ,42,6963253060581 ,37,2539782081635
32.2201005 ,Left ,64,0195889055745 ,42,6136910633618 ,37,3226465585041
32.2425731 ,Left ,64,0750668677375 ,42,6162587386069 ,37,3900230919126
32.2648695 ,Left ,64,1362602986888 ,42,723960049347 ,37,3919461074827
32.2799957 ,Left ,64,1179971421231 ,42,7120331013891 ,37,4843339156796
32.3025001 ,Left ,64,122160657905 ,42,7017865465972 ,37,5591719646073
32.3324806 ,Left ,64,09362208119 ,42,6787156417003 ,37,5675740788082
32.3472359 ,Left ,64,0763648029111 ,42,6532563496557 ,37,5629268886561
32.3698161 ,Left ,64,0791877352753 ,42,5970503785784 ,37,574474452758
32.3998437 ,Left ,64,0838519774614 ,42,5256024037183 ,37,6385541533393
32.4225351 ,Left ,64,0634130118761 ,42,5418217142381 ,37,6627934451695
32.4450929 ,Left ,64,0288824263934 ,42,5120714097453 ,37,6995353892681
32.4600021 ,Left ,64,0798691442393 ,42,4971523788252 ,37,731980481537
32.4823973 ,Left ,64,0668740746194 ,42,5064437110655 ,37,7356380052828
32.5049454 ,Left ,64,0457926388091 ,42,5240261965646 ,37,7379597269935
32.52016 ,Left ,64,0632985047934 ,42,5799955511497 ,37,7110708444545
32.5425723 ,Left ,64,0185938704309 ,42,608616894871 ,37,7244038928793
32.5648803 ,Left ,64,0300280255231 ,42,6173924065464 ,37,7359235293789
32.5799165 ,Left ,64,0226957162339 ,42,6029075858986 ,37,7491917489178
32.602514 ,Left ,64,0038733411678 ,42,619362638574 ,37,7362544275897
32.6250137 ,Left ,64,0036628747476 ,42,6281860850078 ,37,7205706502466
32.6401553 ,Left ,64,0059693461803 ,42,6326381079587 ,37,7038772970263
32.6627012 ,Left ,63,9906746672073 ,42,6554345394407 ,37,6859083234263
32.6850519 ,Left ,63,9940649741105 ,42,7135458242457 ,37,6795793456303
32.7074926 ,Left ,63,988143127323 ,42,7858070759255 ,37,673312683785
32.7225889 ,Left ,63,9984313512296 ,42,8443746941457 ,37,6665390386793
32.7451883 ,Left ,63,9943458655887 ,42,8873024561298 ,37,6638512331453
32.7601527 ,Left ,63,9493887841633 ,42,9629004178313 ,37,6543793188207
32.7826284 ,Left ,63,8827508514634 ,43,011907627781 ,37,6525201794721
32.804828 ,Left ,63,8043047105075 ,43,0146338885429 ,37,6462934097892
32.8275978 ,Left ,63,7998391268827 ,42,9496092818943 ,37,6749460172522
32.8428713 ,Left ,63,7923053454713 ,42,8999985128851 ,37,7265472645916
32.8654718 ,Left ,63,7911026675147 ,42,8529064984107 ,37,6678719294617
32.8874456 ,Left ,63,7902900584167 ,42,7987486069573 ,37,5892538415788
32.9025642 ,Left ,63,7938452399334 ,42,7460681828683 ,37,5550967459844
32.9251103 ,Left ,63,7955487030485 ,42,7493798287917 ,37,5356412573057
32.9475662 ,Left ,63,8382793361212 ,42,7285294971166 ,37,5344871216411
32.9627628 ,Left ,63,8307941055762 ,42,7532873955937 ,37,5280655599811
32.985278 ,Left ,63,8399277416761 ,42,7304659660986 ,37,5167176505206
33.0074546 ,Left ,63,8428273555661 ,42,6675033457452 ,37,5477229580156
33.0227197 ,Left ,63,8907507315223 ,42,6160290830574 ,37,5323674647794
33.0451332 ,Left ,63,8874993361162 ,42,5968180632406 ,37,4639737111786
33.0676939 ,Left ,63,9062962477156 ,42,6449441734907 ,37,4593602456032
33.0826616 ,Left ,63,8951630108736 ,42,6897152708692 ,37,4425860973615
33.1051341 ,Left ,63,8672900662065 ,42,6894386491846 ,37,4720651725645
33.135282 ,Left ,63,7488332105547 ,42,7031619604422 ,37,4662437997362
33.1502155 ,Left ,63,7529229463327 ,42,8253132589064 ,37,4683294835235
33.1726766 ,Left ,63,7193427887659 ,43,0023451822151 ,37,4915107502993
33.1875011 ,Left ,63,6591983793778 ,43,0890147037687 ,37,5293141964376
33.2026159 ,Left ,63,6119442638929 ,43,1765124729515 ,37,5574151048875
33.2251213 ,Left ,63,4673018293076 ,43,2170528424174 ,37,6572281131941
33.2477511 ,Left ,63,3867687805955 ,43,2717617913964 ,37,7095433066982
33.2627146 ,Left ,63,2942473619729 ,43,3403757474943 ,37,7708456295436
33.2851298 ,Left ,63,2684010525657 ,43,3836501977214 ,37,8566631696671
33.3079334 ,Left ,63,240745284881 ,43,4809592280602 ,37,9096067993822
33.3231548 ,Left ,63,1957755496656 ,43,5469483421451 ,37,9347404983459
33.3452567 ,Left ,63,1162606951104 ,43,5358271132599 ,37,9695316473684
33.3677788 ,Left ,63,0947656380904 ,43,5156740319679 ,37,9988062176569
33.3830569 ,Left ,63,0956361044258 ,43,5353608702003 ,37,9588875694282
33.4055875 ,Left ,63,1507218079118 ,43,5036485996346 ,37,9475315217725
33.4283372 ,Left ,63,2334384421076 ,43,3721706649933 ,37,9225361379703
33.4503109 ,Left ,63,299483243113 ,43,1986272763623 ,37,8769270323255
33.4726791 ,Left ,63,3835455495608 ,43,0960742969826 ,37,7920475397054
33.5025588 ,Left ,63,6819452533843 ,43,1036116852248 ,37,5052627420354
33.525032 ,Left ,63,8459479735082 ,43,1149558807332 ,37,4215232222733
33.5478373 ,Left ,63,9586229855146 ,43,1620189014897 ,37,4292803664022
33.5699307 ,Left ,64,0067748981858 ,43,2257084667047 ,37,4696692805141
33.5775622 ,Left ,64,005613019962 ,43,267106404727 ,37,4785853076438
33.6000991 ,Left ,64,0262503080728 ,43,3452972958381 ,37,4668907144675
33.6377219 ,Left ,64,0432965276247 ,43,4729907305195 ,37,5014771263051
33.6600347 ,Left ,64,0491576368462 ,43,5021474700093 ,37,4965173647526
33.6976219 ,Left ,64,1142024183784 ,43,3546512532193 ,37,5104475887233
33.7277149 ,Left ,64,111038775461 ,43,1683743813384 ,37,5319995025381
33.7723622 ,Left ,64,0552427350598 ,42,8695886769463 ,37,5796621267192
33.7874224 ,Left ,64,0205946084801 ,42,782758471669 ,37,5579574040612
33.8174321 ,Left ,64,0837114895938 ,42,7549126592665 ,37,5378076578647
33.839882 ,Left ,64,0586914240989 ,42,7267304696766 ,37,4938826972424
33.8779878 ,Left ,64,1576724135368 ,42,7084606102582 ,37,5757492333702
33.9006063 ,Left ,64,242800356061 ,42,8088375948745 ,37,5411529195446
33.9376805 ,Left ,64,24295169159 ,42,7703169455278 ,37,6271729339619
33.9597197 ,Left ,64,2285541143211 ,42,7238982027713 ,37,6237140256604
33.9976183 ,Left ,64,2085076588959 ,42,6258342444761 ,37,5916422119469
34.0199558 ,Left ,64,2194911256951 ,42,582601926945 ,37,595312638284
34.0349441 ,Left ,64,2440430909163 ,42,5792911888509 ,37,5787277304271
34.0576495 ,Left ,64,1769658531598 ,42,5751592158297 ,37,5745476444983
34.0800391 ,Left ,64,1670389469207 ,42,5515081223548 ,37,6047425888403
34.1173895 ,Left ,64,1962029040927 ,42,5259800540062 ,37,6424788667214
34.1398674 ,Left ,64,1720585091683 ,42,5782535998282 ,37,6377612382335
34.1775845 ,Left ,64,1069168510847 ,42,6712667598597 ,37,6722280844043
34.1999756 ,Left ,64,0656346492342 ,42,6688512361942 ,37,7036847103737
34.2377849 ,Left ,64,035277561041 ,42,6860322107171 ,37,7070692677582
34.2602631 ,Left ,64,0314008708756 ,42,6988913870582 ,37,6952272633524
34.2976066 ,Left ,64,0381819448151 ,42,7377776824815 ,37,670341875112
34.3202897 ,Left ,64,0317335729955 ,42,7880219897204 ,37,6475859817706
34.3575569 ,Left ,64,0304832249309 ,42,8932904044808 ,37,6117306461105
34.3803583 ,Left ,64,023389079568 ,42,9357741471696 ,37,5941473557629
34.4178032 ,Left ,63,9697338025242 ,43,0748338828118 ,37,5446289170177
34.4402941 ,Left ,63,94433366301 ,43,1532112550027 ,37,5282630354065
34.4779229 ,Left ,63,8650398440006 ,43,1060736566517 ,37,5572041959036
34.5003396 ,Left ,63,7783965626326 ,43,0461175952478 ,37,6323762246261
34.537785 ,Left ,63,8049929275427 ,43,0325518556396 ,37,6395907856315
34.5602328 ,Left ,63,8963130190717 ,43,0223732783209 ,37,645733775379
34.6052707 ,Left ,63,8739865693402 ,42,9675948282266 ,37,6208221327292
34.6573986 ,Left ,63,9652417917327 ,42,8991073137905 ,37,6592469461051
34.6806343 ,Left ,63,9878243231012 ,42,8395811026959 ,37,670485648531
34.7176751 ,Left ,64,0417091143531 ,42,8265501485932 ,37,6827620804157
34.7404529 ,Left ,64,0535947656677 ,42,8344649308572 ,37,6662635758672
34.77764 ,Left ,64,0671610699616 ,42,8090181696449 ,37,6469636672941
34.800171 ,Left ,64,0530596045288 ,42,8242914625582 ,37,6404940511781
34.8376787 ,Left ,63,9360211738016 ,42,8708539037619 ,37,6193068867235
34.860188 ,Left ,63,9374918991302 ,42,8742329552194 ,37,6114510189945
34.8974333 ,Left ,63,9609359736998 ,42,9189566073295 ,37,6170480132765
34.9198818 ,Left ,63,9362479017358 ,42,8750181413442 ,37,6078586519699
34.9576105 ,Left ,63,8528951722635 ,42,844068836292 ,37,5814601998489
34.9798489 ,Left ,63,8242890490172 ,42,760421843982 ,37,6141776151971
35.017418 ,Left ,63,9245924617841 ,42,8069827576233 ,37,562272970142
35.0406697 ,Left ,63,8407840178897 ,42,9580826656709 ,37,5674820446759
35.0628654 ,Left ,63,7465189934188 ,43,0530078288255 ,37,6008675821225
35.0780229 ,Left ,63,7588054873191 ,43,133443596409 ,37,6250856968499
35.1077989 ,Left ,63,7470682888275 ,43,1465699611591 ,37,6910621261282
35.1300376 ,Left ,63,7071782054034 ,43,2387967730136 ,37,7074224138361
35.1597905 ,Left ,63,5847454309453 ,43,448576546719 ,37,7981539248851
35.1823514 ,Left ,63,5575469799263 ,43,5319494496462 ,37,8244607042799
35.2198478 ,Left ,63,4695464210578 ,43,562910517155 ,37,8754162493007
35.2423945 ,Left ,63,4173110285524 ,43,5840111396612 ,37,9101142242718
35.2798411 ,Left ,63,50127392496 ,43,4713140404496 ,37,8527014564383
35.3026381 ,Left ,63,4951949971641 ,43,2355020498459 ,37,8326213593699
35.3400568 ,Left ,63,5124449537109 ,42,8485398982698 ,37,7921658530325
35.3624137 ,Left ,63,528539397015 ,42,7004334238208 ,37,7738912456424
35.4000129 ,Left ,63,6497789999294 ,42,5236908117995 ,37,6610689774697
35.4224557 ,Left ,63,7129356677049 ,42,4920369007389 ,37,6116498035591
35.459958 ,Left ,63,7785704439587 ,42,404936902111 ,37,547023088809
35.4974923 ,Left ,63,8655819215598 ,42,5453561928133 ,37,4361328996047
35.5199705 ,Left ,63,9322089277748 ,42,7147708359227 ,37,3381798056611
35.5426623 ,Left ,63,9624564871712 ,42,910981568907 ,37,2446002623251
35.5801057 ,Left ,64,0138308976068 ,43,2353823021782 ,37,1062181459197
35.6024986 ,Left ,64,0097474382877 ,43,3357872208656 ,37,1322717047926
35.6398453 ,Left ,63,9604713670241 ,43,3275966227057 ,37,1747772418786
35.6706215 ,Left ,63,9525608993641 ,43,3304925845548 ,37,1909698917619
35.7080347 ,Left ,63,9386807324897 ,43,3286214264361 ,37,2228132128943
35.7228525 ,Left ,63,9477973746136 ,43,164665963786 ,37,2866161139964
35.7602057 ,Left ,63,9815538083626 ,42,9202709261745 ,37,2761085207995
35.7825811 ,Left ,63,9948498070358 ,42,7737363015799 ,37,2964765097388
35.8202081 ,Left ,64,0513028264162 ,42,5867399620299 ,37,3289763894827
35.8426556 ,Left ,64,0503106900743 ,42,5548961731613 ,37,3210147877466
35.8801721 ,Left ,64,1339810225283 ,42,5141750009758 ,37,3234517351267
35.9027107 ,Left ,64,1561335455815 ,42,5317765484629 ,37,342131120244
35.919378 ,Left ,64,1694937054935 ,42,5551402220423 ,37,358492242703
35.940034 ,Left ,64,3001937221953 ,42,5952466062887 ,37,2985129879117
35.9702713 ,Left ,64,2412715484644 ,42,5431225867675 ,37,3331619082213
35.9851726 ,Left ,64,1036495834527 ,42,5473496522727 ,37,3885863125679
36.0079444 ,Left ,63,9627532948391 ,42,5745374614045 ,37,4801921187537
36.022959 ,Left ,64,1029998353374 ,42,5895719154295 ,37,4211590684303
36.0380537 ,Left ,64,1229795871883 ,42,5655284159112 ,37,4408491765706
36.060145 ,Left ,63,9548853796718 ,42,5473743687295 ,37,5486823923819
36.0828219 ,Left ,64,0367496785144 ,42,5343007703312 ,37,521285753817
36.0977352 ,Left ,63,9821291440783 ,42,5181477994679 ,37,5238126288879
36.1202079 ,Left ,63,9769558394069 ,42,5529864951349 ,37,4993573920859
36.1503738 ,Left ,63,9656541388334 ,42,5684022413362 ,37,491660278635
36.1653548 ,Left ,63,9690104171791 ,42,5413575975261 ,37,5053137293896
36.1878757 ,Left ,63,9589062872656 ,42,5280799194323 ,37,5182699214412
36.202526 ,Left ,63,9606375575182 ,42,5188855855209 ,37,5307906283616
36.2172963 ,Left ,63,8373772424922 ,42,4596087358677 ,37,5975435625785
36.239875 ,Left ,64,0011994904987 ,42,4914073745 ,37,537817803855
36.2706455 ,Left ,63,8957950205314 ,42,4403381993838 ,37,5788543469785
36.2855917 ,Left ,63,9025643246442 ,42,4436703374039 ,37,5802804290923
36.3081753 ,Left ,63,9376240974261 ,42,4559344670035 ,37,5633134147273
36.323097 ,Left ,63,9475972460023 ,42,4654719261444 ,37,5278135495913
36.3380032 ,Left ,63,9524726812512 ,42,4753696703709 ,37,4877305264205
36.3601354 ,Left ,63,8980549399195 ,42,480311302621 ,37,5084241104305
36.3825141 ,Left ,63,8507251766162 ,42,5115771856408 ,37,4856279877006
36.3975028 ,Left ,63,8212846255547 ,42,4745932946655 ,37,5576436737868
36.4196954 ,Left ,63,8703002582834 ,42,5889148780872 ,37,5487981490328
36.4423488 ,Left ,63,8457236058765 ,42,6773806056108 ,37,5564309677984
36.4573812 ,Left ,63,7958644843425 ,42,6721172064631 ,37,6126317914181
36.4800734 ,Left ,63,7928594983961 ,42,6355535671831 ,37,6534475136444
36.5179802 ,Left ,63,8015818772824 ,42,6349484987855 ,37,6495509518112
36.5998887 ,Left ,63,8985499562034 ,42,4809631586259 ,37,5063520361522
36.6226383 ,Left ,63,862263944487 ,42,5153356205022 ,37,453207702969
36.6598828 ,Left ,63,8723709483101 ,42,6091936843835 ,37,4245088903404
36.6823727 ,Left ,63,8467134455415 ,42,6587613332729 ,37,4319699517955
36.7199309 ,Left ,63,8051863010813 ,42,6547429699843 ,37,4378611191844
36.7423461 ,Left ,63,8309004296753 ,42,6523259351976 ,37,3894139247981
36.7801957 ,Left ,63,856687502893 ,42,7160677087489 ,37,3036263722362
36.8025123 ,Left ,63,8838184488958 ,42,7321016213888 ,37,2898478605317
36.8402939 ,Left ,63,9390335250861 ,42,7607414198812 ,37,2758032746007
36.862702 ,Left ,63,9423626702414 ,42,7941573601223 ,37,2765132046132
36.9005912 ,Left ,63,9900597320339 ,42,7975792318931 ,37,2953877518835
36.922926 ,Left ,64,006803855516 ,42,7602241039977 ,37,2841640759409
36.9603433 ,Left ,64,0370522300457 ,42,7078698723497 ,37,2364346722362
36.990376 ,Left ,64,0485523771762 ,42,7047707010068 ,37,2345746005554
37.0276139 ,Left ,64,0475613487087 ,42,788755952634 ,37,2278860804996
37.0425648 ,Left ,64,0491794135881 ,42,844415510089 ,37,1936282080318
37.0876756 ,Left ,64,0313508599972 ,42,970950725459 ,37,1185646061408
37.1101353 ,Left ,64,0246633156162 ,43,0293438724146 ,37,1070033873089
37.1327518 ,Left ,63,9464227067363 ,43,0594425864861 ,37,1207524296933
37.1552833 ,Left ,63,9767891862524 ,43,0095752438014 ,37,159339863988
37.1775667 ,Left ,64,0142178249433 ,42,9360111477177 ,37,1820196273198
37.192542 ,Left ,64,0540694332831 ,42,8475913622871 ,37,1888323304198
37.2151553 ,Left ,64,0592057220712 ,42,7812101856547 ,37,1642316971536
37.237604 ,Left ,64,0509859295682 ,42,7193365596574 ,37,1223928785266
37.2524459 ,Left ,64,089899444355 ,42,7155602544671 ,37,0833622786355
37.2750199 ,Left ,64,1156080358542 ,42,7277664257076 ,37,0562920076185
37.2976599 ,Left ,64,0927299974977 ,42,7109342408785 ,37,0658485929852
37.3278864 ,Left ,64,1083398213836 ,42,7138603104714 ,37,0907829087775
37.3426154 ,Left ,64,1426667593887 ,42,7188557231869 ,37,106777268582
37.3648037 ,Left ,64,1545562830995 ,42,7341440927388 ,37,10336654342
37.3798839 ,Left ,64,1265316593461 ,42,7568647166734 ,37,0930476893471
37.3949867 ,Left ,64,130940955266 ,42,7773915929488 ,37,0956192805001
37.417665 ,Left ,64,1377075710388 ,42,8001977091562 ,37,1007610741301
37.4324847 ,Left ,64,1315748084609 ,42,8049903251234 ,37,1151240326616
37.455269 ,Left ,64,1250119304498 ,42,7966795929023 ,37,1247171638186
37.4776591 ,Left ,64,1126400597932 ,42,7848708396243 ,37,1303332989265
37.4927395 ,Left ,64,1201708608371 ,42,7830444552941 ,37,142197412687
37.5152889 ,Left ,64,1319557701151 ,42,7820105229497 ,37,1482244643037
37.5378685 ,Left ,64,1565757900637 ,42,7986626423698 ,37,1402307800348
37.5601478 ,Left ,64,1339606474792 ,42,7999295424085 ,37,1434153894537
37.5751294 ,Left ,64,1075057608212 ,42,8048571843972 ,37,1456854010882
37.6048657 ,Left ,64,0861640239577 ,42,8001433904053 ,37,1588002031049
37.6273593 ,Left ,64,110165278627 ,42,8070647459662 ,37,1754978027689
37.6423413 ,Left ,64,1167924944474 ,42,8173613536533 ,37,185384927328
37.6797671 ,Left ,64,1400212512731 ,42,85020809695 ,37,2051992727794
37.6949315 ,Left ,64,1379106439382 ,42,839197506253 ,37,2183833299584
37.7174262 ,Left ,64,1579570429719 ,42,8421943910278 ,37,2162466774791
37.7398337 ,Left ,64,149236380028 ,42,8503787034268 ,37,1992475217141
37.7550638 ,Left ,64,1576621838019 ,42,8478684876938 ,37,1875033292658
37.7774055 ,Left ,64,1801776405938 ,42,8663824386015 ,37,1654932115603
37.7999862 ,Left ,64,2006702879227 ,42,9020647410996 ,37,1329121069425
37.8149908 ,Left ,64,1993852584834 ,42,9364553386848 ,37,115581495678
37.8377154 ,Left ,64,154710624384 ,42,9665811985496 ,37,1138919557611
37.8600734 ,Left ,64,1540796290085 ,43,0011132224777 ,37,128408506366
37.8759391 ,Left ,64,1554827046449 ,43,0572794856189 ,37,1333423610661
37.8982649 ,Left ,64,1524377240908 ,43,0946508631204 ,37,1504033162229
37.9277917 ,Left ,64,1885026344648 ,43,1218739542613 ,37,1574778265673
37.9424854 ,Left ,64,187823278633 ,43,1156329655895 ,37,1726736272052
37.9653263 ,Left ,64,1798962048028 ,43,1132753885027 ,37,183812498237
37.9950467 ,Left ,64,1716420937259 ,43,0608967872757 ,37,2020294758736
38.0177011 ,Left ,64,0028384857918 ,42,9207249157433 ,37,3133366813567
38.0401423 ,Left ,63,9378026568147 ,42,8298446932896 ,37,4003808540045
38.0552444 ,Left ,63,9880591871336 ,42,8762940784532 ,37,3318209450358
38.0778901 ,Left ,64,1595716207766 ,42,9379274423154 ,37,2107332968195
38.1001151 ,Left ,64,3731264952039 ,42,9673034800519 ,37,1070644729584
38.1152072 ,Left ,64,5092752114763 ,42,9876298889619 ,37,0089709281818
38.1379146 ,Left ,64,5895787292207 ,43,000336098961 ,36,9225182223853
38.1677927 ,Left ,64,6172984983068 ,43,0048916492883 ,36,8672413530184
38.1825418 ,Left ,64,5987647499049 ,42,9552540678195 ,36,8355084090048
38.2127511 ,Left ,64,4669663461705 ,42,8802169486456 ,36,7977973777813
38.2279087 ,Left ,64,3198344499103 ,42,7841379765964 ,36,8063929224283
38.2425912 ,Left ,64,2085789741813 ,42,7387221430499 ,36,8647794342659
38.265064 ,Left ,63,9792690261188 ,42,6809888338128 ,36,8421696868683
38.2800575 ,Left ,63,8674710571918 ,42,5867192579373 ,36,8540059325603
38.3027588 ,Left ,63,8291482151093 ,42,5847236383931 ,36,8713135531143
38.3177878 ,Left ,63,7957862837881 ,42,5906945936289 ,36,8724628021869
38.3402004 ,Left ,63,7430195437126 ,42,5876553082821 ,36,9203386101069
38.362525 ,Left ,63,7122964203573 ,42,6299426613149 ,36,9467639625537
38.3776313 ,Left ,63,7164184728027 ,42,6499883232925 ,36,9833133133602
38.4001413 ,Left ,63,6797357671542 ,42,6699254571699 ,37,0251065216573
38.4152826 ,Left ,63,6535642059188 ,42,6935231745239 ,37,0645536686932
38.4375882 ,Left ,63,6496858443009 ,42,7356685961137 ,37,1159702853622
38.4601575 ,Left ,63,6816541019713 ,42,7868159598798 ,37,1804046353208
38.4751244 ,Left ,63,6834567927793 ,42,8569803391692 ,37,2398578996933
38.4977874 ,Left ,63,5977799375927 ,42,9127475407941 ,37,3151492034033
38.5202012 ,Left ,63,5457207303184 ,42,9499030147642 ,37,3418647861931
38.5427848 ,Left ,63,5372848119863 ,43,0058280007256 ,37,3040835914136
38.5577692 ,Left ,63,5436850307398 ,43,0516870239593 ,37,2528450310866
38.5801732 ,Left ,63,5248785242301 ,43,0539088359737 ,37,2228147239923
38.6025224 ,Left ,63,5201856748924 ,43,0435394028495 ,37,2077915176526
38.6177208 ,Left ,63,540226571048 ,43,0664211656903 ,37,1913433221487
