timestamp,event,roll,pitch,yaw
0.0212287 ,Left ,66,8502552565111 ,44,1775783533608 ,62,2060369470617
0.0425556 ,Left ,66,831101847522 ,44,1644367457051 ,62,2086190908293
0.0589576 ,Left ,66,7997048547765 ,44,1552413028682 ,62,2095686170543
0.0814492 ,Left ,66,7799982399365 ,44,1509500576331 ,62,2085418596182
0.1030094 ,Left ,66,7608337666976 ,44,1467337237524 ,62,2081342652509
0.1193457 ,Left ,66,7369774100357 ,44,1446850611848 ,62,2108086635955
0.1419862 ,Left ,66,7237599415286 ,44,1422585842801 ,62,2142810270044
0.1630305 ,Left ,66,7048068403232 ,44,147145706024 ,62,2208413760149
0.1794031 ,Left ,66,6985747791871 ,44,1492476157803 ,62,2273580499368
0.2016792 ,Left ,66,6992113191963 ,44,1527293000118 ,62,231092793951
0.2224507 ,Left ,66,7010212598988 ,44,1557120243825 ,62,2409113476926
0.2389264 ,Left ,66,7049685338729 ,44,1592621466488 ,62,2504638840244
0.2616267 ,Left ,66,714729236215 ,44,1637679649873 ,62,2587216759684
0.2824915 ,Left ,66,72038826432 ,44,1630794842935 ,62,2740304236996
0.2991386 ,Left ,66,7338260874029 ,44,1641523405612 ,62,280326476858
0.3216504 ,Left ,66,7503874596596 ,44,157668923385 ,62,2857853123752
0.3439835 ,Left ,66,7899163005345 ,44,1546895164177 ,62,2707744682076
0.3591744 ,Left ,66,8209845854333 ,44,1457201434613 ,62,233710703917
0.3807785 ,Left ,66,8842516539466 ,44,1331506199116 ,62,178954228956
0.4031419 ,Left ,66,9177349197676 ,44,1258202825042 ,62,119927256764
0.4244594 ,Left ,66,9337662010782 ,44,1370269333753 ,62,0671657813678
0.4410691 ,Left ,66,9453179643055 ,44,1633872696043 ,62,0355431415862
0.4632987 ,Left ,66,9579266266641 ,44,2259299125732 ,62,0133017049369
0.4841327 ,Left ,66,93746372839 ,44,2866041379448 ,62,0114376009039
0.5006037 ,Left ,66,9071438120281 ,44,3352509301764 ,62,0358673320941
0.523081 ,Left ,66,8757636866267 ,44,4022008400447 ,62,0702821908156
0.5376575 ,Left ,66,8425147972729 ,44,4707304560427 ,62,1003250534309
0.5607697 ,Left ,66,8187946790412 ,44,5379557544161 ,62,1342791627432
0.5833715 ,Left ,66,7983201630283 ,44,5883776139788 ,62,167681259179
0.5990075 ,Left ,66,7749280735126 ,44,6301914747922 ,62,1913666096505
0.6208081 ,Left ,66,7330924002767 ,44,6661409676521 ,62,1999890507392
0.643257 ,Left ,66,6895608967566 ,44,7058556702606 ,62,20032431506
0.657605 ,Left ,66,6787912237654 ,44,7533036573435 ,62,1965861441518
0.6808876 ,Left ,66,6812592326986 ,44,7956586663295 ,62,1836206254333
0.7035121 ,Left ,66,6707495439455 ,44,8207093310134 ,62,170955943994
0.7178361 ,Left ,66,6642619147054 ,44,8360960293018 ,62,1579794166793
0.7409942 ,Left ,66,6626216375884 ,44,8491146568448 ,62,1494051438741
0.763397 ,Left ,66,6505654359415 ,44,8504580461647 ,62,1495157582535
0.7778497 ,Left ,66,6264624388148 ,44,8457423206488 ,62,1530013861012
0.8009433 ,Left ,66,6081061050999 ,44,8445195049821 ,62,1533995751182
0.8234202 ,Left ,66,5785040390413 ,44,8455720839827 ,62,1596532596037
0.8446335 ,Left ,66,5350541127708 ,44,8690562267644 ,62,15871999778
0.8609018 ,Left ,66,4371377177682 ,44,9008287363736 ,62,1332404601681
0.882987 ,Left ,66,3652411546815 ,44,9152247406893 ,62,123232354528
0.9040772 ,Left ,66,3681057448594 ,44,9335263549542 ,62,1176573547446
0.9211319 ,Left ,66,3772604456731 ,44,9950233144788 ,62,1098894993176
0.9436723 ,Left ,66,3983344359454 ,45,0846819409156 ,62,0699873927246
0.9644693 ,Left ,66,4592114670145 ,45,166215429592 ,62,0312610758012
0.9811837 ,Left ,66,5136488761976 ,45,2264357636334 ,61,9919674370154
1.0029675 ,Left ,66,4819825321594 ,45,2614552475714 ,61,9273782133194
1.0242268 ,Left ,66,4774147217617 ,45,2969947597825 ,61,8527667695866
1.0405758 ,Left ,66,4614395183035 ,45,3092712726598 ,61,7902530121372
1.0631207 ,Left ,66,4305311224554 ,45,3217721328174 ,61,7268734641499
1.0847454 ,Left ,66,4098928371895 ,45,3290532246792 ,61,6494488819347
1.1011561 ,Left ,66,416209247207 ,45,3358646243395 ,61,5709150807277
1.1236677 ,Left ,66,4161669974038 ,45,3402862554144 ,61,5135232031644
1.1473235 ,Left ,66,3047205816514 ,45,2895937985085 ,61,487229105386
1.1607618 ,Left ,66,2739095946712 ,45,220533727138 ,61,4889767217763
1.1834343 ,Left ,66,3152248081105 ,45,1974364230947 ,61,504446652145
1.2057742 ,Left ,66,3907955847946 ,45,2657375633408 ,61,4701796471155
1.2206887 ,Left ,66,4196718547979 ,45,3196517757951 ,61,4333815639583
1.2434818 ,Left ,66,4287345968211 ,45,3229605063454 ,61,4408193237077
1.2643091 ,Left ,66,4339540613459 ,45,3058485300399 ,61,4493917700537
1.2808954 ,Left ,66,4527664672887 ,45,2766998537773 ,61,4526313069288
1.3034206 ,Left ,66,4289507178032 ,45,2622148430077 ,61,4561413511615
1.325757 ,Left ,66,3495469244786 ,45,2602350838027 ,61,4394543552
1.3405828 ,Left ,66,318102049788 ,45,2367198864532 ,61,4475385023557
1.363043 ,Left ,66,406464419729 ,45,2577935537083 ,61,4794955268881
1.3860996 ,Left ,66,467150690423 ,45,3597884180995 ,61,4754098027403
1.4011699 ,Left ,66,4930393256994 ,45,45279343818 ,61,4768649833388
1.4236413 ,Left ,66,4882621385676 ,45,4941640687144 ,61,5155896924333
1.4458349 ,Left ,66,5022779426187 ,45,5372235254461 ,61,554817759671
1.4600811 ,Left ,66,5379683457591 ,45,5771677677783 ,61,6011019955211
1.4833721 ,Left ,66,5249719279237 ,45,6065632967905 ,61,6356790616013
1.5055373 ,Left ,66,5023857589604 ,45,6133752920336 ,61,6651876384634
1.5199322 ,Left ,66,4918174047367 ,45,6278429489362 ,61,6920823720042
1.5432348 ,Left ,66,4710378055008 ,45,6461875348313 ,61,7071646927473
1.5657447 ,Left ,66,4423596898796 ,45,646680292874 ,61,7199767921009
1.5799016 ,Left ,66,4025777311033 ,45,6126917266068 ,61,7287445559652
1.6030516 ,Left ,66,3855958634687 ,45,5679098360524 ,61,7260457275451
1.6258219 ,Left ,66,3316108892818 ,45,5319718993645 ,61,7181515681081
1.6401215 ,Left ,66,2575393482229 ,45,4983123850133 ,61,7045826653721
1.6632806 ,Left ,66,2453206400655 ,45,4741770503455 ,61,7108646807866
1.685813 ,Left ,66,3196830200451 ,45,5016395047128 ,61,6910710226664
1.7067415 ,Left ,66,3586786855853 ,45,5331360224555 ,61,6484343357874
1.7233755 ,Left ,66,385488146761 ,45,5076456891099 ,61,6192913139961
1.7457384 ,Left ,66,4420848124491 ,45,5086501951932 ,61,5719808807661
1.7601785 ,Left ,66,4751738857247 ,45,4833027621768 ,61,5164511392027
1.783285 ,Left ,66,5012910855065 ,45,4436597555172 ,61,4553145820404
1.8062129 ,Left ,66,5039674292274 ,45,4251525690863 ,61,3703094254435
1.8265229 ,Left ,66,5202843943368 ,45,4473659692189 ,61,2566749039363
1.8497246 ,Left ,66,5315140704065 ,45,507080584625 ,61,1303900883638
1.8661572 ,Left ,66,5536192177672 ,45,5786045627905 ,61,0044100529974
1.8868839 ,Left ,66,5580160204511 ,45,6562512171269 ,60,8883178095436
1.9033923 ,Left ,66,5381980397683 ,45,7361877792654 ,60,7699545386714
1.9257965 ,Left ,66,5088239472572 ,45,7982640271323 ,60,6566323165392
1.9467667 ,Left ,66,476366595702 ,45,8481926565362 ,60,5559627969968
1.9632019 ,Left ,66,4601708927103 ,45,8977634896812 ,60,4694138496961
1.9857721 ,Left ,66,4417834350125 ,45,9472996593 ,60,3946294732293
2.0073459 ,Left ,66,4380885831346 ,45,9755607421909 ,60,3339712732733
2.0236336 ,Left ,66,4179534994641 ,45,9801714835122 ,60,3012769106451
2.0460188 ,Left ,66,3793642057217 ,45,9786928212655 ,60,2783159781439
2.0671968 ,Left ,66,3221100518005 ,45,9481524673771 ,60,2705910525493
2.0834284 ,Left ,66,2714905311905 ,45,9277294644692 ,60,2881249834549
2.1059404 ,Left ,66,1948241148227 ,45,8754525918145 ,60,3314998231686
2.1284128 ,Left ,66,1887271447623 ,45,8457611621487 ,60,3732671021527
2.1435575 ,Left ,66,1892500234085 ,45,7901571835219 ,60,3856586908892
2.1659527 ,Left ,66,2083408025425 ,45,6740238242117 ,60,4204826430012
2.1871269 ,Left ,66,279835409687 ,45,5622641987651 ,60,4508343685347
2.2026764 ,Left ,66,286096007195 ,45,4439953572969 ,60,474509210122
2.2261041 ,Left ,66,2817803758564 ,45,3544892016627 ,60,4760892304848
2.2484349 ,Left ,66,2997692487842 ,45,2893782147917 ,60,4919674881856
2.2628103 ,Left ,66,335068166738 ,45,2629446593674 ,60,5183081448064
2.2859883 ,Left ,66,3526549206782 ,45,2667217043295 ,60,5579871218832
2.3084882 ,Left ,66,3486583055819 ,45,2879137343787 ,60,6038657610436
2.3234899 ,Left ,66,335069884784 ,45,304818776001 ,60,6460049263345
2.3458448 ,Left ,66,3373215474516 ,45,3246409336714 ,60,6811873004789
2.3684415 ,Left ,66,3376237118266 ,45,3452399002381 ,60,7168877913203
2.3834448 ,Left ,66,3334158416857 ,45,3673408148761 ,60,7530350126314
2.4059357 ,Left ,66,3179870301555 ,45,3870841123919 ,60,7843057717
2.4283283 ,Left ,66,3010802757652 ,45,3990114015417 ,60,8122042727714
2.44272 ,Left ,66,2829747585951 ,45,4020653000891 ,60,8274538550364
2.4658439 ,Left ,66,2895867991732 ,45,3915142233271 ,60,8246157383902
2.4884161 ,Left ,66,2911864441459 ,45,3850270043331 ,60,7990334411951
2.5027595 ,Left ,66,2531804220177 ,45,3606430328997 ,60,8090483542416
2.5260536 ,Left ,66,2499146562115 ,45,3628558307146 ,60,8273146700809
2.5484514 ,Left ,66,2703471360428 ,45,4221876588151 ,60,8101678327005
2.5626956 ,Left ,66,3046358711963 ,45,4682242670094 ,60,7946473514579
2.585981 ,Left ,66,3549676188851 ,45,4533937103064 ,60,8065965666952
2.6082877 ,Left ,66,4586590074741 ,45,4255234032348 ,60,8151428090722
2.6225037 ,Left ,66,510317975752 ,45,3957854808864 ,60,8246409967322
2.6459099 ,Left ,66,5165841783065 ,45,3598427681977 ,60,8455858052098
2.6683631 ,Left ,66,511555949856 ,45,3074887331242 ,60,888771781533
2.6825956 ,Left ,66,5410452718416 ,45,2536606889566 ,60,9334434317315
2.7057465 ,Left ,66,5718260373483 ,45,201750885974 ,60,9893379716337
2.7283741 ,Left ,66,5968571856576 ,45,1595895698945 ,61,0678512789667
2.7493905 ,Left ,66,6144833927186 ,45,1080082635692 ,61,1581169990999
2.7657667 ,Left ,66,6120693688149 ,45,0454649682252 ,61,2544644048305
2.7883505 ,Left ,66,618480273844 ,44,9784496987304 ,61,3519670699068
2.8095967 ,Left ,66,6399103723394 ,44,9131106371614 ,61,4462961554076
2.8256983 ,Left ,66,6613334938255 ,44,8563311915453 ,61,5381607068867
2.8480978 ,Left ,66,6807454532527 ,44,8119840774897 ,61,6286629660731
2.8693711 ,Left ,66,7072211242265 ,44,7787804416655 ,61,7242167642434
2.8857429 ,Left ,66,7245142966687 ,44,7501432721816 ,61,8212663769805
2.9143697 ,Left ,66,7363282345216 ,44,7270114918574 ,61,9213722732243
2.9292169 ,Left ,66,7534926477207 ,44,7031286605211 ,62,0196740789857
2.9457781 ,Left ,66,7883483123032 ,44,6835683912978 ,62,103098683893
2.9686812 ,Left ,66,8270749299954 ,44,6613559204124 ,62,1731648391628
2.9898776 ,Left ,66,8756654937183 ,44,6308582463507 ,62,2370312397409
3.0054435 ,Left ,66,9438585674944 ,44,6003639518451 ,62,282091902126
3.0285719 ,Left ,67,0196900188829 ,44,5642530113423 ,62,3142533660969
3.050126 ,Left ,67,0934849282129 ,44,5295472250123 ,62,3421292137189
3.0663526 ,Left ,67,1564416792066 ,44,5054788688262 ,62,3564123867907
3.0884719 ,Left ,67,2141715760769 ,44,4879565549223 ,62,3692537527913
3.1096734 ,Left ,67,2581247850718 ,44,4820501458758 ,62,3925511348713
3.126083 ,Left ,67,2724690081302 ,44,4895508686013 ,62,4109798285325
3.1483349 ,Left ,67,3331424369361 ,44,5350914236965 ,62,4043363947921
3.169681 ,Left ,67,3308733458715 ,44,5856153788859 ,62,3988095358063
3.1859356 ,Left ,67,3365570771224 ,44,6407149180712 ,62,4094425278959
3.208506 ,Left ,67,3132726598186 ,44,7075422806136 ,62,4343187449822
3.2383986 ,Left ,67,2754476784972 ,44,7845866260995 ,62,4584660376017
3.2459376 ,Left ,67,2422879887883 ,44,8538000327345 ,62,4756311327293
3.2685376 ,Left ,67,2316435768625 ,44,9179993137637 ,62,4926709147418
3.2909238 ,Left ,67,2210374157622 ,44,974330582998 ,62,5102981833184
3.3060884 ,Left ,67,189614684572 ,45,0298008096886 ,62,5326790933806
3.3281144 ,Left ,67,1486409731213 ,45,0812075271846 ,62,5467867484302
3.3506476 ,Left ,67,0935449142362 ,45,1137450051026 ,62,5569141834734
3.3650251 ,Left ,67,0529388556264 ,45,1357226547387 ,62,565216332633
3.3887647 ,Left ,67,0098600443933 ,45,1475328966134 ,62,5572592417875
3.4126744 ,Left ,66,9453412513038 ,45,1434688180324 ,62,5388937240072
3.4256304 ,Left ,66,8509281074601 ,45,1194778572037 ,62,524387688643
3.4486958 ,Left ,66,8208461729361 ,45,0956679509346 ,62,5063037236838
3.470963 ,Left ,66,7679312584077 ,45,0549847032725 ,62,4952084070303
3.4853422 ,Left ,66,7674648479049 ,45,08317248707 ,62,4694039677466
3.5084812 ,Left ,66,7399172122505 ,45,1745845055322 ,62,4166385506647
3.5309006 ,Left ,66,75988817448 ,45,2432031266512 ,62,3885842451194
3.5454199 ,Left ,66,7812958817382 ,45,2763841479251 ,62,3579244865333
3.5684731 ,Left ,66,8280348201699 ,45,3131348033637 ,62,2927971098807
3.5909298 ,Left ,66,8213448815709 ,45,3442735802792 ,62,2176639354592
3.6053414 ,Left ,66,8001727486693 ,45,3873199619898 ,62,1375228017851
3.6284586 ,Left ,66,7788059045447 ,45,4125446653946 ,62,0630974597396
3.651005 ,Left ,66,7584145458017 ,45,4325486143759 ,61,9886939739451
3.6652766 ,Left ,66,726000232456 ,45,4350215260399 ,61,9219943401018
3.6886358 ,Left ,66,6828470198166 ,45,4349663868594 ,61,8648755156005
3.7109169 ,Left ,66,6633015910277 ,45,4153738173054 ,61,8204475427841
3.7318861 ,Left ,66,6309240910992 ,45,3810481856895 ,61,8042640599489
3.7484384 ,Left ,66,626690461486 ,45,3223907296869 ,61,8229507782177
3.7710195 ,Left ,66,6736493045485 ,45,3413594049703 ,61,8364916152627
3.7923384 ,Left ,66,7009453543876 ,45,3893282298313 ,61,827155887561
3.8084319 ,Left ,66,6479529224286 ,45,4116405421358 ,61,83683168784
3.8310015 ,Left ,66,6512520096341 ,45,4286766886686 ,61,8412847084469
3.852341 ,Left ,66,6532101232869 ,45,431324232632 ,61,8484540290471
3.8684596 ,Left ,66,6215583401342 ,45,4322584397763 ,61,8587566236081
3.8910887 ,Left ,66,5557234030721 ,45,4564693672579 ,61,8557146079701
3.9121456 ,Left ,66,4491216077558 ,45,4559846789341 ,61,8370761619859
3.9283156 ,Left ,66,3893616129153 ,45,4694630115905 ,61,8516899976345
3.950773 ,Left ,66,4034773140693 ,45,4950087739986 ,61,8892034235071
3.9718849 ,Left ,66,4649750659902 ,45,5761741232203 ,61,8946408164771
3.9880108 ,Left ,66,4695579329223 ,45,6748197770085 ,61,8743954167665
4.010932 ,Left ,66,515279972135 ,45,7389941669015 ,61,8980307621173
4.0318016 ,Left ,66,5089128783749 ,45,7708774818038 ,61,9320564867239
4.0482927 ,Left ,66,50015478444 ,45,7997618645387 ,61,9767073487712
4.070837 ,Left ,66,4685544367832 ,45,8225681718071 ,62,0132062250784
4.0917771 ,Left ,66,4229327593556 ,45,8519367258947 ,62,0344480567592
4.1084643 ,Left ,66,4088542170492 ,45,8549534597372 ,62,0596059416743
4.1310999 ,Left ,66,3839814206397 ,45,8410337564908 ,62,0823352686931
4.1537263 ,Left ,66,349834968495 ,45,8038127380334 ,62,0917398753905
4.1687048 ,Left ,66,2949833466407 ,45,7439480203734 ,62,0926059402203
4.1909736 ,Left ,66,2361513446933 ,45,6961479507259 ,62,0849573042404
4.2133615 ,Left ,66,1622304632597 ,45,6653731226373 ,62,0744518020783
4.2283801 ,Left ,66,1444310805513 ,45,6657029540051 ,62,0681662719022
4.2508924 ,Left ,66,1718671545052 ,45,7033954716588 ,62,0356492853847
4.2733888 ,Left ,66,2136495723323 ,45,7547465475997 ,61,9766159516022
4.2790061 ,Left ,66,26965800584 ,45,7679212189669 ,61,9184668929462
4.29385 ,Left ,66,3664609529331 ,45,7901570606694 ,61,8320818638934
4.3162574 ,Left ,66,4049557420521 ,45,798586838021 ,61,730565680541
4.3388062 ,Left ,66,4181833872062 ,45,8201078778724 ,61,6063848497686
4.3551777 ,Left ,66,405190419454 ,45,862758438147 ,61,4741299214167
4.376496 ,Left ,66,4098516665738 ,45,9394987312566 ,61,3350740715241
4.3986931 ,Left ,66,4297017341898 ,46,0215796363208 ,61,1903997877922
4.4153046 ,Left ,66,4270720859439 ,46,0814235873833 ,61,0578082764965
4.4365397 ,Left ,66,4099588454397 ,46,1235310743149 ,60,9367196515712
4.4589885 ,Left ,66,3827939022195 ,46,1717283762243 ,60,82306219223
4.4751578 ,Left ,66,3587451677867 ,46,2137804745546 ,60,7339705042196
4.496439 ,Left ,66,3583020349593 ,46,2394468036533 ,60,6671727038539
4.5188101 ,Left ,66,3382292525636 ,46,2326086473491 ,60,6252241358136
4.5352191 ,Left ,66,3202302706979 ,46,2193427096081 ,60,597389363537
4.5563206 ,Left ,66,290442706105 ,46,1867568701332 ,60,5826700742632
4.581408 ,Left ,66,1912962712055 ,46,1247729616719 ,60,598321419188
4.593454 ,Left ,66,134887580707 ,46,0808074814758 ,60,6294553425196
4.6161605 ,Left ,66,1462557185648 ,46,0400936237867 ,60,6793838205344
4.6383749 ,Left ,66,1706075736059 ,46,0069287405849 ,60,7076953630783
4.6536408 ,Left ,66,177866057533 ,45,9237721609208 ,60,7693148686212
4.6761065 ,Left ,66,2575866153329 ,45,8196728309824 ,60,8028587073598
4.6991945 ,Left ,66,2628449994444 ,45,7021513185849 ,60,8366847474267
4.7156398 ,Left ,66,2255702296666 ,45,6027128448023 ,60,8507622769872
4.736632 ,Left ,66,1921736143 ,45,506707837188 ,60,8721680534279
4.7672939 ,Left ,66,1946159543406 ,45,4403587568447 ,60,896879714778
4.7755569 ,Left ,66,2236747843445 ,45,4092189999091 ,60,9235813906441
4.796538 ,Left ,66,2325762446545 ,45,4066276381573 ,60,9575279485124
4.8191109 ,Left ,66,2298132422138 ,45,41554560232 ,60,9916826445522
4.8354057 ,Left ,66,207773164666 ,45,4264501683068 ,61,0278885095752
4.8564132 ,Left ,66,1806680247148 ,45,4445623526985 ,61,0605310342707
4.8788559 ,Left ,66,1785953598293 ,45,4576140894645 ,61,0937815766915
4.8951962 ,Left ,66,1785243331087 ,45,456602958561 ,61,1283304428893
4.9161561 ,Left ,66,1332637156626 ,45,4405399807716 ,61,1562673268309
4.9388742 ,Left ,66,1511056605805 ,45,4562496391258 ,61,1681398907503
4.9549207 ,Left ,66,1444305758532 ,45,4288631449084 ,61,1951698381277
4.9762163 ,Left ,66,1952582651693 ,45,4315074651134 ,61,204745033399
4.9987338 ,Left ,66,2230318225781 ,45,4672827726007 ,61,1635122351405
5.0151596 ,Left ,66,2620576822622 ,45,4724360811739 ,61,1340290475132
5.0360429 ,Left ,66,3313410887269 ,45,4400870434332 ,61,133523687792
5.0584458 ,Left ,66,3601071717679 ,45,3803865879555 ,61,1514458156871
5.0751214 ,Left ,66,4077480925096 ,45,3482202352842 ,61,154595331998
5.0965715 ,Left ,66,4235502992804 ,45,3044034729096 ,61,1769264774372
5.1188412 ,Left ,66,4491966494656 ,45,2813937994726 ,61,216138274033
5.136919 ,Left ,66,4771618844985 ,45,2627680358195 ,61,2797298898784
5.1563566 ,Left ,66,5006701445111 ,45,2469631248976 ,61,3630091953456
5.1789425 ,Left ,66,5173401977522 ,45,2254499864432 ,61,4546354236045
5.1967372 ,Left ,66,5499835386362 ,45,1887457891994 ,61,5450240936749
5.2164142 ,Left ,66,5656631143681 ,45,1455953175705 ,61,6383732721303
5.2388127 ,Left ,66,5883157632188 ,45,1079112232209 ,61,7330397509069
5.2566277 ,Left ,66,6147319033429 ,45,0744107276575 ,61,825472041242
5.2760447 ,Left ,66,6368811547724 ,45,0451368578396 ,61,9099470616888
5.2985538 ,Left ,66,6632370143821 ,45,0158366771035 ,61,9798800486726
5.3165072 ,Left ,66,6985690566288 ,44,9877437185071 ,62,0354501320777
5.3360377 ,Left ,66,7339943337531 ,44,9604632882649 ,62,0795367532433
5.3586955 ,Left ,66,7817155521465 ,44,9430169648692 ,62,1095116849855
5.3766301 ,Left ,66,8174550182492 ,44,9229188388357 ,62,1292784052275
5.3963575 ,Left ,66,8538550098813 ,44,8979419704593 ,62,141563052817
5.418771 ,Left ,66,9054105744352 ,44,8740145312524 ,62,1477649199291
5.4367721 ,Left ,66,9409712091616 ,44,8451410485152 ,62,1630120546506
5.456358 ,Left ,66,9868370177392 ,44,8161022810516 ,62,1813031648096
5.4786292 ,Left ,67,0340272762354 ,44,7837571258235 ,62,1929962206434
5.4966277 ,Left ,67,0649463859398 ,44,747155146984 ,62,2089156193508
5.5161069 ,Left ,67,0663923723917 ,44,7142909900053 ,62,2296151673936
5.5386509 ,Left ,67,070442689676 ,44,6994857879493 ,62,2424676607634
5.5565681 ,Left ,67,080055273624 ,44,7103954773249 ,62,2615503081281
5.5760338 ,Left ,67,097509539609 ,44,7225110673777 ,62,3007668298051
5.5985646 ,Left ,67,0943800750709 ,44,7396895088462 ,62,3515223350061
5.6167272 ,Left ,67,0627676363693 ,44,7693597022516 ,62,3881594380526
5.6390998 ,Left ,67,0296157370047 ,44,8171095602284 ,62,4243666230569
5.6588172 ,Left ,67,006067330375 ,44,8672891544825 ,62,4656356168048
5.6767681 ,Left ,66,9795727213458 ,44,9167634838444 ,62,505844687849
5.697661 ,Left ,66,9604148936094 ,44,966825564457 ,62,5389885011258
5.7188258 ,Left ,66,9367982061348 ,45,0057366608618 ,62,5629401426137
5.7365383 ,Left ,66,9054933064856 ,45,0322100165866 ,62,5720112872813
5.75796 ,Left ,66,8623586870207 ,45,0451006086088 ,62,5854532781109
5.7792315 ,Left ,66,8158761740548 ,45,056916950011 ,62,5952606639698
5.7966833 ,Left ,66,7694849255109 ,45,0586618230526 ,62,5868092352855
5.8176812 ,Left ,66,7001614005588 ,45,0531145305374 ,62,5776223142089
5.8388629 ,Left ,66,6031209346557 ,45,0380395986637 ,62,5484705378995
5.8566828 ,Left ,66,5379099915663 ,45,0070198461523 ,62,5319854110328
5.8776309 ,Left ,66,5354696099299 ,44,9818446732308 ,62,5440163927194
5.8938406 ,Left ,66,5400241129106 ,45,0718510593594 ,62,5124393497785
5.9170348 ,Left ,66,5360048481373 ,45,180871620871 ,62,480547598108
5.9379346 ,Left ,66,5728810615582 ,45,2307558565996 ,62,4747707485765
5.9543516 ,Left ,66,6328143305449 ,45,2627251201757 ,62,4563961009729
5.9768125 ,Left ,66,6365227334464 ,45,2776531597486 ,62,4138403790051
5.9976838 ,Left ,66,6278927913631 ,45,3125303477433 ,62,3533405390313
6.0141512 ,Left ,66,5918296145876 ,45,3327905672831 ,62,3046567124824
6.0366765 ,Left ,66,573667836022 ,45,3543023618328 ,62,2485891833712
6.0594096 ,Left ,66,5738510773221 ,45,3628714291632 ,62,1853262078864
6.0745053 ,Left ,66,546597268571 ,45,3433038988908 ,62,1218496265519
6.0968348 ,Left ,66,5077135860483 ,45,310658696832 ,62,0791682488079
6.1192218 ,Left ,66,4733946259293 ,45,269528419123 ,62,044033365971
6.1395794 ,Left ,66,414829609471 ,45,2286170171381 ,62,0408062601199
6.1555508 ,Left ,66,4068072001545 ,45,1977642863692 ,62,0667565192998
6.1786764 ,Left ,66,4353919429238 ,45,2258886360417 ,62,0912276941651
6.1997844 ,Left ,66,4603722636345 ,45,3020517616675 ,62,0627899903526
6.2157546 ,Left ,66,4209477720385 ,45,3193898536067 ,62,0615432406598
6.2445902 ,Left ,66,4509416190139 ,45,3264702142865 ,62,0649186394378
6.2593148 ,Left ,66,4615786127739 ,45,3195920566599 ,62,0649763095426
6.2756311 ,Left ,66,4349241452448 ,45,2969932723571 ,62,0760133218324
6.2981952 ,Left ,66,3984300933677 ,45,2939604478464 ,62,0738913983359
6.3124719 ,Left ,66,2993233155484 ,45,2706919378398 ,62,0637195733682
6.3358527 ,Left ,66,3055397287287 ,45,259886035028 ,62,0609781629505
6.3586171 ,Left ,66,3453217120842 ,45,2631790815465 ,62,0687357818237
6.3728866 ,Left ,66,4187983227542 ,45,3139684896463 ,62,0630149675142
6.3959723 ,Left ,66,433577529782 ,45,3859540987021 ,62,0493324962477
6.418523 ,Left ,66,4954167287894 ,45,4476539614529 ,62,067046511283
6.4329863 ,Left ,66,4930304574383 ,45,4817856631623 ,62,1103498421926
6.4559136 ,Left ,66,4576008883421 ,45,5305920244309 ,62,1508091083547
6.4783644 ,Left ,66,4034489074611 ,45,5678725900932 ,62,1931662688941
6.4927203 ,Left ,66,3581132657622 ,45,6016959885588 ,62,2342059373458
6.5157169 ,Left ,66,3290498158601 ,45,6250750882542 ,62,2688370552857
6.538373 ,Left ,66,2828427316321 ,45,6275992604272 ,62,3010623881946
6.5593962 ,Left ,66,2348552288741 ,45,6132540327909 ,62,3264075680041
6.5758823 ,Left ,66,1881333932364 ,45,5860052223831 ,62,3510445641185
6.5984083 ,Left ,66,149071356934 ,45,5568928245755 ,62,3601883585591
6.6195104 ,Left ,66,1198543063107 ,45,5403156995709 ,62,351333186486
6.635982 ,Left ,66,1142328608983 ,45,5082769645606 ,62,3544621947392
6.6583611 ,Left ,66,1431001878535 ,45,5127203803189 ,62,3517910995808
6.6796419 ,Left ,66,1723342418623 ,45,5614979838703 ,62,2945290907234
6.69585 ,Left ,66,2229531331856 ,45,602533386421 ,62,2324091148939
6.7183523 ,Left ,66,3258855278914 ,45,6208107943139 ,62,1685321978056
6.7391153 ,Left ,66,3686091917275 ,45,6246032102763 ,62,074127642099
6.7557957 ,Left ,66,3831767225897 ,45,6501092826404 ,61,9739176032622
6.7783326 ,Left ,66,3700597123123 ,45,6912909033871 ,61,8720766179501
6.7992053 ,Left ,66,3768329870226 ,45,7655827711927 ,61,7623740527658
6.8150769 ,Left ,66,4078971376068 ,45,8263781903241 ,61,6658308557637
6.8381813 ,Left ,66,4207632908508 ,45,8829584309351 ,61,5781256528068
6.8591273 ,Left ,66,4087371606705 ,45,9238865261338 ,61,4946031670405
6.8750358 ,Left ,66,3713638461181 ,45,9607407871509 ,61,4169268526678
6.8983321 ,Left ,66,3600623462944 ,45,9982667360401 ,61,3474139545547
6.919221 ,Left ,66,3582709290335 ,46,0242108241555 ,61,289701962611
6.9355393 ,Left ,66,3301936754698 ,46,0350789023639 ,61,2434633355226
6.9585867 ,Left ,66,2769581974819 ,46,0361419305946 ,61,2176501900329
6.9799036 ,Left ,66,2372271857921 ,46,0343951679393 ,61,1866252782029
6.9962637 ,Left ,66,2150530365387 ,46,0093065527068 ,61,1615493084388
7.018262 ,Left ,66,110909592963 ,45,9806816713189 ,61,1627784070307
7.0407779 ,Left ,65,9900538397715 ,45,9563590348926 ,61,1778616870655
7.0557772 ,Left ,65,9666287972324 ,45,948927091074 ,61,2233930420727
7.0783262 ,Left ,65,9836984304578 ,45,9501589700561 ,61,2202615571481
7.1007602 ,Left ,66,0280879831328 ,45,9119848921543 ,61,2526428721309
7.115604 ,Left ,66,0764530830423 ,45,8501787963494 ,61,2956994170773
7.1381976 ,Left ,66,0845734951953 ,45,7653014432382 ,61,3236451927307
7.1607726 ,Left ,66,1180009650328 ,45,6853419057814 ,61,3435282811601
7.1750305 ,Left ,66,1195829527705 ,45,6098177526781 ,61,3761012218439
7.1983454 ,Left ,66,1250151838901 ,45,5673057577838 ,61,3961410606221
7.2208169 ,Left ,66,1334288694901 ,45,5552835068018 ,61,4229485486469
7.2351585 ,Left ,66,1520377819912 ,45,5630000610166 ,61,4499937912511
7.2583412 ,Left ,66,1747965707955 ,45,5547570082268 ,61,4872902622988
7.2809816 ,Left ,66,1783417198503 ,45,5338842421163 ,61,523675364145
7.2953119 ,Left ,66,1546966325685 ,45,5126348265702 ,61,5582763897291
7.3183571 ,Left ,66,0716331231552 ,45,5105398909681 ,61,5880090064542
7.3406911 ,Left ,65,9883214297486 ,45,5039796291201 ,61,6235810048341
7.3548795 ,Left ,65,9874627699668 ,45,5370364519386 ,61,6748998238213
7.3779669 ,Left ,66,0119487669396 ,45,5825329947507 ,61,7099087463127
7.4005061 ,Left ,66,0262881555162 ,45,6352568357359 ,61,7153405252327
7.4149284 ,Left ,66,0683590326033 ,45,6194242440626 ,61,7430834569543
7.4380714 ,Left ,66,1420007365849 ,45,5799214690863 ,61,7727366953303
7.4605605 ,Left ,66,2156624575663 ,45,5322102053689 ,61,7938239996954
7.474866 ,Left ,66,2697799383144 ,45,4964069548797 ,61,8112168092584
7.4982983 ,Left ,66,2953574695738 ,45,4418161953614 ,61,8450603953832
7.5208556 ,Left ,66,332636829171 ,45,3832279597005 ,61,8875490817261
7.5417036 ,Left ,66,369748200004 ,45,3279868857408 ,61,953755269578
7.5582794 ,Left ,66,4119094119688 ,45,2840426368647 ,62,0296067961121
7.5807824 ,Left ,66,4232425571106 ,45,2365137624662 ,62,1114379375218
7.6018199 ,Left ,66,4537297674248 ,45,1730372379935 ,62,1910057651271
7.6190248 ,Left ,66,4738696257193 ,45,097715216447 ,62,2794645678074
7.6408522 ,Left ,66,4918603952578 ,45,0335437208581 ,62,3587574305041
7.6618993 ,Left ,66,5104372958048 ,44,9801912461399 ,62,4314347119083
7.6783349 ,Left ,66,537305595315 ,44,9302995573907 ,62,4990523330413
7.7006465 ,Left ,66,5744581744938 ,44,8814518967143 ,62,5607336510779
7.7216849 ,Left ,66,6047273533946 ,44,8428103120566 ,62,622145256288
7.7385678 ,Left ,66,6370769694558 ,44,8125508493818 ,62,6753033865272
7.7611639 ,Left ,66,6884083131086 ,44,785222361795 ,62,7242488084901
7.7822972 ,Left ,66,7365393250784 ,44,76405984173 ,62,766331004408
7.7986363 ,Left ,66,7686190688146 ,44,7527436872403 ,62,7964165264783
7.8210492 ,Left ,66,8105383879124 ,44,7509469247514 ,62,8141781045119
7.8422812 ,Left ,66,8471394729239 ,44,7554336879438 ,62,8277880522696
7.8583733 ,Left ,66,8787879181422 ,44,7634567721521 ,62,8346580464391
7.8810497 ,Left ,66,8874786979365 ,44,7722833889424 ,62,8401645043409
7.9021836 ,Left ,66,892599696523 ,44,778656935308 ,62,8416865743809
7.9184351 ,Left ,66,9151955308777 ,44,791126175843 ,62,8450956032033
7.9410473 ,Left ,66,9184900331758 ,44,8042476095734 ,62,8626032206737
7.9635717 ,Left ,66,9107830973726 ,44,8121722094639 ,62,88722077462
7.9785831 ,Left ,66,8849595235591 ,44,8275521805908 ,62,9139687186457
8.0009965 ,Left ,66,8521789542074 ,44,8459783494605 ,62,9436276872929
8.0234878 ,Left ,66,8367761399776 ,44,8751763366237 ,62,9711355237571
8.038553 ,Left ,66,8112762935287 ,44,9198079770237 ,63,0004258271129
8.0610813 ,Left ,66,7812715134427 ,44,9673302436056 ,63,0277786172156
8.0834465 ,Left ,66,7506327755873 ,45,0028769554738 ,63,0547542109852
8.097816 ,Left ,66,7153371187212 ,45,0226380347894 ,63,0766340020431
8.1209858 ,Left ,66,680993951935 ,45,0413472368639 ,63,0992940246655
8.1434664 ,Left ,66,6322865812734 ,45,0613547922761 ,63,1099598529236
8.1580052 ,Left ,66,6031478881567 ,45,0683916874383 ,63,102987259962
8.1809947 ,Left ,66,5675835312542 ,45,046505340296 ,63,0828831610426
8.2035743 ,Left ,66,5314267780902 ,45,0230066728959 ,63,061969678671
8.2176118 ,Left ,66,4360825850001 ,45,0048324395014 ,63,0461495297881
8.240922 ,Left ,66,3821263432196 ,44,9692473528198 ,63,0410988311698
8.263368 ,Left ,66,4140787531027 ,44,9661579326474 ,63,0419791690734
8.2844314 ,Left ,66,4295867975375 ,45,0242163797029 ,63,0119728157978
8.3007668 ,Left ,66,4448182438134 ,45,1221539925553 ,62,966782902695
8.3235752 ,Left ,66,5013345433219 ,45,2103475570597 ,62,9292789087306
8.3377147 ,Left ,66,5531216373228 ,45,2576722370663 ,62,8742451604536
8.3609069 ,Left ,66,5697901672564 ,45,2703505243148 ,62,8138320890492
8.3833014 ,Left ,66,5740620633776 ,45,3104368799629 ,62,7408842766615
8.397702 ,Left ,66,5651958813806 ,45,3356865127806 ,62,6641795287716
8.4210348 ,Left ,66,5476717229609 ,45,3574877112563 ,62,5853404023381
8.4434606 ,Left ,66,5436917715452 ,45,3562659424645 ,62,5208315959576
8.4645793 ,Left ,66,5310287695111 ,45,3484162600771 ,62,4696758035488
8.4808452 ,Left ,66,4853723835533 ,45,3314292445192 ,62,4210849527696
8.5036318 ,Left ,66,4115872640503 ,45,3328901567583 ,62,3800812255033
8.5241707 ,Left ,66,3994851065232 ,45,304461350321 ,62,3816946342452
8.5408478 ,Left ,66,4441627761061 ,45,2995883935063 ,62,3929642057249
8.563692 ,Left ,66,5060190931395 ,45,3371086635475 ,62,3730388649974
8.5841938 ,Left ,66,4497959955455 ,45,3596478999337 ,62,3648737839707
8.6006705 ,Left ,66,4261878030952 ,45,3569275929434 ,62,3709355618113
8.623339 ,Left ,66,413897966082 ,45,3561743210509 ,62,3747743601718
8.6445483 ,Left ,66,3944405944047 ,45,345794321899 ,62,3953161285753
8.6607996 ,Left ,66,3516244442407 ,45,3732886840627 ,62,4035365118241
8.6834103 ,Left ,66,2619960778069 ,45,3693412952529 ,62,4059522129451
8.7046047 ,Left ,66,2355550053184 ,45,3708376761507 ,62,4377102523108
8.7208788 ,Left ,66,2609708051211 ,45,4029689663132 ,62,4613377445867
8.7435594 ,Left ,66,3116236564264 ,45,4707365687672 ,62,4605327841454
8.7644346 ,Left ,66,3211710162653 ,45,5511426851467 ,62,4531776774153
8.7808636 ,Left ,66,3549106265857 ,45,6149195992938 ,62,4696943180184
8.8032916 ,Left ,66,3394314784743 ,45,6401043728316 ,62,506409024027
8.8244503 ,Left ,66,3201060897343 ,45,6793010821811 ,62,5276455125188
8.840659 ,Left ,66,2730043134662 ,45,7047466366896 ,62,5462282239625
8.8632453 ,Left ,66,2351892703097 ,45,7215259036452 ,62,5634919130761
8.8858647 ,Left ,66,2206644964341 ,45,7169567434415 ,62,5802450638338
8.9007166 ,Left ,66,1901495558093 ,45,6995668342583 ,62,5927626722333
8.9234416 ,Left ,66,1518485083456 ,45,6810897641438 ,62,599698929875
8.9460161 ,Left ,66,1220926557852 ,45,6484166735685 ,62,5948541318864
8.9608658 ,Left ,66,0676073728063 ,45,6238262662924 ,62,5825759684464
8.9832848 ,Left ,66,0086123260508 ,45,6026006833812 ,62,57318779804
9.0057645 ,Left ,66,0296108440395 ,45,5971216330985 ,62,5773551034221
9.0209929 ,Left ,66,1023692966895 ,45,6421590987913 ,62,5421737522961
9.0432286 ,Left ,66,1521657501351 ,45,693456136541 ,62,4830467467911
9.0659795 ,Left ,66,2254304149535 ,45,7090736700971 ,62,4307976754485
9.0803407 ,Left ,66,2432055506199 ,45,7193757484135 ,62,3474084247951
9.1034116 ,Left ,66,2883115407626 ,45,7559171681937 ,62,2432614717895
9.1257985 ,Left ,66,2984316830085 ,45,7964822708022 ,62,1279704887768
9.1468546 ,Left ,66,309469350224 ,45,8646319476724 ,62,0051677500313
9.163454 ,Left ,66,3479307928193 ,45,9236700533194 ,61,8860866437465
9.1857984 ,Left ,66,3634214324776 ,45,9735483334835 ,61,7746668089534
9.2068393 ,Left ,66,3581446840024 ,46,0124554071112 ,61,6657151783857
9.2232161 ,Left ,66,356284380738 ,46,0418071946464 ,61,5676449477725
9.2459731 ,Left ,66,3697557064004 ,46,0668494055896 ,61,4955337114536
9.2668839 ,Left ,66,3749677943919 ,46,0910122550516 ,61,4399893063752
9.2834397 ,Left ,66,3540271518089 ,46,1019060999015 ,61,3895953503701
9.3061389 ,Left ,66,3403879012912 ,46,1026131818905 ,61,3467205473165
9.3200279 ,Left ,66,3381872996107 ,46,0894977013953 ,61,3147251319196
9.343114 ,Left ,66,3265384507652 ,46,0555595787637 ,61,2984072079556
9.3656343 ,Left ,66,2487005016158 ,46,0428757363907 ,61,297257145017
9.3867794 ,Left ,66,1535286135799 ,46,0079866180975 ,61,3152142724718
9.4031743 ,Left ,66,1768386545781 ,45,9969293036136 ,61,3408771532743
9.4259971 ,Left ,66,211007406892 ,45,9941763595235 ,61,34501733138
9.4469463 ,Left ,66,2466320964768 ,45,9499289901558 ,61,3809186775027
9.4634022 ,Left ,66,2922595290184 ,45,9046326252222 ,61,4129507205759
9.4858827 ,Left ,66,2801497021005 ,45,8328323539536 ,61,4480455832494
9.5068018 ,Left ,66,2679387817438 ,45,770265349192 ,61,4759606167967
9.5232458 ,Left ,66,2549989487606 ,45,7131683724716 ,61,5066982954835
9.545987 ,Left ,66,2672092138901 ,45,6971447820917 ,61,5363968307494
9.5670418 ,Left ,66,2810269399476 ,45,7021735885709 ,61,564971008733
9.5835768 ,Left ,66,2915870057997 ,45,6900776233383 ,61,5892235165396
9.605976 ,Left ,66,2342045817035 ,45,6715887503235 ,61,5993976436316
9.627041 ,Left ,66,2076198761932 ,45,6804210458702 ,61,6043521243884
9.643466 ,Left ,66,1983161197231 ,45,7021611616737 ,61,6496467772348
9.6659661 ,Left ,66,2680255533432 ,45,7218871454869 ,61,697888842609
9.6871802 ,Left ,66,3131848430501 ,45,7473772313505 ,61,7204302582988
9.7034007 ,Left ,66,340962642745 ,45,7342998498287 ,61,7205192834977
9.7260066 ,Left ,66,3752370042273 ,45,6981973365118 ,61,7318064721224
9.7472046 ,Left ,66,3855829054487 ,45,6538893921005 ,61,7519693215284
9.7635229 ,Left ,66,4336683712946 ,45,6152133727058 ,61,7603380013413
9.7860964 ,Left ,66,4711447408108 ,45,5659873200083 ,61,7674123182565
9.8069746 ,Left ,66,5224629551979 ,45,5360613395363 ,61,7781626041838
9.8235128 ,Left ,66,5841744338392 ,45,5032358182197 ,61,8078429354415
9.8534846 ,Left ,66,6270602001027 ,45,4778369563342 ,61,8479204010274
9.8686198 ,Left ,66,6281667950128 ,45,4419407989679 ,61,8997922779725
9.8834113 ,Left ,66,6311302745446 ,45,4057867483682 ,61,9558778154987
9.905928 ,Left ,66,643701716219 ,45,3659890461163 ,62,0186816475062
9.9283321 ,Left ,66,6610724273891 ,45,3247879870914 ,62,083832701124
9.9431226 ,Left ,66,6791012049132 ,45,2850110580859 ,62,1500723242875
9.9663003 ,Left ,66,6826445554202 ,45,2402480653285 ,62,2127057753221
9.9885264 ,Left ,66,6909100278983 ,45,1951095269575 ,62,2754975617489
10.0030785 ,Left ,66,7180543140431 ,45,1546077988728 ,62,3347793718986
10.0105512 ,Left ,66,742793847664 ,45,1066929776366 ,62,3927210288029
10.0317163 ,Left ,66,7630469148905 ,45,0523220272835 ,62,449820234447
10.0539713 ,Left ,66,7873618915579 ,45,0054439408126 ,62,4983597885751
10.0703901 ,Left ,66,8152552728131 ,44,9624361945528 ,62,5418464311168
10.0917373 ,Left ,66,8299682593431 ,44,9181302012188 ,62,5861597856179
10.1138299 ,Left ,66,854081269106 ,44,8726271780581 ,62,6278744466822
10.1303015 ,Left ,66,8821064697892 ,44,8292671800003 ,62,6716221147926
10.1514699 ,Left ,66,8936585294968 ,44,7839604004653 ,62,7152125006214
10.1741626 ,Left ,66,8928718573732 ,44,7568302613482 ,62,7546698518181
10.1888696 ,Left ,66,8833992073591 ,44,7423427834471 ,62,7925957575862
10.2117004 ,Left ,66,8714456086 ,44,7335973720084 ,62,8386574673157
10.2340053 ,Left ,66,8677322238779 ,44,7511497157345 ,62,8714496461295
10.2504576 ,Left ,66,8514581505962 ,44,7968136325715 ,62,8940717982999
10.2713647 ,Left ,66,8404041915764 ,44,8458825371645 ,62,9271081892617
10.2940777 ,Left ,66,8119362088102 ,44,8955487153381 ,62,9592186714471
10.3090394 ,Left ,66,769514640172 ,44,9514204095401 ,62,9875050334121
10.3316736 ,Left ,66,7363790833448 ,45,012368521064 ,63,0114049273448
10.3538287 ,Left ,66,7039483399017 ,45,0598354152159 ,63,0312446330312
10.3689835 ,Left ,66,6853958101186 ,45,0916413677403 ,63,0411708791989
10.3917324 ,Left ,66,66379210743 ,45,1094723059318 ,63,0480954134489
10.4139868 ,Left ,66,6243728613593 ,45,1168326765488 ,63,0379176404724
10.4317535 ,Left ,66,58289463293 ,45,108752979786 ,63,0115766038139
10.4515061 ,Left ,66,5432309219264 ,45,1153591462883 ,62,975268703872
10.4735354 ,Left ,66,5034692765805 ,45,1038306309339 ,62,9735648332231
10.4899069 ,Left ,66,514528078686 ,45,1215584789393 ,62,9732567847466
10.5112198 ,Left ,66,5402713018336 ,45,1972557248232 ,62,9335389191512
10.533469 ,Left ,66,5634272972423 ,45,283244676991 ,62,8862395668829
10.5499052 ,Left ,66,5861250734362 ,45,3037010070656 ,62,8587383087134
10.5710681 ,Left ,66,6632902760576 ,45,3207089914925 ,62,8039342980589
10.5937057 ,Left ,66,6868546166842 ,45,3245656104462 ,62,7445312358812
10.6100118 ,Left ,66,6824719258077 ,45,3388472223683 ,62,675220940867
10.6311795 ,Left ,66,6636450553203 ,45,3498119405589 ,62,60254054538
10.6537896 ,Left ,66,6576967686791 ,45,3596503760279 ,62,5333033439665
10.6703628 ,Left ,66,6618900868873 ,45,3594148989475 ,62,4724519933339
10.6916498 ,Left ,66,6471392811562 ,45,3456714753405 ,62,4180891298357
10.7139466 ,Left ,66,6127395496625 ,45,3219802735739 ,62,3794227553182
10.7303916 ,Left ,66,5530196073785 ,45,2971294955599 ,62,3431553784854
10.7513282 ,Left ,66,5279878447222 ,45,3034563563747 ,62,3215898840336
10.7740794 ,Left ,66,5005761599423 ,45,2925355161081 ,62,341100881691
10.7917218 ,Left ,66,5613725431083 ,45,3243999733035 ,62,3587452211011
10.8116406 ,Left ,66,5769578686355 ,45,3854860987266 ,62,3318787310308
10.8338194 ,Left ,66,5453776255999 ,45,4071337984667 ,62,3273342135997
10.851747 ,Left ,66,5672399023795 ,45,4182344794655 ,62,3280371085163
10.87134 ,Left ,66,5645458851008 ,45,4060089088239 ,62,3184987945803
10.8938602 ,Left ,66,5450644141967 ,45,372066288621 ,62,3393272975059
10.9117269 ,Left ,66,502193182764 ,45,3648143905432 ,62,3415718652865
10.9316046 ,Left ,66,418643112708 ,45,3412952519225 ,62,3444434277488
10.953874 ,Left ,66,4234195047935 ,45,3235389490889 ,62,3507952488425
10.9719638 ,Left ,66,4469721908031 ,45,3113844899413 ,62,3792100811553
10.9915328 ,Left ,66,5014296984379 ,45,3533225872423 ,62,4037879620469
11.0140467 ,Left ,66,5495445276551 ,45,4387138684883 ,62,392671551227
11.0318375 ,Left ,66,5749077540046 ,45,4879925079297 ,62,4012815397075
11.0515404 ,Left ,66,6348944666176 ,45,5353549831295 ,62,4119443763984
11.0738281 ,Left ,66,649201864485 ,45,5612646143249 ,62,4400561921244
11.0918563 ,Left ,66,6224480760453 ,45,6007974420711 ,62,466230519269
11.1112781 ,Left ,66,5812087213942 ,45,6300397940357 ,62,4851339152346
11.1339054 ,Left ,66,5588088278196 ,45,6464998658445 ,62,5068161485487
11.1517647 ,Left ,66,5121263897071 ,45,6508012624593 ,62,5318982080324
11.1713984 ,Left ,66,4743718511543 ,45,6446637880476 ,62,552722980085
11.1940927 ,Left ,66,426825748568 ,45,6202679084445 ,62,5676967050017
11.2119618 ,Left ,66,3521026222333 ,45,5708508315334 ,62,5723201734884
11.2313462 ,Left ,66,3368555807999 ,45,5495651538223 ,62,5720875458538
11.2539308 ,Left ,66,3320109325053 ,45,5428836805208 ,62,568505565131
11.2717567 ,Left ,66,3745473874015 ,45,5800192493728 ,62,5387867108216
11.2917221 ,Left ,66,3954595727474 ,45,6570940866088 ,62,480408796733
11.314059 ,Left ,66,4399815777986 ,45,692746091822 ,62,4461133431889
11.3317538 ,Left ,66,5163114912394 ,45,7071960499295 ,62,4081891421225
11.35166 ,Left ,66,5414526112436 ,45,694551212548 ,62,3510564906818
11.3735607 ,Left ,66,5583415608059 ,45,6985043381716 ,62,2747905161167
11.3914758 ,Left ,66,5576600364922 ,45,7250219951824 ,62,1804307886548
11.4130744 ,Left ,66,5483314438157 ,45,7901015313304 ,62,0687455301186
11.4343513 ,Left ,66,5969190397656 ,45,8500602410123 ,61,9529604342544
11.4520339 ,Left ,66,6116860217241 ,45,8917452110013 ,61,8618848633189
11.4729279 ,Left ,66,5923902561813 ,45,9313832912247 ,61,763917066377
11.4939543 ,Left ,66,5754476312143 ,45,9739153999723 ,61,6759238328719
11.5174553 ,Left ,66,5581270338843 ,46,0328660376123 ,61,5865441591547
11.5323941 ,Left ,66,567140706608 ,46,086747598133 ,61,50240858979
11.5535565 ,Left ,66,5695032991062 ,46,1222894072536 ,61,4375105051948
11.5715251 ,Left ,66,5444331082104 ,46,1439849418034 ,61,3853406206792
11.5926248 ,Left ,66,5045712873578 ,46,1574153354376 ,61,3369957113921
11.6138419 ,Left ,66,4842975656539 ,46,1607282916502 ,61,2948453398565
11.6318266 ,Left ,66,465622056576 ,46,1378880430154 ,61,2758884905686
11.658865 ,Left ,66,426802248734 ,46,1208222736386 ,61,2854638177963
11.6741013 ,Left ,66,3472344973791 ,46,0756671222397 ,61,3209516542143
11.6919321 ,Left ,66,3488520175444 ,46,0668339964057 ,61,3456603731105
11.7126579 ,Left ,66,3310652676073 ,46,0272047361645 ,61,3696610320713
11.733839 ,Left ,66,3518213408655 ,45,9272929908738 ,61,4247213293183
11.7516568 ,Left ,66,3957513093724 ,45,8306989272964 ,61,4490336339906
11.7744527 ,Left ,66,4230160167017 ,45,7101217004946 ,61,453808017498
11.79396 ,Left ,66,4069226738645 ,45,6064907050057 ,61,4599935824037
11.8118164 ,Left ,66,3929645296191 ,45,5322197079692 ,61,4837617809957
11.8344385 ,Left ,66,4067397816265 ,45,5018002741593 ,61,5213562167782
11.8537598 ,Left ,66,4134491949007 ,45,5103113679073 ,61,5413929640962
11.8715869 ,Left ,66,4191097387966 ,45,4990281081966 ,61,5701824794245
11.8935186 ,Left ,66,4213578421681 ,45,4802588868228 ,61,6079794766168
11.9146635 ,Left ,66,418927945184 ,45,4724336102726 ,61,6387195559439
11.930834 ,Left ,66,4100826109613 ,45,4773384991616 ,61,667915019166
11.9533806 ,Left ,66,4083010117466 ,45,4859065107356 ,61,702584017993
11.9678541 ,Left ,66,3979828233263 ,45,4952997250214 ,61,728817196921
11.9908427 ,Left ,66,3747165123501 ,45,5124661877665 ,61,748208816453
12.0133884 ,Left ,66,3400574081709 ,45,5412466866431 ,61,7583961080466
12.0275795 ,Left ,66,2753211590551 ,45,5693857179628 ,61,7405545251787
12.0508396 ,Left ,66,2363074470248 ,45,6159367092629 ,61,7195719462107
12.0735214 ,Left ,66,1823778682621 ,45,6607369369271 ,61,7360556956924
12.0876871 ,Left ,66,2207291637289 ,45,6978484969629 ,61,7583499867252
12.1106061 ,Left ,66,2635280056361 ,45,7562425481085 ,61,7433670855548
12.1333515 ,Left ,66,3308067166117 ,45,7896317411942 ,61,7140875426525
12.1474391 ,Left ,66,4322206004591 ,45,8019702269744 ,61,7196444047116
12.170876 ,Left ,66,4694174660033 ,45,7993699050269 ,61,7243542746187
12.1933464 ,Left ,66,5019244660798 ,45,7823042976667 ,61,7352047159318
12.2078846 ,Left ,66,519639867957 ,45,7444272762062 ,61,7614688584002
12.2308618 ,Left ,66,5257511214984 ,45,7057776445704 ,61,8012256765462
12.2534696 ,Left ,66,539606187718 ,45,6709264454362 ,61,8564609673652
12.2745945 ,Left ,66,5645453425675 ,45,642017209069 ,61,9286419975595
12.2909769 ,Left ,66,5699694653601 ,45,5983500932978 ,62,0107787284181
12.3133044 ,Left ,66,5789515448379 ,45,5453450645321 ,62,1065106326295
12.334723 ,Left ,66,5878085874475 ,45,4787986507843 ,62,1999297033676
12.3508344 ,Left ,66,5854317545832 ,45,3905498582143 ,62,2971843346147
12.373403 ,Left ,66,6195376016144 ,45,3158448549059 ,62,3921002177274
12.3946967 ,Left ,66,6278841992015 ,45,2489492226627 ,62,4793386410036
12.4109402 ,Left ,66,6391233057568 ,45,1913208907937 ,62,5644857411854
12.4333265 ,Left ,66,6681826871536 ,45,1433927323219 ,62,6483303194098
12.4542268 ,Left ,66,6998496702038 ,45,0958506303534 ,62,7233742224253
12.4700925 ,Left ,66,7256774800835 ,45,0552771293364 ,62,7915801344171
12.4934556 ,Left ,66,7451216150449 ,45,021610619086 ,62,8523157656488
12.5145301 ,Left ,66,7751322868216 ,44,992738479792 ,62,8939414799037
12.5308146 ,Left ,66,8131613719139 ,44,9690392516868 ,62,9232234808041
12.5532333 ,Left ,66,8400488445167 ,44,9522776971483 ,62,9402039319904
12.5745603 ,Left ,66,8684284612166 ,44,9364156066544 ,62,9399422822298
12.5908151 ,Left ,66,8724791047002 ,44,9274593874999 ,62,9353560352867
12.6135044 ,Left ,66,8775708953167 ,44,9222841943785 ,62,9277288948081
12.6358251 ,Left ,66,8883543935992 ,44,9190682591967 ,62,9166860233289
12.6509967 ,Left ,66,8848963302638 ,44,9139993313724 ,62,9005104144964
12.6733074 ,Left ,66,8959854720919 ,44,9100819588244 ,62,8943722077544
12.6958269 ,Left ,66,9016646425846 ,44,9075190434754 ,62,9090647185386
12.7108514 ,Left ,66,8859174710765 ,44,9007089212407 ,62,932341035106
12.7334973 ,Left ,66,8634595616649 ,44,9052785509464 ,62,9508827967258
12.7558552 ,Left ,66,8358294833953 ,44,9211897190082 ,62,9850182251259
12.770897 ,Left ,66,8185407003549 ,44,9343006843683 ,63,0242508352606
12.7936524 ,Left ,66,7931918811197 ,44,9538458365284 ,63,063462557963
12.8158573 ,Left ,66,7662732580867 ,44,991329218649 ,63,1014632835335
12.8301844 ,Left ,66,7330850971528 ,45,0325375898572 ,63,1359230001437
12.8533109 ,Left ,66,6839227410747 ,45,0658623401569 ,63,1716588705047
12.8761402 ,Left ,66,6567025278133 ,45,0883083269712 ,63,2040601239417
12.8905495 ,Left ,66,6260948882811 ,45,1031184403306 ,63,2318131769951
12.9134949 ,Left ,66,5762918045002 ,45,1163208144033 ,63,2517612417802
12.9361753 ,Left ,66,5145583659243 ,45,1209495253926 ,63,2608199889282
12.9504229 ,Left ,66,4243224845178 ,45,1244270285836 ,63,2481656495469
12.9731242 ,Left ,66,3328767103813 ,45,1117833606117 ,63,2251246507772
12.9958328 ,Left ,66,3270590845919 ,45,1056954174857 ,63,2161454206627
13.0101156 ,Left ,66,3480486707725 ,45,1775627357386 ,63,186134527462
13.033388 ,Left ,66,3436863084939 ,45,2646659632789 ,63,1586680868347
13.0555823 ,Left ,66,3859260758011 ,45,3163781502072 ,63,1569474385625
13.0700321 ,Left ,66,4051773236849 ,45,3373081975723 ,63,1188656068353
13.0933032 ,Left ,66,4486603988552 ,45,3327551411308 ,63,0597793841921
13.1156791 ,Left ,66,4737575934227 ,45,3456704846413 ,62,9894163864313
13.1299461 ,Left ,66,4753916114938 ,45,3508834108502 ,62,9130490475984
13.1530862 ,Left ,66,477240070398 ,45,3550374594667 ,62,8390790472288
13.1822114 ,Left ,66,4708882332233 ,45,3538064716131 ,62,7769313263406
13.1972136 ,Left ,66,4604142207712 ,45,3480425368814 ,62,7168608600829
13.2134503 ,Left ,66,4419886675794 ,45,3225781780927 ,62,6688555341501
13.2361001 ,Left ,66,4185470486267 ,45,3014734538022 ,62,6327260087146
13.257017 ,Left ,66,3237608110859 ,45,2679507691523 ,62,6116222982713
13.273347 ,Left ,66,3090803729608 ,45,2383779074229 ,62,6178742940936
13.2961211 ,Left ,66,3562232709175 ,45,2376704536044 ,62,6392767372781
13.3172039 ,Left ,66,4301634609831 ,45,3061889678003 ,62,6311616988504
13.3336555 ,Left ,66,3990201060554 ,45,3519325713608 ,62,6189776323684
13.3559037 ,Left ,66,3945072546035 ,45,3635627081862 ,62,6348742274061
13.376849 ,Left ,66,3470399181149 ,45,3560106402393 ,62,6395302536898
13.3932841 ,Left ,66,3184944738408 ,45,3450337088807 ,62,6486586263159
13.4160277 ,Left ,66,286780816751 ,45,3242633253654 ,62,6577903316924
13.4370496 ,Left ,66,2092676286818 ,45,3229560462781 ,62,64733939892
13.4609006 ,Left ,66,1732799048881 ,45,3206604242152 ,62,6458149272752
13.4761428 ,Left ,66,1835732638754 ,45,3512574854536 ,62,6722588298435
13.4969858 ,Left ,66,2526931574353 ,45,4198679975418 ,62,6915171185509
13.5135754 ,Left ,66,2916672315006 ,45,5157409719008 ,62,6688905337158
13.5358278 ,Left ,66,3149399679386 ,45,5642708374124 ,62,6765722391515
13.5569029 ,Left ,66,380724594735 ,45,6180587304157 ,62,6909239964071
13.5733475 ,Left ,66,3882567803598 ,45,643421310476 ,62,7252506025428
13.5958975 ,Left ,66,3740520453012 ,45,6785416262489 ,62,7575480894538
13.6184189 ,Left ,66,3260954054567 ,45,7165709921998 ,62,772339269609
13.6334654 ,Left ,66,2956360420472 ,45,7483586723606 ,62,7830017714562
13.6557689 ,Left ,66,2696360864059 ,45,7700158735129 ,62,7988291196839
13.6783736 ,Left ,66,238039103131 ,45,7759182074569 ,62,8113167690756
13.6935276 ,Left ,66,1884802292694 ,45,7593303093939 ,62,8072076267576
13.7158758 ,Left ,66,1619790957532 ,45,7287985204849 ,62,8015172132893
13.7382839 ,Left ,66,0540718342248 ,45,6860690263175 ,62,7858034597829
13.7527042 ,Left ,66,0644207354043 ,45,6741127016439 ,62,7785563466392
13.7758601 ,Left ,66,0718042556463 ,45,6525109176809 ,62,7806994919626
13.7985408 ,Left ,66,136898710598 ,45,7043487463687 ,62,7433667772581
13.8123987 ,Left ,66,1558280175721 ,45,782423848982 ,62,6799723770697
13.8361665 ,Left ,66,1896993142398 ,45,8154293904829 ,62,6254121897783
13.8587918 ,Left ,66,2561794730084 ,45,8426447865565 ,62,5460160735063
13.8731431 ,Left ,66,2925571951581 ,45,8820978364355 ,62,4477813429976
13.8961051 ,Left ,66,3214703535887 ,45,953698493103 ,62,3204916643799
13.9185376 ,Left ,66,3399901185319 ,46,0378142547565 ,62,197004208219
13.9396856 ,Left ,66,3733287851043 ,46,1130949204728 ,62,0808998303924
13.9558563 ,Left ,66,3858724696982 ,46,1781253384717 ,61,9699122079344
13.9784175 ,Left ,66,385783159071 ,46,2330566828042 ,61,8629589789584
13.9991538 ,Left ,66,3738701843585 ,46,2734393912177 ,61,7642866488206
14.0156458 ,Left ,66,3790878709356 ,46,3022420550811 ,61,676330341159
14.0382094 ,Left ,66,37817279925 ,46,313986149668 ,61,6060033369869
14.0590627 ,Left ,66,3679155222525 ,46,3170640564316 ,61,5448476097053
14.0759215 ,Left ,66,3596664359988 ,46,3058652792026 ,61,4985979665328
14.0984186 ,Left ,66,3620398088339 ,46,2787791552519 ,61,459809604446
14.1194931 ,Left ,66,3329704312562 ,46,2283345312916 ,61,4275419757489
14.1357592 ,Left ,66,3021211570029 ,46,1915174137493 ,61,4299270485119
14.1583258 ,Left ,66,2486521199515 ,46,1396148559726 ,61,454173521775
14.1792835 ,Left ,66,2719092885569 ,46,1465884563245 ,61,4720209240995
14.1957034 ,Left ,66,2921130034415 ,46,1422307622608 ,61,4891262098415
14.2183669 ,Left ,66,3123582143196 ,46,0916855957407 ,61,535669511744
14.239327 ,Left ,66,3760588252892 ,46,0598307439946 ,61,5615242532735
14.2556065 ,Left ,66,3764532747546 ,45,987243442072 ,61,5975675707583
14.2781319 ,Left ,66,3703421127048 ,45,9242006922726 ,61,6200323779676
14.2993824 ,Left ,66,3644354097476 ,45,8782691700855 ,61,6620988332185
14.3157995 ,Left ,66,3585138831446 ,45,8727269112946 ,61,6961089606752
14.3382402 ,Left ,66,3520759918778 ,45,8823831489184 ,61,7279431421618
14.3595278 ,Left ,66,3775614407244 ,45,8751589044007 ,61,7634340269289
14.3759251 ,Left ,66,3824132654218 ,45,8446139277586 ,61,7875584918993
14.3984892 ,Left ,66,3015218809956 ,45,819978334185 ,61,80692652256
14.4195158 ,Left ,66,2612062320696 ,45,8037351132379 ,61,8297735694733
14.4360244 ,Left ,66,2818501161005 ,45,8103876296438 ,61,8698808000185
14.4584188 ,Left ,66,3489614808004 ,45,842086423816 ,61,8949121008798
14.4797608 ,Left ,66,3830143582669 ,45,8855257898634 ,61,8914368930538
14.4956348 ,Left ,66,4221491701579 ,45,8664964418744 ,61,8974641687035
14.5183379 ,Left ,66,5061270706018 ,45,8537778082607 ,61,9061747024584
14.5412995 ,Left ,66,5662515634356 ,45,8283416091432 ,61,9181279598965
14.556342 ,Left ,66,6010065546777 ,45,797272244707 ,61,9400743463835
14.5786983 ,Left ,66,5968028766598 ,45,762794381357 ,61,9612450740048
14.6009196 ,Left ,66,5959274810757 ,45,7259388770688 ,61,9784583333759
14.6158104 ,Left ,66,64090696842 ,45,6983122623754 ,62,011287755857
14.6383592 ,Left ,66,6577671658231 ,45,6619187045567 ,62,0532669730837
14.6608664 ,Left ,66,6895332504294 ,45,628688828189 ,62,1062345037915
14.6759634 ,Left ,66,6739867805349 ,45,576700419167 ,62,1728918267262
14.6983658 ,Left ,66,6467238938551 ,45,5120949583564 ,62,2511490676504
14.7208495 ,Left ,66,6555896424022 ,45,452160531336 ,62,3391766959846
14.7351669 ,Left ,66,6429993981713 ,45,3892289937246 ,62,4287468768912
14.7583911 ,Left ,66,634715938899 ,45,3317442470812 ,62,5240293370933
14.7808736 ,Left ,66,6382775791488 ,45,2712449163394 ,62,6194633412133
14.8022105 ,Left ,66,6366949360001 ,45,2042047591834 ,62,7137384417739
14.8182762 ,Left ,66,6350727906553 ,45,1370431499173 ,62,8084587303513
14.8408505 ,Left ,66,6457477337731 ,45,0769457402089 ,62,9006933414131
14.8618287 ,Left ,66,6473645490714 ,45,0221670762749 ,62,987444626769
14.8783643 ,Left ,66,6574076133005 ,44,9782468758866 ,63,0658643295169
14.900921 ,Left ,66,6771435312852 ,44,9503139881435 ,63,1330900801188
14.9219806 ,Left ,66,6932697140786 ,44,923782376459 ,63,1852191506077
14.9383452 ,Left ,66,7273808700093 ,44,8991361793147 ,63,2273654265513
14.9609628 ,Left ,66,7581067077995 ,44,8762956132099 ,63,256935768564
14.975381 ,Left ,66,7810137828215 ,44,8540560310629 ,63,2811633561614
14.9984495 ,Left ,66,8206610730576 ,44,8296185307252 ,63,2957585924494
15.0210548 ,Left ,66,8440370701438 ,44,7978159409294 ,63,3047308998189
15.0423049 ,Left ,66,8640238041696 ,44,7786236160928 ,63,3145920576585
15.0583464 ,Left ,66,8881192857525 ,44,778214639581 ,63,322002565181
15.0815232 ,Left ,66,8840325542743 ,44,7852832296535 ,63,3332749539863
15.1020233 ,Left ,66,8743216752642 ,44,7954858697161 ,63,3583476850935
15.1184641 ,Left ,66,8780621174904 ,44,8024788664018 ,63,3940195990536
15.1409622 ,Left ,66,8783199781039 ,44,8084799038103 ,63,4260175104376
15.1622362 ,Left ,66,8632417513088 ,44,8232896881084 ,63,4534723369176
15.1785461 ,Left ,66,8375211933505 ,44,8455132952786 ,63,4807471104038
15.2009867 ,Left ,66,8163156255193 ,44,871144898202 ,63,5082415932255
15.222159 ,Left ,66,7987223413483 ,44,9022586238027 ,63,5328533571385
15.2384989 ,Left ,66,7963066394299 ,44,9389673731454 ,63,5498210682
15.2609399 ,Left ,66,7774296739485 ,44,9761796812839 ,63,5597097945242
15.2820791 ,Left ,66,7510737514302 ,45,0134462383812 ,63,5690963735245
15.2984088 ,Left ,66,7288594487696 ,45,0563080793554 ,63,5761965031728
15.3211849 ,Left ,66,7060661482425 ,45,099545638798 ,63,5756409853239
15.3422966 ,Left ,66,6737870225163 ,45,1253032070507 ,63,5725147151188
15.3584355 ,Left ,66,6397686580137 ,45,1457651353072 ,63,5715471132254
15.3809243 ,Left ,66,6009331981118 ,45,1525106402204 ,63,5476105764173
15.4036591 ,Left ,66,5731658524229 ,45,1487724060304 ,63,4960271212142
15.4184007 ,Left ,66,5020240319405 ,45,1248595853105 ,63,4474113013677
15.4409459 ,Left ,66,4516222416549 ,45,0854850060155 ,63,4292431406152
15.4623805 ,Left ,66,4582530813133 ,45,0806567121022 ,63,411841542224
15.4784881 ,Left ,66,4816430969799 ,45,148606203392 ,63,367136712897
15.5008442 ,Left ,66,5097703449888 ,45,2369827212635 ,63,3233189868341
15.5237548 ,Left ,66,5516794616069 ,45,2973800015423 ,63,2876069195961
15.5386651 ,Left ,66,5976711999973 ,45,3481318195682 ,63,2295041978249
15.5609747 ,Left ,66,5915116022192 ,45,370250838435 ,63,1709602526025
15.5834962 ,Left ,66,5624172334077 ,45,3995364380647 ,63,1091397890985
15.5983416 ,Left ,66,54633484937 ,45,4089674144763 ,63,0482129698804
15.620831 ,Left ,66,5197660129625 ,45,4296899493863 ,62,9900853520557
15.6434891 ,Left ,66,5110235192898 ,45,4358413129044 ,62,9360778181161
15.6577684 ,Left ,66,465085669396 ,45,4320927663179 ,62,9011094180275
15.6809011 ,Left ,66,4200834034919 ,45,4154995951561 ,62,8674738828039
15.7035277 ,Left ,66,3733801503423 ,45,3851427063923 ,62,8624881857139
15.7178572 ,Left ,66,3935419308854 ,45,3832393446833 ,62,8684815698362
15.7408385 ,Left ,66,4728204376046 ,45,423843314923 ,62,8544840017368
15.7459287 ,Left ,66,453419008819 ,45,4513823955447 ,62,8438890998487
15.7686324 ,Left ,66,4816803046626 ,45,4732617265603 ,62,8409161697813
15.7851782 ,Left ,66,4659257458253 ,45,4744009063785 ,62,8322520001595
15.8059853 ,Left ,66,4615237319208 ,45,4525028778814 ,62,8406508145827
15.8286293 ,Left ,66,4187057490184 ,45,4561146875482 ,62,8306882178963
15.8453055 ,Left ,66,400244425814 ,45,46985244551 ,62,8027617432001
15.8663213 ,Left ,66,3896333894284 ,45,4720441948269 ,62,7648180524666
15.8888351 ,Left ,66,3953383632743 ,45,4631858464747 ,62,7783902774234
15.9052456 ,Left ,66,4188953568305 ,45,5140331753944 ,62,8050803470831
15.9264156 ,Left ,66,4734056121339 ,45,6137191049291 ,62,7921111508349
15.948955 ,Left ,66,4827518469658 ,45,6922666528437 ,62,7837545100244
15.9650089 ,Left ,66,5412675003938 ,45,7528327910132 ,62,7968162124639
15.9862083 ,Left ,66,5187268560936 ,45,7859237808496 ,62,8272028045403
16.0084367 ,Left ,66,5158559810049 ,45,8391707990072 ,62,8551269158377
16.0250451 ,Left ,66,4984498244223 ,45,8744911711531 ,62,8747903247722
16.0462853 ,Left ,66,4624038792337 ,45,8918130325013 ,62,9024863474897
16.0689308 ,Left ,66,4354365861175 ,45,893765964631 ,62,9278863863761
16.0877128 ,Left ,66,3961367354386 ,45,885630782957 ,62,9417882260698
16.106768 ,Left ,66,3721178691221 ,45,8691249905518 ,62,938106812486
16.1293365 ,Left ,66,3683220280787 ,45,8299682067424 ,62,9197082795381
16.1456465 ,Left ,66,3430942988042 ,45,8068726948561 ,62,9071025008851
16.1664507 ,Left ,66,2957905707383 ,45,7727272360997 ,62,9118460156438
16.1888434 ,Left ,66,3163561940622 ,45,7813563564618 ,62,9086005024392
16.2054146 ,Left ,66,3494318138256 ,45,8402411750668 ,62,8750459398947
16.2263881 ,Left ,66,3733546727001 ,45,8877136805219 ,62,8468174009481
16.2491402 ,Left ,66,4036915603316 ,45,8812847006984 ,62,8218404185695
16.2653895 ,Left ,66,4333869966722 ,45,8782506468533 ,62,7626546434217
16.2864583 ,Left ,66,4586434471913 ,45,9018487930083 ,62,6849793427531
16.3089709 ,Left ,66,4658603349742 ,45,9474203519702 ,62,5838276631844
16.3253365 ,Left ,66,4538368201986 ,46,0228391936707 ,62,4641144509048
16.3463532 ,Left ,66,5001066990181 ,46,0828362433953 ,62,3556656159032
16.3688276 ,Left ,66,5351298651922 ,46,1375980374799 ,62,253694818749
16.3852547 ,Left ,66,5170239172081 ,46,1894712074494 ,62,1547374047691
16.4063719 ,Left ,66,4935592668394 ,46,22975361539 ,62,0665845314035
16.4287182 ,Left ,66,4990013387224 ,46,2617086698305 ,61,9970566181651
16.4466643 ,Left ,66,5057991764209 ,46,2967671862558 ,61,9296163201327
16.4661474 ,Left ,66,4945680088819 ,46,3359854033677 ,61,8652128860739
16.4886375 ,Left ,66,4736441165116 ,46,3578014764831 ,61,8125811718689
16.5125791 ,Left ,66,4588411063472 ,46,3558684835917 ,61,7750802255544
16.5262675 ,Left ,66,4490910055315 ,46,3468432293504 ,61,7345917004106
16.5489935 ,Left ,66,4008102381878 ,46,3061070236211 ,61,7054961857875
16.5671262 ,Left ,66,3676270189279 ,46,2918505375011 ,61,6942673626718
16.5867772 ,Left ,66,3071727154114 ,46,2710732725264 ,61,7262755689345
16.6090609 ,Left ,66,3407474577173 ,46,2891057881008 ,61,7542032383674
16.6269188 ,Left ,66,3415959390663 ,46,2857374938768 ,61,7745832594831
16.646499 ,Left ,66,4017368428936 ,46,2280041839398 ,61,8196522496728
16.6689657 ,Left ,66,4901304740769 ,46,1834529331254 ,61,8323690068983
16.6869134 ,Left ,66,5182876070328 ,46,0995466993261 ,61,8447012114288
16.7064396 ,Left ,66,5131385006234 ,46,0099845644156 ,61,8610151163445
16.7289781 ,Left ,66,4971027632824 ,45,9438430916303 ,61,8959602332144
16.746659 ,Left ,66,470093369433 ,45,9372867286434 ,61,9199441372268
16.7663581 ,Left ,66,472415592487 ,45,9400702849883 ,61,9363984904649
16.7916651 ,Left ,66,4545741465339 ,45,9026903446708 ,61,9570646841251
16.8066254 ,Left ,66,4243986405888 ,45,9077552254667 ,61,9573787598039
16.8261746 ,Left ,66,3241092209356 ,45,9023961769166 ,61,9742395745223
16.8487724 ,Left ,66,3565508999279 ,45,9110116707622 ,62,0218437665334
16.866744 ,Left ,66,3987215598078 ,45,9187109475728 ,62,0676574286918
16.8864448 ,Left ,66,4387715990433 ,45,9422374592996 ,62,0914620475313
16.908775 ,Left ,66,5063763516653 ,45,9264516580386 ,62,117685547555
16.9266667 ,Left ,66,5869824683272 ,45,9083003489589 ,62,1359520458633
16.9464498 ,Left ,66,6119317333561 ,45,873580156581 ,62,1477382044412
16.9689378 ,Left ,66,6545650600657 ,45,8544779250018 ,62,1618085802506
16.9867036 ,Left ,66,66369093058 ,45,8141020325384 ,62,1862666238506
17.0061988 ,Left ,66,6821165624809 ,45,7880800802358 ,62,206723866624
17.0289551 ,Left ,66,714760960073 ,45,7538215157359 ,62,2421768567957
17.0469133 ,Left ,66,7335254258666 ,45,7265357341527 ,62,2947820512648
17.0677366 ,Left ,66,7437926828903 ,45,6933069909617 ,62,3562104578872
17.0888716 ,Left ,66,734897412192 ,45,6447145310017 ,62,4302534106828
17.1111641 ,Left ,66,7441496485936 ,45,5872775705274 ,62,5097041785514
17.1278121 ,Left ,66,7357701928526 ,45,5298285800055 ,62,5971383651339
17.1489717 ,Left ,66,7314278989011 ,45,47598516803 ,62,6873288101866
17.1664971 ,Left ,66,7436136615258 ,45,4191335450675 ,62,7708251324022
17.187547 ,Left ,66,7485002105791 ,45,3611992741327 ,62,8470801218407
17.2085923 ,Left ,66,7540950311513 ,45,2946294519769 ,62,9276647829704
17.2268849 ,Left ,66,7547831211495 ,45,239469533936 ,63,0031790380105
17.2478287 ,Left ,66,7664264484878 ,45,1943632236243 ,63,0705960796774
17.2688551 ,Left ,66,7699785262124 ,45,1528832924667 ,63,1259807417815
17.2867112 ,Left ,66,7918321861336 ,45,1145536993085 ,63,1699191079795
17.3076115 ,Left ,66,811244942659 ,45,0788792494388 ,63,2071948151807
17.3284016 ,Left ,66,8263135736902 ,45,0448212021341 ,63,242811700531
17.3470954 ,Left ,66,838636916871 ,45,020276840986 ,63,2747986415238
17.3680761 ,Left ,66,8496182908547 ,44,9982289860186 ,63,3082345160172
17.3890682 ,Left ,66,8423921780016 ,44,9768445561165 ,63,3400738964675
17.406839 ,Left ,66,8340037882201 ,44,9552198668456 ,63,3590310224862
17.4293635 ,Left ,66,8245820885125 ,44,9450326463957 ,63,3763772958433
17.4489163 ,Left ,66,8106499501797 ,44,9676322999929 ,63,3893571432308
17.4669568 ,Left ,66,7701383174515 ,45,0055356965185 ,63,4155619005735
17.4893983 ,Left ,66,7386503858906 ,45,0278809606858 ,63,4530723221992
17.5087941 ,Left ,66,7039129286943 ,45,0440090085005 ,63,4862706856352
17.5266455 ,Left ,66,6716772608994 ,45,0709537748098 ,63,5069198736416
17.5495888 ,Left ,66,6437861344368 ,45,109504154101 ,63,519374548567
17.5692871 ,Left ,66,612729156613 ,45,1426418149155 ,63,5231149903865
17.5870992 ,Left ,66,5908021151016 ,45,1592229326138 ,63,52901244
17.6099725 ,Left ,66,5579341303193 ,45,166156154128 ,63,5343660928458
17.6297445 ,Left ,66,4981599745612 ,45,1803138190763 ,63,5276916574661
17.6459196 ,Left ,66,4732002251881 ,45,1922214998099 ,63,4972397433051
17.6685308 ,Left ,66,4301101663221 ,45,2005289346861 ,63,4738356555418
17.6893753 ,Left ,66,3667802549616 ,45,1868594684362 ,63,4599989018228
17.705701 ,Left ,66,370640826699 ,45,200573268185 ,63,4492651593633
17.7282085 ,Left ,66,3929606554213 ,45,2581071397862 ,63,4300088266501
17.7426521 ,Left ,66,4327955832084 ,45,3380156640859 ,63,3989180381477
17.7658541 ,Left ,66,4786556920273 ,45,402549731408 ,63,3838134038368
17.7883118 ,Left ,66,5161817129905 ,45,446962406707 ,63,3418644473495
17.8027008 ,Left ,66,5228096486587 ,45,4471733967326 ,63,2885833198836
17.8257776 ,Left ,66,5258551855418 ,45,4610642989596 ,63,2244025804284
17.8561263 ,Left ,66,5100995712344 ,45,4725420827337 ,63,1572856297803
17.8627187 ,Left ,66,4985939834939 ,45,5017690340503 ,63,092390330433
17.8859579 ,Left ,66,5175140859766 ,45,5020068535622 ,63,0330890748593
17.9084087 ,Left ,66,4969486002978 ,45,4799137503902 ,62,9885497308431
17.929616 ,Left ,66,4527242066634 ,45,4511928035869 ,62,9585314529639
17.9459172 ,Left ,66,361832339864 ,45,4125844909937 ,62,9312284325818
17.9683704 ,Left ,66,3602007451168 ,45,4024762505348 ,62,9258212549851
17.9894683 ,Left ,66,4200617174777 ,45,3850231682177 ,62,9461691511235
18.0058488 ,Left ,66,5085746973951 ,45,4328190057483 ,62,9470295041698
18.0285502 ,Left ,66,4955552318791 ,45,4922040305182 ,62,9314101581877
18.0496529 ,Left ,66,4616886029327 ,45,5148244914894 ,62,9446333001103
18.0659358 ,Left ,66,4251908413067 ,45,5122170557023 ,62,9468536918231
18.0885318 ,Left ,66,4248317972774 ,45,5006168419376 ,62,9586132691793
18.1095 ,Left ,66,3986969029023 ,45,4890881525619 ,62,9676398738658
18.1335524 ,Left ,66,3301648331995 ,45,4862623549605 ,62,9539605874747
18.1482834 ,Left ,66,320601541708 ,45,482464299055 ,62,9484635321823
18.1696553 ,Left ,66,3456088468198 ,45,4781009453122 ,62,9590386558573
18.1858684 ,Left ,66,4034607376379 ,45,5265972146959 ,62,9800992402986
18.2083768 ,Left ,66,4603975524449 ,45,6256120140629 ,62,9824986788654
18.2292734 ,Left ,66,5008504878636 ,45,6979231869493 ,62,9945718040559
18.2458884 ,Left ,66,5517973824931 ,45,7451280793115 ,63,0204647303268
18.2683463 ,Left ,66,5131675889579 ,45,7705868394333 ,63,0652182793983
18.2894264 ,Left ,66,494850785117 ,45,8166800932266 ,63,0897732823897
18.3060071 ,Left ,66,4640901791168 ,45,8443489327433 ,63,1082467752218
18.3285581 ,Left ,66,4303434109176 ,45,8635474076533 ,63,1247468896195
18.3510136 ,Left ,66,4107656685799 ,45,8670110202746 ,63,1396311769732
18.365937 ,Left ,66,3606623901764 ,45,8678913390721 ,63,1462555373359
18.3884981 ,Left ,66,3116758657148 ,45,8580922621868 ,63,1480957523098
18.4109489 ,Left ,66,2853411592174 ,45,837101678018 ,63,1417122734074
18.4258175 ,Left ,66,2141713235881 ,45,8052669558207 ,63,1140888350892
18.4543348 ,Left ,66,1796254401404 ,45,7693067668779 ,63,1045107430422
18.4712304 ,Left ,66,224248276912 ,45,7444708000137 ,63,0890850592614
18.4862704 ,Left ,66,275375892747 ,45,797994402526 ,63,0290188676694
18.5086732 ,Left ,66,310053695927 ,45,863667040535 ,62,9659395375361
18.5312482 ,Left ,66,3515902523066 ,45,896239293569 ,62,9168539423297
18.5454804 ,Left ,66,3689807564576 ,45,9148331116727 ,62,8327756382766
18.5687175 ,Left ,66,406082339432 ,45,9565267544383 ,62,7176981386125
18.5908216 ,Left ,66,4251235715966 ,45,9943125097805 ,62,5888955882176
18.6118205 ,Left ,66,4367077164686 ,46,0480077618219 ,62,4555732101981
18.6284217 ,Left ,66,4641727740338 ,46,1115327417206 ,62,324546656416
18.6507424 ,Left ,66,4742147936562 ,46,1754422706864 ,62,1948211977577
18.6720618 ,Left ,66,4604729086176 ,46,2217209253144 ,62,0881349846028
18.6888386 ,Left ,66,460334802057 ,46,262981460207 ,62,0011833506249
18.7106505 ,Left ,66,455177696953 ,46,3011794818654 ,61,9290242516215
18.73172 ,Left ,66,450640649029 ,46,3364194720199 ,61,8727615454138
18.7481918 ,Left ,66,4540937994606 ,46,3675272201326 ,61,8305546015913
18.7706211 ,Left ,66,4473429040545 ,46,3867445531746 ,61,8028010775857
18.785106 ,Left ,66,450389475873 ,46,3939881541395 ,61,7848842866665
18.8084589 ,Left ,66,4527857264851 ,46,3796934743255 ,61,7801645108376
18.8309707 ,Left ,66,3514710813651 ,46,3437871330682 ,61,7771705800939
18.8520254 ,Left ,66,2815976025175 ,46,3090254341446 ,61,7881653904412
18.8684916 ,Left ,66,2921329568707 ,46,2629141574077 ,61,8195238737528
18.8910247 ,Left ,66,3473096965583 ,46,2565589787481 ,61,8242646601367
18.9120014 ,Left ,66,379168522127 ,46,2229896053273 ,61,8567570500277
18.928465 ,Left ,66,4269662139276 ,46,1707324415663 ,61,8882834893857
18.9509301 ,Left ,66,4182123638272 ,46,0926400940554 ,61,9080432657524
18.9722255 ,Left ,66,4298060633026 ,46,0135195553226 ,61,9164216934013
18.9884886 ,Left ,66,4300602784879 ,45,927560194963 ,61,9507650862989
19.0109486 ,Left ,66,4149518311306 ,45,8858300976135 ,61,991649244575
19.0322666 ,Left ,66,4039858794919 ,45,8869238020462 ,62,0263582449344
19.0484723 ,Left ,66,4174773080024 ,45,8788659585848 ,62,0406690502611
19.0709342 ,Left ,66,346792581943 ,45,8381157477925 ,62,0446247355807
19.0918849 ,Left ,66,3343605253175 ,45,8078388929337 ,62,0427885977662
19.1083973 ,Left ,66,3345476862241 ,45,7925311365431 ,62,0721984140641
19.1310694 ,Left ,66,3907029818787 ,45,8029927595558 ,62,1256384438846
19.1522545 ,Left ,66,4388780228301 ,45,8452665297244 ,62,169843140745
19.1685462 ,Left ,66,4986859567248 ,45,8625848143787 ,62,2054065710778
19.1909968 ,Left ,66,5339698585341 ,45,8526001700658 ,62,2411980933365
19.2119341 ,Left ,66,5555448068725 ,45,8382123541911 ,62,2556704107306
19.2277396 ,Left ,66,6049265337475 ,45,8391053728735 ,62,2642413003596
19.2509698 ,Left ,66,6159056942272 ,45,8245762862775 ,62,2748873626025
19.2722148 ,Left ,66,6235221174677 ,45,8190502773733 ,62,2906449216602
19.2884972 ,Left ,66,6598803260948 ,45,7999227747708 ,62,3167317389995
19.3108868 ,Left ,66,6905592352918 ,45,7800669352286 ,62,3575612743395
19.3336624 ,Left ,66,6915304211119 ,45,7528116468969 ,62,4084776950207
19.3481844 ,Left ,66,6880249547754 ,45,7178177860189 ,62,4673758125955
19.3706667 ,Left ,66,690211382775 ,45,6658928000857 ,62,5383721897101
19.3931971 ,Left ,66,6901543687694 ,45,6050278804411 ,62,6150749523921
19.4076295 ,Left ,66,690499695327 ,45,5458174886967 ,62,6950840551288
19.4307808 ,Left ,66,6884948349322 ,45,4815358973356 ,62,7699612082607
19.453536 ,Left ,66,7021056087196 ,45,4118383126698 ,62,8414521478294
19.4677888 ,Left ,66,7167072407049 ,45,3372480030298 ,62,9157692862842
19.4908841 ,Left ,66,7374095552805 ,45,2717329066082 ,62,9933274966215
19.5134275 ,Left ,66,7409021180289 ,45,2189710908714 ,63,0629435878865
19.5276992 ,Left ,66,7320973356952 ,45,1694372017486 ,63,1234075292694
19.5508877 ,Left ,66,7262676539377 ,45,1236655057932 ,63,1783067248206
19.5735375 ,Left ,66,7325693087904 ,45,0912108889295 ,63,2288258761278
19.5877082 ,Left ,66,7503379236295 ,45,0771384471747 ,63,2749270520515
19.6109186 ,Left ,66,7654773986781 ,45,071015279221 ,63,3149462196485
19.6337502 ,Left ,66,7425792244198 ,45,0609277873913 ,63,3538487408125
19.6480312 ,Left ,66,7216625274866 ,45,0575289266052 ,63,3910213250186
19.670824 ,Left ,66,7148639155427 ,45,0621191330542 ,63,4317622893033
19.6931545 ,Left ,66,7047773516636 ,45,079863154247 ,63,4663601034712
19.7077708 ,Left ,66,6883790907944 ,45,1161904535388 ,63,5017595909941
19.7310276 ,Left ,66,6726454951447 ,45,1603551497031 ,63,5363911364292
19.7536188 ,Left ,66,6490653906332 ,45,2044033139949 ,63,5699344162969
19.76786 ,Left ,66,6271055583793 ,45,2486760270824 ,63,5909758375786
19.790948 ,Left ,66,5970705942362 ,45,2891189924788 ,63,6009432453945
19.8134906 ,Left ,66,5645947383049 ,45,322773430976 ,63,6120973448237
19.8347405 ,Left ,66,5383014254886 ,45,3484199750062 ,63,6121391659334
19.8510105 ,Left ,66,5028496473526 ,45,3673108584686 ,63,5998239767107
19.8735517 ,Left ,66,4707639350195 ,45,3757788132469 ,63,5826481763485
19.8942584 ,Left ,66,3864136331606 ,45,3654889324717 ,63,5570983519275
19.9106665 ,Left ,66,3762509630745 ,45,3755716266649 ,63,5019538671345
19.9332081 ,Left ,66,3825440391688 ,45,3894123700266 ,63,4891477120673
19.9542419 ,Left ,66,4173378199889 ,45,4272091269428 ,63,484781245515
19.9709269 ,Left ,66,4902341617906 ,45,509674189726 ,63,4644578709452
19.9937768 ,Left ,66,5326203059706 ,45,6083979028518 ,63,43921108186
20.0146462 ,Left ,66,5496049215978 ,45,6471609772378 ,63,4132100895351
20.0309958 ,Left ,66,6087089873057 ,45,6625977358105 ,63,3464072868192
20.0533658 ,Left ,66,609330811767 ,45,6685294037609 ,63,2701685932186
20.0746791 ,Left ,66,6241849351905 ,45,6743331712423 ,63,183039295542
20.0909859 ,Left ,66,5958602076747 ,45,6749710634104 ,63,0953816826819
20.113437 ,Left ,66,5978483630322 ,45,6788355627399 ,63,0133761169821
20.1346528 ,Left ,66,6129963977528 ,45,6686438967691 ,62,9355188723032
20.1508977 ,Left ,66,6337559082239 ,45,6288375271794 ,62,8837476654435
20.1733978 ,Left ,66,5653690382254 ,45,5751645533417 ,62,8551732864096
20.194261 ,Left ,66,4883686478856 ,45,5376524594092 ,62,8574204446041
20.2106333 ,Left ,66,502984793166 ,45,559400829776 ,62,8960237538878
20.2335674 ,Left ,66,6130168604234 ,45,642964365503 ,62,9041403230314
20.255676 ,Left ,66,6303598037368 ,45,7043654789793 ,62,9035384646416
20.2701976 ,Left ,66,6200266059651 ,45,7342130328621 ,62,9206105449833
20.293291 ,Left ,66,5354463505612 ,45,7290331692785 ,62,9310571060174
20.3159438 ,Left ,66,5344556162235 ,45,7319172548536 ,62,9350600629853
20.3308922 ,Left ,66,4940005110605 ,45,7236764708247 ,62,9390134099225
20.3533823 ,Left ,66,4746830118453 ,45,7285750621278 ,62,934087962912
20.375795 ,Left ,66,4147869488484 ,45,6987565827966 ,62,9291640925485
20.3900074 ,Left ,66,3933655807798 ,45,678857595607 ,62,9574316280831
20.4134622 ,Left ,66,4218343542404 ,45,7138167813092 ,62,9885699930431
20.4359935 ,Left ,66,512829669564 ,45,7920074353191 ,62,9951548434462
20.4504271 ,Left ,66,5343725286005 ,45,8879550574675 ,62,9874798612506
20.4737124 ,Left ,66,584858610198 ,45,9633882835799 ,63,0037162128401
20.4956743 ,Left ,66,5560828144344 ,45,9915070438415 ,63,035441660181
20.5101165 ,Left ,66,5475288138301 ,46,0402164602129 ,63,0473393454224
20.533153 ,Left ,66,5283990828403 ,46,0609452111429 ,63,0558884475415
20.5558179 ,Left ,66,4992547533854 ,46,0578368357511 ,63,0735524682951
20.5701679 ,Left ,66,4720485333861 ,46,0461714135441 ,63,0919864781469
20.5935764 ,Left ,66,4369675289447 ,46,0308201233869 ,63,1020679757829
20.6159104 ,Left ,66,4120542195278 ,45,9915429195417 ,63,1011439332861
20.6305955 ,Left ,66,3674612846211 ,45,9316057421467 ,63,0868693984111
20.6531691 ,Left ,66,3597623248434 ,45,9194277169248 ,63,0617087468397
20.675734 ,Left ,66,3648280546406 ,45,9125650413852 ,63,0613297082865
20.6899697 ,Left ,66,4099130390693 ,45,947069301055 ,63,0771814714188
20.7132675 ,Left ,66,420955408815 ,46,0464120466123 ,63,0296655427436
20.7356508 ,Left ,66,4483094361517 ,46,1152438773129 ,62,9609809750429
20.7574421 ,Left ,66,4845404720644 ,46,1303948767724 ,62,9028749987202
20.7742659 ,Left ,66,4914396257682 ,46,1417209040223 ,62,8037327066922
20.7963283 ,Left ,66,5284928607151 ,46,1627496379229 ,62,6959070847806
20.8170468 ,Left ,66,5586466957054 ,46,1747149896955 ,62,597846556453
20.8334644 ,Left ,66,5408716140982 ,46,2364004462479 ,62,4779734550849
20.8558691 ,Left ,66,5349842764882 ,46,289464716693 ,62,3757100770428
20.8769894 ,Left ,66,5626306003791 ,46,3322021656325 ,62,292192370005
20.8934513 ,Left ,66,5577383683035 ,46,3640077236084 ,62,2258172681944
20.9158179 ,Left ,66,5300797347636 ,46,3914786213122 ,62,1628005578475
20.9369904 ,Left ,66,505149082477 ,46,4176626280785 ,62,1068016049021
20.9541264 ,Left ,66,5109319688278 ,46,431152717247 ,62,0526474157214
20.9757989 ,Left ,66,4963723708721 ,46,4337354908775 ,62,0073934389115
20.9969848 ,Left ,66,4553623838296 ,46,4183853364364 ,61,9770067201836
21.0133996 ,Left ,66,4061093062683 ,46,4009833819273 ,61,9647560691021
21.0360776 ,Left ,66,3074338239878 ,46,3720893921641 ,61,9479259257711
21.0566541 ,Left ,66,219451103148 ,46,3246772042846 ,61,9678082810695
21.0731709 ,Left ,66,2318367123492 ,46,3027204512575 ,62,0122133716704
21.0957526 ,Left ,66,2560281911837 ,46,304712716636 ,62,0255704742609
21.1170045 ,Left ,66,3037156643639 ,46,2688643397997 ,62,0739025394414
21.1332154 ,Left ,66,3647860596648 ,46,2342139005179 ,62,1022158884287
21.1557415 ,Left ,66,3602474832674 ,46,1639333777647 ,62,1238007921395
21.1768262 ,Left ,66,3597526291503 ,46,0789213458259 ,62,1357704798805
21.1933436 ,Left ,66,3393044317592 ,45,9909704976091 ,62,1771047815364
21.216026 ,Left ,66,303109520196 ,45,968632591471 ,62,2118117012122
21.2385484 ,Left ,66,3126684422732 ,45,9740844188409 ,62,2177452306304
21.2534963 ,Left ,66,272329744767 ,45,9195895313079 ,62,2226992084718
21.2760882 ,Left ,66,2835263270978 ,45,8981717258744 ,62,2099144597787
21.2984394 ,Left ,66,1963409907471 ,45,8859289574382 ,62,2273705927433
21.3135428 ,Left ,66,2322924468054 ,45,9068990308171 ,62,2667301030729
21.3359627 ,Left ,66,3021898685133 ,45,9472349630295 ,62,3024137272944
21.3584619 ,Left ,66,3811248539725 ,45,9851366342096 ,62,3084056000674
21.3728538 ,Left ,66,4351361456493 ,45,9500087541935 ,62,3203331143926
21.3959755 ,Left ,66,5360306393237 ,45,9313264220983 ,62,3160623663237
21.4184955 ,Left ,66,5974504833808 ,45,9019448062701 ,62,3224676971532
21.4328244 ,Left ,66,6422098308926 ,45,8684603800757 ,62,3340422266514
21.4559176 ,Left ,66,6357277815698 ,45,8147328659113 ,62,3499369933663
21.4786332 ,Left ,66,6432219123187 ,45,7613718050736 ,62,3776736069796
21.4929153 ,Left ,66,6688238161158 ,45,7200100654461 ,62,4211168620158
21.5003887 ,Left ,66,68121619585 ,45,6820873497632 ,62,4726200377314
21.5216671 ,Left ,66,6953500414335 ,45,6224752749417 ,62,5360006040496
21.5439577 ,Left ,66,6919508422563 ,45,5528352707046 ,62,6102748352262
21.5603573 ,Left ,66,6890948591664 ,45,4862446924938 ,62,6882721789771
21.5810848 ,Left ,66,6965766140142 ,45,4323217417395 ,62,7698991442083
21.6035767 ,Left ,66,7247380688498 ,45,3879609330713 ,62,8462790663501
21.6202509 ,Left ,66,7324031484137 ,45,3318731956795 ,62,9120344942006
21.6410594 ,Left ,66,7336589790714 ,45,2732364086934 ,62,9781763119019
21.6637946 ,Left ,66,7491490360595 ,45,2192629405132 ,63,0409460174867
21.6800968 ,Left ,66,7623288975586 ,45,1758854759713 ,63,0985649144705
21.7015068 ,Left ,66,7712491812979 ,45,1330376656045 ,63,1568902526233
21.7240862 ,Left ,66,7785122048677 ,45,0867117339491 ,63,210855796274
21.7403838 ,Left ,66,767722024269 ,45,0433572508326 ,63,2614225575225
21.761474 ,Left ,66,7648334721531 ,45,0073432239951 ,63,307150004151
21.7840837 ,Left ,66,761737758132 ,44,9896142572775 ,63,3413623232344
21.8003806 ,Left ,66,7669462606802 ,44,9856420049995 ,63,3812519139089
21.8213227 ,Left ,66,7658150556688 ,44,9848703646006 ,63,4246705483
21.8440059 ,Left ,66,7382840904549 ,44,9803930630407 ,63,4741080400457
21.8603855 ,Left ,66,723575573224 ,44,9923441750853 ,63,5104747839278
21.8815201 ,Left ,66,7141176429309 ,45,0126523496741 ,63,5437663997081
21.9040841 ,Left ,66,7154098875168 ,45,0356326698718 ,63,5739832996183
21.9203699 ,Left ,66,7018898301431 ,45,0600777515658 ,63,6035976998105
21.9417428 ,Left ,66,6774871391794 ,45,096899406365 ,63,6308906834468
21.9638761 ,Left ,66,6516183911462 ,45,1269947044754 ,63,6463158611983
21.9802776 ,Left ,66,6303110593227 ,45,1562157854285 ,63,6590771066523
22.0015354 ,Left ,66,6210542914559 ,45,1829827646191 ,63,6672240249451
22.0239012 ,Left ,66,585907876675 ,45,2060817481467 ,63,6675701687282
22.0402517 ,Left ,66,5626959321321 ,45,2176981551831 ,63,6527788864
22.0613305 ,Left ,66,4829525777747 ,45,2276203593422 ,63,6230788534142
22.0839053 ,Left ,66,4020586753572 ,45,2390421680709 ,63,5993217058656
22.100087 ,Left ,66,3856238485681 ,45,2805361592958 ,63,5878271100424
22.1210909 ,Left ,66,4314340683665 ,45,3408046890713 ,63,5829745817084
22.143749 ,Left ,66,4755195317841 ,45,4323768836234 ,63,5482057136187
22.1621421 ,Left ,66,5162452572751 ,45,4837707790796 ,63,5308573479234
22.1812299 ,Left ,66,5569527618443 ,45,5040023482849 ,63,5005975279173
22.2039614 ,Left ,66,6123274591137 ,45,5290294573637 ,63,4328790879957
22.2217101 ,Left ,66,640933660225 ,45,5455657928557 ,63,362681306146
22.2411395 ,Left ,66,6556806984713 ,45,5597624902765 ,63,2921644543065
22.2639836 ,Left ,66,6289083801592 ,45,5751068419426 ,63,2147764908299
22.2817686 ,Left ,66,6334335700625 ,45,592553314705 ,63,1323748604433
22.3015686 ,Left ,66,6626340528694 ,45,5895679708142 ,63,0602325869782
22.3239444 ,Left ,66,663805234285 ,45,5576900647522 ,63,0175310822372
22.341687 ,Left ,66,6271919564473 ,45,5200712093636 ,62,9958730795431
22.3612181 ,Left ,66,5397003270804 ,45,4699126147788 ,62,9698853080396
22.3837649 ,Left ,66,5276237088638 ,45,462200398025 ,62,9566360409235
22.4015588 ,Left ,66,5605159682035 ,45,4424787667966 ,62,9912126474827
22.4212928 ,Left ,66,6283028903482 ,45,4839871845882 ,63,0076157460834
22.44369 ,Left ,66,6217299495634 ,45,5559205288596 ,62,9889805826319
22.4616013 ,Left ,66,6000593931772 ,45,5909154388571 ,63,0001558091701
22.4811657 ,Left ,66,6121184341378 ,45,6214278493444 ,63,0099092876513
22.5038425 ,Left ,66,6021932655944 ,45,6192914153664 ,63,0180020606068
22.5215771 ,Left ,66,6073540948772 ,45,6105634644948 ,63,0241499175137
22.5412614 ,Left ,66,6120601519442 ,45,5750374155436 ,63,0235297877069
22.5637516 ,Left ,66,5784473553988 ,45,5544466332495 ,63,0212657337652
22.5812964 ,Left ,66,5774532516226 ,45,5430904760306 ,63,0254822795094
22.6011095 ,Left ,66,6155415138118 ,45,5391675222943 ,63,0331248402965
22.6235942 ,Left ,66,6400189273055 ,45,5340445471375 ,63,0407320073871
22.6417648 ,Left ,66,6366215910114 ,45,5290993116348 ,63,048096858297
22.6611562 ,Left ,66,6307329133865 ,45,5315903114291 ,63,0563762664426
22.6837114 ,Left ,66,6376894604154 ,45,5489654408032 ,63,0613403560982
22.7018006 ,Left ,66,6342014910275 ,45,559274766115 ,63,0662757301332
22.721163 ,Left ,66,6404635507027 ,45,5608718802774 ,63,0704846842819
22.7436516 ,Left ,66,6248027929407 ,45,5512284259635 ,63,0786380474374
22.7615641 ,Left ,66,5889194853542 ,45,5303946850559 ,63,0994436461877
22.7826496 ,Left ,66,5607439274363 ,45,5331980968127 ,63,1107653364397
22.8038887 ,Left ,66,5134444506997 ,45,508141153909 ,63,1127545200478
22.8218849 ,Left ,66,5153827845769 ,45,4768182952525 ,63,1194255691417
22.8427623 ,Left ,66,5162076591343 ,45,4285132298162 ,63,127171955738
22.863828 ,Left ,66,5758568047897 ,45,4634904360143 ,63,1134265481912
22.8819341 ,Left ,66,6175779199744 ,45,5543612674903 ,63,0718827846741
22.9027137 ,Left ,66,6805058271345 ,45,5882283606294 ,63,0664133580901
22.9239772 ,Left ,66,7385652416508 ,45,6240342409289 ,63,0749052321327
22.9417043 ,Left ,66,7135259272933 ,45,6532314376495 ,63,0977901624649
22.9628102 ,Left ,66,7069815407193 ,45,6983448697788 ,63,1185600655296
22.9839866 ,Left ,66,6744906413685 ,45,7200540996063 ,63,1440414655389
23.0019643 ,Left ,66,6344164517002 ,45,7442948603542 ,63,1804313146258
23.0226688 ,Left ,66,6109269816782 ,45,7854481827621 ,63,2151257666118
23.0439757 ,Left ,66,5785678348718 ,45,8202826079137 ,63,242107795535
23.0616953 ,Left ,66,549257056102 ,45,8445075125792 ,63,2614708322995
23.0842946 ,Left ,66,5263641669028 ,45,8620027109451 ,63,2681420493888
23.103984 ,Left ,66,4877325515903 ,45,8746435371744 ,63,2674313289993
23.121839 ,Left ,66,4447860685267 ,45,8752544695105 ,63,2698417223957
23.1443159 ,Left ,66,4222527561307 ,45,872863701255 ,63,2605783864755
23.1638256 ,Left ,66,4011766355919 ,45,8661185417122 ,63,2341005174837
23.1816923 ,Left ,66,370614945738 ,45,8518623548897 ,63,2130318572207
23.2041497 ,Left ,66,3474880000763 ,45,8264214078462 ,63,2070178195633
23.2239644 ,Left ,66,3716360883309 ,45,8641464285658 ,63,2065694712125
23.2417621 ,Left ,66,3826851376362 ,45,9587089043943 ,63,1508440041944
23.2633979 ,Left ,66,4131904164958 ,46,0010225589626 ,63,1035475147437
23.2835701 ,Left ,66,4723954753334 ,46,038560105736 ,63,0372704950821
23.3015158 ,Left ,66,4673631418671 ,46,0795851555826 ,62,9345543306739
23.3240679 ,Left ,66,4832365515239 ,46,1561682160413 ,62,7976703989284
23.3446627 ,Left ,66,4811815547785 ,46,2305748233172 ,62,6612719230943
23.3612991 ,Left ,66,4982513646615 ,46,3120484973561 ,62,5234927251074
23.383504 ,Left ,66,4986372727099 ,46,3803368571119 ,62,3900154335799
23.4047479 ,Left ,66,5013259783688 ,46,4410375490395 ,62,2759747129922
23.4208621 ,Left ,66,4954953341811 ,46,4819110601262 ,62,1726865019764
23.4431754 ,Left ,66,4881712116021 ,46,5035905360275 ,62,0936570472671
23.4643673 ,Left ,66,4744438765958 ,46,5209288824418 ,62,0319491683172
23.480888 ,Left ,66,453694494192 ,46,5281430065794 ,61,9836476160805
23.5032258 ,Left ,66,4433492382284 ,46,5141757855816 ,61,9530982996389
23.5246652 ,Left ,66,4257189275514 ,46,4864988073289 ,61,9283380809925
23.5410313 ,Left ,66,3485796316178 ,46,4322416143905 ,61,9082802919069
23.5633782 ,Left ,66,275586247019 ,46,3910840874826 ,61,9126870037493
23.5847761 ,Left ,66,2755524737356 ,46,3509614846054 ,61,9480698355718
23.6010031 ,Left ,66,32638955211 ,46,3849665771046 ,61,9646595832345
23.6235208 ,Left ,66,3235700485748 ,46,3979478269579 ,61,9885837874747
23.6447845 ,Left ,66,3458888124646 ,46,3688905351413 ,62,0326434803104
23.6610555 ,Left ,66,3334242343308 ,46,3179012461945 ,62,0560718198662
23.6836481 ,Left ,66,3583996204593 ,46,2556127402641 ,62,0703785866751
23.7047804 ,Left ,66,3817667946756 ,46,1641250893193 ,62,091431713714
23.7272862 ,Left ,66,3600765690628 ,46,0959758356791 ,62,127756174084
23.7435257 ,Left ,66,3559760138016 ,46,0674207656879 ,62,1615918484603
23.7645711 ,Left ,66,3886625234714 ,46,0605626350911 ,62,1840949182182
23.7808782 ,Left ,66,3592946539383 ,46,0043369746793 ,62,2061401796136
23.8033006 ,Left ,66,354632447892 ,46,0019074324942 ,62,2146367646017
23.8243081 ,Left ,66,2569083735665 ,45,9856265760053 ,62,2181808619245
23.8406649 ,Left ,66,2698854757853 ,46,0149217453673 ,62,269844118912
23.8630603 ,Left ,66,3142274179586 ,46,0332991950735 ,62,3464992477968
23.8842093 ,Left ,66,3742231599871 ,46,0628405672433 ,62,3887190109872
23.9005091 ,Left ,66,4372143396607 ,46,0699355691478 ,62,4145590014587
23.9231358 ,Left ,66,5358220309454 ,46,0795014002686 ,62,4358882176156
23.9442144 ,Left ,66,5739105383259 ,46,0625772486117 ,62,4463671832912
23.9605504 ,Left ,66,6048480055811 ,46,0401501481482 ,62,4554922904883
23.9832241 ,Left ,66,621511317874 ,45,9991794399659 ,62,4629726285192
24.0044661 ,Left ,66,6333122774492 ,45,9737325406303 ,62,4681928545261
24.0200631 ,Left ,66,6604324418825 ,45,9621041175221 ,62,477479950163
24.0506779 ,Left ,66,6749626320075 ,45,9607663904534 ,62,4963208343162
24.066258 ,Left ,66,6898536296037 ,45,9503417771173 ,62,5252927594091
24.0811844 ,Left ,66,6872845022033 ,45,9215663288761 ,62,5699718851778
24.1037742 ,Left ,66,6905118783803 ,45,8932790865661 ,62,6206217460329
24.126248 ,Left ,66,6800902041463 ,45,8696926702749 ,62,6675986075509
24.1412802 ,Left ,66,6998876292732 ,45,8530255264333 ,62,7141954289287
24.163544 ,Left ,66,7103789430806 ,45,839466872844 ,62,7588417926088
24.185962 ,Left ,66,7278792060528 ,45,8261521572592 ,62,794664735169
24.2004556 ,Left ,66,7314464713909 ,45,8045861554545 ,62,826604144229
24.2235456 ,Left ,66,7384420042615 ,45,7803508953987 ,62,8524774279368
24.2456736 ,Left ,66,7517245280408 ,45,7595800765648 ,62,8761166398958
24.2602095 ,Left ,66,753850135392 ,45,7462316426469 ,62,8920715338902
24.2833786 ,Left ,66,745792073591 ,45,7356029494941 ,62,9028325417039
24.3057938 ,Left ,66,7327706973786 ,45,7240659873581 ,62,9131016606384
24.3200281 ,Left ,66,7355565491153 ,45,7169981967857 ,62,9147719240292
24.3434597 ,Left ,66,7447888332483 ,45,7062925264352 ,62,920005990592
24.3659712 ,Left ,66,7651010372161 ,45,6876177573668 ,62,9282435971525
24.3802571 ,Left ,66,7719231401817 ,45,6605896759786 ,62,9421769567318
24.4036663 ,Left ,66,7764665850732 ,45,6247002967205 ,62,9616223061518
24.4262167 ,Left ,66,7824190079873 ,45,5852467313031 ,62,9819522224149
24.4405345 ,Left ,66,8004501094874 ,45,5440359757286 ,63,0026114158531
24.4635554 ,Left ,66,8179780025592 ,45,4992002458829 ,63,0268289047176
24.4862648 ,Left ,66,8375284711626 ,45,4447984445179 ,63,0561599247676
24.5003712 ,Left ,66,8631252661756 ,45,3849329575546 ,63,0860843053137
24.5235247 ,Left ,66,8720206273876 ,45,3200598960356 ,63,1217220618984
24.5460029 ,Left ,66,8793748215329 ,45,2577966548458 ,63,1609914481599
24.5669356 ,Left ,66,8874481530556 ,45,2006493925628 ,63,2112919421732
24.5833238 ,Left ,66,8865774260749 ,45,1474549523223 ,63,2651089974684
24.6059553 ,Left ,66,879710254449 ,45,0819171672034 ,63,3230472164183
24.6270822 ,Left ,66,8700053721868 ,45,0173339763307 ,63,3832608359392
24.6435052 ,Left ,66,8627146976719 ,44,9625148046799 ,63,4335710659747
24.6659058 ,Left ,66,8724392247415 ,44,9199492252442 ,63,4746938010548
24.6870244 ,Left ,66,877093604412 ,44,884654981904 ,63,518985102695
24.7033648 ,Left ,66,8785350611394 ,44,8542623794683 ,63,5656148727051
24.7259005 ,Left ,66,859051205731 ,44,8317822580827 ,63,606794852461
24.7469995 ,Left ,66,8426852965705 ,44,8313606061526 ,63,6282177783
24.7632749 ,Left ,66,8464122867967 ,44,8450053328224 ,63,6409454198591
24.7856395 ,Left ,66,8706629395593 ,44,8576082250416 ,63,6504292204489
24.8069178 ,Left ,66,8763632312759 ,44,8677867518645 ,63,6646797732596
24.8233777 ,Left ,66,8734433852393 ,44,8777261089707 ,63,6773043688985
24.8459657 ,Left ,66,8734532880385 ,44,8890488137079 ,63,6859760574633
24.867053 ,Left ,66,8858445337901 ,44,8992523750729 ,63,6903654577889
24.883392 ,Left ,66,8953343761295 ,44,9080624424176 ,63,6987207389669
24.9060551 ,Left ,66,912159082132 ,44,916450868175 ,63,7049079803344
24.9270337 ,Left ,66,9132793379955 ,44,9218775779516 ,63,7185840355985
24.9434836 ,Left ,66,9213096961484 ,44,9256607515097 ,63,7318360164695
24.9659292 ,Left ,66,9320033024995 ,44,9275073368888 ,63,7475287551143
24.9884397 ,Left ,66,944767845176 ,44,9282870072427 ,63,7627765010389
25.0033741 ,Left ,66,9502720386092 ,44,9329138243754 ,63,775945520996
25.0259228 ,Left ,66,9647447891518 ,44,9353631509968 ,63,7789818253212
25.0483949 ,Left ,66,9753798215358 ,44,9355612840804 ,63,777883162758
25.0635244 ,Left ,66,9826515862388 ,44,9381713962535 ,63,766643764192
25.0859416 ,Left ,66,9989790121229 ,44,9375823948779 ,63,7475917592283
25.1084514 ,Left ,67,0045468887757 ,44,9312105340082 ,63,7263308667874
25.1227168 ,Left ,67,0109051239976 ,44,9329872385603 ,63,7070246650986
25.1459684 ,Left ,67,0042593785164 ,44,9353074688371 ,63,6865848859046
25.1686421 ,Left ,67,0034614391583 ,44,9418687827584 ,63,6607874168907
25.1827095 ,Left ,67,0165118486516 ,44,9550002242856 ,63,6404174523209
25.2059335 ,Left ,67,0130340443266 ,44,9713175862578 ,63,6252139003863
25.2284638 ,Left ,66,9991611772921 ,44,9985419482655 ,63,6177289691014
25.2427027 ,Left ,66,9784754215388 ,45,0354477754107 ,63,6141659230614
25.266133 ,Left ,66,958000600425 ,45,0682684230298 ,63,6219173660483
25.2888808 ,Left ,66,9342692291839 ,45,1061352272581 ,63,6340113492214
25.3027276 ,Left ,66,900097900582 ,45,1585531602411 ,63,637637641678
25.3256277 ,Left ,66,876608694303 ,45,2156287914803 ,63,6337137452348
25.3481722 ,Left ,66,8680254714046 ,45,2630641031815 ,63,6270578255194
25.3627497 ,Left ,66,8428545746392 ,45,2957345234211 ,63,6156859803296
25.3858921 ,Left ,66,8184852344998 ,45,3199186525952 ,63,596938976255
25.4084519 ,Left ,66,7916677190301 ,45,3285999589424 ,63,5829038448262
25.422772 ,Left ,66,768719923006 ,45,3219341853346 ,63,5659851838228
25.4459772 ,Left ,66,6904602509687 ,45,2894706964722 ,63,5366527622918
25.468473 ,Left ,66,67164846137 ,45,2692188706387 ,63,4849414402426
25.4893904 ,Left ,66,6710021112673 ,45,2204577564069 ,63,4800016566353
25.5059307 ,Left ,66,7086931174124 ,45,2392182521705 ,63,4760683842807
25.5284138 ,Left ,66,7622054232258 ,45,3204349326973 ,63,4480535040761
25.549549 ,Left ,66,787424226904 ,45,3928201839987 ,63,4302695904474
25.5660024 ,Left ,66,7795482200653 ,45,4230965509531 ,63,4220503359236
25.5884615 ,Left ,66,7956566259082 ,45,4463344994784 ,63,3953415188713
25.6109719 ,Left ,66,8036044245639 ,45,4819146219249 ,63,3507971649635
25.6260113 ,Left ,66,8062649149771 ,45,4987284095133 ,63,3213634165345
25.648469 ,Left ,66,7638912632457 ,45,527011544023 ,63,2877283956653
25.6697972 ,Left ,66,7263720238636 ,45,5546676954144 ,63,2542280253376
25.6859875 ,Left ,66,7123772608505 ,45,5684252337047 ,63,2238644495746
25.7084913 ,Left ,66,6911138002787 ,45,5720756763689 ,63,2077127525469
25.7298435 ,Left ,66,5909606163385 ,45,5377498205386 ,63,2059562332706
25.7459956 ,Left ,66,5383932785772 ,45,4998205050969 ,63,2262410652018
25.7685648 ,Left ,66,5503871057517 ,45,483845014171 ,63,2498159179307
25.7896962 ,Left ,66,6297041064131 ,45,5134159162409 ,63,241251617295
25.8058406 ,Left ,66,6709975656861 ,45,5480539534142 ,63,2208546178256
25.8288208 ,Left ,66,7120591598999 ,45,5776041617991 ,63,2134179880715
25.8502008 ,Left ,66,6681682364372 ,45,57465538383 ,63,2195839235469
25.8662833 ,Left ,66,6456912403402 ,45,5723194828858 ,63,2334704717064
25.8887116 ,Left ,66,5958509627649 ,45,5952749476607 ,63,2373272504956
25.9097936 ,Left ,66,5554343218902 ,45,6171884169109 ,63,2182772669861
25.9253476 ,Left ,66,5548011688515 ,45,6222664320777 ,63,2183510289858
25.9485753 ,Left ,66,563832575498 ,45,6730078788592 ,63,2412705443199
25.9712083 ,Left ,66,6104628996987 ,45,7817474531801 ,63,2641714183708
25.9852621 ,Left ,66,6155042568169 ,45,9234098191251 ,63,243389102272
26.0086707 ,Left ,66,6320263590892 ,45,9922294515442 ,63,2468142272298
26.0310327 ,Left ,66,6813466529027 ,46,0401737611239 ,63,2689588188005
26.045442 ,Left ,66,6794793470286 ,46,0485195956418 ,63,2907251145097
26.0686896 ,Left ,66,6727325462971 ,46,0575733738833 ,63,3257169596503
26.0909796 ,Left ,66,6437569526566 ,46,0698075323143 ,63,3410961800145
26.105526 ,Left ,66,6060565591783 ,46,071776727226 ,63,3575891003262
26.1285265 ,Left ,66,5779208202168 ,46,0683281805532 ,63,3694250673811
26.1511809 ,Left ,66,5625945618058 ,46,0533270089567 ,63,3723959047567
26.1653367 ,Left ,66,5271214969947 ,46,0299760418892 ,63,3654020084164
26.18859 ,Left ,66,4890066185437 ,46,0008176210394 ,63,3573150776822
26.2110444 ,Left ,66,4509513695789 ,45,9630527590491 ,63,3527928131269
26.2322306 ,Left ,66,4473537286056 ,45,9294080384645 ,63,3449518032323
26.2485921 ,Left ,66,3596705358342 ,45,8941169559012 ,63,3251486573893
26.2710532 ,Left ,66,3123387418613 ,45,8686912830555 ,63,2882411220714
26.285372 ,Left ,66,2904680192427 ,45,8824810331127 ,63,2952218455767
26.3085851 ,Left ,66,3642313166723 ,45,9343094057673 ,63,2985683967166
26.3309759 ,Left ,66,3940138409345 ,46,0324300628208 ,63,2573410560977
26.3455193 ,Left ,66,4206923149706 ,46,102216312465 ,63,1986410943047
26.3686587 ,Left ,66,4828948608627 ,46,151492158772 ,63,1418237432303
26.3911293 ,Left ,66,4921280229157 ,46,1810707620401 ,63,0498510042202
26.4054464 ,Left ,66,513709431605 ,46,2101369722144 ,62,9569386780996
26.4286624 ,Left ,66,5157445402695 ,46,2504698932979 ,62,8597402489677
26.457198 ,Left ,66,494732556747 ,46,3152000780386 ,62,7456682436464
26.4720661 ,Left ,66,4812862615394 ,46,3694998121686 ,62,6424474210743
26.4885949 ,Left ,66,4935197974059 ,46,4145352250936 ,62,5504801088668
26.5111922 ,Left ,66,4780502860198 ,46,4434585901702 ,62,4662802442979
26.5322594 ,Left ,66,4457324799245 ,46,4645087264506 ,62,388500983741
26.5485053 ,Left ,66,4250227311003 ,46,4784802339184 ,62,3190375879397
26.5709859 ,Left ,66,4141162393626 ,46,4752083483681 ,62,2610208010306
26.5920348 ,Left ,66,3805004517852 ,46,463366475308 ,62,2232410913073
26.6083964 ,Left ,66,3385938137515 ,46,4532266641235 ,62,1929872433715
26.6309496 ,Left ,66,3232245479387 ,46,4331806574732 ,62,1632184262324
26.6520588 ,Left ,66,2650497550576 ,46,4144624761415 ,62,1442007231393
26.6684795 ,Left ,66,182788994181 ,46,3665146073234 ,62,156527252876
26.6909016 ,Left ,66,1832622626822 ,46,3628708790509 ,62,1942713602097
26.7119237 ,Left ,66,2031021822459 ,46,3963888089288 ,62,2016294426689
26.7284274 ,Left ,66,2498429591385 ,46,3839672440976 ,62,2552986641488
26.7509785 ,Left ,66,248078485189 ,46,3282830242813 ,62,3026406595416
26.772094 ,Left ,66,2607620253734 ,46,2796493680978 ,62,3232938833848
26.788577 ,Left ,66,2734507989543 ,46,2036327072932 ,62,3418908754188
26.8110875 ,Left ,66,2698056508594 ,46,1001829137085 ,62,3645614628292
26.8334235 ,Left ,66,2553533299107 ,46,0302327672163 ,62,4134438223142
26.8478353 ,Left ,66,2304253258665 ,46,0174264168429 ,62,4519498715626
26.8709053 ,Left ,66,234112443727 ,45,9965209916403 ,62,4637056827913
26.893378 ,Left ,66,2310739812834 ,45,9646602956732 ,62,4715887462223
26.9086375 ,Left ,66,1564828589532 ,45,9155712583025 ,62,4981450150123
26.9309244 ,Left ,66,1357437033328 ,45,9146330345063 ,62,5406579467997
26.9535453 ,Left ,66,1910164947442 ,45,9432317480832 ,62,5639554842019
26.9684136 ,Left ,66,2637269173529 ,45,9607113862162 ,62,5759778896116
26.9909722 ,Left ,66,3448358507512 ,45,9290736756105 ,62,6161142882942
27.0136102 ,Left ,66,4372917609667 ,45,899612119064 ,62,6383420387218
27.0277185 ,Left ,66,5077869056188 ,45,8531039458135 ,62,6743199549216
27.0508047 ,Left ,66,5470434650742 ,45,8067138914973 ,62,7199116212578
27.0734367 ,Left ,66,5423923193434 ,45,7421814526644 ,62,7712112719563
27.087774 ,Left ,66,5531218642596 ,45,6799108552183 ,62,8179287214055
27.1109262 ,Left ,66,5913789231355 ,45,6143463423991 ,62,8711993341844
27.1331228 ,Left ,66,6448328307104 ,45,5600106679483 ,62,9322815942392
27.1544254 ,Left ,66,6707030678282 ,45,5021578671817 ,63,0090136601751
27.1707913 ,Left ,66,688743526653 ,45,439930047345 ,63,0959652718899
27.1936947 ,Left ,66,6979758390749 ,45,3815076856049 ,63,1865543709743
27.214722 ,Left ,66,7185838342836 ,45,3195579845087 ,63,2767688368204
27.2308318 ,Left ,66,7486758629575 ,45,263513720473 ,63,3613974428417
27.2360843 ,Left ,66,7771685188277 ,45,215165100552 ,63,4504327368173
27.2587769 ,Left ,66,7968204879022 ,45,1812648115619 ,63,5328292795143
27.2815212 ,Left ,66,8131338311296 ,45,1522719822376 ,63,6058160341549
27.2959782 ,Left ,66,8221342192163 ,45,1309782853717 ,63,6655741754671
27.3188592 ,Left ,66,8389833571712 ,45,1113185955036 ,63,7171507529567
27.3367717 ,Left ,66,8513878403179 ,45,0944182963029 ,63,7647183140034
27.3564552 ,Left ,66,8349877206099 ,45,0878714719348 ,63,803569317041
27.3789093 ,Left ,66,8344315269603 ,45,0841097553684 ,63,8329307694775
27.3954203 ,Left ,66,8283490499432 ,45,0871046638638 ,63,8599745396902
27.416389 ,Left ,66,8168873616426 ,45,1034978037765 ,63,8856584665705
27.4389822 ,Left ,66,8089396050459 ,45,1251967481392 ,63,9201536664475
27.4554483 ,Left ,66,782265855449 ,45,1381557211014 ,63,9603979725636
27.4764678 ,Left ,66,7478707435506 ,45,1553625160863 ,63,9886662705235
27.4989627 ,Left ,66,7303664053989 ,45,1809842985766 ,63,9974694399895
27.5154124 ,Left ,66,7353370025057 ,45,2119634703919 ,64,0014090080899
27.5363715 ,Left ,66,7253555558036 ,45,2437129708533 ,64,0090534540791
27.5589134 ,Left ,66,699959005744 ,45,2789109810805 ,64,0085728750919
27.5753921 ,Left ,66,6685542634313 ,45,3192339882222 ,64,0026163319354
27.5966322 ,Left ,66,6378787049359 ,45,3500215804497 ,63,9916018521747
27.6190896 ,Left ,66,6120033493143 ,45,3681196755421 ,63,9769885963447
27.6368736 ,Left ,66,6047095315478 ,45,369046816791 ,63,958251465823
27.6563512 ,Left ,66,5887178597331 ,45,3534610172554 ,63,9428250672141
27.6790763 ,Left ,66,5673983621298 ,45,3287302778867 ,63,9349163303281
27.6953248 ,Left ,66,5556005037592 ,45,2979189385979 ,63,917361978326
27.7165314 ,Left ,66,5493507919527 ,45,2588600859526 ,63,888157079341
27.7390024 ,Left ,66,4787722294805 ,45,2193382923207 ,63,8618897165161
27.7553301 ,Left ,66,3842961270923 ,45,1700956473369 ,63,8666234612274
27.7768779 ,Left ,66,3740169423999 ,45,1770886359143 ,63,8850433876065
27.7993339 ,Left ,66,4242458888895 ,45,2559727818551 ,63,8694434596275
27.817044 ,Left ,66,4718963145006 ,45,3528468706106 ,63,8212996523482
27.8367463 ,Left ,66,4762526535522 ,45,3927064782226 ,63,8116773820652
27.8591623 ,Left ,66,5108258093183 ,45,4400131193477 ,63,7917228471698
27.8767835 ,Left ,66,4988118409552 ,45,4657942638545 ,63,7596529375939
27.8961852 ,Left ,66,5167796043387 ,45,4924396685899 ,63,716353267761
27.918898 ,Left ,66,5166880271605 ,45,4984045058785 ,63,6756161971539
27.9366337 ,Left ,66,482530325058 ,45,5188065767676 ,63,6278116899501
27.956079 ,Left ,66,4726739820606 ,45,5340604665483 ,63,5807943431677
27.978724 ,Left ,66,4656208565574 ,45,5221210991838 ,63,5424326922015
27.9968628 ,Left ,66,4333966268487 ,45,5051916340323 ,63,5196294824925
28.0161258 ,Left ,66,3804224135828 ,45,4922050185207 ,63,4834494171146
28.0384556 ,Left ,66,3483707051165 ,45,4855432532704 ,63,450584307503
28.0565292 ,Left ,66,3617826423225 ,45,466242908908 ,63,4547322974932
28.0761242 ,Left ,66,4558552272406 ,45,5049033284458 ,63,450151761235
28.0994827 ,Left ,66,4814255636377 ,45,5810160313244 ,63,3982367038119
28.1169926 ,Left ,66,4571280510673 ,45,5893117879492 ,63,4047753115191
28.1366471 ,Left ,66,417343607073 ,45,5984178883309 ,63,4073506663252
28.1593361 ,Left ,66,4190607318525 ,45,6046620759096 ,63,4029779310946
28.1770422 ,Left ,66,4317885051075 ,45,5957314165877 ,63,4077268458347
28.1961816 ,Left ,66,3908505043024 ,45,5816303183165 ,63,4130895162486
28.2186864 ,Left ,66,3596793008924 ,45,5689855182021 ,63,4055586523825
28.2366508 ,Left ,66,3092538467238 ,45,5492467305814 ,63,410024395845
28.2562581 ,Left ,66,3644866135274 ,45,5843401532829 ,63,41912309804
28.278839 ,Left ,66,418769530845 ,45,6594453124452 ,63,4186782189109
28.2968174 ,Left ,66,4584546606656 ,45,7496945267447 ,63,4149796202466
28.3161018 ,Left ,66,4488000031294 ,45,808153668426 ,63,4444102837665
28.3389131 ,Left ,66,4073452901054 ,45,8403008307806 ,63,481698357031
28.3569744 ,Left ,66,4018208937894 ,45,8815281887184 ,63,5127719899765
28.3765372 ,Left ,66,3791757377553 ,45,9009563406021 ,63,5353539512405
28.3990495 ,Left ,66,3362130269002 ,45,9133835180492 ,63,5593230390696
28.4167226 ,Left ,66,3061260220577 ,45,9147841958088 ,63,5813048763856
28.4378168 ,Left ,66,2734092920789 ,45,9173826891899 ,63,5940319100082
28.4588961 ,Left ,66,2352077586987 ,45,9187962689451 ,63,571774694551
28.4770306 ,Left ,66,16130660328 ,45,9054398059176 ,63,5731808716598
28.4977557 ,Left ,66,1448011516681 ,45,876645482815 ,63,5920526582196
28.5189477 ,Left ,66,1696363855263 ,45,9041891188024 ,63,5836304596232
28.5369941 ,Left ,66,1852668037302 ,45,9792478442486 ,63,5328829906332
28.5578939 ,Left ,66,2296469108235 ,46,039102971015 ,63,4983482098463
28.5787548 ,Left ,66,2932470932226 ,46,0719860797408 ,63,4578974609976
28.5969742 ,Left ,66,3109830836065 ,46,0996332395236 ,63,3936261815633
28.6180097 ,Left ,66,3160306440737 ,46,1594425247877 ,63,2938569482688
28.6388724 ,Left ,66,2988918459472 ,46,2273561713249 ,63,1778278411711
28.6566488 ,Left ,66,3206687443636 ,46,3065846612515 ,63,0581441839894
28.6778326 ,Left ,66,3496031103026 ,46,3751061241255 ,62,9449921694073
28.6989332 ,Left ,66,3424984079118 ,46,4432590389387 ,62,8318712862823
28.7168175 ,Left ,66,3162030391164 ,46,5025182922069 ,62,7297671272448
28.7393234 ,Left ,66,3037776008812 ,46,5487462745347 ,62,6377683547462
28.7589268 ,Left ,66,3023668834827 ,46,5859731348195 ,62,5601305713833
28.7769966 ,Left ,66,2900632503407 ,46,6023664627939 ,62,4973340493105
28.7994963 ,Left ,66,2653458097898 ,46,6110520075476 ,62,4540746437102
28.8187719 ,Left ,66,2318541032401 ,46,6062410404141 ,62,4198645101048
28.8368446 ,Left ,66,2319675943644 ,46,5808262693873 ,62,3919149455584
28.8667804 ,Left ,66,1969599935768 ,46,5184592266588 ,62,3718162241142
28.8788361 ,Left ,66,1912437197318 ,46,4792138622858 ,62,3557516503039
28.8969667 ,Left ,66,1436332104344 ,46,4204048899735 ,62,3635915926421
28.9192451 ,Left ,66,1806067690916 ,46,4279072091539 ,62,381715325665
28.9389286 ,Left ,66,1996968711003 ,46,4317850410229 ,62,3814209544361
28.9567973 ,Left ,66,2402529206843 ,46,3923047985093 ,62,4471095285833
28.9792379 ,Left ,66,2847205490668 ,46,3628600437528 ,62,4871455139265
28.9989275 ,Left ,66,2818972928642 ,46,2799009585504 ,62,5253159476908
29.0167863 ,Left ,66,2830513160421 ,46,1967178382979 ,62,5564723490105
29.0467671 ,Left ,66,257521354032 ,46,1019193004669 ,62,6088201830636
29.0589489 ,Left ,66,2087349564876 ,46,0540641131452 ,62,6610058256446
29.0770121 ,Left ,66,1751919884432 ,46,0365688253161 ,62,6857462182704
29.0984444 ,Left ,66,1742703483909 ,45,9907418946852 ,62,691855159978
29.1195891 ,Left ,66,1082522738039 ,45,9249399507843 ,62,6933785572334
29.1358679 ,Left ,66,0557529755925 ,45,8713632884912 ,62,6900264035865
29.1585082 ,Left ,66,0266420757826 ,45,8495260027035 ,62,723667829158
29.1797385 ,Left ,66,0444657302549 ,45,8878942227187 ,62,7602663386937
29.195968 ,Left ,66,1093475181232 ,45,973491013594 ,62,7734302865631
29.2185382 ,Left ,66,1732059455113 ,46,0068593328097 ,62,7854849979827
29.2397416 ,Left ,66,2465466851237 ,46,0065313892034 ,62,7934118842957
29.2560111 ,Left ,66,2813072127302 ,46,0035153040236 ,62,798443695782
29.2783918 ,Left ,66,3451255524592 ,46,0026928879624 ,62,808031569231
29.2996328 ,Left ,66,3796759689241 ,45,9653350001776 ,62,8281824727747
29.3159387 ,Left ,66,379379628471 ,45,9250111672214 ,62,8469075560212
29.3385216 ,Left ,66,3873142182097 ,45,8868527860668 ,62,8810518163947
29.3596291 ,Left ,66,4192304053731 ,45,8633816390292 ,62,9254643960685
29.3759102 ,Left ,66,421671346137 ,45,8244034106193 ,62,9836176374584
29.3984715 ,Left ,66,4454770937514 ,45,7784362571775 ,63,0486913087653
29.4195124 ,Left ,66,4383645801199 ,45,7163093539684 ,63,1240332168644
29.4356452 ,Left ,66,4590123927107 ,45,651312822115 ,63,1997577332748
29.4583659 ,Left ,66,4704497776153 ,45,5823618560147 ,63,2797399176917
29.4794606 ,Left ,66,4795834089075 ,45,521540097036 ,63,356561158123
29.4956264 ,Left ,66,4948409801452 ,45,4659908476979 ,63,4266816183724
29.5181639 ,Left ,66,5061321832912 ,45,4099448061381 ,63,4883837450757
29.5395202 ,Left ,66,5306828080429 ,45,3477984637466 ,63,5466465337119
29.5558568 ,Left ,66,5554050847864 ,45,2878501358472 ,63,6031689938939
29.5781552 ,Left ,66,57936806837 ,45,2410329133508 ,63,651446642259
29.5992386 ,Left ,66,5786398829519 ,45,2065728383666 ,63,6952358955531
29.6157954 ,Left ,66,5916668606676 ,45,1729695214436 ,63,7390650622887
29.6387539 ,Left ,66,6010013945213 ,45,137450606471 ,63,7836850794558
29.6599958 ,Left ,66,6137709248045 ,45,1110561058127 ,63,8236252602583
29.6761931 ,Left ,66,6147068054654 ,45,0937589857426 ,63,8691968754948
29.69853 ,Left ,66,6298018761415 ,45,077553362161 ,63,9174523183299
29.7210803 ,Left ,66,6390541264308 ,45,0581390276216 ,63,9689137243111
29.7359763 ,Left ,66,6510087800558 ,45,0488297803204 ,64,0148758877899
29.7587663 ,Left ,66,6533983192786 ,45,0426610116764 ,64,0540262465369
29.7810789 ,Left ,66,6412806625346 ,45,0370714341048 ,64,0810770624121
29.7959681 ,Left ,66,6517957910397 ,45,0434312466882 ,64,1039924951834
29.818483 ,Left ,66,6615933128373 ,45,0463133863193 ,64,1328159445198
29.8411051 ,Left ,66,6527472681765 ,45,0404231137638 ,64,1654548563782
29.8554468 ,Left ,66,6232761871243 ,45,0504974654635 ,64,190873241689
29.8785487 ,Left ,66,6077978187883 ,45,0815110019108 ,64,1973353135467
29.9011659 ,Left ,66,6255000146646 ,45,1235499642549 ,64,2030661685232
29.9154075 ,Left ,66,6404334997428 ,45,1564674753887 ,64,2121351154983
29.9385149 ,Left ,66,6137898762266 ,45,1858703208295 ,64,2187669238848
29.9612462 ,Left ,66,5721822024377 ,45,2200039158444 ,64,215469834462
29.9753281 ,Left ,66,5549834414517 ,45,2471107697226 ,64,1986793839449
29.998683 ,Left ,66,5339371192623 ,45,2647195438074 ,64,184020157156
30.0210924 ,Left ,66,5163791617485 ,45,2750105695713 ,64,1559190497609
30.035385 ,Left ,66,4614293651625 ,45,2570876059535 ,64,1084446695047
30.0585398 ,Left ,66,4570286692973 ,45,2447082010255 ,64,0703419983064
30.0811067 ,Left ,66,4588735568741 ,45,2205304996255 ,64,0604239150514
30.0950871 ,Left ,66,4935762767603 ,45,2671807156951 ,64,023395861896
30.1181609 ,Left ,66,5043425486794 ,45,3578697867981 ,63,9813393217614
30.1407382 ,Left ,66,5333710225338 ,45,4365284357789 ,63,9611934387853
30.155038 ,Left ,66,5220160345842 ,45,4683742621196 ,63,9348932769391
30.1784333 ,Left ,66,5503350008818 ,45,4971015863136 ,63,8836762272771
30.2010825 ,Left ,66,5520599959336 ,45,5240397081577 ,63,8172684622136
30.2220806 ,Left ,66,5524557191324 ,45,5372718979123 ,63,7572812318442
30.2385201 ,Left ,66,5148981196903 ,45,5599349319373 ,63,6971609689208
30.260965 ,Left ,66,5066485519005 ,45,5815391990951 ,63,6456697995451
30.2823987 ,Left ,66,5248400742206 ,45,5888774579191 ,63,6029392463532
30.2984974 ,Left ,66,4913822588751 ,45,5649635050107 ,63,5757179525409
30.3212122 ,Left ,66,445584243135 ,45,5451231015127 ,63,5573218408077
30.3422941 ,Left ,66,3412366686701 ,45,5065162151285 ,63,5401607810701
30.3587928 ,Left ,66,3735429121738 ,45,4843845433819 ,63,5376901238955
30.3811917 ,Left ,66,433200271585 ,45,4731040852243 ,63,556910212125
30.401867 ,Left ,66,5032665829046 ,45,5155566647694 ,63,5563055777593
30.4181716 ,Left ,66,4958621271773 ,45,5671065757823 ,63,5415140006334
30.4409156 ,Left ,66,5111017397326 ,45,5984104925131 ,63,544600812381
30.4618502 ,Left ,66,4712366483289 ,45,5966740507521 ,63,5411265081536
30.4783537 ,Left ,66,4539333104745 ,45,5999316684407 ,63,5379388235074
30.5010436 ,Left ,66,4097721519953 ,45,5885881081678 ,63,5473439096234
30.5220296 ,Left ,66,3635305704728 ,45,6146420904512 ,63,5476479879314
30.5383851 ,Left ,66,3228906359061 ,45,597913614586 ,63,5393669805251
30.5607533 ,Left ,66,3120070389632 ,45,586811662682 ,63,5706694436355
30.5818036 ,Left ,66,3112270872659 ,45,6324999324783 ,63,5865178459742
30.5984072 ,Left ,66,3656654493261 ,45,7197639409327 ,63,6052834473518
30.6210205 ,Left ,66,3989163815173 ,45,8395693690403 ,63,5796346384647
30.643397 ,Left ,66,3902825840094 ,45,8854770955743 ,63,5876202283498
30.6660657 ,Left ,66,3944208716008 ,45,925699302473 ,63,5963545651387
30.6810548 ,Left ,66,3901593866809 ,45,9595764993687 ,63,6184816880989
30.7034809 ,Left ,66,3652892876821 ,45,9851677378533 ,63,6415260532472
30.7184489 ,Left ,66,3114416717307 ,46,0107248727788 ,63,6601976124644
30.7410133 ,Left ,66,2738117612971 ,46,0293610225871 ,63,6852212239627
30.7635904 ,Left ,66,2544510057239 ,46,0292029227352 ,63,7107722563276
30.7784521 ,Left ,66,2296372041374 ,46,0121320219103 ,63,7313792379577
30.8009443 ,Left ,66,191122109404 ,45,9890566720091 ,63,7400149752773
30.8236807 ,Left ,66,1706053268499 ,45,9638634537381 ,63,7394967923372
30.8377281 ,Left ,66,1198214276211 ,45,9255048995379 ,63,7232394431205
30.8608555 ,Left ,66,1368462033388 ,45,9003085134305 ,63,7152343676334
30.8836743 ,Left ,66,1519812735443 ,45,8780038334389 ,63,723643817656
30.8979023 ,Left ,66,2230319937262 ,45,9255632449986 ,63,6911700843127
30.9208561 ,Left ,66,2523539864948 ,46,004946487644 ,63,6364662239265
30.9434408 ,Left ,66,2843131719972 ,46,0422695302062 ,63,5915538473994
30.9578096 ,Left ,66,3233183576335 ,46,0704006329403 ,63,534907863016
30.980865 ,Left ,66,3566872484493 ,46,1080470009512 ,63,4448028171689
31.0033722 ,Left ,66,4074066980943 ,46,1449947246223 ,63,3566077539766
31.0180827 ,Left ,66,4391497435269 ,46,1946388410648 ,63,2603594839974
31.0411746 ,Left ,66,4639918867386 ,46,2478301484851 ,63,1603599786719
31.0636548 ,Left ,66,4606711692294 ,46,308758357074 ,63,0604209845876
31.0847919 ,Left ,66,4649785355387 ,46,3532426133318 ,62,984057958273
31.1009085 ,Left ,66,462429219654 ,46,3856260973012 ,62,9149092200198
31.123133 ,Left ,66,4561755506468 ,46,4179739251935 ,62,8510949795389
31.1444962 ,Left ,66,4494415573075 ,46,4500511223245 ,62,7868837738029
31.160923 ,Left ,66,4522737651827 ,46,4725660799536 ,62,7243284396339
31.1834875 ,Left ,66,4490290172917 ,46,4702310093536 ,62,6675774067051
31.2045187 ,Left ,66,4152809884698 ,46,4557275286762 ,62,6227934515935
31.2207714 ,Left ,66,3735493905898 ,46,4367850499898 ,62,5870887103346
31.2434362 ,Left ,66,3256469225402 ,46,4118810555369 ,62,5554359467569
31.2647943 ,Left ,66,2709975870904 ,46,3742186346532 ,62,5262789321985
31.2809276 ,Left ,66,2270106007837 ,46,3499267080948 ,62,5254052611676
31.3034138 ,Left ,66,1773489021868 ,46,2969919025244 ,62,5593473892741
31.3247209 ,Left ,66,2146102858402 ,46,3259212716377 ,62,5762822725116
31.3409684 ,Left ,66,1697691372369 ,46,3381721604096 ,62,5999829573984
31.3636841 ,Left ,66,1806255960243 ,46,274402930579 ,62,6552899120021
31.3846593 ,Left ,66,2019454012057 ,46,2261945634807 ,62,6675678628118
31.4009278 ,Left ,66,2369617012822 ,46,1478884031125 ,62,6757531124239
31.4235692 ,Left ,66,2176678771257 ,46,0416858294675 ,62,6906739838192
31.4441989 ,Left ,66,1947156620771 ,45,9661449297848 ,62,7291361656935
31.4607828 ,Left ,66,1743345902351 ,45,9346526864767 ,62,7359591601097
31.4833353 ,Left ,66,1767194153644 ,45,8897392299196 ,62,7252212588258
31.5042375 ,Left ,66,1372960038412 ,45,8067135230436 ,62,7330831296102
31.5208577 ,Left ,66,1574365563246 ,45,7800227007208 ,62,7267400031708
31.5433846 ,Left ,66,1312825093873 ,45,7958681941956 ,62,7573831996392
31.5645991 ,Left ,66,1572948651934 ,45,8468004905494 ,62,8290050374584
31.5802434 ,Left ,66,2189226977915 ,45,9404949028094 ,62,8920794134073
31.6035315 ,Left ,66,2783910726405 ,46,015572646523 ,62,8873537465468
31.6259966 ,Left ,66,3358694099923 ,46,0367373066103 ,62,8982385540329
31.6402923 ,Left ,66,3673823077133 ,46,0524188886267 ,62,9049269512509
31.663745 ,Left ,66,4143617584344 ,46,0531865838796 ,62,9137706298423
31.6859674 ,Left ,66,4290422412807 ,46,0050070836048 ,62,9509158467611
31.7010298 ,Left ,66,3980354955537 ,45,9584028788389 ,62,9855653350236
31.7235241 ,Left ,66,380701370703 ,45,9010174074276 ,63,0168166843918
31.7460029 ,Left ,66,3973181481466 ,45,8499470854915 ,63,0604036611204
31.7604659 ,Left ,66,4207434328258 ,45,802134201862 ,63,1113279149436
31.7835931 ,Left ,66,4266936764549 ,45,7470788493454 ,63,182626230561
31.8057541 ,Left ,66,4118160564054 ,45,6884856388843 ,63,267096061742
31.8199926 ,Left ,66,3993300672146 ,45,6196121505424 ,63,3599756392566
31.8432476 ,Left ,66,4053849290111 ,45,5433411960417 ,63,4412208934811
31.8658459 ,Left ,66,4238490328128 ,45,4756773129321 ,63,5133686860387
31.8869451 ,Left ,66,4525229073757 ,45,423042759805 ,63,5793833008163
31.9033916 ,Left ,66,4761470806073 ,45,3790652242337 ,63,6392331564229
31.9258867 ,Left ,66,4972031876222 ,45,3368107854646 ,63,6968182598514
31.9404229 ,Left ,66,5352054981754 ,45,2988654116684 ,63,7465400093728
31.963779 ,Left ,66,565562768932 ,45,2586224191183 ,63,7883308294874
31.9862291 ,Left ,66,5762889692478 ,45,2146774446367 ,63,8240838395198
32.0004517 ,Left ,66,5935531421452 ,45,1782685349762 ,63,8486974448321
32.0238482 ,Left ,66,6040056205243 ,45,1502288001114 ,63,876816507856
32.0459521 ,Left ,66,6050412402538 ,45,1280759098024 ,63,9126027092111
32.06038 ,Left ,66,5991713976193 ,45,1062401091884 ,63,9368803064177
32.0836278 ,Left ,66,6024589332702 ,45,0862499720021 ,63,9659076647126
32.1059994 ,Left ,66,59514433812 ,45,0713910271909 ,63,996659505024
32.1272535 ,Left ,66,5882560710252 ,45,0774659726133 ,64,0278483159895
32.1435359 ,Left ,66,5860433905252 ,45,0892431341235 ,64,0572987165026
32.1660029 ,Left ,66,5962468135387 ,45,1001843421382 ,64,0873351819106
32.1871233 ,Left ,66,578795900369 ,45,1158447717072 ,64,1252541887327
32.2034184 ,Left ,66,552378532128 ,45,1460616312325 ,64,1532491727936
32.22597 ,Left ,66,52925290231 ,45,179854280225 ,64,1731272828252
32.2470082 ,Left ,66,5267508434892 ,45,2039841004315 ,64,1963164909907
32.263476 ,Left ,66,4989208900286 ,45,2176952999184 ,64,2046426350083
32.2860723 ,Left ,66,4601542779063 ,45,2289594508989 ,64,1901990013988
32.3070511 ,Left ,66,3974021122063 ,45,217407041507 ,64,1657775767881
32.3236412 ,Left ,66,3732098026508 ,45,2264909973797 ,64,1494221989489
32.3458817 ,Left ,66,3571121564981 ,45,228369281834 ,64,1404548526561
32.3666879 ,Left ,66,3708565964321 ,45,2738204859516 ,64,1214479782865
32.3833448 ,Left ,66,4068468597603 ,45,3534379868847 ,64,0888498068863
32.4056297 ,Left ,66,4414216998436 ,45,4087902897075 ,64,0620439573494
32.426784 ,Left ,66,4590647267149 ,45,4356444959604 ,64,0340592556695
32.4434216 ,Left ,66,490627483947 ,45,4614855505597 ,63,976312050385
32.4659128 ,Left ,66,5204934500674 ,45,4795247590005 ,63,9070224785527
32.4871584 ,Left ,66,5376926464704 ,45,4875870236837 ,63,835503828771
32.5033722 ,Left ,66,5155681687052 ,45,5020662465398 ,63,7598996378471
32.5260335 ,Left ,66,5367872624994 ,45,5290917831752 ,63,678714563646
32.5484386 ,Left ,66,5719267320631 ,45,536053195017 ,63,6068684565086
32.5638377 ,Left ,66,5522243143705 ,45,511624961288 ,63,5657548169211
32.5859494 ,Left ,66,5199811850917 ,45,4895384584819 ,63,5422228520469
32.6084959 ,Left ,66,4140367609804 ,45,4497513144709 ,63,516486062519
32.6232345 ,Left ,66,4510012785735 ,45,4257412779254 ,63,5136551507446
32.6458766 ,Left ,66,5015761702882 ,45,4001994068437 ,63,5472053725365
32.6684269 ,Left ,66,5920231692531 ,45,4397050600295 ,63,5481287637038
32.6832384 ,Left ,66,5952803948027 ,45,4771845756536 ,63,5423681481376
32.7061175 ,Left ,66,6114678249903 ,45,5094629476622 ,63,5534858579344
32.7285176 ,Left ,66,5611188524182 ,45,517503030465 ,63,5592890680211
32.7429739 ,Left ,66,5436358754225 ,45,5147090662163 ,63,5713225251419
32.7662458 ,Left ,66,500691373668 ,45,4961184795728 ,63,5950065205408
32.78849 ,Left ,66,4559076519095 ,45,5172238009048 ,63,6055840629532
32.8028238 ,Left ,66,36788062266 ,45,4952851528084 ,63,6068352327267
32.8259177 ,Left ,66,332704035735 ,45,4692742240931 ,63,6560150399309
32.8482342 ,Left ,66,3827818689055 ,45,5018313907719 ,63,6890788823206
32.8628272 ,Left ,66,4623590552484 ,45,595508175025 ,63,7197310030224
32.8859306 ,Left ,66,4940446350755 ,45,7107061730697 ,63,7121415326615
32.908296 ,Left ,66,4933295809402 ,45,7575762548776 ,63,7417977245751
32.9226872 ,Left ,66,4862463873798 ,45,8136471701146 ,63,7705346018744
32.9458889 ,Left ,66,4637714396067 ,45,8698495879273 ,63,7995335384735
32.9684 ,Left ,66,4498693821339 ,45,9141018215221 ,63,8130079093429
32.97368 ,Left ,66,4178586946995 ,45,9466318630627 ,63,8385880010132
32.9901353 ,Left ,66,3785930502387 ,45,9632379776367 ,63,8573712436679
33.011575 ,Left ,66,3268031407593 ,45,9634282181044 ,63,8731400155837
33.0340241 ,Left ,66,2791607538247 ,45,9453043359967 ,63,8800023688307
33.0502232 ,Left ,66,2423436730743 ,45,9020864347495 ,63,8886047965807
33.071421 ,Left ,66,2263295345734 ,45,8475960530183 ,63,8944873482675
33.0939268 ,Left ,66,2007660893293 ,45,8057522193346 ,63,8898246980688
33.1101646 ,Left ,66,1342182580725 ,45,7636957954514 ,63,8828113383862
33.1313143 ,Left ,66,0939744333093 ,45,755265665358 ,63,8758246192447
33.1617864 ,Left ,66,1019674281038 ,45,7535744283262 ,63,8836627718712
33.1700439 ,Left ,66,1867568646658 ,45,8027152957117 ,63,8709943656028
33.1912698 ,Left ,66,1783908002241 ,45,8870476811879 ,63,8209432573687
33.2136029 ,Left ,66,2148046983374 ,45,8962958277191 ,63,7950584087281
33.2301476 ,Left ,66,2740890942144 ,45,9123046369652 ,63,7521281434989
33.251189 ,Left ,66,3182770431785 ,45,924363719711 ,63,6825194240992
33.2738703 ,Left ,66,36606662687 ,45,9326092737261 ,63,6297140721569
33.2902786 ,Left ,66,3734824834128 ,45,9696589109131 ,63,5601351065275
33.3113953 ,Left ,66,3474883860671 ,46,0291183660712 ,63,475746216518
33.3340002 ,Left ,66,3569256299241 ,46,0917256927823 ,63,3803269310122
33.350331 ,Left ,66,3558976320119 ,46,1402268519843 ,63,2910675800062
33.3711788 ,Left ,66,3511117972476 ,46,1793388295891 ,63,2150897492041
33.3935771 ,Left ,66,3319521508625 ,46,2218752568664 ,63,1365372732509
33.4100044 ,Left ,66,3133450800043 ,46,2583903265103 ,63,0623896453833
33.4312278 ,Left ,66,3004656933969 ,46,2886762900365 ,62,9932919312537
33.4537398 ,Left ,66,2616320375345 ,46,3033160655836 ,62,9408065124917
33.4702788 ,Left ,66,2285673125462 ,46,3117423227309 ,62,8932748825698
33.4915258 ,Left ,66,1905443674133 ,46,3192874839078 ,62,8473535657516
33.5138673 ,Left ,66,1751880413012 ,46,3103795668378 ,62,8107767760809
33.5318316 ,Left ,66,1466263916613 ,46,2813100426147 ,62,78722913295
33.5515328 ,Left ,66,1231119059594 ,46,2539132572073 ,62,7600332472738
33.5739835 ,Left ,66,0435863496428 ,46,2231092862544 ,62,7321997876656
33.5915744 ,Left ,65,953144979919 ,46,1708739514192 ,62,7623607626628
33.6115164 ,Left ,65,9761592443132 ,46,2022329507912 ,62,7983242136558
33.6338233 ,Left ,65,9715577081743 ,46,2586412656295 ,62,794201442688
