timestamp,event,roll,pitch,yaw
0.0318622 ,Left ,69,3431349104459 ,43,4706151275207 ,25,8585886985587
0.0547125 ,Left ,69,3672280480699 ,43,4403534076635 ,25,7877221222568
0.072715 ,Left ,69,3889049387584 ,43,41911529815 ,25,7332776014286
0.0922828 ,Left ,69,3906916720991 ,43,4035627313695 ,25,6898753530894
0.1143296 ,Left ,69,3840122584914 ,43,3787625515747 ,25,652648379642
0.132472 ,Left ,69,3673304885751 ,43,3545352794512 ,25,6137189542712
0.1549098 ,Left ,69,3486216536754 ,43,3305497017571 ,25,5768453499308
0.1744684 ,Left ,69,3326957711102 ,43,308983277196 ,25,541897743369
0.1923878 ,Left ,69,330496370256 ,43,2985542902987 ,25,5004382937687
0.212159 ,Left ,69,33300423997 ,43,2922098431532 ,25,4588402080275
0.2348942 ,Left ,69,3232066697672 ,43,2786352371994 ,25,4236714477072
0.2528465 ,Left ,69,3077532109395 ,43,2657726517664 ,25,3990509975892
0.2725099 ,Left ,69,2917325846882 ,43,2569716890218 ,25,3745268235139
0.2952472 ,Left ,69,2829332423603 ,43,2525512603464 ,25,3456735044801
0.3127619 ,Left ,69,2880321499257 ,43,2505601953136 ,25,3225549393822
0.3341807 ,Left ,69,2917493516631 ,43,2545686212145 ,25,310036030086
0.3546309 ,Left ,69,2921334231632 ,43,2551580533637 ,25,3079754792404
0.372554 ,Left ,69,2951436870129 ,43,2524326114248 ,25,303616920102
0.3919943 ,Left ,69,3035916364653 ,43,2478380411321 ,25,2989736195884
0.4145636 ,Left ,69,3215340696092 ,43,2404630196201 ,25,3001108927924
0.4329259 ,Left ,69,337892399299 ,43,2351300497787 ,25,3076120934291
0.452055 ,Left ,69,3379901781764 ,43,2309960024256 ,25,3178359137548
0.477476 ,Left ,69,339921413146 ,43,2209284948189 ,25,3236692850615
0.4925725 ,Left ,69,3547554603316 ,43,2109540923591 ,25,3330808559837
0.5123681 ,Left ,69,367900387187 ,43,2071558866105 ,25,3386458270764
0.5349469 ,Left ,69,3677778220673 ,43,2018624079778 ,25,3426010548658
0.552477 ,Left ,69,3586825103552 ,43,1871952074224 ,25,3466330614616
0.573564 ,Left ,69,3570279776604 ,43,1722477458047 ,25,3482677891325
0.5948605 ,Left ,69,3591877122465 ,43,1580035117802 ,25,3476797450969
0.612642 ,Left ,69,3485974681525 ,43,1504051801061 ,25,3457706292005
0.6339146 ,Left ,69,3387800347089 ,43,1439825926951 ,25,3397476159773
0.6546572 ,Left ,69,336065734532 ,43,1483738404632 ,25,3254870391458
0.6724807 ,Left ,69,3337526400843 ,43,1700773690742 ,25,3055343566922
0.6935396 ,Left ,69,3111336061564 ,43,1918982073598 ,25,2843416317371
0.7148065 ,Left ,69,2822707416844 ,43,2184613677544 ,25,2572220431715
0.7325392 ,Left ,69,258194028852 ,43,2337763424154 ,25,2231769044651
0.7537133 ,Left ,69,2151805766495 ,43,2319870257501 ,25,1933630237597
0.7748589 ,Left ,69,175257139863 ,43,2336892608015 ,25,1550524570407
0.7928456 ,Left ,69,1391958067054 ,43,2213867159788 ,25,0845567906321
0.8140036 ,Left ,69,0972347253843 ,43,1724724171813 ,25,0043887423787
0.8348 ,Left ,69,0281871271297 ,43,1086518485689 ,24,9283999042804
0.8571232 ,Left ,68,9011026042781 ,43,0669060251793 ,24,9095722187755
0.875082 ,Left ,68,7262056124625 ,43,0900484762878 ,24,918641822928
0.8945081 ,Left ,68,4744274638398 ,43,0728048818594 ,24,8498476329454
0.916834 ,Left ,68,2518568559539 ,42,87390645754 ,24,816951082658
0.9354506 ,Left ,68,1903412006941 ,42,7972125492512 ,24,8076970707429
0.9553025 ,Left ,68,0338494242331 ,43,023246285121 ,24,6633498880384
0.9774605 ,Left ,68,0193733187251 ,43,1871129628201 ,24,4636088040829
0.9952282 ,Left ,68,3240491903429 ,43,118912145979 ,24,3170568171595
1.0147804 ,Left ,68,5718502377507 ,43,0409220088011 ,24,2380752053862
1.0371161 ,Left ,68,5763956260804 ,42,9706662269844 ,24,1920459824144
1.0549985 ,Left ,68,3904239513479 ,42,8889771182201 ,24,1865082101688
1.0750348 ,Left ,68,1779888174005 ,42,8036922458827 ,24,1715411836893
1.0977392 ,Left ,68,1056443316297 ,42,7351736027497 ,24,1144069790322
1.1154515 ,Left ,68,1675304260332 ,42,6747373668749 ,24,0368615671264
1.1349849 ,Left ,68,1628900547648 ,42,6698110871099 ,24,0388581889927
1.1573018 ,Left ,68,132679291605 ,42,6012295085432 ,24,0947551975818
1.1749081 ,Left ,68,207567027564 ,42,3883957855011 ,24,1614605290332
1.1944687 ,Left ,68,3615077702081 ,42,2600896634791 ,24,1832582520637
1.216877 ,Left ,68,2770272878027 ,42,3599339109181 ,24,1144568499973
1.2348971 ,Left ,68,2167927427426 ,42,4440912458168 ,23,996499125716
1.254759 ,Left ,68,2419739822886 ,42,4347624557498 ,23,9261849349496
1.2769939 ,Left ,68,2221029187162 ,42,4961473456048 ,23,8619186410473
1.2949899 ,Left ,68,3509669584983 ,42,4502892832323 ,23,8065709508578
1.3148578 ,Left ,68,4368750284959 ,42,344625275164 ,23,8575896602984
1.3371494 ,Left ,68,3435572632215 ,42,5066970517814 ,23,9214922952837
1.3551088 ,Left ,68,2142336333618 ,42,8238269273122 ,23,9434326915645
1.374608 ,Left ,68,3107243186107 ,43,0115007200236 ,23,9513400994962
1.3973066 ,Left ,68,380909367345 ,43,1073449443035 ,23,9785334233408
1.4152601 ,Left ,68,2693022675152 ,43,2081104592031 ,24,0238498962395
1.4360507 ,Left ,68,168278805908 ,43,2895487257064 ,24,0409701575959
1.4570766 ,Left ,68,1194118512075 ,43,3322861509393 ,24,0492214323983
1.4751699 ,Left ,68,0923875304606 ,43,3697464389454 ,24,0531952413768
1.4960873 ,Left ,68,0661664140431 ,43,3100257609991 ,24,0942163441262
1.5167968 ,Left ,67,9999222910142 ,43,0701630511621 ,24,1353279392341
1.5349237 ,Left ,68,1015592820381 ,42,8339892125257 ,24,0879506808031
1.5561176 ,Left ,68,1109892123091 ,42,8206387683485 ,23,9986972438815
1.5774536 ,Left ,68,0001824200066 ,43,0219489464754 ,23,8856698778428
1.5954513 ,Left ,68,0803580340257 ,43,1449698269986 ,23,8288518987191
1.6166068 ,Left ,68,2743454213785 ,43,1678112646644 ,23,8080997725161
1.6371412 ,Left ,68,3817379585331 ,43,2667565855452 ,23,7738995014628
1.6551817 ,Left ,68,4173147414834 ,43,3962590939132 ,23,7171290683596
1.6767026 ,Left ,68,363563073414 ,43,5272188697884 ,23,6558460686435
1.6969029 ,Left ,68,3160827018511 ,43,6577571809541 ,23,5824254329461
1.715116 ,Left ,68,290546540937 ,43,7803891945184 ,23,4840848075489
1.7376865 ,Left ,68,257920309148 ,43,863895552067 ,23,3733285150344
1.7568886 ,Left ,68,1915068299486 ,43,9114211915132 ,23,2714044320297
1.7748023 ,Left ,68,0908738432041 ,43,9308693636575 ,23,1823226277644
1.7973365 ,Left ,67,9887409924135 ,43,9465941095303 ,23,0900506981693
1.8180812 ,Left ,67,8758330342137 ,43,9573646593352 ,23,0141982018087
1.8346131 ,Left ,67,7808704585532 ,43,8370241520919 ,23,01566447059
1.8570542 ,Left ,67,7953833040105 ,43,5148142616622 ,23,109183492896
1.8776948 ,Left ,67,8922868527336 ,43,255027445103 ,23,1965104039679
1.895489 ,Left ,67,8246995742445 ,43,2333574635576 ,23,2459668152611
1.917688 ,Left ,67,9968004844854 ,43,2376584793601 ,23,1750065446778
1.9373415 ,Left ,68,2138442955577 ,43,1234109124124 ,23,087348591829
1.9544136 ,Left ,68,1985213303859 ,42,9993849174113 ,23,050431521861
1.9768904 ,Left ,68,1663734341064 ,42,9753923412638 ,23,0904174348175
1.9981426 ,Left ,68,2019804540249 ,43,0030714159447 ,23,1494871291789
2.0144458 ,Left ,68,2870009758913 ,42,9635961460469 ,23,1859644974379
2.0370028 ,Left ,68,3848784322949 ,42,7433964877458 ,23,2753426697297
2.0574871 ,Left ,68,5884243331556 ,42,5830313245094 ,23,3270933265092
2.075204 ,Left ,68,4996372181644 ,42,6571098978659 ,23,3571342733878
2.0976966 ,Left ,68,4417944836136 ,42,8127936681428 ,23,3745494917516
2.1174737 ,Left ,68,5759782637551 ,42,8607432368168 ,23,3565176573397
2.1351794 ,Left ,68,6443200142866 ,42,7960324387911 ,23,3505924012706
2.1575814 ,Left ,68,6797267153344 ,42,7857024794282 ,23,3518593693044
2.1780893 ,Left ,68,7353075127326 ,42,7743268969024 ,23,3733145894328
2.1936677 ,Left ,68,7849165965715 ,42,7441057035899 ,23,4002959388885
2.2170653 ,Left ,68,8326550340416 ,42,7054002380833 ,23,421982049754
2.2375367 ,Left ,68,8473179918759 ,42,6596172759019 ,23,459366916317
2.2540625 ,Left ,68,8464281154695 ,42,634927163488 ,23,5072453129081
2.2798628 ,Left ,68,8416923886541 ,42,6195198806381 ,23,5624902042724
2.2970603 ,Left ,68,8480762741596 ,42,6202853970935 ,23,627418083411
2.3135039 ,Left ,68,8587821420994 ,42,6692884742859 ,23,7042771325442
2.3344505 ,Left ,68,7534091762434 ,42,7451630271533 ,23,8200208980147
2.3571339 ,Left ,68,6317459884029 ,42,6283292337614 ,23,940547713439
2.3737328 ,Left ,68,8049548388239 ,42,764368208262 ,23,9219182507659
2.3946495 ,Left ,68,7732670657425 ,42,6360493012668 ,23,9820756509951
2.4184281 ,Left ,68,7475345665597 ,42,6962061361098 ,24,0323758431258
2.4336929 ,Left ,68,8580394117561 ,42,704921177485 ,24,0035972569661
2.4547826 ,Left ,68,7276263324497 ,42,6718356681145 ,24,0889161594022
2.4771171 ,Left ,68,8280589717032 ,42,7201289065189 ,24,0844714813081
2.4934876 ,Left ,68,7937270804466 ,42,7428996312128 ,24,123865878382
2.5146085 ,Left ,68,7795244775432 ,42,7488754049652 ,24,1290095676913
2.5373824 ,Left ,68,7768373029766 ,42,7682748991247 ,24,1256525910525
2.5536787 ,Left ,68,7785280370418 ,42,7996781176076 ,24,1095014456499
2.5747345 ,Left ,68,7877769634369 ,42,8329882323493 ,24,0955437975581
2.5971279 ,Left ,68,885099739355 ,42,9440643616364 ,24,0372423703943
2.6137984 ,Left ,69,0073547804597 ,42,9338952839888 ,23,9814272137234
2.6348486 ,Left ,69,0873509563523 ,43,0668605085841 ,23,9426310572788
2.657479 ,Left ,69,0339603437437 ,43,0260456226875 ,23,9350027534273
2.6737476 ,Left ,69,003133914351 ,43,006753582123 ,23,9369946086784
2.6975657 ,Left ,68,9420439102451 ,42,9726019233982 ,23,9562248686005
2.7171602 ,Left ,68,8763225642272 ,42,9960604207664 ,24,0068863342119
2.7336545 ,Left ,68,836201245487 ,43,0751275784521 ,24,0021776116676
2.7545947 ,Left ,68,7850886965952 ,42,9804862644392 ,23,9151673908073
2.777247 ,Left ,68,7767673336504 ,42,8675234524391 ,23,8967873510769
2.7950748 ,Left ,68,6118163804996 ,42,9293047625877 ,23,8571050742716
2.8161268 ,Left ,68,487869078779 ,43,1150892351103 ,23,7862786623618
2.8373781 ,Left ,68,6036669451047 ,43,17499938128 ,23,7132201334002
2.853667 ,Left ,68,8383742487366 ,43,1852236296885 ,23,6667457435786
2.8761278 ,Left ,68,9552690858006 ,43,1829718071282 ,23,6527172543361
2.8968942 ,Left ,68,8445625120152 ,43,2058438278624 ,23,6808945527927
2.9134096 ,Left ,68,6356868981198 ,43,2120440188742 ,23,7122726329366
2.9360585 ,Left ,68,5610454102819 ,43,1990701539931 ,23,7048502007461
2.9569511 ,Left ,68,6410070586785 ,43,1622206826915 ,23,6660397158514
2.9749031 ,Left ,68,7568783790212 ,43,110238513124 ,23,6172182224481
2.9961545 ,Left ,68,8059483823024 ,43,0231018332506 ,23,5816853002533
3.017247 ,Left ,68,7274666357578 ,42,9104935450002 ,23,5521613304792
3.0340035 ,Left ,68,5885403205907 ,42,8064251787268 ,23,5568906127566
3.0565058 ,Left ,68,4888756553399 ,42,765887202661 ,23,5576456312026
3.0768703 ,Left ,68,4095526547064 ,42,718092555732 ,23,5828653885238
3.0937128 ,Left ,68,538623510511 ,42,557983245589 ,23,5823899625296
3.1162105 ,Left ,68,6448751001221 ,42,5299682422077 ,23,5900713788181
3.1375861 ,Left ,68,6017132517447 ,42,5902824187609 ,23,5674652729336
3.1614972 ,Left ,68,6088270185816 ,42,6176376978018 ,23,5262005460206
3.1771144 ,Left ,68,5541037180513 ,42,6199824541789 ,23,5088842992112
3.1993758 ,Left ,68,5469473847392 ,42,6731183881779 ,23,4892686283783
3.2202233 ,Left ,68,6665488336314 ,42,6631832808057 ,23,4896428725633
3.2367781 ,Left ,68,7266243168518 ,42,5821170391657 ,23,5220044128361
3.2592118 ,Left ,68,6461116761043 ,42,6599848581032 ,23,5888755949627
3.2803113 ,Left ,68,5359729726023 ,42,8742859680362 ,23,6255102890786
3.296736 ,Left ,68,5819686376727 ,43,0155158709967 ,23,6492956932499
3.3191426 ,Left ,68,6276635416963 ,43,1222868634222 ,23,6891209577105
3.340125 ,Left ,68,5738921860856 ,43,2123946428991 ,23,7387378431869
3.3568 ,Left ,68,5290257540033 ,43,2989478410316 ,23,763115440823
3.3790506 ,Left ,68,5052338748456 ,43,3634345934547 ,23,779902211169
3.4001588 ,Left ,68,4926135215133 ,43,4357545398624 ,23,7723676461187
3.4167522 ,Left ,68,474093824845 ,43,4908615194872 ,23,7531185111315
3.4393011 ,Left ,68,4197600272956 ,43,5365790017219 ,23,7372404434864
3.460364 ,Left ,68,3873224068669 ,43,5637276386911 ,23,7345735682227
3.4766558 ,Left ,68,3911865429813 ,43,5746166658971 ,23,7458674474213
3.4997188 ,Left ,68,3972347330874 ,43,5372567854232 ,23,7765667300667
3.5207973 ,Left ,68,376724322192 ,43,469279849906 ,23,8437824945408
3.537203 ,Left ,68,355584151319 ,43,3846421644469 ,23,9328325460129
3.5592259 ,Left ,68,3392279444782 ,43,3025086989123 ,24,0129530757889
3.5802161 ,Left ,68,2939084989989 ,43,2421385571138 ,24,0863005056637
3.5961252 ,Left ,68,2525112077031 ,43,148397980283 ,24,1592938941572
3.6190242 ,Left ,68,2793296010349 ,42,9316486244081 ,24,1725832225729
3.6417801 ,Left ,68,4417008926717 ,42,7420511802477 ,24,1105244045645
3.6627387 ,Left ,68,3915673079992 ,42,8426404965423 ,24,0237695557614
3.679175 ,Left ,68,3232468376649 ,43,0905136572285 ,23,9179438774279
3.7017618 ,Left ,68,4420218646207 ,43,2731776221045 ,23,8457590162486
3.7158627 ,Left ,68,587028980381 ,43,3925874130131 ,23,7659054299308
3.7397331 ,Left ,68,5666402787496 ,43,5438753345984 ,23,6960370957018
3.7625274 ,Left ,68,4942006916102 ,43,6791484461225 ,23,6101834857162
3.783322 ,Left ,68,4300283285799 ,43,796619228194 ,23,5382473059069
3.7996145 ,Left ,68,4022673869748 ,43,9342391839187 ,23,4445261765501
3.8220728 ,Left ,68,4053449003955 ,44,0645462445545 ,23,3509962216917
3.8429728 ,Left ,68,4130928298072 ,44,1570624127429 ,23,2731331406484
3.8593404 ,Left ,68,369025057498 ,44,2055876438499 ,23,2235952171866
3.881714 ,Left ,68,3185366199517 ,44,2138977009032 ,23,182537058591
3.9027696 ,Left ,68,2600377781869 ,44,1681646988093 ,23,1390008083567
3.919126 ,Left ,68,1569005744229 ,44,1155559967582 ,23,0947891849882
3.9419193 ,Left ,68,056936926116 ,44,0604218707783 ,23,018671369801
3.9628206 ,Left ,67,9938807739509 ,43,9222885588156 ,22,9583526599579
3.9792403 ,Left ,67,9369672085189 ,43,5682950626004 ,22,9589642040869
4.0015376 ,Left ,68,0608242674348 ,43,3057366524744 ,22,9724504403719
4.022644 ,Left ,68,0846910769676 ,43,3113240821519 ,22,9850155250035
4.0390722 ,Left ,68,1497905998158 ,43,4101690944844 ,22,9645779788243
4.061576 ,Left ,68,3525573186461 ,43,4205593725125 ,22,9220054783278
4.0847374 ,Left ,68,413461535838 ,43,3179424986316 ,22,8814091410772
4.0989636 ,Left ,68,3809614642212 ,43,2502217915469 ,22,8802740650008
4.1221073 ,Left ,68,4090443196465 ,43,234125447706 ,22,9265820450214
4.1431664 ,Left ,68,5124953552022 ,43,2358961729853 ,22,938138645359
4.1595217 ,Left ,68,6110234964879 ,43,1034887388152 ,22,979626673561
4.1818417 ,Left ,68,8064493398948 ,42,8892688868431 ,23,0711288843809
4.2028028 ,Left ,68,8715786713065 ,42,8875061393132 ,23,132028242872
4.2192346 ,Left ,68,7414152822371 ,43,0435030169928 ,23,1845979786892
4.2418083 ,Left ,68,8217509601745 ,43,1430513171993 ,23,2057769942642
4.2627733 ,Left ,68,9261380935076 ,43,1403875952721 ,23,221322930578
4.2792355 ,Left ,68,926512325807 ,43,1036438262966 ,23,2688598948614
4.301476 ,Left ,68,944288219674 ,43,1036439569513 ,23,325024017482
4.322679 ,Left ,68,9891088946261 ,43,0881883430426 ,23,3935477986376
4.339196 ,Left ,69,0172920167431 ,43,0538322918532 ,23,4561363842882
4.361874 ,Left ,69,0182129989461 ,43,0255697411039 ,23,5214357020339
4.3827861 ,Left ,69,0653387406634 ,43,0306159202702 ,23,5253472980346
4.3992848 ,Left ,68,9865242359306 ,42,9586153958925 ,23,5649117973274
4.4218238 ,Left ,69,116942900032 ,42,999164089541 ,23,5737470960893
4.4427944 ,Left ,69,2356997033829 ,43,090387527026 ,23,5704092746089
4.4592014 ,Left ,69,3494589844443 ,43,1749147609414 ,23,5596023675304
4.4819547 ,Left ,69,4857308841313 ,43,2108142021068 ,23,5454654326665
4.5030208 ,Left ,69,6180847477636 ,43,2010644019181 ,23,5366211734704
4.5195429 ,Left ,69,7407986030181 ,43,1368846389655 ,23,5429987258476
4.5482626 ,Left ,69,8214498190614 ,43,043999327198 ,23,5566980988301
4.5646197 ,Left ,69,848357498301 ,42,932433114305 ,23,57454379384
4.5858255 ,Left ,69,7916048164644 ,42,803865994008 ,23,6101172625371
4.602062 ,Left ,69,7560841924294 ,42,7814117558871 ,23,6254321551768
4.6244106 ,Left ,69,5828273350616 ,42,8135873031661 ,23,691661630846
4.6456512 ,Left ,69,4407868466652 ,42,9322043613675 ,23,7395819755694
4.6617382 ,Left ,69,3934292316443 ,43,104063225335 ,23,7547427159055
4.684358 ,Left ,69,3957591073069 ,43,1675959529377 ,23,7653732665439
4.7057474 ,Left ,69,3670778195446 ,43,1764597994302 ,23,7642529975059
4.7204572 ,Left ,69,3503603387322 ,43,1713550441553 ,23,7668321709296
4.7354434 ,Left ,69,3679707506251 ,43,1124523536658 ,23,7407137845101
4.7580282 ,Left ,69,5069566784034 ,43,1354241206739 ,23,6853058244929
4.7805829 ,Left ,69,6723436223968 ,43,2350920425524 ,23,6230654238641
4.7955761 ,Left ,69,4237938479591 ,43,0371207550831 ,23,7187351562929
4.8178094 ,Left ,69,4323656502399 ,43,1075149073709 ,23,6703144695716
4.8403849 ,Left ,69,4180853755178 ,42,7576416256316 ,23,6700916250043
4.8556186 ,Left ,69,4086693507584 ,42,663996738283 ,23,6873381300995
4.8778776 ,Left ,69,1505099953588 ,42,5910345741428 ,23,6161647345219
4.9003901 ,Left ,69,0788217015832 ,42,6981457342402 ,23,579534679565
4.9168028 ,Left ,69,4583048538432 ,42,707295518769 ,23,4842372225815
4.9375511 ,Left ,69,6875116308512 ,42,7465704053042 ,23,4618020249867
4.9602415 ,Left ,69,5076417036109 ,42,8474964413632 ,23,5180964573018
4.9764546 ,Left ,69,2247788347538 ,42,9399084828364 ,23,5965325785026
4.9976974 ,Left ,69,1026445496651 ,43,0354762366785 ,23,6361711640387
5.0205631 ,Left ,69,0669039207083 ,43,1150268028608 ,23,6501508380365
5.0367534 ,Left ,69,2140843715804 ,43,3787648850476 ,23,5776968587475
5.0577958 ,Left ,69,2906258797779 ,43,5888245926846 ,23,524977520804
5.0805467 ,Left ,69,141278517698 ,43,5478731755399 ,23,5082073539231
5.0981068 ,Left ,68,9973642301041 ,43,5197011374878 ,23,5246486102277
5.1180286 ,Left ,68,8795330711024 ,43,4434730022467 ,23,5482473740483
5.1402893 ,Left ,68,828789822915 ,43,3568558510423 ,23,5601997929027
5.162947 ,Left ,68,7882389135493 ,43,2800169940507 ,23,5439791736484
5.1779156 ,Left ,68,7170428970602 ,43,2009348952169 ,23,5250387268481
5.2005642 ,Left ,68,6431801234406 ,43,0699846636776 ,23,5509365595966
5.2166654 ,Left ,68,6644494169203 ,42,8776352064187 ,23,5868165726183
5.2375541 ,Left ,68,7954051082612 ,42,7165517590405 ,23,5808559680718
5.2601816 ,Left ,68,7717427782637 ,42,7539393592135 ,23,5654288309697
5.2771002 ,Left ,68,6878731522347 ,42,8751638900472 ,23,5169433037564
5.298391 ,Left ,68,7283108973268 ,42,8954764165576 ,23,474955351927
5.3204306 ,Left ,68,7331079992426 ,42,8836844716687 ,23,4653822315807
5.3365744 ,Left ,68,7179298353527 ,42,8989298597937 ,23,4864941811858
5.3576752 ,Left ,68,7508168381175 ,42,8776050855643 ,23,5255950014162
5.3817875 ,Left ,68,7932910078494 ,42,8011808366075 ,23,563296462002
5.3965303 ,Left ,68,8157239296927 ,42,8598199241374 ,23,5819654897166
5.4176722 ,Left ,68,7733511828057 ,43,0531211429698 ,23,5744554889367
5.4400182 ,Left ,68,7945581097276 ,43,2354691192779 ,23,5800148877319
5.4627682 ,Left ,68,8206756612925 ,43,365954043873 ,23,5940398825022
5.4776733 ,Left ,68,7520389141198 ,43,4695415816067 ,23,6190281741858
5.5004645 ,Left ,68,7030779636859 ,43,5269674899581 ,23,6334322750746
5.5167506 ,Left ,68,6412734040135 ,43,5331994496573 ,23,6637400751627
5.5378795 ,Left ,68,5797246938561 ,43,5110582626102 ,23,6933306010834
5.5603959 ,Left ,68,5536483749909 ,43,4488912166711 ,23,7160511737905
5.5766651 ,Left ,68,5091998055747 ,43,3754924296924 ,23,7823786736992
5.606535 ,Left ,68,4655317176375 ,43,2397471015689 ,23,8983089417636
5.6208987 ,Left ,68,5721362047378 ,43,0330633818982 ,23,9210712491399
5.6441309 ,Left ,68,7001190625548 ,42,954270904992 ,23,8351922338359
5.6668071 ,Left ,68,5104245531437 ,43,0483541654046 ,23,7508779531174
5.680905 ,Left ,68,4708924101045 ,43,1567369560698 ,23,6805801762626
5.7040606 ,Left ,68,6434266596502 ,43,2051727986598 ,23,6097561681573
5.7265941 ,Left ,68,725957065321 ,43,258360666415 ,23,554180224119
5.7411215 ,Left ,68,7621408822075 ,43,3618303894864 ,23,4911858366596
5.7642946 ,Left ,68,783952828122 ,43,4736517134731 ,23,397003137108
5.7866467 ,Left ,68,729188589568 ,43,5934004136431 ,23,2791231578408
5.8075071 ,Left ,68,6722423686625 ,43,7388779382287 ,23,1420834884115
5.8239596 ,Left ,68,6274138444129 ,43,8424233672791 ,23,0008778231076
5.8471329 ,Left ,68,5782300636303 ,43,9111311684358 ,22,884714344862
5.8682727 ,Left ,68,5085883208384 ,43,9438263675895 ,22,8001274402151
5.8846211 ,Left ,68,4528371789447 ,43,9608448338296 ,22,7407202099937
5.9070265 ,Left ,68,3837350631991 ,43,9831197068366 ,22,6844962600643
5.9280717 ,Left ,68,3054416880193 ,43,9895385945742 ,22,6319880704701
5.9442055 ,Left ,68,2782682292326 ,43,816886005222 ,22,5983392900704
5.9666311 ,Left ,68,2904896748361 ,43,4898834300703 ,22,6634029045727
5.9878151 ,Left ,68,4025607905642 ,43,3050282893296 ,22,693898356058
6.0043103 ,Left ,68,4021485294826 ,43,3610756664366 ,22,682255493197
6.0264644 ,Left ,68,578116300126 ,43,4223036579316 ,22,6415047369966
6.0475569 ,Left ,68,769295140894 ,43,3464374631496 ,22,5986033226015
6.0643179 ,Left ,68,7334226134221 ,43,2380226436279 ,22,5946396524737
6.0865912 ,Left ,68,6903470842008 ,43,1535719953594 ,22,6494980718093
6.1076968 ,Left ,68,6670492417439 ,43,1058285648653 ,22,7321447159678
6.1243555 ,Left ,68,6955849389997 ,43,0646526193731 ,22,8224298028328
6.1465742 ,Left ,68,7590526925421 ,42,8364374027889 ,22,9694432937864
6.1676344 ,Left ,68,9751485764487 ,42,6398195965988 ,23,0697506371834
6.1842553 ,Left ,68,9763975413672 ,42,658399033833 ,23,1187404515222
6.2065493 ,Left ,68,8525698865506 ,42,8177944871139 ,23,1572226039932
6.2278593 ,Left ,68,9384491751809 ,42,8982475074976 ,23,1706627349705
6.2434269 ,Left ,69,0514359350211 ,42,839050413676 ,23,1423552657853
6.2666105 ,Left ,69,0239309648617 ,42,8123752294621 ,23,1589153918032
6.2882929 ,Left ,69,0721181197454 ,42,8174311930217 ,23,1901447563897
6.3046246 ,Left ,69,1220006176152 ,42,8044393035554 ,23,242444080159
6.3264059 ,Left ,69,1329008406341 ,42,7799863585162 ,23,271949507062
6.3476125 ,Left ,69,1240129165164 ,42,7492385380908 ,23,3105321114314
6.3640916 ,Left ,69,0897582941775 ,42,7365436339445 ,23,3600336824819
6.3867233 ,Left ,69,0301893981639 ,42,7531154904923 ,23,4054999099507
6.4077569 ,Left ,69,0048319661238 ,42,7756035807174 ,23,4523009920794
6.4242308 ,Left ,69,0085058804985 ,42,7720784607719 ,23,4992207364744
6.4465548 ,Left ,69,032091043009 ,42,7505537062739 ,23,548859366978
6.4676395 ,Left ,69,0509177736465 ,42,7333061137627 ,23,6006628546408
6.484223 ,Left ,69,0617350146516 ,42,7138658625336 ,23,6458269388556
6.5066436 ,Left ,69,0716835371218 ,42,6956795874751 ,23,693338720567
6.5293211 ,Left ,69,0882346531672 ,42,6895757035541 ,23,7324259691011
6.5502252 ,Left ,69,0855127857275 ,42,6988215572321 ,23,7752957245247
6.5583027 ,Left ,69,0793260247853 ,42,7219868474208 ,23,8080746967695
6.5803222 ,Left ,69,0484272759237 ,42,7356244737134 ,23,8387327476176
6.5960949 ,Left ,69,0436306817846 ,42,7476194612416 ,23,85509634626
6.618429 ,Left ,69,0462166754137 ,42,7760521762297 ,23,8701303761348
6.6401553 ,Left ,69,0354266077506 ,42,8087586425275 ,23,8813252867441
6.6560055 ,Left ,69,0168420844247 ,42,8603021134509 ,23,8825698322105
6.6791318 ,Left ,69,0000006760497 ,42,8981568065625 ,23,8806587097763
6.7004791 ,Left ,68,9798171091566 ,42,9274721600263 ,23,8783394554729
6.7161509 ,Left ,68,9495414932804 ,42,9398230152189 ,23,8750206393301
6.7384645 ,Left ,68,9242179779298 ,42,9327389474478 ,23,8596730686309
6.7707788 ,Left ,68,8987339503605 ,42,8900800138183 ,23,8447933806395
6.7760766 ,Left ,68,8792863053831 ,42,8572739690382 ,23,8257163084122
6.7984539 ,Left ,68,8686351641367 ,42,8617943026978 ,23,7773754657153
6.8217616 ,Left ,68,8075024981489 ,42,8047175837876 ,23,7220177929525
6.8429506 ,Left ,69,0142060487611 ,42,7290769154484 ,23,6015193014681
6.8585912 ,Left ,69,1391419229007 ,42,6936743649027 ,23,5862770659696
6.8817265 ,Left ,69,1473802348783 ,42,7753090876033 ,23,4781647791279
6.9028909 ,Left ,69,290140131077 ,42,8915069654438 ,23,2829614418709
6.9186522 ,Left ,69,6420552171009 ,42,8939835073448 ,23,0676145192485
6.9430785 ,Left ,69,8497495192443 ,42,8192025596487 ,22,9457138392328
6.9628535 ,Left ,69,7931836012084 ,42,7237353924171 ,22,9363564561666
6.9787037 ,Left ,69,6065977006664 ,42,5878075316333 ,22,9783060214788
7.0016289 ,Left ,69,3857588017383 ,42,502170139866 ,23,0542734196301
7.0227227 ,Left ,69,2369261783297 ,42,5079308609185 ,23,1308691805781
7.0384491 ,Left ,69,2029985368302 ,42,5936509219517 ,23,1917260646199
7.0618693 ,Left ,69,2242102826374 ,42,6308653784576 ,23,2779672125431
7.0828293 ,Left ,69,3195152803482 ,42,5510806873628 ,23,3105052130083
7.0986357 ,Left ,69,390231894248 ,42,4541685415449 ,23,267063820444
7.121632 ,Left ,69,2093638242675 ,42,5807713138633 ,23,2471199108936
7.1428639 ,Left ,69,1300568567486 ,42,6989175732039 ,23,1822376256457
7.1586596 ,Left ,69,2327922133439 ,42,7162328048161 ,23,1152195604931
7.1815328 ,Left ,69,2510192760964 ,42,6651771681752 ,23,0831267940083
7.2026341 ,Left ,69,1781686963154 ,42,6999397420357 ,23,085549899644
7.2184926 ,Left ,69,1884681517515 ,42,6488564757484 ,23,1198096495356
7.2415669 ,Left ,69,1589348574976 ,42,5578421698646 ,23,1515208474124
7.2642866 ,Left ,69,1723020095208 ,42,6244360212871 ,23,1797224528374
7.2783506 ,Left ,69,0486594378984 ,42,8757284629085 ,23,2195747965052
7.3017477 ,Left ,69,0245200237706 ,43,0936018074085 ,23,2632843071688
7.322687 ,Left ,69,0807981239461 ,43,2438067276054 ,23,3092776110801
7.3386164 ,Left ,69,0531236705545 ,43,3223781577122 ,23,3515377493619
7.3616197 ,Left ,68,9577415824175 ,43,3604331212022 ,23,3937482515529
7.3828129 ,Left ,68,8700347305749 ,43,3542286087544 ,23,4266587065763
7.3984066 ,Left ,68,795646862926 ,43,3720437265289 ,23,4628273312574
7.4216436 ,Left ,68,7343471326226 ,43,3285546995483 ,23,5277008358206
7.4503259 ,Left ,68,7310535583702 ,43,1396595713195 ,23,5359214167169
7.4662143 ,Left ,68,8370224291837 ,42,9860110237228 ,23,4474958655295
7.4895045 ,Left ,68,6786886231374 ,43,0872785650998 ,23,3629280809639
7.5118758 ,Left ,68,583866866419 ,43,2786447272929 ,23,2776632227609
7.5330552 ,Left ,68,7167850247423 ,43,399348018684 ,23,1936723446116
7.5490487 ,Left ,68,812897522642 ,43,4706770668744 ,23,1074944602919
7.5718644 ,Left ,68,7861919281112 ,43,5754897497173 ,23,0568595308537
7.5860286 ,Left ,68,7339370575821 ,43,6681896138985 ,23,0177310130996
7.6092542 ,Left ,68,6727069977298 ,43,7624733362464 ,22,9734021286873
7.6318032 ,Left ,68,6395984365966 ,43,8611191934544 ,22,9269935859373
7.6460708 ,Left ,68,6250440766263 ,43,9393136873296 ,22,8893878049645
7.6690795 ,Left ,68,5799245589805 ,43,9813220605315 ,22,8767301422992
7.6916276 ,Left ,68,5207252511686 ,43,9951902643325 ,22,8764794694319
7.7127994 ,Left ,68,4827975918388 ,43,981590264425 ,22,8791477816594
7.7291659 ,Left ,68,3993546042083 ,43,9661587276522 ,22,8863101669998
7.7518369 ,Left ,68,3477537451822 ,43,9797559282938 ,22,8402443383776
7.7661102 ,Left ,68,3305257645646 ,43,9647303722398 ,22,7776056607892
7.7890826 ,Left ,68,2389552881345 ,43,6637703060483 ,22,7896416612573
7.8118015 ,Left ,68,3483620627044 ,43,4559161116243 ,22,8239891912491
7.8332511 ,Left ,68,3620649290929 ,43,5160330708671 ,22,787069460447
7.8492 ,Left ,68,4270542154927 ,43,6180167489074 ,22,7302519519742
7.8792427 ,Left ,68,6728380285665 ,43,5599718268328 ,22,6749793595947
7.8928072 ,Left ,68,7768004262807 ,43,3641465989442 ,22,6066752884478
7.9092468 ,Left ,68,7113724700013 ,43,191741950477 ,22,5893789290748
7.9318121 ,Left ,68,7366439549817 ,43,1409011705445 ,22,6307779615972
7.9529545 ,Left ,68,7400098825018 ,43,1301295020643 ,22,6837030511538
7.9685725 ,Left ,68,8150512185832 ,43,0160898742843 ,22,7348834920015
7.9918655 ,Left ,68,9371182984709 ,42,7111082208043 ,22,8741323343539
8.0130838 ,Left ,69,0753926590046 ,42,562997665775 ,22,9831284001427
8.0294136 ,Left ,68,9314357443937 ,42,6532668125256 ,23,0829018524227
8.0519716 ,Left ,68,9523813818954 ,42,7593997344402 ,23,1586111002243
8.0729466 ,Left ,69,0820063502573 ,42,7824392434469 ,23,1873147848432
8.0893358 ,Left ,69,1251375748126 ,42,6865769105399 ,23,2040097102818
8.1117267 ,Left ,69,1543820874952 ,42,6424932762687 ,23,2628858017984
8.1328987 ,Left ,69,2254284927911 ,42,5911841272572 ,23,3489692103863
8.1565373 ,Left ,69,270596362862 ,42,5247121150592 ,23,4295342913339
8.1717643 ,Left ,69,2586373022434 ,42,463630729402 ,23,4964293429651
8.1928286 ,Left ,69,227443105521 ,42,4181376705392 ,23,5587813077596
8.2154395 ,Left ,69,183632669234 ,42,4044310902194 ,23,6176861464443
8.2265824 ,Left ,69,1412830018781 ,42,4220934101984 ,23,66595584003
8.2451787 ,Left ,69,1824353476537 ,42,4566601332665 ,23,6892828975394
8.2609803 ,Left ,69,0470394661421 ,42,4489488109285 ,23,7812023663221
8.2843332 ,Left ,68,914723157867 ,42,2917972589604 ,23,8793521671686
8.3056137 ,Left ,68,8501482107645 ,42,3736107879968 ,23,952279099139
8.321108 ,Left ,68,9727860486784 ,42,4313617347577 ,23,9271520377433
8.3442601 ,Left ,68,8282673402841 ,42,421975734029 ,24,0383441755396
8.365168 ,Left ,69,0113057752501 ,42,5111829980744 ,23,9866183295006
8.3810058 ,Left ,68,8537470508827 ,42,5092771781483 ,24,0784124495053
8.4042184 ,Left ,68,8708361055971 ,42,4194218371292 ,24,0654935192837
8.4254374 ,Left ,68,8740374991872 ,42,413577005878 ,24,0251543360537
8.4411892 ,Left ,68,8843645097111 ,42,4194510585025 ,24,0138914359289
8.4636511 ,Left ,68,8825910043043 ,42,4361760896095 ,24,0018147077145
8.4855783 ,Left ,68,8665977548491 ,42,4582753294737 ,23,9817427988093
8.501056 ,Left ,68,873398228357 ,42,4804507303743 ,23,9587080966892
8.5235764 ,Left ,68,9293116923409 ,42,5197687246335 ,23,9037850400666
8.5455408 ,Left ,69,0202162996703 ,42,7288152974148 ,23,8413425024699
8.5608903 ,Left ,69,0748426763756 ,42,9220597879716 ,23,8073539677974
8.5834596 ,Left ,69,0152103220654 ,42,9836781636736 ,23,836536696812
8.6078631 ,Left ,68,9990628623364 ,43,0405404495862 ,23,817589475152
8.6209675 ,Left ,68,9789884367726 ,43,0923471328596 ,23,8117428715073
8.6434844 ,Left ,68,9742344719165 ,43,0988228525234 ,23,8055027594328
8.6670713 ,Left ,68,9741794712653 ,43,067782338619 ,23,8017050506329
8.6811692 ,Left ,68,9396799291632 ,43,0085303811704 ,23,8082230437571
8.7037858 ,Left ,68,8734696844329 ,42,9784444076178 ,23,8253072586382
8.7268111 ,Left ,68,8401335204845 ,43,0036337056602 ,23,8181916501456
8.7410597 ,Left ,68,7989331489283 ,42,8982968013804 ,23,7516257513961
8.7634411 ,Left ,68,8629070676876 ,42,6869977665341 ,23,7140810540706
8.7866383 ,Left ,68,9049917108257 ,42,583992569898 ,23,6638524432517
8.8076986 ,Left ,68,8460317500398 ,42,5922987866177 ,23,522394325895
8.8233731 ,Left ,68,9217563247555 ,42,6625441779021 ,23,3744157776048
8.8465943 ,Left ,69,0566022909526 ,42,6756501902685 ,23,2592033969156
8.8677366 ,Left ,69,03763211083 ,42,7100065524528 ,23,2079765948759
8.8836215 ,Left ,68,9861169546953 ,42,7391096941544 ,23,206553315191
8.907122 ,Left ,68,9548577493171 ,42,7611462643148 ,23,2110583306425
8.9285131 ,Left ,68,9619499273895 ,42,7526166700823 ,23,2102783016
8.9439542 ,Left ,68,9734423245137 ,42,6896373513717 ,23,1985062237674
8.96712 ,Left ,68,9838764026858 ,42,5828234623048 ,23,2130914805245
8.9880337 ,Left ,68,9034476506565 ,42,5205784242833 ,23,2466043309829
9.0035937 ,Left ,68,7383590085024 ,42,4563939909717 ,23,3070597670719
9.0268014 ,Left ,68,6584454048008 ,42,3824941573462 ,23,3419975484717
9.0478084 ,Left ,68,8103589883202 ,42,2858356071023 ,23,3076705545239
9.0635852 ,Left ,68,840633496219 ,42,3502583229349 ,23,2460641402623
9.0869698 ,Left ,68,7646896544751 ,42,4323064466444 ,23,1696918657906
9.1156645 ,Left ,68,784266489594 ,42,4306469462607 ,23,1188567927186
9.1321775 ,Left ,68,8013450740748 ,42,4149936117989 ,23,1124698883473
9.1544212 ,Left ,68,7945211722489 ,42,4158911844597 ,23,1359440910907
9.1751569 ,Left ,68,8027905021344 ,42,372757682276 ,23,1825290435914
9.1918619 ,Left ,68,8587958625448 ,42,3495887190524 ,23,199838893
9.2142338 ,Left ,68,7779811534742 ,42,4822926628833 ,23,2166920893996
9.2355236 ,Left ,68,7530969362784 ,42,6574605585821 ,23,2204876631456
9.2510709 ,Left ,68,8264091713299 ,42,7897481282346 ,23,2397023054746
9.2741415 ,Left ,68,8376179104569 ,42,867851986608 ,23,2829903517068
9.2951024 ,Left ,68,7679505876972 ,42,9757933890916 ,23,3370990150935
9.311612 ,Left ,68,7126024600502 ,43,0634502538523 ,23,3934582314127
9.3342255 ,Left ,68,6486328668051 ,43,1263263744627 ,23,4454958173592
9.3554882 ,Left ,68,5822093996524 ,43,1567185620374 ,23,4935816570872
9.3711003 ,Left ,68,5231317812573 ,43,1430463579858 ,23,5396804434583
9.3942024 ,Left ,68,478652572282 ,43,0975115237482 ,23,5782439472335
9.4167251 ,Left ,68,3911799857265 ,43,1045367089464 ,23,6223416998649
9.4316973 ,Left ,68,3231193377828 ,43,1184404271085 ,23,6578650708902
9.4541402 ,Left ,68,2785074789591 ,42,9948573300806 ,23,7143917423571
9.4766798 ,Left ,68,4317379866939 ,42,9112531720095 ,23,6651836023578
9.4909319 ,Left ,68,4005103343182 ,42,9970987221507 ,23,5785788620066
9.514601 ,Left ,68,3375738489444 ,43,1546715453532 ,23,5042607112114
9.5372212 ,Left ,68,4788909591709 ,43,2397897889652 ,23,4348322590122
9.5583442 ,Left ,68,6240158776276 ,43,2507501475614 ,23,360356035389
9.5747384 ,Left ,68,6196638720516 ,43,3107119444329 ,23,2972840271435
9.597133 ,Left ,68,610993147403 ,43,3810312640386 ,23,2228598005076
9.6179347 ,Left ,68,593400066511 ,43,4650789550239 ,23,1326272838726
9.6344329 ,Left ,68,5580990842613 ,43,5820345837312 ,23,0265212870401
9.6567346 ,Left ,68,544772499883 ,43,708239754202 ,22,9245815167548
9.6620792 ,Left ,68,534015488564 ,43,8236617101744 ,22,805901863326
9.684644 ,Left ,68,4957414510123 ,43,892606950655 ,22,6936593088411
9.7012275 ,Left ,68,454242266614 ,43,9187096720277 ,22,6094481446418
9.7223204 ,Left ,68,383894082028 ,43,9561480586341 ,22,5601015445068
9.7446932 ,Left ,68,3427871679295 ,44,0063786233368 ,22,5305379093617
9.7597358 ,Left ,68,3175843103953 ,44,0378524515225 ,22,5754230747014
9.7820671 ,Left ,68,3004295201777 ,43,8528703512949 ,22,6069506334301
9.8049202 ,Left ,68,3651108216878 ,43,6931042479105 ,22,6235037054351
9.8225919 ,Left ,68,2438071281129 ,43,7619049271807 ,22,5746034579773
9.8422744 ,Left ,68,0428465527945 ,43,8600666495072 ,22,5728118182945
9.8648251 ,Left ,68,2293146423923 ,43,8014572513783 ,22,5606070773621
9.8797636 ,Left ,68,5198208827239 ,43,6165000101365 ,22,4475419517766
9.9022775 ,Left ,68,522527289827 ,43,4243415079605 ,22,3326738587636
9.924857 ,Left ,68,4405167655078 ,43,3054494377956 ,22,3197652504346
9.9396777 ,Left ,68,4114267513342 ,43,2532290606769 ,22,3162465223929
9.962383 ,Left ,68,4489894230614 ,43,2124677108368 ,22,3342674751552
9.9849217 ,Left ,68,555426678819 ,43,0639656332869 ,22,4091694064376
9.9998667 ,Left ,68,7830007303248 ,42,828399138813 ,22,5014201277134
10.0219426 ,Left ,68,8782380787783 ,42,763134641341 ,22,5637798825577
10.0444971 ,Left ,68,7071504403983 ,42,8439307187508 ,22,6352139284506
10.0594657 ,Left ,68,7659103204162 ,42,9322596456594 ,22,6924316502294
10.0822518 ,Left ,68,9532626497357 ,42,9435569984276 ,22,7001003172155
10.1047361 ,Left ,69,0486232854643 ,42,8899098747065 ,22,7163540835497
10.1194027 ,Left ,69,1012578785913 ,42,8637310610469 ,22,7619758236891
10.1420915 ,Left ,69,1597433857498 ,42,8248874703731 ,22,8338827835437
10.1649597 ,Left ,69,1515375520368 ,42,7860600582508 ,22,9268008984201
10.1796436 ,Left ,69,1279555591303 ,42,7733399264243 ,23,017583402582
10.2018436 ,Left ,69,1132561837665 ,42,7737347182 ,23,1091870665493
10.2200762 ,Left ,69,1040512468833 ,42,7887008235572 ,23,2077092789393
10.239551 ,Left ,69,1238976552174 ,42,807983739537 ,23,2900768896803
10.2627312 ,Left ,69,140348791189 ,42,8141035114607 ,23,3644501007592
10.2890483 ,Left ,69,0486232854643 ,42,8899098747065 ,22,7163540835497
10.2995412 ,Left ,69,078963160406 ,42,7753217540285 ,23,5647614116924
10.3221496 ,Left ,68,9646451241658 ,42,7146254285279 ,23,666381494985
10.3433895 ,Left ,69,0969780773601 ,42,7682755589768 ,23,6908350248611
10.3596646 ,Left ,69,0678568282126 ,42,8589446220187 ,23,7418391943889
10.3826842 ,Left ,68,9539221878471 ,42,882894361759 ,23,8123408698854
10.3971523 ,Left ,68,7927195951403 ,42,8918510392385 ,23,8755650125864
10.4194635 ,Left ,68,6149001591074 ,42,8661566521426 ,23,9320208950638
10.4426263 ,Left ,68,4598150815175 ,42,8446787058782 ,23,9701662288611
10.456954 ,Left ,68,3351969706592 ,42,8149524633827 ,23,9875920608547
10.4797941 ,Left ,68,2344340183191 ,42,8292996210673 ,24,005889516871
10.5029106 ,Left ,68,1223582587234 ,42,8866039540208 ,24,033721000866
10.5253409 ,Left ,68,050302618515 ,42,9998526483584 ,24,050824667047
10.5401243 ,Left ,68,0654190965322 ,43,1583255896964 ,24,0488043842867
10.5625186 ,Left ,68,1620244776862 ,43,3176687578017 ,24,0190350206646
10.5854976 ,Left ,68,3014484135702 ,43,4580366787277 ,23,9767737159578
10.6079156 ,Left ,68,1652221067929 ,43,3845571360935 ,24,0218052386468
10.6220431 ,Left ,68,3119315412094 ,43,571232321737 ,23,9580525633372
10.6533651 ,Left ,68,3197034919874 ,43,4781964240438 ,23,9333398466521
10.6594726 ,Left ,68,3482175544309 ,43,5777629468784 ,23,910557065524
10.6822094 ,Left ,68,3984809831323 ,43,4976345393204 ,23,8733649517025
10.7054484 ,Left ,68,3472784160561 ,43,5241961302207 ,23,8879816577235
10.7197264 ,Left ,68,3622021021906 ,43,3995514327369 ,23,8648140546385
10.7423095 ,Left ,68,209666697063 ,43,2946268595324 ,23,9312809914282
10.7654293 ,Left ,68,2092910700889 ,43,2539228493283 ,23,9130250966079
10.7796967 ,Left ,68,2045379941937 ,43,1669588780263 ,23,8981824687472
10.8020311 ,Left ,68,2378705467515 ,43,0072488573597 ,23,9041454271765
10.8256176 ,Left ,68,2792257199636 ,42,9306012084779 ,23,8866409166146
10.839823 ,Left ,68,2654774210722 ,42,9264952737796 ,23,7502207725732
10.86209 ,Left ,68,3241141033232 ,42,9867467858369 ,23,6045517400578
10.8854444 ,Left ,68,309608833419 ,42,919986785465 ,23,5074816161946
10.899377 ,Left ,68,4435320649192 ,42,942399682737 ,23,3848848835892
10.9221639 ,Left ,68,4040511480721 ,43,0927477188298 ,23,3655221690479
10.9454937 ,Left ,68,3597062962253 ,43,1154412307185 ,23,3452315080688
10.9598203 ,Left ,68,3087535633105 ,43,0769022520274 ,23,2863015774438
10.9821648 ,Left ,68,2636694119607 ,43,0351277383325 ,23,2796602601138
11.0053843 ,Left ,68,2343495284598 ,43,0403642633392 ,23,338496524184
11.0278002 ,Left ,68,2084491845679 ,42,8856492756418 ,23,4076946025431
11.0420784 ,Left ,68,3226793902962 ,42,7076644072569 ,23,3987495620375
11.0653031 ,Left ,68,2765841621121 ,42,7383818762305 ,23,3475813789473
11.0793853 ,Left ,68,1737464101322 ,42,8776409938287 ,23,2586473083148
11.1024413 ,Left ,68,2669709303261 ,42,9205537508409 ,23,1682136196658
11.1257875 ,Left ,68,385957421164 ,42,8689413757414 ,23,1489208168723
11.1397157 ,Left ,68,3676575489077 ,42,8613063448781 ,23,1735997710649
11.1622538 ,Left ,68,3524374298554 ,42,8067936036705 ,23,2418063212088
11.1859479 ,Left ,68,3397624037722 ,42,6939426169511 ,23,3068948306709
11.1994739 ,Left ,68,3524809815697 ,42,6906541264498 ,23,3181519173041
11.2222058 ,Left ,68,2670630969648 ,42,8832739009241 ,23,330993356118
11.2450227 ,Left ,68,2672018404099 ,43,0801449911898 ,23,3426835035097
11.2630616 ,Left ,68,3604448262341 ,43,2365956395702 ,23,3559190107881
11.2827891 ,Left ,68,3630196251698 ,43,3251443222078 ,23,3516561700735
11.3052098 ,Left ,68,2842890431349 ,43,4082468967234 ,23,3718369660068
11.3230198 ,Left ,68,249774975896 ,43,4378211449121 ,23,4096289960637
11.3423015 ,Left ,68,2149173177056 ,43,464801671741 ,23,4584942316691
11.3651626 ,Left ,68,1872405684289 ,43,485006810506 ,23,5318579777954
11.3822685 ,Left ,68,1187766775586 ,43,3237069301853 ,23,6130420800902
11.4022603 ,Left ,68,2025188412375 ,43,1557345323168 ,23,5648774606492
11.4244174 ,Left ,68,2329735674985 ,43,1929153587144 ,23,4469517630279
11.4426136 ,Left ,68,0956240962436 ,43,380768245384 ,23,349567464604
11.4621373 ,Left ,68,1530454372163 ,43,4976031401587 ,23,303476617149
11.4847689 ,Left ,68,3020095157844 ,43,5439620579959 ,23,2552156356039
11.5025927 ,Left ,68,3002993097611 ,43,6042740873845 ,23,2221729548992
11.5223148 ,Left ,68,281461086602 ,43,7240177390488 ,23,1867992261244
11.5445821 ,Left ,68,2946193850621 ,43,8414718616537 ,23,1228256730998
11.5627798 ,Left ,68,2937177940277 ,43,9562175140124 ,23,0349495151255
11.5823218 ,Left ,68,2761115491676 ,44,0508904942947 ,22,9345101287412
11.6048735 ,Left ,68,2800851856129 ,44,1019256993962 ,22,8324617856799
11.6223995 ,Left ,68,2505083097204 ,44,1038725624679 ,22,743686649547
11.641874 ,Left ,68,211829607701 ,44,0840995309811 ,22,6632877447906
11.6645625 ,Left ,68,1454945049253 ,44,0950165397692 ,22,5988408874229
11.682705 ,Left ,68,0971470334424 ,44,1259579767293 ,22,5260909783266
11.7022106 ,Left ,68,0979592476941 ,44,0405144675873 ,22,4890427458883
11.7245332 ,Left ,68,1340890728721 ,43,739043556978 ,22,5285533051464
11.742426 ,Left ,68,2087171730728 ,43,5244703832513 ,22,5259028636753
11.7651275 ,Left ,68,0975777166205 ,43,5242996855121 ,22,5272144515344
11.7846909 ,Left ,68,1753578079192 ,43,535247664673 ,22,5245658102525
11.8084716 ,Left ,68,4492404059202 ,43,4497128133231 ,22,4781673343476
11.8249212 ,Left ,68,531980522958 ,43,2811894106285 ,22,4224366219943
11.8445417 ,Left ,68,4780709586097 ,43,1670084359612 ,22,4313343411231
11.8625459 ,Left ,68,4727709010687 ,43,0688911699211 ,22,4636575105316
11.8850122 ,Left ,68,4903385667015 ,42,9852753766755 ,22,5106352581493
11.9051102 ,Left ,68,5406930317978 ,42,818722403946 ,22,5483364693863
11.922978 ,Left ,68,6846265135047 ,42,6077219153845 ,22,6131383313735
11.9439676 ,Left ,68,7860339767775 ,42,5650800542989 ,22,6698059300882
11.9650151 ,Left ,68,6557759462985 ,42,7128003778714 ,22,751266040111
11.9825289 ,Left ,68,6914450138354 ,42,8141954976877 ,22,8209229722133
12.0038685 ,Left ,68,819502602128 ,42,8239618355586 ,22,8741243865321
12.0247073 ,Left ,68,8661347935668 ,42,7876164236285 ,22,9425790527193
12.0433239 ,Left ,68,8704523348819 ,42,7807193147198 ,23,0381469568046
12.0652914 ,Left ,68,905987408387 ,42,757957268473 ,23,1249451701834
12.0845901 ,Left ,68,9549985333838 ,42,7301195348064 ,23,1972907136146
12.1025243 ,Left ,68,9833536955962 ,42,7111264648456 ,23,270461539662
12.1326923 ,Left ,68,9749361214382 ,42,7025805144064 ,23,3467845958352
12.1444968 ,Left ,68,9302330630393 ,42,6942280621894 ,23,426023182859
12.1642838 ,Left ,68,9053444127805 ,42,6893426049446 ,23,4983130400715
12.1819957 ,Left ,68,9061767881894 ,42,6825161147435 ,23,5583171407758
12.2045604 ,Left ,68,9351033674269 ,42,6827867092807 ,23,6026270236009
12.2195376 ,Left ,68,9535361800849 ,42,6932131195926 ,23,6407882684451
12.2419653 ,Left ,68,9624344018391 ,42,7006496469202 ,23,6790097101218
12.26488 ,Left ,68,9962303408545 ,42,6880574895549 ,23,7085784642937
12.2811637 ,Left ,69,0238467356055 ,42,6918027552552 ,23,7301310563808
12.3026819 ,Left ,69,0194656679284 ,42,7062533529492 ,23,7491108323253
12.3253267 ,Left ,68,9836124867228 ,42,7406343603185 ,23,7633771903613
12.3411229 ,Left ,68,9556262582339 ,42,7600134264306 ,23,7652688533453
12.3621035 ,Left ,68,9688287338844 ,42,7864384728905 ,23,7598355168856
12.3847567 ,Left ,68,9696261963547 ,42,823055014892 ,23,7554277449324
12.4011197 ,Left ,68,9631219284312 ,42,8595946192965 ,23,753260213119
12.4222307 ,Left ,68,9599655289046 ,42,8721523653811 ,23,7561971662596
12.4445252 ,Left ,68,9965474390909 ,42,8709505994664 ,23,739732593961
12.4620498 ,Left ,69,0600750975659 ,42,9612707857263 ,23,7347288109151
12.4827446 ,Left ,68,8905338263917 ,42,9347729490498 ,23,7829820751177
12.5049134 ,Left ,68,8735675147503 ,42,8736645419952 ,23,7890534742556
12.5212419 ,Left ,68,9206565558505 ,42,7831850717854 ,23,778519324953
12.5423834 ,Left ,68,9478843769548 ,42,6893047692561 ,23,7699532680772
12.5649356 ,Left ,68,9003338972999 ,42,6004368680281 ,23,7723224772155
12.5811019 ,Left ,68,7927264354393 ,42,5213012577237 ,23,7968334693352
12.6023492 ,Left ,68,6566791678269 ,42,4931918200562 ,23,8211585733882
12.6247513 ,Left ,68,5118007607091 ,42,5176403702743 ,23,8545011853115
12.6412306 ,Left ,68,4091179320374 ,42,6206815386638 ,23,876804959324
12.6621571 ,Left ,68,385004844357 ,42,7595382088646 ,23,8696359421666
12.6849212 ,Left ,68,4702587673529 ,42,876028766503 ,23,8247147434416
12.7011875 ,Left ,68,6176573688506 ,42,8817737358663 ,23,7549356775263
12.7223102 ,Left ,68,7378837405095 ,42,7682378154135 ,23,6920769770242
12.7447064 ,Left ,68,7347433605253 ,42,7964446252242 ,23,7027132356521
12.7611487 ,Left ,68,7885947614511 ,42,7268846759463 ,23,6576355470394
12.7821359 ,Left ,68,8567562278749 ,42,5327990509482 ,23,6483391232679
12.8048974 ,Left ,68,8972034436193 ,42,3469743549606 ,23,6267355536366
12.8272652 ,Left ,68,8790264453651 ,42,328613593135 ,23,4905828978562
12.8423533 ,Left ,68,9048632633658 ,42,4241121137082 ,23,3046877802993
12.864874 ,Left ,69,0203319430622 ,42,4507129009483 ,23,1486324958828
12.8872582 ,Left ,69,1019502112708 ,42,4818765330868 ,23,0805969325017
12.9022887 ,Left ,69,0805842361049 ,42,5187334277139 ,23,0730260655138
12.9249285 ,Left ,69,0309160845033 ,42,5086444069547 ,23,0644482201951
12.9474551 ,Left ,68,9882890135327 ,42,4466015117227 ,23,0419888316887
12.9624044 ,Left ,68,9982096409679 ,42,3509153415853 ,23,035197992205
12.9849444 ,Left ,68,9956278310073 ,42,2635258902142 ,23,0480903750173
13.0011555 ,Left ,68,9204319565235 ,42,1969201998217 ,23,120333696508
13.0222379 ,Left ,68,8563098415111 ,42,0845059047926 ,23,1899200668953
13.0446472 ,Left ,68,9312302314955 ,41,963257590608 ,23,1729091016686
13.0669744 ,Left ,68,9397676368542 ,42,0094337824278 ,23,1194622620164
13.0848462 ,Left ,68,8653702118177 ,42,1358031413303 ,23,0309221321236
13.1061389 ,Left ,68,8595610641654 ,42,1810769616375 ,22,9684716736947
13.1275323 ,Left ,68,9151917841391 ,42,1513232404907 ,22,9522593981863
13.1452566 ,Left ,68,9084636478557 ,42,1761502300555 ,22,9616180815605
13.1667572 ,Left ,68,9024037748384 ,42,1682814481086 ,23,0003469214357
13.1877345 ,Left ,68,8727169932421 ,42,0960729546286 ,23,066075818041
13.2042998 ,Left ,68,9118055174558 ,42,1118893686066 ,23,0823716356926
13.2267644 ,Left ,68,8570662880028 ,42,3091825117786 ,23,0701409135533
13.2479374 ,Left ,68,8524629459516 ,42,5543353982648 ,23,0675726739624
13.2642803 ,Left ,68,9611510307373 ,42,7547305968084 ,23,0670064644951
13.2868244 ,Left ,69,0005125874129 ,42,8968498969389 ,23,05858025319
13.3079132 ,Left ,68,8889159153454 ,43,0275470809771 ,23,06997188357
13.3243329 ,Left ,68,7923484976548 ,43,1105390906888 ,23,0838387822655
13.3468282 ,Left ,68,7173551369174 ,43,1554299118658 ,23,117693207515
13.3679475 ,Left ,68,6532880021399 ,43,1586548392041 ,23,1624614404043
13.38434 ,Left ,68,6290482914296 ,43,1150389497299 ,23,2261513646362
13.4068527 ,Left ,68,6293969504787 ,43,0772462707243 ,23,2675315860113
13.4277806 ,Left ,68,6284680443268 ,43,0735572059213 ,23,2740613038643
13.4440879 ,Left ,68,6211142003399 ,43,0979102200323 ,23,2773385601732
13.4667624 ,Left ,68,6038649288386 ,43,1564425199257 ,23,2798919691946
13.4811236 ,Left ,68,6024868253918 ,43,2229369930362 ,23,2733878520208
13.5041759 ,Left ,68,6221297427151 ,43,2765721865034 ,23,2600478534935
13.5267314 ,Left ,68,6415857002014 ,43,2986753832961 ,23,2452562211012
13.5478804 ,Left ,68,645393608517 ,43,2991628693862 ,23,2362869512547
13.5644448 ,Left ,68,6303408738729 ,43,2803200139613 ,23,2308329467131
13.5868246 ,Left ,68,6048292528429 ,43,2147391229479 ,23,2437344606396
13.6079155 ,Left ,68,5754275647204 ,43,1269703335128 ,23,2828449690116
13.6244093 ,Left ,68,5640383686204 ,43,0377428288914 ,23,3310982834136
13.6467232 ,Left ,68,5403969525911 ,42,9972701528387 ,23,369695410647
13.6678824 ,Left ,68,4896230545875 ,42,95811048332 ,23,4084565530224
13.6903921 ,Left ,68,4176618855961 ,42,7735816577847 ,23,4520140713074
13.7067594 ,Left ,68,5345390449579 ,42,6196251501862 ,23,3933796042979
13.7276899 ,Left ,68,5409541496962 ,42,6793135314281 ,23,2670584369912
13.7517993 ,Left ,68,4852455383463 ,42,8863900085116 ,23,1391730230414
13.7665358 ,Left ,68,6318412620549 ,43,0213637789201 ,23,0487103091137
13.7875791 ,Left ,68,7478703902168 ,43,1015919636532 ,22,9966665250736
13.8035191 ,Left ,68,7216990493654 ,43,1994014941934 ,22,9740143583055
13.8271372 ,Left ,68,6937987555489 ,43,3179950909128 ,22,9220599663334
13.8485763 ,Left ,68,6839298210075 ,43,4236372915112 ,22,8622424455077
13.8639271 ,Left ,68,654934275652 ,43,5332796144874 ,22,7950954865
13.8870522 ,Left ,68,6338808639953 ,43,6450790110673 ,22,7343447871438
13.9083779 ,Left ,68,6506696558741 ,43,7400020774894 ,22,6826934205894
13.9239569 ,Left ,68,6591410997001 ,43,8215099908714 ,22,6349700916047
13.946734 ,Left ,68,6307643081293 ,43,8923178123999 ,22,5896351555063
13.9693659 ,Left ,68,5814406702567 ,43,9719543398256 ,22,5269514079037
13.9907785 ,Left ,68,5526747883422 ,44,0344937524294 ,22,4416363370956
14.010277 ,Left ,68,5494386104525 ,44,0638576258503 ,22,3609800710952
14.027648 ,Left ,68,5711603304963 ,44,0707420154345 ,22,2926666551963
14.0437792 ,Left ,68,4834485890525 ,43,9641207208105 ,22,2528747392342
14.0651292 ,Left ,68,2940025189193 ,43,882361645007 ,22,2702457298435
14.0871146 ,Left ,68,19530651792 ,43,8290012934169 ,22,2863912291833
14.1034631 ,Left ,68,3832497421538 ,43,8797738697902 ,22,1867232919291
14.1259861 ,Left ,68,1466035468143 ,43,6625017628739 ,22,2521134974883
14.147009 ,Left ,68,3090214663925 ,43,7770154700725 ,22,1869807204397
14.1634154 ,Left ,68,0170243447238 ,43,4300174677806 ,22,2759874520074
14.1861672 ,Left ,68,1822877267101 ,43,2843480736657 ,22,2467957512793
14.2070988 ,Left ,68,3177848512312 ,43,2249590472303 ,22,1932498960113
14.2235738 ,Left ,68,2327912033919 ,43,3757436888845 ,22,1487531551404
14.2465214 ,Left ,68,3758391555608 ,43,4926335939974 ,22,1366583850908
14.2673018 ,Left ,68,6623254356604 ,43,4256117561147 ,22,1620895875408
14.2836996 ,Left ,68,7797619064715 ,43,2939428345999 ,22,1977833757526
14.3064894 ,Left ,68,7692463878337 ,43,2190407271833 ,22,2565321661238
14.3276966 ,Left ,68,8923242547042 ,43,1529153537825 ,22,2796597643772
14.350078 ,Left ,68,8020063793507 ,43,0074397591345 ,22,3693951158097
14.373993 ,Left ,68,7690995260701 ,42,8127380523484 ,22,4137055396559
14.387556 ,Left ,68,7334429591582 ,42,8067104283116 ,22,5042047031524
14.403931 ,Left ,68,6992552171218 ,42,8342962175843 ,22,5622325890612
14.4260645 ,Left ,68,6887736834256 ,42,6926273933404 ,22,5890967777139
14.4470056 ,Left ,68,7359944380783 ,42,373409941467 ,22,6586434006924
14.4634625 ,Left ,68,7654160522281 ,42,3359157961321 ,22,6804732731107
14.486612 ,Left ,68,6554586581287 ,42,5364430157157 ,22,6612043297315
14.5077942 ,Left ,68,7513596066156 ,42,6592635932234 ,22,6866924188228
14.5238931 ,Left ,68,8998742184619 ,42,6573526328267 ,22,7295042854418
14.546414 ,Left ,68,915255832789 ,42,6261564845956 ,22,7661704756978
14.5675847 ,Left ,68,9265510584069 ,42,5968950153971 ,22,8280660638139
14.5839648 ,Left ,68,9306458013197 ,42,5785666324467 ,22,9188111683181
14.6060856 ,Left ,68,9388551405324 ,42,5823841066637 ,23,0017466259167
14.6271937 ,Left ,68,9611995689628 ,42,5913870247195 ,23,0729341978754
14.6435078 ,Left ,68,9766769939049 ,42,5968760427275 ,23,1415811990583
14.6661565 ,Left ,68,9695431092136 ,42,6098017622416 ,23,213302840485
14.6870339 ,Left ,68,9631910500013 ,42,6228240382103 ,23,2890793789448
14.7036355 ,Left ,68,9722447986695 ,42,6314240056337 ,23,3619076792905
14.7261517 ,Left ,68,973569912346 ,42,6376982474385 ,23,4279131375487
14.7470331 ,Left ,68,9721934453114 ,42,6476678933526 ,23,4826389706667
14.7637386 ,Left ,68,9923191498671 ,42,6365638441625 ,23,5239809546895
14.7862522 ,Left ,69,0595263105479 ,42,5867205851232 ,23,5586680181376
14.8072535 ,Left ,69,1012440876885 ,42,556448647851 ,23,5976315258019
14.8235344 ,Left ,69,0993417226421 ,42,5509670846092 ,23,6218131883104
14.8461251 ,Left ,69,1102911866865 ,42,5351853366478 ,23,6247475670423
14.8673257 ,Left ,69,1455109652433 ,42,5066358457041 ,23,6233036290131
14.8836262 ,Left ,69,159337806782 ,42,5060027549445 ,23,6294081697935
14.9068696 ,Left ,69,1503214732333 ,42,5201536271746 ,23,6331128814663
14.9292037 ,Left ,69,1410892526843 ,42,5406261877807 ,23,6328100536001
14.9505917 ,Left ,69,1524609365001 ,42,5663418519221 ,23,6342914928679
14.9667288 ,Left ,69,1646252616619 ,42,595196982857 ,23,6430441462085
14.9893654 ,Left ,69,1678704475239 ,42,6541730959853 ,23,662875748802
15.0102128 ,Left ,69,1561772495098 ,42,7246699549925 ,23,6860721692509
15.0268489 ,Left ,69,1677069819886 ,42,7868927229479 ,23,6989013730133
15.0491172 ,Left ,69,1823641560963 ,42,8540254693377 ,23,709555962422
15.0718212 ,Left ,69,1485247996349 ,42,9273413498102 ,23,7262516296111
15.0866301 ,Left ,69,125993260384 ,42,9993701082283 ,23,7267857098611
15.1098333 ,Left ,69,1244759864093 ,43,0643080816187 ,23,7170405135882
15.1320508 ,Left ,69,1360869034348 ,43,0927888880856 ,23,7029860922004
15.1471779 ,Left ,69,1356805852397 ,43,1023109918564 ,23,6903804170671
15.1696527 ,Left ,69,1237431174148 ,43,0989367992084 ,23,6726570411637
15.192263 ,Left ,69,0998545656623 ,43,0817000268557 ,23,6523579345922
15.206542 ,Left ,69,1213450210693 ,43,0327583262125 ,23,6245536198298
15.2295785 ,Left ,69,1379644255201 ,43,0070967378793 ,23,5850763690332
15.2519414 ,Left ,69,1160495477794 ,43,0190224838803 ,23,5416372203736
15.2662649 ,Left ,69,1135523462829 ,43,0488789332848 ,23,4945690755269
15.2895878 ,Left ,69,1578347557482 ,43,0619701298509 ,23,4432864273627
15.3119371 ,Left ,69,194684907425 ,43,065204081839 ,23,3958407687358
15.3262638 ,Left ,69,2074468490053 ,43,0902854461808 ,23,3524533751982
15.3495985 ,Left ,69,190587838695 ,43,1205983706524 ,23,3144779177594
15.371972 ,Left ,69,1881905003516 ,43,1423123865623 ,23,2865970560438
15.3862616 ,Left ,69,2198492875279 ,43,1351576989868 ,23,2611677303094
15.4093223 ,Left ,69,2416454689343 ,43,1115007645193 ,23,247983589922
15.4318717 ,Left ,69,2318168857468 ,43,1046840833103 ,23,2387683297166
15.44615 ,Left ,69,2094079117332 ,43,1187737130924 ,23,2288111357675
15.4690675 ,Left ,69,2132804312019 ,43,1194085408466 ,23,2198019232835
15.492145 ,Left ,69,231967537176 ,43,1070967261716 ,23,2097483820319
15.5063977 ,Left ,69,2217170824104 ,43,0798548686881 ,23,1989736758758
15.5297097 ,Left ,69,1894586220364 ,43,0494280333716 ,23,184045717497
15.5517544 ,Left ,69,1677129174687 ,43,0108371590623 ,23,1681855561916
15.5729803 ,Left ,69,154584632938 ,42,9717396747632 ,23,1655115929608
15.5894697 ,Left ,69,1641141809228 ,42,9422244278404 ,23,1656998575273
15.6119361 ,Left ,69,1654441114074 ,42,9236724137522 ,23,1690000698927
15.6329341 ,Left ,69,1602489991246 ,42,9216507410816 ,23,1710873943429
15.6493477 ,Left ,69,1599592048566 ,42,9180730091696 ,23,1686007375304
15.6719335 ,Left ,69,1463290335112 ,42,9095830472653 ,23,1885331973138
15.6928554 ,Left ,69,1405608402871 ,42,8985866479338 ,23,2127585286888
15.7091631 ,Left ,69,1528894413929 ,42,88319315387 ,23,2362172366823
15.7315545 ,Left ,69,1513850178673 ,42,8684632593687 ,23,260069463065
15.7526576 ,Left ,69,1256761713159 ,42,8602618435426 ,23,286969178764
15.7693471 ,Left ,69,1115604652852 ,42,856419000043 ,23,3050070374074
15.7918162 ,Left ,69,1062961078261 ,42,8437059638033 ,23,315650306322
15.8128639 ,Left ,69,1129662395155 ,42,8188142454671 ,23,3293746700811
15.829263 ,Left ,69,118585022013 ,42,7904936578925 ,23,343175494525
15.8517984 ,Left ,69,1159094026801 ,42,7642178755688 ,23,3547764415809
15.8726614 ,Left ,69,1051131006267 ,42,7467787929802 ,23,3580994812851
15.8891627 ,Left ,69,1086918511177 ,42,7240797776383 ,23,349657619199
15.9116232 ,Left ,69,099139111444 ,42,6991237552952 ,23,3413858843112
15.932822 ,Left ,69,0975977817038 ,42,6842744754233 ,23,3334751787635
15.9492515 ,Left ,69,0970404328375 ,42,6680978701127 ,23,3230585032006
15.9717431 ,Left ,69,0976159107844 ,42,6644300707266 ,23,3047881391065
15.9942856 ,Left ,69,0837485341297 ,42,6561332451481 ,23,2998677393046
16.0092928 ,Left ,69,0741570867807 ,42,6531028496894 ,23,2999968963855
16.0316706 ,Left ,69,0669987413187 ,42,6537457169355 ,23,3071147465609
16.054339 ,Left ,69,0644342608364 ,42,6551201433827 ,23,3093688959373
16.0695354 ,Left ,69,06841454019 ,42,6548560694966 ,23,3072378617494
16.0917733 ,Left ,69,0834417470818 ,42,6596007240105 ,23,2981242364458
16.1143045 ,Left ,69,0153465712339 ,42,6741378036767 ,23,357299326102
16.1294641 ,Left ,69,1384849575488 ,42,7150714305895 ,23,3213160975647
16.1520284 ,Left ,69,16072465845 ,42,8243666887204 ,23,3241258306725
16.1746742 ,Left ,69,146841715894 ,42,945839744232 ,23,3263861860645
16.1887999 ,Left ,69,1370444223348 ,43,0642955243684 ,23,3364488609632
16.2117843 ,Left ,69,1791432874249 ,43,2074724303527 ,23,3241667256735
16.234298 ,Left ,69,29210951152 ,43,3194116770264 ,23,2916188581968
16.2554525 ,Left ,69,448931777855 ,43,35858765283 ,23,2516128197093
16.2719835 ,Left ,69,5719272099865 ,43,2875149032753 ,23,2199993273807
16.2942726 ,Left ,69,6280090281232 ,43,1196071751498 ,23,2105592565562
16.3087801 ,Left ,69,5678551937889 ,42,9483837922101 ,23,2322498940082
16.3317165 ,Left ,69,4247896440272 ,42,8264591191031 ,23,2897319751672
16.3543204 ,Left ,69,2682109768116 ,42,8118346119651 ,23,3585051756242
16.3686226 ,Left ,69,1781219660898 ,42,9103838240482 ,23,4040335646002
16.3918028 ,Left ,69,1328806381323 ,42,9883643048127 ,23,445918502313
16.4141774 ,Left ,69,1158133504541 ,42,9723005192515 ,23,5054829090185
16.4287581 ,Left ,69,1146305958269 ,42,9461381042929 ,23,5372390808438
16.4518699 ,Left ,69,1287493914166 ,42,9436277540682 ,23,5703241672002
16.4744233 ,Left ,69,1295930261455 ,42,9452909280523 ,23,6192288395938
16.4953254 ,Left ,69,1378046126672 ,42,9502656492506 ,23,6769641340534
16.5116718 ,Left ,69,1528603570126 ,42,9663707816243 ,23,7330306932984
16.5343381 ,Left ,69,1906941974876 ,42,9862424260456 ,23,7772665915681
16.5555677 ,Left ,69,228468770127 ,43,0195680059143 ,23,8049758947675
16.5717892 ,Left ,69,2369182687736 ,43,0522309756482 ,23,8284477017187
16.5942148 ,Left ,69,2431495938692 ,43,0695932280563 ,23,8382251674354
16.6156388 ,Left ,69,2460809169304 ,43,0663817958967 ,23,8356896305115
16.6318103 ,Left ,69,2675706902454 ,43,0326741408355 ,23,8089003615361
16.6543139 ,Left ,69,2779867653729 ,42,9998412467563 ,23,7647571980373
16.6756478 ,Left ,69,2986427460602 ,42,9487132363778 ,23,6947077903394
16.6923067 ,Left ,69,3028715275395 ,42,88320341165 ,23,6149480033762
16.7146401 ,Left ,69,3160838948197 ,42,7992037408591 ,23,5238992421113
16.7360531 ,Left ,69,3108608404429 ,42,7141120030002 ,23,4614476708658
16.7521645 ,Left ,69,2674178264818 ,42,6489975449481 ,23,4131418546753
16.7746485 ,Left ,69,2212815364939 ,42,6064276784584 ,23,3774727046363
16.795548 ,Left ,69,1422527875184 ,42,4915504800155 ,23,3887870781242
16.8111277 ,Left ,69,1308541132042 ,42,3742837412225 ,23,453624029033
16.8343522 ,Left ,69,0873827973328 ,42,4205769275965 ,23,4209507109305
16.856026 ,Left ,69,1088629846908 ,42,5998129564707 ,23,326546520748
16.8719575 ,Left ,69,2108534764897 ,42,7060884702941 ,23,2235139432229
16.894922 ,Left ,69,2062010524781 ,42,7578333087261 ,23,180434955069
16.9171637 ,Left ,69,1606017960832 ,42,7896465776822 ,23,1794241728754
16.9316612 ,Left ,69,0992227536977 ,42,7783792324301 ,23,1641397394601
16.9546806 ,Left ,69,0261540151998 ,42,7223953474992 ,23,1590826545136
16.976803 ,Left ,68,9731334133959 ,42,6714265264119 ,23,1701128680113
16.9911074 ,Left ,68,9044166085419 ,42,575717098242 ,23,2370236380305
17.0146411 ,Left ,68,8978459910629 ,42,3220825304845 ,23,2874999760589
17.0369778 ,Left ,69,0778049697765 ,42,0837590820747 ,23,2882397341346
17.0511897 ,Left ,68,9330625050792 ,42,1867857097154 ,23,2561893354232
17.0743417 ,Left ,68,8062489944949 ,42,3174178312532 ,23,159468484254
17.0968309 ,Left ,68,9263326451173 ,42,3371638103888 ,23,0961038943123
17.118103 ,Left ,69,009372281796 ,42,2869197774374 ,23,0704757667925
17.1343868 ,Left ,69,0027785919068 ,42,2542903760107 ,23,0837422590103
17.1570898 ,Left ,69,0257493378858 ,42,0964733881281 ,23,1406844984221
17.1786122 ,Left ,69,0531427900851 ,41,9594456018093 ,23,1895681894326
17.1947888 ,Left ,68,9751731674144 ,42,0725377187618 ,23,2047924384495
17.2172836 ,Left ,68,9435234839529 ,42,3668225676794 ,23,1802705420162
17.238303 ,Left ,69,0722160934605 ,42,5873954519082 ,23,1655307305664
17.2546916 ,Left ,69,1583510450266 ,42,754189288337 ,23,1654599311854
17.2768478 ,Left ,69,0518371616529 ,42,9139782785461 ,23,1770110509381
17.297879 ,Left ,68,887059253499 ,43,0655300369691 ,23,1766890403314
17.3144442 ,Left ,68,7738209671612 ,43,1746082223687 ,23,1708857339836
17.3369208 ,Left ,68,7515775713393 ,43,2457813884863 ,23,149147801892
17.357982 ,Left ,68,7398617778026 ,43,2636128691783 ,23,1681808554245
17.3741822 ,Left ,68,6660971118889 ,43,1561077702602 ,23,2395207050773
17.397096 ,Left ,68,5827177317878 ,42,8972028543576 ,23,3153178994332
17.4175173 ,Left ,68,6804115493506 ,42,7477759451554 ,23,2452540465216
17.4343277 ,Left ,68,6350553820093 ,42,8851224813014 ,23,1122391101449
17.456574 ,Left ,68,6470355724191 ,43,1173203954364 ,22,9783056049092
17.4777822 ,Left ,68,8352235326257 ,43,2242775772029 ,22,8848674784877
17.4944113 ,Left ,68,9316742296784 ,43,288474449467 ,22,797703873892
17.5169153 ,Left ,68,8622176861516 ,43,3972840139084 ,22,7363593391762
17.5384083 ,Left ,68,8206592527493 ,43,5214063550075 ,22,6519239894078
17.5608468 ,Left ,68,8079372764349 ,43,6528717453795 ,22,5262085493924
17.5773802 ,Left ,68,8280719811657 ,43,7798569595274 ,22,3654240074526
17.5996667 ,Left ,68,8129113958167 ,43,8834482551864 ,22,1970257655113
17.620446 ,Left ,68,7317516363962 ,43,9403752324748 ,22,0318940185599
17.6367833 ,Left ,68,6061789932433 ,43,968513168816 ,21,8776782130382
17.6592385 ,Left ,68,474086657194 ,44,0420426938234 ,21,7243301468377
17.6804678 ,Left ,68,4677677250839 ,44,0648941148082 ,21,624546047951
17.6968189 ,Left ,68,4598646253035 ,43,749086420332 ,21,6469656064734
17.7178907 ,Left ,68,5966191228629 ,43,4649007386778 ,21,7580622036735
17.7338593 ,Left ,68,5834560644676 ,43,4916467637537 ,21,8140969872731
17.75714 ,Left ,68,6419618545458 ,43,6210116643435 ,21,825597784752
17.7779419 ,Left ,68,8912488648159 ,43,5612536465398 ,21,8086760955871
17.7937208 ,Left ,68,981768655917 ,43,3741386077255 ,21,8063245955927
17.8167386 ,Left ,68,9373232534784 ,43,2332863916339 ,21,8405127673912
17.8393212 ,Left ,68,9206134304081 ,43,1466605227323 ,21,9092823407584
17.8602388 ,Left ,68,9251750239382 ,43,1023513657001 ,21,9609182771605
17.8763966 ,Left ,69,0126793714131 ,42,9501224596267 ,22,0320918523687
17.8991898 ,Left ,69,1247114104701 ,42,606782743377 ,22,1581785419438
17.9140373 ,Left ,69,2212272143872 ,42,4609258282256 ,22,2303096402799
17.9367054 ,Left ,69,0782528538966 ,42,5618365473119 ,22,2794074559045
17.9592215 ,Left ,69,1202904719001 ,42,6936190740154 ,22,3101899016356
17.9806699 ,Left ,69,2847449223758 ,42,7174834891785 ,22,3313623492207
17.996696 ,Left ,69,3198486468255 ,42,677361945415 ,22,3614607606349
18.0195197 ,Left ,69,2989044631244 ,42,6554146745748 ,22,4229591394616
18.0403126 ,Left ,69,3444839675203 ,42,6354400017818 ,22,5124354480095
18.0568306 ,Left ,69,4098567491787 ,42,6195723828744 ,22,5830890436243
18.0790886 ,Left ,69,4379600035536 ,42,6081461982221 ,22,6435094045009
18.1001086 ,Left ,69,4227486526684 ,42,5980245984961 ,22,7053134064101
18.1166433 ,Left ,69,358098317253 ,42,597816569301 ,22,7832871216866
18.1421945 ,Left ,69,3044388432354 ,42,6206701370677 ,22,8584293835664
18.1461259 ,Left ,69,3171464384993 ,42,638084367331 ,22,9146510730516
18.1684227 ,Left ,69,3449926735871 ,42,6339926369529 ,22,9773006101682
18.191544 ,Left ,69,2505409584596 ,42,5455546009115 ,23,0884039843699
18.2059859 ,Left ,69,3947275072218 ,42,7528675336064 ,23,1042342539183
18.2365386 ,Left ,69,553602819968 ,42,8555059645469 ,23,1033592512687
18.2516488 ,Left ,69,310795833356 ,42,7028723627493 ,23,2721875576552
18.2662203 ,Left ,69,5423856354685 ,42,9030804581769 ,23,2292490370242
18.2885059 ,Left ,69,3222180324424 ,42,7516986251079 ,23,3566129856689
18.3117314 ,Left ,69,4947917956973 ,42,969151222272 ,23,2988934247402
18.3262499 ,Left ,69,4002250215095 ,42,8809058527703 ,23,3329722982772
18.3484908 ,Left ,69,416346111396 ,43,0026304621016 ,23,3441308882041
18.3718811 ,Left ,69,4093180199819 ,43,0746101441485 ,23,3271064760476
18.3860459 ,Left ,69,4101459080747 ,43,1602012526266 ,23,3152812043867
18.4085742 ,Left ,69,4058104327255 ,43,2338877649131 ,23,3069102381783
18.4317888 ,Left ,69,3996197686181 ,43,2962932055591 ,23,308648669903
18.4459781 ,Left ,69,3795697249209 ,43,3496199300804 ,23,3121801226664
18.4687105 ,Left ,69,3714235454897 ,43,2581885756289 ,23,302312549608
18.491771 ,Left ,69,477812981925 ,43,46220514281 ,23,2643608745328
18.5060924 ,Left ,69,3631631703927 ,43,4068260368385 ,23,2980593753266
18.5300263 ,Left ,69,3607203194225 ,43,3440283677516 ,23,3034383729365
18.5516036 ,Left ,69,3459336845354 ,43,2650630996499 ,23,2763131965204
18.566904 ,Left ,69,3604342983284 ,43,1681119946204 ,23,2430973663715
18.589131 ,Left ,69,2893098862634 ,43,0456434339878 ,23,2607213001333
18.6124312 ,Left ,69,1848117058658 ,42,939422456704 ,23,3160421446181
18.6332431 ,Left ,69,1495069993972 ,42,792575722876 ,23,3017747339381
18.6487882 ,Left ,69,1596403050592 ,42,5496234850427 ,23,2732399694128
18.6719618 ,Left ,69,1331023917032 ,42,3682436037589 ,23,2174710090416
18.6932292 ,Left ,69,0031061596118 ,42,3346436466341 ,23,0427991540935
18.7088653 ,Left ,69,0528678431148 ,42,4085699865247 ,22,8153639896513
18.7317413 ,Left ,69,232409574216 ,42,42983930473 ,22,6524373297737
18.7530033 ,Left ,69,2918976805221 ,42,4740057722264 ,22,6160398270603
18.768779 ,Left ,69,3054378940221 ,42,5069849848509 ,22,6304814915167
18.7917569 ,Left ,69,282569539047 ,42,5135402003795 ,22,6455452096376
18.8128659 ,Left ,69,2516922099702 ,42,518376173175 ,22,64237454405
18.8285253 ,Left ,69,2240114452618 ,42,5545979181513 ,22,6377081333311
18.8511301 ,Left ,69,2314480766025 ,42,6152788456928 ,22,6271403052616
18.8728117 ,Left ,69,266737373218 ,42,6616280684531 ,22,6143201890881
18.8885694 ,Left ,69,2522565940311 ,42,6912545722112 ,22,6290117642465
18.9111888 ,Left ,69,2322032487937 ,42,6960808815378 ,22,660008137772
18.9329965 ,Left ,69,1805290974405 ,42,6825986827069 ,22,7038941584994
18.9488656 ,Left ,69,1212721607338 ,42,6586122295407 ,22,7535540147002
18.9711827 ,Left ,69,0653176537111 ,42,6489688013213 ,22,7977778651834
18.9930123 ,Left ,69,050420961742 ,42,6493386251829 ,22,8326585559796
19.0086438 ,Left ,69,06315168824 ,42,6411838901574 ,22,8545210956777
19.0391994 ,Left ,69,0930540309596 ,42,6126816519097 ,22,8794716235691
19.0693831 ,Left ,69,1062963478021 ,42,6018000647993 ,22,9078464791393
19.0760959 ,Left ,69,1009916899182 ,42,5957677803129 ,22,9257257360302
19.099293 ,Left ,69,0957627152109 ,42,598443040844 ,22,9422619019118
19.1219077 ,Left ,69,0720390004874 ,42,5949872102194 ,22,9632345376268
19.1360402 ,Left ,69,0662829983011 ,42,5916123468666 ,22,9744960356404
19.1591495 ,Left ,69,0578760780366 ,42,5772611145989 ,22,973536000383
19.1820521 ,Left ,69,0537023697691 ,42,5584133765273 ,22,9672641083496
19.1965075 ,Left ,69,0522367103633 ,42,5437849637896 ,22,9660417405766
19.2193106 ,Left ,69,0250074443747 ,42,523608893326 ,22,9765106841162
19.2417561 ,Left ,69,0085831795551 ,42,5176061866753 ,22,9855418822785
19.2562725 ,Left ,69,0025205408949 ,42,5208204789205 ,22,9744143925608
19.2791918 ,Left ,68,9969815954917 ,42,5301099748486 ,22,9685443767538
19.3016425 ,Left ,68,9967973752683 ,42,5374811844703 ,22,9510269180238
19.3227573 ,Left ,68,9948413005124 ,42,5088576826118 ,22,9508105397222
19.346839 ,Left ,68,9869831826463 ,42,497458367815 ,22,9638039766839
19.3615988 ,Left ,68,9696902235512 ,42,5043092606378 ,22,9716862710415
19.3828824 ,Left ,68,9276476401022 ,42,5065537495383 ,22,9750469726858
19.3992568 ,Left ,68,9008625486078 ,42,4758675315761 ,22,9984560937807
19.4217037 ,Left ,68,9030946131279 ,42,4351113359235 ,23,0409452239628
19.4431054 ,Left ,68,9165354408337 ,42,4191193475889 ,23,0599527816756
19.4593135 ,Left ,68,8845897665397 ,42,4154769644628 ,23,092369651991
19.4818057 ,Left ,68,8729550286762 ,42,4294507489382 ,23,1167985010186
19.5027082 ,Left ,68,9091433187067 ,42,4609976510606 ,23,1320833787676
19.5190501 ,Left ,68,9133727002233 ,42,4897664730785 ,23,1367134826636
19.5416127 ,Left ,68,8684286828689 ,42,5264178035085 ,23,1542271948894
19.5628876 ,Left ,68,8606813479068 ,42,5534273229791 ,23,1610803170094
19.579348 ,Left ,68,8784645312108 ,42,5703409961043 ,23,1506528796377
19.6017264 ,Left ,68,9030606589126 ,42,5466400424915 ,23,1414092987791
19.6227239 ,Left ,68,9071617998283 ,42,529429226862 ,23,1400607334381
19.6393235 ,Left ,68,8754240400427 ,42,5252367168873 ,23,135845195807
19.6617144 ,Left ,68,850463655508 ,42,5151024358724 ,23,1241103376048
19.682648 ,Left ,68,8505432548944 ,42,4935930233781 ,23,1041722119558
19.6990939 ,Left ,68,8398907559382 ,42,4703543864847 ,23,1001374398933
19.7217535 ,Left ,68,8415431825624 ,42,4731174747687 ,23,0980672962285
19.7433074 ,Left ,68,8135609303849 ,42,4254810106882 ,23,1086941690379
19.7604296 ,Left ,68,8533980124804 ,42,2893184833833 ,23,1283594431787
19.7821001 ,Left ,68,7911611774814 ,42,3304234171174 ,23,1608860604858
19.8105235 ,Left ,68,7901083867715 ,42,4593700701934 ,23,111720856742
19.8189011 ,Left ,68,8671630684369 ,42,5019210209168 ,23,0379148309893
19.8418242 ,Left ,68,8654608813965 ,42,444923446373 ,23,0105701425086
19.8646319 ,Left ,68,816756000563 ,42,3849465277964 ,22,9972913954153
19.8786581 ,Left ,68,7939392632913 ,42,3316566693972 ,23,0069259957231
19.9019361 ,Left ,68,8149510262456 ,42,1849260795213 ,22,9909262657661
19.9244423 ,Left ,68,8380636651603 ,42,0851952315884 ,22,9901963544166
19.9453745 ,Left ,68,788866759385 ,42,1935318443499 ,22,992465424092
19.961756 ,Left ,68,7871966510187 ,42,4089574706531 ,22,999503197978
19.9844614 ,Left ,68,9167825610558 ,42,5172389434002 ,23,0175127418917
20.0054263 ,Left ,68,989512438776 ,42,5923684515258 ,23,0677437277178
20.0219 ,Left ,68,9497618632837 ,42,6424732708744 ,23,1296577803192
20.0442176 ,Left ,68,8944067683669 ,42,6962505768968 ,23,1915523414767
20.0653776 ,Left ,68,9085483112858 ,42,7288316816365 ,23,2139071527663
20.0890814 ,Left ,68,9135912525096 ,42,744988833947 ,23,2264448655377
20.1042202 ,Left ,68,9036978139461 ,42,7414522059405 ,23,253604424798
20.118689 ,Left ,68,8756828408138 ,42,7513095077554 ,23,2749899502706
20.1416948 ,Left ,68,8213293177901 ,42,7839295640212 ,23,2825035464657
20.1642353 ,Left ,68,75625651747 ,42,8491631130397 ,23,2802270615745
20.1792723 ,Left ,68,7104428474191 ,42,9437816044075 ,23,2656755540901
20.2017792 ,Left ,68,6825881943298 ,43,0619138799499 ,23,2421090155756
20.2242162 ,Left ,68,663996229436 ,43,1585897461458 ,23,2193731194308
20.2458253 ,Left ,68,6554321899927 ,43,2237867126804 ,23,2152620167967
20.2623002 ,Left ,68,5989462597611 ,43,2136692072059 ,23,241322448132
20.2847814 ,Left ,68,5418822773598 ,43,2310504163584 ,23,2684755072501
20.3057243 ,Left ,68,485343692977 ,43,0947149006151 ,23,2738668520047
20.3220407 ,Left ,68,5094078035751 ,42,9983706699711 ,23,2676626239999
20.3442329 ,Left ,68,5319151673756 ,42,8672943844355 ,23,2569066346787
20.3654869 ,Left ,68,4858759721692 ,42,6030365222432 ,23,2377252501938
20.3817298 ,Left ,68,518378121931 ,42,3085865942232 ,23,2130223174812
20.4043119 ,Left ,68,3518066241736 ,42,3004801486328 ,23,1848917164393
20.4254074 ,Left ,68,209894142542 ,42,4695973349714 ,23,1567198658921
20.4476887 ,Left ,68,294850568989 ,42,6626602951221 ,23,1309509012807
20.4647091 ,Left ,68,4424977234649 ,42,8621326316847 ,23,0919921741854
20.4870183 ,Left ,68,5559742846035 ,43,043395429808 ,23,0331114744268
20.5082067 ,Left ,68,6704859373191 ,43,1626534583299 ,22,9420182128102
20.5244888 ,Left ,68,7727371628031 ,43,1760045091378 ,22,8475560808658
20.5466626 ,Left ,68,7681578019066 ,43,1710682950752 ,22,7599267122954
20.5609637 ,Left ,68,7307607010684 ,43,3263991203327 ,22,6731839745686
20.5842975 ,Left ,68,700650641986 ,43,4327458645178 ,22,5203818891842
20.6064745 ,Left ,68,6505190992072 ,43,4871435294959 ,22,3843827170669
20.6216824 ,Left ,68,6150919987656 ,43,5096981038964 ,22,2768124671713
20.6447157 ,Left ,68,5890896941402 ,43,5006005408836 ,22,1861792105858
20.6670136 ,Left ,68,5500008862172 ,43,4927722598734 ,22,1069298349006
20.6724712 ,Left ,68,4738987771293 ,43,5401123502733 ,22,020528926005
20.6902994 ,Left ,68,3874771546867 ,43,6132769943116 ,21,9262863785824
20.7101409 ,Left ,68,3711673441572 ,43,5952811298713 ,21,8840945576827
20.7322423 ,Left ,68,4096447428158 ,43,3435514862318 ,21,944054397873
20.750155 ,Left ,68,4898426078028 ,43,1936719802074 ,22,0035821963074
20.7696422 ,Left ,68,3830914906841 ,43,3288071965509 ,22,042354896973
20.7920162 ,Left ,68,5359211015538 ,43,4300363680402 ,22,0253592462447
20.8088262 ,Left ,68,810836147483 ,43,3648272059395 ,21,9668302406588
20.8297565 ,Left ,68,8410355401027 ,43,2028468292198 ,21,9170520580311
20.8523176 ,Left ,68,7721558024293 ,43,0878729299445 ,21,9500918355584
20.8687295 ,Left ,68,7087073114228 ,43,0127429131357 ,22,0311906679355
20.8894762 ,Left ,68,767919255901 ,42,8398775210566 ,22,0754714687406
20.9119493 ,Left ,68,9579677894222 ,42,4866708104472 ,22,1765662934744
20.928693 ,Left ,69,0851534282834 ,42,374829335618 ,22,2408391353968
20.9496133 ,Left ,68,9451011758786 ,42,5191220670793 ,22,2791474014952
20.9723464 ,Left ,68,955585575978 ,42,6472364533707 ,22,3454069847351
20.9886675 ,Left ,69,1056992146225 ,42,6830011984909 ,22,4053697642019
21.0126999 ,Left ,69,1666681893477 ,42,6336682231548 ,22,4347927883059
21.0322762 ,Left ,69,136272554053 ,42,5752671552942 ,22,5300602517927
21.0486931 ,Left ,69,1543628946952 ,42,5387120545775 ,22,6448893324604
21.069341 ,Left ,69,1890654430216 ,42,5011413136764 ,22,7562086817963
21.0922023 ,Left ,69,2339077474662 ,42,4675485542826 ,22,8412431788535
21.1086618 ,Left ,69,2817406164695 ,42,4437307341796 ,22,9199387992208
21.129461 ,Left ,69,2424402388026 ,42,4234663991031 ,23,0087780419389
21.151974 ,Left ,69,1834822053868 ,42,4232245194729 ,23,0910793590567
21.1686423 ,Left ,69,1868713563952 ,42,4333395546724 ,23,1440096928044
21.1894305 ,Left ,69,2338383848515 ,42,4518287020347 ,23,1622580002277
21.212176 ,Left ,69,2724804251206 ,42,458784392043 ,23,177183009169
21.2287169 ,Left ,69,2795823897698 ,42,4617367903235 ,23,2044450701738
21.2505312 ,Left ,69,27169931271 ,42,4733653587971 ,23,2420795545083
21.272985 ,Left ,69,2741915328518 ,42,4920956061753 ,23,2799279901808
21.2872708 ,Left ,69,1936957889029 ,42,5591730653509 ,23,3405867228736
21.3100685 ,Left ,69,0902025396543 ,42,3713829614529 ,23,4120346481634
21.3331227 ,Left ,68,9638489045 ,42,3951542614622 ,23,4886062182024
21.3473561 ,Left ,69,1226878337761 ,42,5093810865761 ,23,415581457684
21.3699841 ,Left ,68,9320843610205 ,42,4716391871362 ,23,5090527554949
21.3929473 ,Left ,69,1525591921175 ,42,6145594869547 ,23,4051505377237
21.4072015 ,Left ,68,9658727600676 ,42,6080729869585 ,23,4798342346901
21.4296919 ,Left ,68,911828922588 ,42,7667511329403 ,23,4717308234402
21.4530559 ,Left ,68,9282940905014 ,42,8788901300179 ,23,4382342942831
21.4674312 ,Left ,68,9204094909865 ,42,9352161060105 ,23,3987622292764
21.4897547 ,Left ,68,9201426880045 ,42,9662292348348 ,23,3624056837609
21.5129891 ,Left ,68,9101575515441 ,42,9663773407752 ,23,3289260302525
21.5272187 ,Left ,68,8977206470723 ,42,9345926645536 ,23,2976794274146
21.5500111 ,Left ,68,9201225521022 ,42,8867142794085 ,23,2560165967289
21.5729957 ,Left ,68,7376157578425 ,42,8055056141831 ,23,2891605863616
21.5874504 ,Left ,68,6474781917811 ,42,5749080194864 ,23,3326623414158
21.6099051 ,Left ,68,5708981253519 ,42,6018681169766 ,23,3465324843721
21.6323466 ,Left ,68,6628684964373 ,42,3559011615969 ,23,3100935059536
21.6472701 ,Left ,68,7306343506365 ,42,220800776928 ,23,3708101449935
21.6700444 ,Left ,68,6155591542895 ,42,3304628937405 ,23,3664162152745
21.693085 ,Left ,68,6250874437076 ,42,5482447477051 ,23,2992693198185
21.715652 ,Left ,68,8658488392176 ,42,6472323469137 ,23,2045204015696
21.7300001 ,Left ,69,0120626834386 ,42,6819357512468 ,23,1679740978254
21.7530975 ,Left ,68,9786122904468 ,42,7105749085504 ,23,1751852762155
21.7755545 ,Left ,68,8456199858006 ,42,685230028501 ,23,1870208072011
21.7897419 ,Left ,68,7247307710738 ,42,6191645601969 ,23,1933359808983
21.8129515 ,Left ,68,6943419505959 ,42,5061882393573 ,23,1833780663052
21.8436896 ,Left ,68,6909670554904 ,42,3665833160254 ,23,1708077868697
21.8498638 ,Left ,68,6456578666518 ,42,2132727752588 ,23,2054659678303
21.8723577 ,Left ,68,5447386316084 ,42,0361616614732 ,23,2761908105485
21.8954909 ,Left ,68,6750920928447 ,41,8703843812639 ,23,2686025491454
21.9099639 ,Left ,68,6301490636763 ,41,9824858581874 ,23,2321491205092
21.9323143 ,Left ,68,5272208476536 ,42,140558684973 ,23,1748607003117
21.9556777 ,Left ,68,6141728698906 ,42,210365785608 ,23,1230838736807
21.9699197 ,Left ,68,706606867221 ,42,1824177478201 ,23,0930608648515
21.992307 ,Left ,68,7054057902165 ,42,1865095290332 ,23,0704893326094
22.0154212 ,Left ,68,7049299751886 ,42,1257082386371 ,23,0672442275404
22.0297297 ,Left ,68,6976628933933 ,42,0305683846441 ,23,0795405990204
22.0523253 ,Left ,68,7488777819115 ,42,0015459940094 ,23,0889610990762
22.0756774 ,Left ,68,6992830029707 ,42,1960458267101 ,23,0900836366884
22.0898995 ,Left ,68,6995651398953 ,42,4646080335407 ,23,0815710639445
22.1123899 ,Left ,68,7814338650839 ,42,6485738056386 ,23,0734121469043
22.1349612 ,Left ,68,7718021259982 ,42,7553380398031 ,23,0740563901668
22.151213 ,Left ,68,6843891896384 ,42,8542868773869 ,23,1150892729017
22.1723123 ,Left ,68,6455276588294 ,42,9152854360188 ,23,1571123151619
22.1948259 ,Left ,68,5838076667519 ,42,9344603064902 ,23,224135451333
22.2099445 ,Left ,68,5273543546196 ,42,7929146327421 ,23,3190355728926
22.2322231 ,Left ,68,5892580044773 ,42,621891808123 ,23,3316091964782
22.2547428 ,Left ,68,6302377333516 ,42,636054469264 ,23,2183642622384
22.2711016 ,Left ,68,4906442277307 ,42,8583701553933 ,23,0963893125745
22.2923175 ,Left ,68,4817057497217 ,43,0618062199975 ,22,9826526644149
22.3149462 ,Left ,68,5787203002209 ,43,1494551574151 ,22,8803800519979
22.3313014 ,Left ,68,6274762830736 ,43,2096783871909 ,22,7600918357564
22.3535939 ,Left ,68,5880151268171 ,43,3305512594977 ,22,6330917472832
22.3748046 ,Left ,68,5197171327335 ,43,4283529118356 ,22,493881152097
22.3910976 ,Left ,68,4509845290321 ,43,5227722800806 ,22,3783133418606
22.4121634 ,Left ,68,3992078387569 ,43,6192572967439 ,22,2788844576993
22.4348985 ,Left ,68,3860799169905 ,43,7223101345804 ,22,1780758959499
22.4525773 ,Left ,68,3241719801694 ,43,8209560281619 ,22,0830425336101
22.4719684 ,Left ,68,2851132382037 ,43,9110597168532 ,22,0095039077602
22.4947651 ,Left ,68,2621910231235 ,43,8847448571723 ,21,978771800099
22.512539 ,Left ,68,2307451990735 ,43,5323730059674 ,22,0429997619185
22.5322663 ,Left ,68,2766481704923 ,43,3432217530101 ,22,0925826504496
22.5544863 ,Left ,68,20046326607 ,43,4316436308726 ,22,111207316877
22.5725909 ,Left ,68,3904714673449 ,43,5172779272344 ,22,0980272299098
22.5921656 ,Left ,68,699253152331 ,43,4017582073094 ,22,0629427913196
22.6145361 ,Left ,68,7712290023827 ,43,1938266646705 ,22,0498021669001
22.6326101 ,Left ,68,725882826113 ,43,032081433222 ,22,0850117265096
22.652274 ,Left ,68,7173670445139 ,42,9058580127862 ,22,1443280378846
22.6776077 ,Left ,68,7127857611211 ,42,8280273994832 ,22,1903442884897
22.6931016 ,Left ,68,776304407045 ,42,6810110647264 ,22,2145074732445
22.7139756 ,Left ,68,8649322161704 ,42,3899626033191 ,22,257946855806
22.734871 ,Left ,68,9588044751672 ,42,2173357459309 ,22,3021579641466
22.7526333 ,Left ,68,798778806316 ,42,2943811384749 ,22,3607162375904
22.7722054 ,Left ,68,7815003181031 ,42,4000649298416 ,22,4063856676032
22.794863 ,Left ,68,9072812813097 ,42,4389767609136 ,22,4227410929221
22.8125579 ,Left ,68,9718458786023 ,42,4246899101002 ,22,4274786534258
22.83231 ,Left ,69,0256501367551 ,42,4202644423321 ,22,4611734037638
22.8548686 ,Left ,69,0870129367425 ,42,4145334722383 ,22,5341208994949
22.8726365 ,Left ,69,163290649186 ,42,4064412061746 ,22,5991103405048
22.896793 ,Left ,69,2223781677884 ,42,4085917434272 ,22,6692098344975
22.9145095 ,Left ,69,2370155565796 ,42,4288320908068 ,22,7429526282137
22.9295239 ,Left ,69,207504290097 ,42,4526399019361 ,22,8267173491525
22.9521296 ,Left ,69,1743651580306 ,42,4615451781207 ,22,9000326567966
22.9744893 ,Left ,69,176962881253 ,42,472466653243 ,22,953981124724
22.9895592 ,Left ,69,2078653459518 ,42,4898463502075 ,22,9934152406526
23.0122959 ,Left ,69,2223783855979 ,42,5257418954987 ,23,0281852588541
23.0351762 ,Left ,69,2161801756583 ,42,5672498209571 ,23,0661761958532
23.0497829 ,Left ,69,2199212760762 ,42,5853268766418 ,23,0996199250139
23.0721575 ,Left ,69,238488538283 ,42,5978255910036 ,23,1273108304381
23.09477 ,Left ,69,2654282479251 ,42,6123273159599 ,23,1414812055621
23.1097829 ,Left ,69,2741236231862 ,42,6438975971397 ,23,1529290492065
23.1322974 ,Left ,69,2506999659762 ,42,6667765574962 ,23,1579936957063
23.1548771 ,Left ,69,2321277482497 ,42,687323228255 ,23,1535028422455
23.1695102 ,Left ,69,2215645619067 ,42,6963434262004 ,23,1476599136006
23.1921194 ,Left ,69,2335928166608 ,42,7111067665687 ,23,1351948739337
23.2145361 ,Left ,69,2455460922216 ,42,7456082126699 ,23,11975610663
23.2297405 ,Left ,69,2447725081178 ,42,7809814388704 ,23,1132879165439
23.2522176 ,Left ,69,2394978063711 ,42,8301546348737 ,23,1125258907018
23.2749455 ,Left ,69,2641821211396 ,42,8753840903919 ,23,1044167172763
23.289743 ,Left ,69,2693708232226 ,42,9069431333767 ,23,0977391820452
23.3120769 ,Left ,69,2696455263994 ,42,9203552615092 ,23,0987094541106
23.3354058 ,Left ,69,2681412472204 ,42,8849909786645 ,23,1007937735801
23.3503793 ,Left ,69,2650836966558 ,42,7674313332342 ,23,055149759791
23.3723302 ,Left ,69,3080759783672 ,42,800103969702 ,23,0587078477492
23.3947743 ,Left ,69,1849018859698 ,42,8186407082595 ,23,1288996081176
23.4177499 ,Left ,69,0461437745466 ,42,8771456404925 ,23,2086198375282
23.4320943 ,Left ,68,9335115823395 ,42,9060619766267 ,23,1960927685873
23.4545929 ,Left ,68,9310171340553 ,42,8784151823368 ,23,1761906250014
23.4695601 ,Left ,68,9262487927301 ,42,9462809171441 ,23,1532801074532
23.4921557 ,Left ,68,9331033935542 ,43,066871495354 ,23,0176692076123
23.5145242 ,Left ,69,1309657170059 ,43,1707575497701 ,22,8481713650204
23.5295358 ,Left ,69,4609765917651 ,43,0496203995182 ,22,6842368358855
23.5518342 ,Left ,69,6242353153935 ,42,8366115046065 ,22,6100757036535
23.5747976 ,Left ,69,4714018625897 ,42,6531833743537 ,22,6263953530402
23.5911954 ,Left ,69,1800209464295 ,42,5732880737545 ,22,6753262888923
23.612167 ,Left ,68,9692876552689 ,42,6259107287485 ,22,7004173402265
23.6348084 ,Left ,68,9665472774947 ,42,6032571189103 ,22,6567792861785
23.6511579 ,Left ,68,9818118349363 ,42,6197933951263 ,22,6789235137162
23.6720842 ,Left ,68,9615046790655 ,42,5251553343652 ,22,7381672654818
23.6945992 ,Left ,69,0624053097248 ,42,361459005291 ,22,7553558152223
23.71095 ,Left ,68,9797459151785 ,42,4489936009155 ,22,724127066072
23.7325853 ,Left ,68,8298465178873 ,42,5393228194166 ,22,66707468526
23.7551534 ,Left ,68,8979341124066 ,42,5545802486122 ,22,6230805355207
23.7715358 ,Left ,68,9571398355319 ,42,531821485561 ,22,6060512419083
23.7956451 ,Left ,68,935258707504 ,42,509083995365 ,22,641846331244
23.8154224 ,Left ,68,9302011606313 ,42,4260507773248 ,22,6857220882925
23.8327522 ,Left ,68,9781017948325 ,42,3259239508271 ,22,700837489532
23.8551482 ,Left ,68,9186130862625 ,42,4165964399178 ,22,7337522605948
23.8749722 ,Left ,68,8834607658351 ,42,6454413514855 ,22,7495773064128
23.8927743 ,Left ,68,9748881028914 ,42,8204850047852 ,22,7647293976259
23.9149279 ,Left ,69,030493411372 ,42,9191086006706 ,22,7901509828438
23.9354343 ,Left ,68,94518250441 ,42,9580076103892 ,22,862194141603
23.9529627 ,Left ,68,7736408866278 ,43,0216517800587 ,22,9558126528286
23.9755097 ,Left ,68,6698414417539 ,43,0983735957429 ,23,0347729427787
23.9951394 ,Left ,68,6607378035181 ,43,1579562890885 ,23,0944086705543
24.0126194 ,Left ,68,6168201626551 ,43,0252947376993 ,23,1355343577487
24.0352564 ,Left ,68,7093751582638 ,42,8680478950992 ,23,086093285706
24.0621207 ,Left ,68,6235283915009 ,42,9879586868949 ,22,9919008248424
24.0725055 ,Left ,68,5293238573626 ,43,2342980465801 ,22,8673723976994
24.0949617 ,Left ,68,6693573040815 ,43,3651374173515 ,22,7498166258386
24.1161902 ,Left ,68,781519420114 ,43,4367621652438 ,22,6126740864057
24.1324865 ,Left ,68,690610520233 ,43,5362417187096 ,22,4991948113156
24.1549484 ,Left ,68,6107419568519 ,43,657985038446 ,22,382814484371
24.1762192 ,Left ,68,5740625469584 ,43,780892951389 ,22,245791025356
24.1924147 ,Left ,68,5604481532496 ,43,8930726876927 ,22,0847252893485
24.214433 ,Left ,68,5287631353107 ,43,9537158950147 ,21,9270060852535
24.236178 ,Left ,68,5020583393976 ,43,9655263771421 ,21,792819565379
24.2576029 ,Left ,68,4209259241875 ,44,037670755824 ,21,6633311218117
24.2742523 ,Left ,68,3233345306457 ,44,0766318474393 ,21,5827854292473
24.295763 ,Left ,68,312591209809 ,43,8721978598102 ,21,58137631965
24.3181762 ,Left ,68,4386976169299 ,43,6254931593761 ,21,6478965454643
24.3343347 ,Left ,68,4656495626745 ,43,5462161498837 ,21,6912215602339
24.3552958 ,Left ,68,4131611467777 ,43,6151437031908 ,21,7151698003873
24.3777385 ,Left ,68,6334123223085 ,43,578402588993 ,21,689319624254
24.39413 ,Left ,68,8461786534298 ,43,3717388908594 ,21,6494116068507
24.4153821 ,Left ,68,8463940003274 ,43,1817191963809 ,21,6478273653149
24.4377332 ,Left ,68,8287954914338 ,43,0308704550618 ,21,7172459750345
24.4543596 ,Left ,68,8044837512377 ,42,9363931024101 ,21,8074167226784
24.4766325 ,Left ,68,8444864909988 ,42,7793818815319 ,21,8852415012017
24.4911266 ,Left ,69,0639150599503 ,42,4818556265791 ,21,9843376528943
24.5143459 ,Left ,69,1695925629373 ,42,44675002286 ,22,057179018253
24.536819 ,Left ,68,9449278409298 ,42,6274316274328 ,22,1142265039397
24.5580135 ,Left ,68,9801185821523 ,42,7306860841325 ,22,1380025899444
24.5743312 ,Left ,69,1747164128996 ,42,6937209255764 ,22,1686153112976
24.5969001 ,Left ,69,2420837028861 ,42,631986201323 ,22,2108265706031
24.6177382 ,Left ,69,2640960001249 ,42,6298969356255 ,22,2711543929969
24.6341354 ,Left ,69,3157197548438 ,42,6135776851918 ,22,3293975139864
24.6567019 ,Left ,69,358560825942 ,42,6033075256305 ,22,3666164092921
24.6777607 ,Left ,69,392099024734 ,42,5963076534342 ,22,3977305493307
24.694145 ,Left ,69,3967610752889 ,42,5812929916421 ,22,4472125213144
24.7166957 ,Left ,69,3717242208656 ,42,5748065844563 ,22,503523306343
24.7311105 ,Left ,69,3584952675592 ,42,5742473582613 ,22,5383469132457
24.7543453 ,Left ,69,3876534186774 ,42,5809336587863 ,22,5498379779525
24.7768688 ,Left ,69,4006838476346 ,42,6013531454126 ,22,5586090617416
24.7911358 ,Left ,69,3997295787935 ,42,6209504030253 ,22,5814200236459
24.8141045 ,Left ,69,4151288330546 ,42,6310963849038 ,22,6145199601909
24.8405601 ,Left ,69,4349946846505 ,42,6478333411592 ,22,656946379326
24.8588866 ,Left ,69,4471244994515 ,42,6669213869243 ,22,6950228661011
24.8739167 ,Left ,69,4544991298819 ,42,7077860469808 ,22,7197244562521
24.8977865 ,Left ,69,378234384332 ,42,6012693058713 ,22,7693661643761
24.9113837 ,Left ,69,4794613546782 ,42,6602839789786 ,22,7371294326011
24.9338826 ,Left ,69,2805871013666 ,42,5169017568114 ,22,8284498267587
24.9550962 ,Left ,69,4417189602007 ,42,7347716049781 ,22,7615783611716
24.9712724 ,Left ,69,2805855741085 ,42,6340411397127 ,22,8051380743818
24.9937057 ,Left ,69,3677579474598 ,42,8502132309541 ,22,742260031744
25.0148603 ,Left ,69,2259333104854 ,42,7503096911398 ,22,7778755548245
25.0311371 ,Left ,69,3226897393344 ,42,8484844745023 ,22,7341625088065
25.0536807 ,Left ,69,299927734897 ,42,8972660839502 ,22,7272690030894
25.0745068 ,Left ,69,2884107121005 ,42,8735087890188 ,22,7207834064147
25.091249 ,Left ,69,2687416141363 ,42,8124540413128 ,22,7501699591176
25.1137902 ,Left ,69,2461091546972 ,42,8082145383792 ,22,798703530986
25.1350615 ,Left ,69,173845861146 ,42,8433879862611 ,22,8417964164586
25.1573891 ,Left ,69,1594314146405 ,42,7379807108017 ,22,8196647461192
25.1736846 ,Left ,69,1577082552343 ,42,7217180354314 ,22,9007702007147
25.1953214 ,Left ,69,0712227303106 ,42,671481590756 ,22,9352103248267
25.217868 ,Left ,68,9292406180522 ,42,6565688028346 ,22,8307036740338
25.2340415 ,Left ,69,0520504465626 ,42,6936545236861 ,22,6515138327745
25.2551894 ,Left ,69,2086697782816 ,42,6713186476756 ,22,5354657667379
25.277514 ,Left ,69,2224325212548 ,42,658452266683 ,22,5037759596916
25.2936864 ,Left ,69,1735081908533 ,42,6401405029782 ,22,5121507739965
25.3152478 ,Left ,69,0994376792889 ,42,610787659171 ,22,5226323641047
25.3377011 ,Left ,69,0336487998606 ,42,5700424887397 ,22,531721497866
25.3538568 ,Left ,68,9847787855416 ,42,5293634115765 ,22,5940144768524
25.3752943 ,Left ,69,0359399391832 ,42,3852689896428 ,22,6400551398044
25.397682 ,Left ,69,1656244499382 ,42,2803381710257 ,22,636792266332
25.4138727 ,Left ,69,0157710515613 ,42,3550427482084 ,22,6235161291254
25.4350064 ,Left ,68,8980271115905 ,42,4308626249943 ,22,5769624374077
25.4569792 ,Left ,68,9889167418823 ,42,4389927624971 ,22,5249283887646
25.4737074 ,Left ,69,0410786951976 ,42,3969370514883 ,22,4913129981332
25.4962131 ,Left ,69,0111086039467 ,42,4005183429896 ,22,4923633664521
25.5173484 ,Left ,68,9851463842255 ,42,3308790679053 ,22,5398899733262
25.5334881 ,Left ,68,9855681076802 ,42,1962397905528 ,22,591358692226
25.5561154 ,Left ,69,0479191867243 ,42,2228134213994 ,22,5994313483388
25.5771662 ,Left ,68,9384546125101 ,42,4420231799149 ,22,626522224694
25.5936875 ,Left ,68,8966546763139 ,42,6720053591309 ,22,6749480131013
25.6161037 ,Left ,69,0012837429043 ,42,8050803595852 ,22,7057903286008
25.6371005 ,Left ,69,0430573037686 ,42,8999820824393 ,22,7285638713723
25.6536223 ,Left ,68,9551460974473 ,42,9957310463449 ,22,7753375900275
25.6823341 ,Left ,68,8452018104636 ,43,0737839591401 ,22,8146318898568
25.6974166 ,Left ,68,8072346941537 ,43,1088056064348 ,22,8280681493992
25.7139829 ,Left ,68,7959739756027 ,43,0816698263135 ,22,8674144355222
25.7367971 ,Left ,68,7051380589024 ,42,8895336985079 ,22,9086322225683
25.7592966 ,Left ,68,69490835124 ,42,7310622367579 ,22,8382588940342
25.7803607 ,Left ,68,6465044428665 ,42,8200451869524 ,22,6982696347412
25.7969292 ,Left ,68,5397705299465 ,43,0588521758524 ,22,57646178575
25.8193897 ,Left ,68,6078535328556 ,43,2390703432457 ,22,4924346273873
25.8406636 ,Left ,68,7392238541354 ,43,3520641966792 ,22,3824556443692
25.8565434 ,Left ,68,7001667381461 ,43,4568137424175 ,22,2772611970634
25.8792406 ,Left ,68,6156829470377 ,43,5635130089799 ,22,1713032048214
25.9003938 ,Left ,68,5587757989904 ,43,6392615298647 ,22,0498454893946
25.9167197 ,Left ,68,5276452327438 ,43,7101933915929 ,21,8973841330445
25.9393025 ,Left ,68,5372244407437 ,43,7438737892773 ,21,7300468292105
25.960263 ,Left ,68,505333938249 ,43,7348348214203 ,21,6133521228031
25.9768057 ,Left ,68,4710180247955 ,43,7558135699316 ,21,5178360587361
25.9993263 ,Left ,68,4601123091896 ,43,6618662531927 ,21,4380595042021
26.0208649 ,Left ,68,3950867118185 ,43,355523898398 ,21,486162865706
26.0372008 ,Left ,68,4896631037558 ,43,240794229279 ,21,4987631772115
26.0597957 ,Left ,68,5196022186456 ,43,3254453998819 ,21,4717652685184
26.0820222 ,Left ,68,6789180752192 ,43,359401963823 ,21,4328215401759
26.1028561 ,Left ,68,8677766474536 ,43,2716714228329 ,21,3995772983296
26.1193385 ,Left ,68,8617675585779 ,43,1149031135306 ,21,4370874342962
26.1418886 ,Left ,68,8089711760422 ,43,0421828908844 ,21,5266829225867
26.1630322 ,Left ,68,8174534145879 ,42,9915441856826 ,21,6050459928377
26.1794766 ,Left ,68,9522205264837 ,42,7337813190678 ,21,6625166001433
26.2019605 ,Left ,69,1574415233461 ,42,4671380891659 ,21,7391183461224
26.2168414 ,Left ,69,0874610630119 ,42,4793755091754 ,21,7916164983208
26.2396962 ,Left ,68,9093380036621 ,42,6489608537701 ,21,8681126613115
26.2605542 ,Left ,68,9924826644952 ,42,7233352349155 ,21,928225799669
26.2763146 ,Left ,69,1533687227416 ,42,6842191683802 ,21,9547082914455
26.2995915 ,Left ,69,1671803352742 ,42,5982267888297 ,22,0046565936179
26.3204904 ,Left ,69,176769505105 ,42,5682058361815 ,22,089223266336
26.3361675 ,Left ,69,2384918263729 ,42,5355711135543 ,22,1720545415207
26.3593675 ,Left ,69,3131934859116 ,42,5179063892253 ,22,2274232092568
26.3816663 ,Left ,69,3591598182129 ,42,5202934092008 ,22,2713261153922
26.3961951 ,Left ,69,3416544152482 ,42,5149332329316 ,22,3413168828134
26.4207146 ,Left ,69,2575536538456 ,42,5260022607654 ,22,4335439634842
26.4327804 ,Left ,69,2349146590243 ,42,5452949292428 ,22,5131008173407
26.4555495 ,Left ,69,2982719187227 ,42,5722707356493 ,22,5656595132747
26.477956 ,Left ,69,3401741353499 ,42,5941960059268 ,22,6152419889368
26.4930714 ,Left ,69,334145841775 ,42,6231728220586 ,22,6783300341695
26.5153697 ,Left ,69,2793784800667 ,42,6695734767119 ,22,7439620481355
26.537872 ,Left ,69,2524192157278 ,42,7062620796741 ,22,7919218690014
26.5603468 ,Left ,69,2733309307847 ,42,7398343256829 ,22,8175680730539
26.5753194 ,Left ,69,287738440178 ,42,7780723628774 ,22,838846761669
26.5981795 ,Left ,69,2431548178766 ,42,8230411811708 ,22,8594504038761
26.6131226 ,Left ,69,2019315656952 ,42,8581597125434 ,22,8699339899809
26.6356641 ,Left ,69,1840308277211 ,42,894282199723 ,22,8687735710349
26.6579985 ,Left ,69,1795486552 ,42,9353114332298 ,22,8581953293724
26.6743337 ,Left ,69,18236408733 ,42,9902629356568 ,22,8532195680563
26.6953103 ,Left ,69,1794342413336 ,43,0507866124072 ,22,8528719205933
26.7177184 ,Left ,69,1807071428766 ,43,0981588964935 ,22,8473998722565
26.7341555 ,Left ,69,1921856984832 ,43,1320116531692 ,22,8337990635016
26.7551096 ,Left ,69,2090831247734 ,43,1410062339244 ,22,8137168967791
26.7778138 ,Left ,69,2316304175053 ,43,1240238484242 ,22,7872569365492
26.7944562 ,Left ,69,2513902272884 ,43,0882832409042 ,22,7681122599803
26.8156078 ,Left ,69,2354512386007 ,43,0380469235447 ,22,7486431697805
26.8379551 ,Left ,69,1965813394506 ,43,0157056782709 ,22,7540988236064
26.8542943 ,Left ,69,1757245119996 ,43,0187305310301 ,22,7156850939898
26.8751528 ,Left ,69,1690353467206 ,42,8700412540124 ,22,6394507873093
26.8977436 ,Left ,69,1946316893287 ,42,6455873372665 ,22,6422461455039
26.9151423 ,Left ,69,2032746443622 ,42,5114304468063 ,22,6270639971554
26.9354814 ,Left ,69,123409479141 ,42,489809473625 ,22,5219323336831
26.9579631 ,Left ,69,2276374120466 ,42,4791384601211 ,22,3310715209832
26.9736583 ,Left ,69,266312123213 ,42,4936430735965 ,22,2683542192001
26.9956023 ,Left ,69,2593509012505 ,42,4277448071366 ,22,2328510770119
27.0179597 ,Left ,69,2865556908827 ,42,377813029285 ,22,2008112857082
27.0403693 ,Left ,69,3586052530801 ,42,3390338629721 ,22,141784925952
27.0552887 ,Left ,69,4699604705976 ,42,294365597002 ,22,0610260862141
27.0777986 ,Left ,69,5386718669514 ,42,2255403347569 ,22,0301365840424
27.094327 ,Left ,69,5469064867244 ,42,0952677552138 ,22,0761865014647
27.1151981 ,Left ,69,5845059252581 ,41,8065884099912 ,22,1107059767884
27.1378106 ,Left ,69,6519652804158 ,41,5057916837012 ,22,1008730376224
27.1605387 ,Left ,69,3551055752018 ,41,4469273964008 ,22,1234189985724
27.1758304 ,Left ,69,0778999860899 ,41,4805268294615 ,22,1328155884064
27.1982634 ,Left ,69,079137374073 ,41,4871980827367 ,22,1238198143612
27.2207803 ,Left ,69,0744984105074 ,41,5425873746437 ,22,1178573063933
27.235732 ,Left ,68,9346519240009 ,41,5431195399081 ,22,1754559820128
27.2582433 ,Left ,68,9758667132136 ,41,4890182051477 ,22,1874894248409
27.2806919 ,Left ,69,0259354112096 ,41,3979571161479 ,22,1881693845933
27.2954128 ,Left ,69,0690320302319 ,41,4459114213446 ,22,1932727467958
27.3187525 ,Left ,68,9957416984916 ,41,7126632619094 ,22,2300315791598
27.3419174 ,Left ,68,9849732653092 ,41,9876022890966 ,22,2796414318962
27.3647393 ,Left ,69,070673743375 ,42,20548971589 ,22,3171835275349
27.3788197 ,Left ,69,0570055606528 ,42,3646216492292 ,22,3607815138299
27.4018345 ,Left ,68,9566051429812 ,42,5038873032118 ,22,4258865353659
27.4243192 ,Left ,68,8488377052123 ,42,588031552113 ,22,4841408931596
27.4385454 ,Left ,68,7422404742399 ,42,6357042361757 ,22,5354767916854
27.4617597 ,Left ,68,6682342653436 ,42,5901384349691 ,22,6259049319325
27.4848671 ,Left ,68,6491766363566 ,42,3440689756575 ,22,6854558592007
27.4990192 ,Left ,68,718444751467 ,42,2455056095783 ,22,5859977028147
27.5221165 ,Left ,68,5307863319877 ,42,3942405932392 ,22,4808210109183
27.5443387 ,Left ,68,4065645181334 ,42,6248808930397 ,22,3872121987919
27.5651708 ,Left ,68,5497153422774 ,42,7431121367056 ,22,2863906039693
27.5820855 ,Left ,68,6929773786569 ,42,8208029401333 ,22,1422346724168
27.6043716 ,Left ,68,6725230108233 ,42,9583621532691 ,22,0097588335857
27.625354 ,Left ,68,6347318474615 ,43,0887396881089 ,21,8844752181767
27.6418257 ,Left ,68,5978365206227 ,43,208025007259 ,21,7525901421239
27.6643462 ,Left ,68,5762956507543 ,43,3167650605088 ,21,6041527553999
27.6854082 ,Left ,68,5542720149376 ,43,3878899419376 ,21,4773248892948
27.7018744 ,Left ,68,5127491356654 ,43,4848812997622 ,21,3735033364058
27.7244048 ,Left ,68,5064779707586 ,43,5485837860047 ,21,2674649813823
27.7454992 ,Left ,68,4859596086547 ,43,3467610683826 ,21,1728993480198
27.7618762 ,Left ,68,5457829868675 ,43,0191118112581 ,21,173440519713
27.7843541 ,Left ,68,5888632940467 ,42,889076522329 ,21,1612674882579
27.8054791 ,Left ,68,5365432118085 ,42,9340980261372 ,21,1955820778451
27.822405 ,Left ,68,8238223695017 ,42,913835459061 ,21,1707963602815
27.8446133 ,Left ,69,1470420541572 ,42,7377375257861 ,21,1078074157669
27.8656566 ,Left ,69,1274880229431 ,42,5583315484871 ,21,1353285762219
27.8818876 ,Left ,69,0624832023064 ,42,499958341262 ,21,2538013102037
27.9044243 ,Left ,69,107963106412 ,42,4685655678308 ,21,3678782499773
27.9254521 ,Left ,69,2453886049923 ,42,2919973048041 ,21,4412641896627
27.9418793 ,Left ,69,4095096097177 ,42,0364527711394 ,21,529468620078
27.9643878 ,Left ,69,4155729557843 ,41,9895180605511 ,21,5666969014126
27.985671 ,Left ,69,2331326209346 ,42,1327766224297 ,21,5909047656086
28.0017782 ,Left ,69,280968749678 ,42,2303367416732 ,21,6074798960607
28.0245094 ,Left ,69,4406292798904 ,42,2531591485742 ,21,6107380285641
28.0456492 ,Left ,69,474701096095 ,42,204003894829 ,21,6103753040143
28.0612294 ,Left ,69,4366498638149 ,42,1795944954926 ,21,6543704059672
28.0840766 ,Left ,69,4531179552313 ,42,1601708944557 ,21,7109793396579
28.1068282 ,Left ,69,5043883578001 ,42,1486707041969 ,21,7531423356606
28.1212003 ,Left ,69,546596166232 ,42,1436716635483 ,21,7750703966422
28.144498 ,Left ,69,5625080897575 ,42,1605116485351 ,21,8128630927375
28.1704561 ,Left ,69,5212148300054 ,42,2033636937253 ,21,8636022992345
28.1739763 ,Left ,69,4661722060786 ,42,2493764990117 ,21,9292248224414
28.1968885 ,Left ,69,4415864695478 ,42,2942284029646 ,21,9979058691249
28.218107 ,Left ,69,4751539017432 ,42,4350075791577 ,22,0809532423595
28.2404086 ,Left ,69,6318328282605 ,42,4856196371265 ,22,0677960182028
28.2571656 ,Left ,69,6271035151333 ,42,4383652275271 ,22,1300132430493
28.2779543 ,Left ,69,4170002153401 ,42,3858452448357 ,22,2820633528298
28.3004907 ,Left ,69,6272344524351 ,42,5664652267529 ,22,2324868668492
28.3160867 ,Left ,69,3710548918573 ,42,4646158944855 ,22,3819011816429
28.3378013 ,Left ,69,598725766902 ,42,6620203873557 ,22,312466085341
28.3537004 ,Left ,69,4161570944347 ,42,5097369803043 ,22,4227950684498
28.3760682 ,Left ,69,4189285088795 ,42,5495869444987 ,22,4268274621033
28.3981046 ,Left ,69,3592923259218 ,42,6141684406955 ,22,4726990567053
28.4137239 ,Left ,69,331783454036 ,42,6702440762397 ,22,4860810565657
28.4361621 ,Left ,69,3263025843483 ,42,7160613639672 ,22,4908101413523
28.4580269 ,Left ,69,3204835389545 ,42,7498691916468 ,22,5011001927731
28.4738168 ,Left ,69,308073742276 ,42,7747757738614 ,22,5179717072779
28.4962658 ,Left ,69,240406025209 ,42,6886303340303 ,22,5227471450644
28.5193258 ,Left ,69,3774778470044 ,42,956110309375 ,22,4705371763606
28.5404598 ,Left ,69,3280267467687 ,43,1256557668721 ,22,4831970347132
28.5574286 ,Left ,69,3553384528763 ,43,204174242735 ,22,4916902743247
28.5792068 ,Left ,69,3419202118399 ,43,2195407734783 ,22,490718059623
28.6002584 ,Left ,69,3083559288463 ,43,226122489366 ,22,5028420592682
28.6163233 ,Left ,69,2942828656987 ,43,1950069093251 ,22,5120211873658
28.6391973 ,Left ,69,3117772367133 ,43,1280564975745 ,22,516008700476
28.660442 ,Left ,69,3269378407326 ,43,0257398492381 ,22,5213504163079
28.6761742 ,Left ,69,2932359706839 ,42,9243878708291 ,22,5498991125434
28.6993696 ,Left ,69,2264457010505 ,42,86971629378 ,22,6158227326771
28.7207575 ,Left ,69,180961555182 ,42,7894647090863 ,22,6811453543946
28.7364779 ,Left ,69,2040928452901 ,42,5840135412339 ,22,7494763960828
28.7594383 ,Left ,69,2522870887346 ,42,4924426449001 ,22,7923488784398
28.7804406 ,Left ,69,1606486583008 ,42,5557938439197 ,22,7159123525152
28.7959374 ,Left ,69,177302424109 ,42,6776865783394 ,22,5808777255439
28.8196765 ,Left ,69,316429801297 ,42,7265195745657 ,22,4570601370481
28.8408705 ,Left ,69,3682444622087 ,42,7470971824677 ,22,4069948826587
28.8567633 ,Left ,69,3511541125743 ,42,732659944909 ,22,4014140579641
28.8797367 ,Left ,69,2737242777411 ,42,6817250923191 ,22,4118612256155
28.9006449 ,Left ,69,1786566580524 ,42,6104431159404 ,22,4183598809494
28.9164579 ,Left ,69,1667114125936 ,42,4936969839814 ,22,41639725513
28.9393673 ,Left ,69,1984774001002 ,42,3736475362213 ,22,3911201929515
28.9603125 ,Left ,69,1663022991384 ,42,245591092017 ,22,3610348074219
28.9764106 ,Left ,69,0910767571099 ,42,0776612743005 ,22,3840955108484
28.9996826 ,Left ,69,0577442677208 ,41,9709815096431 ,22,3817456911424
29.0208498 ,Left ,69,1049786784113 ,41,9436051189895 ,22,334089279698
29.0365917 ,Left ,69,0793680791451 ,42,0826151313608 ,22,2409335186684
29.0672223 ,Left ,69,0950826722444 ,42,1648325067371 ,22,1547721272219
29.0883105 ,Left ,69,2012126600455 ,42,1385591872487 ,22,1194231784007
29.1037691 ,Left ,69,219403550484 ,42,1229438509842 ,22,1173433625239
29.1268758 ,Left ,69,208684516751 ,42,0996309434476 ,22,1882249700251
29.1479142 ,Left ,69,1894471820577 ,42,0127128969614 ,22,2680483475698
29.1637192 ,Left ,69,2215334603847 ,42,0059795033028 ,22,2851895720879
29.1866625 ,Left ,69,1050186811102 ,42,236180792219 ,22,2959913917685
29.2094107 ,Left ,68,9908780752184 ,42,5493267745996 ,22,3169292111923
29.2238099 ,Left ,69,0408956828244 ,42,7572966724239 ,22,3332406194378
29.2468291 ,Left ,69,0802104228348 ,42,8713183036831 ,22,3314102741024
29.2693308 ,Left ,68,9856362638577 ,42,9400451517993 ,22,3582878402496
29.2834672 ,Left ,68,8742059125392 ,42,9476546721973 ,22,3891130387187
29.3065329 ,Left ,68,7851915305396 ,42,9217547766038 ,22,4285923959942
29.3290362 ,Left ,68,7230347309233 ,42,9202718457198 ,22,4540490566557
29.3501487 ,Left ,68,6934708246709 ,42,8635824986691 ,22,498622640787
29.366625 ,Left ,68,7158944623097 ,42,7470557167386 ,22,4599966867775
29.3890779 ,Left ,68,7987336531314 ,42,7422761064426 ,22,3375863740707
29.4100959 ,Left ,68,6665392274341 ,42,9250750734815 ,22,2254159745144
29.4326351 ,Left ,68,6427261682112 ,43,1242109654088 ,22,1438300822846
29.449182 ,Left ,68,8177639031314 ,43,2641255482533 ,22,0461577546148
29.4700883 ,Left ,68,8588818169327 ,43,3624762818236 ,21,9586310905885
29.4864228 ,Left ,68,7945424264882 ,43,4764167995732 ,21,8809016339179
29.5098513 ,Left ,68,7423668999823 ,43,6022355947462 ,21,7910793185301
29.5302951 ,Left ,68,6933231549246 ,43,7187314315036 ,21,6848760256055
29.5466264 ,Left ,68,65538913787 ,43,8092622939812 ,21,5842794175416
29.5689551 ,Left ,68,6387132073484 ,43,8779064213303 ,21,4853769730345
29.5901346 ,Left ,68,5990444896823 ,43,8932466023639 ,21,3825554008617
29.606589 ,Left ,68,5100905362408 ,43,895117415352 ,21,3090068713581
29.6290507 ,Left ,68,4092308094596 ,43,9248316389924 ,21,2683849876729
29.6502076 ,Left ,68,353869593067 ,43,6854817815932 ,21,2104023386283
29.6665123 ,Left ,68,4942200173368 ,43,3618178087372 ,21,2236658129073
29.6890655 ,Left ,68,4646307980351 ,43,3377994702921 ,21,2496965956831
29.7101342 ,Left ,68,4293455036874 ,43,5247048653952 ,21,2613887397905
29.7265304 ,Left ,68,7106113611913 ,43,5280866141416 ,21,2531388022787
29.7490234 ,Left ,69,0031669379042 ,43,3834495457041 ,21,208379805173
29.7704748 ,Left ,69,0570905823396 ,43,158831072503 ,21,1559944256596
29.787275 ,Left ,68,9709942552282 ,42,9782715699258 ,21,1828807849563
29.8098189 ,Left ,68,8983023830425 ,42,8558007920868 ,21,2258435100913
29.8307779 ,Left ,68,9848364072082 ,42,7138735296656 ,21,2662007145884
29.8463217 ,Left ,69,159229265513 ,42,4586360717951 ,21,3537065947381
29.8695697 ,Left ,69,3136138123524 ,42,3290130644306 ,21,3762682494409
29.8908238 ,Left ,69,1992593609282 ,42,4180873649201 ,21,4071824823682
29.9063899 ,Left ,69,1405022422909 ,42,5190607522909 ,21,4471795789386
29.9295554 ,Left ,69,2801995725463 ,42,5581515526188 ,21,4872070766773
29.9519218 ,Left ,69,4333950492436 ,42,5154818089539 ,21,4913086373054
29.9731339 ,Left ,69,4649635630726 ,42,4744379905609 ,21,5408814856186
29.9891821 ,Left ,69,4587398590058 ,42,4508680571529 ,21,6199260834977
30.0116214 ,Left ,69,4839599624557 ,42,4296815087172 ,21,6888671971433
30.0330157 ,Left ,69,5093769019511 ,42,4160207605132 ,21,7343698769002
30.0417673 ,Left ,69,5194731533583 ,42,4084004690279 ,21,7856893875798
30.0629396 ,Left ,69,5206157146689 ,42,3945861932415 ,21,8436888009079
30.0791011 ,Left ,69,5016397049032 ,42,3827672166799 ,21,9046055184848
30.1018908 ,Left ,69,4872172411777 ,42,3934071577703 ,21,9590282839047
30.1243393 ,Left ,69,48267134628 ,42,4254644684888 ,21,996659207041
30.1387108 ,Left ,69,4895361060115 ,42,44898413637 ,22,0273887909585
30.1621271 ,Left ,69,5040115826736 ,42,4516746169733 ,22,0675421311987
30.1831196 ,Left ,69,5181984811607 ,42,453382039287 ,22,1149792901929
30.1986416 ,Left ,69,5247721642754 ,42,4638098041995 ,22,158300028441
30.2214989 ,Left ,69,5260364516149 ,42,4807358428718 ,22,2025822572514
30.2457514 ,Left ,69,5022147419906 ,42,4960586998824 ,22,2406899866956
30.2587035 ,Left ,69,4864482207778 ,42,5075760110614 ,22,272805363118
30.2812574 ,Left ,69,4276067668582 ,42,5504894170843 ,22,3379501103786
30.3029695 ,Left ,69,3987899652859 ,42,6522338856059 ,22,3984811852331
30.3186835 ,Left ,69,3136972919242 ,42,5893396779747 ,22,4272332291191
30.3412676 ,Left ,69,3382480290325 ,42,5368556287628 ,22,4278273454848
30.3630283 ,Left ,69,3817086813782 ,42,4991337341492 ,22,4155374409721
30.3788377 ,Left ,69,3797124266184 ,42,4319208561656 ,22,4149628703053
30.4011348 ,Left ,69,3446208986969 ,42,378605336206 ,22,410617321578
30.425752 ,Left ,69,2364925856571 ,42,3238369285609 ,22,4308930280253
30.4386685 ,Left ,69,0713354732211 ,42,3134182778298 ,22,4632646154322
30.4613327 ,Left ,68,9246421947965 ,42,3689626506759 ,22,4957899736917
30.4842735 ,Left ,68,8434090328152 ,42,4659309092813 ,22,5154575212313
30.4988887 ,Left ,68,8385853105791 ,42,5549530339296 ,22,5352508464838
30.5212125 ,Left ,68,9442391698168 ,42,6094790911872 ,22,5341133579764
30.5443275 ,Left ,69,0689331762687 ,42,580257193986 ,22,5064736680165
30.558625 ,Left ,69,0848567783134 ,42,4438911250453 ,22,5347809213745
30.5811615 ,Left ,69,0183255832463 ,42,2655834149143 ,22,6071707352456
30.6043652 ,Left ,68,9963642454767 ,42,1552872644248 ,22,656784326549
30.6256365 ,Left ,68,9989867251782 ,42,1229019439133 ,22,6230134646114
30.6414817 ,Left ,68,9896220152658 ,42,1615861017957 ,22,4817097454517
30.6644014 ,Left ,69,0933600741007 ,42,2236608243036 ,22,3113533298182
30.6856601 ,Left ,69,2476246358017 ,42,2186595914862 ,22,1828358281914
30.7011844 ,Left ,69,2480949163807 ,42,2273960945913 ,22,1460564940121
30.7246539 ,Left ,69,1917425151421 ,42,2342239521945 ,22,141270257644
30.7453581 ,Left ,69,126253411656 ,42,2034435180379 ,22,1255790335845
30.7611134 ,Left ,69,0896381777729 ,42,1575106709186 ,22,0849781558841
30.7843203 ,Left ,69,0304429028505 ,42,0977304899584 ,22,0910314680394
30.8052508 ,Left ,69,0480780429878 ,41,976322760914 ,22,1520903508567
30.821638 ,Left ,69,2103685065645 ,41,8447002163571 ,22,1521241677696
30.844379 ,Left ,69,1333108152741 ,41,8515224949929 ,22,1687733164077
30.8652342 ,Left ,68,9505186954538 ,41,9730870581169 ,22,1955010640519
30.8810659 ,Left ,68,9901908123042 ,42,0664175917545 ,22,1865653626405
30.9119096 ,Left ,69,1433951318016 ,42,013270831648 ,22,1533376323428
30.9328747 ,Left ,69,1250091272869 ,41,9956445093536 ,22,1398702477143
30.9493787 ,Left ,69,0593086783621 ,42,0098812636812 ,22,1534228129139
30.9718765 ,Left ,69,0761849179515 ,41,9700440204083 ,22,1813876166767
30.9927825 ,Left ,69,0982322637548 ,41,877408136382 ,22,182972626795
31.009397 ,Left ,69,1795194145471 ,41,8817436009231 ,22,1804156285869
31.0323391 ,Left ,69,0736890458965 ,42,0737988166641 ,22,2064670775967
31.0528302 ,Left ,68,9936059302074 ,42,302924123531 ,22,2561090357398
31.0687096 ,Left ,69,0824469037715 ,42,4208930121612 ,22,3024961943659
31.0916056 ,Left ,69,1221503546156 ,42,5103109252488 ,22,3462342949656
31.1143936 ,Left ,69,0343344250293 ,42,5724298047704 ,22,4101004399619
31.12881 ,Left ,68,919851484753 ,42,6135591203067 ,22,4624273778314
31.1520419 ,Left ,68,8282020231217 ,42,6350313220102 ,22,5118046729089
31.1746038 ,Left ,68,7322759125845 ,42,689747152986 ,22,5562207265443
31.1899553 ,Left ,68,6492131218874 ,42,6374955127489 ,22,6013992765753
31.2119962 ,Left ,68,6820324052213 ,42,5446840146163 ,22,5495426095967
31.2344083 ,Left ,68,6766989405465 ,42,5985568710666 ,22,4128533400001
31.2486538 ,Left ,68,4419947966577 ,42,8245774791511 ,22,3045452577687
31.2795651 ,Left ,68,4421157542619 ,43,0438170073326 ,22,1999987515044
31.2943679 ,Left ,68,5959581765938 ,43,1781384027826 ,22,067747144757
31.315675 ,Left ,68,6092182420003 ,43,2886280680237 ,21,9373328482666
31.3319218 ,Left ,68,5869491962579 ,43,3887994953381 ,21,8228040141797
31.3544368 ,Left ,68,5562429467273 ,43,4215073387864 ,21,7542083724355
31.3753913 ,Left ,68,4975489701228 ,43,4577367048057 ,21,736486653684
31.3917452 ,Left ,68,5070752304631 ,43,4960030395499 ,21,729394065431
31.4141306 ,Left ,68,5858795878871 ,43,5167192387238 ,21,7340638526657
31.4355148 ,Left ,68,6473306172976 ,43,5370005688958 ,21,7357477402848
31.45179 ,Left ,68,6249659333933 ,43,5514384782842 ,21,7379729505584
31.4744852 ,Left ,68,5955456007902 ,43,5643766796558 ,21,7369375616014
31.4957298 ,Left ,68,5889269957799 ,43,5452279125831 ,21,7286902487289
31.5119763 ,Left ,68,6258401622047 ,43,5263627253118 ,21,7196969808947
31.5344915 ,Left ,68,6638256072962 ,43,5053181290697 ,21,6964833775949
31.5570585 ,Left ,68,6852316712441 ,43,4685224467816 ,21,6808691093006
31.5746262 ,Left ,68,6968862053992 ,43,422483507105 ,21,6665699595816
31.5895215 ,Left ,68,7153306670452 ,43,368883864682 ,21,6589208409285
31.6012666 ,Left ,68,7315027987027 ,43,3316020698712 ,21,6453170243902
31.6237831 ,Left ,68,7574562281457 ,43,3912281420166 ,21,6502018542981
31.6469851 ,Left ,68,9049394016272 ,43,4781248011614 ,21,5916932670147
31.6613799 ,Left ,68,9309704573442 ,43,4868817942467 ,21,5809333767595
31.6837816 ,Left ,68,7489983457458 ,43,3715927607223 ,21,6677481595734
31.7066775 ,Left ,69,0221091909647 ,43,5682509555203 ,21,5680870889741
31.7212397 ,Left ,68,8233808806456 ,43,4373581848475 ,21,6316232237293
31.7432644 ,Left ,69,0462815420469 ,43,6735961201455 ,21,5087346867116
31.7570193 ,Left ,68,8728968248324 ,43,5686734527712 ,21,5121978362415
31.7796984 ,Left ,68,8438628675426 ,43,5924308277037 ,21,4138961336532
31.8029062 ,Left ,68,7983008603652 ,43,6675232004857 ,21,3482023551123
31.8172519 ,Left ,68,7636725667504 ,43,7654494558828 ,21,2580718150816
31.8397328 ,Left ,68,7420350605144 ,43,8626174584163 ,21,1451665856601
31.8631481 ,Left ,68,6821327595788 ,43,7992017529924 ,21,0987566807042
31.8772897 ,Left ,68,6347112323399 ,43,4457601814435 ,21,158366493335
31.9000809 ,Left ,68,6758624293251 ,43,1201023846843 ,21,1918499719505
31.9229327 ,Left ,68,6953068629511 ,43,32008118884 ,21,1645111674754
31.9372133 ,Left ,68,7303597456228 ,43,3453852718015 ,21,1653023828774
31.9599354 ,Left ,69,0605551196253 ,43,2393105939406 ,21,1119393755037
31.9829483 ,Left ,69,1199802297739 ,43,0245824685284 ,21,0774958369464
31.9975539 ,Left ,69,0325724901816 ,42,9405534871779 ,21,1461424393964
32.0198694 ,Left ,69,0422183770941 ,42,9137802756555 ,21,2271665783119
32.0431411 ,Left ,69,1575283500846 ,42,7800312123203 ,21,2995632251591
32.0656831 ,Left ,69,2618479879733 ,42,4907595975082 ,21,4252968305628
32.0799296 ,Left ,69,3525787614053 ,42,3404587344232 ,21,5112855471706
32.1028853 ,Left ,69,1920708104067 ,42,4473956514232 ,21,5670545453293
32.1170392 ,Left ,69,2234055836598 ,42,6046410196119 ,21,6042664524585
32.1404255 ,Left ,69,4029008031648 ,42,6517222439822 ,21,614918473298
32.163242 ,Left ,69,4714244380356 ,42,618959983979 ,21,6196401940972
32.177399 ,Left ,69,4251428275106 ,42,6125772876522 ,21,6821296740328
32.1996714 ,Left ,69,4416914024163 ,42,6177179142615 ,21,7520654735599
32.2227637 ,Left ,69,4836389018178 ,42,6298142316032 ,21,8118195768247
32.2370056 ,Left ,69,498524017503 ,42,6457482917784 ,21,8562426973749
32.2598346 ,Left ,69,469899866991 ,42,6527071104 ,21,9172816280309
32.2829504 ,Left ,69,415804959313 ,42,6490534426184 ,21,9820277742539
32.2971137 ,Left ,69,3647105653923 ,42,6531163587755 ,22,0475565271306
32.3195564 ,Left ,69,3495235507945 ,42,6689785825691 ,22,0969921330068
32.3429506 ,Left ,69,3603582638859 ,42,6853779501307 ,22,1270744233537
32.3572078 ,Left ,69,3597581614482 ,42,6968286983342 ,22,1723333655719
32.3886711 ,Left ,69,3458698004654 ,42,7177494285036 ,22,2314413658893
32.4030705 ,Left ,69,3520842929272 ,42,7412227833045 ,22,2900975404347
32.4173886 ,Left ,69,3547851408822 ,42,7687654295097 ,22,3346623842396
32.4397055 ,Left ,69,3768431540405 ,42,7913380786144 ,22,3693262247285
32.4622425 ,Left ,69,3929150132057 ,42,8102713575197 ,22,398703282042
32.4774404 ,Left ,69,389843729199 ,42,8201702286309 ,22,4252884959943
32.499654 ,Left ,69,3752429217784 ,42,8429160835031 ,22,4460600701516
32.5221393 ,Left ,69,3697991797378 ,42,867582659879 ,22,4626797586807
32.5374042 ,Left ,69,3461013826318 ,42,8827786316975 ,22,4921956736872
32.5596246 ,Left ,69,333246176873 ,42,8995667180744 ,22,5241932035793
32.5821271 ,Left ,69,3153350209446 ,42,9276862358819 ,22,5592629065502
32.5971694 ,Left ,69,3043286425184 ,42,9654360895339 ,22,5925311530329
32.6198027 ,Left ,69,329562580084 ,42,9848105905102 ,22,6145198106064
32.6421585 ,Left ,69,3547662767124 ,42,9926545892741 ,22,6401562536909
32.6586382 ,Left ,69,3599625260546 ,43,0146531449026 ,22,6716147112773
32.6799136 ,Left ,69,3518449282497 ,43,0356461643292 ,22,6965940444328
32.7022642 ,Left ,69,3564672522061 ,43,054761800632 ,22,7140493084756
32.7185732 ,Left ,69,3776509441218 ,43,0611983208019 ,22,7185875114144
32.73968 ,Left ,69,3930423986944 ,43,0626104564986 ,22,7232789043995
32.762201 ,Left ,69,3899507484136 ,43,0704492015773 ,22,7283749174473
32.7786315 ,Left ,69,3874097426585 ,43,0902470187417 ,22,7277203795987
32.7997075 ,Left ,69,4000751046555 ,43,1049243492045 ,22,7126645976639
32.8221836 ,Left ,69,4220976969036 ,43,1221099216132 ,22,6795080713228
32.8385301 ,Left ,69,4599994285589 ,43,1430288702274 ,22,6348386528783
32.8595551 ,Left ,69,4690566623653 ,43,1460588188499 ,22,5984330517137
32.8820483 ,Left ,69,4636817295244 ,43,1492795288883 ,22,5713268487897
32.8988959 ,Left ,69,4633226575694 ,43,1538125738231 ,22,5372373303594
32.9198168 ,Left ,69,4759402101046 ,43,1388511309348 ,22,5033617839417
32.9421953 ,Left ,69,5053692470494 ,43,1025954369887 ,22,4697600243157
32.9604765 ,Left ,69,5201907632814 ,43,0526995496414 ,22,4329951030151
32.979937 ,Left ,69,5033984762017 ,42,9945630716184 ,22,3888720055947
33.0020181 ,Left ,69,4824827049288 ,42,9268722149857 ,22,3385257057662
33.0202124 ,Left ,69,4487144173777 ,42,8780403226761 ,22,3065207131204
33.03957 ,Left ,69,372058056555 ,42,8506169717992 ,22,3239897888049
33.0621192 ,Left ,69,3049423754685 ,42,7352876090971 ,22,346698302607
33.0799919 ,Left ,69,3959031020647 ,42,5672901922369 ,22,3620351486914
33.0996166 ,Left ,69,4397788367154 ,42,5318111154671 ,22,3587950726737
33.1297819 ,Left ,69,334464951327 ,42,6090361259976 ,22,2746587684996
33.1402496 ,Left ,69,3036063808088 ,42,7508993912435 ,22,1908386152962
33.1596628 ,Left ,69,4183509532496 ,42,8110032403232 ,22,1129762682773
33.1821166 ,Left ,69,479680016641 ,42,8438991188507 ,22,0846640190357
33.2003261 ,Left ,69,4804425532472 ,42,8786253649522 ,22,0814655820352
33.2197412 ,Left ,69,4394646498976 ,42,9110464805415 ,22,0661416782939
33.2422555 ,Left ,69,3918179303857 ,42,9063839530856 ,22,0287392484278
33.2602215 ,Left ,69,3941003193122 ,42,870945468681 ,21,9923292891246
33.2796998 ,Left ,69,4284233152945 ,42,8119072307767 ,21,9664566241701
33.3021906 ,Left ,69,4284246291967 ,42,7224275938079 ,21,9450806551708
33.3200876 ,Left ,69,3666904351738 ,42,6125819290178 ,21,9553087536256
33.3396439 ,Left ,69,2792705056698 ,42,5211843553407 ,21,9848295629232
33.3623752 ,Left ,69,2029393765501 ,42,4410140960001 ,22,0415191893284
33.3802029 ,Left ,69,104071000063 ,42,3062135209642 ,22,1233852859976
33.3995954 ,Left ,69,1132258718344 ,42,1585650448748 ,22,1177125341361
33.4221105 ,Left ,69,2039743438852 ,42,1235546633626 ,22,0462215105827
33.4446454 ,Left ,69,1387476709173 ,42,248346663258 ,21,9702977834578
33.459563 ,Left ,69,1262343579151 ,42,3450084859203 ,21,8958162695005
33.4822144 ,Left ,69,2135827357834 ,42,3146988134958 ,21,8473148933248
33.5003063 ,Left ,69,1989253141312 ,42,2835390209433 ,21,8338569436043
33.5196062 ,Left ,69,160332701793 ,42,257494931707 ,21,881982290728
33.5420904 ,Left ,69,1600745864256 ,42,1830059533012 ,21,9351730702933
33.560014 ,Left ,69,2497163812618 ,42,0811231247738 ,21,9577920651939
33.579842 ,Left ,69,2350015342899 ,42,179620183415 ,21,9757337339862
33.6020013 ,Left ,69,1985416456738 ,42,3893694631257 ,21,9711879292607
33.6199809 ,Left ,69,2606207381212 ,42,579723950056 ,21,951498193391
33.6411996 ,Left ,69,3009069263212 ,42,7050576370939 ,21,9311810669225
33.6621861 ,Left ,69,2380515447139 ,42,8457371293704 ,21,9319415937264
33.6846817 ,Left ,69,105362251933 ,42,9539757668053 ,21,9759951553246
33.7012778 ,Left ,68,9294519678429 ,43,0359179420741 ,22,0504862296273
33.7222291 ,Left ,68,9213364810777 ,42,9956635458185 ,22,0659291225462
