timestamp,event,roll,pitch,yaw
0.0832901 ,Left ,65,6309312184776 ,46,8101922308625 ,10,8801998920831
0.1141236 ,Left ,65,6536751616841 ,46,8093159309714 ,10,9430099408668
0.143696 ,Left ,65,6915260687854 ,46,7983147613553 ,11,0552060987998
0.16592 ,Left ,65,7142692974283 ,46,7928440945484 ,11,1100677346586
0.2033864 ,Left ,65,7531162972138 ,46,7789580836976 ,11,2289022741441
0.2257387 ,Left ,65,7838244540968 ,46,7673961922377 ,11,2842191464604
0.2632932 ,Left ,65,8536119303328 ,46,7723752106041 ,11,4081016330826
0.2857554 ,Left ,65,9009737673692 ,46,7866458488373 ,11,4659740652691
0.3232449 ,Left ,65,9566194585146 ,46,7604390484102 ,11,5682721225536
0.3457105 ,Left ,65,9867224337825 ,46,7398965386893 ,11,6135669222534
0.3835735 ,Left ,66,045802524985 ,46,7183763302701 ,11,6885444394985
0.4135015 ,Left ,66,0765696597761 ,46,7184157026406 ,11,7170070875828
0.4732362 ,Left ,66,1457489424253 ,46,7202037925212 ,11,7634803529508
0.5035834 ,Left ,66,1730921712573 ,46,7338269091426 ,11,7875382301362
0.5334324 ,Left ,66,1914012750336 ,46,7371473761289 ,11,7932165304139
0.5707573 ,Left ,66,2277477186083 ,46,7443570718682 ,11,7852182148269
0.5856705 ,Left ,66,2371780700711 ,46,743659748424 ,11,7833002740186
0.6233634 ,Left ,66,2558538338553 ,46,7441933382771 ,11,7771399637627
0.6464466 ,Left ,66,2639174156248 ,46,7403595471071 ,11,77379184601
0.6838534 ,Left ,66,2844827840136 ,46,7376533970737 ,11,7668985324543
0.7136234 ,Left ,66,2951175816466 ,46,732143305233 ,11,7635336346786
0.751576 ,Left ,66,3018875614872 ,46,7225127407725 ,11,7672623129928
0.7663824 ,Left ,66,3059776622107 ,46,7105115024609 ,11,7772123735714
0.7891608 ,Left ,66,3119423411193 ,46,7018257705872 ,11,7869968426713
0.8260227 ,Left ,66,2948817740055 ,46,6987840446856 ,11,8213189861694
0.8634379 ,Left ,66,2576963892057 ,46,716007529823 ,11,8761554586739
0.8864803 ,Left ,66,2456512283283 ,46,7322807807556 ,11,9085360623561
0.9089868 ,Left ,66,2333764723404 ,46,749763475138 ,11,9447743168121
0.9464944 ,Left ,66,2219706860763 ,46,778572658626 ,12,0328480644382
0.9764002 ,Left ,66,2296404934224 ,46,7809137474851 ,12,0822323087926
1.0359301 ,Left ,66,2789266366225 ,46,7674912308465 ,12,2610794223134
1.0657563 ,Left ,66,3249360224956 ,46,7349163870226 ,12,3809909643233
1.0883282 ,Left ,66,3455762088272 ,46,7167019559273 ,12,4355211346432
1.1259817 ,Left ,66,3881329019738 ,46,6784411244102 ,12,5429153823341
1.1482629 ,Left ,66,4043496821008 ,46,6585457784871 ,12,6028388904072
1.1860733 ,Left ,66,4334443172219 ,46,6214361175319 ,12,7134735578467
1.2082002 ,Left ,66,4368226070824 ,46,6052286759778 ,12,7662559464989
1.253556 ,Left ,66,4411350182218 ,46,576116244032 ,12,8594764370942
1.2756094 ,Left ,66,4352955480783 ,46,5647989698337 ,12,903077986992
1.3056028 ,Left ,66,4220273739434 ,46,5546694279454 ,12,9781473587431
1.3282963 ,Left ,66,4127877503691 ,46,5506365687813 ,13,0121047656088
1.3660949 ,Left ,66,3795150010882 ,46,5422698687832 ,13,0695844856697
1.388702 ,Left ,66,3676088590158 ,46,5341572389211 ,13,0919118467935
1.4259063 ,Left ,66,3341835424455 ,46,5206379604192 ,13,1263118635037
1.4482668 ,Left ,66,3155013322009 ,46,5156189746615 ,13,1343613419365
1.4932519 ,Left ,66,2816643612139 ,46,5004266109345 ,13,1312949166594
1.5233198 ,Left ,66,2656374589839 ,46,4896570330429 ,13,1184786568805
1.5533208 ,Left ,66,2189904461991 ,46,4667037028538 ,13,0834884671113
1.5685655 ,Left ,66,2066942110755 ,46,4533398608985 ,13,0629846441831
1.6057783 ,Left ,66,1740899284738 ,46,4246516974507 ,13,0135415397714
1.6282262 ,Left ,66,1675759434149 ,46,4109465914302 ,12,9860361933847
1.6657333 ,Left ,66,1838813006513 ,46,384663407462 ,12,9569734964525
1.6885454 ,Left ,66,1780589276807 ,46,3703689812135 ,12,9538020772443
1.7259675 ,Left ,66,1629047768555 ,46,3561431676998 ,12,9537356064549
1.749131 ,Left ,66,1604518066829 ,46,3569304432471 ,12,9550002730242
1.7859598 ,Left ,66,1356624756483 ,46,3286312689437 ,12,9581503076181
1.8088843 ,Left ,66,1145716852864 ,46,3123076420831 ,12,9638009713049
1.8536205 ,Left ,66,0855606851488 ,46,2795769625305 ,12,9707587812126
1.8761207 ,Left ,66,0714496056494 ,46,2562106035961 ,12,9700268192116
1.9285927 ,Left ,65,9638064812799 ,46,1959948224614 ,12,9670625530827
1.9655947 ,Left ,65,8454760417777 ,46,1736333929122 ,12,920316218558
1.9885242 ,Left ,65,7737264969115 ,46,124796665309 ,12,8943716835411
2.0258238 ,Left ,65,730370876701 ,46,1275175157782 ,12,9019534415048
2.0485563 ,Left ,65,7764401807129 ,46,2552799683965 ,12,9023043880531
2.0859646 ,Left ,65,7157737581345 ,46,4449204892875 ,12,8403376796679
2.1085727 ,Left ,65,710666454111 ,46,4842369947742 ,12,8164413094622
2.1461979 ,Left ,65,6633559786647 ,46,5097591787113 ,12,7733606667269
2.1682914 ,Left ,65,6272563771725 ,46,5087669687272 ,12,7479820113352
2.2058485 ,Left ,65,6086859524022 ,46,4615989644103 ,12,6975183291345
2.2282681 ,Left ,65,5891759435133 ,46,4268413544604 ,12,6791971613383
2.2659332 ,Left ,65,5481183486434 ,46,3406825511082 ,12,642160103656
2.2885473 ,Left ,65,5127931717942 ,46,2845611836081 ,12,6170646171198
2.333446 ,Left ,65,4149891023294 ,46,1204250286275 ,12,5584865059578
2.3557412 ,Left ,65,3747675674714 ,46,1045512918798 ,12,5628399829248
2.4007043 ,Left ,65,4581909474183 ,46,2382976057267 ,12,5214178422029
2.4234269 ,Left ,65,4330694667023 ,46,2672822361896 ,12,4865377310634
2.4458939 ,Left ,65,353558000719 ,46,3003552449317 ,12,4304415127346
2.4685566 ,Left ,65,3217592453598 ,46,3189199430291 ,12,3901342061341
2.5058689 ,Left ,65,2349616577666 ,46,2660897512019 ,12,3430196517945
2.5289228 ,Left ,65,2528930122273 ,46,2612177873711 ,12,3657904568472
2.5661564 ,Left ,65,2835105410083 ,46,5096339231361 ,12,4176626034911
2.5957872 ,Left ,65,2909420836322 ,46,6035733621313 ,12,439234725145
2.6334669 ,Left ,65,2709844231896 ,46,6563464166599 ,12,4829040748525
2.6715626 ,Left ,65,1995387395788 ,46,6342346149285 ,12,5277219295461
2.7014738 ,Left ,65,0898733549035 ,46,6026121637243 ,12,4937507581361
2.723942 ,Left ,65,0183902684637 ,46,5706472512793 ,12,4592996458767
2.7384715 ,Left ,64,9267489052923 ,46,5181109583764 ,12,4152751927972
2.7607848 ,Left ,64,8455095143562 ,46,4506723321974 ,12,407756382504
2.7835304 ,Left ,64,805875206223 ,46,3486610398767 ,12,4080470652562
2.8057447 ,Left ,64,8638288170574 ,46,3786424567662 ,12,4140065146476
2.8207716 ,Left ,64,9038200932202 ,46,526550794573 ,12,3974946292043
2.8442139 ,Left ,64,9388903238427 ,46,6490744817174 ,12,3770865825992
2.8661792 ,Left ,64,9779505038676 ,46,7150634054435 ,12,3594912712752
2.8808401 ,Left ,65,0221898104099 ,46,7506469869928 ,12,3386928599748
2.9108581 ,Left ,65,0016470874704 ,46,7658254352927 ,12,3187247242766
2.9407572 ,Left ,64,9969855012477 ,46,7580753025085 ,12,3028096276978
2.9557363 ,Left ,64,9863690677847 ,46,7534401061237 ,12,2805885348019
2.9707409 ,Left ,64,9807034505116 ,46,7407037435476 ,12,2540414393789
2.9864855 ,Left ,64,9836785984739 ,46,7289134677011 ,12,2253734701321
3.0016249 ,Left ,64,9921748897121 ,46,7265250079339 ,12,2016517401443
3.0234407 ,Left ,64,9998049781093 ,46,7271840888169 ,12,1814875683684
3.0382589 ,Left ,65,0039867190521 ,46,7301976669756 ,12,1636905212335
3.0607191 ,Left ,65,0034813848856 ,46,7337955387325 ,12,149290823078
3.0835004 ,Left ,65,005707186615 ,46,7386162567959 ,12,1297785703269
3.10647 ,Left ,65,0030390576509 ,46,7449095490545 ,12,1027161731382
3.1286937 ,Left ,64,9948274354954 ,46,745892541701 ,12,0695076653792
3.150742 ,Left ,64,9823376503647 ,46,7433045445869 ,12,0291116104553
3.1885454 ,Left ,64,9461944004643 ,46,7324816035856 ,11,9455419067353
3.2107979 ,Left ,64,9167968516519 ,46,7361527651342 ,11,8974453911337
3.2332948 ,Left ,64,8918015255736 ,46,7404518335669 ,11,8498396091671
3.2485574 ,Left ,64,8813769026689 ,46,7375211391698 ,11,7987487329341
3.2632708 ,Left ,64,8711770213524 ,46,7359962810779 ,11,7498965527793
3.285882 ,Left ,64,8608786900007 ,46,7404560724437 ,11,6977456586861
3.301645 ,Left ,64,8541525563377 ,46,742561796299 ,11,6431253044534
3.3233285 ,Left ,64,8350179336198 ,46,7490246644578 ,11,5947568107592
3.3463785 ,Left ,64,8185549622884 ,46,7552788400688 ,11,5487305769656
3.3613535 ,Left ,64,81284135747 ,46,76378161161 ,11,5070730965168
3.3909007 ,Left ,64,8159718318739 ,46,768835560637 ,11,4690193068485
3.4131465 ,Left ,64,8118308483382 ,46,7779935490126 ,11,4420942938735
3.428315 ,Left ,64,80315949873 ,46,7792740243033 ,11,4206820679998
3.4510534 ,Left ,64,8007096154885 ,46,7838532029142 ,11,4007451213033
3.4659601 ,Left ,64,7982733833165 ,46,7818293433772 ,11,3805406394983
3.4808595 ,Left ,64,7887269918454 ,46,7720415669488 ,11,3634295919301
3.5040454 ,Left ,64,7608433056013 ,46,7627825022307 ,11,346029255215
3.5264224 ,Left ,64,7020789539228 ,46,7530844631472 ,11,3116271760848
3.5406676 ,Left ,64,5957454879609 ,46,7269189308812 ,11,2708496461692
3.563357 ,Left ,64,5316418908472 ,46,6921657898792 ,11,2616022812848
3.5859304 ,Left ,64,4910470927775 ,46,6513405050496 ,11,2812158561288
3.6009235 ,Left ,64,5632067362596 ,46,7051198865904 ,11,3079002183411
3.6233726 ,Left ,64,6399941474658 ,46,8546277598943 ,11,3323880569141
3.6458415 ,Left ,64,6707858965191 ,46,9327952659883 ,11,359048978929
3.6757775 ,Left ,64,7319970405967 ,46,9458625585464 ,11,3912370756659
3.6915496 ,Left ,64,7567865102789 ,46,928719667498 ,11,4340713896062
3.7140707 ,Left ,64,7911653792634 ,46,9186413716928 ,11,4824659103349
3.7289176 ,Left ,64,818440694967 ,46,8963619454203 ,11,5248805163522
3.7440572 ,Left ,64,8601972113726 ,46,8603681532621 ,11,5636505936187
3.7661847 ,Left ,64,8887967804858 ,46,8420022477624 ,11,6059595558305
3.7807113 ,Left ,64,903575570635 ,46,8321381634014 ,11,6424022223089
3.8043293 ,Left ,64,9143464992237 ,46,8125650401126 ,11,6748089608036
3.8263945 ,Left ,64,9181657538835 ,46,7762978369571 ,11,6970434168861
3.8412566 ,Left ,64,9278905370801 ,46,7369923475012 ,11,7157345665236
3.8633674 ,Left ,64,9401553606989 ,46,6983315681167 ,11,7257700361442
3.8857996 ,Left ,64,9443478354315 ,46,655337404396 ,11,725919247467
3.9009128 ,Left ,64,9370893216816 ,46,5995500040448 ,11,7196237176123
3.9233311 ,Left ,64,9172893202734 ,46,5357836514059 ,11,7081501445204
3.953524 ,Left ,64,8794772225903 ,46,4713472580991 ,11,6921801018081
3.9682535 ,Left ,64,8257203876996 ,46,4077479548176 ,11,6738700000956
3.9915186 ,Left ,64,752472197504 ,46,3225679748881 ,11,6521434882599
4.013415 ,Left ,64,7186244814918 ,46,2297179953257 ,11,6480307569485
4.0282412 ,Left ,64,7981028378162 ,46,226875525321 ,11,6613452678975
4.0432534 ,Left ,64,9226888656648 ,46,4071326891268 ,11,6662603490751
4.0663556 ,Left ,65,0106522316683 ,46,5553068455944 ,11,6617049423441
4.0885494 ,Left ,65,0420390625549 ,46,6189164987475 ,11,6429504506974
4.1037165 ,Left ,65,0792743293463 ,46,6484502461411 ,11,6269976138084
4.1260978 ,Left ,65,1111572496734 ,46,6670464187525 ,11,6135769699662
4.1491523 ,Left ,65,117194288997 ,46,6862088158487 ,11,6120763855935
4.1636357 ,Left ,65,1310850552693 ,46,7015113280537 ,11,6075238710023
4.1860269 ,Left ,65,1495331775035 ,46,7059108602345 ,11,6056524803623
4.2082526 ,Left ,65,1632354368638 ,46,7042312430552 ,11,6068441224719
4.2237963 ,Left ,65,177655841642 ,46,7008958893492 ,11,6185879284387
4.2463205 ,Left ,65,1934884855658 ,46,6932490789156 ,11,6325353926957
4.2763494 ,Left ,65,2031191298444 ,46,6814453700603 ,11,6462196790009
4.2910163 ,Left ,65,2135408429745 ,46,6660881037346 ,11,6625140398605
4.3289664 ,Left ,65,2743864067953 ,46,6368405467497 ,11,6978355187471
4.3438412 ,Left ,65,303875345194 ,46,6061112197713 ,11,7093577223821
4.3665209 ,Left ,65,3220450332086 ,46,5697776318952 ,11,7182152725736
4.3890187 ,Left ,65,3433063407279 ,46,5309907783966 ,11,7260929548526
4.4035103 ,Left ,65,3671726930112 ,46,4995012213323 ,11,7354360717937
4.4260908 ,Left ,65,391149397404 ,46,473657738479 ,11,7462845919798
4.4488881 ,Left ,65,4105047842363 ,46,4498076950731 ,11,7530779555949
4.4639778 ,Left ,65,4278026849223 ,46,4286839360881 ,11,7569951759969
4.485969 ,Left ,65,4490705634795 ,46,4171267655744 ,11,7650098840605
4.5082226 ,Left ,65,4646795790469 ,46,4039743933498 ,11,7723023585583
4.5232683 ,Left ,65,4799994200567 ,46,3944567799971 ,11,7851485808085
4.5535786 ,Left ,65,4909665034506 ,46,3865379018684 ,11,7986689273701
4.5758143 ,Left ,65,5095924089832 ,46,3816720458448 ,11,8144436149208
4.5908898 ,Left ,65,5228838694738 ,46,3714673565333 ,11,8342105704385
4.6141494 ,Left ,65,5350644356512 ,46,3651601321143 ,11,85649389452
4.6364555 ,Left ,65,5469368744599 ,46,3658703645012 ,11,8745587311694
4.6512602 ,Left ,65,5595004510605 ,46,361553099419 ,11,8928530628306
4.6657283 ,Left ,65,570210384064 ,46,3604858546258 ,11,9118225702494
4.6884306 ,Left ,65,5751665256605 ,46,3620835501669 ,11,9294196811105
4.703316 ,Left ,65,5765796245942 ,46,3617312154261 ,11,9502748110053
4.7259466 ,Left ,65,5798647997612 ,46,3581030603259 ,11,970425628473
4.7559164 ,Left ,65,5875266981629 ,46,3528256987355 ,11,9898479376708
4.7781659 ,Left ,65,5931754225271 ,46,3427763601605 ,12,0071983331693
4.7935691 ,Left ,65,59211054469 ,46,3407697487699 ,12,0280378011711
4.8082283 ,Left ,65,5919709833984 ,46,3408341726687 ,12,0530237373813
4.8313533 ,Left ,65,5973923485125 ,46,3343812496002 ,12,0758776614787
4.8539926 ,Left ,65,6046867075317 ,46,3345524943045 ,12,09846427397
4.8835861 ,Left ,65,616436817552 ,46,3354152882206 ,12,121486318128
4.8984677 ,Left ,65,6425272250948 ,46,3330090840416 ,12,1413411027234
4.9132984 ,Left ,65,660366275502 ,46,3282424626146 ,12,1691179985253
4.950807 ,Left ,65,7028385585037 ,46,3213435806078 ,12,2207672479229
4.965976 ,Left ,65,7232059296905 ,46,3182373618083 ,12,2387356657416
4.9885811 ,Left ,65,7386706696712 ,46,32085642364 ,12,258343065283
5.0109191 ,Left ,65,750657540334 ,46,3231217529443 ,12,273864198553
5.0339897 ,Left ,65,7667732609334 ,46,3232301691471 ,12,2851608314688
5.056049 ,Left ,65,7784270157467 ,46,3259584239879 ,12,2960761387987
5.0788608 ,Left ,65,7880498589022 ,46,3347969374547 ,12,3046670692028
5.0940111 ,Left ,65,7915402561013 ,46,342665052443 ,12,3080646570705
5.1091828 ,Left ,65,7934648794204 ,46,3542667464058 ,12,3156796566479
5.1381538 ,Left ,65,7966191983743 ,46,3676087836292 ,12,3223139116349
5.1531534 ,Left ,65,8013756460805 ,46,385493074083 ,12,3326350878418
5.1908436 ,Left ,65,8205108647725 ,46,4109386835302 ,12,3542319931411
5.2057009 ,Left ,65,8380387828337 ,46,4225995461175 ,12,3650770932903
5.2285839 ,Left ,65,8532386788028 ,46,4340523106929 ,12,3782436953695
5.2515908 ,Left ,65,866628291969 ,46,4454752295789 ,12,3920664440215
5.2664929 ,Left ,65,8804483769989 ,46,4537590886119 ,12,4038722652874
5.2887116 ,Left ,65,8901032658291 ,46,4618269112541 ,12,4186539949852
5.3108753 ,Left ,65,9021087476923 ,46,4684250144774 ,12,4384517758122
5.3257341 ,Left ,65,913420571048 ,46,4734380953679 ,12,457563795414
5.3484704 ,Left ,65,926610409288 ,46,482698128596 ,12,4752336455721
5.3782828 ,Left ,65,9379686239422 ,46,4876751984285 ,12,4943234349066
5.3941308 ,Left ,65,9467912735113 ,46,4910686372003 ,12,5133755272051
5.4163562 ,Left ,65,9436606446415 ,46,4895355093343 ,12,5351218097736
5.4382774 ,Left ,65,9381966864956 ,46,4878162911334 ,12,5591786975353
5.4535052 ,Left ,65,9271137007858 ,46,4827954784892 ,12,584843594988
5.4759314 ,Left ,65,9129590429811 ,46,4777068530342 ,12,6048211008374
5.4907861 ,Left ,65,8906386932535 ,46,4710532158481 ,12,6265309650652
5.5058804 ,Left ,65,8711901177587 ,46,4631318471418 ,12,6515570389212
5.5282651 ,Left ,65,8469751154624 ,46,4558324538593 ,12,6801105014192
5.5510584 ,Left ,65,8291579288912 ,46,4449238941076 ,12,709467065061
5.5660096 ,Left ,65,8210215437046 ,46,4334969933235 ,12,7403291798837
5.5884227 ,Left ,65,8187249022602 ,46,4234560052249 ,12,7717399301868
5.6108629 ,Left ,65,8227152174486 ,46,4106956064124 ,12,8028470940428
5.6260053 ,Left ,65,8235334051151 ,46,3971415518098 ,12,8345090531977
5.6483752 ,Left ,65,8281565849706 ,46,3800274596335 ,12,859577498277
5.6716082 ,Left ,65,832141368182 ,46,3653203428745 ,12,8779523009808
5.6863873 ,Left ,65,8380292866065 ,46,3512937835924 ,12,8894798812322
5.7089306 ,Left ,65,8352768294948 ,46,3415013035192 ,12,8963170607808
5.7314389 ,Left ,65,8288711880293 ,46,3383547219048 ,12,8899732906534
5.7462171 ,Left ,65,8213190469374 ,46,3374384993943 ,12,878673901083
5.7683817 ,Left ,65,8168326921166 ,46,3349687900841 ,12,865487732579
5.7910214 ,Left ,65,8112927489434 ,46,3373456950958 ,12,8537726757676
5.8058816 ,Left ,65,8112927489434 ,46,3373456950958 ,12,8537726757676
5.8365798 ,Left ,65,8025606625571 ,46,3425118518075 ,12,8480001563578
5.8585825 ,Left ,65,8060714218253 ,46,3417977228305 ,12,8381834927214
5.8735355 ,Left ,65,7998014187205 ,46,3426022134323 ,12,825800375563
5.8961157 ,Left ,65,7899092571816 ,46,3483602666976 ,12,8075147781795
5.9110075 ,Left ,65,7801569274518 ,46,3495814949745 ,12,7849254742052
5.9407651 ,Left ,65,7685628443252 ,46,3396789174567 ,12,7582257656515
5.9632916 ,Left ,65,7372725038548 ,46,3296854929261 ,12,7313015672656
6.0013331 ,Left ,65,5901383745049 ,46,2721012138389 ,12,6656365273575
6.0234404 ,Left ,65,5737619397078 ,46,2063681868653 ,12,6717064341589
6.0386208 ,Left ,65,5763692393257 ,46,1477988745915 ,12,6904327733635
6.0759955 ,Left ,65,6239555757386 ,46,2794716452016 ,12,703331343422
6.0982284 ,Left ,65,6227296243749 ,46,3642646006263 ,12,6791714154458
6.1360457 ,Left ,65,6335087065085 ,46,4407309759515 ,12,634753104328
6.1589546 ,Left ,65,5973366809694 ,46,4698321798383 ,12,6133048921705
6.1811214 ,Left ,65,5693014107473 ,46,4792593187966 ,12,5946083739493
6.1961716 ,Left ,65,5551286641042 ,46,4794082068962 ,12,5562871398182
6.2185951 ,Left ,65,5335082920918 ,46,4644142689646 ,12,5217615824796
6.2409132 ,Left ,65,5116012666337 ,46,455785158518 ,12,4892544702178
6.2565795 ,Left ,65,4998070262177 ,46,4393268759334 ,12,4573796985219
6.2789153 ,Left ,65,4888819096819 ,46,4032219681802 ,12,4307207785034
6.2934499 ,Left ,65,4669990978324 ,46,3476911329401 ,12,409985637523
6.3087953 ,Left ,65,444046096396 ,46,2752734442483 ,12,3917068887213
6.3308518 ,Left ,65,4255192481563 ,46,1878682765812 ,12,3718419663601
6.3532772 ,Left ,65,3746694899796 ,46,0809066408191 ,12,3634157167753
6.3685346 ,Left ,65,3686977499353 ,46,0038881910719 ,12,3519128426873
6.3909206 ,Left ,65,3618686354565 ,45,9963413824925 ,12,3631365159006
6.4132981 ,Left ,65,4350731195822 ,46,0429917162399 ,12,3448570789476
6.42825 ,Left ,65,4525780006098 ,46,0912538174563 ,12,3232364473397
6.4507093 ,Left ,65,4537196559779 ,46,0956839286045 ,12,2939307445928
6.480821 ,Left ,65,4102990897714 ,46,113204539185 ,12,2853741125941
6.4967866 ,Left ,65,3752339034234 ,46,1279139837423 ,12,2508349254307
6.5191196 ,Left ,65,3387851840567 ,46,1553038157947 ,12,2222978081401
6.5332572 ,Left ,65,2831710233518 ,46,2009478820568 ,12,2151018158625
6.5483454 ,Left ,65,320106576449 ,46,3174673025049 ,12,2512560994579
6.5708653 ,Left ,65,3705803022874 ,46,5450959530258 ,12,2905021856247
6.5932353 ,Left ,65,3953310828508 ,46,741872086367 ,12,3143250400941
6.6164506 ,Left ,65,3631348754553 ,46,8496729527771 ,12,3263602455655
6.6389165 ,Left ,65,3535999259078 ,46,9052551154583 ,12,3435213228226
6.6609105 ,Left ,65,3618410213494 ,46,9255756883643 ,12,3720396120487
6.698622 ,Left ,65,2920573371589 ,46,9396981764562 ,12,4327558075312
6.7282997 ,Left ,65,261128794497 ,46,9410141066875 ,12,434712561876
6.7435484 ,Left ,65,2095159412814 ,46,9296455239231 ,12,4261486141775
6.7585377 ,Left ,65,1426358148878 ,46,8960341436278 ,12,420045811779
6.7957463 ,Left ,65,0122112803018 ,46,7939015148247 ,12,4293261429983
6.810805 ,Left ,65,0069784930598 ,46,6964496533872 ,12,3996012541957
6.8332781 ,Left ,64,9822730180427 ,46,6300981907166 ,12,3976672755056
6.8557756 ,Left ,64,9927250334782 ,46,6838507648449 ,12,3955764631554
6.8716361 ,Left ,65,0358638165555 ,46,7764640445258 ,12,394526681332
6.8935312 ,Left ,65,0848325927644 ,46,820593823301 ,12,3885431377186
6.9233661 ,Left ,65,1653259838934 ,46,8491574996291 ,12,384220645653
6.9385275 ,Left ,65,1995636750235 ,46,8758362191317 ,12,383294874435
6.9757328 ,Left ,65,2834570158101 ,46,839306403055 ,12,3851431579168
6.9909339 ,Left ,65,3170408914164 ,46,8265969074563 ,12,3808937763372
7.0134005 ,Left ,65,333534969563 ,46,8242781162343 ,12,3843800876969
7.0357977 ,Left ,65,3541029948713 ,46,8272937291655 ,12,3829390935355
7.050792 ,Left ,65,3786583288883 ,46,8266142070977 ,12,3848198106049
7.080963 ,Left ,65,3958172613996 ,46,8146949412771 ,12,3844017997932
7.1033318 ,Left ,65,4061892890778 ,46,8028925783345 ,12,3845231802626
7.1182678 ,Left ,65,4113380136723 ,46,7897941124556 ,12,3822649446249
7.1335682 ,Left ,65,4174453293341 ,46,7760154164325 ,12,3776220749653
7.1633359 ,Left ,65,4229430276968 ,46,7597399334902 ,12,3734372981339
7.1785806 ,Left ,65,4237404808539 ,46,7408083828346 ,12,3725976428475
7.2008563 ,Left ,65,4237889296315 ,46,727183483158 ,12,3765585650498
7.2158522 ,Left ,65,4335948191989 ,46,7144170617686 ,12,3696818711039
7.2307959 ,Left ,65,440075023145 ,46,7026624600617 ,12,3610442669384
7.2541357 ,Left ,65,4465369430301 ,46,6961039237127 ,12,3503839475871
7.2762607 ,Left ,65,4568579567841 ,46,6952048737362 ,12,3399509625802
7.2910679 ,Left ,65,4655487076801 ,46,6897499956834 ,12,3258568062568
7.3140468 ,Left ,65,4720578016011 ,46,6847491017818 ,12,3077767310584
7.3363821 ,Left ,65,4750773872634 ,46,685331948495 ,12,2922035540904
7.3516014 ,Left ,65,4828377160941 ,46,6853483103151 ,12,2731691010889
7.3884526 ,Left ,65,498762544056 ,46,6893741796692 ,12,2537039679968
7.410956 ,Left ,65,5047165587415 ,46,7053637952443 ,12,2325765125533
7.4260932 ,Left ,65,5041697918464 ,46,7294269319719 ,12,2147341528159
7.4412355 ,Left ,65,5020927905084 ,46,7512425283165 ,12,1944068987697
7.4560161 ,Left ,65,500033563974 ,46,7745947033142 ,12,1666497665348
7.4707092 ,Left ,65,4889492989824 ,46,8016763873999 ,12,1355165061571
7.493516 ,Left ,65,4826057489523 ,46,8341498359809 ,12,1075131178207
7.5160243 ,Left ,65,4814741916875 ,46,8635133490545 ,12,0678073494744
7.5307914 ,Left ,65,4683634951484 ,46,8836272177634 ,12,0216507978991
7.5535746 ,Left ,65,4496960056535 ,46,9054788220141 ,11,9750200621213
7.5758405 ,Left ,65,4412359872613 ,46,9318470940684 ,11,9307544712547
7.5913847 ,Left ,65,4368905272213 ,46,9476477979264 ,11,8843585743703
7.6138289 ,Left ,65,4205681738439 ,46,9502617463378 ,11,8377389351852
7.6360964 ,Left ,65,4022832015319 ,46,9456133539611 ,11,797662452438
7.6584024 ,Left ,65,3920843685565 ,46,9352008040885 ,11,7568695816367
7.6809784 ,Left ,65,3862709901703 ,46,9189097509567 ,11,7162269141566
7.7110663 ,Left ,65,3593248547489 ,46,8972803151699 ,11,641300320155
7.733989 ,Left ,65,3351619006652 ,46,8999461631466 ,11,6089010257257
7.7565214 ,Left ,65,3129966377151 ,46,8941824977615 ,11,5778268052349
7.7787653 ,Left ,65,2634421907619 ,46,8686608756603 ,11,5531249858467
7.7932697 ,Left ,65,1581267165366 ,46,8216052577186 ,11,543170109327
7.8160514 ,Left ,65,029204553036 ,46,7716870992544 ,11,5444646070107
7.8457968 ,Left ,64,9487413976786 ,46,735743750018 ,11,5857314031097
7.8608504 ,Left ,64,9663024209704 ,46,7730731216548 ,11,608664494391
7.8835164 ,Left ,65,0173659958869 ,46,8971590832269 ,11,6545047556055
7.8984263 ,Left ,65,0780184753627 ,47,0361379257994 ,11,7074330655118
7.9133708 ,Left ,65,1260906853928 ,47,1288529067595 ,11,7460308032854
7.9358921 ,Left ,65,1926696481317 ,47,1611035312846 ,11,776004531698
7.9585499 ,Left ,65,1969393779007 ,47,1592802361451 ,11,8185887366409
7.9739736 ,Left ,65,2427557154477 ,47,1560410591347 ,11,8475289787971
7.9958755 ,Left ,65,2650167673872 ,47,1163160497701 ,11,8687291278879
8.0181905 ,Left ,65,2753194070086 ,47,0522218940047 ,11,8851330198505
8.0331922 ,Left ,65,2633410283908 ,47,0043378861898 ,11,9057998210324
8.0557421 ,Left ,65,2586401558136 ,46,9626310925722 ,11,9308511985599
8.0782368 ,Left ,65,2489767739923 ,46,9089062529546 ,11,9426344038703
8.0933154 ,Left ,65,2182574916023 ,46,8376022208686 ,11,9579606163143
8.1164291 ,Left ,65,1582477835447 ,46,759129080574 ,11,9720912570867
8.1383498 ,Left ,65,0604435710039 ,46,6743850931492 ,11,9851773780397
8.1532332 ,Left ,64,972107967161 ,46,5860151257685 ,11,9901512521375
8.1757977 ,Left ,64,9197593341726 ,46,4817418805854 ,12,0048265141333
8.1986315 ,Left ,64,9545212990613 ,46,4590553922723 ,12,0176386611191
8.2132961 ,Left ,65,0429152797922 ,46,5752551865346 ,12,037525757862
8.2363412 ,Left ,65,1300056243158 ,46,6953439914831 ,12,0570098634416
8.2591189 ,Left ,65,1839581922136 ,46,762509718423 ,12,0683821572221
8.2740699 ,Left ,65,2548730251269 ,46,7884325957606 ,12,0568160111165
8.2965646 ,Left ,65,26450576425 ,46,7962481934835 ,12,051455479072
8.3186757 ,Left ,65,3056126691622 ,46,7728409292231 ,12,0403270332771
8.333228 ,Left ,65,3357546639708 ,46,7487026662345 ,12,0388837055343
8.3642861 ,Left ,65,3710771978311 ,46,7133314100958 ,12,0327695911253
8.3860073 ,Left ,65,4057262187281 ,46,690186041714 ,12,0468736730267
8.4082914 ,Left ,65,4444525981909 ,46,6759208883313 ,12,0711796860664
8.4233416 ,Left ,65,4927269326022 ,46,6564803928692 ,12,1044762803803
8.4532877 ,Left ,65,5430457223013 ,46,6335152903041 ,12,1466637947384
8.4682956 ,Left ,65,5858925869004 ,46,6046134126855 ,12,1894450630697
8.4914757 ,Left ,65,6207482217936 ,46,5781428569547 ,12,2329056487809
8.5207184 ,Left ,65,6887110774583 ,46,5511011209372 ,12,3381614960929
8.5438613 ,Left ,65,7180416817349 ,46,5448269861692 ,12,3997406726468
8.5586735 ,Left ,65,7441351580381 ,46,5362055507899 ,12,459376083898
8.5738439 ,Left ,65,7599220430613 ,46,5237075837583 ,12,510135754019
8.5963513 ,Left ,65,7681334710145 ,46,5113518856377 ,12,5535014986526
8.6189156 ,Left ,65,7759560497234 ,46,499463068194 ,12,5922600880677
8.6336324 ,Left ,65,775406488372 ,46,4930620428041 ,12,6285555810919
8.655952 ,Left ,65,7689768246951 ,46,4777156042089 ,12,6649325639284
8.6859932 ,Left ,65,7663530266191 ,46,4656698016268 ,12,7002960107507
8.700751 ,Left ,65,7621333419752 ,46,4566542205308 ,12,7312725618415
8.7233526 ,Left ,65,7621789718706 ,46,4536815170833 ,12,7659493529999
8.7385262 ,Left ,65,7658366725744 ,46,4526125289229 ,12,7972413127652
8.7683755 ,Left ,65,7740970990204 ,46,4511507901536 ,12,8301257516826
8.7832605 ,Left ,65,7826953577173 ,46,4517394044762 ,12,8591119501021
8.8067384 ,Left ,65,7978136646928 ,46,4561664383066 ,12,888203122037
8.8365357 ,Left ,65,8223206712445 ,46,4687961364011 ,12,9437796384306
8.8582606 ,Left ,65,82867686639 ,46,4707919924986 ,12,9676778855661
8.8810114 ,Left ,65,8326249807698 ,46,4735608622159 ,12,992799184675
8.8957681 ,Left ,65,84493012247 ,46,4723577379058 ,13,0129607925452
8.925784 ,Left ,65,8545002790498 ,46,4670095547964 ,13,0266717497319
8.9560479 ,Left ,65,8562273017537 ,46,4629893678948 ,13,0320700669576
8.9783606 ,Left ,65,8601692947276 ,46,4600689660907 ,13,0341008240596
8.9933859 ,Left ,65,8723086013773 ,46,4586325488362 ,13,0343536244101
9.0086715 ,Left ,65,8792312705607 ,46,4583658084549 ,13,0336594821694
9.0233646 ,Left ,65,8874691409251 ,46,45535098823 ,13,0276350613705
9.0392156 ,Left ,65,8918632291727 ,46,4490749763806 ,13,022620563449
9.0614711 ,Left ,65,8972754791369 ,46,45094433017 ,13,0186520503617
9.0765682 ,Left ,65,9063791895528 ,46,4562853446543 ,13,0188328138962
9.098909 ,Left ,65,9063791895528 ,46,4562853446543 ,13,0188328138962
9.1210983 ,Left ,65,9044172808673 ,46,4617701373626 ,13,0226034776041
9.1360723 ,Left ,65,9044172808673 ,46,4617701373626 ,13,0226034776041
9.1588821 ,Left ,65,9012226131393 ,46,4610064207352 ,13,0232026368239
9.1887059 ,Left ,65,9016500821832 ,46,4649622908132 ,13,0319464577836
9.2037575 ,Left ,65,8969676618411 ,46,4691441601981 ,13,0408048984662
9.2257977 ,Left ,65,8864124756325 ,46,4720034091494 ,13,0491308357936
9.2407893 ,Left ,65,8803192255885 ,46,4721411295942 ,13,0577492794695
9.2558704 ,Left ,65,8697734076077 ,46,4750077932313 ,13,0660674067135
9.2783248 ,Left ,65,864090795531 ,46,4762971705078 ,13,0718887286025
9.3008228 ,Left ,65,864090795531 ,46,4762971705078 ,13,0718887286025
9.3234256 ,Left ,65,864090795531 ,46,4762971705078 ,13,0718887286025
9.3538222 ,Left ,65,864090795531 ,46,4762971705078 ,13,0718887286025
9.3761707 ,Left ,65,8639818962996 ,46,477241702232 ,13,0708315094887
9.3908678 ,Left ,65,8617933519715 ,46,4716409344619 ,13,0699583971778
9.4058553 ,Left ,65,8552865669185 ,46,4633177262041 ,13,0656096756891
9.4207363 ,Left ,65,8476641427352 ,46,4530296940047 ,13,0571804418819
9.435788 ,Left ,65,841367322212 ,46,4399806505891 ,13,0434214844969
9.4583107 ,Left ,65,8299248435589 ,46,4235808058003 ,13,0244683410065
9.4814728 ,Left ,65,8109109198655 ,46,4013527938014 ,13,0013024649554
9.5038559 ,Left ,65,7875621988147 ,46,3688002082959 ,12,9752981893234
9.5341097 ,Left ,65,768846888816 ,46,3221216357337 ,12,9397402625577
9.5712248 ,Left ,65,6867769080885 ,46,1759440495332 ,12,9026948185939
9.6014717 ,Left ,65,6820884705787 ,46,1406437632986 ,12,9154088369784
9.6239967 ,Left ,65,7541641388572 ,46,3285455173636 ,12,9250546304915
9.6538689 ,Left ,65,7697994531961 ,46,4353752763351 ,12,9067764502181
9.6686048 ,Left ,65,7896941090614 ,46,4957626026061 ,12,8787301453113
9.6908482 ,Left ,65,801630300285 ,46,5309553140261 ,12,8487418497321
9.705894 ,Left ,65,7593812476274 ,46,5623887246366 ,12,8123453450029
9.7213522 ,Left ,65,7142186579658 ,46,5623960086654 ,12,7671975048804
9.7432731 ,Left ,65,670210806016 ,46,5502052829781 ,12,7098215048859
9.7583196 ,Left ,65,6409942276073 ,46,5312424291802 ,12,6472395564339
9.788307 ,Left ,65,6100625566907 ,46,5019310724078 ,12,5794015695161
9.8109179 ,Left ,65,5707147611872 ,46,4683198649367 ,12,5135784916736
9.8260441 ,Left ,65,5264882489596 ,46,4204782409228 ,12,4480320146523
9.841309 ,Left ,65,4717931726227 ,46,3468692888739 ,12,3913968942967
9.8642717 ,Left ,65,3819935555245 ,46,2417668492237 ,12,3570415561588
9.886175 ,Left ,65,3888320504118 ,46,1587554856863 ,12,3544666969369
9.9085679 ,Left ,65,4346251456649 ,46,1495958946303 ,12,3786664026461
9.9384728 ,Left ,65,5506259620372 ,46,3270268194101 ,12,3459739434125
9.9607562 ,Left ,65,5118726623114 ,46,3180620556131 ,12,3106738968051
9.9915146 ,Left ,65,4417086452493 ,46,2947504337637 ,12,300933286925
10.0062151 ,Left ,65,3861758454847 ,46,2743021155611 ,12,2830212253109
10.0289547 ,Left ,65,335531700666 ,46,2289649680231 ,12,281009252835
10.0732509 ,Left ,65,3218281729532 ,46,3173302478407 ,12,3166836580575
10.088513 ,Left ,65,3819173349918 ,46,5438025957676 ,12,3291450286533
10.1109204 ,Left ,65,4149302052958 ,46,7002575436212 ,12,3395685828656
10.1182902 ,Left ,65,3892199070854 ,46,7833470008875 ,12,3409580786067
10.1333364 ,Left ,65,3291123697643 ,46,7861389387662 ,12,3597351781914
10.1559721 ,Left ,65,3125578516336 ,46,8253597917811 ,12,3865706657671
10.1708768 ,Left ,65,2851353919892 ,46,8339508484045 ,12,3981766905458
10.1939376 ,Left ,65,2692881315611 ,46,8303498728512 ,12,3961737040014
10.2157797 ,Left ,65,2255845782186 ,46,7791643531124 ,12,3684539033515
10.2308416 ,Left ,65,1193085752362 ,46,7131305367878 ,12,3522944278834
10.2533241 ,Left ,65,0792410065111 ,46,6758388265103 ,12,3725012783001
10.275989 ,Left ,65,1037176168976 ,46,659261223959 ,12,3870793808663
10.2908468 ,Left ,65,1655018223337 ,46,7556626861308 ,12,4056210272061
10.3132566 ,Left ,65,1776129848119 ,46,9205554124215 ,12,4144572298758
10.3357342 ,Left ,65,1782924323934 ,47,0370571540942 ,12,4216883970124
10.3585548 ,Left ,65,2008528335106 ,47,0907563543569 ,12,4243271111639
10.3816078 ,Left ,65,2321552972937 ,47,1414870289985 ,12,4029369365383
10.4333297 ,Left ,65,2420521491743 ,47,1653019553456 ,12,2790531193075
10.4633298 ,Left ,65,2515600469886 ,47,1578857490014 ,12,2208113162252
10.4782994 ,Left ,65,2577378489846 ,47,1491258695185 ,12,1594739069837
10.5163513 ,Left ,65,2636795819593 ,47,0932347782931 ,12,0524479651436
10.5314262 ,Left ,65,2748671643226 ,47,0659766235927 ,12,0041586645489
10.5537323 ,Left ,65,2978091871528 ,47,0432735682964 ,11,9596108593662
10.5836011 ,Left ,65,3183324283981 ,47,0272044311448 ,11,9343736988041
10.5982946 ,Left ,65,3341843840405 ,47,0041912214132 ,11,9133365812406
10.6434097 ,Left ,65,3459517662531 ,46,9433683041541 ,11,8626964122592
10.6588036 ,Left ,65,3449305658324 ,46,9259127950485 ,11,8450050327676
10.6814499 ,Left ,65,347561681163 ,46,9206083379067 ,11,83960227182
10.6964202 ,Left ,65,3525061640516 ,46,91550014453 ,11,831916357869
10.7184486 ,Left ,65,3403870958657 ,46,885544385664 ,11,8158788766538
10.7407657 ,Left ,65,3075454286586 ,46,845072699177 ,11,7973772026131
10.7708215 ,Left ,65,23255887943 ,46,7734444101911 ,11,7553788706392
10.7932752 ,Left ,65,1696175843257 ,46,6996843850284 ,11,7368930746231
10.8158274 ,Left ,65,1174195342959 ,46,6302419172904 ,11,7357658913916
10.8309158 ,Left ,65,0699416000955 ,46,6338137666025 ,11,7845694216474
10.8542503 ,Left ,65,1351739533105 ,46,7115895615768 ,11,8358300498365
10.8762638 ,Left ,65,2083708083436 ,46,8534602576361 ,11,8867945390594
10.9132378 ,Left ,65,257921637622 ,46,9623418423041 ,11,9442385476552
10.9359426 ,Left ,65,2503550141451 ,46,9616717922697 ,11,9429386843174
10.9733896 ,Left ,65,2264727615505 ,46,895844859242 ,11,9126878499629
10.9957738 ,Left ,65,2356768598911 ,46,8235156960176 ,11,898192041643
11.0182598 ,Left ,65,2461861189519 ,46,7794910662803 ,11,9104754870259
11.0407982 ,Left ,65,2483023788614 ,46,7527426229448 ,11,9331222806717
11.0557773 ,Left ,65,2456263941491 ,46,70917341813 ,11,9597184637638
11.0933906 ,Left ,65,1479253896404 ,46,5863218045975 ,12,0130497122005
11.1157769 ,Left ,65,1188688827176 ,46,5571762074264 ,12,0180151790002
11.1607595 ,Left ,65,171650413305 ,46,5594650992179 ,12,025417910017
11.2215896 ,Left ,65,3243197126848 ,46,8433443300394 ,12,0069869409379
11.2806194 ,Left ,65,4501270719503 ,46,855154303364 ,11,9650993889835
11.3032787 ,Left ,65,4784930559745 ,46,8469975669664 ,11,9614377993756
11.3332979 ,Left ,65,5348499932317 ,46,8280438943974 ,11,9642357283322
11.355765 ,Left ,65,5764886178098 ,46,804863493552 ,11,977661209038
11.3936896 ,Left ,65,6484949892924 ,46,7642885469177 ,12,0464408499107
11.4234498 ,Left ,65,6710199189971 ,46,7454029240474 ,12,0916802642972
11.4757269 ,Left ,65,742552415924 ,46,6791912880135 ,12,2339764091919
11.5135275 ,Left ,65,7601864182993 ,46,6194388436168 ,12,3421589128683
11.5357638 ,Left ,65,7720396468668 ,46,5938359442176 ,12,3935231845495
11.5734199 ,Left ,65,7918165662242 ,46,5521226152183 ,12,4994591153051
11.595778 ,Left ,65,8020928507437 ,46,5362030004556 ,12,5517383096529
11.6333051 ,Left ,65,8073504281896 ,46,5108471070808 ,12,6532582132171
11.6565662 ,Left ,65,8155965866157 ,46,5061174441336 ,12,7008958471411
11.7008551 ,Left ,65,84569280184 ,46,4976523501963 ,12,7890499049364
11.7307952 ,Left ,65,8549818612792 ,46,495773660303 ,12,824726756846
11.7760208 ,Left ,65,8719984801807 ,46,507670747147 ,12,8890107836996
11.7909148 ,Left ,65,8820330953206 ,46,5183665415437 ,12,9151173312874
11.8283842 ,Left ,65,8984001016488 ,46,5420867456813 ,12,9549900865292
11.8438736 ,Left ,65,9013001777988 ,46,5480772286856 ,12,9740404799448
11.8740702 ,Left ,65,9096076819514 ,46,5572562160557 ,13,0130920744922
11.8966179 ,Left ,65,9194858244879 ,46,5629591832732 ,13,0314268877426
11.9410414 ,Left ,65,9183552056244 ,46,5757864604561 ,13,0639979752225
11.9634466 ,Left ,65,9105377231323 ,46,5836935725946 ,13,077640646343
12.0310771 ,Left ,65,9003446531321 ,46,5976361045049 ,13,0905090038748
12.0760157 ,Left ,65,863508657643 ,46,5976300374137 ,13,092137170449
12.1283987 ,Left ,65,8311006780188 ,46,59152883754 ,13,0723880640785
12.1508987 ,Left ,65,8223482640384 ,46,5922537904248 ,13,0623534639104
12.1808819 ,Left ,65,799727638367 ,46,5816571617334 ,13,0336712323254
12.195857 ,Left ,65,7856474341649 ,46,5812212053752 ,13,0213300859881
12.2408072 ,Left ,65,7852204741332 ,46,5835684452265 ,12,9930880105481
12.2558951 ,Left ,65,7858213056375 ,46,5832095675797 ,12,9811417404158
12.29358 ,Left ,65,7851305555118 ,46,5659790551595 ,12,9500511124917
12.323379 ,Left ,65,7514922212626 ,46,5471212473374 ,12,9317418425791
12.3607539 ,Left ,65,6389644541494 ,46,4827564656267 ,12,8879783990645
12.375851 ,Left ,65,6233805105723 ,46,4496520568273 ,12,8543917343666
12.4135685 ,Left ,65,6606027244145 ,46,5006726585357 ,12,8829935448414
12.4360435 ,Left ,65,7044856742808 ,46,6588142077388 ,12,8911071371572
12.4583317 ,Left ,65,7139162245498 ,46,7879695124683 ,12,8721375776401
12.4957805 ,Left ,65,6909584838018 ,46,8871782760929 ,12,8195678010712
12.5183461 ,Left ,65,6350348614735 ,46,8998852470385 ,12,7893606444663
12.5708027 ,Left ,65,5565707109939 ,46,8772560739853 ,12,7065915077402
12.6159987 ,Left ,65,4740495975765 ,46,7502573033284 ,12,5455627105006
12.6609103 ,Left ,65,3906541621668 ,46,6418590756767 ,12,4387804920043
12.6832465 ,Left ,65,3359583523691 ,46,5742111983171 ,12,3872294453485
12.7359948 ,Left ,65,354556630319 ,46,4369020433854 ,12,389095404844
12.7739285 ,Left ,65,3910851825422 ,46,5139478853839 ,12,354187725112
12.7959559 ,Left ,65,3649953132872 ,46,5063678459125 ,12,3434855211274
12.8332096 ,Left ,65,3148300431211 ,46,5406164008895 ,12,3059796912391
12.8558643 ,Left ,65,2702582458824 ,46,5542719193159 ,12,3013969927411
12.8936584 ,Left ,65,3305911195053 ,46,7045102932726 ,12,3752612031484
12.9159787 ,Left ,65,3987380494775 ,46,9148856605937 ,12,4076250832608
12.9536702 ,Left ,65,4121193865159 ,47,0772705855182 ,12,4239092097751
12.9992665 ,Left ,65,3905009926833 ,47,2078905531961 ,12,42476762538
13.0361383 ,Left ,65,3861384196015 ,47,2150428560689 ,12,4283659045732
13.0736797 ,Left ,65,4095451370368 ,47,2162069345966 ,12,4368681976274
13.0963721 ,Left ,65,4089362589956 ,47,2037867506547 ,12,4467544657578
13.1408484 ,Left ,65,4360544652293 ,47,1511846009096 ,12,4906293707946
13.1783335 ,Left ,65,4602620763444 ,47,0744014023895 ,12,5201856748247
13.2159909 ,Left ,65,458234551892 ,46,9855569020145 ,12,5178123312471
13.2384964 ,Left ,65,4640389717424 ,46,9383181967537 ,12,5096202165917
13.2762797 ,Left ,65,4303155982737 ,46,8411842389051 ,12,4892125259075
13.3059693 ,Left ,65,3992968979948 ,46,788772825874 ,12,4747241054805
13.3432897 ,Left ,65,2874425995069 ,46,6674778686575 ,12,4195508529613
13.3585559 ,Left ,65,2386442410771 ,46,6057427462868 ,12,4190727304789
13.3957389 ,Left ,65,3600507782951 ,46,7840793102621 ,12,4645611963382
13.4258032 ,Left ,65,3843571790641 ,46,9111806527181 ,12,4596343152449
13.4782762 ,Left ,65,4268970722476 ,47,0338424660154 ,12,435077986638
13.5160227 ,Left ,65,417478681424 ,47,0335208818731 ,12,4228842323928
13.538303 ,Left ,65,413146281424 ,47,0337245720837 ,12,4044674143098
13.5760725 ,Left ,65,4265850675855 ,47,0434891799039 ,12,3676578820565
13.5982542 ,Left ,65,4406933689332 ,47,048832601089 ,12,3513555698088
13.62082 ,Left ,65,4490413244651 ,47,0494957998335 ,12,3342511313547
13.6360459 ,Left ,65,4560296343667 ,47,0492998689993 ,12,3170445349041
13.6586618 ,Left ,65,4653114205834 ,47,0460799752912 ,12,2974920794278
13.6732919 ,Left ,65,4684415704191 ,47,0486708121424 ,12,2780431757853
13.6958165 ,Left ,65,4771127622208 ,47,0513785948813 ,12,2569787229623
13.7258086 ,Left ,65,4752372336077 ,47,0540539596475 ,12,2374444239598
13.7635493 ,Left ,65,4830365176684 ,47,0781180911933 ,12,2085678411648
13.7935706 ,Left ,65,5087572069603 ,47,0904159317772 ,12,1874621158639
13.8160774 ,Left ,65,5218717713592 ,47,1112702750133 ,12,1567422459442
13.8457666 ,Left ,65,5280416237572 ,47,1660466743404 ,12,065541241777
13.8758281 ,Left ,65,5299427339855 ,47,2115705203946 ,11,9319266531508
13.8985896 ,Left ,65,5267647024967 ,47,2339408080872 ,11,8602671080506
13.9133658 ,Left ,65,5165958019831 ,47,2505929332195 ,11,7875331831254
13.9283647 ,Left ,65,4852801812303 ,47,2546599483763 ,11,7160357677853
13.9509775 ,Left ,65,4370693032388 ,47,2564721600851 ,11,6486050274466
13.9734844 ,Left ,65,3777891377415 ,47,2523915035878 ,11,5880172706507
13.9886365 ,Left ,65,304442300108 ,47,2260716769678 ,11,5432798472329
14.0108699 ,Left ,65,2368901426118 ,47,1803683749007 ,11,5310955331954
14.0408069 ,Left ,65,2118233235016 ,47,1145419726913 ,11,5480870601598
14.0633556 ,Left ,65,2278363519334 ,47,0656993095648 ,11,5829725269597
14.0858634 ,Left ,65,2591738065286 ,47,131232128757 ,11,6206736792262
14.1007997 ,Left ,65,2778389946026 ,47,195866805348 ,11,6368244433618
14.1160111 ,Left ,65,2854546504155 ,47,2030335555605 ,11,6600749142412
14.1310195 ,Left ,65,3261977040365 ,47,1860540315019 ,11,6679900094438
14.1536215 ,Left ,65,3039673260931 ,47,1184064148415 ,11,6777832649041
14.1684021 ,Left ,65,2957319186398 ,47,0471928600527 ,11,6912524613714
14.190874 ,Left ,65,2970201573797 ,47,0085028170128 ,11,7194164843099
14.2134223 ,Left ,65,3123174741825 ,46,999538736159 ,11,7480565752063
14.2283272 ,Left ,65,3367442796884 ,46,991601594234 ,11,7824113964524
14.2584533 ,Left ,65,3629613699821 ,46,9677923785824 ,11,8092067300945
14.2807345 ,Left ,65,3760286577007 ,46,9482464526182 ,11,8341995830002
14.2958573 ,Left ,65,3983027718463 ,46,9354575307763 ,11,856630604934
14.318572 ,Left ,65,4125272455883 ,46,9307906571177 ,11,8710953201779
14.3410213 ,Left ,65,4131807182628 ,46,9158693160224 ,11,8808917034926
14.3559035 ,Left ,65,3971545207299 ,46,8973354315264 ,11,8856383016195
14.3707703 ,Left ,65,3764809890746 ,46,87007916519 ,11,8872174949125
14.393331 ,Left ,65,3392634555893 ,46,8340218549711 ,11,8857539760717
14.4160642 ,Left ,65,2992512352124 ,46,804233512792 ,11,8788023060712
14.4308662 ,Left ,65,244480746501 ,46,7534154037025 ,11,8667546426049
14.4535044 ,Left ,65,1583153571191 ,46,6565448953566 ,11,8511513199672
14.4758362 ,Left ,65,1282953909026 ,46,5629843129717 ,11,842773769738
14.4906337 ,Left ,65,1464604319777 ,46,5106950046358 ,11,8644680114346
14.5134046 ,Left ,65,2406680568416 ,46,6089800812084 ,11,8927965693485
14.5360499 ,Left ,65,3385597044959 ,46,7468699511295 ,11,9091924637457
14.5508427 ,Left ,65,3723754071214 ,46,8395159003813 ,11,9247823873332
14.5734275 ,Left ,65,4137203374665 ,46,8706532448749 ,11,9155355656832
14.5958962 ,Left ,65,4209857363178 ,46,8882580084702 ,11,9030497767802
14.6107111 ,Left ,65,4304860319605 ,46,8742230138946 ,11,8837978071006
14.6333882 ,Left ,65,4462830374833 ,46,8670122184437 ,11,8714157468427
14.6557557 ,Left ,65,4697540555328 ,46,8502466958443 ,11,8544278789539
14.6709469 ,Left ,65,4884110351746 ,46,8469747083018 ,11,8533227708675
14.6932952 ,Left ,65,5124413982078 ,46,8465066484817 ,11,8568746335661
14.7160516 ,Left ,65,5354298286709 ,46,8451306333606 ,11,8703564274447
14.7310529 ,Left ,65,5579377174291 ,46,8360431565192 ,11,886237574387
14.7535647 ,Left ,65,5959226856898 ,46,8263778186624 ,11,9068553253231
14.7833251 ,Left ,65,621885563397 ,46,8185605103751 ,11,9256717401096
14.7985498 ,Left ,65,6385034935239 ,46,8123761618036 ,11,9450609745617
14.8215475 ,Left ,65,6437665486195 ,46,806413495685 ,11,9633983222244
14.8442482 ,Left ,65,6572014190589 ,46,7894817246076 ,11,9828192274028
14.8588824 ,Left ,65,672549122984 ,46,7791376010655 ,12,0019409964019
14.8883134 ,Left ,65,6871133611338 ,46,7723731525743 ,12,0184424358182
14.9033679 ,Left ,65,6922704274628 ,46,7657109022051 ,12,0429713401574
14.9185571 ,Left ,65,6948175180109 ,46,7583690492848 ,12,066319885413
14.9332685 ,Left ,65,6997928654457 ,46,7637398410576 ,12,0944028572501
14.9559725 ,Left ,65,7042926473649 ,46,7656507298913 ,12,1240757724174
14.9710302 ,Left ,65,7120595873575 ,46,7707164208699 ,12,1544230921909
14.9933144 ,Left ,65,7071302522841 ,46,7752734675097 ,12,1835669505347
15.0161669 ,Left ,65,7106321263016 ,46,7819726614817 ,12,2145359886943
15.0308374 ,Left ,65,7137647422978 ,46,787537532913 ,12,248272715698
15.0608269 ,Left ,65,718848009133 ,46,788905964254 ,12,2824098587562
15.0833203 ,Left ,65,7205632242755 ,46,7964944756739 ,12,3128028782459
15.0984062 ,Left ,65,7171925372415 ,46,7966647548467 ,12,3439202662168
15.1134166 ,Left ,65,7178446023628 ,46,8015449650373 ,12,3763894708774
15.1358771 ,Left ,65,7178006060984 ,46,8048452210351 ,12,4081727140249
15.15855 ,Left ,65,7164229160722 ,46,8040666384366 ,12,4397278441485
15.1884604 ,Left ,65,71286647369 ,46,8021731522525 ,12,4746612824351
15.2184545 ,Left ,65,7201484630383 ,46,7937420010448 ,12,537281366382
15.233624 ,Left ,65,7202093538735 ,46,7934101435613 ,12,5635995791892
15.2560118 ,Left ,65,7158353709485 ,46,7977010656357 ,12,5873310342481
15.2710306 ,Left ,65,7085056355984 ,46,7989590701068 ,12,6085780190027
15.2933255 ,Left ,65,7070597059368 ,46,8023298654788 ,12,6242044464435
15.3166125 ,Left ,65,7000504963502 ,46,8108720159904 ,12,6395270230916
15.3463348 ,Left ,65,6887878320645 ,46,8166092983565 ,12,6512701656872
15.3612548 ,Left ,65,6860089648645 ,46,8243700610485 ,12,6648091826636
15.4056813 ,Left ,65,6803662636303 ,46,8278525128156 ,12,6884110168233
15.4209287 ,Left ,65,6783583569401 ,46,8242126659787 ,12,7002206243132
15.4435528 ,Left ,65,6773795042313 ,46,8189716295375 ,12,710811684711
15.4585523 ,Left ,65,6838770912194 ,46,8128051000357 ,12,7201945738505
15.4733155 ,Left ,65,6953331908499 ,46,8073969185441 ,12,7284590309509
15.4959496 ,Left ,65,7072876623383 ,46,7969589605585 ,12,737028723664
15.518286 ,Left ,65,7183534356887 ,46,7904026660425 ,12,7480713071314
15.5334859 ,Left ,65,7265154902366 ,46,781882845606 ,12,7555789674384
15.5557764 ,Left ,65,7391324888545 ,46,7739131488327 ,12,763670028199
15.5786859 ,Left ,65,7532760848628 ,46,7690582008953 ,12,7730430991496
15.5933632 ,Left ,65,7672956893936 ,46,7696416146053 ,12,7855469550277
15.623415 ,Left ,65,7779163560228 ,46,7732927232409 ,12,7942193380513
15.6458365 ,Left ,65,7825661916711 ,46,7712602347052 ,12,8032151491543
15.6608924 ,Left ,65,7921617968772 ,46,7667551325813 ,12,8108838450101
15.6760354 ,Left ,65,8011384158873 ,46,7629725906877 ,12,8191807944298
15.6982483 ,Left ,65,810139032348 ,46,764416158004 ,12,8254608989458
15.7132857 ,Left ,65,8200306139288 ,46,761970322835 ,12,8292375277595
15.7360304 ,Left ,65,8254678475482 ,46,7569682327674 ,12,8346384551338
15.7584713 ,Left ,65,8278053924165 ,46,7470178148596 ,12,8414663749752
15.7733891 ,Left ,65,8296329606995 ,46,7368593617564 ,12,8500070904343
15.8036093 ,Left ,65,8354094057147 ,46,7290418643747 ,12,8586266912537
15.8260382 ,Left ,65,8431273620965 ,46,7209713499276 ,12,8615107556582
15.8485058 ,Left ,65,8510540423884 ,46,7057878769761 ,12,8685381673385
15.863546 ,Left ,65,855559926653 ,46,6961952944149 ,12,8782053585485
15.8937859 ,Left ,65,8582666170081 ,46,686639428519 ,12,8884388516975
15.9083397 ,Left ,65,8631723743635 ,46,6781840380206 ,12,8953032482417
15.9233459 ,Left ,65,8647480484548 ,46,6666556992591 ,12,9014398605191
15.938525 ,Left ,65,8678718226503 ,46,6537341356222 ,12,9046312255984
15.9536069 ,Left ,65,8668395291547 ,46,6455924948018 ,12,9036091422794
15.9833979 ,Left ,65,8669731260254 ,46,6401501313617 ,12,9004424481078
16.0061196 ,Left ,65,8629078395916 ,46,6310197339845 ,12,8948340660322
16.0210319 ,Left ,65,8635886653109 ,46,629013500916 ,12,8901687991626
16.0436514 ,Left ,65,8628679139341 ,46,6281882381827 ,12,8832892941371
16.0583574 ,Left ,65,8580594044344 ,46,6304695747609 ,12,8795028475632
16.0734678 ,Left ,65,8560358972839 ,46,6323878370886 ,12,8779333902574
16.0958217 ,Left ,65,8560358972839 ,46,6323878370886 ,12,8779333902574
16.1183582 ,Left ,65,8479042344785 ,46,6315908715886 ,12,8734244163443
16.1334404 ,Left ,65,8358317658495 ,46,628452046715 ,12,8688362186526
16.1635292 ,Left ,65,820738395239 ,46,6243083853636 ,12,8596570907307
16.1860116 ,Left ,65,8007753803809 ,46,6132381553865 ,12,8546934381843
16.2008962 ,Left ,65,7782175504393 ,46,6022839556303 ,12,842343578053
16.2158058 ,Left ,65,7436943122864 ,46,5965913439944 ,12,8235857871681
16.2384934 ,Left ,65,7035499842214 ,46,5641769317444 ,12,7930913195104
16.2607466 ,Left ,65,6151453491451 ,46,4928640900673 ,12,7775223824586
16.2835889 ,Left ,65,5933505436652 ,46,427192140801 ,12,7787250709351
16.3059165 ,Left ,65,6193546545379 ,46,4103064135977 ,12,8037320549976
16.3208548 ,Left ,65,6859432088395 ,46,5000659825933 ,12,8250663774129
16.3358224 ,Left ,65,7009339451507 ,46,6295548168443 ,12,8178168170611
16.3590167 ,Left ,65,6854406163755 ,46,7083606694058 ,12,7913071682792
16.3808739 ,Left ,65,7031051237312 ,46,7594193119883 ,12,7567934193847
16.3958264 ,Left ,65,6582447056399 ,46,7778664445262 ,12,7150663644151
16.4182028 ,Left ,65,6093612450413 ,46,7856030968525 ,12,6801134527298
16.441624 ,Left ,65,5628738108547 ,46,808605276263 ,12,6314593468322
16.4565534 ,Left ,65,5365671193111 ,46,8136159018329 ,12,5812796655697
16.4785479 ,Left ,65,5039152390209 ,46,8009432753016 ,12,5347687197317
16.5012253 ,Left ,65,4701267832193 ,46,7710877207124 ,12,4856879435855
16.5158956 ,Left ,65,4177218591448 ,46,7296731852555 ,12,4394109485543
16.5463949 ,Left ,65,358416469722 ,46,6719307859918 ,12,4078545999587
16.5692153 ,Left ,65,2959048407664 ,46,5792861927949 ,12,3862865150182
16.5842053 ,Left ,65,2981786641427 ,46,4861976577929 ,12,3802030844497
16.5983457 ,Left ,65,2911239317481 ,46,432033760769 ,12,4035934820678
16.6214107 ,Left ,65,3580942290483 ,46,4957779132629 ,12,4058758626806
16.6362359 ,Left ,65,3758226746298 ,46,5694355593316 ,12,3932733260046
16.65845 ,Left ,65,3913045400803 ,46,5901659212341 ,12,3718072826773
16.6809147 ,Left ,65,3479315723861 ,46,6104742810537 ,12,3589136536315
16.6958759 ,Left ,65,310204754248 ,46,6310721298879 ,12,322891684619
16.7183578 ,Left ,65,2433779272369 ,46,6343851252339 ,12,2997436336086
16.7417748 ,Left ,65,1661444457461 ,46,6289723835462 ,12,3014466443665
16.7564627 ,Left ,65,195538888567 ,46,700537577879 ,12,3379950402494
16.7788605 ,Left ,65,2426474330175 ,46,8823588323119 ,12,3834560746993
16.8007856 ,Left ,65,2724162964972 ,47,0187719434382 ,12,4111627016337
16.8157998 ,Left ,65,2382431828413 ,47,0734533893544 ,12,4250506035383
16.8386173 ,Left ,65,236280321078 ,47,1005385577259 ,12,445392996458
16.8608189 ,Left ,65,2613334531566 ,47,0886250432455 ,12,4626858137366
16.8833099 ,Left ,65,2582285241567 ,47,0580780679709 ,12,4914740329889
16.8984664 ,Left ,65,2336169036042 ,47,0269318174231 ,12,5049746051814
16.920811 ,Left ,65,2197772258658 ,47,002459591887 ,12,5056837414221
16.9359383 ,Left ,65,2021585901855 ,46,9891577399329 ,12,5021115798059
16.9583394 ,Left ,65,1648779152635 ,46,9522779568528 ,12,4900236492245
16.980872 ,Left ,65,0820477674658 ,46,8932337529927 ,12,4880569591672
16.9961481 ,Left ,65,0648309680968 ,46,8309323449351 ,12,4973625850715
17.0260942 ,Left ,65,0587597115834 ,46,7924817338808 ,12,5046803209898
17.0483495 ,Left ,65,1037396140241 ,46,8356799066787 ,12,5192837841317
17.0633916 ,Left ,65,132811944854 ,46,9534230148227 ,12,5234213233164
17.0860268 ,Left ,65,147362825243 ,47,0260381836959 ,12,5189679719483
17.100804 ,Left ,65,1812269842741 ,47,0584545681744 ,12,5165252310692
17.1157875 ,Left ,65,1981158231938 ,47,0800513906994 ,12,510029185873
17.1385854 ,Left ,65,2258359976067 ,47,0707687427778 ,12,4867359402017
17.1609366 ,Left ,65,2400929761643 ,47,069583312657 ,12,468591252051
17.1760251 ,Left ,65,2429315090704 ,47,0660569588496 ,12,4427002737825
17.19826 ,Left ,65,2519939716112 ,47,0667933618483 ,12,4221988644888
17.2208537 ,Left ,65,2670540420067 ,47,0693502774517 ,12,3909530670084
17.2436435 ,Left ,65,2820672453509 ,47,0745077818229 ,12,3660680122001
17.2583859 ,Left ,65,3042550751098 ,47,077475618256 ,12,3377895008279
17.2807623 ,Left ,65,3149236750024 ,47,0820542333839 ,12,3122281414539
17.3033007 ,Left ,65,3130291167978 ,47,0846309537615 ,12,2926911471541
17.3185681 ,Left ,65,3174558234716 ,47,0759288150492 ,12,2700203470454
17.3485758 ,Left ,65,327310849484 ,47,0662606916171 ,12,2467380757979
17.3709399 ,Left ,65,3337554989919 ,47,0520592670142 ,12,220376926827
17.3862315 ,Left ,65,3353546635001 ,47,0370208340271 ,12,1950478186442
17.4012774 ,Left ,65,3359490129535 ,47,0267889332076 ,12,1709834972525
17.423435 ,Left ,65,3378302737919 ,47,0146535086922 ,12,1405073312346
17.438328 ,Left ,65,3448554003491 ,47,0062813210682 ,12,1038260898704
17.4608275 ,Left ,65,3517980370572 ,47,0040096705841 ,12,0639188763678
17.4834614 ,Left ,65,3594941838703 ,47,0177261507535 ,12,0291913999438
17.4983376 ,Left ,65,3741881529083 ,47,0311091427471 ,11,9887912708072
17.5209728 ,Left ,65,3830385995474 ,47,0363737067594 ,11,9473146989229
17.550885 ,Left ,65,3805576951639 ,47,0427823771844 ,11,9034326406132
17.5808284 ,Left ,65,3836882492189 ,47,0501529610959 ,11,8665653037653
17.6032895 ,Left ,65,3937363276342 ,47,0641103153767 ,11,8294433530685
17.6184892 ,Left ,65,4089842802405 ,47,0822386319772 ,11,8013455525446
17.648624 ,Left ,65,4175602347817 ,47,102953641739 ,11,7533483103802
17.6785186 ,Left ,65,4118131841835 ,47,1127738872609 ,11,7356026279043
17.6933217 ,Left ,65,4083675659223 ,47,1153003842273 ,11,7164454369119
17.7086172 ,Left ,65,3975362207374 ,47,1110243321075 ,11,6991200268951
17.7234446 ,Left ,65,3702015759462 ,47,0946005158157 ,11,6786540766782
17.7386532 ,Left ,65,3403260551137 ,47,064822730763 ,11,650068922421
17.7609611 ,Left ,65,3031747710137 ,47,0305414943322 ,11,6146494564888
17.7835343 ,Left ,65,2359368944914 ,46,9850650104123 ,11,5810754135707
17.7986403 ,Left ,65,2114329463749 ,46,946105722542 ,11,5609529579029
17.8207632 ,Left ,65,1853726357278 ,46,9132053223292 ,11,5779598372696
17.8432958 ,Left ,65,2188942182846 ,46,9426059275281 ,11,5950262952239
17.8583738 ,Left ,65,2466915234283 ,47,034490336689 ,11,6131610778446
17.8887174 ,Left ,65,2478170357025 ,47,0914493748402 ,11,6223812618444
17.9108039 ,Left ,65,270205557709 ,47,0982940244625 ,11,6307064834311
17.9260074 ,Left ,65,2742706207415 ,47,0938247998161 ,11,6353537764133
17.9408239 ,Left ,65,2499297426671 ,47,0498599114755 ,11,6372776245839
17.9633546 ,Left ,65,2300941272727 ,47,0108645100846 ,11,6487322001971
17.9782459 ,Left ,65,2362019523005 ,46,9821367823901 ,11,6577665248912
18.0085364 ,Left ,65,2474308399526 ,46,9674672791469 ,11,6760719278961
18.0309308 ,Left ,65,2594873503314 ,46,929109681118 ,11,6909852255019
18.0459013 ,Left ,65,2606597611299 ,46,8763744708871 ,11,7099021175361
18.0686793 ,Left ,65,2400880986805 ,46,8169723941884 ,11,7287506907635
18.0834818 ,Left ,65,2162555805179 ,46,7627488432067 ,11,7448776615258
18.0983598 ,Left ,65,1604725325525 ,46,6782979755201 ,11,7663098506028
18.1209576 ,Left ,65,1471848120989 ,46,5950309706851 ,11,7730091278152
18.1434905 ,Left ,65,1247751533327 ,46,5373916893198 ,11,7902089980024
18.1658282 ,Left ,65,2063848633263 ,46,5411778021805 ,11,8035376110698
18.1809001 ,Left ,65,2791267504689 ,46,6298413015124 ,11,8203807819936
18.2032834 ,Left ,65,3312589890871 ,46,7163411749779 ,11,8231741476473
18.2260378 ,Left ,65,3382032949812 ,46,762851878518 ,11,8300848179939
18.2411347 ,Left ,65,3784418179605 ,46,7806009607972 ,11,8335459435527
18.2711381 ,Left ,65,3892919732818 ,46,7886773292047 ,11,8444480501667
18.2936341 ,Left ,65,423279616082 ,46,7641656574843 ,11,858019575232
18.3084461 ,Left ,65,4572668119202 ,46,7399006564851 ,11,8867694649423
18.3240407 ,Left ,65,4927103596466 ,46,7120356588821 ,11,926128775569
18.3460344 ,Left ,65,5279076910491 ,46,6963840945344 ,11,9841411348888
18.3610724 ,Left ,65,5664519544621 ,46,6888002113193 ,12,0504845094093
18.3834278 ,Left ,65,6063205759112 ,46,6769521686828 ,12,1238837204308
18.4059435 ,Left ,65,6456284597095 ,46,6584435714317 ,12,2037632518471
18.4208597 ,Left ,65,6737967647737 ,46,6423806523989 ,12,2836088933518
18.4434138 ,Left ,65,6988638097964 ,46,6262386942899 ,12,3626364004406
18.4659227 ,Left ,65,7097945850004 ,46,6116010982864 ,12,4371213449916
18.4886006 ,Left ,65,709743291428 ,46,5941907652406 ,12,5085408015488
18.5110755 ,Left ,65,7018370404651 ,46,5781472264251 ,12,5765353162589
18.5408771 ,Left ,65,6836866017161 ,46,5412394916945 ,12,6805885025758
18.563378 ,Left ,65,6848404122484 ,46,5218187685272 ,12,7303758582595
18.5857089 ,Left ,65,687596722167 ,46,509438810716 ,12,7753532693116
18.6008664 ,Left ,65,6914272582363 ,46,5058825929521 ,12,8150648089991
18.6234081 ,Left ,65,6985959704666 ,46,5053963647166 ,12,8554452010384
18.6458107 ,Left ,65,7100371784148 ,46,5040602527154 ,12,8939812680087
18.6686049 ,Left ,65,7157378293502 ,46,504913656595 ,12,9372245530224
18.6910357 ,Left ,65,723702114803 ,46,5068267313162 ,12,9770531754404
18.7208488 ,Left ,65,7530560158983 ,46,5096721923215 ,13,0369955444036
18.7433182 ,Left ,65,7506627833791 ,46,5077158209807 ,13,0630219521603
18.7660407 ,Left ,65,742311288982 ,46,5053679344774 ,13,087435898421
18.7807122 ,Left ,65,7389205585443 ,46,5005049817442 ,13,110421715326
18.803203 ,Left ,65,7441550740323 ,46,5014754360818 ,13,1291049663629
18.8261681 ,Left ,65,7498062275717 ,46,5035757130501 ,13,1449800095013
18.8410683 ,Left ,65,741710625123 ,46,5049711249117 ,13,1582270835671
18.86345 ,Left ,65,7368136182042 ,46,5071290084659 ,13,1708621513626
18.885864 ,Left ,65,737744243484 ,46,5053595511995 ,13,1860624378308
18.9007412 ,Left ,65,7352455048484 ,46,505998621439 ,13,2036776807376
18.9235037 ,Left ,65,733046820748 ,46,5087137556557 ,13,2174386439218
18.9533548 ,Left ,65,731258326981 ,46,5125688064273 ,13,2283937560223
18.9758803 ,Left ,65,7266831382811 ,46,5168105555511 ,13,2371577223964
18.9983278 ,Left ,65,7205913658534 ,46,5224692310952 ,13,2488360106541
19.0136299 ,Left ,65,720070112303 ,46,5329631528197 ,13,251668857832
19.0284751 ,Left ,65,7171402229865 ,46,5442541987817 ,13,2557420507675
19.0433423 ,Left ,65,7120492398401 ,46,5552024308973 ,13,2569064926214
19.065998 ,Left ,65,7103166661893 ,46,5691829489991 ,13,2587922654535
19.0884096 ,Left ,65,7102027407839 ,46,5701158184472 ,13,2577487742987
19.1034207 ,Left ,65,7109871276217 ,46,5716672564078 ,13,2583762259966
19.1260757 ,Left ,65,7117716739393 ,46,5732186612787 ,13,2590036232713
19.1483208 ,Left ,65,7112892464443 ,46,5744673112177 ,13,2482954270004
19.1632892 ,Left ,65,7036358263811 ,46,572650468091 ,13,238181200487
19.1858769 ,Left ,65,6976403931239 ,46,569202735424 ,13,2199567908351
19.2160363 ,Left ,65,6965990462959 ,46,5619148969955 ,13,196408918658
19.2310457 ,Left ,65,6953533773776 ,46,5425727252002 ,13,1693832151296
19.2535993 ,Left ,65,6873919256602 ,46,5180538650537 ,13,1398234794801
19.2911379 ,Left ,65,6388833701161 ,46,4525905216026 ,13,0768430422826
19.3134284 ,Left ,65,5904504673047 ,46,3915874158701 ,13,039593737243
19.3282871 ,Left ,65,5352258802437 ,46,2989493639095 ,12,9966796543653
19.3434202 ,Left ,65,4572032957785 ,46,2003031414797 ,12,962908103616
19.365859 ,Left ,65,4246154981442 ,46,1294644004119 ,12,9287520403596
19.3884643 ,Left ,65,4190964152527 ,46,0992600646394 ,12,9168940214332
19.4032812 ,Left ,65,4645302174999 ,46,204804110846 ,12,9236582383496
19.4259303 ,Left ,65,4947601692719 ,46,3774695825287 ,12,9205204477334
19.448359 ,Left ,65,4785603280047 ,46,5055857778592 ,12,9151966133382
19.4633411 ,Left ,65,5070241474166 ,46,5966669409864 ,12,9046154574034
19.5159964 ,Left ,65,4998851174152 ,46,6807809216453 ,12,8863799459921
19.5390906 ,Left ,65,4727580508547 ,46,7386392683895 ,12,8480065910227
19.5765187 ,Left ,65,3616855586875 ,46,8416594664314 ,12,7218425715499
19.5910631 ,Left ,65,3413688411452 ,46,8585540165301 ,12,6715197973394
19.6134448 ,Left ,65,3372801673917 ,46,8722770410286 ,12,6325349027897
19.6290536 ,Left ,65,345598249822 ,46,8797574429998 ,12,5945342319442
19.6438631 ,Left ,65,3524137550343 ,46,8788855391882 ,12,5573222189119
19.6661907 ,Left ,65,3474673638009 ,46,8782931421112 ,12,5205571200049
19.688412 ,Left ,65,3552245533577 ,46,8832964626818 ,12,4829552064413
19.7033381 ,Left ,65,368531759225 ,46,8864011064021 ,12,4458574295315
19.7258874 ,Left ,65,3697126715424 ,46,8771993721583 ,12,4023811604153
19.7483976 ,Left ,65,3633520798651 ,46,8590172892131 ,12,3595925544385
19.7708982 ,Left ,65,3666923244635 ,46,8464173902487 ,12,3251006695097
19.8009259 ,Left ,65,3820602356008 ,46,8206378621041 ,12,2877802734591
19.8386507 ,Left ,65,385914690357 ,46,7437648680986 ,12,2422517560192
19.8533744 ,Left ,65,3765734216086 ,46,7096574526269 ,12,2278983185658
19.8912276 ,Left ,65,3399089841099 ,46,6089592136361 ,12,1953306278096
19.9133617 ,Left ,65,2715136806419 ,46,5405358880811 ,12,1943034101304
19.9283887 ,Left ,65,2113758071386 ,46,4333448458097 ,12,1892404353332
19.9508057 ,Left ,65,2065951037116 ,46,3577313461779 ,12,1919219135821
19.965893 ,Left ,65,2423884325098 ,46,3635976923235 ,12,1851446906598
19.9883294 ,Left ,65,3173756141929 ,46,4510587465257 ,12,1678061899457
20.0109228 ,Left ,65,3212477198929 ,46,5519435238968 ,12,1415496044286
20.0260775 ,Left ,65,2675091475754 ,46,5874883131801 ,12,1124163290999
20.0633297 ,Left ,65,2193697088414 ,46,6013411833694 ,12,0925626351891
20.085922 ,Left ,65,1704115948106 ,46,5951786487802 ,12,0635586329338
20.1007811 ,Left ,65,1237980051691 ,46,5650877714203 ,12,0422176777301
20.1309938 ,Left ,65,1098592639959 ,46,6138369690219 ,12,0651893911966
20.1533546 ,Left ,65,1778829347562 ,46,8052207143484 ,12,0920941746361
20.1758654 ,Left ,65,2589398801012 ,46,9698602080559 ,12,1254459056422
20.2058165 ,Left ,65,2729999162565 ,47,1033318741977 ,12,1628623011831
20.2285574 ,Left ,65,3024179822272 ,47,1315885424173 ,12,2024815886119
20.2518854 ,Left ,65,3203051478904 ,47,140106963062 ,12,2613546953
20.2664844 ,Left ,65,3237568376435 ,47,1582767570827 ,12,3149942434239
20.2883935 ,Left ,65,337929059621 ,47,1802452593521 ,12,3608515313844
20.3111261 ,Left ,65,3540247361094 ,47,1876238202223 ,12,4113566116582
20.325868 ,Left ,65,3677550762333 ,47,1749602852618 ,12,4565061070588
20.3484879 ,Left ,65,3791821771293 ,47,1477298959139 ,12,4976190386819
20.3711045 ,Left ,65,3685176333721 ,47,1072757865049 ,12,5281279253227
20.3857684 ,Left ,65,335909764972 ,47,054528195939 ,12,5452875736639
20.4083013 ,Left ,65,289190663452 ,46,9782427019513 ,12,5356815424835
20.4386506 ,Left ,65,2123957162302 ,46,8744881558334 ,12,49896035252
20.4537219 ,Left ,65,1545667159719 ,46,7876870133612 ,12,4676674671764
20.4759559 ,Left ,65,1197077214025 ,46,7692216395024 ,12,4798779740946
20.4908334 ,Left ,65,1528545805739 ,46,8720956804737 ,12,5142228046237
20.5058147 ,Left ,65,2242326223647 ,46,9968513764709 ,12,5210553561313
20.5283545 ,Left ,65,2723979644135 ,47,0816731336623 ,12,5182739126708
20.5508672 ,Left ,65,2849341770708 ,47,1080129216553 ,12,4975550398988
20.5658471 ,Left ,65,3017354111691 ,47,1259431261387 ,12,4858210672455
20.5959531 ,Left ,65,2906499034825 ,47,130045478948 ,12,4616696570907
20.618342 ,Left ,65,2968368497736 ,47,1142906140445 ,12,4429089743339
20.6334405 ,Left ,65,302252569665 ,47,0984801969398 ,12,4160714604966
20.6483484 ,Left ,65,3067195746675 ,47,074504163477 ,12,3883260284934
20.6708257 ,Left ,65,3195322186612 ,47,0587743688658 ,12,3592439263255
20.6860783 ,Left ,65,3345732051894 ,47,0441323917962 ,12,3267339154881
20.7158714 ,Left ,65,3521104536583 ,47,0356523645743 ,12,2984583740345
20.7388519 ,Left ,65,3687426648332 ,47,019028652473 ,12,2692265105747
20.754233 ,Left ,65,3929719505781 ,47,0043753067912 ,12,245382468438
20.7692338 ,Left ,65,4000320613653 ,46,9920935678791 ,12,224750081187
20.7909317 ,Left ,65,412026342902 ,46,9843213719918 ,12,2083982173107
20.8058913 ,Left ,65,4275005026501 ,46,9710140785915 ,12,1895932639328
20.828381 ,Left ,65,4409168749218 ,46,9589309071833 ,12,1753627232489
20.8590781 ,Left ,65,4470430205001 ,46,9467400232388 ,12,1633233624354
20.8738119 ,Left ,65,4512565510589 ,46,9438879870186 ,12,1487594350907
20.8966471 ,Left ,65,4499092599656 ,46,9461030650159 ,12,1337735365433
20.9113708 ,Left ,65,4559877488245 ,46,9490609590339 ,12,1102933782389
20.9261137 ,Left ,65,4628395027554 ,46,949957112092 ,12,0820534092426
20.9485565 ,Left ,65,4680658462563 ,46,9622070597863 ,12,0473318055915
20.9708318 ,Left ,65,4686330121435 ,46,9840222968271 ,12,0077248050309
20.9784173 ,Left ,65,4707203894697 ,47,0128495553776 ,11,9631396656756
21.0008694 ,Left ,65,4683156861332 ,47,0434071341415 ,11,909342090039
21.0234143 ,Left ,65,4607998540988 ,47,0748667209767 ,11,8542166614834
21.0757507 ,Left ,65,4509752108349 ,47,1243390891446 ,11,7262804982442
21.0986133 ,Left ,65,4370048828511 ,47,1383802531464 ,11,6699643483648
21.1209471 ,Left ,65,3948904737203 ,47,1442355263086 ,11,5730463306729
21.1433483 ,Left ,65,3500097247068 ,47,1340278336768 ,11,5248534659093
21.1807743 ,Left ,65,2135226791083 ,47,0696851145866 ,11,4595504324373
21.2033854 ,Left ,65,2015944879501 ,47,015518658668 ,11,4753646049584
21.2409987 ,Left ,65,2972445683046 ,47,0690800909108 ,11,527621460048
21.2632929 ,Left ,65,3192666891861 ,47,167707901624 ,11,5331796795143
21.2858061 ,Left ,65,3185883176625 ,47,1940715652333 ,11,5529557728592
21.301136 ,Left ,65,3415435630419 ,47,1618178015873 ,11,5563087217873
21.3233388 ,Left ,65,3181626195929 ,47,0768120340551 ,11,5652421317686
21.3609722 ,Left ,65,2616588648946 ,46,9220631710789 ,11,5964457444496
21.3836749 ,Left ,65,2586996437645 ,46,8727673170024 ,11,6336109482628
21.4208507 ,Left ,65,2417561532125 ,46,7564217754374 ,11,7114595143717
21.443334 ,Left ,65,1891677407872 ,46,6671578273813 ,11,7509073409179
21.4658268 ,Left ,65,1481283676645 ,46,5731975407397 ,11,7871965287086
21.4810051 ,Left ,65,1231888822887 ,46,4941086677223 ,11,8033827758924
21.5033015 ,Left ,65,172571281155 ,46,4845084987332 ,11,7984145637734
21.5333167 ,Left ,65,237922334558 ,46,570316593208 ,11,8010028254958
21.5483732 ,Left ,65,2960208444256 ,46,683202336352 ,11,7764155146836
21.5708315 ,Left ,65,2977658327598 ,46,7495480449259 ,11,7642999677436
21.6013998 ,Left ,65,3207890751234 ,46,7677793726658 ,11,763588202298
21.6238921 ,Left ,65,3455501841996 ,46,7554935277078 ,11,7620616961006
21.668613 ,Left ,65,3941294918307 ,46,7509440316661 ,11,8036191594236
21.7207537 ,Left ,65,4827307850562 ,46,7240326592257 ,11,9494763356116
21.7432543 ,Left ,65,5065891444335 ,46,7229195251387 ,12,0208713461835
21.780781 ,Left ,65,5487074515886 ,46,7118924524825 ,12,1738945547684
21.81113 ,Left ,65,5482607531639 ,46,7070630158679 ,12,2493714883678
21.8483424 ,Left ,65,5356306295306 ,46,6834192878154 ,12,4009955656373
21.8633632 ,Left ,65,5299077190813 ,46,6624878573341 ,12,4804631261933
21.9008172 ,Left ,65,5337921097206 ,46,6265342888636 ,12,6243772684114
21.9233328 ,Left ,65,5473951690834 ,46,6177262276514 ,12,6828405651845
21.9612739 ,Left ,65,56737899997 ,46,5978824279845 ,12,7891629529006
21.9832564 ,Left ,65,5795732827774 ,46,5967220308801 ,12,8358199257913
22.0282456 ,Left ,65,6053859960199 ,46,5901479608105 ,12,9048144440812
22.0583753 ,Left ,65,6242450061888 ,46,5904720972358 ,12,9336952676525
22.0885582 ,Left ,65,6537494074904 ,46,5965856408474 ,12,9888883674081
22.110914 ,Left ,65,6609156203263 ,46,5995580123954 ,13,0196700559474
22.1482831 ,Left ,65,6839918431691 ,46,5980674734039 ,13,06931877188
22.1639481 ,Left ,65,6881830703358 ,46,5954610201185 ,13,0912630378377
22.2009362 ,Left ,65,6928943950939 ,46,5968562364831 ,13,1218739266079
22.2310865 ,Left ,65,6946430966534 ,46,5973858972462 ,13,1314889035051
22.2607482 ,Left ,65,6936074042085 ,46,59828612975 ,13,1388964867996
22.2832626 ,Left ,65,6934946841364 ,46,5992180207401 ,13,1378421270533
22.3282657 ,Left ,65,6926365985117 ,46,6031180017177 ,13,1403368678966
22.3510804 ,Left ,65,6939110971912 ,46,6142627836986 ,13,1363780595056
22.4033707 ,Left ,65,7015000235947 ,46,6342951344192 ,13,0942685722108
22.4258722 ,Left ,65,697218981683 ,46,6468890279968 ,13,0796410678117
22.4634236 ,Left ,65,6985261687964 ,46,6498210596254 ,13,0446448600187
22.4858189 ,Left ,65,7095186207399 ,46,6319256199743 ,13,0294309305188
22.5307886 ,Left ,65,7094969437675 ,46,5677890242962 ,13,0095467050472
22.5541953 ,Left ,65,7043644568016 ,46,5329768766639 ,12,996346512779
22.5840578 ,Left ,65,6484606297626 ,46,4544704811904 ,12,9085104642082
22.6066155 ,Left ,65,6458966250532 ,46,4193689668138 ,12,8729433501659
22.6583735 ,Left ,65,7272886895237 ,46,5798514213103 ,12,9150703488031
22.6808698 ,Left ,65,7691965958584 ,46,7962037778903 ,12,9274513821964
22.7033608 ,Left ,65,7579656259093 ,46,9953230159291 ,12,8651752551494
22.7262212 ,Left ,65,7470635798081 ,46,9902576160614 ,12,8324942845299
22.7640293 ,Left ,65,6352111862537 ,46,8990188796315 ,12,7739369562889
22.7937566 ,Left ,65,5887520923402 ,46,8348250593868 ,12,7389772045817
22.8459143 ,Left ,65,5470044187875 ,46,682666742324 ,12,6219741961512
22.8908639 ,Left ,65,5238396139127 ,46,5946164511216 ,12,5402016609279
22.9509195 ,Left ,65,5257346006298 ,46,4406289467679 ,12,4877282900854
23.0044859 ,Left ,65,5824979292529 ,46,5865674379983 ,12,4308637490774
23.0265032 ,Left ,65,552527456664 ,46,6232056582996 ,12,4197076958705
23.0637531 ,Left ,65,3994690032494 ,46,6436243695197 ,12,3824268469141
23.0859291 ,Left ,65,31708961155 ,46,6270837495814 ,12,37465897632
23.1234942 ,Left ,65,3635412719982 ,46,7995093423601 ,12,4042806382508
23.1458895 ,Left ,65,3786538463688 ,46,9371420002611 ,12,412936925975
23.1833817 ,Left ,65,3186925209332 ,47,0329254954648 ,12,3899364005665
23.2133633 ,Left ,65,2984950871171 ,47,0303966854512 ,12,3947099124765
23.2659124 ,Left ,65,3050120426146 ,47,0174840415535 ,12,4632843767293
23.3041225 ,Left ,65,2577812940566 ,47,0365530156876 ,12,5194370582976
23.3262317 ,Left ,65,2177533585449 ,47,0328422327421 ,12,5541944380643
23.3708898 ,Left ,65,1378290950585 ,46,9795953270059 ,12,5821918960254
23.393664 ,Left ,65,0972688320905 ,46,9314320841588 ,12,5978725845754
23.4535771 ,Left ,65,1271742936185 ,47,1381798238741 ,12,6384368695734
23.5137435 ,Left ,65,092158114516 ,47,1774110248021 ,12,5745758814909
23.543451 ,Left ,65,1106909115694 ,47,1499637563563 ,12,5147564402094
23.5658397 ,Left ,65,1218655253398 ,47,1383609695322 ,12,4837424710381
23.6034504 ,Left ,65,1403462944325 ,47,1274785477448 ,12,4327740723958
23.6260547 ,Left ,65,1629793600875 ,47,1244076774883 ,12,4061751326823
23.6634543 ,Left ,65,2052925253861 ,47,1114103657097 ,12,3566468765563
23.6933991 ,Left ,65,213658848775 ,47,1027682023327 ,12,3312338609705
23.7538285 ,Left ,65,2402983605322 ,47,0673865808076 ,12,2591640875376
23.8065438 ,Left ,65,2409641750108 ,46,9842590697855 ,12,2101654927153
23.8435718 ,Left ,65,2398875539046 ,46,9235195489985 ,12,1870864832124
23.8735658 ,Left ,65,2452389525144 ,46,8937645147578 ,12,1773766993567
23.9113775 ,Left ,65,2675434514835 ,46,8592198416795 ,12,1629891636425
23.9263989 ,Left ,65,2693270774564 ,46,8447979043098 ,12,157823638346
23.963429 ,Left ,65,2902552345038 ,46,8266828007432 ,12,144544627889
23.9933104 ,Left ,65,3059273029365 ,46,8253249499864 ,12,13883016764
24.0308215 ,Left ,65,3248854783585 ,46,8361568607548 ,12,125528502102
24.0460668 ,Left ,65,3300604330265 ,46,844194972971 ,12,1184569764502
24.0833364 ,Left ,65,3519456841356 ,46,8589742391897 ,12,1163865612281
24.1059008 ,Left ,65,3533161958333 ,46,8705663110007 ,12,1157121261274
24.1438131 ,Left ,65,3477279578926 ,46,8852881050724 ,12,1272779428604
24.1664159 ,Left ,65,3499611336664 ,46,8876282066413 ,12,137835125258
24.2043429 ,Left ,65,3443799043503 ,46,8719771913556 ,12,1839401943286
24.2260931 ,Left ,65,3466561234676 ,46,864382518526 ,12,2038979855767
24.2633687 ,Left ,65,3424618712097 ,46,8443934509755 ,12,2521117185082
24.2859048 ,Left ,65,3374398104493 ,46,8366957440287 ,12,274262746039
24.3234304 ,Left ,65,3297058570768 ,46,8229955958552 ,12,3088486816328
24.3459284 ,Left ,65,3295791243311 ,46,8260638830776 ,12,3204971790744
24.3834328 ,Left ,65,3315329790504 ,46,8363129014074 ,12,3255516617787
24.4059468 ,Left ,65,3199334717903 ,46,8463201494578 ,12,3263982880416
24.4432904 ,Left ,65,3253137960923 ,46,8708604832424 ,12,3101886061188
24.4658289 ,Left ,65,3313281003503 ,46,8890317755147 ,12,2901860731222
24.5036178 ,Left ,65,3493778294908 ,46,9271980165749 ,12,2394433700255
24.5184113 ,Left ,65,3607854224598 ,46,9479275572006 ,12,2092494603978
24.5413212 ,Left ,65,3623739147806 ,46,9717188313589 ,12,1738060617417
24.5708685 ,Left ,65,3731283946037 ,46,9962261524308 ,12,1292535083589
24.5858386 ,Left ,65,3905893093633 ,47,0147175986519 ,12,0775766768266
24.6242443 ,Left ,65,4016846792774 ,47,0402912668073 ,11,9669666838919
24.6459191 ,Left ,65,3864224646784 ,47,0382633093161 ,11,9073697443296
24.6610817 ,Left ,65,3774505523629 ,47,0201666352618 ,11,8419128154433
24.6833463 ,Left ,65,3557172470956 ,46,9702321534323 ,11,7811947306072
24.6982889 ,Left ,65,3230332740562 ,46,9023457861082 ,11,7358496951344
24.720806 ,Left ,65,3148341605327 ,46,8372697020823 ,11,7140400770347
24.7440278 ,Left ,65,3170781800839 ,46,8069347948341 ,11,7116565691521
24.7591427 ,Left ,65,3808473921811 ,46,8596990727162 ,11,713543403098
24.7814275 ,Left ,65,4340681671897 ,46,9743897366704 ,11,7334347525274
24.8036985 ,Left ,65,4489647065901 ,47,0571802994707 ,11,7397250967959
24.8185126 ,Left ,65,5019303008779 ,47,1056542841073 ,11,741472693531
24.8410812 ,Left ,65,4957478831044 ,47,1381143799414 ,11,7381241274352
24.8709316 ,Left ,65,5078699656876 ,47,1626303854731 ,11,7311670062554
24.8865531 ,Left ,65,5143017835082 ,47,1807955435737 ,11,7309303041142
24.9243757 ,Left ,65,5366013690441 ,47,2253335985314 ,11,7302803613884
24.9392966 ,Left ,65,5587423283844 ,47,2594325742573 ,11,7356467005657
24.960853 ,Left ,65,5860739558987 ,47,2910494682841 ,11,7497640115132
24.9842833 ,Left ,65,6170915288155 ,47,3178943847972 ,11,7700952715824
25.0142781 ,Left ,65,6360381773774 ,47,3351759861514 ,11,7956261293203
25.0360959 ,Left ,65,6526973442272 ,47,3483374469813 ,11,829693233786
25.0733815 ,Left ,65,6856344839804 ,47,3541543471888 ,11,9030255771271
25.0886875 ,Left ,65,6959049058286 ,47,3474952492117 ,11,9446262130581
25.1183606 ,Left ,65,7175748582915 ,47,3201944201431 ,12,0346336148081
25.1409017 ,Left ,65,7212378918098 ,47,2982675651635 ,12,0879732501701
25.1634119 ,Left ,65,7188451593301 ,47,2695494489839 ,12,1443950800271
25.1786644 ,Left ,65,7127075356254 ,47,2488104574574 ,12,2113588400403
25.2011001 ,Left ,65,7120147724021 ,47,228422290209 ,12,2817722790281
25.2237129 ,Left ,65,7238677290019 ,47,2018556970095 ,12,3530994792937
25.2383605 ,Left ,65,7347498374107 ,47,1767973523823 ,12,4255200960085
25.261007 ,Left ,65,7414236607086 ,47,1610659379507 ,12,5027401004719
25.2835353 ,Left ,65,7468028275523 ,47,146439468264 ,12,5775897311168
25.2982935 ,Left ,65,7446925217739 ,47,1335765735422 ,12,6523344786092
25.3284006 ,Left ,65,7436573486353 ,47,1197959855401 ,12,7195343162562
25.35088 ,Left ,65,7421689872607 ,47,1064930708702 ,12,7821166299784
25.3664455 ,Left ,65,7437783613855 ,47,0956176301365 ,12,83675550807
25.3894877 ,Left ,65,7447875513066 ,47,0861479336974 ,12,8857270222896
25.4113921 ,Left ,65,7433180783499 ,47,0783459164641 ,12,9347556854938
25.4261957 ,Left ,65,7422415202293 ,47,0724095979696 ,12,9746905199149
25.4486685 ,Left ,65,7477886189379 ,47,0680328687532 ,13,0119411605773
25.4634205 ,Left ,65,7554634873299 ,47,0615351482884 ,13,0455967504797
25.4784027 ,Left ,65,7655630778639 ,47,0581561186145 ,13,0720414918289
25.5008747 ,Left ,65,7747546654447 ,47,0541253787647 ,13,0967798096321
25.524023 ,Left ,65,7793870547008 ,47,0544427829331 ,13,1138008929251
25.5393109 ,Left ,65,7838304205224 ,47,0470804139905 ,13,1264121028018
25.5616202 ,Left ,65,7934136534358 ,47,0426552051572 ,13,1392670927024
25.5834384 ,Left ,65,8022989086443 ,47,0419261944613 ,13,1493835634508
25.5988653 ,Left ,65,809954940436 ,47,0392438105735 ,13,1554383917529
25.6214842 ,Left ,65,815094156544 ,47,0382573968325 ,13,1616444836704
25.6444286 ,Left ,65,8214215895506 ,47,0399713964545 ,13,165670717224
25.6586718 ,Left ,65,8276259318566 ,47,0426079077322 ,13,1686477113658
25.6810612 ,Left ,65,8315632317348 ,47,0450938825148 ,13,1738781875669
25.703369 ,Left ,65,8320668515669 ,47,0453240884867 ,13,1721223606183
25.718805 ,Left ,65,8328028087576 ,47,0470360146458 ,13,1779328505027
25.7412628 ,Left ,65,8385794720308 ,47,0453455646932 ,13,1834244763798
25.7632723 ,Left ,65,8385794720308 ,47,0453455646932 ,13,1834244763798
25.7859338 ,Left ,65,8414600688942 ,47,0441982691594 ,13,1918771775902
25.8008705 ,Left ,65,8502123928064 ,47,0389393809917 ,13,1978357241143
25.8233613 ,Left ,65,867146627719 ,47,0351333756952 ,13,2021210841873
25.8460171 ,Left ,65,8816572041572 ,47,0266808044509 ,13,2045169406288
25.860917 ,Left ,65,8890525559136 ,47,0204020988603 ,13,2053550181846
25.8835173 ,Left ,65,8972296227968 ,47,0102526682638 ,13,203720392775
25.9058414 ,Left ,65,9059467333493 ,47,0096970700126 ,13,1974880207916
25.9210566 ,Left ,65,9134272381859 ,47,0072129466879 ,13,18719832044
25.9508948 ,Left ,65,9166149501498 ,47,0065164615534 ,13,1775797623617
25.9809249 ,Left ,65,9199348163665 ,47,0088418784456 ,13,1630674153164
25.9958628 ,Left ,65,9225281406263 ,47,0094664045239 ,13,1427409940557
26.0117131 ,Left ,65,9250067697096 ,47,0110214228318 ,13,121358455856
26.0486334 ,Left ,65,9134537595937 ,47,0197483266979 ,13,0867919598803
26.0711129 ,Left ,65,9077743707045 ,47,0198064989887 ,13,0670483991909
26.0860865 ,Left ,65,9026108088914 ,47,0200825150976 ,13,045551574177
26.1011177 ,Left ,65,8989791898277 ,47,0181967289008 ,13,0273781591081
26.1235512 ,Left ,65,8967087636107 ,47,0119008529883 ,13,0112144947437
26.1464199 ,Left ,65,8916911430314 ,46,9997923655175 ,12,9959301551763
26.1614054 ,Left ,65,8832267697587 ,46,9761974213567 ,12,9816991696665
26.1844276 ,Left ,65,8695317625278 ,46,9398575195436 ,12,9651185470889
26.2065076 ,Left ,65,8525161067748 ,46,8951946893723 ,12,9498264546951
26.2214606 ,Left ,65,8366095251595 ,46,8350108597267 ,12,9319959518636
26.2508807 ,Left ,65,8253769835196 ,46,7614173627697 ,12,9133661054142
26.2734545 ,Left ,65,7878254506451 ,46,6644141446683 ,12,891294593192
26.2888749 ,Left ,65,7723213182104 ,46,5873567602932 ,12,8820057459921
26.3040064 ,Left ,65,7555289287493 ,46,5532579831696 ,12,88937007075
26.3259117 ,Left ,65,7936671444692 ,46,5996155268879 ,12,8756247220942
26.3407717 ,Left ,65,8241886275879 ,46,7090415954342 ,12,8490636608911
26.3636619 ,Left ,65,7995795847278 ,46,7807847110243 ,12,7933815456136
26.3858444 ,Left ,65,7730259749133 ,46,8166280520977 ,12,7475287469237
26.4011776 ,Left ,65,7456900456658 ,46,8556575034529 ,12,6937241041519
26.4235832 ,Left ,65,7087564132842 ,46,882101816194 ,12,6356870365006
26.4460076 ,Left ,65,6758247419346 ,46,8980909811143 ,12,563804046174
26.4608227 ,Left ,65,6530581786181 ,46,8931609860192 ,12,4902003809774
26.4835042 ,Left ,65,622835656096 ,46,8687149234723 ,12,421197735121
26.5065953 ,Left ,65,5888540503593 ,46,8302928956001 ,12,3588542828196
26.5284803 ,Left ,65,5575580121829 ,46,7818718304443 ,12,3034209618635
26.5582705 ,Left ,65,5277219313827 ,46,7217200016873 ,12,2559272251418
26.5808342 ,Left ,65,4910517325767 ,46,6579377475042 ,12,220314691854
26.6034549 ,Left ,65,4486497295356 ,46,5619389344446 ,12,1836372017068
26.626102 ,Left ,65,4779341754285 ,46,6128733570925 ,12,1826736705441
26.6408575 ,Left ,65,5328407218168 ,46,7097578939416 ,12,1645879518297
26.6641495 ,Left ,65,5003769801413 ,46,7769905073709 ,12,1413036547615
26.6865676 ,Left ,65,4575860446847 ,46,8097537191349 ,12,1334448287033
26.7087175 ,Left ,65,4200406602091 ,46,8664567336005 ,12,1155709563212
26.7240364 ,Left ,65,3881930217891 ,46,9224965951617 ,12,1118950259207
26.7458912 ,Left ,65,3627362092596 ,46,9395488599831 ,12,1094588029569
26.7759804 ,Left ,65,3603471217626 ,46,9632580194168 ,12,139921528986
26.7909329 ,Left ,65,3696111588114 ,47,0254790694782 ,12,1714327682624
26.8358615 ,Left ,65,3631321200043 ,47,1940425375725 ,12,2133153621546
26.8584567 ,Left ,65,3299648425477 ,47,240613725534 ,12,2406833824609
26.8810128 ,Left ,65,3388961413525 ,47,266639788391 ,12,2705180643215
26.8958727 ,Left ,65,3179285248616 ,47,293111821836 ,12,2996110399013
26.9110118 ,Left ,65,3114731733514 ,47,3167218526017 ,12,3128150960469
26.9260246 ,Left ,65,2856081788346 ,47,2949924567215 ,12,3219094320374
26.9487724 ,Left ,65,2409471146809 ,47,2396561821483 ,12,3232668784524
26.9632758 ,Left ,65,2110727823163 ,47,1721976858601 ,12,3384611383763
26.9866482 ,Left ,65,2024436230874 ,47,1202509334197 ,12,3689285156232
27.0090772 ,Left ,65,2559344737443 ,47,158129752707 ,12,3866957162232
27.0312928 ,Left ,65,2900220166452 ,47,2798470328158 ,12,380169601839
27.0610697 ,Left ,65,2849808422247 ,47,3562703805089 ,12,3638359927358
27.0912559 ,Left ,65,319409019534 ,47,3829953966497 ,12,3516852357638
27.1136954 ,Left ,65,3615432250291 ,47,3969550060618 ,12,316996995346
27.1437088 ,Left ,65,3840278632944 ,47,3627563379277 ,12,2550101827725
27.1661489 ,Left ,65,3838650217629 ,47,3521088475283 ,12,2276269279605
27.1885462 ,Left ,65,3890006411858 ,47,3381977480452 ,12,1984854816817
27.2034562 ,Left ,65,4045169095838 ,47,3260350677278 ,12,1771751614495
27.2261009 ,Left ,65,4127937052944 ,47,3169458232644 ,12,1580065834497
27.2484571 ,Left ,65,4335682946374 ,47,313882478743 ,12,1433384029269
27.2636768 ,Left ,65,4527154139325 ,47,3099481102302 ,12,1303761564935
27.2860578 ,Left ,65,4768386888617 ,47,3053299143292 ,12,123794873695
27.3087127 ,Left ,65,5045775956626 ,47,2959446105918 ,12,1234107201221
27.3236371 ,Left ,65,5402720868463 ,47,2807833384985 ,12,1223683333296
27.3459605 ,Left ,65,582237657792 ,47,2666838365525 ,12,1266258472937
27.3761351 ,Left ,65,6119785719957 ,47,2509170925783 ,12,140284737058
27.3911885 ,Left ,65,6323720864827 ,47,2329633291718 ,12,1605948622434
27.4138442 ,Left ,65,6517574730372 ,47,2113592978703 ,12,1841331607393
27.4289107 ,Left ,65,6651471101479 ,47,189793316201 ,12,2161976236138
27.4510754 ,Left ,65,6794031075128 ,47,1688454893771 ,12,2500019223326
27.4808398 ,Left ,65,6976038641155 ,47,1564086988199 ,12,2956340685227
27.5109255 ,Left ,65,7132743298133 ,47,1131206113395 ,12,3845597045621
27.5258747 ,Left ,65,7094503900927 ,47,0889743966582 ,12,4269859310614
27.5493448 ,Left ,65,7090872867977 ,47,0761289060192 ,12,4630629617274
27.5646484 ,Left ,65,7099133871228 ,47,0666686381836 ,12,4907143804102
27.5859064 ,Left ,65,7126780756069 ,47,0646746028929 ,12,5169751362847
27.6089092 ,Left ,65,7113921923579 ,47,0719459546333 ,12,5264567106003
27.6311899 ,Left ,65,71542362767 ,47,0873571328867 ,12,5123205217093
27.645684 ,Left ,65,7163570075264 ,47,10653792168 ,12,4863001573164
27.6683973 ,Left ,65,7144513690161 ,47,1283270078625 ,12,444332254308
27.6910546 ,Left ,65,7035400427111 ,47,1533048607075 ,12,3885844392401
27.7059502 ,Left ,65,6911009007732 ,47,1773660897649 ,12,3177774952282
27.7283906 ,Left ,65,681216217825 ,47,1999636239114 ,12,2352809869875
27.7508949 ,Left ,65,6778472593062 ,47,2183238403378 ,12,1432473663265
27.7658556 ,Left ,65,6849642337806 ,47,2330828809832 ,12,0608949431958
27.7885674 ,Left ,65,6913897029556 ,47,2455935349267 ,11,9840143883315
27.8110642 ,Left ,65,6875269096566 ,47,2418020331993 ,11,9061552239659
27.8261754 ,Left ,65,667863429464 ,47,233479098397 ,11,832305373684
27.8485986 ,Left ,65,6483644748131 ,47,2116052022668 ,11,7525345885355
27.8713019 ,Left ,65,6369949455435 ,47,1751497884034 ,11,6853079731826
27.8861302 ,Left ,65,6354947265436 ,47,1261588919947 ,11,6280852061044
27.9161075 ,Left ,65,6378210140221 ,47,0632060965578 ,11,6221006951337
27.9384699 ,Left ,65,662035364922 ,46,9805743423266 ,11,6144701102162
27.9535552 ,Left ,65,7315888225589 ,46,9635629666969 ,11,6374003885603
27.968487 ,Left ,65,7853507109534 ,47,0843693778385 ,11,6682798299253
27.9909961 ,Left ,65,8541881469315 ,47,2124490032781 ,11,6905141542349
28.0058668 ,Left ,65,9094376835175 ,47,2869225778423 ,11,6950804565118
28.036021 ,Left ,65,8987569003473 ,47,3144183637866 ,11,6922554162951
28.0587793 ,Left ,65,8984455341752 ,47,3214662593744 ,11,6880064273926
28.0737711 ,Left ,65,9119036010308 ,47,3312126854314 ,11,6893147912429
28.0885336 ,Left ,65,9293879553125 ,47,3496573640748 ,11,6857400267369
28.1185956 ,Left ,65,9557498417179 ,47,3741255956416 ,11,6880765574991
28.133704 ,Left ,65,9830303440574 ,47,4008302465563 ,11,6996486971993
28.1559989 ,Left ,66,0190565480798 ,47,4353729541557 ,11,7147908013605
28.170873 ,Left ,66,0548020767307 ,47,4790400485749 ,11,7436815076763
28.1936899 ,Left ,66,0929974577504 ,47,518910093855 ,11,7765686856931
28.2159288 ,Left ,66,1278249487532 ,47,5526851742192 ,11,8188646256165
28.2537109 ,Left ,66,1688183825623 ,47,6040905986418 ,11,9285980349621
28.2758356 ,Left ,66,1753581971565 ,47,6229470626636 ,11,9931959787367
28.3059158 ,Left ,66,1779061762435 ,47,6431966741921 ,12,1238796350071
28.3285655 ,Left ,66,1752232206649 ,47,6402669582814 ,12,1920925047684
28.3509309 ,Left ,66,1644955887052 ,47,6356452623466 ,12,2616905802789
28.3734192 ,Left ,66,1473761108401 ,47,6217187698522 ,12,3277771169612
28.3958988 ,Left ,66,1225554649675 ,47,6019667485306 ,12,3893928095849
28.4258853 ,Left ,66,1011891686556 ,47,5465706200851 ,12,5097946417737
28.4484101 ,Left ,66,0941675844957 ,47,5090066986683 ,12,5723121588025
28.4711821 ,Left ,66,0797440183261 ,47,475356916861 ,12,6308934597903
28.493536 ,Left ,66,0661687459535 ,47,4431443662966 ,12,6849415216448
28.5161162 ,Left ,66,0530606400008 ,47,4151500433828 ,12,7311934106656
28.5458385 ,Left ,66,0307931813319 ,47,3694863769875 ,12,8116689031671
28.5683265 ,Left ,66,0111278871518 ,47,3508641155745 ,12,84351457958
28.5908952 ,Left ,65,9974569097077 ,47,331249727522 ,12,8679797702549
28.6136199 ,Left ,65,9874041993313 ,47,3167785068855 ,12,8893351403015
28.6287219 ,Left ,65,9772804916076 ,47,3030948369987 ,12,9044572184991
28.6509221 ,Left ,65,9620570928159 ,47,2896138188276 ,12,9195687642388
28.67344 ,Left ,65,9475397261105 ,47,2840273036864 ,12,9373392994134
28.6886316 ,Left ,65,9403876073511 ,47,2784219190524 ,12,9528698860128
28.7108615 ,Left ,65,9365878226348 ,47,270443858946 ,12,9660716615828
28.7336719 ,Left ,65,933400134066 ,47,2657157349261 ,12,9726095920109
28.7486735 ,Left ,65,9303267348386 ,47,2639989060055 ,12,9742214453208
28.7709064 ,Left ,65,9287426127572 ,47,2663070194933 ,12,9760378913955
28.7942116 ,Left ,65,9293236898612 ,47,2641454966492 ,12,9662903230317
28.8091494 ,Left ,65,9211779843783 ,47,2609991622238 ,12,9536478156308
28.8318039 ,Left ,65,9133253197301 ,47,2537497365587 ,12,9402836730358
28.8538438 ,Left ,65,9091849049805 ,47,2475234131756 ,12,9246346413596
28.8687611 ,Left ,65,9117910112938 ,47,2419566047496 ,12,9074052966562
28.8909015 ,Left ,65,9144561250025 ,47,2248009261072 ,12,8902163080568
28.9140628 ,Left ,65,914469434302 ,47,1977296977157 ,12,8747349881473
28.928932 ,Left ,65,9152611361512 ,47,1669556061591 ,12,8619298210382
28.9511698 ,Left ,65,9121861216954 ,47,1390718089532 ,12,8469401276015
28.973397 ,Left ,65,9011255670708 ,47,108707129887 ,12,8346272555833
28.9884911 ,Left ,65,8914063885065 ,47,069439414699 ,12,8201532723561
29.0109329 ,Left ,65,8757534028283 ,47,0257656868787 ,12,809976324121
29.0336737 ,Left ,65,8249837094473 ,46,9559871379023 ,12,8007696624424
29.055912 ,Left ,65,7986964018813 ,46,8953600426087 ,12,8125023768043
29.0785526 ,Left ,65,8016226673787 ,46,883260074704 ,12,8312187974373
29.1084455 ,Left ,65,8432512814119 ,47,0944853586665 ,12,84910382058
29.1308635 ,Left ,65,8262783814485 ,47,1758993639326 ,12,8357670855708
29.153618 ,Left ,65,8439811449472 ,47,2333105466855 ,12,8248861536192
29.1684582 ,Left ,65,8177849795868 ,47,2787782296423 ,12,7954273365366
29.1908965 ,Left ,65,794331568451 ,47,3030610319291 ,12,7547252330099
29.2208652 ,Left ,65,7622628838474 ,47,3207635865722 ,12,7078753779062
29.2360669 ,Left ,65,74829349859 ,47,3306173641156 ,12,6511482855184
29.2661516 ,Left ,65,7468275014491 ,47,3234872863295 ,12,5944054004088
29.2811237 ,Left ,65,7429406711191 ,47,3048619468241 ,12,5302039260629
29.3034445 ,Left ,65,7282274457612 ,47,2818935120507 ,12,4701432986754
29.3257759 ,Left ,65,7182272609101 ,47,2501092800182 ,12,413672555598
29.3410637 ,Left ,65,7098034981978 ,47,2054996618323 ,12,3611663960919
29.3559723 ,Left ,65,7001836861074 ,47,146975019732 ,12,3228203469835
29.3711336 ,Left ,65,6915348402083 ,47,0808714921098 ,12,2932162822255
29.3936749 ,Left ,65,6806711682408 ,46,999521714837 ,12,2673608554747
29.4159652 ,Left ,65,6305474163216 ,46,8875733254036 ,12,2483351949312
29.4311638 ,Left ,65,6407775476976 ,46,8023520110291 ,12,2468267609923
29.4534531 ,Left ,65,6630386574556 ,46,8044752924084 ,12,2625247982824
29.4838258 ,Left ,65,734498949213 ,46,8770299918344 ,12,2508690690156
29.4987018 ,Left ,65,7412403431979 ,46,959273069896 ,12,2454087219899
29.5436193 ,Left ,65,7260862243835 ,47,0089461676239 ,12,2150425427465
29.5584498 ,Left ,65,6732583540009 ,47,0706747822397 ,12,201552672104
29.5887458 ,Left ,65,6453404019898 ,47,1378656202371 ,12,1698414294459
29.6109685 ,Left ,65,5963935143483 ,47,2557200051113 ,12,1944170356505
29.6257988 ,Left ,65,6471488195149 ,47,4097681255299 ,12,2267535153713
29.6410051 ,Left ,65,6944687452761 ,47,5668322738254 ,12,2520572189501
29.6635634 ,Left ,65,708645544128 ,47,6563386435871 ,12,2578573294607
29.6785131 ,Left ,65,750156633201 ,47,693765800402 ,12,2464792642745
29.7010769 ,Left ,65,7521059427301 ,47,7003635089923 ,12,2295301237842
29.7309565 ,Left ,65,7736503897655 ,47,6643526056215 ,12,2012325092769
29.7690504 ,Left ,65,7713840937259 ,47,6449784910323 ,12,1826615469088
29.7984609 ,Left ,65,7708846033703 ,47,6447491416293 ,12,1843308791537
29.8361049 ,Left ,65,8077750858902 ,47,6589225625154 ,12,146137155241
29.8658977 ,Left ,65,8240570305851 ,47,6730941135122 ,12,1257605652191
29.8809534 ,Left ,65,8255965182623 ,47,6762393921507 ,12,1270828586685
29.8961158 ,Left ,65,8385882583015 ,47,6735828950012 ,12,126681678232
29.9108916 ,Left ,65,8454293701377 ,47,6604019195226 ,12,1188888264397
29.9337304 ,Left ,65,8401445679558 ,47,6439746491517 ,12,111164556532
29.9560962 ,Left ,65,8498281878993 ,47,6428087036689 ,12,097517075715
29.9711631 ,Left ,65,8702788039618 ,47,6531372789181 ,12,0754008774295
29.9938125 ,Left ,65,884813056196 ,47,6673900210191 ,12,055583730524
30.0158945 ,Left ,65,8885172322257 ,47,6891902616661 ,12,0433088272926
30.030871 ,Left ,65,8853868751382 ,47,7058328176731 ,12,0334953356804
30.0609751 ,Left ,65,8865241658195 ,47,7085531111617 ,12,0313673578669
30.0836616 ,Left ,65,9007319356558 ,47,7215525078829 ,12,0310691534021
30.0984391 ,Left ,65,9290500560317 ,47,7217631253119 ,12,0259795892328
30.1134474 ,Left ,65,9468451418974 ,47,71326430883 ,12,0191236976099
30.1435161 ,Left ,65,9496764668244 ,47,6901933230632 ,12,0118728068939
30.1583784 ,Left ,65,9502502294065 ,47,662405210489 ,12,0025901713804
30.1811655 ,Left ,65,9544145373528 ,47,6398274220123 ,11,99009435789
30.196197 ,Left ,65,9523882140871 ,47,6250118527359 ,11,9755956418136
30.2109458 ,Left ,65,9568274454138 ,47,6179782826797 ,11,971926920545
30.2334108 ,Left ,65,9606383285369 ,47,6161324535627 ,11,9730131207768
30.2558326 ,Left ,65,9563558934056 ,47,5957180042098 ,11,9794751027071
30.2711807 ,Left ,65,9496436710087 ,47,5688877343253 ,11,9932399728816
30.2935917 ,Left ,65,9385159643903 ,47,5478030401827 ,12,0064391668818
30.3160856 ,Left ,65,9294712879313 ,47,5166070708492 ,12,0065398937889
30.3308848 ,Left ,65,9081756503209 ,47,4850821984883 ,12,0035767998983
30.3684795 ,Left ,65,8750484632523 ,47,4575562102491 ,11,9947987268154
30.3910257 ,Left ,65,8283362916637 ,47,4135819303189 ,11,9793217679653
30.4136712 ,Left ,65,7541495320721 ,47,3552377996573 ,11,9610027676012
30.428747 ,Left ,65,7229618728683 ,47,2937614037671 ,11,9444214469858
30.4438606 ,Left ,65,7220486106403 ,47,2801333043836 ,11,9570867712839
30.4735265 ,Left ,65,8185186684059 ,47,4940808638707 ,11,9977847919057
30.495875 ,Left ,65,8393130425971 ,47,5684318220294 ,12,0083089917959
30.5258982 ,Left ,65,8809936709105 ,47,5981164108556 ,12,0191319719191
30.5410905 ,Left ,65,8830481512016 ,47,6258620275444 ,12,0358678253768
30.5637694 ,Left ,65,8793803641048 ,47,6306977017041 ,12,0296782937775
30.5788125 ,Left ,65,8798885944034 ,47,6302071656578 ,12,034284656306
30.5934917 ,Left ,65,8884759776889 ,47,6315744498012 ,12,0207188508913
30.6160489 ,Left ,65,8926497467467 ,47,630868447525 ,12,0190311738684
30.6384464 ,Left ,65,89910345281 ,47,6348816146872 ,12,0193510300825
30.6532565 ,Left ,65,9060676915898 ,47,6384004153268 ,12,0242772586266
30.6908753 ,Left ,65,9165856779564 ,47,6379943228008 ,12,0342414852239
30.7135093 ,Left ,65,9308938343333 ,47,6325394398831 ,12,0452695468462
30.7285222 ,Left ,65,9343046063292 ,47,6263480270873 ,12,0491261641175
30.7590101 ,Left ,65,9218874805528 ,47,6087079173517 ,12,0613153280059
30.7740869 ,Left ,65,9159135189294 ,47,5913055886551 ,12,0633202272696
30.796097 ,Left ,65,9062656510347 ,47,5658438817488 ,12,056868980519
30.8184723 ,Left ,65,8940036788181 ,47,542919113455 ,12,0492349097623
30.8334279 ,Left ,65,8835214117303 ,47,5296973304706 ,12,0432605375528
30.8563279 ,Left ,65,8786067440726 ,47,5250440709489 ,12,0337839864384
30.8787518 ,Left ,65,8725860125416 ,47,5215762823239 ,12,0202006158664
30.8938824 ,Left ,65,8659251753076 ,47,5208197170633 ,12,0050937557124
30.916079 ,Left ,65,8616543994586 ,47,5270544002664 ,11,9931633961331
30.9387253 ,Left ,65,8634378670607 ,47,5361675388265 ,11,9843303691449
30.9534435 ,Left ,65,8613291258041 ,47,5435373874453 ,11,968993767948
30.9834633 ,Left ,65,857461789733 ,47,5548027134067 ,11,948010453876
31.0058978 ,Left ,65,8508413189221 ,47,5670223204529 ,11,9183848357514
31.0211078 ,Left ,65,8464530412499 ,47,5832558619261 ,11,8970147079743
31.0361212 ,Left ,65,8472571072275 ,47,5933245803785 ,11,8789089126472
31.058662 ,Left ,65,8492399980301 ,47,5924999315723 ,11,8626627411665
31.0736169 ,Left ,65,8592801922848 ,47,5895588510174 ,11,8512446147488
31.0959478 ,Left ,65,8662375726129 ,47,5812316366438 ,11,8359538586302
31.1259612 ,Left ,65,8816880369316 ,47,5699294863761 ,11,8246471879785
31.1409362 ,Left ,65,8977506510005 ,47,55402527549 ,11,8191238338346
31.1635663 ,Left ,65,9091523486972 ,47,5294656867463 ,11,8251414551855
31.2011942 ,Left ,65,94886072271 ,47,4836806655609 ,11,8590380086246
31.2235187 ,Left ,65,9679488810555 ,47,455068722784 ,11,8787400407731
31.2611578 ,Left ,65,9725457984987 ,47,4019742209857 ,11,9276051700346
31.2836605 ,Left ,65,9626277048194 ,47,3779931020476 ,11,9523068767207
31.3212363 ,Left ,65,9400014034719 ,47,3303353368428 ,11,9993508675573
31.3437086 ,Left ,65,9275676666511 ,47,3087322922057 ,12,0177708212404
31.3658351 ,Left ,65,9145512120414 ,47,2885654630138 ,12,0304443050918
31.3890076 ,Left ,65,9006100888208 ,47,2693964886042 ,12,0339143508342
31.4042237 ,Left ,65,8890949009594 ,47,258645298315 ,12,0280977562373
31.4264001 ,Left ,65,8798486793344 ,47,2565323418447 ,12,0180890375283
31.4484541 ,Left ,65,8705992836955 ,47,259958303755 ,11,9944552503418
31.4636056 ,Left ,65,8675993120842 ,47,26994683188 ,11,9625392117856
31.4933559 ,Left ,65,8597240675134 ,47,282955059399 ,11,9254251223142
31.5385933 ,Left ,65,8414659648875 ,47,3053182452451 ,11,8381473082418
31.5535897 ,Left ,65,8231891781563 ,47,3194324389595 ,11,7898129019558
31.583491 ,Left ,65,8063756026995 ,47,2986757725863 ,11,6943088264534
31.5986984 ,Left ,65,7794071707456 ,47,2442623862336 ,11,6451992196779
31.6208166 ,Left ,65,7256878396627 ,47,1626043597706 ,11,6111747629468
31.6360667 ,Left ,65,709854322165 ,47,0878114072744 ,11,5907094382387
31.6585288 ,Left ,65,748511698153 ,47,0634263620573 ,11,5962564857628
31.6817225 ,Left ,65,8161588336146 ,47,1659160688418 ,11,6122641739733
31.6965287 ,Left ,65,8640209436102 ,47,2965804572098 ,11,6174779826091
31.7192831 ,Left ,65,8640692002931 ,47,3725777318209 ,11,6236852477004
31.7412543 ,Left ,65,9156453774263 ,47,4117729812994 ,11,6194519299948
31.7561686 ,Left ,65,9292346998975 ,47,4336467042463 ,11,6074482487298
31.7783253 ,Left ,65,9449343735737 ,47,4315875146138 ,11,587672588398
31.8008482 ,Left ,65,9314449664609 ,47,4309144841887 ,11,5781121939383
31.8160751 ,Left ,65,9367915793735 ,47,4385283964286 ,11,5605354996239
31.8393061 ,Left ,65,9672584281636 ,47,459817595483 ,11,5544813230066
31.8616689 ,Left ,66,010608800704 ,47,4808951925247 ,11,5510726501024
31.8764473 ,Left ,66,0624361724384 ,47,5018918596687 ,11,5633456849441
31.8985082 ,Left ,66,1030856818496 ,47,5203996006451 ,11,5830502179215
31.9135141 ,Left ,66,1396621694212 ,47,5378171302066 ,11,6119038242419
31.9284547 ,Left ,66,1774480350994 ,47,5578843287563 ,11,6386666634257
31.9510591 ,Left ,66,2072060275814 ,47,5725404790765 ,11,6613383321805
31.9734157 ,Left ,66,2275615286845 ,47,5820033516899 ,11,6789993311318
31.9887732 ,Left ,66,2399028243586 ,47,5819499688189 ,11,6937893496751
32.0108634 ,Left ,66,2388664902294 ,47,5735412841644 ,11,7094995053301
32.0409025 ,Left ,66,2283532884009 ,47,5600033207262 ,11,7202155567218
32.0558656 ,Left ,66,2106592600584 ,47,5408432119829 ,11,7299099210423
32.0859624 ,Left ,66,1962425814523 ,47,5216348579803 ,11,7403695537561
32.1010333 ,Left ,66,1861899835808 ,47,5040665218685 ,11,7502110609947
32.115881 ,Left ,66,1703267353262 ,47,4884813625054 ,11,7647753013076
32.1308667 ,Left ,66,1554272851491 ,47,4726018341592 ,11,7823573488061
32.153458 ,Left ,66,1401950842973 ,47,4630774640019 ,11,8019608610396
32.1684724 ,Left ,66,1251340604306 ,47,4601284298167 ,11,821968187162
32.190911 ,Left ,66,107284245878 ,47,4567374242154 ,11,8458440135885
32.2136227 ,Left ,66,0980432312547 ,47,4546189024479 ,11,8728414702673
32.2291911 ,Left ,66,0803747677314 ,47,4538722802414 ,11,9033211836489
32.2515227 ,Left ,66,0714667865592 ,47,4566773692296 ,11,9380554240471
32.2740521 ,Left ,66,0638297956854 ,47,4605473580067 ,11,9780482510603
32.2891571 ,Left ,66,0590305915047 ,47,4641391620551 ,12,0203457832325
32.3113459 ,Left ,66,0526324945979 ,47,4700084416067 ,12,0643935919792
32.3333892 ,Left ,66,045288029052 ,47,4722323143832 ,12,1116403757641
32.3494011 ,Left ,66,0387694467816 ,47,4760307248365 ,12,1595140817606
32.3712162 ,Left ,66,0348395048757 ,47,4737169901591 ,12,2030803932559
32.3934761 ,Left ,66,0298126741788 ,47,468685118793 ,12,2487193505416
32.4089315 ,Left ,66,0230098718656 ,47,4591964043113 ,12,2906551105118
32.4310925 ,Left ,66,0184151336196 ,47,4501008868771 ,12,3354257256661
32.4534798 ,Left ,66,0267499562507 ,47,4367376900051 ,12,3721271795944
32.4687033 ,Left ,66,0320458259337 ,47,425529112651 ,12,4042550429469
32.4910072 ,Left ,66,0369463390525 ,47,41390432682 ,12,4329089412887
32.5134644 ,Left ,66,0401706553899 ,47,4000773239621 ,12,4591158917714
32.5358176 ,Left ,66,0434848723091 ,47,3860748965243 ,12,4801745720644
32.5661249 ,Left ,66,0441474181525 ,47,3746554892077 ,12,5001635619357
32.5887404 ,Left ,66,0417769296651 ,47,3706681122368 ,12,5136428034948
32.5959423 ,Left ,66,0430551431893 ,47,3724575176758 ,12,5126116547738
32.6109161 ,Left ,66,0482455466711 ,47,3661509915296 ,12,5157604464189
32.6335039 ,Left ,66,0443349703791 ,47,3544097309516 ,12,5185626476247
32.6565733 ,Left ,66,0365823140125 ,47,3393546193401 ,12,5223053290569
32.6784551 ,Left ,66,0328650326273 ,47,3212757371773 ,12,5230797150525
32.7085442 ,Left ,66,0358658977851 ,47,2994808731548 ,12,5179810307329
32.7308541 ,Left ,66,0297141055966 ,47,2967302444734 ,12,514947920995
32.7535431 ,Left ,66,0175732229039 ,47,293486965281 ,12,5101247517452
32.7910873 ,Left ,65,9970302786021 ,47,2925201075682 ,12,5025167352875
32.8208783 ,Left ,65,9953998448697 ,47,2948129492359 ,12,5043294465454
32.8815299 ,Left ,65,999857256944 ,47,2914342455073 ,12,5110436231591
32.9191356 ,Left ,66,0103421561059 ,47,2830780354168 ,12,5381022943497
32.9333806 ,Left ,66,0260409483578 ,47,2783393693575 ,12,5539450660824
32.9711618 ,Left ,66,0360449179586 ,47,2657517199904 ,12,5887217190983
32.9934061 ,Left ,66,0397536498245 ,47,2560659321714 ,12,6070540800418
33.0311555 ,Left ,66,0335305636367 ,47,240091857213 ,12,6398228941463
33.0534405 ,Left ,66,0251582538927 ,47,2270442938015 ,12,648223786018
33.0909138 ,Left ,66,0024725922359 ,47,2049731345078 ,12,6674965230448
33.1133926 ,Left ,65,9925962937867 ,47,1933054004526 ,12,678813787422
33.1509551 ,Left ,65,9791963843604 ,47,1703112475968 ,12,6963703483962
33.1733213 ,Left ,65,9748309089797 ,47,1628390727734 ,12,7050855779494
33.2110105 ,Left ,65,9571338026529 ,47,1554320583918 ,12,7245809446043
33.2334259 ,Left ,65,9436614139443 ,47,1425836181662 ,12,7329898442341
33.2709862 ,Left ,65,9197872646069 ,47,1186352187618 ,12,7482023373227
33.2936504 ,Left ,65,9146156884555 ,47,1103733034012 ,12,7500430648802
33.3309124 ,Left ,65,9070397750639 ,47,1028640569519 ,12,7530646737982
33.3534323 ,Left ,65,8989464389813 ,47,0958796542061 ,12,7515630631955
33.3911304 ,Left ,65,8884250197834 ,47,0911339167561 ,12,7387664005721
33.4216239 ,Left ,65,884988901912 ,47,0929290941864 ,12,7308906013088
33.4589529 ,Left ,65,8848389876988 ,47,0801814014165 ,12,7120285135607
33.4743196 ,Left ,65,884302824105 ,47,0623439675781 ,12,7020053015395
33.5112545 ,Left ,65,864256766783 ,47,0292436358604 ,12,6643691601254
33.5338043 ,Left ,65,8445124583976 ,47,0073646758689 ,12,6364054264363
33.5710687 ,Left ,65,7536137171528 ,46,8757984978487 ,12,5650000026183
33.5933603 ,Left ,65,7194198745568 ,46,7700632823262 ,12,5423274735854
33.6158585 ,Left ,65,6816716341165 ,46,7113438555865 ,12,5525110494447
33.6317549 ,Left ,65,6833219496076 ,46,7444928300023 ,12,5674425551755
33.6534561 ,Left ,65,6952319678375 ,46,8494789628253 ,12,588297520182
33.6911215 ,Left ,65,7381668876702 ,47,0353584200905 ,12,5689317288617
33.713622 ,Left ,65,750285667623 ,47,0792057132096 ,12,5567825127438
33.751688 ,Left ,65,662702407347 ,47,1215851441668 ,12,5145803922395
33.7816102 ,Left ,65,6437007661513 ,47,1309847958661 ,12,47587106296
33.8336779 ,Left ,65,5900121728582 ,47,128087019483 ,12,3196289313714
33.8717754 ,Left ,65,5544242956067 ,47,0493937324726 ,12,2035461039779
33.894102 ,Left ,65,5357720818775 ,46,9665604478374 ,12,1580461973397
33.9394071 ,Left ,65,4794399943657 ,46,7464601454947 ,12,0911183128395
33.9614021 ,Left ,65,4813030027201 ,46,6614248562077 ,12,0711226336994
33.9910732 ,Left ,65,490837698163 ,46,6764279241525 ,12,0864274699144
34.0359237 ,Left ,65,6326933804549 ,46,8866292171843 ,12,0656652434037
34.0435279 ,Left ,65,5930183091948 ,46,9069879488757 ,12,0398604090718
34.0808615 ,Left ,65,4693214971396 ,46,9173748657672 ,12,0053237915
34.1337273 ,Left ,65,416093168134 ,46,9618942572151 ,12,03864906781
34.1560465 ,Left ,65,460143221752 ,47,1346454198935 ,12,1007556159235
34.1939267 ,Left ,65,5314486850736 ,47,3357129521558 ,12,1606323480455
34.2163187 ,Left ,65,5424784694948 ,47,3635637753595 ,12,1860788907483
34.2689306 ,Left ,65,5715591947391 ,47,3916679870277 ,12,2561674213165
34.2984862 ,Left ,65,5559552203228 ,47,4205391126159 ,12,2752682516251
34.3135303 ,Left ,65,5284092781864 ,47,4139903631261 ,12,2882119203551
34.3509347 ,Left ,65,4964097084568 ,47,3238597817506 ,12,3159971907371
34.3735041 ,Left ,65,472381911213 ,47,2606853894147 ,12,3098400586942
34.3960044 ,Left ,65,4118578552579 ,47,172688745971 ,12,2762518848157
34.4336304 ,Left ,65,3519912402 ,47,073806302304 ,12,2416817901487
34.4558762 ,Left ,65,4043457620374 ,47,1819299519411 ,12,2488078146921
34.4934441 ,Left ,65,4439138016969 ,47,3752340651944 ,12,2522247510943
34.5459238 ,Left ,65,4941639296326 ,47,4453286024336 ,12,216038822149
34.568478 ,Left ,65,5112985084841 ,47,455430018915 ,12,1931769601465
34.6141911 ,Left ,65,5471977378827 ,47,4976061463643 ,12,1258291714096
34.6587504 ,Left ,65,5971321230338 ,47,5028647849046 ,12,0903252460632
34.6959104 ,Left ,65,6297376402172 ,47,5004604275031 ,12,0691024440264
34.7335124 ,Left ,65,6384612662255 ,47,4826790954056 ,12,0565170782609
34.7633991 ,Left ,65,6342279708684 ,47,4668430778547 ,12,0506161195256
34.8317089 ,Left ,65,6376132118538 ,47,4078091332587 ,12,0149287930768
34.8608878 ,Left ,65,6381772105571 ,47,3841935526071 ,11,9780732549556
34.8761028 ,Left ,65,6339745291141 ,47,3753447792113 ,11,9510138691521
34.9143339 ,Left ,65,6108773558223 ,47,3717526990993 ,11,8959197285039
34.9362384 ,Left ,65,6107086741536 ,47,3796470194832 ,11,8736062714921
34.9736663 ,Left ,65,5938878331858 ,47,3890951625395 ,11,8272381186311
34.9961043 ,Left ,65,5862197788511 ,47,3953822714037 ,11,8047035640919
35.0336746 ,Left ,65,583528353873 ,47,4154399913235 ,11,7664921303145
35.0640456 ,Left ,65,5733654698815 ,47,4233014205841 ,11,7438217144946
35.1011937 ,Left ,65,545494464354 ,47,4404324727719 ,11,6833117512941
35.1165807 ,Left ,65,5186291149741 ,47,4391912834792 ,11,6424249629504
35.15424 ,Left ,65,424224947791 ,47,418498751211 ,11,5363822337663
35.1765142 ,Left ,65,3684860923997 ,47,4109870981587 ,11,474187645807
35.2135059 ,Left ,65,2535201657913 ,47,3517864837216 ,11,3771863087754
35.2358992 ,Left ,65,2178301784615 ,47,3094132821706 ,11,3970865488893
35.2734756 ,Left ,65,3226899883466 ,47,4798719796548 ,11,4710665558442
35.3034428 ,Left ,65,3188218365812 ,47,5153499049851 ,11,4983555963372
35.3408583 ,Left ,65,3487931107986 ,47,4197880252451 ,11,5237163302995
35.3560134 ,Left ,65,3657929094813 ,47,3419831417321 ,11,5307777618496
35.3935417 ,Left ,65,3813121534249 ,47,1638152697526 ,11,5647782907766
35.416037 ,Left ,65,3595086881167 ,47,1068526000949 ,11,5837310124818
35.431153 ,Left ,65,3698773585712 ,47,0339462414997 ,11,5784118135998
35.4458093 ,Left ,65,3714552947741 ,46,919966221357 ,11,5698247044624
35.4684215 ,Left ,65,4213014869066 ,46,7980412552809 ,11,5592040284926
35.4910452 ,Left ,65,474925825832 ,46,6800387735804 ,11,5771397893762
35.5058231 ,Left ,65,5886409381904 ,46,6617028528294 ,11,6091715986702
35.528436 ,Left ,65,6792511477744 ,46,7575502848706 ,11,638216537327
35.551155 ,Left ,65,7468197943203 ,46,8701045563332 ,11,6631385880097
35.5735042 ,Left ,65,8023041946246 ,46,9550443074683 ,11,6647189375947
35.5887049 ,Left ,65,8548431477938 ,46,9918092497225 ,11,6598953646884
35.6109565 ,Left ,65,8366450770406 ,47,0083317769577 ,11,6603122104406
35.6259971 ,Left ,65,8326212389274 ,47,0028756932453 ,11,6651638914495
35.648551 ,Left ,65,8446142809485 ,47,0095997826051 ,11,6803431194102
35.670947 ,Left ,65,8674136288266 ,47,002814370634 ,11,6972742678247
35.6936266 ,Left ,65,8924452656788 ,47,0041309861752 ,11,7320493748049
35.7161493 ,Left ,65,9174766066368 ,46,9929494139955 ,11,7744284592499
35.7459297 ,Left ,65,972842718416 ,46,9863346981538 ,11,8868869017009
35.7683881 ,Left ,65,997007185926 ,46,9832379589372 ,11,9511147825052
35.7909235 ,Left ,66,0025205993566 ,46,9824801771715 ,12,017663723186
35.8059331 ,Left ,66,0010030581448 ,46,9852674904454 ,12,0751076397874
35.8283579 ,Left ,65,9874499664406 ,46,9816191519151 ,12,1326775409476
35.8511829 ,Left ,65,9737533243736 ,46,9798799284833 ,12,187921332964
35.8734475 ,Left ,65,9651578069103 ,46,9797238022953 ,12,2357616241106
35.8960441 ,Left ,65,9584179271114 ,46,9763411167082 ,12,2828391289266
35.9260091 ,Left ,65,9517032297628 ,46,9790831143318 ,12,3783704837966
35.9491196 ,Left ,65,9493481123851 ,46,9834144839057 ,12,4216689988136
35.9790612 ,Left ,65,940742384885 ,46,9868306872931 ,12,4597030960564
35.9937074 ,Left ,65,9361513424926 ,46,9881440541615 ,12,4935892403206
36.015948 ,Left ,65,9304786475419 ,46,9822596995322 ,12,5253128929248
36.0309678 ,Left ,65,9240569229298 ,46,9800448689007 ,12,55438393434
36.0458967 ,Left ,65,9133467045974 ,46,9750511099248 ,12,5798519603671
36.0684224 ,Left ,65,9014981433964 ,46,972592276885 ,12,605451849784
36.099244 ,Left ,65,8921074568213 ,46,9726126849447 ,12,6300162615436
36.1134131 ,Left ,65,8860282534541 ,46,9680178461238 ,12,6508986783189
36.144347 ,Left ,65,8757343208585 ,46,9589851363844 ,12,675535270987
36.1591961 ,Left ,65,8620073309304 ,46,9523138307467 ,12,7025757163531
36.1816417 ,Left ,65,8547061588362 ,46,9557054735764 ,12,7266969644085
36.1965446 ,Left ,65,8534125415456 ,46,9582662644271 ,12,7484857627903
36.2115237 ,Left ,65,8447224699746 ,46,957622873529 ,12,7723618351084
36.2410184 ,Left ,65,8381017890787 ,46,9582880045985 ,12,798025192403
36.2634472 ,Left ,65,8318474604287 ,46,955599788814 ,12,816678902499
36.2859488 ,Left ,65,8311903029889 ,46,9529483250071 ,12,8335874837346
36.3008709 ,Left ,65,8303031511428 ,46,9521557197632 ,12,8483342561366
36.3161396 ,Left ,65,8310484103264 ,46,9490422362277 ,12,8612405367915
36.331202 ,Left ,65,8312867300006 ,46,9464469723369 ,12,8696282389965
36.3534565 ,Left ,65,8325257469917 ,46,9429801706573 ,12,8705887889765
36.3686137 ,Left ,65,833717787693 ,46,935010282161 ,12,8673515249637
36.3909853 ,Left ,65,8341373277176 ,46,9262196938262 ,12,8572304127208
36.4136775 ,Left ,65,8385705320974 ,46,9091046914407 ,12,8461008177993
36.4287243 ,Left ,65,8422538971023 ,46,8904325396518 ,12,8343105971153
36.4586367 ,Left ,65,8348380481669 ,46,8630557858034 ,12,8226637661372
36.4808686 ,Left ,65,8189970697414 ,46,8243274760953 ,12,8121252230972
36.496079 ,Left ,65,7906040930384 ,46,7737390669928 ,12,8004544227924
36.5186282 ,Left ,65,7700420688175 ,46,6894765869919 ,12,775487786343
36.5408299 ,Left ,65,7350199019155 ,46,5768636832088 ,12,7489531910164
36.5559929 ,Left ,65,7303059088799 ,46,469963826648 ,12,7342405948915
36.5709007 ,Left ,65,7412133248075 ,46,3908796396999 ,12,7401742683461
36.6012661 ,Left ,65,7777909146936 ,46,4376446185222 ,12,7401538352047
36.6161545 ,Left ,65,7919298311342 ,46,5590447925717 ,12,7255648221131
36.638645 ,Left ,65,781587107461 ,46,6558068720251 ,12,6930052161266
36.6761083 ,Left ,65,8002456464084 ,46,7270350965772 ,12,6265787551691
36.7060094 ,Left ,65,753428419693 ,46,7375669207778 ,12,5810738363324
36.7284278 ,Left ,65,6921279157643 ,46,7407665998031 ,12,5293888986773
36.7436981 ,Left ,65,6601648903243 ,46,7515538596937 ,12,4577403636624
36.7585684 ,Left ,65,6409184293904 ,46,7539598238534 ,12,3739496897352
36.7960416 ,Left ,65,5510105068056 ,46,702811500084 ,12,2162856783234
36.8184539 ,Left ,65,5156153349915 ,46,6279495361347 ,12,1574508042086
36.8560394 ,Left ,65,5148352095022 ,46,689776779017 ,12,1774231815524
36.8709655 ,Left ,65,5658816316426 ,46,8118083141533 ,12,1813812831763
36.8935146 ,Left ,65,549786535917 ,46,8699776005366 ,12,1727052496517
36.9159782 ,Left ,65,5389642843638 ,46,8896706323961 ,12,1672212681942
36.9309853 ,Left ,65,4919617886085 ,46,9030032708329 ,12,1646121184677
36.9537132 ,Left ,65,4524676355932 ,46,9329685163941 ,12,1506075076145
36.9764772 ,Left ,65,386669293432 ,46,9543554763961 ,12,1433424488893
36.991512 ,Left ,65,3740616148492 ,46,9475463305962 ,12,1568249341845
37.0134817 ,Left ,65,3752300129327 ,46,9968927842693 ,12,185375836542
37.028446 ,Left ,65,4061804208276 ,47,0819801843932 ,12,1879964091676
37.0659212 ,Left ,65,3852703777702 ,47,1495192061435 ,12,1919459807231
37.0884447 ,Left ,65,3701302471959 ,47,1808472228933 ,12,1939414452532
37.1259257 ,Left ,65,3436333850934 ,47,2902938660822 ,12,2074226189043
37.1411822 ,Left ,65,3010631876649 ,47,3104244727211 ,12,1914904184006
37.164004 ,Left ,65,2239310478948 ,47,2902057923033 ,12,1705177404554
37.1786075 ,Left ,65,1580541203918 ,47,2469652309117 ,12,1751067912618
37.1939137 ,Left ,65,1338829757216 ,47,1821477489821 ,12,1951991516749
37.2166119 ,Left ,65,1903865616602 ,47,2278986660874 ,12,2013550892308
37.2315275 ,Left ,65,2080476051178 ,47,3820688829655 ,12,2036521519137
37.2538456 ,Left ,65,2270244755593 ,47,5109094263033 ,12,2033388546136
37.2841314 ,Left ,65,2459785050248 ,47,5805855173227 ,12,2107060794554
37.2984383 ,Left ,65,2857165865166 ,47,6231125447402 ,12,2072785687403
37.3210111 ,Left ,65,2728166334362 ,47,6448907316744 ,12,1946408924615
37.3360759 ,Left ,65,2862674732692 ,47,6396593282844 ,12,167953479011
37.3509008 ,Left ,65,2862029301564 ,47,6392770999043 ,12,1345328641531
37.3734295 ,Left ,65,2863802539706 ,47,6323334449731 ,12,0825036502577
37.3960374 ,Left ,65,2866716872759 ,47,6291459884985 ,12,0241183172933
37.4111273 ,Left ,65,2849726093196 ,47,6208917057234 ,11,9585646316269
37.4335249 ,Left ,65,2805314011481 ,47,6047386114352 ,11,8977787456513
37.455994 ,Left ,65,2790948179602 ,47,5874622953899 ,11,8404893918375
37.4709858 ,Left ,65,2869488563686 ,47,576339695992 ,11,78699812737
37.4934851 ,Left ,65,2961595299479 ,47,5670316788005 ,11,7324477161894
37.5160814 ,Left ,65,3183268281852 ,47,555296603617 ,11,677525515635
37.530943 ,Left ,65,3455988575258 ,47,5473346742913 ,11,6281271846427
37.5533053 ,Left ,65,3571961253078 ,47,542324237223 ,11,5816660721371
37.5760953 ,Left ,65,3610148415198 ,47,5345840500194 ,11,5377247964565
37.59107 ,Left ,65,3481990527863 ,47,5192139026833 ,11,4947299110121
37.6137226 ,Left ,65,3152466955474 ,47,4978186534755 ,11,4613321893696
37.6361924 ,Left ,65,2759777757616 ,47,4707646696198 ,11,4252922147776
37.6509382 ,Left ,65,2149639565991 ,47,4459930051719 ,11,3854411067471
37.6734462 ,Left ,65,1387924860055 ,47,3832860421962 ,11,341583625882
37.6959847 ,Left ,65,0858065214267 ,47,2791099907466 ,11,348561454184
37.7187586 ,Left ,65,0803540876731 ,47,1605179409964 ,11,3811438285472
37.7334669 ,Left ,65,1394235170943 ,47,1865888613361 ,11,4283813384043
37.7565194 ,Left ,65,2061664607587 ,47,3348667933631 ,11,4481270285
37.7790813 ,Left ,65,2371601152442 ,47,4451849342107 ,11,4719270834731
37.7943017 ,Left ,65,2858467724877 ,47,4946802258655 ,11,4854102709919
37.8165306 ,Left ,65,2953175005396 ,47,4712750632291 ,11,4914587483579
37.8390126 ,Left ,65,2869479170292 ,47,4427014588379 ,11,4986094670289
37.8534735 ,Left ,65,2749373443805 ,47,4301956748877 ,11,5188037803238
37.8759902 ,Left ,65,2816627517617 ,47,4106389763285 ,11,527845486912
37.8911781 ,Left ,65,2796192645616 ,47,3810442743771 ,11,5373331994525
37.9134229 ,Left ,65,2654624388932 ,47,3292965792004 ,11,5452261603659
37.9366757 ,Left ,65,2509338576423 ,47,2689782832759 ,11,5568453928587
37.9514544 ,Left ,65,2278529254739 ,47,2066580833273 ,11,5617167384792
37.9736504 ,Left ,65,1953884626578 ,47,1064561774448 ,11,5755687453146
37.995925 ,Left ,65,2062723703695 ,47,026650393213 ,11,5951017292966
38.0184558 ,Left ,65,2595775739504 ,46,979127791188 ,11,6153342216726
38.0337252 ,Left ,65,3563817298214 ,47,0267480229019 ,11,6522512772344
38.0558048 ,Left ,65,4420673182857 ,47,1146748247853 ,11,658533551563
38.0861552 ,Left ,65,4924182232252 ,47,1751128033974 ,11,6660791328524
38.1009996 ,Left ,65,5592298562605 ,47,2009656688762 ,11,6643446997556
38.1309088 ,Left ,65,6004901564749 ,47,2017803039002 ,11,6650407737856
38.1536441 ,Left ,65,6537638998365 ,47,1780754101653 ,11,6547694878643
38.1688221 ,Left ,65,6820121951671 ,47,1597419676332 ,11,6572494709408
38.1842557 ,Left ,65,7098499786364 ,47,155279867798 ,11,6608544826764
38.1993923 ,Left ,65,740687806324 ,47,1671476565704 ,11,682811254202
38.2136178 ,Left ,65,7761221567495 ,47,1712638690014 ,11,7072375327062
38.2361017 ,Left ,65,8142636906049 ,47,171159655827 ,11,7402838811109
38.2584889 ,Left ,65,8478589778558 ,47,1780052975655 ,11,7770452232369
38.2734511 ,Left ,65,8884586428484 ,47,1874014592594 ,11,8198296138567
38.2959639 ,Left ,65,9143348830006 ,47,1972195048929 ,11,8657921709199
38.3262737 ,Left ,65,9380123227259 ,47,206717575617 ,11,913976938313
38.3412674 ,Left ,65,9558322366725 ,47,2083602216468 ,11,9664249059986
38.3636147 ,Left ,65,9751098098852 ,47,2012974733617 ,12,0216749055274
38.3785152 ,Left ,65,9898495569213 ,47,193707574547 ,12,0813871990467
38.3937064 ,Left ,66,0027532580507 ,47,186969022212 ,12,1405061030019
38.4158658 ,Left ,66,0167587989246 ,47,1838126500078 ,12,1963008199543
38.439351 ,Left ,66,0262423934137 ,47,1801653907593 ,12,256554238559
38.4540272 ,Left ,66,0331465473926 ,47,1758428628798 ,12,3155378102217
38.4835105 ,Left ,66,0339270273915 ,47,1644001152575 ,12,3722529049849
38.5060333 ,Left ,66,0385944792749 ,47,1517786885171 ,12,4237005021383
38.521086 ,Left ,66,0458325569493 ,47,1374507781112 ,12,475028346852
38.5358829 ,Left ,66,0523731187469 ,47,1247386847996 ,12,525766308374
38.5584804 ,Left ,66,0590323306533 ,47,1078384644917 ,12,5773923291623
38.5736921 ,Left ,66,0580831576948 ,47,0927443567567 ,12,6290397718364
38.5962554 ,Left ,66,0612554872029 ,47,0777919707472 ,12,6777887824141
38.6184101 ,Left ,66,0693856381691 ,47,0611431003822 ,12,7189718620581
38.6336076 ,Left ,66,0716836012373 ,47,0462973895292 ,12,7596657742681
38.6559186 ,Left ,66,0703039952905 ,47,0364371768542 ,12,7943665974778
38.678519 ,Left ,66,0639966322689 ,47,0350504771529 ,12,8221499593009
38.6936547 ,Left ,66,0588088273891 ,47,0319140288262 ,12,8435612332915
38.7159266 ,Left ,66,0533373282727 ,47,0360669741842 ,12,8659638399968
38.7459495 ,Left ,66,0520116855595 ,47,0456001417835 ,12,8835242252691
38.7609378 ,Left ,66,0397772758158 ,47,0538254663255 ,12,8953432891197
38.7832705 ,Left ,66,0246495385041 ,47,0579596045698 ,12,9007118471062
38.7984649 ,Left ,66,0156870387602 ,47,0655446695111 ,12,9028273691883
38.8134372 ,Left ,65,9979788021085 ,47,0775618524668 ,12,9052075038712
38.835943 ,Left ,65,9846828342722 ,47,0876675399087 ,12,901740694221
38.858677 ,Left ,65,9721290619343 ,47,0940712739916 ,12,9009397661279
38.873517 ,Left ,65,9675384224079 ,47,0984499318818 ,12,8932349509501
38.9037387 ,Left ,65,9644699416538 ,47,0960329131986 ,12,8795023360127
38.9334096 ,Left ,65,9540716984111 ,47,0835611285289 ,12,8555711756752
38.948403 ,Left ,65,937292035551 ,47,0556184106264 ,12,8314124530734
38.9784801 ,Left ,65,9352308915171 ,46,9863187607711 ,12,7441590987774
39.0010737 ,Left ,65,9230924316393 ,46,9348201222288 ,12,6918069837093
39.0234856 ,Left ,65,9028130786855 ,46,8711319235815 ,12,6466756329745
39.0463109 ,Left ,65,9262888247848 ,46,8200988690131 ,12,6299150409852
39.0759414 ,Left ,66,0297741675035 ,46,926726074279 ,12,6286777186309
39.0984482 ,Left ,66,021360967179 ,47,0331542865232 ,12,5977658262144
39.1211593 ,Left ,66,025716469464 ,47,1007020573057 ,12,5552839658089
39.1362091 ,Left ,66,0540883239654 ,47,1445638072597 ,12,5183097331893
39.1585032 ,Left ,66,0306437552732 ,47,1820792056124 ,12,4637025347252
39.1817365 ,Left ,65,9684648829836 ,47,1855708750329 ,12,41156154275
39.2041378 ,Left ,65,9132893713715 ,47,1942822262732 ,12,3451860954996
39.2266572 ,Left ,65,8759025226696 ,47,193623743259 ,12,2679419236927
39.2559798 ,Left ,65,7716612199802 ,47,1586517376264 ,12,1086468317664
39.2784612 ,Left ,65,7178234436889 ,47,1120052061289 ,12,0306611626975
39.309244 ,Left ,65,6389324406352 ,47,0208867824888 ,11,9675389672754
39.324143 ,Left ,65,6243932843192 ,46,9309107513949 ,11,9432464073507
39.3460965 ,Left ,65,6362165525788 ,46,9153960994948 ,11,9657402789629
39.3609628 ,Left ,65,7119729103101 ,47,0033071230997 ,11,9793496869943
39.375929 ,Left ,65,734411033011 ,47,1140399780072 ,11,9597322380293
39.405943 ,Left ,65,7151588951953 ,47,1385236748936 ,11,9311889943794
39.4284092 ,Left ,65,6608696306429 ,47,1309146457665 ,11,9290149667032
39.4433841 ,Left ,65,6244086790271 ,47,1404095887602 ,11,9191884992909
39.4736816 ,Left ,65,5558175755509 ,47,132112854763 ,11,9161715223821
39.4958499 ,Left ,65,5274051632942 ,47,1161915183607 ,11,9295508263265
39.5111138 ,Left ,65,5446157618059 ,47,1468887339826 ,11,9613134617874
