timestamp,event,roll,pitch,yaw
0.0368479 ,Left ,64,6388876847059 ,42,3530704453697 ,95,4787910894837
0.0579692 ,Left ,64,6510805493093 ,42,3605403215089 ,95,4779058085389
0.0744901 ,Left ,64,6638276579258 ,42,3712143076766 ,95,4704663625083
0.0969043 ,Left ,64,6717648200364 ,42,3782033064676 ,95,4608114332938
0.1112867 ,Left ,64,6811207212468 ,42,381953909506 ,95,4484534110024
0.1344119 ,Left ,64,6879308702081 ,42,3856651829475 ,95,4361778400796
0.156234 ,Left ,64,6880648668464 ,42,3902497533163 ,95,4262650771373
0.1773251 ,Left ,64,6838282321001 ,42,3964817161034 ,95,4128329729187
0.1943242 ,Left ,64,6796960214047 ,42,4072298384798 ,95,394725563089
0.2169032 ,Left ,64,6837426287676 ,42,4213103615778 ,95,3698518588983
0.2382466 ,Left ,64,6738270907989 ,42,4436131403487 ,95,3463303542072
0.2544266 ,Left ,64,6608130568707 ,42,475996457417 ,95,3254191096029
0.2765921 ,Left ,64,6365818976889 ,42,5150959178515 ,95,3138410600626
0.2978048 ,Left ,64,617604277107 ,42,5660754456371 ,95,311371536035
0.314043 ,Left ,64,601431164037 ,42,6288750487573 ,95,3180586292539
0.3364328 ,Left ,64,5666849464369 ,42,6937132536518 ,95,3387331225336
0.3576099 ,Left ,64,5582881336187 ,42,756374931055 ,95,3654460655826
0.3740525 ,Left ,64,5719406273382 ,42,8052741371631 ,95,3888987217801
0.3965379 ,Left ,64,5855505312634 ,42,8342164044467 ,95,4158011279483
0.4174941 ,Left ,64,5641110413836 ,42,8448035223567 ,95,4501953491263
0.4341737 ,Left ,64,5543604288711 ,42,8463318276067 ,95,5048471782729
0.4564671 ,Left ,64,5794095386101 ,42,8580306034152 ,95,5887385715684
0.4777118 ,Left ,64,599747462396 ,42,9373437029373 ,95,6731560571342
0.5001714 ,Left ,64,5661336046765 ,43,0575906017047 ,95,7881482859938
0.5165806 ,Left ,64,6279802626705 ,43,2170025741027 ,95,8815457097061
0.5374175 ,Left ,64,7404458932911 ,43,3589858607363 ,95,955499225898
0.5541483 ,Left ,64,8647122838324 ,43,4433604188551 ,96,021404447383
0.5765256 ,Left ,64,9625621655254 ,43,490930791217 ,96,0770456544543
0.5977107 ,Left ,65,050044953514 ,43,4705327570696 ,96,1169980832469
0.6135447 ,Left ,65,1353233335899 ,43,4124103207824 ,96,154237470201
0.6365064 ,Left ,65,2331196885588 ,43,3152564232487 ,96,1775925575453
0.6591896 ,Left ,65,3264293155518 ,43,1543160349591 ,96,2079912691965
0.6646346 ,Left ,65,444906775818 ,43,0139097366797 ,96,2278502189051
0.680882 ,Left ,65,4896337089457 ,42,9005951297381 ,96,2425998579665
0.7019934 ,Left ,65,4882880330239 ,42,7864054986278 ,96,2632951056012
0.7244632 ,Left ,65,479169158733 ,42,6473943528668 ,96,3146837884605
0.7408766 ,Left ,65,5174770211837 ,42,5188592505687 ,96,3714884252706
0.7619789 ,Left ,65,5625261940861 ,42,4449927731898 ,96,3790058115613
0.7846402 ,Left ,65,5898097666231 ,42,4474763040563 ,96,4501265256014
0.800876 ,Left ,65,6807665109381 ,42,5854560172415 ,96,5425507423241
0.8219681 ,Left ,65,727484778668 ,42,7754529040172 ,96,5933418081174
0.8528176 ,Left ,65,8023033392155 ,42,9403799293235 ,96,6109824495699
0.86113 ,Left ,65,9012059560505 ,43,071738810476 ,96,6348343831562
0.882231 ,Left ,65,9268618785698 ,43,175302526413 ,96,6303431711396
0.9044867 ,Left ,65,944054948984 ,43,2183308835954 ,96,6228025716897
0.9208701 ,Left ,65,9035803115841 ,43,2136087752019 ,96,6414484608419
0.9418253 ,Left ,65,8651143576939 ,43,1672092752898 ,96,6646820856816
0.9645787 ,Left ,65,8213378248226 ,43,0732110578287 ,96,6868409878632
0.9808546 ,Left ,65,7505540021469 ,42,9653804663366 ,96,7453849135224
1.0018582 ,Left ,65,7405411314108 ,42,9672733087776 ,96,8213473575331
1.0244733 ,Left ,65,7024407396797 ,43,109762364676 ,96,8626455468187
1.040853 ,Left ,65,6844701193997 ,43,3504607817826 ,96,8723028504225
1.0616724 ,Left ,65,7030962082328 ,43,5556985600542 ,96,8689128977548
1.0845012 ,Left ,65,7149111377637 ,43,6878456629954 ,96,8739430286144
1.1009998 ,Left ,65,6722124400197 ,43,8027668312637 ,96,8905971624342
1.1218435 ,Left ,65,5970319632173 ,43,89805018047 ,96,9187216337652
1.1447258 ,Left ,65,4930768968581 ,43,9300937458334 ,96,9988196302447
1.1619848 ,Left ,65,4132188147948 ,43,904756130945 ,97,1200931166395
1.1823984 ,Left ,65,3787851542246 ,43,8010233639787 ,97,2527263829942
1.2050258 ,Left ,65,4152303482641 ,43,7018302726937 ,97,3561998016413
1.2212985 ,Left ,65,4022054210571 ,43,7356013644189 ,97,4102455582503
1.2423643 ,Left ,65,298562979071 ,43,876738933151 ,97,448266432011
1.2647881 ,Left ,65,3289326042353 ,44,0955338829131 ,97,4560302211974
1.2870002 ,Left ,65,4275280275447 ,44,255023279222 ,97,4541623998817
1.3019763 ,Left ,65,5287077275268 ,44,3707473720495 ,97,4586760706318
1.3245935 ,Left ,65,5183665147643 ,44,4674513642438 ,97,4596843264239
1.3423301 ,Left ,65,423729408091 ,44,5786733189738 ,97,4515513122913
1.3617385 ,Left ,65,3976287476712 ,44,6699102867365 ,97,3666371550641
1.3845006 ,Left ,65,4118735988639 ,44,667603279369 ,97,2574888136801
1.4082314 ,Left ,65,4351649421115 ,44,59650409251 ,97,1767396738075
1.4223082 ,Left ,65,4390627700435 ,44,4987877284448 ,97,1080432237614
1.4447372 ,Left ,65,4603949727017 ,44,3897743471342 ,97,0303416783736
1.4627303 ,Left ,65,4870888185394 ,44,3011937307558 ,96,9476343940828
1.4823907 ,Left ,65,4580272324557 ,44,2187641029402 ,96,8921577157888
1.5048476 ,Left ,65,4440588400162 ,44,1998054228238 ,96,8629031280519
1.5222958 ,Left ,65,4320669923761 ,44,1711661243727 ,96,8524501163707
1.5416247 ,Left ,65,4750827244077 ,44,1198502923998 ,96,8464268775528
1.5642917 ,Left ,65,5956279121017 ,44,0058989073567 ,96,881999500577
1.5825099 ,Left ,65,6760466836406 ,43,9972127886822 ,96,898031043215
1.6018871 ,Left ,65,6593596166913 ,44,027576825766 ,96,896690309733
1.6242432 ,Left ,65,6795746502115 ,44,0055488717529 ,96,8863927121772
1.6419832 ,Left ,65,7429619691717 ,43,9014215169488 ,96,858214111058
1.662291 ,Left ,65,8072264479818 ,43,6795317653009 ,96,8444578270745
1.6849851 ,Left ,65,8567236452457 ,43,4100613297625 ,96,8367233325569
1.70271 ,Left ,65,8205809883487 ,43,1701470047489 ,96,8264427683863
1.722331 ,Left ,65,7091298700672 ,42,9986259711967 ,96,8199025210691
1.7450313 ,Left ,65,6389507049592 ,42,88809640586 ,96,796419251595
1.7670867 ,Left ,65,587987611546 ,42,7757553122429 ,96,8336302530412
1.7820083 ,Left ,65,5642019440105 ,42,7236003332061 ,96,975889962608
1.8045358 ,Left ,65,5477970618573 ,42,8471512481288 ,97,1019325315089
1.826818 ,Left ,65,6174108106081 ,43,0846353664476 ,97,1833018043457
1.8418414 ,Left ,65,7439987636391 ,43,2887568627647 ,97,2539990879545
1.864312 ,Left ,65,8814575000235 ,43,3865993165545 ,97,3425013891794
1.8873064 ,Left ,65,9895998611785 ,43,4287692521587 ,97,4327681373773
1.9021375 ,Left ,66,0114423788465 ,43,4454599771414 ,97,5408107393154
1.9245418 ,Left ,66,0414246868607 ,43,4079031182535 ,97,6380122971146
1.9471354 ,Left ,66,1062875544647 ,43,3065448940949 ,97,7010156445727
1.9620771 ,Left ,66,1562252713052 ,43,1845244396878 ,97,7267245957384
1.98449 ,Left ,66,1761741715034 ,43,0906473678076 ,97,7027489172893
2.007483 ,Left ,66,1737297777464 ,43,0035305784162 ,97,6471865186294
2.0222537 ,Left ,66,2138373941674 ,42,9253945023185 ,97,5625323189662
2.0445509 ,Left ,66,2372763370806 ,42,847465503139 ,97,4661222168826
2.0624963 ,Left ,66,231945334907 ,42,7832532692466 ,97,3764333466963
2.0834903 ,Left ,66,2380955211335 ,42,7063538423658 ,97,2745621933059
2.1048604 ,Left ,66,2452562665635 ,42,5907918639924 ,97,1666258751678
2.1265555 ,Left ,66,2358384448496 ,42,4826561893241 ,97,0624767064897
2.1446797 ,Left ,66,1700641591697 ,42,4097427017003 ,96,9786567591438
2.1644813 ,Left ,66,1021788138396 ,42,3679102703312 ,96,9014808278296
2.1867124 ,Left ,66,0178121415571 ,42,3433256666328 ,96,8314053603955
2.2047829 ,Left ,65,9455149405678 ,42,3162236301889 ,96,7602318587593
2.2243857 ,Left ,65,8827777270191 ,42,2852656315009 ,96,6907158803862
2.2470557 ,Left ,65,7948232526255 ,42,2542435554156 ,96,6262164446634
2.2631883 ,Left ,65,6891811769447 ,42,2436896206052 ,96,5671176186676
2.2844319 ,Left ,65,5960839324623 ,42,2512906250575 ,96,5117773035635
2.3067946 ,Left ,65,4931298457057 ,42,2762140014605 ,96,4584935292024
2.3234843 ,Left ,65,4138543826913 ,42,3085865942232 ,96,4064977854543
2.3443707 ,Left ,65,3324857865518 ,42,3540654379287 ,96,3506364020244
2.3667542 ,Left ,65,253893179355 ,42,4384249679109 ,96,2989122756941
2.3834342 ,Left ,65,1761333478361 ,42,5568236694157 ,96,2468981877944
2.4043999 ,Left ,65,11964629176 ,42,6960409375276 ,96,1976465910641
2.4267217 ,Left ,65,0761486633031 ,42,8384100199882 ,96,154886523663
2.4433441 ,Left ,65,031255431933 ,42,9454181239916 ,96,1319284326478
2.464376 ,Left ,65,0295375048341 ,42,9979415813304 ,96,117974077364
2.486923 ,Left ,65,0273738551644 ,43,0226434596919 ,96,1048410710398
2.5034943 ,Left ,65,0052008313091 ,43,0371437950566 ,96,1167371407938
2.5246179 ,Left ,65,0060223607864 ,43,0450775204966 ,96,1379291370632
2.5469109 ,Left ,65,0385864597615 ,43,0132793661327 ,96,1986263390437
2.5648255 ,Left ,65,0595709758854 ,43,0441194771573 ,96,2892441875877
2.5842434 ,Left ,65,0906747377866 ,43,1622102480104 ,96,3458597467371
2.606723 ,Left ,65,2077426789654 ,43,3329795647237 ,96,3382118552239
2.6246806 ,Left ,65,3207679456885 ,43,4653297238684 ,96,3214282024675
2.644334 ,Left ,65,402129274592 ,43,558420220189 ,96,3147249435116
2.6667336 ,Left ,65,4598014487693 ,43,5871818932229 ,96,3085789851376
2.6847607 ,Left ,65,4400964192865 ,43,5520712188835 ,96,3278297309926
2.704367 ,Left ,65,3936297722267 ,43,4789675893506 ,96,3630901206697
2.7268391 ,Left ,65,3891592506241 ,43,3938621447417 ,96,3912176810151
2.7446519 ,Left ,65,3429456637588 ,43,2622000369692 ,96,4389920895798
2.7641676 ,Left ,65,3848502582014 ,43,116278952748 ,96,487480742409
2.7866155 ,Left ,65,3488878827272 ,42,9486222786102 ,96,5522146839597
2.8045892 ,Left ,65,3961528265577 ,43,0059312519995 ,96,5514257718225
2.8241688 ,Left ,65,3146295734092 ,43,0622957233885 ,96,5361112968314
2.8468037 ,Left ,65,3410132707671 ,43,0794789740068 ,96,5063659413838
2.8647077 ,Left ,65,4135162739427 ,43,1544562826139 ,96,497761394089
2.8842445 ,Left ,65,3705617602288 ,43,2041702041601 ,96,5352704830024
2.9075856 ,Left ,65,2904478767947 ,43,1943178191356 ,96,6007759337335
2.9252811 ,Left ,65,3201814254418 ,43,2678912095161 ,96,7212316955302
2.9449968 ,Left ,65,2736891739301 ,43,5129116402363 ,96,8046393430927
2.967322 ,Left ,65,2898279779637 ,43,7444668549597 ,96,8179732974547
2.9850463 ,Left ,65,3166941526057 ,43,9459864794645 ,96,8318830144577
3.0046471 ,Left ,65,3066556361501 ,44,1822425445995 ,96,8479262238758
3.0271488 ,Left ,65,2672733714881 ,44,3259169832833 ,96,8404918997872
3.0448787 ,Left ,65,1997991510287 ,44,3058955036319 ,96,8926860645928
3.0673175 ,Left ,65,0848863630917 ,44,1754462602725 ,97,0759926057328
3.087018 ,Left ,65,1419446618161 ,44,0437590289129 ,97,1719825531681
3.1109362 ,Left ,65,1750107035612 ,43,9958956148421 ,97,2215470274029
3.1260901 ,Left ,65,0881312051121 ,44,1192949802551 ,97,2600320988399
3.1469659 ,Left ,65,0755039594265 ,44,2998022669017 ,97,3080894479542
3.1647717 ,Left ,65,1944656554371 ,44,4238537096783 ,97,3628651433186
3.1868908 ,Left ,65,3410295013839 ,44,5742884395669 ,97,3959529070731
3.2069219 ,Left ,65,374266842634 ,44,7018819055951 ,97,3966757833402
3.2248442 ,Left ,65,3856989481722 ,44,806955555631 ,97,3757442375301
3.246061 ,Left ,65,4515902369255 ,44,8665133672888 ,97,329716105262
3.2670235 ,Left ,65,4818144789541 ,44,9018393444959 ,97,3048854726376
3.2849898 ,Left ,65,4733046879165 ,44,9277892883209 ,97,3026058926848
3.3074646 ,Left ,65,4647596807484 ,44,9226336120186 ,97,2951623540708
3.3268031 ,Left ,65,4768974978509 ,44,8690170953371 ,97,2901010664415
3.3449653 ,Left ,65,5471402443853 ,44,7684060223673 ,97,2926566232287
3.3658775 ,Left ,65,6161753214643 ,44,6982189833894 ,97,2753541072147
3.3870885 ,Left ,65,6688497214419 ,44,6356295366118 ,97,2563517951532
3.4049215 ,Left ,65,7492396652925 ,44,5786801126128 ,97,2217707444805
3.4261879 ,Left ,65,817052726966 ,44,4802253266065 ,97,2055782172985
3.4471206 ,Left ,65,8807264873141 ,44,3664805120331 ,97,2046746897436
3.4657321 ,Left ,65,9328715478709 ,44,2496926873264 ,97,1963595405658
3.4875435 ,Left ,65,9944169964972 ,44,1327981172471 ,97,1617946422567
3.5070606 ,Left ,66,0881710185139 ,43,987134996913 ,97,1112317323793
3.5249292 ,Left ,66,1319055564183 ,43,8302797180905 ,97,0860522854472
3.5474663 ,Left ,66,1601639348877 ,43,7008102639949 ,97,0694186680191
3.5671728 ,Left ,66,2042673090885 ,43,5854093105637 ,97,0387373689302
3.5849372 ,Left ,66,2477850728491 ,43,4634864874484 ,96,9940061290386
3.6073936 ,Left ,66,2846490571249 ,43,348909452753 ,96,9650664956215
3.6294597 ,Left ,66,3029485741812 ,43,2625933414206 ,96,940031526695
3.6435256 ,Left ,66,2932570429669 ,43,2083948198867 ,96,9083111839741
3.6645646 ,Left ,66,4059050789153 ,43,1998945246819 ,96,825869511794
3.6870849 ,Left ,66,2556312682053 ,42,9928699543196 ,96,8373362169525
3.7034175 ,Left ,66,011732449803 ,42,902037533966 ,96,9103501969316
3.7245449 ,Left ,66,0456014858992 ,43,0563104023324 ,96,8927012403046
3.747149 ,Left ,66,1752645674205 ,43,1512785882444 ,96,8309624652094
3.763488 ,Left ,65,8837782168231 ,43,1289684625377 ,96,9411407365441
3.784699 ,Left ,65,9140709377361 ,43,3248541479196 ,96,9175782976287
3.8070934 ,Left ,65,9501596218047 ,43,6006566240317 ,96,8947941026106
3.8234631 ,Left ,65,9072103294212 ,43,6786236744734 ,96,8831468504981
3.8447562 ,Left ,65,8228306470546 ,43,7999113851821 ,96,880614992298
3.8672308 ,Left ,65,7355127976744 ,43,8676621475627 ,96,8878563175014
3.8835392 ,Left ,65,6590753755822 ,43,8528624146947 ,96,9302432700414
3.9045174 ,Left ,65,6578297230798 ,43,8006481788477 ,96,9691085859342
3.9267008 ,Left ,65,5722600001474 ,43,8396273011384 ,96,9747177092491
3.943368 ,Left ,65,4970158567195 ,43,6777999187941 ,96,9501786623248
3.9643714 ,Left ,65,6922384469383 ,43,7257323309852 ,96,8717642174227
3.9869688 ,Left ,65,7280936612397 ,43,3885124273125 ,96,8552104163711
4.0035087 ,Left ,65,763667529707 ,43,152179895238 ,96,8275717144947
4.0244078 ,Left ,65,7336652891404 ,42,8928675941196 ,96,840633967676
4.0469543 ,Left ,65,6771748700435 ,42,7355033349585 ,96,8360050229515
4.0633068 ,Left ,65,6184148596957 ,42,6055444422282 ,96,7963382439398
4.0842389 ,Left ,65,6538871852087 ,42,4647824394579 ,96,8078592514783
4.1069867 ,Left ,65,716405401386 ,42,426032100992 ,96,8786944433959
4.1232981 ,Left ,65,7644090424796 ,42,5364696017713 ,96,9519273380836
4.1445036 ,Left ,65,8254251945929 ,42,7145981976157 ,96,9956820297513
4.1670676 ,Left ,65,8743833644163 ,42,82013465307 ,97,0461007465937
4.1850033 ,Left ,65,9724508000702 ,42,8677480454334 ,97,1109961233774
4.2046521 ,Left ,65,9939180130697 ,42,9085011664873 ,97,1670912763866
4.2270804 ,Left ,66,0059634364898 ,42,9403288595567 ,97,1973595953094
4.2435404 ,Left ,66,002667828445 ,42,9379720823348 ,97,1848812971484
4.2646316 ,Left ,65,9780650225779 ,42,8624339797547 ,97,1509383155211
4.2870452 ,Left ,65,9534348497351 ,42,7154321669351 ,97,1032932099992
4.3033826 ,Left ,65,9277729900163 ,42,5827600149486 ,97,0241645810157
4.3242306 ,Left ,65,8583899496972 ,42,4793390197194 ,96,9137062284219
4.3468481 ,Left ,65,7736831522117 ,42,3917199192412 ,96,785921846631
4.3632939 ,Left ,65,717235172237 ,42,3123268878184 ,96,6435603827205
4.3844862 ,Left ,65,613018616712 ,42,206295551735 ,96,5354884691713
4.4068659 ,Left ,65,5619690358326 ,42,1191907085619 ,96,4456697143955
4.4231856 ,Left ,65,4947137838521 ,42,0823939732007 ,96,3658808538441
4.4445012 ,Left ,65,3793635621556 ,42,0824904517979 ,96,2964733060693
4.4670466 ,Left ,65,3330838360742 ,42,0955613790654 ,96,2026977168539
4.4833631 ,Left ,65,2717548419775 ,42,1143678299625 ,96,1107168762676
4.5057153 ,Left ,65,1876351088681 ,42,1543344017745 ,96,0404749717102
4.5289563 ,Left ,65,138825772111 ,42,2609738385985 ,95,9742712371044
4.5434719 ,Left ,65,0731804622984 ,42,3878295957952 ,95,9174263970079
4.5666822 ,Left ,65,0229192811618 ,42,5288722523393 ,95,8727694182189
4.5891872 ,Left ,64,9899586840491 ,42,6583326912766 ,95,8373688652817
4.6179322 ,Left ,64,9483663106673 ,42,7407750280637 ,95,8269741735539
4.6266218 ,Left ,64,9471020394831 ,42,8024453980875 ,95,8556471689907
4.6492452 ,Left ,64,9410376526172 ,42,8663475707466 ,95,9219414902012
4.6706143 ,Left ,64,961234551446 ,42,8656240215727 ,95,9757404380251
4.6866513 ,Left ,64,9799547887228 ,42,8199592781682 ,96,0793325743623
4.7092276 ,Left ,65,0148321211438 ,42,8032672314107 ,96,2120693602963
4.7304143 ,Left ,65,0272595165253 ,42,8757530608085 ,96,3205230215594
4.7467553 ,Left ,65,1807090721586 ,43,0216187759594 ,96,3534165860409
4.769105 ,Left ,65,3171250716231 ,43,1467600879928 ,96,3595006713403
4.7903398 ,Left ,65,3831402057259 ,43,223809758728 ,96,3565990768415
4.8066694 ,Left ,65,4169616311476 ,43,2532451924262 ,96,3482755630155
4.8290758 ,Left ,65,4158732796976 ,43,199706121146 ,96,3545404648431
4.8503916 ,Left ,65,3739560596627 ,43,0920410375917 ,96,3770825500728
4.8666273 ,Left ,65,3285812771205 ,42,9630814686113 ,96,4195798393493
4.889038 ,Left ,65,2429185442956 ,42,7785607669722 ,96,5007997834884
4.9101559 ,Left ,65,283705638547 ,42,5790680357436 ,96,5499878256553
4.9264969 ,Left ,65,3194413038488 ,42,4597782393527 ,96,6035570947351
4.9490074 ,Left ,65,3382782354419 ,42,5675304268441 ,96,5850710963749
4.9703852 ,Left ,65,253381808801 ,42,6688737402681 ,96,5594589166568
4.9865702 ,Left ,65,3066662246909 ,42,719371452405 ,96,5352115560722
5.0092225 ,Left ,65,3337230992661 ,42,7893274167494 ,96,5503634085963
5.0301227 ,Left ,65,3052803726075 ,42,863258264555 ,96,5908750505769
5.046529 ,Left ,65,1745363926185 ,42,8931811526919 ,96,6527921698633
5.0691058 ,Left ,65,2066744723514 ,42,9047116128852 ,96,7522641184938
5.0902552 ,Left ,65,1863310968964 ,43,0640432011431 ,96,8989345609131
5.1068087 ,Left ,65,1210050718692 ,43,2847408720826 ,96,9641064573286
5.1290805 ,Left ,65,1028881833995 ,43,4743443621872 ,96,9749039011336
5.1504298 ,Left ,65,1218933567633 ,43,6627918553437 ,96,9778906611951
5.1739591 ,Left ,65,1177781645125 ,43,7950911169772 ,96,9980353790199
5.1890592 ,Left ,65,0638587389617 ,43,8809352557107 ,97,034611314092
5.2103743 ,Left ,64,9595893694788 ,43,848354037558 ,97,0973134892424
5.2266992 ,Left ,64,9465756726963 ,43,8312612113554 ,97,1640641282796
5.2490807 ,Left ,64,9049237666564 ,43,7670534063962 ,97,1674520064639
5.2730136 ,Left ,64,9658541728364 ,43,7939992240739 ,97,2796925750455
5.2860532 ,Left ,65,023272355192 ,44,0207882243011 ,97,3778266378668
5.309059 ,Left ,65,1116065588745 ,44,2525176529195 ,97,4327177615243
5.3302077 ,Left ,65,2914222313065 ,44,4285967678439 ,97,4839893528099
5.345957 ,Left ,65,3897122341439 ,44,5808313799324 ,97,5572450913658
5.3690945 ,Left ,65,4683361245894 ,44,6556872017502 ,97,6321006500149
5.3914951 ,Left ,65,5584288886808 ,44,6586405792746 ,97,6884184951138
5.405961 ,Left ,65,6337781121543 ,44,5601120230977 ,97,6930032422164
5.4290704 ,Left ,65,7214491081429 ,44,3345536083549 ,97,6670521536147
5.451985 ,Left ,65,8136405711599 ,44,039932847372 ,97,6320702605325
5.4659694 ,Left ,65,8882197756447 ,43,7364322180826 ,97,556354158694
5.4891022 ,Left ,65,9238821816414 ,43,4475522979172 ,97,4316476976674
5.5116433 ,Left ,65,9661770013568 ,43,1710090932882 ,97,2853992138689
5.5260956 ,Left ,66,0195228698782 ,42,9317113947824 ,97,1609940640747
5.5491285 ,Left ,66,0657575403951 ,42,7491762115302 ,97,054303714719
5.5721266 ,Left ,66,1387843813227 ,42,615669347908 ,96,9484911939502
5.5857466 ,Left ,66,1707491126708 ,42,541024657348 ,96,8649702424637
5.6088367 ,Left ,66,181127801544 ,42,5501359783116 ,96,7999463589311
5.6313774 ,Left ,66,1511474800014 ,42,6520989232075 ,96,7508222002414
5.6528098 ,Left ,66,1294596828346 ,42,8081398024385 ,96,716869387851
5.6692191 ,Left ,66,0482230472536 ,42,985838749235 ,96,7348468491156
5.6917262 ,Left ,65,9221088128148 ,43,1520405516807 ,96,8222546014233
5.7129349 ,Left ,65,8923940304968 ,43,2889249060577 ,96,8821552614499
5.7291382 ,Left ,65,8956632743312 ,43,381145207946 ,96,8815468551513
5.7516319 ,Left ,65,678486286863 ,43,4926899391882 ,96,96382867767
5.7729594 ,Left ,65,5246507074968 ,43,4310908833908 ,97,0036535982242
5.7893122 ,Left ,65,4566516192067 ,43,3208576821464 ,96,9897959004634
5.8116838 ,Left ,65,4400391217756 ,43,2109578696486 ,96,9286445340912
5.83284 ,Left ,65,3990708492015 ,43,1009854229944 ,96,8413612532941
5.8556605 ,Left ,65,3787603866138 ,43,0228695041117 ,96,730447755223
5.869947 ,Left ,65,3154579704699 ,42,9742474008194 ,96,6199873819979
5.8860682 ,Left ,65,2060338033257 ,42,9024469529738 ,96,5237719554211
5.9085421 ,Left ,65,1245791502743 ,42,7168333032536 ,96,4567874683594
5.929705 ,Left ,65,0687323693489 ,42,4650624994705 ,96,4345473268947
5.9460679 ,Left ,64,9918519750223 ,42,1519426205462 ,96,4674358247855
5.9685435 ,Left ,64,9681362757349 ,41,9632982375393 ,96,4736114840856
5.9895911 ,Left ,64,8931698991024 ,41,7915568215356 ,96,466165897894
6.0059494 ,Left ,64,8090903213723 ,41,6662155933363 ,96,4965313279823
6.0284387 ,Left ,64,7567935540972 ,41,4452797304094 ,96,5335721097311
6.0492385 ,Left ,64,9994914464444 ,41,3527297496139 ,96,4040703366879
6.0658611 ,Left ,65,1253261118799 ,41,1518664450245 ,96,3135545512778
6.0881885 ,Left ,64,8620195432269 ,41,0063742772408 ,96,4590632442902
6.1092955 ,Left ,65,0253083435466 ,40,9741256404935 ,96,3986365205844
6.1257127 ,Left ,64,9969527880213 ,40,8107389135554 ,96,4929022169744
6.1483716 ,Left ,64,8707527864033 ,40,8256454097877 ,96,7043186466301
6.1693739 ,Left ,64,9365250070904 ,41,0391188809887 ,96,745245352814
6.1852494 ,Left ,64,9631643681652 ,41,1910365466183 ,96,8158833571564
6.2075684 ,Left ,65,0659377360147 ,41,2747684574496 ,96,9086376188788
6.2300406 ,Left ,65,1356386890184 ,41,3605303802708 ,96,9624330729079
6.2452901 ,Left ,65,1925191135641 ,41,4247975794868 ,96,9763591299104
6.2677335 ,Left ,65,1918812946262 ,41,4357469195391 ,96,9915325217959
6.2901767 ,Left ,65,2746434116545 ,41,4535616193859 ,96,9524084927749
6.3051203 ,Left ,65,468372106996 ,41,4535337427258 ,96,8333599742936
6.3277507 ,Left ,65,5688430870699 ,41,5097956133762 ,96,6824513611223
6.349775 ,Left ,65,4438700398369 ,41,500030032206 ,96,6292025657022
6.3650857 ,Left ,65,4373962475096 ,41,4539084191672 ,96,5044972934546
6.387638 ,Left ,65,4068257948365 ,41,3640588056386 ,96,4072597127667
6.4098703 ,Left ,65,3471141824785 ,41,2998705546323 ,96,3439639017382
6.4249121 ,Left ,65,2379371195405 ,41,2696183713246 ,96,2896813737041
6.44754 ,Left ,65,1415758604824 ,41,2516837072045 ,96,2368519266273
6.4701878 ,Left ,65,0619410182793 ,41,2444964152064 ,96,179436046344
6.4850131 ,Left ,64,9975468897263 ,41,2372347784192 ,96,1160854029884
6.5077689 ,Left ,64,9430461619129 ,41,2324428430855 ,96,0416880394903
6.5302662 ,Left ,64,8837966464693 ,41,2256685267713 ,95,9707329099107
6.5449515 ,Left ,64,8332713832781 ,41,2321315231019 ,95,9048911337311
6.5675906 ,Left ,64,795694082771 ,41,2731244534766 ,95,8388870928268
6.590098 ,Left ,64,7539075020822 ,41,3505317652366 ,95,774190924461
6.6065241 ,Left ,64,7209566825662 ,41,4542630804269 ,95,7113494061132
6.6279164 ,Left ,64,6847398380748 ,41,5874805926269 ,95,6592107741614
6.6504273 ,Left ,64,6462325732489 ,41,7358224319295 ,95,6230170991221
6.6665586 ,Left ,64,6582910443347 ,41,8883499561487 ,95,5927530854431
6.6874723 ,Left ,64,643615980691 ,42,0044247133475 ,95,5905527904606
6.7102315 ,Left ,64,6615200850793 ,42,1060098883047 ,95,6048796709337
6.7266103 ,Left ,64,6940729046691 ,42,210396552438 ,95,6623619111115
6.7551078 ,Left ,64,7186731245395 ,42,3118866251615 ,95,715317203045
6.7713862 ,Left ,64,7210097673958 ,42,3462095830281 ,95,8171881149536
6.7940178 ,Left ,64,7656772759345 ,42,3754171449132 ,95,9734971408761
6.8151582 ,Left ,64,7630285791157 ,42,4993272446165 ,96,0971894814846
6.8315209 ,Left ,64,8689757356639 ,42,6814645455418 ,96,1325731664253
6.8545715 ,Left ,65,03385814156 ,42,81618631695 ,96,1203825901395
6.875634 ,Left ,65,1364120850328 ,42,8985823101129 ,96,1215454706915
6.8915503 ,Left ,65,2052415712699 ,42,9343555226521 ,96,1380656167958
6.9141009 ,Left ,65,234128938475 ,42,9111391173719 ,96,1573460477527
6.9351726 ,Left ,65,242968412873 ,42,8242640596402 ,96,1751574108256
6.9515116 ,Left ,65,2313949102288 ,42,6852501395318 ,96,228396212505
6.9739904 ,Left ,65,196934186248 ,42,5085371698615 ,96,306846470103
6.9950598 ,Left ,65,16049279799 ,42,2875604783627 ,96,4242950004283
7.0115215 ,Left ,65,1542131492018 ,42,1134507143934 ,96,5299199433753
7.0342176 ,Left ,65,1814297979889 ,41,974212437473 ,96,5863986003929
7.0552156 ,Left ,65,2393503728167 ,41,9773081215538 ,96,6281053806581
7.0716149 ,Left ,65,2065290736191 ,42,0921721850116 ,96,6676970934874
7.0938621 ,Left ,65,188353569478 ,42,2164211353704 ,96,6776065235505
7.114922 ,Left ,65,2627807844953 ,42,2915543348009 ,96,6617216896997
7.131407 ,Left ,65,2949594097785 ,42,3593920616484 ,96,6441460419855
7.1539466 ,Left ,65,2949446220354 ,42,3859221849049 ,96,6323665100117
7.1749714 ,Left ,65,2286912068989 ,42,4020402188821 ,96,6306282352673
7.1914575 ,Left ,65,210200044425 ,42,3738880689661 ,96,6325182130105
7.2139608 ,Left ,65,2212413445777 ,42,3571594557609 ,96,6978962617478
7.2348935 ,Left ,65,2451477088011 ,42,4511137195553 ,96,788607542061
7.2510124 ,Left ,65,2545028299634 ,42,6080276277214 ,96,8362167965296
7.2742031 ,Left ,65,2980877430047 ,42,8037248072479 ,96,8407393391224
7.2966003 ,Left ,65,329212568725 ,42,9878450238568 ,96,8506028598022
7.311205 ,Left ,65,3383423866862 ,43,141481429651 ,96,8623097695275
7.3343547 ,Left ,65,3256520848538 ,43,22982842575 ,96,8818309201076
7.3565828 ,Left ,65,2805595115992 ,43,2827731968623 ,96,944906166754
7.3710236 ,Left ,65,2293844438586 ,43,2583402444986 ,97,004219975099
7.3940786 ,Left ,65,1275620509893 ,43,2373760477218 ,97,0950531887913
7.4169127 ,Left ,65,0730703942892 ,43,2608905512977 ,97,0817717280991
7.4312473 ,Left ,65,055034515909 ,43,1803669415266 ,96,9844269872014
7.4544443 ,Left ,65,1319389429779 ,43,1854327061528 ,96,97614294748
7.4769896 ,Left ,65,140917603667 ,43,4428976586389 ,96,9101488003435
7.4912366 ,Left ,65,1395362876187 ,43,7173469238929 ,96,7826566353041
7.5144866 ,Left ,65,1705482149949 ,43,9475354197614 ,96,6845430617384
7.5365988 ,Left ,65,2309778017366 ,44,0850369997528 ,96,6413341231277
7.5576002 ,Left ,65,26573321055 ,44,0878574215621 ,96,6318879936596
7.5738527 ,Left ,65,2952679178755 ,44,0588421231449 ,96,6538553407699
7.5964713 ,Left ,65,3294723970089 ,44,0385222721684 ,96,7032746309671
7.6175864 ,Left ,65,3715349627535 ,44,0098043076313 ,96,7555271606661
7.6341834 ,Left ,65,3679700006853 ,43,9869811393048 ,96,8179817117953
7.6565549 ,Left ,65,3945848757433 ,43,9534510791196 ,96,8437476343613
7.678008 ,Left ,65,434224867092 ,43,8672272044871 ,96,8345820526069
7.694172 ,Left ,65,4537536147048 ,43,7498778353127 ,96,8061735715163
7.7165864 ,Left ,65,5004096977686 ,43,6511978729206 ,96,7540608761194
7.7378895 ,Left ,65,5003096173972 ,43,5608468022439 ,96,6990194078029
7.7540865 ,Left ,65,4689710113074 ,43,4965695371431 ,96,6467302822143
7.7763862 ,Left ,65,444865919917 ,43,4877997335655 ,96,5925963803262
7.7975909 ,Left ,65,379992317633 ,43,5049433538853 ,96,5545473703749
7.8139554 ,Left ,65,350933902314 ,43,5666950512697 ,96,5135812943
7.8364855 ,Left ,65,2978427660019 ,43,6131039983011 ,96,4981014374795
7.8577525 ,Left ,65,2698406466332 ,43,6002351329894 ,96,5323534704829
7.8740294 ,Left ,65,2642046185033 ,43,5671425867605 ,96,6070666427119
7.896538 ,Left ,65,2857712170542 ,43,5624479681018 ,96,6569155467827
7.9179237 ,Left ,65,246355629764 ,43,6578882860255 ,96,6525937680032
7.9335276 ,Left ,65,2860711594555 ,43,6945118729252 ,96,6070496550132
7.9565853 ,Left ,65,3828035478699 ,43,6741515693747 ,96,5669250763959
7.9778412 ,Left ,65,5612517700009 ,43,4294904572675 ,96,4697724691881
7.9934688 ,Left ,65,6454689693103 ,43,3338500123311 ,96,410597328432
8.016617 ,Left ,65,5872329984228 ,43,2693801450416 ,96,3575207439875
8.0392311 ,Left ,65,4963079449588 ,43,2032566925721 ,96,2938147152596
8.0602348 ,Left ,65,3788421869871 ,43,0707424117231 ,96,2877997047578
8.076662 ,Left ,65,3418180497658 ,42,9469259301087 ,96,4194950192217
8.0991102 ,Left ,65,3015781903026 ,43,0471132731591 ,96,5619983527099
8.1134659 ,Left ,65,2594785104297 ,43,3795076995645 ,96,6408566341235
8.1366203 ,Left ,65,3381983913441 ,43,7555991293991 ,96,7019617448569
8.1590201 ,Left ,65,4523037190947 ,44,0612254109095 ,96,7839339454532
8.1734707 ,Left ,65,6026955680112 ,44,3140374909549 ,96,8618948810304
8.196551 ,Left ,65,6500003048444 ,44,5228661409578 ,96,9098681143236
8.2191521 ,Left ,65,7348896370802 ,44,7044629532657 ,96,9062041255751
8.2334624 ,Left ,65,7194958677694 ,44,7911702556586 ,96,9006988032882
8.256569 ,Left ,65,649219083085 ,44,6738068484616 ,96,8856836861963
8.2791134 ,Left ,65,5789621245808 ,44,4531792909779 ,96,8384749728871
8.293075 ,Left ,65,5427417719529 ,44,1996862496037 ,96,7756351548373
8.3163449 ,Left ,65,4558279849436 ,44,0156845180752 ,96,6957684482586
8.3388779 ,Left ,65,3335258890743 ,43,8817095365795 ,96,5920606616162
8.3534016 ,Left ,65,2391723251391 ,43,7585438285504 ,96,4930581807675
8.3765131 ,Left ,65,1972588065551 ,43,6461278049777 ,96,4039076052254
8.3989546 ,Left ,65,1303543308261 ,43,5187323373901 ,96,3343330535854
8.4132484 ,Left ,65,0509783404331 ,43,4278117658517 ,96,2638686826749
8.4367372 ,Left ,64,9014554273996 ,43,3715744782055 ,96,1987576113249
8.4593697 ,Left ,64,8004292962388 ,43,3587132120212 ,96,1425366148291
8.480188 ,Left ,64,7313765571636 ,43,3732097542396 ,96,0911047468039
8.4967148 ,Left ,64,6566001630138 ,43,388091087668 ,96,0522508579215
8.5192124 ,Left ,64,5970291880609 ,43,4212547142162 ,96,0177040989874
8.5402597 ,Left ,64,5167997128391 ,43,4805398630464 ,95,9789830527956
8.5567677 ,Left ,64,4679940856757 ,43,5563369044651 ,95,9397491053346
8.5792113 ,Left ,64,4486759416101 ,43,6468921487438 ,95,9038036936294
8.6004282 ,Left ,64,4388166986159 ,43,7518677240252 ,95,8760654469674
8.6166654 ,Left ,64,4554374883481 ,43,8755804937191 ,95,8581029301164
8.6391038 ,Left ,64,461952326602 ,43,9914366473517 ,95,8513234847921
8.6605221 ,Left ,64,4792280682733 ,44,0549750798228 ,95,8658061559809
8.6767428 ,Left ,64,5274393754175 ,44,063941284477 ,95,8935869046318
8.6991305 ,Left ,64,5821032084866 ,44,0814243303257 ,95,951039345099
8.7203511 ,Left ,64,5846052124 ,44,1422579488252 ,96,0124270200344
8.7366536 ,Left ,64,6523372153909 ,44,0693297091518 ,96,0852231069943
8.759305 ,Left ,64,7857758780066 ,43,934403464608 ,96,2047077791301
8.7803343 ,Left ,64,8288422876136 ,43,9328013795238 ,96,3168887490146
8.796452 ,Left ,64,8788790634122 ,44,0523824110455 ,96,3419566913667
8.8190282 ,Left ,64,9870213559539 ,44,1609329262073 ,96,3046220622567
8.8398799 ,Left ,65,1071936369455 ,44,2102376626877 ,96,256379516977
8.8570316 ,Left ,65,1812192766576 ,44,2123061876125 ,96,2421359693986
8.8795167 ,Left ,65,1760067820004 ,44,1689403503694 ,96,2470727905427
8.9019596 ,Left ,65,158898902361 ,44,0871020023459 ,96,2605190136601
8.9170226 ,Left ,65,1467677552875 ,43,9574438156141 ,96,2881912093391
8.9393384 ,Left ,65,089750084664 ,43,7627956448378 ,96,354117959433
8.960102 ,Left ,65,1104351861997 ,43,5097399556825 ,96,4344967548051
8.9766888 ,Left ,65,1517690297332 ,43,3453664569013 ,96,5138523312909
8.9989382 ,Left ,65,1886903543817 ,43,3729953002938 ,96,5179400556952
9.0202048 ,Left ,65,1578769351487 ,43,4659301912178 ,96,491147943829
9.0365767 ,Left ,65,1780354195114 ,43,5772967142249 ,96,4775241819054
9.0590432 ,Left ,65,1716278263166 ,43,7767390693956 ,96,4555922766363
9.0808554 ,Left ,65,0875678746848 ,43,9261049067198 ,96,463114391216
9.0962295 ,Left ,65,0721884433041 ,44,0157898213675 ,96,614264957683
9.1194679 ,Left ,65,0144011039058 ,44,3123501320428 ,96,741974055762
9.1408889 ,Left ,64,9713291093709 ,44,6026375352951 ,96,7668494369248
9.1562615 ,Left ,65,0047813354023 ,44,7851548559911 ,96,7481197429096
9.1794994 ,Left ,64,9698315886492 ,44,8893836021936 ,96,7623019712469
9.2017575 ,Left ,64,8892430412239 ,44,9454546706494 ,96,7813252870305
9.216057 ,Left ,64,8282620075994 ,44,9061943734881 ,96,7495565591803
9.2389963 ,Left ,64,7526736332064 ,44,7713241311966 ,96,7894153044821
9.2615815 ,Left ,64,7893025823012 ,44,583226713744 ,96,8099869722491
9.2758994 ,Left ,64,7809245929926 ,44,383288515505 ,96,8161933738813
9.2990755 ,Left ,64,7438825343976 ,44,3167519848933 ,96,7357099313858
9.3214872 ,Left ,64,6763223842242 ,44,2488940671717 ,96,665832579484
9.336008 ,Left ,64,7315750082513 ,44,3742100772044 ,96,6445990830335
9.3589371 ,Left ,64,8216921940716 ,44,7292710071113 ,96,5764569235087
9.3814684 ,Left ,64,973804702841 ,45,1075673505258 ,96,4985252597422
9.3962588 ,Left ,65,1022033729659 ,45,4571316358092 ,96,4351346591284
9.4196003 ,Left ,65,1718894397254 ,45,6740245628059 ,96,3702937591454
9.4416543 ,Left ,65,1826531542747 ,45,703237247198 ,96,3222739535897
9.4627844 ,Left ,65,2570943293991 ,45,6738756127843 ,96,3294204300073
9.4790835 ,Left ,65,2504731364012 ,45,5936353022986 ,96,3940919080122
9.5015467 ,Left ,65,1985188033441 ,45,4289776396007 ,96,5203693311835
9.5226678 ,Left ,65,2351804811392 ,45,1979307010149 ,96,646632667203
9.5388922 ,Left ,65,2923456556134 ,44,8874401967176 ,96,7604621590494
9.5613602 ,Left ,65,3910672551466 ,44,5442383524269 ,96,8170611310229
9.5830015 ,Left ,65,4556794335394 ,44,2317690173898 ,96,8359636797829
9.5992729 ,Left ,65,4991492864132 ,43,9364399266621 ,96,8409939277939
9.6217003 ,Left ,65,5659622482746 ,43,6651877668712 ,96,8277970046031
9.6428747 ,Left ,65,6167098213053 ,43,3926893983909 ,96,7486301727557
9.6591883 ,Left ,65,5959037142958 ,43,1454397484722 ,96,6645461134541
9.6817218 ,Left ,65,6117840903246 ,42,9434518492312 ,96,5925106341035
9.7030089 ,Left ,65,6540759394896 ,42,8228385494244 ,96,5219334684605
9.7193507 ,Left ,65,65182778508 ,42,8144129426149 ,96,4355920038833
9.74167 ,Left ,65,6310568571508 ,42,8851627210042 ,96,348085312049
9.7625971 ,Left ,65,6478133205926 ,43,0278595163373 ,96,2590866021542
9.7791494 ,Left ,65,6915352406217 ,43,2071911885442 ,96,184458873744
9.8015415 ,Left ,65,6977737560496 ,43,3961153954738 ,96,1489385386329
9.8226734 ,Left ,65,616951755446 ,43,620387689663 ,96,1580004346086
9.8390934 ,Left ,65,5262072434802 ,43,8351540239856 ,96,1920094966957
9.8615372 ,Left ,65,5345795988768 ,44,0014541853802 ,96,2019884944101
9.882764 ,Left ,65,5440717904496 ,44,0965709669917 ,96,1595061225669
9.8987702 ,Left ,65,5189581457101 ,44,1425629660728 ,96,1132843459412
9.9215447 ,Left ,65,5044245117442 ,44,2040838840405 ,96,0548928965222
9.9440971 ,Left ,65,5068182732664 ,44,309436492861 ,95,9696548940386
9.9584972 ,Left ,65,4584835231027 ,44,4001873749177 ,95,9005010276577
9.9815614 ,Left ,65,4030063394454 ,44,378432444404 ,95,8766413768558
10.0038215 ,Left ,65,4286370048113 ,44,235030014387 ,95,9095929782395
10.0184476 ,Left ,65,5224533880034 ,44,1779349190585 ,95,9512125141787
10.0416694 ,Left ,65,53808417035 ,44,2016021177581 ,95,9549874920243
10.0640306 ,Left ,65,602593652929 ,44,1724371433534 ,95,9310415304138
10.0785054 ,Left ,65,7310609058335 ,44,0187294060382 ,95,8679762369491
10.1016033 ,Left ,65,8946244493557 ,43,7959269705138 ,95,8444668288757
10.1240376 ,Left ,65,9953638571655 ,43,5692666947841 ,95,8618079929665
10.1384968 ,Left ,66,0624200945361 ,43,4003777743624 ,95,8892391911935
10.1616042 ,Left ,66,1004158515381 ,43,2302905663244 ,95,9256760573117
10.1840767 ,Left ,66,1550014338688 ,43,0706364797124 ,95,9896692706915
10.1984824 ,Left ,66,1784194244826 ,42,8963149982776 ,96,0884339717523
10.2214957 ,Left ,66,2002181311969 ,42,7760891191147 ,96,1684902546127
10.2441112 ,Left ,66,2329706041951 ,42,7155393692282 ,96,2021026213952
10.258318 ,Left ,66,3010602753426 ,42,7365793007463 ,96,2137915671995
10.2813047 ,Left ,66,3535135023556 ,42,8060852223061 ,96,2483963380509
10.3041458 ,Left ,66,3776457238409 ,42,8834089611115 ,96,2948787176734
10.3182618 ,Left ,66,3818763286717 ,42,995888328602 ,96,3370046711296
10.3414702 ,Left ,66,3318949574141 ,43,1535419881672 ,96,3653822738703
10.3642242 ,Left ,66,2684151292536 ,43,3392434335024 ,96,3669236462473
10.3852035 ,Left ,66,1780818939796 ,43,5023738255185 ,96,3446229479106
10.4017626 ,Left ,66,1075428152948 ,43,6124390575853 ,96,3291593091435
10.4241331 ,Left ,66,0273691048761 ,43,7151254152454 ,96,3222146852651
10.445417 ,Left ,65,9010311402974 ,43,8199075258105 ,96,3226021728076
10.4617626 ,Left ,65,808093868637 ,43,9188162535601 ,96,3030690193011
10.4842312 ,Left ,65,7216817016548 ,43,9452359324227 ,96,2679833731939
10.5054454 ,Left ,65,7123878549135 ,43,9104492415386 ,96,246590416119
10.5216297 ,Left ,65,6932853912256 ,43,8795236537281 ,96,2526364915406
10.5441265 ,Left ,65,6603953040268 ,43,8777493254438 ,96,259608547639
10.5667272 ,Left ,65,6484890335753 ,43,8542804803997 ,96,2471824471212
10.5816847 ,Left ,65,6519473475762 ,43,8410316336059 ,96,2462884155879
10.6048851 ,Left ,65,6814286612449 ,43,8184434955982 ,96,2552479105212
10.6254283 ,Left ,65,7229259221979 ,43,8070090435638 ,96,2517828657631
10.6416387 ,Left ,65,7698631644724 ,43,798865391 ,96,2421041068148
10.664188 ,Left ,65,8022509983027 ,43,7910032512858 ,96,2359479756159
10.6854695 ,Left ,65,826439123909 ,43,7688302213295 ,96,23058494812
10.7015295 ,Left ,65,8065246103008 ,43,7156636865893 ,96,2570379418581
10.7241947 ,Left ,65,8145039419286 ,43,6571249367682 ,96,2942097229036
10.7454063 ,Left ,65,8482130084994 ,43,5816533640227 ,96,3331006852229
10.7616293 ,Left ,65,8998550739196 ,43,5222254254278 ,96,367443772531
10.7841577 ,Left ,65,9194009236064 ,43,4796139853199 ,96,3958066782992
10.8054496 ,Left ,65,9275268109287 ,43,4595608289825 ,96,4162286220159
10.8217047 ,Left ,65,9618185531308 ,43,4505829092779 ,96,437436859029
10.8442412 ,Left ,65,9971032867747 ,43,4427938732418 ,96,464833832117
10.8652323 ,Left ,66,0140899992772 ,43,4316851836808 ,96,4942064617916
10.8817094 ,Left ,66,0315464669009 ,43,3974869212971 ,96,5235121070011
10.9041494 ,Left ,66,0595795599501 ,43,34385344705 ,96,5498292331776
10.925475 ,Left ,66,0746407335946 ,43,2872014173016 ,96,5647235057146
10.9415872 ,Left ,66,0491594627166 ,43,2327793817091 ,96,589018197512
10.9641632 ,Left ,66,0623759432005 ,43,1751385024064 ,96,5797049825025
10.9854866 ,Left ,66,0353865066991 ,43,0857816925963 ,96,5441006737695
11.0010251 ,Left ,65,9664684693256 ,42,9981805033804 ,96,532007479136
11.0241238 ,Left ,65,9015732348449 ,42,9299288279047 ,96,513946984111
11.0467112 ,Left ,65,8668565715786 ,42,909495793759 ,96,4788981670039
11.0611176 ,Left ,65,8376079360325 ,42,8499586360469 ,96,4872858009156
11.0842034 ,Left ,65,8206884266867 ,42,7508286172329 ,96,5400266871484
11.1066669 ,Left ,65,8143615242086 ,42,7604131318318 ,96,6322993141696
11.1210634 ,Left ,65,7545895178465 ,42,9746526591034 ,96,6658918249853
11.1442157 ,Left ,65,7250382630476 ,43,2453704599442 ,96,712161173999
11.1668464 ,Left ,65,8010887663353 ,43,4295927271615 ,96,8012034329268
11.1809735 ,Left ,65,8679820796453 ,43,5102278354963 ,96,8943869774857
11.2042332 ,Left ,65,876431514897 ,43,5686885418701 ,96,9354078285493
11.2267085 ,Left ,65,817378332858 ,43,559830188009 ,96,9365043341933
11.2410746 ,Left ,65,7709325603646 ,43,4767304541573 ,96,9042386492503
11.2642184 ,Left ,65,7827634909631 ,43,3397510001131 ,96,8415497359143
11.2870329 ,Left ,65,8075854923533 ,43,1941073624433 ,96,7464096625895
11.3082073 ,Left ,65,7865021058126 ,43,0328511524598 ,96,6330570095452
11.3238634 ,Left ,65,7492644528617 ,42,886258510895 ,96,5083986660986
11.3466017 ,Left ,65,7194487415194 ,42,7365302919085 ,96,3883295105749
11.3676429 ,Left ,65,7160107196028 ,42,5843907574469 ,96,271002493555
11.3840855 ,Left ,65,6681965208464 ,42,4819164817885 ,96,182983800644
11.4065196 ,Left ,65,5528946815614 ,42,4507090353629 ,96,1507191595652
11.4278881 ,Left ,65,4895449718502 ,42,4271159766126 ,96,1342397883827
11.4441169 ,Left ,65,4743661043514 ,42,3897239328827 ,96,112197996324
11.4667008 ,Left ,65,4187838645524 ,42,3457743579813 ,96,0806466553672
11.4880056 ,Left ,65,3489188699754 ,42,2923793042776 ,96,0357608787983
11.5041449 ,Left ,65,3090478142459 ,42,2442641409623 ,95,9794600820862
11.5266712 ,Left ,65,2816554581249 ,42,2043931959655 ,95,906115255851
11.540939 ,Left ,65,2344191879024 ,42,1665663787986 ,95,8375777298336
11.5641224 ,Left ,65,1835331540044 ,42,1384606027347 ,95,7674099891297
11.5866357 ,Left ,65,1183714266793 ,42,1170345006849 ,95,6925465391687
11.6079541 ,Left ,65,0437885282817 ,42,1154621578614 ,95,6135733864195
11.6241407 ,Left ,64,9834745848136 ,42,1281618266345 ,95,5188921567039
11.646668 ,Left ,64,9386734739676 ,42,1665923470887 ,95,4181663847523
11.6675457 ,Left ,64,9021706900057 ,42,243937627938 ,95,3419522312906
11.684116 ,Left ,64,8660365484842 ,42,3876257702875 ,95,29070445575
11.7067048 ,Left ,64,7960831334541 ,42,5640874206466 ,95,2736591215232
11.7120767 ,Left ,64,7380686903062 ,42,739265954929 ,95,2830129354454
11.7344959 ,Left ,64,6825743857707 ,42,8801810431702 ,95,3248919429659
11.7497449 ,Left ,64,6577991994997 ,43,001148605417 ,95,3959604416404
11.7719883 ,Left ,64,6427997285912 ,43,1067351083424 ,95,4854031928246
11.7947515 ,Left ,64,6707889547913 ,43,1395900049448 ,95,5818643860119
11.809781 ,Left ,64,6800617715895 ,43,1273723448447 ,95,7329770034647
11.8320728 ,Left ,64,6800279359037 ,43,2316048348563 ,95,8724585965459
11.8545079 ,Left ,64,7522502923606 ,43,4357540221287 ,95,9377379812628
11.8697164 ,Left ,64,9141346039151 ,43,6289028585699 ,95,9174987028082
11.8919431 ,Left ,65,0694810738691 ,43,7260594432794 ,95,8901629396311
11.914492 ,Left ,65,1779409134388 ,43,7738173098377 ,95,8826071440937
11.9292528 ,Left ,65,2129319921109 ,43,7648148878389 ,95,8843190348384
11.9516931 ,Left ,65,2003543419053 ,43,6945006902817 ,95,9011823943303
11.9743681 ,Left ,65,1779783682521 ,43,5671983026177 ,95,9359580790226
11.9894 ,Left ,65,1386175626997 ,43,4240689639612 ,95,9744278901436
12.011994 ,Left ,65,0988341038288 ,43,2349873923059 ,96,0137512667704
12.0345004 ,Left ,65,1201023707931 ,42,9935762057119 ,96,0821281101786
12.0523715 ,Left ,65,1705967690334 ,42,7447644548156 ,96,1825561062277
12.0717718 ,Left ,65,2326358824445 ,42,7980842214006 ,96,2183362924223
12.0946001 ,Left ,65,1652300478965 ,42,9312210473434 ,96,2039368564056
12.109514 ,Left ,65,1828033309986 ,43,0421612941069 ,96,1604418361449
12.1320735 ,Left ,65,2154650451274 ,43,1705563397264 ,96,1603362371692
12.154822 ,Left ,65,1825811321645 ,43,3086259473525 ,96,1715912928793
12.1696791 ,Left ,65,0456302235737 ,43,3614816287351 ,96,1997493462415
12.1918069 ,Left ,65,0610446610465 ,43,3125037781075 ,96,3317095563151
12.2146714 ,Left ,65,0991565759635 ,43,4842488276564 ,96,4629704015485
12.2310219 ,Left ,65,0807787977368 ,43,7404343410907 ,96,4949521771909
12.2520788 ,Left ,65,1259710339676 ,43,9364831023088 ,96,488582474064
12.2746874 ,Left ,65,1435912637241 ,44,1051358622473 ,96,5092233213909
12.2909016 ,Left ,65,0932380745167 ,44,1859287812576 ,96,5858824927969
12.3120498 ,Left ,65,0433971456312 ,44,2215504308336 ,96,6535818590222
12.33469 ,Left ,64,9726023690127 ,44,2019431219002 ,96,746176844071
12.3511363 ,Left ,64,9005942209392 ,44,0818771883624 ,96,8793857709633
12.3719868 ,Left ,64,9546010173599 ,43,9108995574699 ,96,9936644910034
12.3947025 ,Left ,65,0851738482274 ,43,8198123341319 ,97,1027024064182
12.4109249 ,Left ,65,0165172365092 ,43,9552715571117 ,97,184498541159
12.4320338 ,Left ,64,9813597454381 ,44,1456926941004 ,97,2315502796839
12.454757 ,Left ,65,1294152252337 ,44,2923716612539 ,97,2415418098935
12.4709638 ,Left ,65,2811424703252 ,44,3919436975501 ,97,2561548022518
12.4919587 ,Left ,65,3218847408752 ,44,4848636968363 ,97,2677155784737
12.5147129 ,Left ,65,3082426041019 ,44,5456475846982 ,97,2413263810775
12.5309641 ,Left ,65,3258708500366 ,44,6022991645285 ,97,1744568096811
12.5520475 ,Left ,65,3549361359234 ,44,6579848897128 ,97,0876500867153
12.574498 ,Left ,65,3486844855924 ,44,6614134353726 ,96,9797237597839
12.5923806 ,Left ,65,3420870989755 ,44,5653068551722 ,96,8588788229885
12.6121029 ,Left ,65,3562340790816 ,44,4570237381748 ,96,7484413273553
12.6347085 ,Left ,65,3031526523615 ,44,4139062661982 ,96,632019339532
12.6510177 ,Left ,65,2902144012475 ,44,3495724880449 ,96,5311768580445
12.6718352 ,Left ,65,2624087813565 ,44,2221345657633 ,96,5138741279041
12.6946648 ,Left ,65,3520039864156 ,44,1685920900747 ,96,5280573617386
12.7109266 ,Left ,65,3169037658802 ,44,2129861152807 ,96,5156256159169
12.7320014 ,Left ,65,3599055536358 ,44,2149275086697 ,96,472894291755
12.7548759 ,Left ,65,5068174144619 ,44,0580720296238 ,96,3970782540269
12.771006 ,Left ,65,6239596269115 ,43,8194164469946 ,96,3402778666465
12.7921214 ,Left ,65,6678735044273 ,43,5408339508856 ,96,2949506582583
12.8147369 ,Left ,65,6505786066925 ,43,2928946811657 ,96,2365559766292
12.8326016 ,Left ,65,6511138746484 ,43,0687967414794 ,96,1574659336533
12.8520412 ,Left ,65,6554735905292 ,42,7807562523219 ,96,1560378410894
12.8744549 ,Left ,65,7250289295383 ,42,5096403904816 ,96,3166137853151
12.8908435 ,Left ,65,7349453294091 ,42,5603071846654 ,96,4864684164138
12.9120143 ,Left ,65,6697629140745 ,42,8176851171716 ,96,5981418786015
12.9347083 ,Left ,65,7553914867595 ,43,0245211804665 ,96,7202742055735
12.9525692 ,Left ,65,8579816550629 ,43,1792745920694 ,96,8644410639508
12.9720245 ,Left ,65,91699042504 ,43,2687968018769 ,96,9927017543182
12.9947908 ,Left ,65,9569326357116 ,43,2996979010606 ,97,083800982297
13.0126231 ,Left ,66,0022693600944 ,43,2839966050792 ,97,1367689942043
13.0320741 ,Left ,66,0331682776236 ,43,1925856511435 ,97,1424085739688
13.0547623 ,Left ,66,0496379378297 ,43,0724240711638 ,97,090453261064
13.0724399 ,Left ,66,0075593739334 ,42,968026926637 ,96,9861262003666
13.1006651 ,Left ,65,9597479062452 ,42,8346194193021 ,96,8660465076793
13.1142672 ,Left ,65,9378774675297 ,42,693917352677 ,96,7528482131419
13.1321877 ,Left ,65,8695794315296 ,42,5943799099439 ,96,6683495164457
13.153459 ,Left ,65,7554151470436 ,42,5223711802088 ,96,6075128584536
13.1748871 ,Left ,65,6984734997745 ,42,4624240794438 ,96,5338229682425
13.1927849 ,Left ,65,6883026153194 ,42,3769275720056 ,96,4622321988247
13.2123971 ,Left ,65,6845152979005 ,42,2925435719473 ,96,4011912506459
13.235033 ,Left ,65,5757129587695 ,42,2356137687742 ,96,3533986334788
13.2527765 ,Left ,65,4537448456892 ,42,2140703410242 ,96,3133102185104
13.2721251 ,Left ,65,3636533736644 ,42,2176460274897 ,96,2765424856225
13.2945459 ,Left ,65,2733681436164 ,42,2036446904849 ,96,2376471578956
13.3122698 ,Left ,65,1994254297094 ,42,1877894314679 ,96,1781296844708
13.333297 ,Left ,65,1041095658418 ,42,1726864632107 ,96,1073608714791
13.3544942 ,Left ,65,0252278932197 ,42,1990700674241 ,96,0163182489839
13.3767833 ,Left ,64,9450209975815 ,42,282125279216 ,95,9207993208021
13.3932402 ,Left ,64,8388183656674 ,42,4132784627206 ,95,8618164369131
13.4143491 ,Left ,64,7583447165725 ,42,5467855536667 ,95,8441346861415
13.4324989 ,Left ,64,6977498420218 ,42,6661828029562 ,95,8604647624517
13.4532225 ,Left ,64,6272978603857 ,42,7707190317419 ,95,8978981706784
13.4743658 ,Left ,64,5964917341347 ,42,8694163276582 ,95,9478921469457
13.49261 ,Left ,64,5603422318617 ,42,9859116447877 ,95,9934778875966
13.5134274 ,Left ,64,5840411440295 ,42,9938875126528 ,96,0591910537668
13.5344316 ,Left ,64,6590737367793 ,42,9401940297468 ,96,1837734806152
13.552579 ,Left ,64,7089531899108 ,43,0714606482623 ,96,2615510878405
13.5735916 ,Left ,64,8326893933859 ,43,2819622042018 ,96,2414063959421
13.594303 ,Left ,65,0362763984734 ,43,4517140676725 ,96,1594245613105
13.6123705 ,Left ,65,1421183745144 ,43,5530126973154 ,96,1006844449455
13.6334558 ,Left ,65,2142319357847 ,43,6068339966028 ,96,0501974210978
13.6546764 ,Left ,65,2591029010688 ,43,5781282185533 ,96,0226759961521
13.67252 ,Left ,65,2451318881597 ,43,5157679248521 ,96,0281612634018
13.6937136 ,Left ,65,2478874970472 ,43,4194426543355 ,96,0518028301433
13.7148697 ,Left ,65,1724791674173 ,43,2173999001883 ,96,1389600365944
13.7371909 ,Left ,65,2340578404399 ,42,925986462078 ,96,2331738615651
13.7535515 ,Left ,65,3307280361931 ,42,8039311163608 ,96,3071583022069
13.7747374 ,Left ,65,3603173156516 ,42,9096382376182 ,96,2886733394952
13.7970424 ,Left ,65,3716872533048 ,43,0374611167406 ,96,2447067851911
13.8135071 ,Left ,65,4263907095266 ,43,1136181288419 ,96,2170024045056
13.8346821 ,Left ,65,4374546827609 ,43,2053588278469 ,96,2217058601826
13.8569438 ,Left ,65,4058867837144 ,43,2646960933132 ,96,2625903651945
13.8749346 ,Left ,65,34223599598 ,43,2331795231412 ,96,3197157044827
13.894387 ,Left ,65,3237565384406 ,43,2107759080298 ,96,4457499471685
13.9170719 ,Left ,65,2727891094193 ,43,3993377831696 ,96,5562298583075
13.9353482 ,Left ,65,225133836003 ,43,589751221704 ,96,5846439949329
13.9544808 ,Left ,65,237745183278 ,43,7220180552952 ,96,5746088149668
13.9769024 ,Left ,65,2429024066099 ,43,9026805800011 ,96,5808894324796
13.9951207 ,Left ,65,2020945462872 ,44,0311519784759 ,96,6040224296063
14.014678 ,Left ,65,1341983811724 ,44,0567995030997 ,96,651021698554
14.0370444 ,Left ,65,049101913469 ,43,9661014157153 ,96,832039617832
14.0548764 ,Left ,65,0127790915585 ,43,8143880734722 ,96,9877132917466
14.0744121 ,Left ,64,966766724961 ,43,7653170519294 ,97,0966549850193
14.0969458 ,Left ,64,8526732976698 ,43,9185003419961 ,97,148210385419
14.1155288 ,Left ,64,8765521079241 ,44,1689058038917 ,97,1221471129719
14.1347043 ,Left ,65,0014514336076 ,44,3971023223984 ,97,0776620357976
14.1569065 ,Left ,65,058845997511 ,44,5755574464812 ,97,0528694715178
14.174888 ,Left ,65,0027458261299 ,44,6829020132643 ,97,0391671336087
14.1946606 ,Left ,64,9829740191775 ,44,7143800479531 ,97,0025503872239
14.2171296 ,Left ,65,0115798496245 ,44,7637533585604 ,96,9713909036234
14.2350709 ,Left ,65,0518718594369 ,44,831723327134 ,96,9437606306373
14.2547065 ,Left ,65,0806379158255 ,44,8939758040721 ,96,9410213406176
14.2725169 ,Left ,65,0909307457991 ,44,9152530929765 ,96,9479847606194
14.295143 ,Left ,65,1725102861319 ,44,8732781065012 ,96,9532711702393
14.3159325 ,Left ,65,256819263079 ,44,7732290973171 ,96,9840911398518
14.3371276 ,Left ,65,337043124869 ,44,6106381143646 ,97,0348434065815
14.3549149 ,Left ,65,4495721149508 ,44,4151175105022 ,97,0776434827463
14.377668 ,Left ,65,5480002803909 ,44,1920536313623 ,97,1099616964471
14.3971671 ,Left ,65,6548429816233 ,43,9477411488262 ,97,1104608202864
14.4149462 ,Left ,65,7137842254071 ,43,6582361818713 ,97,1177089512398
14.4360402 ,Left ,65,749338982249 ,43,3695193863009 ,97,1176002817391
14.457116 ,Left ,65,7846804415503 ,43,0969131439487 ,97,0849577669988
14.4772968 ,Left ,65,849984431401 ,42,8413428499598 ,97,0291762303029
14.4942924 ,Left ,65,9449630690914 ,42,6034312870539 ,96,96243008692
14.5168296 ,Left ,66,0303458482441 ,42,4047984688038 ,96,8940465093493
14.5319198 ,Left ,66,0927126894997 ,42,2603552406517 ,96,8334876501583
14.5543616 ,Left ,66,1774662102593 ,42,1890829926848 ,96,7687541577338
14.5769236 ,Left ,65,9640487044378 ,42,0237343467131 ,96,8584731149905
14.5916957 ,Left ,65,9316577066569 ,42,0506194299363 ,96,8763212942502
14.6145919 ,Left ,66,1491918166779 ,42,0796508795713 ,96,7526245007509
14.6372473 ,Left ,65,8769599533854 ,41,9727724207934 ,96,8560935657652
14.6522371 ,Left ,65,8388633940684 ,42,0331818771247 ,96,8680348555475
14.6745792 ,Left ,65,7773718070115 ,42,1103123023839 ,96,9072801541971
14.697058 ,Left ,65,7488768721927 ,42,1192679296566 ,96,9278019167388
14.7121943 ,Left ,65,7023244192273 ,42,1663792180665 ,96,9565598951697
14.7348976 ,Left ,65,6635496016055 ,42,2233957280969 ,96,9744876823631
14.757189 ,Left ,65,6280541360776 ,42,251548095632 ,96,9672645844511
14.7718966 ,Left ,65,6069087021976 ,42,2738654689953 ,96,9612988860737
14.7944939 ,Left ,65,4915864965009 ,42,4145865861461 ,97,0182485403876
14.8170193 ,Left ,65,6016770570598 ,42,6062181126914 ,96,9875202607791
14.8319771 ,Left ,65,592740989687 ,42,8218575200664 ,97,015183379666
14.8546229 ,Left ,65,5510185437814 ,42,8341375130529 ,97,0514435628457
14.8769868 ,Left ,65,527963439447 ,42,8534751367681 ,97,1041549072932
14.8936229 ,Left ,65,5075901139928 ,42,8743216168058 ,97,1450447636551
14.9145694 ,Left ,65,4774300372702 ,42,910340066969 ,97,1702950985516
14.9370204 ,Left ,65,4520417560183 ,42,9435870597477 ,97,182568028512
14.9535281 ,Left ,65,4683548805674 ,42,9762413819354 ,97,1802885872146
14.9746585 ,Left ,65,4667779793679 ,42,9822767705255 ,97,1819350467918
14.9971234 ,Left ,65,4982585083009 ,42,982779616176 ,97,1704563911495
15.0134937 ,Left ,65,504728403732 ,42,9749283368711 ,97,1540839963294
15.034846 ,Left ,65,5252433613939 ,42,9636588566515 ,97,1349812265216
15.0574705 ,Left ,65,5598563533228 ,42,9559017952433 ,97,1125613934549
15.0737973 ,Left ,65,5981950034165 ,42,9371621193145 ,97,0758810417797
15.0951497 ,Left ,65,652116811974 ,42,8971596057728 ,97,0173326824218
15.1176191 ,Left ,65,6976735534234 ,42,8521339506595 ,96,9689632225206
15.133637 ,Left ,65,7539301478942 ,42,8234373502936 ,96,9108016829909
15.1548505 ,Left ,65,7745087268574 ,42,7948533406797 ,96,8500905019705
15.1773352 ,Left ,65,7981943955339 ,42,7773410623666 ,96,7898017157779
15.1935756 ,Left ,65,8262818220177 ,42,7663847638389 ,96,7303167117505
15.2145576 ,Left ,65,8439042408652 ,42,754655606319 ,96,6684581046838
15.2368999 ,Left ,65,8259933470106 ,42,7317249523573 ,96,6159156857516
15.2538326 ,Left ,65,7828586004393 ,42,7131859921978 ,96,5777634998763
15.2748921 ,Left ,65,7215807201431 ,42,6961971421335 ,96,5547663429206
15.2975814 ,Left ,65,6605398725559 ,42,6528611420373 ,96,5648926261215
15.3137387 ,Left ,65,6234952286051 ,42,5972004340113 ,96,5843757762208
15.3345853 ,Left ,65,5596889210443 ,42,552318598637 ,96,6068547412252
15.3570126 ,Left ,65,4983771289315 ,42,5152983749278 ,96,6319768857205
15.3739074 ,Left ,65,4467214789316 ,42,4611464930301 ,96,6501768122158
15.3966279 ,Left ,65,3883327766662 ,42,4003367649106 ,96,6681926381577
15.4176481 ,Left ,65,3156508912306 ,42,3465186773157 ,96,6825440594915
15.4339074 ,Left ,65,2419321349637 ,42,3018620915774 ,96,6878444016481
15.4564531 ,Left ,65,1896900553451 ,42,2767907166665 ,96,6716064373876
15.4776806 ,Left ,65,1730423298605 ,42,2617155492168 ,96,6195011792236
15.4941724 ,Left ,65,1497642864611 ,42,2195339743936 ,96,5434177555329
15.5166537 ,Left ,65,1475793704828 ,42,1918773825488 ,96,4692373943767
15.5375232 ,Left ,65,1393760412235 ,42,1760091314802 ,96,4040781945216
15.5541096 ,Left ,65,1402395415971 ,42,208680144835 ,96,3611475013728
15.5765747 ,Left ,65,0921933217585 ,42,2692253800302 ,96,3327603629561
15.5990696 ,Left ,65,0416844808726 ,42,3388575386913 ,96,3275967163279
15.6140398 ,Left ,65,0151253540148 ,42,4021861409159 ,96,3348036128023
15.6366068 ,Left ,65,0107486984985 ,42,4584115245185 ,96,3509870416035
15.6578452 ,Left ,65,0139483018339 ,42,5144220269824 ,96,348764078067
15.6741118 ,Left ,64,9882765089991 ,42,5560166302294 ,96,3484792676038
15.6969916 ,Left ,64,9698474612364 ,42,5904202975574 ,96,3390514578711
15.7182751 ,Left ,64,9758956950523 ,42,6379176764748 ,96,3118245298499
15.7344575 ,Left ,64,9693901537556 ,42,68546090767 ,96,2708578504058
15.756742 ,Left ,64,9517332201031 ,42,7153301195391 ,96,2328148237553
15.779388 ,Left ,64,9375879478194 ,42,7418475170161 ,96,2064440126672
15.7944072 ,Left ,64,9173759354752 ,42,7553681410082 ,96,187963569515
15.8167937 ,Left ,64,9156643085291 ,42,7659641469686 ,96,1849707849894
15.839293 ,Left ,64,9094454497363 ,42,8185836529256 ,96,1941421261879
15.853704 ,Left ,64,9094102517142 ,42,8951030640756 ,96,2103077282372
15.8769444 ,Left ,64,8952210581103 ,42,9719655351498 ,96,2770789709066
15.8992279 ,Left ,64,8561389320396 ,43,1883728089494 ,96,378794810566
15.9135379 ,Left ,64,8818824166014 ,43,4991910254707 ,96,4620411502176
15.9367743 ,Left ,65,0002168547231 ,43,7998076843233 ,96,538130969311
15.9594637 ,Left ,65,1423508974251 ,44,0024126974065 ,96,6015542314428
15.9735466 ,Left ,65,2437036516949 ,44,1665678803468 ,96,6772408288854
15.9966992 ,Left ,65,3025100461987 ,44,2741392460017 ,96,7604533910387
16.0190662 ,Left ,65,3531461933195 ,44,3228576045649 ,96,8253227706832
16.0400741 ,Left ,65,4147394179381 ,44,3189065476548 ,96,8601478985569
16.0565303 ,Left ,65,4596994846479 ,44,2615771556891 ,96,8970180619967
16.0790127 ,Left ,65,4791230099528 ,44,1590992826874 ,96,9375447205471
16.1002814 ,Left ,65,4897851619134 ,44,00727976493 ,96,9504065036632
16.1167434 ,Left ,65,4973235160051 ,43,8352395731293 ,96,9314743495741
16.1390615 ,Left ,65,3858922170004 ,43,6173374697769 ,96,9104553619361
16.1603986 ,Left ,65,3556076313488 ,43,3408900463045 ,96,9000803125256
16.1766591 ,Left ,65,3622206956606 ,43,1173252277408 ,96,8822941183175
16.1990574 ,Left ,65,350432804121 ,42,9334980686407 ,96,889385717059
16.2202553 ,Left ,65,4601607264436 ,42,9151014989747 ,96,902956742665
16.2367206 ,Left ,65,4411445265543 ,43,0146014015982 ,96,8613540140269
16.2590393 ,Left ,65,3511546193158 ,43,1044294440523 ,96,8091196871227
16.2801022 ,Left ,65,3908142293753 ,43,1981589848192 ,96,7627835387904
16.2965904 ,Left ,65,4438331823434 ,43,2886042844836 ,96,741135915575
16.3192802 ,Left ,65,448439266351 ,43,3084021435191 ,96,7513583692168
16.3401924 ,Left ,65,4016805447275 ,43,2160860112061 ,96,8258588807516
16.3569502 ,Left ,65,4594448819186 ,43,0603421156168 ,96,9635053148092
16.3804435 ,Left ,65,5014957256883 ,43,1292615657063 ,97,0366650615121
16.400504 ,Left ,65,4915544318612 ,43,2620997592408 ,97,0228850471977
16.4166862 ,Left ,65,6005829413313 ,43,3959128691104 ,96,9720233732035
16.4391295 ,Left ,65,7292621209274 ,43,5553580966141 ,96,943097762475
16.4602302 ,Left ,65,8149804313183 ,43,6901714749053 ,96,9196161006835
16.4766039 ,Left ,65,8540470680734 ,43,8292693805349 ,96,8851136315393
16.4991016 ,Left ,65,8383005765774 ,43,9764632015493 ,96,8536295948837
16.5204186 ,Left ,65,8215333940917 ,44,0726498815904 ,96,8532729933541
16.5367739 ,Left ,65,8267976925741 ,44,0701818349039 ,96,8881467599563
16.5591613 ,Left ,65,8450589156963 ,44,0234170771065 ,96,9632381069932
16.5802759 ,Left ,65,9609291636278 ,43,9938677944025 ,96,9995834681327
16.5967035 ,Left ,65,8621966665028 ,43,8845529980736 ,97,0823381620473
16.619137 ,Left ,66,0100867461955 ,43,9210583609327 ,97,0232717357213
16.6402609 ,Left ,66,1052501040158 ,44,0846630838902 ,96,960291737456
16.6565737 ,Left ,66,1385892889578 ,44,2731438269225 ,96,9378242953011
16.6790819 ,Left ,66,1234711501352 ,44,4796255266872 ,96,9371163234201
16.700141 ,Left ,66,0059897564075 ,44,6902253643669 ,96,9230725288947
16.7160921 ,Left ,65,8856263672315 ,44,7391694918633 ,96,9410681374868
16.7388639 ,Left ,65,8245711292952 ,44,6893582805405 ,97,0384454206634
16.7613959 ,Left ,65,717337391859 ,44,7727693368616 ,97,1761788341936
16.7825077 ,Left ,65,4896153300617 ,44,9998528767547 ,97,2938016276959
16.7989987 ,Left ,65,428966093145 ,45,2778495723373 ,97,3681186808605
16.8214134 ,Left ,65,5009841161452 ,45,546673245999 ,97,4466866453125
16.842752 ,Left ,65,5877631131017 ,45,7839865944829 ,97,5037859055141
16.859095 ,Left ,65,6123289829618 ,45,9460342711443 ,97,5452156340128
16.8816296 ,Left ,65,5813452530799 ,45,9791250097162 ,97,5413473904756
16.9028023 ,Left ,65,6120533026882 ,46,0290461685396 ,97,4854094499142
16.9188489 ,Left ,65,6533462192544 ,46,061007098227 ,97,3961871907927
16.9421243 ,Left ,65,639210373556 ,46,0667206287228 ,97,3042537056958
16.962973 ,Left ,65,6396167499414 ,46,0473145041497 ,97,213550802366
16.978995 ,Left ,65,6400310622005 ,46,011770935009 ,97,1278023169694
17.0017532 ,Left ,65,6520430452749 ,45,9684711519091 ,97,0358798285623
17.0228611 ,Left ,65,6622386135712 ,45,9305254687379 ,96,9378818913776
17.039215 ,Left ,65,6530412579507 ,45,9056627197881 ,96,8394496205861
17.0617054 ,Left ,65,6254187113271 ,45,8971468994135 ,96,7555769294867
17.082923 ,Left ,65,5296602514207 ,45,8458120980088 ,96,7100202027031
17.0991474 ,Left ,65,5021540382929 ,45,7002927901765 ,96,7072599807365
17.1213745 ,Left ,65,5199200118673 ,45,4965910793771 ,96,6977871789544
17.1431032 ,Left ,65,4959517702301 ,45,4333427229046 ,96,6751908306344
17.1589894 ,Left ,65,4213479012269 ,45,4215980454727 ,96,658915835485
17.1815098 ,Left ,65,4706494962146 ,45,3420718948744 ,96,6282786439271
17.2040807 ,Left ,65,5809520182167 ,45,1212593513315 ,96,5726168329552
17.2192063 ,Left ,65,6550884947636 ,44,8574244003599 ,96,5262330567023
17.2431816 ,Left ,65,6635472545718 ,44,5829946206551 ,96,4911884813919
17.262719 ,Left ,65,6145302866357 ,44,3310377289474 ,96,4623286149401
17.2790796 ,Left ,65,5933652299437 ,44,1615332826311 ,96,4020240375261
17.3014824 ,Left ,65,5699616334888 ,43,9571380417003 ,96,3821312421911
17.3224639 ,Left ,65,6308970588651 ,43,7323347831658 ,96,4731245056382
17.3390848 ,Left ,65,6434517874095 ,43,6698286503119 ,96,5804101705053
17.3616014 ,Left ,65,5956418176507 ,43,7993273752439 ,96,6346492308159
17.3826744 ,Left ,65,6499288968478 ,43,9548760079445 ,96,7086032980224
17.399168 ,Left ,65,708202203152 ,44,0324355051618 ,96,7913944338046
17.4214411 ,Left ,65,7854650474454 ,44,0662516971313 ,96,8785663179574
17.4429 ,Left ,65,789737424617 ,44,1100687317 ,96,9380543402545
17.4591367 ,Left ,65,8054999847204 ,44,1454944481749 ,96,9356446806263
17.4815661 ,Left ,65,8576136110009 ,44,1219361746424 ,96,885036598887
17.5028072 ,Left ,65,857748208971 ,44,0350781267264 ,96,8376712772716
17.5190288 ,Left ,65,8035234673948 ,43,8894000956008 ,96,793730568018
17.5415737 ,Left ,65,770071828118 ,43,7358909005404 ,96,7422554781926
17.5624842 ,Left ,65,7811245827426 ,43,5633792517364 ,96,6475087325728
17.5784063 ,Left ,65,7567393745707 ,43,4127414934695 ,96,5321500109383
17.6013278 ,Left ,65,6680295154323 ,43,2933219510174 ,96,4266935438362
17.6230977 ,Left ,65,5926779576927 ,43,2011262887538 ,96,3205278493179
17.6384609 ,Left ,65,5502994829789 ,43,112252241288 ,96,2158600298385
17.6614067 ,Left ,65,4973708887008 ,43,0162377617361 ,96,1422059146391
17.6841132 ,Left ,65,471722582299 ,42,9213021146327 ,96,084151654099
17.6984727 ,Left ,65,4061482196711 ,42,8753059549532 ,96,0241940447175
17.7215239 ,Left ,65,28809283295 ,42,8513183396571 ,95,9740184677465
17.7441436 ,Left ,65,2481187068815 ,42,8473118648046 ,95,9074899342491
17.7585168 ,Left ,65,1891043709606 ,42,8539267497478 ,95,8370633043158
17.7821044 ,Left ,65,102932711244 ,42,86647862106 ,95,7764594572754
17.8045192 ,Left ,65,0567461885821 ,42,9159502285931 ,95,7252719837685
17.8187441 ,Left ,64,9822596744335 ,43,0109238878077 ,95,6962967675915
17.8418494 ,Left ,64,9063010770133 ,43,1470435146645 ,95,689990071175
17.864541 ,Left ,64,8538659358566 ,43,2923345964128 ,95,7027554454036
17.878758 ,Left ,64,8371139541772 ,43,3814423159625 ,95,7292747132823
17.901775 ,Left ,64,8376980484931 ,43,4477925771591 ,95,7992779868598
17.9242799 ,Left ,64,8350611462154 ,43,5624105614851 ,95,891026320108
17.9455684 ,Left ,64,826341801657 ,43,5665751056846 ,95,9760276056002
17.9617469 ,Left ,64,8964906466389 ,43,4683529115116 ,96,1115810326871
17.9842077 ,Left ,64,9321113529471 ,43,4841539494368 ,96,2571286913576
18.0053948 ,Left ,64,947623714134 ,43,6553436856538 ,96,3338418773629
18.0217573 ,Left ,65,0982223167546 ,43,856966702371 ,96,3290216147691
18.0444668 ,Left ,65,2654646485739 ,43,9944229105411 ,96,313695067871
18.0652389 ,Left ,65,3539438365023 ,44,0674617942357 ,96,3160221647439
18.0817136 ,Left ,65,3945904172564 ,44,1008627982902 ,96,3099478583038
18.1043359 ,Left ,65,406660691288 ,44,0809911958038 ,96,3226134468864
18.125536 ,Left ,65,4063357179113 ,44,0047393788462 ,96,338203376804
18.1416807 ,Left ,65,3992654719641 ,43,8922243311569 ,96,3623777780987
18.1642555 ,Left ,65,3082795312236 ,43,7333471449684 ,96,4088474987781
18.185483 ,Left ,65,2296733790939 ,43,4612032647782 ,96,5009865629596
18.2017631 ,Left ,65,2761820407062 ,43,2048679587777 ,96,5937350966521
18.2242375 ,Left ,65,3208071103144 ,43,0264099281887 ,96,6796735921046
18.2452947 ,Left ,65,348500832537 ,43,0867304645307 ,96,7179092325235
18.2616606 ,Left ,65,2920075553421 ,43,2359958745062 ,96,7083093727887
18.2841441 ,Left ,65,342848740929 ,43,3608848755414 ,96,6452960029446
18.3052366 ,Left ,65,4305614459247 ,43,4237562803205 ,96,6063039121056
18.3216053 ,Left ,65,4537216554936 ,43,4500643475267 ,96,5993050640906
18.344325 ,Left ,65,3820445850429 ,43,4738185089291 ,96,6246660363401
18.3652722 ,Left ,65,279479505696 ,43,4763100064267 ,96,6383851077102
18.3815397 ,Left ,65,3612205562164 ,43,4080794119912 ,96,6960435218768
18.4042739 ,Left ,65,3686100108903 ,43,4150671289551 ,96,8344769115046
18.425277 ,Left ,65,3235147500421 ,43,5782183432766 ,96,9127897868192
18.4416215 ,Left ,65,2960684395441 ,43,7322642866557 ,96,9449906311603
18.4641348 ,Left ,65,3280231048523 ,43,8402272250354 ,96,9729050684292
18.4852892 ,Left ,65,3232090792518 ,43,9917689472435 ,96,9910726730241
18.501683 ,Left ,65,2663408789758 ,44,0882231636506 ,97,0109618424324
18.5241847 ,Left ,65,1996448899813 ,44,1140527791062 ,97,0585033464293
18.5451389 ,Left ,65,1312797905691 ,44,1219660557515 ,97,1644461725545
18.5617411 ,Left ,65,0518425357837 ,44,0604436467979 ,97,2616161184002
18.584108 ,Left ,65,0677057153528 ,43,9256569358016 ,97,355423013123
18.6071865 ,Left ,65,1269964184775 ,43,9754225241326 ,97,4515576987723
18.6219431 ,Left ,65,0602343996441 ,44,1949083794544 ,97,5087956669174
18.6443077 ,Left ,65,0338018481712 ,44,4252127633121 ,97,5417945892335
18.6668187 ,Left ,65,1485634449496 ,44,6273840403689 ,97,5420128431601
18.6811095 ,Left ,65,2892304613415 ,44,7880016628488 ,97,5274783545012
18.7042206 ,Left ,65,3488311863451 ,44,9114890870012 ,97,4915460439617
18.7267747 ,Left ,65,3574222408311 ,44,9876289821494 ,97,4306570519413
18.7411336 ,Left ,65,3511327101334 ,45,0465245231963 ,97,3596808399316
18.7643358 ,Left ,65,3536766225078 ,45,0930325891615 ,97,2647870952375
18.7863285 ,Left ,65,3658780375977 ,45,054036673011 ,97,1486189826401
18.8076507 ,Left ,65,3953382102652 ,44,9130807847447 ,97,0384565155231
18.8241588 ,Left ,65,4212244877206 ,44,7778238225427 ,96,9471809058929
18.8466507 ,Left ,65,3938374937367 ,44,6871515291557 ,96,8333900106896
18.8675607 ,Left ,65,4313476673544 ,44,57781542508 ,96,7172684095755
18.8842246 ,Left ,65,4678696840482 ,44,3910409729209 ,96,6763688870522
18.9065275 ,Left ,65,5443986107215 ,44,2921542266324 ,96,6891856343523
18.9277651 ,Left ,65,6325431082766 ,44,3134271585045 ,96,6845973860826
18.9441315 ,Left ,65,7966277309689 ,44,3335660536979 ,96,635731393553
18.9666884 ,Left ,65,9435756712684 ,44,2617256808515 ,96,5968365734309
18.9877904 ,Left ,66,0858498990948 ,44,1093621826708 ,96,5448859985234
19.0034727 ,Left ,66,1339853305174 ,43,8653294705774 ,96,5068956215187
19.0267527 ,Left ,66,1593093380036 ,43,6466804403271 ,96,4544608801467
19.0478077 ,Left ,66,2031156532815 ,43,4271894380039 ,96,4321174611341
19.0636547 ,Left ,66,2065429027511 ,43,1160505207428 ,96,5052801009013
19.086697 ,Left ,66,2648314593664 ,42,8252040457273 ,96,6663178035882
19.1074638 ,Left ,66,1743128060709 ,42,7663094042656 ,96,8007632487591
19.1239489 ,Left ,66,0973739839948 ,42,8980129990657 ,96,887670778694
19.1467218 ,Left ,66,1653237051833 ,43,0359358772342 ,96,9845482290699
19.1679912 ,Left ,66,236136465557 ,43,1185996264187 ,97,101036477625
19.1844151 ,Left ,66,3345746836233 ,43,1566198080937 ,97,2031153071882
19.206634 ,Left ,66,3102595292135 ,43,1723786630223 ,97,2814154883044
19.2280792 ,Left ,66,270297112307 ,43,2205206612328 ,97,3016940694648
19.2437451 ,Left ,66,225375417567 ,43,2447050005788 ,97,2730808907037
19.2667406 ,Left ,66,1866833129848 ,43,2390827072164 ,97,2010467543034
19.2894094 ,Left ,66,1049100167333 ,43,182524684096 ,97,1270609480765
19.3036883 ,Left ,66,0438261065318 ,43,0849776080986 ,97,0760762873968
19.3268252 ,Left ,66,0216270398413 ,42,9793159262107 ,97,0246782251715
19.3491031 ,Left ,65,9543613848797 ,42,8957221170131 ,96,942590016133
19.3700072 ,Left ,65,8787551565491 ,42,8068736152666 ,96,8395692604502
19.3866258 ,Left ,65,858331442555 ,42,7295515221624 ,96,724365248321
19.4099364 ,Left ,65,8468137669219 ,42,6706692497288 ,96,6167229629532
19.4238231 ,Left ,65,8267043051011 ,42,6393635383003 ,96,5228165062773
19.4468994 ,Left ,65,7582282228782 ,42,6143832581575 ,96,4397062332751
19.4693719 ,Left ,65,6679730182932 ,42,5923294391961 ,96,3820526879906
19.4836954 ,Left ,65,5957942511929 ,42,5755251198273 ,96,3355569619969
19.5066978 ,Left ,65,5097833560433 ,42,5508025924104 ,96,3043889719695
19.529377 ,Left ,65,441520382716 ,42,5241545248378 ,96,2763037871238
19.5505245 ,Left ,65,3945241786903 ,42,5194035017482 ,96,2270882826233
19.5668095 ,Left ,65,3470144638481 ,42,5502005542633 ,96,1663600206928
19.5921555 ,Left ,65,3305429858047 ,42,6180155752242 ,96,0819028037136
19.5961132 ,Left ,65,2790337023586 ,42,7112701693608 ,96,0147577294205
19.6183946 ,Left ,65,2380777097908 ,42,8483929790054 ,95,9651254194606
19.6399915 ,Left ,65,2225199884848 ,42,8896926633841 ,95,9281220206956
19.6625227 ,Left ,64,9972768702345 ,42,8278644493456 ,96,0211205954624
19.6788303 ,Left ,64,7609911229838 ,42,8085331198348 ,96,1565423990921
19.7008473 ,Left ,64,8025286011407 ,42,9583220016727 ,96,1912917423329
19.7235303 ,Left ,64,9982523940659 ,43,087540520877 ,96,1628422922154
19.7389298 ,Left ,64,7846097116045 ,42,9690250343872 ,96,2961731840449
19.7603983 ,Left ,64,9478049441399 ,42,9607669626936 ,96,3518329747505
19.782955 ,Left ,65,1631321371365 ,43,0344100456678 ,96,428889490533
19.7984889 ,Left ,65,0784276669632 ,43,17500759557 ,96,5363151084221
19.8215359 ,Left ,65,2074456174677 ,43,3482683762987 ,96,5173464560872
19.8429801 ,Left ,65,3628805253555 ,43,4544467902337 ,96,5011398885039
19.8581103 ,Left ,65,4334969959229 ,43,5148027669257 ,96,5127988650271
19.8814159 ,Left ,65,4872904976812 ,43,5500694817823 ,96,5332788359984
19.902673 ,Left ,65,5006680162507 ,43,5298602558538 ,96,5592796305294
19.9185757 ,Left ,65,3841582606519 ,43,3286984088581 ,96,6319512388369
19.9415524 ,Left ,65,5500382512692 ,43,3418076678402 ,96,644452027584
19.9628343 ,Left ,65,4820119928346 ,43,0712954761177 ,96,7402370049023
19.9798267 ,Left ,65,4254211089662 ,42,91373113607 ,96,8264268798047
20.0014725 ,Left ,65,3477846524977 ,42,8095767588806 ,96,8903720958243
20.0225636 ,Left ,65,3296307560408 ,42,6683001462089 ,96,944321907545
20.0383107 ,Left ,65,3643944664436 ,42,6557958129845 ,97,0123359061362
20.0615146 ,Left ,65,4111688736953 ,42,7853960743948 ,97,0428030590186
20.0828306 ,Left ,65,4832545700638 ,42,9637943793786 ,97,0257507119227
20.0985751 ,Left ,65,5571846595747 ,43,1016024166513 ,96,9944886117051
20.121737 ,Left ,65,5731547994578 ,43,2337469247344 ,96,9816510913663
20.1427509 ,Left ,65,6033089759656 ,43,3483167720677 ,96,9801156493462
20.1585097 ,Left ,65,5362464639001 ,43,4355225943969 ,97,0078899743748
20.1817069 ,Left ,65,5089383392208 ,43,4280375464001 ,97,0057156785778
20.2030245 ,Left ,65,5201405385467 ,43,2603451780739 ,97,0252310340618
20.2186792 ,Left ,65,5171196287268 ,43,1988188128313 ,97,1446474400243
20.2415789 ,Left ,65,3972513647274 ,43,3339197147198 ,97,1844715322529
20.2630419 ,Left ,65,4116600387044 ,43,4698772782212 ,97,1448440073982
20.2786123 ,Left ,65,480483673779 ,43,589321487304 ,97,0870286608321
20.3016614 ,Left ,65,4545247116773 ,43,7179821490988 ,97,0630206298446
20.3229983 ,Left ,65,4216584397861 ,43,8298826565057 ,97,0536464083038
20.3385894 ,Left ,65,3670003383995 ,43,905155248104 ,97,062680917826
20.3617931 ,Left ,65,3320484968965 ,43,9617181491291 ,97,1166382873563
20.3830075 ,Left ,65,2948094941574 ,43,9200131674775 ,97,1770357186722
20.3986406 ,Left ,65,2772171850743 ,43,7641537507342 ,97,3063897446633
20.4219823 ,Left ,65,2531835191712 ,43,8793056727935 ,97,4228408153113
20.4434773 ,Left ,65,1234434691971 ,44,1400565470795 ,97,4773332516241
20.4589338 ,Left ,65,1991149489132 ,44,3907412818688 ,97,4990613023346
20.4893079 ,Left ,65,3517042790953 ,44,5721700767819 ,97,5226466778099
20.5119081 ,Left ,65,4972571550084 ,44,7057280805179 ,97,5176842357505
20.5262281 ,Left ,65,4897592951617 ,44,7357231663629 ,97,4557225838029
20.5492344 ,Left ,65,5062570559128 ,44,7531058889051 ,97,3614019332576
20.5719018 ,Left ,65,5273455041829 ,44,7859477612492 ,97,2547633201443
20.5862383 ,Left ,65,5580962579434 ,44,8030159564099 ,97,1266732196618
20.6092673 ,Left ,65,551108553382 ,44,7856654679768 ,97,0081055247663
20.6317944 ,Left ,65,5369216478044 ,44,7067326049492 ,96,9120160567454
20.6461711 ,Left ,65,5704807921622 ,44,581259734019 ,96,844866617588
20.6694837 ,Left ,65,5534755966972 ,44,472307485949 ,96,7881830328694
20.691772 ,Left ,65,4824531695535 ,44,429588463926 ,96,72500373368
20.7128251 ,Left ,65,4450335523124 ,44,3746585211103 ,96,6636879623429
20.7294167 ,Left ,65,4330817673157 ,44,2594480686119 ,96,6714914385439
20.7516612 ,Left ,65,5226572377166 ,44,1794111802327 ,96,7356485147827
20.7731219 ,Left ,65,5302847198227 ,44,2386237291248 ,96,7485399288908
20.7891931 ,Left ,65,5774998888862 ,44,2727685591262 ,96,7270124571361
20.811575 ,Left ,65,6567569974027 ,44,1920568048236 ,96,6950944185662
20.8327934 ,Left ,65,7741310140583 ,44,0166321103221 ,96,6259726634183
20.8492905 ,Left ,65,803618571204 ,43,771919375152 ,96,5604765468823
20.8716254 ,Left ,65,8389450072511 ,43,5220102969147 ,96,4856615115904
20.8927222 ,Left ,65,824720347118 ,43,2828723761306 ,96,4369724818108
20.9084742 ,Left ,65,7328691481916 ,43,0098094982354 ,96,417772791659
20.9314818 ,Left ,65,7174897522986 ,42,6799792959394 ,96,4882937489868
20.9526098 ,Left ,65,7286106260806 ,42,545767492871 ,96,6037090880647
20.9691431 ,Left ,65,6886420503722 ,42,6682633447628 ,96,6675561539567
20.9915449 ,Left ,65,7335697227996 ,42,8424381170731 ,96,7519625353399
21.0129224 ,Left ,65,8229609841259 ,42,9643522077373 ,96,8411502233127
21.0291802 ,Left ,65,9340673561299 ,42,9847553926305 ,96,9369029766418
21.0516199 ,Left ,65,9727798909188 ,43,0102415807441 ,96,9909443489338
21.0727548 ,Left ,65,9931584752316 ,43,0636966951404 ,97,0064437293251
21.0892239 ,Left ,65,9803219743578 ,43,1082865892373 ,97,0100038868372
21.111612 ,Left ,65,9604803589253 ,43,0861917671248 ,97,0005776436249
21.132856 ,Left ,65,9226089294155 ,42,9775914882769 ,96,9769476458634
21.1491491 ,Left ,65,8887907998169 ,42,8554625299103 ,96,9175481886421
21.1715388 ,Left ,65,8392264940269 ,42,7364396715981 ,96,8262730826315
21.1926911 ,Left ,65,8243471149721 ,42,6468462051288 ,96,7291381370944
21.2085151 ,Left ,65,7611521943288 ,42,5837667953322 ,96,6625667688283
21.2314943 ,Left ,65,7089607528125 ,42,5378870047483 ,96,6064733457718
21.2527047 ,Left ,65,6848231616195 ,42,4996743360409 ,96,5428636211028
21.2690989 ,Left ,65,6307561487394 ,42,468591012726 ,96,4705344489053
21.2919648 ,Left ,65,5508447980629 ,42,4243884060589 ,96,4107182555374
21.3130495 ,Left ,65,4911173661758 ,42,3826902686987 ,96,3583036891927
21.3288258 ,Left ,65,4402558845806 ,42,3477571630381 ,96,310013477596
21.351769 ,Left ,65,3727396396045 ,42,3188984682647 ,96,2680302331746
21.3730327 ,Left ,65,3093279025691 ,42,2968407439345 ,96,2213012281014
21.3897168 ,Left ,65,25073402652 ,42,3038705315387 ,96,1573637338966
21.4118909 ,Left ,65,1974928889099 ,42,3323981222183 ,96,081785189513
21.4329695 ,Left ,65,1774546721938 ,42,3789596631297 ,95,9922863356551
21.4486692 ,Left ,65,1467537958304 ,42,4639102668407 ,95,9132878386922
21.4718001 ,Left ,65,0868167081861 ,42,600840818681 ,95,8677459884878
21.4944545 ,Left ,65,0309895163152 ,42,7850287275085 ,95,8420301831853
21.5085968 ,Left ,64,9627588984068 ,42,9501578961625 ,95,8535853834943
21.5317409 ,Left ,64,9413380449619 ,43,0530506160812 ,95,8809315149849
21.5543949 ,Left ,64,9527961373801 ,43,0857543715497 ,95,9456309585247
21.5685955 ,Left ,64,9068738977676 ,43,1926028533546 ,96,0526031407892
21.5916962 ,Left ,64,8733279336738 ,43,2571506799991 ,96,1387728605877
21.6142969 ,Left ,64,9500375725801 ,43,210406902073 ,96,2274610687306
21.628648 ,Left ,65,0246195320681 ,43,2881661706272 ,96,2974715291226
21.6518883 ,Left ,65,0917156666056 ,43,4994088714225 ,96,3450938698214
21.6742865 ,Left ,65,2639114747723 ,43,7251242054867 ,96,320347723825
21.6955052 ,Left ,65,4041941577513 ,43,8594085392076 ,96,2926678500717
21.7118119 ,Left ,65,5108409200372 ,43,8685820510034 ,96,2865771966711
21.7344089 ,Left ,65,4413540186382 ,43,7921913858318 ,96,3181438816946
21.7561066 ,Left ,65,5374087817844 ,43,7791070728674 ,96,2925071177786
21.77182 ,Left ,65,587512981568 ,43,8882860245297 ,96,3080749283668
21.7943447 ,Left ,65,5387956048838 ,43,9564040470677 ,96,3473687553587
21.815295 ,Left ,65,3494742105269 ,43,8830578720282 ,96,4642706916023
21.8317799 ,Left ,65,2945527058729 ,43,6776450929075 ,96,6224811287238
21.8543694 ,Left ,65,2841919747223 ,43,5969519534097 ,96,7731552815299
21.8754021 ,Left ,65,1428668152118 ,43,729780132788 ,96,8482750413832
21.8918325 ,Left ,64,9998900293516 ,43,9098292977915 ,96,8725682233217
21.9142753 ,Left ,64,9801150507499 ,44,0671690772862 ,96,8731537395164
21.9356249 ,Left ,64,8984102909767 ,44,2227547166053 ,96,8986972368684
21.9516065 ,Left ,64,8130830307524 ,44,3573861409926 ,96,9385996321172
21.9740023 ,Left ,64,6303585782418 ,44,4797212279159 ,96,9782145241211
21.9956191 ,Left ,64,528401796094 ,44,4863436513954 ,97,0786891621038
22.0119099 ,Left ,64,6558301943345 ,44,5729581204311 ,97,2002896205799
22.0343282 ,Left ,64,615204983189 ,44,7947008892625 ,97,2470013004964
22.055522 ,Left ,64,6460882200303 ,44,9818975580246 ,97,2322116991394
22.0716686 ,Left ,64,6829440502894 ,45,1882191269133 ,97,2284192199034
22.0941151 ,Left ,64,6625985435371 ,45,3619783486989 ,97,2350907834632
22.1153049 ,Left ,64,6602351266867 ,45,4650902135582 ,97,2415087086605
22.1316022 ,Left ,64,5576799060165 ,45,44871210345 ,97,313237002021
22.1542226 ,Left ,64,5175494347322 ,45,3709686337782 ,97,3955864249548
22.1751422 ,Left ,64,5254997508062 ,45,1933024332292 ,97,416181934603
22.1916443 ,Left ,64,562459219037 ,45,0340276532165 ,97,4670828610314
22.2141589 ,Left ,64,5420803372845 ,45,1697526950472 ,97,4192976671957
22.2352163 ,Left ,64,5112698185879 ,45,3954226067645 ,97,2803322280433
22.2515035 ,Left ,64,6842943385105 ,45,566061074415 ,97,1305500450223
22.2739579 ,Left ,64,8113469684574 ,45,6573338311319 ,97,0270307993947
22.2950151 ,Left ,64,8268848295129 ,45,7215382033705 ,96,9560927759102
22.3182944 ,Left ,64,8118853966637 ,45,7472712548928 ,96,8848946978023
22.3345116 ,Left ,64,7947792324189 ,45,7531154084347 ,96,8403417831343
22.3557808 ,Left ,64,8422741566389 ,45,7132151181828 ,96,7847612149963
22.371391 ,Left ,64,8496287531482 ,45,5635550964996 ,96,7416302874344
22.394201 ,Left ,64,8539946716511 ,45,2780085370338 ,96,7385672711087
22.4164877 ,Left ,64,8619130067542 ,45,0009515659025 ,96,7807887430654
22.4309656 ,Left ,64,8542205059659 ,44,743807566731 ,96,7991808373685
22.454135 ,Left ,64,8097801863432 ,44,5111795412319 ,96,816204881206
22.4766577 ,Left ,64,9298485894434 ,44,4265720270319 ,96,8225907326625
22.4911676 ,Left ,64,9813863430368 ,44,5211431518245 ,96,8184945609479
22.5140371 ,Left ,65,1372122413041 ,44,6536251495909 ,96,8089743851705
22.5366172 ,Left ,65,3355638918926 ,44,7262949545713 ,96,8305394977465
22.5576873 ,Left ,65,4587975108711 ,44,7706303263854 ,96,839356901781
22.5742624 ,Left ,65,4985486676071 ,44,7599237779119 ,96,8609407995179
22.5966918 ,Left ,65,5820374138567 ,44,6770524326325 ,96,8957820295744
22.6110934 ,Left ,65,6541140207642 ,44,5220202747677 ,96,9418452924236
22.6341624 ,Left ,65,7165239120419 ,44,3141663406124 ,96,987549775422
22.6565566 ,Left ,65,707926004345 ,44,0695848522155 ,97,0332357112552
22.6778208 ,Left ,65,6920067823543 ,43,8550980401606 ,97,0777367741729
22.6941251 ,Left ,65,6850520225527 ,43,6753745835623 ,97,1120765937297
22.7200644 ,Left ,65,7490070257528 ,43,527042503841 ,97,1443076593097
22.7237016 ,Left ,65,7992543431249 ,43,3960706920555 ,97,173502129865
22.7460946 ,Left ,65,7943840654236 ,43,2874206758174 ,97,2147917609721
22.7690841 ,Left ,65,7986829047329 ,43,1710802919009 ,97,274036716307
22.7834907 ,Left ,65,9031263256589 ,43,0008599057615 ,97,2722449141418
22.8052599 ,Left ,66,0601868529099 ,43,0676909153257 ,97,2315480137864
22.8195372 ,Left ,65,8998637925099 ,42,9749078775139 ,97,3126124253191
22.8428335 ,Left ,65,7845027541342 ,43,0215122982299 ,97,3803988817268
22.8570044 ,Left ,65,9984759253665 ,43,1032670160711 ,97,2936468183893
22.8795627 ,Left ,65,7632612249608 ,43,0004737022336 ,97,3740703987553
22.9028504 ,Left ,65,8004960179973 ,43,0938846256323 ,97,3333732172657
22.9170197 ,Left ,65,8161409022998 ,43,1580019463881 ,97,3021200424883
22.9394952 ,Left ,65,8029938060766 ,43,121902160737 ,97,2759082769208
22.9626941 ,Left ,65,7874117081692 ,43,0953504336068 ,97,2359359019043
22.9770873 ,Left ,65,7679000599121 ,43,061157244374 ,97,1843464979566
22.9997107 ,Left ,65,7406636806472 ,43,0192310013812 ,97,1259115991453
23.0227185 ,Left ,65,711266840322 ,42,9725830365335 ,97,0631945972532
23.0372756 ,Left ,65,5909352565175 ,42,9453724437717 ,97,0559180921736
23.0595647 ,Left ,65,4982493602307 ,42,9772979972017 ,97,0520303002875
23.0829887 ,Left ,65,4052361087604 ,42,8225573925135 ,97,0599930137222
23.0972575 ,Left ,65,438484334079 ,42,8177286016501 ,97,022955517948
23.1195839 ,Left ,65,4353524066487 ,42,7992784971842 ,97,0008892926594
23.14272 ,Left ,65,4517773117245 ,42,7870437425469 ,96,992481956561
23.1570471 ,Left ,65,4746445585536 ,42,7811641462058 ,97,00279469586
23.1795157 ,Left ,65,512684309122 ,42,7600460313814 ,97,0283094628837
23.2029489 ,Left ,65,53411207996 ,42,7595569536889 ,97,0549084541901
23.2173075 ,Left ,65,5388567866446 ,42,7819387611842 ,97,0866966270584
23.239545 ,Left ,65,5635606880902 ,42,8314478487928 ,97,113648563187
23.2629501 ,Left ,65,5783312050073 ,42,8718962291097 ,97,1275550248999
23.2771648 ,Left ,65,5881633338356 ,42,879906292659 ,97,142509865693
23.2998499 ,Left ,65,600875443152 ,42,8817741304132 ,97,1602323629425
23.3229636 ,Left ,65,5748592866965 ,42,8923243485349 ,97,172549215183
23.3452482 ,Left ,65,5198803731817 ,42,9279267084135 ,97,1912123659072
23.3598671 ,Left ,65,507989179534 ,43,0332327979083 ,97,1560522463163
23.3821372 ,Left ,65,4492932820698 ,43,101821798217 ,97,087910361049
23.4053758 ,Left ,65,4674418865198 ,43,0853559262549 ,97,1502121366418
23.4197756 ,Left ,65,5627973898748 ,43,2678291800119 ,97,1811695527473
23.4421002 ,Left ,65,5704253886642 ,43,5385976014812 ,97,1863076979553
23.4654663 ,Left ,65,6116613268244 ,43,7627640812971 ,97,1958402723952
23.4797666 ,Left ,65,6461092156194 ,43,9038115035121 ,97,2207049602701
23.5020537 ,Left ,65,7334705686698 ,43,9839702082434 ,97,2387332842283
23.5252986 ,Left ,65,8337137128326 ,44,0205056226283 ,97,2397548401413
23.5396431 ,Left ,65,9042824368601 ,43,9759590091625 ,97,2140841078915
23.5621677 ,Left ,65,9775376573779 ,43,8536162565248 ,97,1839812439844
23.5850557 ,Left ,66,0269965598393 ,43,6818326277032 ,97,164953807168
23.599542 ,Left ,66,0738432676797 ,43,5348061985325 ,97,10748530971
23.6219081 ,Left ,66,1186771911473 ,43,4289204591547 ,96,9905262297211
23.6448287 ,Left ,66,1637452815039 ,43,3349622489431 ,96,8596273460018
23.6597109 ,Left ,66,1741779139026 ,43,2431469644979 ,96,7682800718841
23.6822689 ,Left ,66,1301664539965 ,43,1487746897795 ,96,7388956659989
23.7048497 ,Left ,66,0877202554938 ,43,0741648854744 ,96,7241259112804
23.7199148 ,Left ,66,065881752394 ,42,9803175022066 ,96,6839468480267
23.7420781 ,Left ,66,029562085864 ,42,8733915791594 ,96,6425269264381
23.7648437 ,Left ,65,9469116086712 ,42,7760131222773 ,96,6371351841526
23.7799669 ,Left ,65,8361369640741 ,42,7079838427701 ,96,6474514214458
23.8022679 ,Left ,65,7786492872603 ,42,6628390380247 ,96,6255112230122
23.824647 ,Left ,65,7145648772394 ,42,6131416727429 ,96,5815497921928
23.8397364 ,Left ,65,651414719689 ,42,569764162605 ,96,5023471799425
23.8624539 ,Left ,65,5469897918947 ,42,5354385780529 ,96,3879646119617
23.8848617 ,Left ,65,4643398707769 ,42,538356755446 ,96,2479447019964
23.9010731 ,Left ,65,3695570023354 ,42,5843164294847 ,96,1214028965519
23.9222116 ,Left ,65,2605311227181 ,42,6669105313591 ,96,0389154289887
23.9448778 ,Left ,65,1177402419858 ,42,7775323657248 ,96,0088779709702
23.9608082 ,Left ,64,9810988483051 ,42,9027400492031 ,96,0079093775798
23.9818176 ,Left ,64,9040113309059 ,42,9938496316668 ,96,0158993298256
24.0045577 ,Left ,64,8490126003262 ,43,0703711251246 ,96,0447004193874
24.0212208 ,Left ,64,7720571168801 ,43,1911961536413 ,96,0937178068359
24.0421599 ,Left ,64,7836659480049 ,43,2474690339697 ,96,1422264840826
24.0645131 ,Left ,64,8341966506095 ,43,1976846931648 ,96,2326473297904
24.0808197 ,Left ,64,8602409775826 ,43,2706903564488 ,96,3213567881565
24.1020861 ,Left ,64,8903925817665 ,43,4697792592661 ,96,3507599653803
24.1243368 ,Left ,65,0758430948976 ,43,6722526684248 ,96,3030021243985
24.14417 ,Left ,65,2542329258259 ,43,7691998142041 ,96,2505291166695
24.1619156 ,Left ,65,394904276104 ,43,8029797283465 ,96,228533083664
24.1846795 ,Left ,65,4631307790363 ,43,7838055838397 ,96,2144298706883
24.2026541 ,Left ,65,4942066165575 ,43,6920197331364 ,96,1981783372793
24.2222092 ,Left ,65,5067128746548 ,43,5300980604213 ,96,2286809335541
24.2449257 ,Left ,65,5239406169897 ,43,3692741782087 ,96,2834184241015
24.2611075 ,Left ,65,5153746876386 ,43,1476168854741 ,96,3621069263798
24.282365 ,Left ,65,5331607706469 ,42,9413323859003 ,96,4328968316899
24.3046426 ,Left ,65,5940875253896 ,42,772486199255 ,96,5138118654997
24.3224994 ,Left ,65,6539499026511 ,42,8398198441256 ,96,5559563141974
24.3421679 ,Left ,65,6204607391218 ,42,9427503210556 ,96,5535965668082
24.3646817 ,Left ,65,6788314779703 ,43,0038281658345 ,96,5189352181318
24.3825431 ,Left ,65,7492742357276 ,43,0474441123779 ,96,5221784147894
24.402346 ,Left ,65,7517593211909 ,43,0742909446118 ,96,572226500584
24.4247484 ,Left ,65,6824462735194 ,43,0852635040636 ,96,6500982064306
24.4430526 ,Left ,65,6501920852953 ,43,0029457479609 ,96,703250803794
24.4620844 ,Left ,65,6679905387789 ,42,9243086682388 ,96,8230777533531
24.4849469 ,Left ,65,6636122795843 ,43,1044477352881 ,96,9535651289235
24.5026584 ,Left ,65,5224749234881 ,43,3146175999499 ,97,0437226382915
24.5222282 ,Left ,65,6123553091446 ,43,5005538981449 ,97,1130153761105
24.5448749 ,Left ,65,703510087892 ,43,6847836582831 ,97,1934904127972
24.5628141 ,Left ,65,6864224882094 ,43,851285559511 ,97,2979105934476
24.5822866 ,Left ,65,6567566964609 ,43,9745131375034 ,97,3631933975756
24.604783 ,Left ,65,7132952225936 ,44,0687968827773 ,97,4020151596838
24.6223996 ,Left ,65,7505179057156 ,44,114338165776 ,97,447681202612
24.6421205 ,Left ,65,7681638246618 ,44,1324649339899 ,97,4942061147445
24.6648873 ,Left ,65,7427156211509 ,44,130004557253 ,97,5385927524131
24.6828135 ,Left ,65,7112580589655 ,44,1236508065633 ,97,5648647956639
24.7023027 ,Left ,65,6751592458304 ,44,0979048492774 ,97,5853424859069
24.7246661 ,Left ,65,5955347242362 ,44,0103878919533 ,97,5918187537159
24.7424725 ,Left ,65,5958173729109 ,43,8051823306733 ,97,594051089228
24.7622767 ,Left ,65,6515572239897 ,43,6319426125935 ,97,6698488275714
24.7846241 ,Left ,65,7529023092833 ,43,7629467902146 ,97,6992752993761
24.8024262 ,Left ,65,7714831560672 ,43,9548438326944 ,97,6749132582125
24.8225104 ,Left ,65,8609783600389 ,44,1286794727522 ,97,6295228997605
24.8451753 ,Left ,65,9963927613865 ,44,2855351711056 ,97,6441784348209
24.8628146 ,Left ,66,1302070739016 ,44,1203518089878 ,97,647539956375
24.8853349 ,Left ,66,381839652742 ,44,1070269865182 ,97,59145817675
24.9048029 ,Left ,66,6088468318886 ,44,166413809261 ,97,5309218299784
24.9225836 ,Left ,66,8160845783505 ,44,2499124953589 ,97,4512004362285
24.943677 ,Left ,66,9905222890897 ,44,4065261898085 ,97,3452758841366
24.9646749 ,Left ,67,1313320128279 ,44,6292341516386 ,97,2260329630734
24.9826053 ,Left ,67,2521938953507 ,44,9070889419769 ,97,0920715769082
25.0050431 ,Left ,67,3490347371873 ,45,1773530191701 ,96,9467872653357
25.0247224 ,Left ,67,4241013348382 ,45,4320153694382 ,96,818212630023
25.0429188 ,Left ,67,4563062696049 ,45,642740325638 ,96,7243859797673
25.0651257 ,Left ,67,5021334077757 ,45,8364999303383 ,96,6483173771311
25.0849422 ,Left ,67,5455936462343 ,46,019621103811 ,96,5902872165339
25.1050772 ,Left ,67,5409213787872 ,46,147562411215 ,96,5404768958347
25.124963 ,Left ,67,3095729142235 ,46,0828482252832 ,96,5692865716273
25.144316 ,Left ,67,2104602037993 ,45,9140081568991 ,96,6063272912187
25.1623132 ,Left ,67,1744926500928 ,45,7061084736142 ,96,6112243576303
25.1848224 ,Left ,67,193347096226 ,45,6631783842194 ,96,578618741373
25.204405 ,Left ,67,1057473555577 ,45,7023035171573 ,96,5356342297356
25.2223654 ,Left ,67,0778404721627 ,45,6469424960462 ,96,478478526062
25.2451533 ,Left ,67,1452558917678 ,45,4812566078832 ,96,3963505346158
25.2643739 ,Left ,67,1819937390036 ,45,2746482275196 ,96,322067060028
25.282594 ,Left ,67,1732527230708 ,45,0343137242837 ,96,2663866002553
25.3048494 ,Left ,67,1209062420401 ,44,7639537130764 ,96,2275432836945
25.3247093 ,Left ,67,0420751734741 ,44,4828660134596 ,96,2301264887926
25.3425633 ,Left ,66,9637528033862 ,44,1825545047449 ,96,282828589433
25.3649475 ,Left ,66,9679817602196 ,43,8947486305334 ,96,3679594293067
25.3857827 ,Left ,66,9421487391635 ,43,8001249388582 ,96,4796920270603
25.4025467 ,Left ,66,8432011983107 ,43,9340378561132 ,96,5529203648185
25.4247383 ,Left ,66,8456981261159 ,44,0926644926881 ,96,6426364209884
25.4459322 ,Left ,66,9162166524362 ,44,183762836221 ,96,7593825639389
25.4624854 ,Left ,67,0095391504303 ,44,2207859057757 ,96,8714528292532
25.4849333 ,Left ,66,9688122146997 ,44,2207836224545 ,96,9567295314892
25.5045573 ,Left ,66,9325967119567 ,44,2282449789768 ,96,9969955682523
25.5271423 ,Left ,66,942280246288 ,44,1943045702092 ,96,995103184999
25.5449694 ,Left ,66,9267103801759 ,44,0914845373476 ,96,9275564899579
25.5647154 ,Left ,66,851765298716 ,43,9266447394518 ,96,851353013865
25.5871015 ,Left ,66,7859202194331 ,43,766707142455 ,96,7861345486883
25.6047823 ,Left ,66,7587338441406 ,43,6265240851807 ,96,7009754159113
25.6243899 ,Left ,66,6890770039322 ,43,5136541792817 ,96,5925511026664
25.6468764 ,Left ,66,5810028065694 ,43,4086130806743 ,96,4822155082778
25.6649345 ,Left ,66,518434465887 ,43,323827418344 ,96,3585431306588
25.6846221 ,Left ,66,4264615932409 ,43,2242221111579 ,96,2352685941926
25.7070761 ,Left ,66,3553260761467 ,43,1038844914167 ,96,1397865029142
25.724961 ,Left ,66,2709300820445 ,43,0205084050597 ,96,0699735722079
25.7444222 ,Left ,66,126343099966 ,42,9773971392449 ,96,0286463132529
25.767061 ,Left ,66,0276692029029 ,42,9717508235402 ,95,9995781514416
25.7849242 ,Left ,65,9485304559822 ,42,9888897392654 ,95,9622193043996
25.8060595 ,Left ,65,8487997090668 ,43,0312790946377 ,95,9200931740224
25.8272294 ,Left ,65,7552826190421 ,43,1061750373921 ,95,8768830386978
25.8448558 ,Left ,65,6702317497301 ,43,2132167460933 ,95,8555324036703
25.8659979 ,Left ,65,6106882721645 ,43,3539172652637 ,95,8582089943599
25.8872815 ,Left ,65,5569461732346 ,43,48758918601 ,95,8737917453009
25.9048715 ,Left ,65,5059949232504 ,43,6157887601286 ,95,9084722647493
25.9259491 ,Left ,65,4608913024193 ,43,7170004679995 ,95,9552598517391
25.9470573 ,Left ,65,5070864972444 ,43,8307789852718 ,96,0034193861347
25.9646587 ,Left ,65,4731603755841 ,43,8689169166065 ,96,0660608332826
25.9873454 ,Left ,65,4969740535055 ,43,7269455991665 ,96,201462409274
26.0069068 ,Left ,65,5653951553885 ,43,5810717934111 ,96,3532969283877
26.024829 ,Left ,65,5810012832562 ,43,6458660275129 ,96,4364008648312
26.0457873 ,Left ,65,6711628782758 ,43,8235024747228 ,96,4390324658052
26.0668551 ,Left ,65,8267153193839 ,43,965233940366 ,96,3938721611496
26.0848573 ,Left ,65,9401604419291 ,44,0486074867104 ,96,351378181688
26.1058796 ,Left ,65,9877877601179 ,44,096593232648 ,96,3356707323538
26.1271228 ,Left ,65,953384061953 ,44,0710585140277 ,96,3525946043007
26.1452227 ,Left ,65,9296638730707 ,44,0121718709457 ,96,3721598081055
26.1677747 ,Left ,65,8852888472497 ,43,8962224704327 ,96,4081864876631
26.1875498 ,Left ,65,8364838346162 ,43,67853777634 ,96,502575818914
26.2051019 ,Left ,65,8874254970064 ,43,4179679742711 ,96,5863650563963
26.2276343 ,Left ,65,9848942001398 ,43,3635961901095 ,96,643827754638
26.2472906 ,Left ,65,9648143040844 ,43,511193242384 ,96,6396985642112
26.2650262 ,Left ,65,8790157155305 ,43,6287798932969 ,96,6140443205109
26.2878563 ,Left ,65,9266046553508 ,43,7361085326818 ,96,6106472908641
26.3073385 ,Left ,65,9148081629703 ,43,8678919654937 ,96,6002941811616
26.3248983 ,Left ,65,7505571390008 ,43,792116255063 ,96,6483903461296
26.3473959 ,Left ,65,8218576980852 ,43,7670082472887 ,96,7869043074079
26.3667051 ,Left ,65,736713596609 ,44,0158799536281 ,96,8922326399584
26.3844023 ,Left ,65,7135165574771 ,44,2548503947769 ,96,962024992395
26.4068003 ,Left ,65,8036347665456 ,44,4474924278631 ,97,023218298715
26.4277901 ,Left ,65,8319432056982 ,44,6322268189443 ,97,1032266057884
26.4443918 ,Left ,65,8084531916099 ,44,7607256325932 ,97,1688131569691
26.4667776 ,Left ,65,7913093913891 ,44,8545876577708 ,97,2012027018728
26.4881196 ,Left ,65,7928524365062 ,44,8727494387738 ,97,2224022269506
26.5043197 ,Left ,65,8218181221091 ,44,7566099504165 ,97,2234494273845
26.5271148 ,Left ,65,8943939825631 ,44,5167960797574 ,97,1999115654148
26.5478556 ,Left ,66,007175761719 ,44,2281353989198 ,97,1159468681252
26.5643956 ,Left ,66,0742822970078 ,43,9531757912999 ,96,9749147985117
26.5874043 ,Left ,66,1500772877466 ,43,6579768042071 ,96,8218703084444
26.6079006 ,Left ,66,2607045918256 ,43,4194224536438 ,96,6970179806582
26.6239735 ,Left ,66,3670228095586 ,43,2649283663702 ,96,5821457440559
26.6465506 ,Left ,66,4853068442549 ,43,1683865095036 ,96,4795664052864
26.6676475 ,Left ,66,5703006400883 ,43,0881393254493 ,96,4283073770817
26.6839793 ,Left ,66,6479242934241 ,43,0365295649734 ,96,4305274302964
26.7064581 ,Left ,66,7063585547603 ,43,0370436496039 ,96,4738635363286
26.7276197 ,Left ,66,7581244981167 ,43,119781256738 ,96,5294576925893
26.743544 ,Left ,66,7827621735725 ,43,2423942729084 ,96,5938607083721
26.7666851 ,Left ,66,779999797184 ,43,3666526423088 ,96,6846532913042
26.7879412 ,Left ,66,7283477811603 ,43,4866517241896 ,96,8128574690497
26.8106585 ,Left ,66,6510305507368 ,43,6154152261127 ,96,9341725010869
26.8246426 ,Left ,66,5567970608038 ,43,735446516265 ,97,0380777578367
26.8470564 ,Left ,66,5183721644012 ,43,7439827754114 ,97,0657368719131
26.8634641 ,Left ,66,3163212082275 ,43,637242571491 ,97,1625696469683
26.8846009 ,Left ,65,9487893158349 ,43,5857335147576 ,97,313313015568
26.9070146 ,Left ,65,7812200252383 ,43,6279508007164 ,97,4405817032166
26.9233315 ,Left ,66,0438909620078 ,43,6489533158467 ,97,4716042128139
26.9444204 ,Left ,65,7384326322636 ,43,6405877479688 ,97,6735006137656
26.9670259 ,Left ,65,5921902880329 ,43,8733255647527 ,97,7762528880842
26.983549 ,Left ,65,8137698747629 ,44,1195991503281 ,97,7470575590071
27.0045669 ,Left ,65,9385442017944 ,44,3293105533121 ,97,7935980108982
27.0269396 ,Left ,66,0591354451131 ,44,4279397062705 ,97,8023110626863
27.0434929 ,Left ,66,082564589674 ,44,4870816560004 ,97,7718841600804
27.0646077 ,Left ,66,0998736457266 ,44,5345203236792 ,97,6964777239314
27.0870554 ,Left ,66,1294334544938 ,44,5721027596219 ,97,6013499969224
27.1034566 ,Left ,66,1576908011993 ,44,5951959359055 ,97,4830204724638
27.1247289 ,Left ,66,2827074688531 ,44,6977544629121 ,97,3389472190263
27.1470424 ,Left ,66,1501551259021 ,44,4343744438145 ,97,2678064059374
27.1635459 ,Left ,66,2850328592873 ,44,4577048361565 ,97,1266518987212
27.1859187 ,Left ,66,2511233876827 ,44,437192947999 ,97,0142261993071
27.2071408 ,Left ,66,3082281853637 ,44,3801977082455 ,96,942065604041
27.2234682 ,Left ,66,3708569441525 ,44,3465700688301 ,96,8651250967517
27.2461462 ,Left ,66,3664786740619 ,44,3151788980427 ,96,7844758259834
27.2670385 ,Left ,66,3473659975166 ,44,3028554511929 ,96,72331056366
27.2834912 ,Left ,66,3022363879066 ,44,3390689200683 ,96,6740006585357
27.3059031 ,Left ,66,2438747165981 ,44,3859159953852 ,96,613099596643
27.3269695 ,Left ,66,1576588264179 ,44,3852709236209 ,96,570798176612
27.3435314 ,Left ,66,0716427383266 ,44,2546707919303 ,96,5818524628863
27.3659096 ,Left ,66,1050293236764 ,44,0594814157587 ,96,6289538578881
27.387025 ,Left ,66,0954917609583 ,44,0931215524037 ,96,6389812833667
27.403477 ,Left ,66,1229039292938 ,44,2074188583188 ,96,6231627052929
27.4260746 ,Left ,66,2194396391431 ,44,188796644043 ,96,6116104689484
27.4471266 ,Left ,66,3014616590224 ,44,1145270235108 ,96,6172026147286
27.463589 ,Left ,66,3631171593245 ,43,9646217436569 ,96,6420705267814
27.4859028 ,Left ,66,3827093559368 ,43,7145028609302 ,96,6591451532235
27.5070397 ,Left ,66,3590295307369 ,43,438236988559 ,96,6771616864146
27.5310463 ,Left ,66,3194439161476 ,43,1489389688078 ,96,7019411122469
27.5458802 ,Left ,66,3187569470053 ,42,8926772225245 ,96,7324407738539
27.5671796 ,Left ,66,2273548198372 ,42,6515284723153 ,96,816550492474
27.5835038 ,Left ,66,1117016939792 ,42,4057622827653 ,96,9473110112945
27.6059554 ,Left ,66,0347571762576 ,42,2961023072084 ,97,1318331779655
27.6271662 ,Left ,65,8971281070499 ,42,4697488000346 ,97,2177057935377
27.6435794 ,Left ,65,886070677729 ,42,7419201596903 ,97,2668788569935
27.6659771 ,Left ,65,9384662140563 ,42,9612738033936 ,97,3310089616778
27.6876256 ,Left ,66,0212997839985 ,43,1007625081207 ,97,3868499744467
27.7108977 ,Left ,66,0109598138973 ,43,1778270687153 ,97,4196392170377
27.7269965 ,Left ,65,9666586378601 ,43,2560618909058 ,97,4010656869185
27.7492098 ,Left ,65,9221866271276 ,43,292188271191 ,97,3450119254968
27.7706575 ,Left ,65,9104698843804 ,43,2348882085758 ,97,2682105683844
27.7867606 ,Left ,65,8825911349498 ,43,0620958415041 ,97,1929357038867
27.8089686 ,Left ,65,8638678399186 ,42,8694242215383 ,97,1191436465318
27.8302866 ,Left ,65,8462731627731 ,42,6951964143246 ,97,0179396497038
27.8465275 ,Left ,65,8271648328633 ,42,5589791265977 ,96,8655040777074
27.8690016 ,Left ,65,74265512535 ,42,4637554423165 ,96,7205472544471
27.8901031 ,Left ,65,6704125156444 ,42,3807090588944 ,96,580911095011
27.9065324 ,Left ,65,6569050281628 ,42,3164007551291 ,96,459312683508
27.9293188 ,Left ,65,5885828512177 ,42,2604917839629 ,96,3948711772782
27.9508156 ,Left ,65,5316391319583 ,42,1920813217411 ,96,3630480518863
27.9666828 ,Left ,65,5161212157562 ,42,1547524859814 ,96,3048252600233
27.989283 ,Left ,65,4225130875753 ,42,129769058025 ,96,233655096051
28.0107176 ,Left ,65,3569409327145 ,42,1011442595298 ,96,1584912827742
28.025955 ,Left ,65,2836652531403 ,42,0799960744075 ,96,0864830314386
28.0490854 ,Left ,65,2034180030298 ,42,0824209602529 ,96,0126562726334
28.0715415 ,Left ,65,1480972280575 ,42,1262012360991 ,95,9334583158387
28.0859836 ,Left ,65,0989493176644 ,42,2249637098419 ,95,84506089492
28.1087119 ,Left ,65,0161447585921 ,42,372392726441 ,95,7877748470531
28.1313713 ,Left ,64,9304825925502 ,42,5552722760105 ,95,7643156684731
28.1527297 ,Left ,64,8280682065587 ,42,7381615462768 ,95,7857405175955
28.1691125 ,Left ,64,7682416296537 ,42,8944009134221 ,95,8294359028682
28.1916536 ,Left ,64,750180402384 ,42,9797224348506 ,95,8744587014592
28.2125248 ,Left ,64,7736377754375 ,43,0428031706685 ,95,9339041323458
28.2290588 ,Left ,64,7384723685415 ,43,1248857794378 ,96,0462455171405
28.2516293 ,Left ,64,7390444943505 ,43,1334496013337 ,96,1564694277483
28.2727462 ,Left ,64,8134714544488 ,43,1128242304349 ,96,313921087489
28.2890537 ,Left ,64,8369477659496 ,43,2620754376218 ,96,4649912600823
28.311487 ,Left ,64,932607266831 ,43,5225342992283 ,96,5354250346974
28.3326018 ,Left ,65,0900323351611 ,43,7265732877655 ,96,5502716874146
28.3492171 ,Left ,65,2491597095388 ,43,8416087436508 ,96,5535913628879
28.3716858 ,Left ,65,3805416703031 ,43,8575672562921 ,96,5641980759766
28.3930551 ,Left ,65,4405932998538 ,43,8253115458445 ,96,5655625502007
28.4092833 ,Left ,65,4376958508524 ,43,6959753569647 ,96,5690840282171
28.4317458 ,Left ,65,4292262519672 ,43,4983196287576 ,96,5942934718796
28.4528304 ,Left ,65,4032741984675 ,43,3028759635493 ,96,6061839037964
28.4693278 ,Left ,65,4110786619809 ,43,0459098969377 ,96,6121238254076
28.4915845 ,Left ,65,4608247184392 ,42,8359962178145 ,96,6089422373161
28.513059 ,Left ,65,5025774806284 ,42,6960386890222 ,96,6747147011199
28.5294439 ,Left ,65,5553737742922 ,42,8240176958423 ,96,7279581471983
28.5518215 ,Left ,65,5450426713287 ,42,9836701656182 ,96,7260534515908
28.572854 ,Left ,65,6041378138901 ,43,1022774122804 ,96,6856888730959
28.5893138 ,Left ,65,6579384330996 ,43,2177390107289 ,96,683071191421
28.6117236 ,Left ,65,6653284203858 ,43,2989147096588 ,96,6900702288908
28.6328265 ,Left ,65,6243729746309 ,43,3726348488237 ,96,7166496738409
28.6493601 ,Left ,65,5260206139413 ,43,3779204172696 ,96,7302695812766
28.6717509 ,Left ,65,5211232664375 ,43,2348197430031 ,96,8395297631566
28.6930506 ,Left ,65,5698192360079 ,43,3376964205368 ,97,0237783430699
28.7093322 ,Left ,65,4632464153496 ,43,6063013891062 ,97,125255540423
28.7317645 ,Left ,65,4931579419734 ,43,8482237084535 ,97,1662124909711
28.7528695 ,Left ,65,6382008447593 ,44,0517114183065 ,97,2206186173334
28.7691861 ,Left ,65,7294315690227 ,44,2195728104166 ,97,3006829432317
28.7917606 ,Left ,65,7097602861415 ,44,3314848524957 ,97,3859677206906
28.8130531 ,Left ,65,7204071221358 ,44,3934533345008 ,97,4400242787644
28.8294772 ,Left ,65,732039567717 ,44,4115370949761 ,97,4740759227974
28.8517853 ,Left ,65,6904278014486 ,44,3499808463626 ,97,5017769819393
28.8729458 ,Left ,65,6772268373413 ,44,322953778965 ,97,480509261453
28.8892615 ,Left ,65,5725641020081 ,44,1756113458381 ,97,5062341968978
28.9118615 ,Left ,65,5536151784799 ,44,0278419176347 ,97,5864452330805
28.9327887 ,Left ,65,818336505204 ,43,7491543188832 ,97,5838838580731
28.948496 ,Left ,65,8789913237026 ,43,9434003082661 ,97,6260815989924
28.9716827 ,Left ,65,823736927702 ,44,2867120463703 ,97,6968300349156
28.9941784 ,Left ,65,8946720701926 ,44,6014061351781 ,97,7453774225056
29.0086177 ,Left ,66,1018296872319 ,44,8969330294554 ,97,7694672023702
29.0317117 ,Left ,66,2307001822504 ,45,1781605723047 ,97,790609570778
29.0543012 ,Left ,66,3057031672796 ,45,4044834544509 ,97,7818277558432
29.0686165 ,Left ,66,4014023657109 ,45,617529002758 ,97,7361674371406
29.0916557 ,Left ,66,5251696245305 ,45,8290426390121 ,97,6582799287067
29.1141891 ,Left ,66,6289843130511 ,46,0382132420894 ,97,554735369384
29.1285309 ,Left ,66,689523742088 ,46,1980007933609 ,97,4552841514993
29.1516581 ,Left ,66,7969135983174 ,46,3336244061664 ,97,3527481080822
29.1742008 ,Left ,66,852093308095 ,46,4816809904363 ,97,2366974056694
29.1950736 ,Left ,66,7528218301864 ,46,5470810552875 ,97,1467965878634
29.2116972 ,Left ,66,7200375101076 ,46,530362011945 ,97,0589765006254
29.2356481 ,Left ,66,643546474828 ,46,5548451129511 ,96,9800209441398
29.2551772 ,Left ,66,5341820813187 ,46,57039452377 ,96,8896847803576
29.2716339 ,Left ,66,4077529364922 ,46,4756272028973 ,96,8355904159318
29.2943712 ,Left ,66,3884704849643 ,46,2099381966229 ,96,8582884518456
29.3155464 ,Left ,66,3639906962469 ,45,9601223845229 ,96,8930308412958
29.331984 ,Left ,66,3576099825389 ,45,863932563328 ,96,8814687239489
29.3547742 ,Left ,66,2984766753662 ,45,8690657316929 ,96,8325106413306
29.3755682 ,Left ,66,3141784773272 ,45,807266323922 ,96,7803707102523
29.3920455 ,Left ,66,417510720964 ,45,5996318986025 ,96,7153923972891
29.4143145 ,Left ,66,4687830648463 ,45,364326026247 ,96,6552532520074
29.4352826 ,Left ,66,465139944723 ,45,0966352234026 ,96,612676942152
29.4516229 ,Left ,66,3640593101367 ,44,8091196972202 ,96,5813860965129
29.4741065 ,Left ,66,2934041244376 ,44,5838329176274 ,96,5464061006845
29.4950847 ,Left ,66,2408145041541 ,44,3269059799044 ,96,5737320759483
29.5115924 ,Left ,66,2970842599494 ,44,0043026182687 ,96,6836249687775
29.5342679 ,Left ,66,2992320484714 ,43,8567695876106 ,96,8348671901555
29.5551892 ,Left ,66,1915654131143 ,43,9862135009417 ,96,8821937539788
29.5716144 ,Left ,66,1802361614102 ,44,1369926144422 ,96,9051121163613
29.5941602 ,Left ,66,2210537194202 ,44,1978779223743 ,96,9655959115368
29.6153089 ,Left ,66,2185388724006 ,44,2301091912051 ,97,0452278420398
29.6315272 ,Left ,66,1375912897769 ,44,2685136864035 ,97,1022663770937
29.6543583 ,Left ,66,0932793516303 ,44,2744590116512 ,97,1047443403312
29.6753036 ,Left ,66,0567117571017 ,44,1951103242145 ,97,0660236810865
29.6917006 ,Left ,66,0503301636062 ,44,0012413354769 ,97,0435780314201
29.7140314 ,Left ,66,0264754729476 ,43,7673781142162 ,97,0186175920238
29.7350607 ,Left ,65,9917197569821 ,43,582013698613 ,96,9413731195016
29.7511107 ,Left ,65,9061878987738 ,43,4735379300904 ,96,8369866929267
29.7740102 ,Left ,65,8019577878249 ,43,4038428138307 ,96,7323812500844
29.7951062 ,Left ,65,7818602850834 ,43,3213999189539 ,96,6228064871857
29.8116093 ,Left ,65,7045028826185 ,43,2374648121954 ,96,5205782963765
29.8343264 ,Left ,65,5849174331691 ,43,1634676045188 ,96,4204724273583
29.8555363 ,Left ,65,4858026427517 ,43,0959181298788 ,96,342015506576
29.871161 ,Left ,65,3785482689086 ,43,0642275058493 ,96,2870175463625
29.8944101 ,Left ,65,2812927484457 ,43,0427724121777 ,96,238132899782
29.9155557 ,Left ,65,2020871715205 ,43,0294480996394 ,96,1816347430091
29.9310247 ,Left ,65,1288102164111 ,43,0359696529116 ,96,11211830791
29.9543668 ,Left ,65,0533257276325 ,43,0653687602005 ,96,0555711705796
29.9767933 ,Left ,65,0142812858233 ,43,1339074085006 ,96,003190944286
29.9908256 ,Left ,64,9887564909638 ,43,2366057917554 ,95,9602806448372
30.0141763 ,Left ,64,9369047913341 ,43,3595402314247 ,95,9396818145684
30.0366726 ,Left ,64,8912624002665 ,43,4781564755581 ,95,9508007184725
30.0508121 ,Left ,64,8713952520933 ,43,574629818397 ,95,9663096167426
30.0740153 ,Left ,64,8582844487112 ,43,6382335274725 ,96,0028774128229
30.0968306 ,Left ,64,9120333353414 ,43,6828231874147 ,96,0303571205883
30.1110135 ,Left ,64,9429353301504 ,43,7215074891802 ,96,0733932467725
30.134195 ,Left ,64,943649167974 ,43,660710472999 ,96,1235533891237
30.1566847 ,Left ,65,0426861020511 ,43,5102876413409 ,96,2530012371962
30.1710561 ,Left ,65,1186602138563 ,43,5403418287946 ,96,3775795097038
30.1941422 ,Left ,65,1376050087191 ,43,6994835821043 ,96,4369278984389
30.2170483 ,Left ,65,3504579382376 ,43,8878154987676 ,96,4101792073394
30.238042 ,Left ,65,5409728101223 ,44,0058123232412 ,96,3932492256931
30.2546481 ,Left ,65,6487301048492 ,44,0605832167986 ,96,4001728557225
30.2770933 ,Left ,65,6803996270375 ,44,0688802766128 ,96,4245494379842
30.2982584 ,Left ,65,6613619885515 ,44,0252285201543 ,96,4508715061656
30.3144658 ,Left ,65,6099057085622 ,43,9292870667747 ,96,4677041351629
30.3367215 ,Left ,65,6165073050492 ,43,7941260170217 ,96,4861189487988
30.3580122 ,Left ,65,5704577288295 ,43,5774779989639 ,96,5511356756271
30.3741182 ,Left ,65,5766320573716 ,43,3501085372504 ,96,6458213715794
30.3968444 ,Left ,65,6054203379351 ,43,1887919655452 ,96,7445200882973
30.4180079 ,Left ,65,5674327622736 ,43,2529540392342 ,96,7764927422957
30.4341925 ,Left ,65,4919369906631 ,43,3653862848554 ,96,7774672300777
30.4565804 ,Left ,65,5082846741575 ,43,454335275665 ,96,755114645858
30.4780101 ,Left ,65,5364299696857 ,43,5877628530255 ,96,7351137737651
30.4944778 ,Left ,65,5093657946178 ,43,7169501115236 ,96,7191472324593
30.5167118 ,Left ,65,44299806069 ,43,7550743802884 ,96,7561451122173
30.5378337 ,Left ,65,4888527068736 ,43,8464171077216 ,96,909984693467
30.554432 ,Left ,65,4167834418412 ,44,1164772308722 ,97,0118891665769
30.5767724 ,Left ,65,3484275659028 ,44,3332254774251 ,97,0437563357149
30.5977061 ,Left ,65,3570249623838 ,44,4795518908177 ,97,0621022167351
30.6142404 ,Left ,65,32357667943 ,44,5879860560897 ,97,1055283039764
30.6366463 ,Left ,65,2528173656738 ,44,6401449062232 ,97,1442164079707
30.6576766 ,Left ,65,1899643710947 ,44,5734090719603 ,97,1737609985577
30.6742497 ,Left ,65,1096408572013 ,44,4388490546147 ,97,2630770584116
30.696707 ,Left ,65,0814669975687 ,44,2464887345778 ,97,3427375513129
30.718149 ,Left ,65,0699748788875 ,44,0472039649401 ,97,328101080621
30.7345822 ,Left ,65,0619762162173 ,43,8603082866097 ,97,364778660735
30.7569502 ,Left ,65,0086052687064 ,43,9846020121865 ,97,4104424107265
30.7781504 ,Left ,64,9667675469374 ,44,2718264474495 ,97,4244946985691
30.7937089 ,Left ,65,1007441548105 ,44,5440115969662 ,97,4463169285858
30.8168253 ,Left ,65,2561306919738 ,44,7981613911558 ,97,4641979918478
30.8382141 ,Left ,65,2640188722846 ,44,99735928959 ,97,4951471084604
30.8536197 ,Left ,65,2842388715605 ,45,1217517604473 ,97,5144408485247
30.8771473 ,Left ,65,3186947225428 ,45,2152806822703 ,97,4890229469855
30.8993224 ,Left ,65,3829634001577 ,45,2523463053265 ,97,4345159648946
30.913591 ,Left ,65,4474849331094 ,45,2030506673812 ,97,3826645219429
30.9367808 ,Left ,65,4882789899802 ,45,1052816070863 ,97,3245504212896
30.959469 ,Left ,65,5274925533936 ,45,0285208355898 ,97,2345613564036
30.980223 ,Left ,65,5708835889652 ,44,9839484210484 ,97,1043153985422
30.9967214 ,Left ,65,589417806318 ,44,9525909546708 ,96,9571307823405
31.0192004 ,Left ,65,5761280775024 ,44,9360255889869 ,96,8326578935177
31.0403208 ,Left ,65,5513700406644 ,44,9724267729777 ,96,7401885416777
31.0567138 ,Left ,65,513251610309 ,44,8954075202975 ,96,6956466490849
31.0791277 ,Left ,65,5730988197613 ,44,7338526480134 ,96,7430298355633
31.0934966 ,Left ,65,6899657566507 ,44,7695086659913 ,96,7601466142664
31.1167108 ,Left ,65,6510509343498 ,44,8654381215935 ,96,7317280230033
31.1392011 ,Left ,65,7179538158212 ,44,8381571271585 ,96,6734829860062
31.1603195 ,Left ,65,8407301426741 ,44,702961792794 ,96,5890595484682
31.1767112 ,Left ,65,9097061332064 ,44,4989538408824 ,96,5329110368201
31.1992271 ,Left ,65,9671458286914 ,44,1948753777036 ,96,4993310847086
31.2204624 ,Left ,65,957882364446 ,43,7866142606451 ,96,4897955971966
31.236708 ,Left ,65,8840501475729 ,43,4638823798415 ,96,4996733128337
31.2591638 ,Left ,65,7996190932015 ,43,274698059004 ,96,4615439646709
31.2802294 ,Left ,65,7960947584268 ,42,958563829026 ,96,4750116683007
31.2966999 ,Left ,65,8990203284178 ,42,6799934553608 ,96,6320320260464
31.3191922 ,Left ,65,8918574489123 ,42,7731619254941 ,96,7147361355716
31.3404061 ,Left ,65,8971171318657 ,43,0540000344708 ,96,7295614058426
31.356699 ,Left ,65,9670637112627 ,43,2725210082404 ,96,8021293014439
31.3792903 ,Left ,66,0734142037408 ,43,3993598089566 ,96,9017661494896
31.40056 ,Left ,66,0569135566781 ,43,4728691869716 ,96,992642300832
31.4160724 ,Left ,66,0200554427167 ,43,5332073241491 ,97,018647107028
31.4392783 ,Left ,65,9703599625316 ,43,4910315968589 ,96,991918769525
31.4617826 ,Left ,65,9450142754779 ,43,3062356029013 ,96,9686623374792
31.4759752 ,Left ,65,9478806530973 ,43,0391743932673 ,96,959613710317
31.4991087 ,Left ,65,889155025812 ,42,8118209053111 ,96,9171937835289
31.5216377 ,Left ,65,7886553775471 ,42,6497765271327 ,96,8354878062226
31.536412 ,Left ,65,7133785399557 ,42,5880968468835 ,96,714197688824
31.5592207 ,Left ,65,6071586211881 ,42,5560354945912 ,96,6111501076771
31.5803423 ,Left ,65,6060498858241 ,42,4940471995469 ,96,5028484823933
31.5961301 ,Left ,65,5612699622737 ,42,4323572626027 ,96,408259129009
31.6194675 ,Left ,65,4350630455569 ,42,3492724340993 ,96,3482569454378
31.6417423 ,Left ,65,3747593653481 ,42,3031400346683 ,96,2809838164496
31.6627961 ,Left ,65,2755335721199 ,42,2841193489356 ,96,2243787818767
31.6825846 ,Left ,65,1962390336164 ,42,2767011670039 ,96,1756181864534
31.6945547 ,Left ,65,1624975975115 ,42,2491424912234 ,96,1105543422882
31.7084773 ,Left ,65,1018397278897 ,42,2107994740691 ,96,0484073772389
31.731682 ,Left ,65,1270053955807 ,42,3180569505132 ,95,9660653647931
31.7527741 ,Left ,64,9188138156517 ,42,2020077228699 ,96,0199902623657
31.7685254 ,Left ,64,9651415679307 ,42,2700571276363 ,95,9885726182753
31.7915882 ,Left ,65,1199636031972 ,42,2960653313109 ,95,8697544160985
31.8125562 ,Left ,64,8541174364259 ,42,2052431367944 ,95,9462387484479
31.8284979 ,Left ,64,9192720534595 ,42,3105151821103 ,95,8663952567475
31.8515736 ,Left ,65,0255182350829 ,42,3183917665252 ,95,7519824999371
31.8728401 ,Left ,65,100197055193 ,42,4815143291865 ,95,6555861682191
31.8884928 ,Left ,65,0711896242427 ,42,5599159991384 ,95,5978647501622
31.911136 ,Left ,65,0196413461639 ,42,6922132250081 ,95,5747666941088
31.9330195 ,Left ,64,9657912440203 ,42,8358067040066 ,95,5745487282986
31.948706 ,Left ,64,9001191639003 ,42,9543686714048 ,95,6150947425157
31.9709652 ,Left ,64,8981932900567 ,43,0641825089084 ,95,6576812921999
31.9929001 ,Left ,64,928353559701 ,43,133710684008 ,95,6950396401793
32.0085608 ,Left ,64,9082325125534 ,43,3905819876231 ,95,7665041273899
32.0310235 ,Left ,64,8007604740193 ,43,414055404554 ,95,8815517035579
32.0529972 ,Left ,64,7607980855131 ,43,4893192849892 ,95,9731506506131
32.0701143 ,Left ,64,8666940020697 ,43,5401455202037 ,96,0373072111406
32.0910189 ,Left ,64,9966724127528 ,43,5820769985341 ,96,1239903626642
32.1142192 ,Left ,65,0809079833366 ,43,6438656994118 ,96,2228174398459
32.1285514 ,Left ,65,1537221447605 ,43,715904428883 ,96,3086249585977
32.1508992 ,Left ,65,2809717015263 ,43,7806490251299 ,96,3460262050373
32.1742324 ,Left ,65,3636816795387 ,43,7914514824362 ,96,3625483508876
32.188394 ,Left ,65,4365356376414 ,43,7836452870395 ,96,3794614702815
32.2113796 ,Left ,65,480491013562 ,43,871187708591 ,96,3963908692684
32.2346603 ,Left ,65,4732104862028 ,43,8226508166161 ,96,4554772388709
32.248922 ,Left ,65,617869210591 ,43,641457107977 ,96,5557283728003
32.2713224 ,Left ,65,7039330488546 ,43,6986889388224 ,96,6434704877315
32.2941926 ,Left ,65,657076439491 ,43,8988646566918 ,96,7284341836465
32.3083958 ,Left ,65,7931028309281 ,44,0718839959701 ,96,7683399922427
32.3309895 ,Left ,66,0257400085048 ,44,1643123901453 ,96,8133952104964
32.3543585 ,Left ,66,2083001510922 ,44,1727650518061 ,96,8981850162707
32.3751096 ,Left ,66,3045484936308 ,44,1703738768197 ,96,9892894687904
32.3910193 ,Left ,66,3418993196494 ,44,1337709562602 ,97,0341125078353
32.4142607 ,Left ,66,3737524656834 ,44,0501263640642 ,97,0639142640183
32.43534 ,Left ,66,4191436595952 ,43,9452124336991 ,97,0730981559369
32.4509372 ,Left ,66,4187869226882 ,43,8165377522957 ,97,0595556073852
32.4740106 ,Left ,66,3656849841365 ,43,6622426717544 ,97,0355360428068
32.495413 ,Left ,66,2842212964921 ,43,4578359202567 ,97,0154715801075
32.5109772 ,Left ,66,1757263944207 ,43,1818190523181 ,97,0647946241696
32.5344595 ,Left ,66,1567369297196 ,42,9992547798557 ,97,06985684566
32.555361 ,Left ,66,0714165216249 ,42,8209818679983 ,97,0753802561439
32.5786887 ,Left ,66,1578088925296 ,42,8139259957637 ,97,1041194961365
32.6016738 ,Left ,66,1569147856029 ,42,8796875691076 ,97,0810982896716
32.6227191 ,Left ,66,0652864610398 ,42,9035027444724 ,97,0340633926016
32.6467998 ,Left ,66,0868595817524 ,42,9978127488278 ,96,9951719062825
32.6616481 ,Left ,66,0328124529479 ,43,1316555184078 ,96,9981549026421
32.6826223 ,Left ,65,9942093252974 ,43,2630627258227 ,97,0215063340261
32.6985705 ,Left ,65,9592892884367 ,43,3008782423616 ,97,0901526828183
32.7217016 ,Left ,65,9202252113888 ,43,266728495825 ,97,2594667282324
32.7429102 ,Left ,65,8954585681025 ,43,3855645018114 ,97,4037546813578
32.7665569 ,Left ,65,7947903805522 ,43,5414957821922 ,97,4435584408875
32.7817053 ,Left ,65,7612552231465 ,43,6688822546702 ,97,4461237049819
32.8042856 ,Left ,65,7800917798703 ,43,846108296237 ,97,4333088265719
32.8185272 ,Left ,65,7293061395228 ,43,9492325569858 ,97,4383753546483
32.8414854 ,Left ,65,6611159196187 ,44,0220983382724 ,97,4625997926184
32.8639671 ,Left ,65,530848419043 ,44,084479306425 ,97,5439635238942
32.8784259 ,Left ,65,4184853044832 ,44,0609260272116 ,97,5769506822823
32.9016333 ,Left ,65,4124766028256 ,43,9635557382078 ,97,5908386120083
32.9240254 ,Left ,65,4564599823244 ,43,948032053784 ,97,6231436563069
32.9386862 ,Left ,65,4258280425305 ,44,1307971975108 ,97,5593483804298
32.9616592 ,Left ,65,386663877417 ,44,3295905550958 ,97,4418036599265
32.9841324 ,Left ,65,5309268247575 ,44,5012493550671 ,97,3161439018606
33.0052385 ,Left ,65,5942747736123 ,44,6591283529478 ,97,2120128240399
33.0216764 ,Left ,65,5493187675057 ,44,7471930011139 ,97,1514881628473
33.0441654 ,Left ,65,4859158273892 ,44,7933303663011 ,97,1188294385116
33.0652461 ,Left ,65,4090962629492 ,44,7407572303625 ,97,0759958133964
33.0817284 ,Left ,65,42265060679 ,44,619862551724 ,97,0920386613231
33.104177 ,Left ,65,5271310165835 ,44,4986130450411 ,97,1300280872531
33.1254453 ,Left ,65,6307642674424 ,44,3884822874523 ,97,1451357296635
33.1417217 ,Left ,65,7305116096837 ,44,340932819548 ,97,1567250999729
33.1642092 ,Left ,65,7618265740059 ,44,3659586604858 ,97,1776160328916
33.1852709 ,Left ,65,816598457697 ,44,3819301697273 ,97,2067476077428
33.2013614 ,Left ,65,9132785716681 ,44,3927171577558 ,97,2359610547211
33.2245547 ,Left ,65,9921300284935 ,44,3907013565973 ,97,2551017656086
33.2457997 ,Left ,66,0623714285112 ,44,358135438525 ,97,2799417079489
33.2617904 ,Left ,66,0976980602584 ,44,3053518979877 ,97,3047925524597
33.2841297 ,Left ,66,1008785417853 ,44,2263728201689 ,97,3364699900324
33.3052918 ,Left ,66,0933053296251 ,44,1397414705047 ,97,3700252621032
33.3210086 ,Left ,66,0570261626328 ,44,0118318347322 ,97,405064093584
33.3443269 ,Left ,66,0664929994886 ,43,8318364166597 ,97,4412471014591
33.3670569 ,Left ,66,0779559107202 ,43,6101928310603 ,97,4818800941167
33.3814602 ,Left ,66,1318524134017 ,43,3813242248932 ,97,5064569646083
33.4047567 ,Left ,66,1828230489589 ,43,1849098822929 ,97,4829452195869
33.42525 ,Left ,66,2243205378288 ,43,019574554745 ,97,4441464029275
33.4410963 ,Left ,66,2737816276357 ,42,9199987396536 ,97,3938616660101
33.4639695 ,Left ,66,3049658771035 ,42,8868979789131 ,97,3460441719854
33.4866999 ,Left ,66,3102875216758 ,42,8926272629473 ,97,3140421416858
33.50781 ,Left ,66,323335540578 ,42,9720127531576 ,97,2783805777974
33.5240773 ,Left ,66,2663503727815 ,43,1232437698983 ,97,2473233239272
33.5466967 ,Left ,66,1866652181769 ,43,3194223249076 ,97,2146419866599
33.5676384 ,Left ,66,1351669502234 ,43,5483851983969 ,97,1732819299315
33.5841132 ,Left ,66,0550815450894 ,43,7574489765367 ,97,1298440038316
33.6052872 ,Left ,65,9666408067523 ,43,9127887066707 ,97,1166395861175
33.6217378 ,Left ,65,8867577081054 ,44,025901991205 ,97,1252030399156
33.6444685 ,Left ,65,8437814707272 ,44,1133646126267 ,97,111899890692
33.6655593 ,Left ,65,7680757153323 ,44,1635977512677 ,97,091436697899
33.6810148 ,Left ,65,7136177336787 ,44,1894417907328 ,97,0734583380718
33.7042261 ,Left ,65,6963676713746 ,44,1854270436498 ,97,0553436224874
