timestamp,event,roll,pitch,yaw
0.0236998 ,Left ,56,8759988818654 ,45,8077909948381 ,71,6762006760755
0.0386331 ,Left ,56,8741772620955 ,45,8071610698549 ,71,6572626425777
0.0613893 ,Left ,56,8678399855397 ,45,8134930515177 ,71,6314982420259
0.0838822 ,Left ,56,8658241668531 ,45,8261560861411 ,71,6036538236966
0.0987651 ,Left ,56,8645234710804 ,45,8348728978462 ,71,5889920707363
0.1212641 ,Left ,56,8673646089495 ,45,8360749469727 ,71,5836665873889
0.1440486 ,Left ,56,8767501291555 ,45,8344690176313 ,71,5814133932151
0.1590388 ,Left ,56,8636435733513 ,45,8516149417704 ,71,5697253073933
0.1814937 ,Left ,56,8496479269943 ,45,887891401751 ,71,5548833462083
0.2042966 ,Left ,56,8493181263085 ,45,9238615202535 ,71,5539002852934
0.2190487 ,Left ,56,8405393976365 ,45,9523592348673 ,71,5645134782658
0.2416541 ,Left ,56,8310998309456 ,45,9789600461057 ,71,5779415133302
0.2638515 ,Left ,56,8262675712919 ,46,0054879318791 ,71,586093901091
0.2788088 ,Left ,56,8089029076233 ,46,0395103921697 ,71,5944316064837
0.3020116 ,Left ,56,7937591939498 ,46,0628594018827 ,71,6068393569792
0.3247085 ,Left ,56,7862195849467 ,46,0813480263939 ,71,6323768168146
0.3394731 ,Left ,56,8001146117845 ,46,1032222316995 ,71,6570320307321
0.3613916 ,Left ,56,8141068013015 ,46,1298801598338 ,71,6713990127671
0.3839894 ,Left ,56,81884492022 ,46,1550419776648 ,71,6824749955159
0.3989247 ,Left ,56,7876577954663 ,46,1781211876584 ,71,6837165192104
0.4214746 ,Left ,56,7949138269221 ,46,1945931936764 ,71,6754597707052
0.4440813 ,Left ,56,8491542398633 ,46,2126104516029 ,71,6782744167953
0.4588929 ,Left ,56,8939173546943 ,46,2242549669696 ,71,7007429153097
0.4816679 ,Left ,56,9334133221994 ,46,2321807358843 ,71,7252617149614
0.5040982 ,Left ,56,9312504674899 ,46,2387618245736 ,71,7338365892766
0.5191668 ,Left ,56,8926327493723 ,46,2433193145532 ,71,7320437781928
0.5416227 ,Left ,56,8494059501523 ,46,2412815515024 ,71,7397898742471
0.5641963 ,Left ,56,8277270045388 ,46,2328556588325 ,71,7584240058207
0.5790353 ,Left ,56,8230528102667 ,46,2191311512409 ,71,7750060149216
0.601644 ,Left ,56,8202555092226 ,46,2156282605867 ,71,7769928087931
0.6241678 ,Left ,56,7893169975341 ,46,213907371191 ,71,7670845308806
0.6465134 ,Left ,56,7499698767137 ,46,2116162390431 ,71,7566426636816
0.6615875 ,Left ,56,7264642637885 ,46,2127482101077 ,71,7423412196995
0.683877 ,Left ,56,7056865530663 ,46,2178196937795 ,71,7232905237758
0.7140414 ,Left ,56,6873148553948 ,46,2155744529726 ,71,7063201738344
0.7363781 ,Left ,56,6686867089858 ,46,2099381966229 ,71,6913947598786
0.7740985 ,Left ,56,5694858177889 ,46,1928643058556 ,71,6657814356616
0.7969495 ,Left ,56,5290754461644 ,46,1888140252084 ,71,6554985575426
0.8337097 ,Left ,56,5420605179001 ,46,1919714665737 ,71,6589801608791
0.8562599 ,Left ,56,5269951844379 ,46,1694038944062 ,71,6662132842869
0.8940163 ,Left ,56,5281279663601 ,46,1460244009755 ,71,5824536999218
0.9164332 ,Left ,56,4957042520171 ,46,176288211421 ,71,5452142158885
0.9542671 ,Left ,56,6545227548891 ,46,3076330152351 ,71,5396839685679
0.9768321 ,Left ,56,7183006659143 ,46,3995552384803 ,71,5204857332048
1.0139525 ,Left ,56,8980819887653 ,46,3361823422667 ,71,59690175268
1.0363144 ,Left ,56,9865817394805 ,46,2742555479924 ,71,6946408641656
1.0739901 ,Left ,56,7535329286756 ,46,2157162316703 ,71,6678115325111
1.0964266 ,Left ,56,570477185395 ,46,1539905842987 ,71,5670615764814
1.1339623 ,Left ,56,4154247033029 ,46,0989297914293 ,71,6010584124105
1.1564954 ,Left ,56,3823741732537 ,46,1537325268349 ,71,7024987008194
1.1939481 ,Left ,56,2538868080214 ,46,4156910473032 ,71,8349741263575
1.2165343 ,Left ,56,1972745265275 ,46,5439710213148 ,71,9220229532254
1.2537466 ,Left ,56,115633027669 ,46,7279130564106 ,72,1270462287186
1.2764158 ,Left ,56,2292937867337 ,46,7676492247082 ,72,1915048619029
1.3140335 ,Left ,56,6341766082866 ,46,8068324229911 ,72,2172927183559
1.3363959 ,Left ,56,7868245724224 ,46,8300585747102 ,72,2566101586119
1.3741992 ,Left ,56,7290721707021 ,46,7264430009637 ,72,2859511083956
1.3964319 ,Left ,56,6357000397 ,46,6562904011961 ,72,2460135742716
1.4342126 ,Left ,56,6177431474335 ,46,5923472304316 ,72,1067147518621
1.4563991 ,Left ,56,700064816032 ,46,5523037701919 ,72,0518208611408
1.4939579 ,Left ,56,8615378632438 ,46,470902729923 ,71,9839239477094
1.5165214 ,Left ,56,8615810279786 ,46,4497723117209 ,71,9282612815844
1.5538606 ,Left ,56,6440036532214 ,46,4370011592586 ,71,7857288044788
1.5768824 ,Left ,56,5750558592534 ,46,3963150674296 ,71,7555646057139
1.6145626 ,Left ,56,5878627863719 ,46,1999779008245 ,71,7595541498379
1.6366411 ,Left ,56,5633473298817 ,46,1267909161995 ,71,8108581442437
1.6741634 ,Left ,56,5257684317821 ,46,1528684603787 ,71,8012360262095
1.6966181 ,Left ,56,5329427156953 ,46,2430151420334 ,71,7512753262685
1.7341713 ,Left ,56,7501204760575 ,46,4402698369086 ,71,7190773982467
1.7565303 ,Left ,56,9203670080407 ,46,5244932190673 ,71,7154285666378
1.794229 ,Left ,57,0466955333879 ,46,6225910303194 ,71,7172964119133
1.8165699 ,Left ,56,9767429430251 ,46,6538835152167 ,71,7452387989804
1.8541821 ,Left ,56,5328183982751 ,46,699002768998 ,71,7898666784082
1.8764943 ,Left ,56,4917191313082 ,46,6043377497639 ,71,8071797293855
1.9142114 ,Left ,56,3728630206016 ,46,5829068807663 ,71,8184294262544
1.936614 ,Left ,56,2846692967123 ,46,6595428658399 ,71,7592751733627
1.9740113 ,Left ,56,3943457335724 ,46,7553306654533 ,71,7355431443518
1.9965168 ,Left ,56,5784866591144 ,46,7594655648704 ,71,7405558801458
2.0338586 ,Left ,56,8429312475084 ,46,8446237380553 ,71,6668218406769
2.0563798 ,Left ,56,82790954384 ,46,8872938415145 ,71,6062940908973
2.094335 ,Left ,56,7188966835811 ,46,9075366274025 ,71,5381486627514
2.1241292 ,Left ,56,6592351018547 ,46,8616626443053 ,71,5065912505432
2.1612539 ,Left ,56,6969067452422 ,46,7962584804702 ,71,4459767190049
2.1764701 ,Left ,56,7673549562834 ,46,7756073393514 ,71,4246802599064
2.2140282 ,Left ,56,8116709573943 ,46,7931068473384 ,71,4147297869825
2.2363793 ,Left ,56,8017217567916 ,46,7955961167836 ,71,4323983928702
2.2740293 ,Left ,56,7047437181988 ,46,8287192910437 ,71,4509555455435
2.2963513 ,Left ,56,6537902420076 ,46,871591737785 ,71,4271500361091
2.3341441 ,Left ,56,691316160221 ,46,9406355055944 ,71,3769123419076
2.3565245 ,Left ,56,6743625044814 ,46,9600945927748 ,71,3578260157339
2.3941305 ,Left ,56,508163047315 ,46,9775517703278 ,71,3765215755792
2.4166084 ,Left ,56,433821086628 ,46,9630926831721 ,71,4368261726706
2.4539794 ,Left ,56,4542168363748 ,46,9251790122945 ,71,4151873457139
2.4689567 ,Left ,56,5907000019012 ,46,9384220916858 ,71,369350765263
2.5141371 ,Left ,56,8939152387617 ,46,9510326277864 ,71,3709671513158
2.5293471 ,Left ,56,9167639779411 ,46,9843481764149 ,71,3645446013954
2.5518092 ,Left ,56,8688654473963 ,47,0670093963141 ,71,3158736891692
2.5667407 ,Left ,56,8509085645862 ,47,1575296831231 ,71,2426324489628
2.5890811 ,Left ,56,8366270179298 ,47,201840160735 ,71,2145449866139
2.6116317 ,Left ,56,8195797209766 ,47,2019915489697 ,71,2259535682655
2.6262814 ,Left ,56,753032003003 ,47,1637690024523 ,71,2197810583975
2.6488144 ,Left ,56,6484072027071 ,47,136891425113 ,71,2025166511167
2.6714769 ,Left ,56,4686652327197 ,47,1856402589204 ,71,2162185589207
2.6862978 ,Left ,56,3582670078891 ,47,2982822428561 ,71,2440007875963
2.7090446 ,Left ,56,3830330107122 ,47,3870619502867 ,71,2967439010656
2.7314151 ,Left ,56,5277595389585 ,47,3796119195625 ,71,3721162679508
2.7462688 ,Left ,56,7697559761313 ,47,3084713710441 ,71,444494652498
2.769087 ,Left ,56,9579642799374 ,47,1962357254352 ,71,439088859796
2.7915215 ,Left ,56,9850011261557 ,47,1293079278868 ,71,3765150215839
2.806473 ,Left ,56,9332193871603 ,47,118063569484 ,71,3264580215588
2.8290645 ,Left ,56,8619105350513 ,47,1144147865125 ,71,2835403797629
2.8514244 ,Left ,56,8471715235202 ,47,0866357397452 ,71,1775803635022
2.8664759 ,Left ,56,8223054392598 ,47,0450683040349 ,71,0766100916921
2.8889533 ,Left ,56,8050281394014 ,46,9955696561033 ,71,1143916592745
2.9113757 ,Left ,56,8556416416274 ,46,9403238288417 ,71,2261834329983
2.9262683 ,Left ,56,8782233708118 ,46,9318034788614 ,71,2706145877928
2.9487305 ,Left ,56,8315842813174 ,47,004375065368 ,71,2363812930868
2.9716395 ,Left ,56,8405441320434 ,47,1072630065467 ,71,2186305448916
2.9945082 ,Left ,56,897347051933 ,47,1317895894542 ,71,2373458874767
3.0093375 ,Left ,57,000970138303 ,47,1216718165282 ,71,2396529686121
3.0319042 ,Left ,57,1255496352701 ,47,1275024141885 ,71,2230666280453
3.0469813 ,Left ,57,2530728977468 ,47,1239121285038 ,71,2316492014436
3.0693467 ,Left ,57,3174827428522 ,47,1021550919713 ,71,2679899031832
3.0913636 ,Left ,57,2373473657564 ,47,081590883437 ,71,3324663069077
3.1062391 ,Left ,57,1129867259469 ,47,0589303481711 ,71,4213445220752
3.1289464 ,Left ,57,0468862810544 ,47,0179433966995 ,71,5108012515791
3.1513348 ,Left ,57,0469917740493 ,46,9726626786318 ,71,5953576352268
3.1665057 ,Left ,57,1232661883132 ,46,9457715983567 ,71,6371795711324
3.1890996 ,Left ,57,1962905636357 ,46,9287828575638 ,71,6385254202492
3.2117808 ,Left ,57,2352267308624 ,46,9229366626352 ,71,6280416573684
3.2266179 ,Left ,57,2354010558693 ,46,9075322766623 ,71,6204635967445
3.2491897 ,Left ,57,1736403070481 ,46,8832256209556 ,71,6164117695054
3.2716141 ,Left ,57,0975463931542 ,46,847677760405 ,71,6121946768717
3.2866847 ,Left ,57,0720232714155 ,46,7985422789524 ,71,6185641730068
3.3091698 ,Left ,57,0780806041129 ,46,7475410879027 ,71,6457090985081
3.3316843 ,Left ,57,0979020973899 ,46,6934849064183 ,71,6788801929434
3.3466875 ,Left ,57,1039349385624 ,46,6271437897436 ,71,7302876154006
3.3691647 ,Left ,57,1007106043033 ,46,5677348836873 ,71,7928917184818
3.3917103 ,Left ,57,1050683458988 ,46,5508189416773 ,71,8199429184265
3.4066531 ,Left ,57,135198331344 ,46,5649502296562 ,71,8242330836877
3.4289562 ,Left ,57,1871319356415 ,46,5791483137549 ,71,8356590103329
3.4516603 ,Left ,57,2429185257526 ,46,5841375242224 ,71,8516772470817
3.4741898 ,Left ,57,2331098730943 ,46,5841030567788 ,71,861437543292
3.4891431 ,Left ,57,1494560829568 ,46,6004806656069 ,71,8753047947379
3.511661 ,Left ,57,0699656644373 ,46,621849394249 ,71,8877534393746
3.534693 ,Left ,57,0392612566695 ,46,6318134309193 ,71,8973162364084
3.5493578 ,Left ,57,0565149896065 ,46,6117935095825 ,71,9171956501343
3.5713935 ,Left ,57,0633557211277 ,46,5741122729508 ,71,9281236383729
3.5942615 ,Left ,57,0429960182372 ,46,5506314691332 ,71,9445491594889
3.6089559 ,Left ,57,0320040045325 ,46,5428888165676 ,71,950668383804
3.6315791 ,Left ,57,0332438702448 ,46,5443474576699 ,71,9509803644156
3.6541198 ,Left ,57,0630372598183 ,46,5735280643341 ,71,9306396212441
3.669212 ,Left ,57,108808675397 ,46,6002273132768 ,71,8959108820069
3.6914227 ,Left ,57,1610933897064 ,46,6103456810911 ,71,8539273026331
3.7142277 ,Left ,57,1649819972743 ,46,5992799037069 ,71,8474729397262
3.7291556 ,Left ,57,1091490315903 ,46,608317896873 ,71,8520967724064
3.7515957 ,Left ,57,0130939599971 ,46,6242066163897 ,71,8440370376341
3.7742323 ,Left ,56,9438335264606 ,46,6725320362434 ,71,8400585838199
3.7891297 ,Left ,57,0009071275375 ,46,7419615855128 ,71,8491025479405
3.8112689 ,Left ,57,1512511252764 ,46,7777840080765 ,71,8485334854073
3.8338266 ,Left ,57,2122170068395 ,46,742889148991 ,71,8724892196561
3.8488589 ,Left ,57,2737210948238 ,46,683923485449 ,71,9140769506839
3.8713908 ,Left ,57,2552121977137 ,46,6350497440411 ,71,915771187361
3.8939594 ,Left ,57,1469186194132 ,46,6003997337077 ,71,8752005502747
3.908961 ,Left ,56,9962890791828 ,46,5398644587588 ,71,8259094273139
3.931393 ,Left ,56,9003039639475 ,46,4380251456988 ,71,7867242244126
3.9539019 ,Left ,56,8512899479229 ,46,3340614130282 ,71,7542893889579
3.9691237 ,Left ,56,8747796558192 ,46,3010560419389 ,71,756750778175
3.9915567 ,Left ,56,9358441601519 ,46,3278409860689 ,71,7536519260739
4.0143032 ,Left ,57,0001043029538 ,46,3743738335439 ,71,7193280606164
4.0289608 ,Left ,57,0347199855957 ,46,3791935887652 ,71,7090638054108
4.0513567 ,Left ,57,0422578735538 ,46,368609693737 ,71,7083355057877
4.0737699 ,Left ,56,9980068016658 ,46,3463740344465 ,71,7151963065488
4.089094 ,Left ,56,9643035595953 ,46,3150462061504 ,71,7432253182727
4.1115436 ,Left ,57,0130847533527 ,46,3371544837399 ,71,7310258852822
4.1343215 ,Left ,57,0563729013517 ,46,3621026643355 ,71,6896818240134
4.1492132 ,Left ,57,1581845174197 ,46,3769689504738 ,71,6911207000093
4.1716332 ,Left ,57,176664997241 ,46,3698551502567 ,71,6917286391157
4.1940339 ,Left ,57,1058980540058 ,46,4024055338171 ,71,6672893275914
4.2092506 ,Left ,57,0072728369475 ,46,434106309781 ,71,622699785277
4.2314247 ,Left ,56,9726904418308 ,46,4473741056743 ,71,5456640918586
4.2543976 ,Left ,56,8569627010156 ,46,5226181503597 ,71,5010822836173
4.2844988 ,Left ,56,7812889355526 ,46,6322032416727 ,71,4972894494838
4.2995565 ,Left ,56,853113294335 ,46,7448734601357 ,71,5413393287322
4.3442633 ,Left ,57,2109374815447 ,46,7916121340195 ,71,6189285973872
4.3593071 ,Left ,57,2331550469098 ,46,7774813771866 ,71,6133603146044
4.3815343 ,Left ,57,1089872877625 ,46,7759908422876 ,71,6182789703363
4.3965306 ,Left ,56,938472665173 ,46,7543275716734 ,71,6670656012395
4.4115997 ,Left ,56,8429420708285 ,46,7330531826845 ,71,7039462728494
4.4341549 ,Left ,56,8219369721344 ,46,7259104986104 ,71,6751746332199
4.456159 ,Left ,56,8623310550415 ,46,715323516333 ,71,6319989775236
4.4712665 ,Left ,56,8681242736572 ,46,6769071989486 ,71,5931743638495
4.4939436 ,Left ,56,8118979196395 ,46,6571689419196 ,71,5759637029273
4.516424 ,Left ,56,6890045379081 ,46,6724783360641 ,71,5827570231101
4.5314896 ,Left ,56,6048699094653 ,46,7010339060642 ,71,5884385752089
4.5540984 ,Left ,56,6666367432466 ,46,7317494092385 ,71,5967589143927
4.5763056 ,Left ,56,8681143719144 ,46,7835817037677 ,71,607991797292
4.5913202 ,Left ,57,1018067161354 ,46,8120465614096 ,71,5942662102702
4.6140214 ,Left ,57,223282703232 ,46,825105494717 ,71,5752089449116
4.6364884 ,Left ,57,2275727536698 ,46,834155400368 ,71,5742015777019
4.6515164 ,Left ,57,1538700789526 ,46,8333560600565 ,71,5756639364034
4.6741876 ,Left ,57,0814113616337 ,46,8376737079913 ,71,5465111042623
4.696602 ,Left ,57,0072930760899 ,46,8345301488352 ,71,4983406386662
4.7115137 ,Left ,56,958025118645 ,46,8442652446431 ,71,4384295817603
4.7339556 ,Left ,56,9615610000431 ,46,8652875910234 ,71,3740175674318
4.7564867 ,Left ,57,0197928183585 ,46,8780849558124 ,71,3260155990034
4.771483 ,Left ,57,0660133141259 ,46,8807734431832 ,71,2937869000023
4.7937595 ,Left ,57,0560442315946 ,46,889078919337 ,71,2837838800838
4.8164568 ,Left ,57,0182522184867 ,46,9121400628732 ,71,2661018660866
4.8312101 ,Left ,56,9182205589163 ,46,9395317054842 ,71,2052260191387
4.8539323 ,Left ,56,7809807597704 ,46,9690468736116 ,71,1345887394219
4.8765176 ,Left ,56,6906152984088 ,47,0043819459284 ,71,0762287104441
4.8913593 ,Left ,56,6570637707772 ,47,0328590059639 ,71,052291812278
4.9140031 ,Left ,56,6267740186395 ,47,0450968988444 ,71,0387827711549
4.9365831 ,Left ,56,665957130199 ,47,0668262917603 ,71,0293902324488
4.9516225 ,Left ,56,5818962059386 ,47,0578024171344 ,70,9936445117723
4.9741676 ,Left ,56,4977252187068 ,47,0396343910361 ,70,9751831401409
4.996475 ,Left ,56,5178232281256 ,47,0053542720546 ,70,9795522252021
5.0116829 ,Left ,56,6542675014906 ,46,9273055504071 ,71,0011993885507
5.0341751 ,Left ,56,7882844863194 ,46,8171069364361 ,71,0437239120497
5.0565799 ,Left ,56,9323547738975 ,46,7069464561719 ,71,0740930157182
5.0716315 ,Left ,56,9677535744777 ,46,6069647559636 ,71,0908556522096
5.0942034 ,Left ,56,9600411079949 ,46,5353404965109 ,71,1425161394597
5.1165814 ,Left ,56,9189735580558 ,46,5174666515131 ,71,202198650808
5.1392342 ,Left ,56,9507425824376 ,46,5078156879716 ,71,2080920992587
5.1542798 ,Left ,57,0134009612838 ,46,5110576445154 ,71,1738269358615
5.1766454 ,Left ,57,1105129325771 ,46,5105312390214 ,71,1594634044898
5.191458 ,Left ,57,1481024645446 ,46,5102620211419 ,71,1777517060861
5.2141039 ,Left ,57,105417314875 ,46,5273558322604 ,71,1590038211674
5.2367821 ,Left ,57,0372186990501 ,46,5607094936859 ,71,1124034059761
5.2516274 ,Left ,56,9386128931761 ,46,5757336609595 ,71,0898200906445
5.2741028 ,Left ,56,8696543987341 ,46,5812295798398 ,71,1196029643091
5.2966462 ,Left ,56,8575341793479 ,46,5755390914496 ,71,1619581744676
5.3111535 ,Left ,56,9031319276902 ,46,5575108104534 ,71,2013367447517
5.333965 ,Left ,56,9734111431885 ,46,5396425906134 ,71,2165888761594
5.3566036 ,Left ,57,0339777632821 ,46,5100071379363 ,71,2218082230259
5.3794478 ,Left ,57,0820809651582 ,46,4889603347986 ,71,2142898955808
5.3942736 ,Left ,57,085127958859 ,46,4599815539785 ,71,2102566260212
5.4167834 ,Left ,57,0711436649666 ,46,4227227669163 ,71,2379944709174
5.4388659 ,Left ,57,0725182517372 ,46,3860128733233 ,71,2564721964603
5.4539189 ,Left ,57,0346402985099 ,46,3478002405489 ,71,2513925273088
5.4763941 ,Left ,56,9992498577481 ,46,3053683844718 ,71,2539371691673
5.4989856 ,Left ,56,9842297522608 ,46,2703003555526 ,71,2848606646798
5.5139395 ,Left ,57,0158339107356 ,46,2507793972846 ,71,3234332205938
5.5364281 ,Left ,57,054393334518 ,46,2512753567286 ,71,3568970115171
5.5591804 ,Left ,57,127447766844 ,46,253455851415 ,71,4039096797668
5.57461 ,Left ,57,1877713357992 ,46,2649697882839 ,71,4671000251108
5.5967546 ,Left ,57,2094649385032 ,46,2847919131766 ,71,5160552722927
5.6193059 ,Left ,57,1980363558183 ,46,2979181789468 ,71,5433676981359
5.6339972 ,Left ,57,1793286280733 ,46,3064162700042 ,71,5563781124227
5.656372 ,Left ,57,1382395484552 ,46,3104295208258 ,71,5620334163931
5.6791209 ,Left ,57,1038430585809 ,46,3318765941742 ,71,5759095228743
5.6940042 ,Left ,57,0890861421367 ,46,3615119488334 ,71,5920923593983
5.7164145 ,Left ,57,1150773239629 ,46,3636999568881 ,71,6045296942395
5.7390656 ,Left ,57,1185105199606 ,46,3315071728154 ,71,6425837477807
5.7542783 ,Left ,57,096013085298 ,46,2932002631627 ,71,6858786316826
5.7766884 ,Left ,57,0642170129 ,46,2704745674319 ,71,7202566750997
5.7993058 ,Left ,57,0619827980016 ,46,2684767723888 ,71,7489598693849
5.8140958 ,Left ,57,1161170271334 ,46,281449852364 ,71,7676794434503
5.8368502 ,Left ,57,1720112297039 ,46,2877161252132 ,71,7776688015402
5.859337 ,Left ,57,2119789530754 ,46,2933037308535 ,71,7919142237436
5.8742576 ,Left ,57,2042981082915 ,46,3053449896319 ,71,806322885313
5.8966897 ,Left ,57,1600472490034 ,46,3274921283037 ,71,8272805836201
5.9191858 ,Left ,57,1168749508549 ,46,3370084563611 ,71,854674870197
5.9340396 ,Left ,57,1075141100736 ,46,3359281606616 ,71,8830575463146
5.95661 ,Left ,57,1357178354685 ,46,3329355178401 ,71,905810768168
5.9792142 ,Left ,57,1665263961079 ,46,3395539645779 ,71,9249896728047
5.9940714 ,Left ,57,1899148213071 ,46,3619213838841 ,71,9219122566277
6.0166414 ,Left ,57,2042212293767 ,46,3797940108899 ,71,9226469352133
6.0391845 ,Left ,57,2159233775945 ,46,3859411896997 ,71,9378192348501
6.0543186 ,Left ,57,2069651603516 ,46,3940331793536 ,71,943535656138
6.0767039 ,Left ,57,2029568672046 ,46,4165985628947 ,71,9303608605057
6.0992337 ,Left ,57,2124266820727 ,46,4333197919107 ,71,9096348371417
6.1142003 ,Left ,57,205347411832 ,46,4454573544122 ,71,8974739791933
6.1366166 ,Left ,57,1891317352952 ,46,4559641268396 ,71,9164165356697
6.1592575 ,Left ,57,1601305652343 ,46,4842137819882 ,71,9338171563921
6.1743036 ,Left ,57,1655024287992 ,46,4794074776491 ,71,9125612139646
6.1965309 ,Left ,57,1801237597692 ,46,4575350649518 ,71,8867527199099
6.218955 ,Left ,57,2032760178795 ,46,4512883082156 ,71,8769804534305
6.2339399 ,Left ,57,144002045265 ,46,4516708283043 ,71,861759529993
6.2564769 ,Left ,57,0916343591072 ,46,4793547287577 ,71,8485527067676
6.2789496 ,Left ,57,1902671351474 ,46,5319787941477 ,71,8238262072138
6.3017119 ,Left ,57,3477847386914 ,46,5777432920476 ,71,8066988886814
6.316514 ,Left ,57,5086943788536 ,46,5922144727759 ,71,8152457560904
6.3390303 ,Left ,57,5931843245857 ,46,576088327188 ,71,8122945539907
6.3693074 ,Left ,57,4201857931806 ,46,5823765083029 ,71,684053952999
6.3917437 ,Left ,57,2355981618013 ,46,538075771592 ,71,6040104688611
6.4291766 ,Left ,56,903176312958 ,46,4720205482485 ,71,5025704108272
6.4514921 ,Left ,56,8945335953494 ,46,5335667565919 ,71,5050012365303
6.4890189 ,Left ,57,2642959576046 ,46,5718659633466 ,71,6561370298791
6.5114357 ,Left ,57,4284220170772 ,46,5449662661971 ,71,7001023773966
6.5491333 ,Left ,57,1451508024845 ,46,5917136563077 ,71,6126824673539
6.5718242 ,Left ,57,0869843111983 ,46,6253825913978 ,71,599855766428
6.6095989 ,Left ,56,8974525745896 ,46,7984459471146 ,71,5627226999182
6.6321088 ,Left ,56,9769898331127 ,46,9125626637913 ,71,5540961425624
6.6696341 ,Left ,57,2439642698301 ,46,9708872804198 ,71,5055110848298
6.6920843 ,Left ,57,1708688543033 ,46,9875820303403 ,71,5040834513071
6.7295669 ,Left ,56,8408186100232 ,46,9565957566211 ,71,6616126178013
6.751541 ,Left ,56,8371392589579 ,46,8730645037864 ,71,6993087357089
6.7889534 ,Left ,56,8816012531046 ,46,785953264575 ,71,5544804277405
6.8114728 ,Left ,56,8723741059899 ,46,805573456183 ,71,5042641367835
6.8493877 ,Left ,56,7724219763871 ,46,9603368692001 ,71,4846876146963
6.8718425 ,Left ,56,900959010453 ,47,0064574350769 ,71,4964987914077
6.9093434 ,Left ,57,233854523257 ,46,9493619728529 ,71,5271764127301
6.9315679 ,Left ,57,29398425938 ,46,8942773837108 ,71,5162895549858
6.9688665 ,Left ,57,1702874372963 ,46,7916351298262 ,71,4792800086934
6.9912921 ,Left ,57,094600697268 ,46,7524328705746 ,71,477604380442
7.0289698 ,Left ,57,0700629357952 ,46,6977804494525 ,71,4493794261706
7.0516836 ,Left ,57,1210654217085 ,46,6798924763394 ,71,414150306602
7.0895252 ,Left ,57,1860763906717 ,46,6719311496527 ,71,3919142811332
7.1117917 ,Left ,57,1734867965976 ,46,6873932674596 ,71,3750111364002
7.1493624 ,Left ,57,1410173147862 ,46,7314969852766 ,71,3165552859042
7.1717874 ,Left ,57,1985287784985 ,46,7226422384731 ,71,3093238257026
7.2091712 ,Left ,57,2628901283358 ,46,7195476798666 ,71,2983820461083
7.2312355 ,Left ,57,2113441862983 ,46,7630569801265 ,71,2408827147299
7.2689791 ,Left ,57,1273644864589 ,46,8587223477151 ,71,1449098474614
7.2915815 ,Left ,57,1139043789742 ,46,9037692821302 ,71,1223340894511
7.3290791 ,Left ,57,0776369811058 ,46,9995797804673 ,71,0386144083943
7.3514831 ,Left ,57,0213399857255 ,47,0289797174247 ,71,0203868182608
7.3966866 ,Left ,56,8665154303968 ,47,0816872440302 ,71,0186912594801
7.4189915 ,Left ,56,7991646934893 ,47,1247269922831 ,71,0170732087407
7.4490282 ,Left ,56,8268249180551 ,47,1716071089828 ,71,0392296659262
7.4718892 ,Left ,56,804858291621 ,47,2121511991442 ,71,0178115356829
7.5093434 ,Left ,56,7371199887861 ,47,3808006217083 ,70,9865093948392
7.5316984 ,Left ,56,7292121417166 ,47,4101968826341 ,71,0137560752969
7.5691155 ,Left ,56,7743063812472 ,47,2446690278616 ,71,0587252674328
7.59145 ,Left ,56,8818174786087 ,47,0900726136996 ,71,033959162485
7.6293124 ,Left ,57,0422564544976 ,46,8157859442054 ,71,0389023368103
7.6517046 ,Left ,57,0329981807862 ,46,7660959070475 ,71,079946514658
7.6890608 ,Left ,57,1247839811102 ,46,6907523645493 ,71,0469069582798
7.7187248 ,Left ,57,1134001662676 ,46,6972873717632 ,70,9980423442158
7.7716434 ,Left ,56,99397127437 ,46,8743181652524 ,71,1031510650284
7.8090824 ,Left ,56,7073486985544 ,47,052164226606 ,71,1511125541204
7.8317008 ,Left ,56,6145973586169 ,47,0984430589388 ,71,2561221400834
7.8691954 ,Left ,56,5415020831363 ,47,1060773558076 ,71,3679777262043
7.8916359 ,Left ,56,5413403227426 ,47,075373526991 ,71,3791767983027
7.929216 ,Left ,56,614963232486 ,46,9605156170527 ,71,4623066775974
7.9515946 ,Left ,56,6750074735249 ,46,8971754005977 ,71,4787983498208
7.9893513 ,Left ,56,8231487530098 ,46,7838091433758 ,71,4924486963914
8.0115843 ,Left ,56,8715385506612 ,46,7393806013463 ,71,5339951705575
8.0492739 ,Left ,56,8835447466885 ,46,6798741740133 ,71,5921307190223
8.071667 ,Left ,56,9055715486234 ,46,6816048755919 ,71,5862510556624
8.1088941 ,Left ,56,9942073885427 ,46,6834826763092 ,71,6323971465936
8.1464072 ,Left ,57,0409197642747 ,46,6833685042607 ,71,691304460958
8.1689904 ,Left ,57,0315529642443 ,46,6860992534367 ,71,714437754067
8.1841121 ,Left ,57,0198342000041 ,46,694987350265 ,71,7361103010432
8.206611 ,Left ,57,0411122532756 ,46,7152849904167 ,71,735277342545
8.2214944 ,Left ,57,0822770171194 ,46,7166287822264 ,71,7440239168147
8.2438913 ,Left ,57,1026035776115 ,46,7142927596181 ,71,7560010375714
8.2664884 ,Left ,57,0811067199801 ,46,7340425046631 ,71,7491919445632
8.2815062 ,Left ,57,0716037373379 ,46,7793639642481 ,71,733932758675
8.304214 ,Left ,57,0860476111162 ,46,8078817885373 ,71,7262016240998
8.3265405 ,Left ,57,1133339057971 ,46,8203337034943 ,71,7120305770862
8.3414072 ,Left ,57,122197457366 ,46,8340316531465 ,71,6909592046237
8.3639159 ,Left ,57,112263698271 ,46,8468446919623 ,71,6949461212985
8.3865673 ,Left ,57,1062849080048 ,46,8546630725191 ,71,7085157822716
8.4015219 ,Left ,57,0992298134561 ,46,8542598788086 ,71,7210257435328
8.4240819 ,Left ,57,123194234049 ,46,8418152543199 ,71,7211191088793
8.4466465 ,Left ,57,1387896654582 ,46,817298828128 ,71,7345794489123
8.4615722 ,Left ,57,1581910569126 ,46,8020821495243 ,71,7655963819084
8.4842959 ,Left ,57,1794751982361 ,46,7875354752853 ,71,7811301717323
8.5140783 ,Left ,57,1624230792281 ,46,7835303814863 ,71,7737732091592
8.5291041 ,Left ,57,1504060175106 ,46,7955554525772 ,71,7665980877293
8.5512503 ,Left ,57,1702454369638 ,46,8020570995526 ,71,750970914617
8.5663369 ,Left ,57,1775070197262 ,46,7991771463571 ,71,74061424559
8.5814127 ,Left ,57,1438125284972 ,46,7836095436704 ,71,7405705228144
8.6038206 ,Left ,57,1061155802282 ,46,7639357386989 ,71,7317886388664
8.6265396 ,Left ,57,0761462881096 ,46,7536069683497 ,71,7226163068693
8.6417564 ,Left ,57,0991359442956 ,46,7439924250572 ,71,7101153036234
8.6642766 ,Left ,57,1298132898097 ,46,7274887346453 ,71,7047731301692
8.6865811 ,Left ,57,1301382803704 ,46,7150446270263 ,71,7029442519203
8.7016183 ,Left ,57,0927925147506 ,46,7089247964572 ,71,6911533510507
8.7239779 ,Left ,57,05758294561 ,46,7166356876946 ,71,6683017555462
8.7463233 ,Left ,57,0864128484055 ,46,7261960104573 ,71,6354102764684
8.7613236 ,Left ,57,13102437745 ,46,7436913570049 ,71,5918620570437
8.7842388 ,Left ,57,0660490941219 ,46,75553966186 ,71,5778776121227
8.8062804 ,Left ,56,9952573788837 ,46,7717600993939 ,71,6136921025404
8.8215226 ,Left ,57,0535464291572 ,46,7982082635288 ,71,6196403652187
8.8438663 ,Left ,57,2311967440827 ,46,7824021300283 ,71,577113295422
8.8665918 ,Left ,57,4140354422894 ,46,7307799222555 ,71,6142117741546
8.8816225 ,Left ,57,5412012003385 ,46,6637644571021 ,71,6890197857035
8.9042751 ,Left ,57,5292402716217 ,46,6278545645264 ,71,6110342985453
8.9267068 ,Left ,57,3413801700121 ,46,6313823807969 ,71,411426752303
8.9492599 ,Left ,57,1789322715036 ,46,6073509368866 ,71,3114609705287
8.9642415 ,Left ,57,0754120094651 ,46,503090441087 ,71,2990698384306
8.9867504 ,Left ,57,0028292374193 ,46,4615008558616 ,71,322229734615
9.0091568 ,Left ,56,9769083933969 ,46,4832771214985 ,71,3026853879395
9.0240203 ,Left ,57,0753997088943 ,46,5646163893391 ,71,2793391939871
9.0465022 ,Left ,57,2675469315349 ,46,6916589812349 ,71,2710382471189
9.0692044 ,Left ,57,4280107581618 ,46,7938337396622 ,71,2718904327564
9.0841222 ,Left ,57,5000488714366 ,46,8147888332203 ,71,2793361421347
9.1066652 ,Left ,57,4721300406529 ,46,7714355327404 ,71,3191810720971
9.1291722 ,Left ,57,4238587857499 ,46,7278666633664 ,71,334208114612
9.1443569 ,Left ,57,3927078756237 ,46,726010797336 ,71,3233650761055
9.1665994 ,Left ,57,3037014372972 ,46,7451278987615 ,71,3291726702775
9.1891909 ,Left ,57,2497144652591 ,46,7399145843222 ,71,323931788772
9.2041637 ,Left ,57,2486644781891 ,46,6686891640144 ,71,2244659963281
9.226478 ,Left ,57,1446048598086 ,46,6509988113807 ,71,2007223383434
9.2490684 ,Left ,57,1399809187715 ,46,7159610083779 ,71,2619444485986
9.2641061 ,Left ,57,2306026801591 ,46,793061219672 ,71,3148455525523
9.286338 ,Left ,57,4109136227246 ,46,8532130651916 ,71,3191015959773
9.3090574 ,Left ,57,5603358290292 ,46,8571834101363 ,71,3491969884072
9.3240741 ,Left ,57,6027703634544 ,46,8769708718511 ,71,3852797138838
9.3463068 ,Left ,57,4884124598511 ,46,9531890522718 ,71,3899006843586
9.3690936 ,Left ,57,3075189076536 ,47,0228590394813 ,71,381453864784
9.384351 ,Left ,57,1993707738463 ,47,0701954492095 ,71,3867453370874
9.4069121 ,Left ,57,1734363658699 ,47,079750966294 ,71,4172271933808
9.4294475 ,Left ,57,2324940218137 ,47,0555545929779 ,71,447376530449
9.4441032 ,Left ,57,2727020224426 ,47,0403205871903 ,71,4486801686242
9.4666063 ,Left ,57,2120980123078 ,47,0774640399498 ,71,4047975466387
9.4892311 ,Left ,57,1045960168917 ,47,1241099385922 ,71,334740763805
9.5039682 ,Left ,56,9654387643241 ,47,1265234024847 ,71,2941843724202
9.5265533 ,Left ,56,9137703294988 ,47,1292799637429 ,71,3315088689972
9.5492046 ,Left ,56,9647773034018 ,47,1221113248377 ,71,415328260868
9.563939 ,Left ,57,0109749888413 ,47,1387215724147 ,71,437518941079
9.5865591 ,Left ,57,0324559908578 ,47,1784481384177 ,71,4144491972726
9.6090109 ,Left ,57,1288720541118 ,47,2003904578972 ,71,4268881621106
9.6242597 ,Left ,57,2851226094552 ,47,1574419617655 ,71,5056296124419
9.6464202 ,Left ,57,3821920060038 ,47,0923370165597 ,71,5592610461028
9.6689397 ,Left ,57,3596719936537 ,47,0503662629417 ,71,5345934478353
9.6838376 ,Left ,57,2918267021527 ,47,0477456774737 ,71,44919750023
9.7064701 ,Left ,57,2185527327427 ,47,0389501199056 ,71,3548016578628
9.7288727 ,Left ,57,1678006941182 ,47,0320053774806 ,71,312784363371
9.7438103 ,Left ,57,1836933746302 ,47,0207126298036 ,71,2994038303591
9.7663269 ,Left ,57,2553458922464 ,46,9989706325703 ,71,3000098829622
9.7890397 ,Left ,57,318898766295 ,46,9757846882791 ,71,3148640322206
9.8041152 ,Left ,57,3416611698952 ,46,9901838487543 ,71,2984695709967
9.8264925 ,Left ,57,3119856516336 ,47,0474702344121 ,71,2221065133237
9.8490007 ,Left ,57,2685933955319 ,47,1185956784013 ,71,1080633638545
9.8714145 ,Left ,57,2247869147562 ,47,1729477682408 ,71,0482479683744
9.8864789 ,Left ,57,1908567219389 ,47,2026052889461 ,71,0733428292351
9.9088601 ,Left ,57,1276011431659 ,47,2444554750248 ,71,1000178533117
9.9313544 ,Left ,57,0493464883854 ,47,300537166068 ,71,0399669435534
9.9465165 ,Left ,56,9790256745562 ,47,3539169983861 ,70,9422918361619
9.9689157 ,Left ,56,9533842135037 ,47,3777776903915 ,70,91047895325
9.9915098 ,Left ,56,892832863022 ,47,3479798385071 ,70,91816973125
10.0066292 ,Left ,56,8242806890285 ,47,3256067739517 ,70,9139152759459
10.0296137 ,Left ,56,6826780390226 ,47,363688088376 ,70,8875295696838
10.0520262 ,Left ,56,6828738211704 ,47,442480424805 ,70,8715717075904
10.0669579 ,Left ,56,7780986699194 ,47,4772608839662 ,70,8722875712516
10.0893893 ,Left ,56,8935386719391 ,47,4628144397608 ,70,8880079320595
10.1119818 ,Left ,57,0111180341426 ,47,3953361201596 ,70,9186492090131
10.1270718 ,Left ,57,1293824883737 ,47,3271486705066 ,70,9313314571757
10.1492549 ,Left ,57,1808279501569 ,47,2822960158545 ,70,8876390764578
10.1717324 ,Left ,57,1804161925657 ,47,2740541443853 ,70,840097875975
10.1865678 ,Left ,57,1453345005444 ,47,2991989925034 ,70,8640462289416
10.2093609 ,Left ,57,1432878285814 ,47,3146522035695 ,70,9098672754576
10.231527 ,Left ,57,1804574168528 ,47,2995931198855 ,70,8801916637739
10.2465658 ,Left ,57,2180664584739 ,47,2700172341823 ,70,8119524164645
10.2692937 ,Left ,57,2081884771416 ,47,2049011161202 ,70,8233044745397
10.2914811 ,Left ,57,2022883114641 ,47,155029831216 ,70,8917149668401
10.3067157 ,Left ,57,1260696576757 ,47,1642310719297 ,70,9094910148498
10.329069 ,Left ,57,0655710265392 ,47,2125004234634 ,70,885998458766
10.3514501 ,Left ,57,1276632302131 ,47,2208515388828 ,70,9057837886521
10.3663322 ,Left ,57,2522061379227 ,47,1552560089162 ,70,9603872811728
10.3889318 ,Left ,57,3588822431942 ,47,0847614399315 ,70,9996277530932
10.4115346 ,Left ,57,399813887133 ,47,0104215317421 ,70,9986746046155
10.4264448 ,Left ,57,3722468486075 ,46,952305013259 ,71,015037082876
10.4491973 ,Left ,57,3708207538248 ,46,918655872171 ,71,0560509027041
10.4716133 ,Left ,57,3587835381778 ,46,8810244188748 ,71,1031791239434
10.4863319 ,Left ,57,3739617097235 ,46,8496618261842 ,71,1670086341043
10.5090925 ,Left ,57,3755011122434 ,46,8110394808409 ,71,2311028068453
10.5312625 ,Left ,57,4157193009846 ,46,7964526017053 ,71,2868582979151
10.5463814 ,Left ,57,4368192644341 ,46,780971365948 ,71,3383950119676
10.5688839 ,Left ,57,4934721193745 ,46,7825088915701 ,71,3988901305986
10.5914594 ,Left ,57,5203938475005 ,46,7769232016743 ,71,4578855941559
10.606669 ,Left ,57,5186454409795 ,46,7890443068931 ,71,5043580720408
10.6290887 ,Left ,57,5300981807205 ,46,8105568084186 ,71,527397443265
10.6513823 ,Left ,57,5674979045618 ,46,8463784455682 ,71,5657838383793
10.6662885 ,Left ,57,5822052102023 ,46,8597218067941 ,71,6063373644232
10.6891009 ,Left ,57,570413641685 ,46,8677219855706 ,71,6354615853195
10.7114628 ,Left ,57,5495247906365 ,46,8844192836014 ,71,6361070976838
10.726785 ,Left ,57,5367275382272 ,46,8962751602673 ,71,6236500931474
10.749599 ,Left ,57,5448197471852 ,46,8948379942102 ,71,6134959612737
10.7719774 ,Left ,57,5634799377941 ,46,8888910691731 ,71,6092034648244
10.7870401 ,Left ,57,5741217521633 ,46,884150306076 ,71,5962626027489
10.8095434 ,Left ,57,573861350679 ,46,8783234874557 ,71,5849160430205
10.8319586 ,Left ,57,555907876467 ,46,8774460066786 ,71,5698573223466
10.8470559 ,Left ,57,5182017035805 ,46,8831124674884 ,71,5433162296641
10.8695704 ,Left ,57,4761934365856 ,46,8916925779506 ,71,5275059032633
10.8917597 ,Left ,57,4773002417463 ,46,8902230551621 ,71,5222358685582
10.9067332 ,Left ,57,483354027053 ,46,8868454805974 ,71,532662297631
10.9291667 ,Left ,57,5000902253551 ,46,892097516997 ,71,5535475021543
10.9518599 ,Left ,57,4964434147936 ,46,8934753823877 ,71,558679880216
10.9669324 ,Left ,57,476941868299 ,46,8922963594543 ,71,5566120713924
10.9893057 ,Left ,57,4484651494613 ,46,8932654223194 ,71,5539518785836
11.0116437 ,Left ,57,4306294202837 ,46,8936803860482 ,71,5525561257082
11.0342238 ,Left ,57,4396914870192 ,46,8886867785995 ,71,5525486538134
11.048976 ,Left ,57,454173502246 ,46,8800809589727 ,71,5576705485655
11.0715115 ,Left ,57,4572890129631 ,46,8686536209176 ,71,572101430439
11.0941686 ,Left ,57,4513239143131 ,46,8588666140292 ,71,5934558802782
11.1091233 ,Left ,57,4409109185818 ,46,8705195190153 ,71,607474948633
11.1316427 ,Left ,57,4274144396892 ,46,8781418988085 ,71,594327897857
11.1541307 ,Left ,57,423022292456 ,46,8788888034049 ,71,570336253687
11.1689525 ,Left ,57,4233876197345 ,46,8945951601716 ,71,5519847912823
11.1917192 ,Left ,57,3711132595743 ,46,9307563444345 ,71,5554335157967
11.2142585 ,Left ,57,3581973939547 ,46,9970327014302 ,71,5543854259817
11.2291779 ,Left ,57,499900368201 ,47,0543291400717 ,71,5202586281127
11.2590967 ,Left ,57,6416242026097 ,47,0292248104301 ,71,5097751739225
11.2814762 ,Left ,57,7465169973471 ,46,9440236452057 ,71,5556575269705
11.296701 ,Left ,57,7396874473107 ,46,8652641330282 ,71,5836497997498
11.3115911 ,Left ,57,6065047966563 ,46,8439776262859 ,71,5534616631509
11.3342309 ,Left ,57,4607568845622 ,46,8448748276169 ,71,4766551308796
11.3487974 ,Left ,57,3707834091001 ,46,8029327546673 ,71,3988749579826
11.371315 ,Left ,57,3295448389455 ,46,7345515741457 ,71,3298222761725
11.393966 ,Left ,57,2522744460702 ,46,6725240357677 ,71,2668859425502
11.4088594 ,Left ,57,1928779590065 ,46,6949583874825 ,71,2499204827075
11.4311612 ,Left ,57,2989808276224 ,46,741897398044 ,71,2709793307072
11.453912 ,Left ,57,4013589748079 ,46,7540187943993 ,71,3544307630365
11.4689261 ,Left ,57,5608301728656 ,46,7573007307213 ,71,4399972287047
11.4916463 ,Left ,57,645421576249 ,46,8006003149191 ,71,4160304999375
11.5143577 ,Left ,57,5099184404166 ,46,8839620817165 ,71,312312240923
11.5291411 ,Left ,57,391548323603 ,46,9291284084908 ,71,2542341218966
11.5513772 ,Left ,57,348070394846 ,46,9443639372823 ,71,2498781428811
11.5741338 ,Left ,57,2695573108415 ,46,9831104550328 ,71,2804023783225
11.5888678 ,Left ,57,2749373854343 ,47,0591096094174 ,71,3139441436308
11.6116517 ,Left ,57,4042967966251 ,47,1481828908151 ,71,3100471676039
11.6344519 ,Left ,57,5679496461336 ,47,1973887263949 ,71,2883424886366
11.6493389 ,Left ,57,649245423717 ,47,2130313622529 ,71,2787913693949
11.6716787 ,Left ,57,5475186036602 ,47,2231304045573 ,71,2985020077265
11.6941401 ,Left ,57,3613183334134 ,47,2137400384262 ,71,3556757508193
11.7092835 ,Left ,57,2532072553638 ,47,1869186714667 ,71,423689803488
11.7316676 ,Left ,57,2276300244653 ,47,1579204517918 ,71,4217678141404
11.7616004 ,Left ,57,2287585958827 ,47,1143086974246 ,71,3290292105772
11.7842133 ,Left ,57,2818426810591 ,47,1050641022619 ,71,226008906075
11.7991614 ,Left ,57,2298583098836 ,47,1304323924402 ,71,1787117446511
11.8292601 ,Left ,57,1173116834038 ,47,2692310119034 ,71,2245071803211
11.8514974 ,Left ,57,2759062915971 ,47,2938369614365 ,71,2231614874708
11.8747369 ,Left ,57,4647920029231 ,47,2709491870979 ,71,2177402673395
11.8970513 ,Left ,57,6147729761291 ,47,2350306021818 ,71,232327527546
11.9119729 ,Left ,57,6199714080265 ,47,1950491053493 ,71,2334434859816
11.93452 ,Left ,57,5426351138753 ,47,1568524912576 ,71,2240250107103
11.9567503 ,Left ,57,471391556071 ,47,1367746366733 ,71,1874033746703
11.9717872 ,Left ,57,4183359927179 ,47,1266457494141 ,71,1210160099832
11.9945025 ,Left ,57,3719300209879 ,47,1545432519679 ,71,0333536375105
12.0240972 ,Left ,57,4395021141962 ,47,2364203957134 ,70,8991754796908
12.0466427 ,Left ,57,4558675379745 ,47,2635159254858 ,70,8823329841747
12.0842915 ,Left ,57,2686949949624 ,47,386998967617 ,70,7880609817523
12.1066529 ,Left ,57,1664778521781 ,47,4446382482753 ,70,7063653540922
12.144126 ,Left ,56,9615193097496 ,47,5028027167815 ,70,6285380613263
12.1665278 ,Left ,56,8708961382392 ,47,5154929919672 ,70,6171854767876
12.2042664 ,Left ,56,8747639576531 ,47,5327472969996 ,70,7141850632731
12.2266226 ,Left ,56,8324285068353 ,47,5749871677025 ,70,6792099138257
12.2416963 ,Left ,56,8148334719898 ,47,6360821780888 ,70,6495162551765
12.2641384 ,Left ,56,9711189888745 ,47,5688103493536 ,70,6655313369867
12.286449 ,Left ,57,1867013712683 ,47,4381302776223 ,70,7277246339823
12.3246735 ,Left ,57,3078373992535 ,47,3757054102994 ,70,6468765009276
12.346356 ,Left ,57,1743981234 ,47,4344743324889 ,70,5476273324983
12.3913706 ,Left ,57,1930007854238 ,47,4327521514624 ,70,4348647157607
12.4444341 ,Left ,57,3262137071308 ,47,1679551312164 ,70,6818608354834
12.4669472 ,Left ,57,3252049031704 ,47,169588612309 ,70,7128106960691
12.5042512 ,Left ,57,2953354129501 ,47,3014164786534 ,70,6455876494381
12.5264624 ,Left ,57,4117965935259 ,47,2644194207375 ,70,7115771305887
12.5641842 ,Left ,57,5730946534858 ,47,1510739772568 ,70,8228510137216
12.5863737 ,Left ,57,5923574818873 ,47,1375990223273 ,70,8094168550885
12.6240939 ,Left ,57,5859490456617 ,47,0882197336251 ,70,8644082571297
12.6463979 ,Left ,57,5935299628504 ,47,0384988430211 ,70,9338772458958
12.6841516 ,Left ,57,6621288007075 ,46,935166855699 ,71,0441209483218
12.7064473 ,Left ,57,6508747381916 ,46,9052381954343 ,71,0870908897776
12.7443013 ,Left ,57,6211295182327 ,46,8872210691659 ,71,1645244651191
12.7670459 ,Left ,57,6032123385218 ,46,9082311717325 ,71,1896884575967
12.8050286 ,Left ,57,6572332400597 ,46,9495989661016 ,71,2802106806105
12.8266624 ,Left ,57,6820514712818 ,46,9539894985691 ,71,3333706475024
12.864215 ,Left ,57,6415558213537 ,46,9945475976434 ,71,370088944615
12.8867354 ,Left ,57,6378817076825 ,47,0118207076633 ,71,3805304543651
12.9242712 ,Left ,57,6783422538165 ,47,0226591849255 ,71,3865360339206
12.9616832 ,Left ,57,70765621723 ,47,0299144700844 ,71,3857408676545
13.0441515 ,Left ,57,5677792871774 ,47,0167565028256 ,71,3195170615309
13.0666227 ,Left ,57,5818702735271 ,47,0198343782259 ,71,3058113911253
13.1043095 ,Left ,57,5874430573798 ,47,0100106581818 ,71,3073429000749
13.1265835 ,Left ,57,5628959814994 ,47,0108649928935 ,71,3179392404338
13.1642818 ,Left ,57,5661846433175 ,46,991647592384 ,71,3462218729542
13.1868054 ,Left ,57,5675054316198 ,46,9819206506276 ,71,3577409222247
13.2242408 ,Left ,57,5131326546334 ,46,9909268310479 ,71,3410401110738
13.2467574 ,Left ,57,5430669780499 ,47,0240460885158 ,71,3026147063215
13.2840871 ,Left ,57,4477398768567 ,47,1061718805215 ,71,2421183338727
13.3065385 ,Left ,57,5021077350231 ,47,1785174073937 ,71,2989134599474
13.3443649 ,Left ,57,7719519756051 ,47,0968875893533 ,71,3706214613193
13.3667977 ,Left ,57,8574556817374 ,47,0084785551773 ,71,424223549777
13.4041193 ,Left ,57,5769131695268 ,47,0374707914978 ,71,3266055831662
13.4266739 ,Left ,57,5110241180883 ,47,0269434026191 ,71,1647030416037
13.464142 ,Left ,57,3877025689361 ,46,9093906256993 ,71,0662351295196
13.4866751 ,Left ,57,3237483581632 ,46,9560128644843 ,71,0785186576199
13.5240754 ,Left ,57,5655781558189 ,47,2258948035817 ,71,0285617656323
13.5466276 ,Left ,57,6924931424487 ,47,2598620165271 ,71,050745561517
13.5841913 ,Left ,57,6400394745295 ,47,2619999302256 ,71,0790191580962
13.6065892 ,Left ,57,4846912247643 ,47,27819328269 ,71,0320217139866
13.6442772 ,Left ,57,3606599781804 ,47,2968033935071 ,71,0384680291416
13.6667039 ,Left ,57,3827787623854 ,47,3407738717897 ,71,0250507009544
13.7043295 ,Left ,57,4084212861478 ,47,4263748317249 ,70,9371005866282
13.7266377 ,Left ,57,3954654743359 ,47,4241105132722 ,70,9533018827777
13.7566402 ,Left ,57,3024421182195 ,47,397904331189 ,71,0190205879135
13.8017077 ,Left ,57,2789098432706 ,47,3339751675554 ,71,0185366376546
13.824094 ,Left ,57,2761792248091 ,47,2838197385718 ,71,017402091653
13.8392549 ,Left ,57,2828505923247 ,47,2507781844758 ,71,0280559556755
13.8617372 ,Left ,57,3117978509093 ,47,2351056063091 ,71,0280022770828
13.8766179 ,Left ,57,3268646999546 ,47,2206834452753 ,71,0297756378739
13.8992618 ,Left ,57,3062352189349 ,47,1977530634174 ,71,0523255034734
13.9212642 ,Left ,57,283361985898 ,47,1763372759898 ,71,0931245828208
13.936545 ,Left ,57,2874290916464 ,47,1732797975412 ,71,1342997544708
13.9588459 ,Left ,57,3373371778708 ,47,1794758435434 ,71,1736977359538
13.9813694 ,Left ,57,4070455227767 ,47,1856551957224 ,71,2022507064555
13.9966545 ,Left ,57,440440792707 ,47,1957609347578 ,71,2229738307007
14.0190034 ,Left ,57,4471075640229 ,47,1974429253847 ,71,2499202088827
14.0416085 ,Left ,57,491985848574 ,47,1817134794641 ,71,2751918424083
14.0562146 ,Left ,57,5624990018596 ,47,1583884561453 ,71,280799820544
14.0789857 ,Left ,57,6371840818377 ,47,1391397831226 ,71,2410863596241
14.1014583 ,Left ,57,6300730415741 ,47,1160372100744 ,71,1711914904693
14.1163599 ,Left ,57,5730381550885 ,47,1109022043171 ,71,1075023463026
14.1392121 ,Left ,57,506582674236 ,47,1330062275392 ,71,0502511688213
14.1616259 ,Left ,57,4450886902131 ,47,1427837963329 ,71,004623065356
14.1767113 ,Left ,57,3862615308173 ,47,0483673816304 ,70,9831874489226
14.1988432 ,Left ,57,4167522867983 ,46,9114738305251 ,70,9942565419494
14.2214275 ,Left ,57,3711506927116 ,46,8211060753249 ,70,9988390785013
14.2365142 ,Left ,57,3129415289256 ,46,8321244940137 ,71,0060476781001
14.2590668 ,Left ,57,3661492144269 ,46,9043112144193 ,71,009403072081
14.2813981 ,Left ,57,4573468748843 ,46,9869365735879 ,71,0027863006204
14.2964242 ,Left ,57,5596790385745 ,47,0509331751407 ,70,9946926266941
14.3191233 ,Left ,57,6471893699153 ,47,0652267035904 ,71,0343995609289
14.3414672 ,Left ,57,7156000000881 ,47,0922599617588 ,71,0953487451655
14.3564089 ,Left ,57,7234130982289 ,47,1219436465316 ,71,124844142646
14.3796317 ,Left ,57,6885530565292 ,47,1660440236773 ,71,1602531436662
14.4019728 ,Left ,57,6616797458464 ,47,2139912347919 ,71,1944250115191
14.4165198 ,Left ,57,6072068251217 ,47,247535450711 ,71,2180075689761
14.438979 ,Left ,57,5779241913523 ,47,2766370963342 ,71,2409391771147
14.461482 ,Left ,57,5498632975455 ,47,3155663864052 ,71,2526626911568
14.4764315 ,Left ,57,4880039121872 ,47,3545872006191 ,71,2374747851313
14.4991592 ,Left ,57,4520171994395 ,47,3903702853606 ,71,22178991482
14.5215284 ,Left ,57,4250859050227 ,47,4032539805112 ,71,2159224336818
14.5365822 ,Left ,57,3622769321395 ,47,4178115719834 ,71,2247087299736
14.5592222 ,Left ,57,2818097411212 ,47,4699252165427 ,71,2045560629409
14.5816136 ,Left ,57,1896763247663 ,47,5579252451524 ,71,1715490352292
14.6039748 ,Left ,57,1952658215235 ,47,6621817720339 ,71,1412112307088
14.6192631 ,Left ,57,2889689761588 ,47,7473924464902 ,71,135681196282
14.6416412 ,Left ,57,4481261056879 ,47,7757789673946 ,71,1412770780275
14.6639196 ,Left ,57,6007678275827 ,47,7452764393059 ,71,169450527973
14.6787952 ,Left ,57,6853079717306 ,47,7098082121722 ,71,1988429346119
14.7015009 ,Left ,57,6733610301528 ,47,6601880667262 ,71,185193536878
14.7242013 ,Left ,57,6286802087474 ,47,6050064267699 ,71,1694940668686
14.7387658 ,Left ,57,6020995983628 ,47,5561785445196 ,71,1339496883838
14.761364 ,Left ,57,5518698218509 ,47,5168332222025 ,71,0720396477903
14.7764296 ,Left ,57,5208409987416 ,47,5004942836364 ,70,9985988941027
14.7992024 ,Left ,57,5674290678523 ,47,4896155521775 ,70,9372878268697
14.8212785 ,Left ,57,5990912822915 ,47,4914463660589 ,70,9077589838787
14.8441246 ,Left ,57,5625179508509 ,47,500869701768 ,70,8616637606031
14.8589474 ,Left ,57,4458253058714 ,47,5146458708696 ,70,8002892809882
14.8811935 ,Left ,57,3378400910343 ,47,5602838499167 ,70,7332581027183
14.9041056 ,Left ,57,2690928626939 ,47,6178499679005 ,70,6576118292572
14.9187956 ,Left ,57,198278666332 ,47,6532046518162 ,70,5753595295211
14.9415082 ,Left ,57,1717176766338 ,47,6393163059525 ,70,5652238849004
14.9640262 ,Left ,57,1968003613815 ,47,5963430393658 ,70,6311596802583
14.9795385 ,Left ,57,1890592360147 ,47,5930714888557 ,70,6806141428917
15.0019789 ,Left ,57,1060031341039 ,47,6204937005394 ,70,634010674258
15.0244554 ,Left ,57,1091212823355 ,47,6679346850366 ,70,6145455487998
15.0395399 ,Left ,57,2712537576314 ,47,6222135422547 ,70,6713478985101
15.0619647 ,Left ,57,4460983073926 ,47,5320197396967 ,70,7498729886132
15.0845585 ,Left ,57,4995898170762 ,47,4480886492726 ,70,7427824303608
15.0994203 ,Left ,57,4771486608158 ,47,4043730501753 ,70,6966747290598
15.1220794 ,Left ,57,4608610435551 ,47,3768214346924 ,70,6645293614627
15.152027 ,Left ,57,4440975016943 ,47,3601239433257 ,70,6727152762163
15.1670912 ,Left ,57,4431821635415 ,47,3592330364809 ,70,6699386993724
15.1893801 ,Left ,57,4734849188599 ,47,3966644018192 ,70,6158277763316
15.2044627 ,Left ,57,5118839629333 ,47,4184213701942 ,70,5342387436131
15.2192273 ,Left ,57,5147584555062 ,47,3606790425997 ,70,5064144519259
15.2415424 ,Left ,57,3915734111332 ,47,2996770943069 ,70,5702836459345
15.263979 ,Left ,57,2746205434436 ,47,2798572611132 ,70,6222667862373
15.2791607 ,Left ,57,1405464494955 ,47,3498812563578 ,70,5887278189937
15.3014253 ,Left ,57,1721211749829 ,47,4567673315847 ,70,5359730107948
15.3240585 ,Left ,57,3929164074246 ,47,4768756502938 ,70,5610376080748
15.3392187 ,Left ,57,5916868622859 ,47,4181963160485 ,70,6395976583444
15.3616671 ,Left ,57,6551973328785 ,47,3542516191457 ,70,6802873246897
15.3839533 ,Left ,57,5684908293306 ,47,3252386153409 ,70,694389947719
15.3989115 ,Left ,57,4870063586374 ,47,3287394915241 ,70,7250418789207
15.4216126 ,Left ,57,4264376856323 ,47,3112504025272 ,70,7901719938291
15.4438877 ,Left ,57,4197572005049 ,47,2750994159103 ,70,8704488685473
15.4589774 ,Left ,57,4597125822158 ,47,2426681842525 ,70,925409134238
15.481384 ,Left ,57,5181742748646 ,47,2250127191583 ,70,9488152173033
15.5039011 ,Left ,57,5392909611291 ,47,2202504462594 ,70,991247292964
15.5191201 ,Left ,57,553429533619 ,47,2244510270056 ,71,0476720626486
15.5414044 ,Left ,57,533224507839 ,47,2392923756163 ,71,0921669089204
15.5638752 ,Left ,57,5047322916274 ,47,265276812287 ,71,1223107552511
15.57899 ,Left ,57,4975231215276 ,47,2933850582799 ,71,1654794216598
15.6013745 ,Left ,57,5104360346682 ,47,3215259177605 ,71,2287370367902
15.6239938 ,Left ,57,5348605829491 ,47,3446961262751 ,71,2874011438994
15.6389366 ,Left ,57,5723155988259 ,47,368139445433 ,71,3191104072724
15.6614591 ,Left ,57,595545625045 ,47,3818933876682 ,71,3371987672726
15.6841779 ,Left ,57,6121204385507 ,47,3870117083894 ,71,358046300104
15.6990586 ,Left ,57,6306339173762 ,47,3780054833948 ,71,3743840021584
15.7217216 ,Left ,57,65415931009 ,47,35255060801 ,71,3696590890014
15.7442376 ,Left ,57,6603412178266 ,47,3247803695108 ,71,3628086780326
15.7666501 ,Left ,57,6635850931106 ,47,2967549082165 ,71,3555095105742
15.781425 ,Left ,57,6602351962303 ,47,2760197648934 ,71,35645356973
15.8040033 ,Left ,57,6701497288692 ,47,2628098041073 ,71,3500677935191
15.826597 ,Left ,57,667361390002 ,47,2596063734455 ,71,3255842751432
15.8415972 ,Left ,57,6563570756297 ,47,2650138428227 ,71,3045813554724
15.8639246 ,Left ,57,6592826798794 ,47,2634729589919 ,71,2942563680281
15.8863781 ,Left ,57,6652739701598 ,47,2593429062644 ,71,2837281784606
15.9013607 ,Left ,57,6435905519519 ,47,2557074871973 ,71,2780952608112
15.9238641 ,Left ,57,6191586984969 ,47,2570879379781 ,71,2810423005003
15.9465421 ,Left ,57,6033668806955 ,47,2494510838354 ,71,288230658854
15.9615473 ,Left ,57,6063909065803 ,47,2288184076159 ,71,2978370627277
15.9840138 ,Left ,57,6140751599095 ,47,217384002944 ,71,3070667177688
16.0065603 ,Left ,57,6067147816558 ,47,218966729228 ,71,3223275117442
16.0217223 ,Left ,57,6000993956995 ,47,2161131297157 ,71,3314223226162
16.0442246 ,Left ,57,5787591446458 ,47,2047730966697 ,71,3351108950978
16.0663963 ,Left ,57,5585866595226 ,47,1784245267196 ,71,3412796421305
16.0812391 ,Left ,57,5478552784798 ,47,1433616711383 ,71,3523173578502
16.1038737 ,Left ,57,5453028058228 ,47,1082730996888 ,71,3668913848009
16.126752 ,Left ,57,532178848011 ,47,0901417115471 ,71,3780832150409
16.141511 ,Left ,57,5041939266143 ,47,07415692217 ,71,380364396967
16.164463 ,Left ,57,487915021283 ,47,0443699602883 ,71,3475835544246
16.186633 ,Left ,57,4577700309944 ,47,0068849837865 ,71,2862267550775
16.2017573 ,Left ,57,3819180795629 ,46,9837439881259 ,71,3065996063338
16.2242738 ,Left ,57,3589392862429 ,46,9784520813506 ,71,3581373625948
16.2467934 ,Left ,57,3533494904795 ,47,0454341238246 ,71,3502176026795
16.2616744 ,Left ,57,5132727161011 ,47,1278663163776 ,71,3121669803246
16.2842172 ,Left ,57,7480499901405 ,47,1407067900415 ,71,3157633890317
16.3067401 ,Left ,57,9308424487923 ,47,1009984296491 ,71,3600248114968
16.3217203 ,Left ,57,899054600097 ,47,0681858156141 ,71,3766054929925
16.3442865 ,Left ,57,7740861472333 ,47,0914933893511 ,71,3096846867869
16.366559 ,Left ,57,6208386798312 ,47,0910454049912 ,71,1944355211499
16.3890805 ,Left ,57,4935269957168 ,47,0425252578316 ,71,1267763568246
16.4041385 ,Left ,57,4407974652331 ,46,9953553701395 ,71,0905813993306
16.4265806 ,Left ,57,3830374106057 ,46,9652752398168 ,71,0518491012396
16.4414146 ,Left ,57,313951408837 ,46,9531237069075 ,71,0489060913459
16.4638469 ,Left ,57,4047441295156 ,46,9712099511941 ,71,0987559935637
16.4864052 ,Left ,57,5158120519873 ,46,9809138797195 ,71,1546630055548
16.5090764 ,Left ,57,6231310009048 ,47,0135476776041 ,71,1706321468407
16.5241407 ,Left ,57,710486071479 ,47,0245980919885 ,71,1243534039434
16.5464618 ,Left ,57,6475164277184 ,47,043848008525 ,71,046245175776
16.5690768 ,Left ,57,4854365903933 ,47,0287669650158 ,70,9891077241115
16.5839474 ,Left ,57,4204885240948 ,47,0085923805437 ,70,9848398424928
16.6064947 ,Left ,57,3212683628586 ,47,057385742359 ,71,0149135123155
16.6291921 ,Left ,57,3088055905493 ,47,1609825578068 ,71,0515762475709
16.6441543 ,Left ,57,443133712986 ,47,2811402416199 ,71,0567959890405
16.6666216 ,Left ,57,6212794607193 ,47,3484134416141 ,71,056306894804
16.6891483 ,Left ,57,7064872472841 ,47,3692212960131 ,71,0489649613066
16.7040222 ,Left ,57,6117176133305 ,47,416384088506 ,71,0316893655967
16.7265676 ,Left ,57,402123056787 ,47,4565457285728 ,71,0474078850877
16.7490895 ,Left ,57,2675456012975 ,47,4544629962828 ,71,1075948846336
16.7640228 ,Left ,57,2341032832657 ,47,4212965623193 ,71,1320562719054
16.7867203 ,Left ,57,2546590418284 ,47,3482805712115 ,71,0520900831545
16.8090676 ,Left ,57,258049194367 ,47,271020310699 ,70,9569549439052
16.8241651 ,Left ,57,2112817935167 ,47,2331289920627 ,70,9308888718676
16.8467353 ,Left ,57,1193517243649 ,47,2522610235678 ,70,9154608423978
16.8690252 ,Left ,57,0542524341381 ,47,3214388357487 ,70,8593388283928
16.8840133 ,Left ,57,1823412287236 ,47,3764221004456 ,70,8240645111345
16.9140708 ,Left ,57,4277986129053 ,47,3709793521791 ,70,8624735603589
16.9366997 ,Left ,57,6227818776993 ,47,3100568558212 ,70,9335132278442
16.9517205 ,Left ,57,6686291831984 ,47,2598227794527 ,70,9731778813143
16.9664771 ,Left ,57,5973021167729 ,47,233050133675 ,70,9815113586316
16.9896542 ,Left ,57,5328463679415 ,47,2390363136924 ,70,9630235606783
17.0046428 ,Left ,57,4929366038732 ,47,2633818507014 ,70,9194740714396
17.0266206 ,Left ,57,4943815731607 ,47,3084742581425 ,70,8735818793068
17.049175 ,Left ,57,5372730554865 ,47,3507158576744 ,70,8289638002365
17.0642501 ,Left ,57,5933321284048 ,47,3602154381443 ,70,8033123475212
17.0867967 ,Left ,57,6476224792159 ,47,3589090136344 ,70,8164741953066
17.1092026 ,Left ,57,6241587886779 ,47,3864858496337 ,70,8344188468563
17.1242684 ,Left ,57,5172144417775 ,47,464054490852 ,70,8193044690246
17.146665 ,Left ,57,45363510449 ,47,5506767894854 ,70,7847080534151
17.1692039 ,Left ,57,479744477454 ,47,6046245528383 ,70,7436825890813
17.1838689 ,Left ,57,581511739166 ,47,6338644883955 ,70,7246307489111
17.2063402 ,Left ,57,6760702147515 ,47,643452642847 ,70,706432599615
17.2290289 ,Left ,57,7082728089288 ,47,6608105641819 ,70,6497238740993
17.2441105 ,Left ,57,6507145941954 ,47,6929565476542 ,70,5624262495994
17.2665705 ,Left ,57,5520734446937 ,47,7223096744684 ,70,4834786282909
17.2893782 ,Left ,57,4704548117651 ,47,7269511599932 ,70,4246749745192
17.3041339 ,Left ,57,4383500735104 ,47,7164230466614 ,70,4092452351578
17.3265788 ,Left ,57,4514486873002 ,47,7140734115552 ,70,4075052933345
17.3564873 ,Left ,57,4656701406401 ,47,7240482626589 ,70,3779286018524
17.3790711 ,Left ,57,4400248392772 ,47,7501242955018 ,70,3370876927831
17.3941171 ,Left ,57,3899145103936 ,47,7849181790865 ,70,3130968035608
17.4242102 ,Left ,57,3503125524578 ,47,8600096350295 ,70,2751560064311
17.4466094 ,Left ,57,3265155342912 ,47,8505929943521 ,70,2582690644388
17.4692655 ,Left ,57,2639279223947 ,47,8263027387699 ,70,264559578007
17.484085 ,Left ,57,2077916850084 ,47,7813681467157 ,70,233070088966
17.5063135 ,Left ,57,1327284538752 ,47,7507590982798 ,70,1824405431188
17.5288463 ,Left ,57,0369966231204 ,47,7717429379364 ,70,1767305052195
17.5440718 ,Left ,57,0129181765342 ,47,7859865916193 ,70,1820661263625
17.5664891 ,Left ,57,0213488422682 ,47,7724301891896 ,70,1904770429777
17.5891626 ,Left ,57,0791156427034 ,47,714917853013 ,70,2086498526461
17.6041806 ,Left ,57,2379853709974 ,47,63453126296 ,70,2223556145219
17.626471 ,Left ,57,4233799019458 ,47,5575275994875 ,70,2214060340965
17.6567017 ,Left ,57,4846896753405 ,47,4965529688884 ,70,2165466303757
17.6865739 ,Left ,57,3058352043708 ,47,4861214479115 ,70,194663050845
17.7394627 ,Left ,57,4134119589417 ,47,4264847662557 ,70,1916044152288
17.7619212 ,Left ,57,5097737425069 ,47,4100580895526 ,70,2132192542505
17.7993228 ,Left ,57,5177589720066 ,47,5431365658358 ,70,1830681092406
17.8216347 ,Left ,57,5632989202487 ,47,5924371980221 ,70,2067447372428
17.8366924 ,Left ,57,6553912956908 ,47,5933037093472 ,70,2321692744091
17.8592281 ,Left ,57,7568725793172 ,47,5648775567744 ,70,2195030901227
17.8816465 ,Left ,57,8087453096251 ,47,5119264405207 ,70,2351894544265
17.896589 ,Left ,57,8428954167945 ,47,4660170426469 ,70,2525640436829
17.9192976 ,Left ,57,8082304692006 ,47,4360495579679 ,70,2507157386706
17.941526 ,Left ,57,7703178621883 ,47,4459274179742 ,70,2309444072807
17.9565628 ,Left ,57,7210258036909 ,47,4597862477621 ,70,2184894736096
17.9792787 ,Left ,57,7092342809895 ,47,4666019214423 ,70,2308922372692
18.0017077 ,Left ,57,6949640627405 ,47,4451133402687 ,70,2661317118341
18.0168242 ,Left ,57,7012086704506 ,47,4157861733716 ,70,3143609363677
18.0392706 ,Left ,57,687707343105 ,47,3878273546984 ,70,3584214028395
18.0614456 ,Left ,57,6646708284882 ,47,386852448613 ,70,4119485054114
18.0990949 ,Left ,57,6750000621368 ,47,3705828787191 ,70,5297326003494
18.1214716 ,Left ,57,7214310284447 ,47,3623108978777 ,70,5942223717288
18.1594011 ,Left ,57,7538505976946 ,47,3601160081599 ,70,6740292996736
18.1821796 ,Left ,57,7346184459369 ,47,359492734885 ,70,7153223864358
18.219686 ,Left ,57,7379879695338 ,47,3211536536212 ,70,8241980255468
18.2421742 ,Left ,57,7399787636711 ,47,3109329509078 ,70,8919345879324
18.2791085 ,Left ,57,7452139297661 ,47,324336554486 ,70,9646400575291
18.3016253 ,Left ,57,7777426058503 ,47,3274518751095 ,71,0025099994123
18.3392106 ,Left ,57,8459586343975 ,47,3019373973591 ,71,0910283485166
18.3615964 ,Left ,57,8566645854673 ,47,2844207736668 ,71,1016482063541
18.3993281 ,Left ,57,8324227386377 ,47,2358148316761 ,71,1029440699469
18.4216604 ,Left ,57,8120193209237 ,47,2097542794866 ,71,100992360333
18.4591004 ,Left ,57,7796624990812 ,47,1820851082949 ,71,09500152455
18.4814161 ,Left ,57,7824708049866 ,47,171546870402 ,71,0986963775039
18.5194009 ,Left ,57,7873622419922 ,47,1684507931434 ,71,1193208338891
18.542086 ,Left ,57,785607731543 ,47,1696590930026 ,71,1192823779554
18.5791872 ,Left ,57,786053551937 ,47,1813510043372 ,71,1603938546186
18.6015437 ,Left ,57,774327489157 ,47,1839440723857 ,71,175377243354
18.6390899 ,Left ,57,7550099335229 ,47,1879255605117 ,71,2102611222843
18.6615176 ,Left ,57,7554999219845 ,47,1830473607561 ,71,2250967559186
18.6992379 ,Left ,57,7291566144971 ,47,1755085542088 ,71,2521368460062
18.7217782 ,Left ,57,7154689527033 ,47,1972077015307 ,71,2337665590579
18.7592883 ,Left ,57,6880279468623 ,47,2462601853674 ,71,1307088724568
18.7816952 ,Left ,57,6372999082878 ,47,2870228074279 ,71,1611246278102
18.8192287 ,Left ,57,6118787227381 ,47,3625282680736 ,71,2003817235464
18.8417656 ,Left ,57,6667754973879 ,47,319912602095 ,71,2220860093586
18.8792139 ,Left ,57,8817823800229 ,47,1889237655206 ,71,3106734157296
18.9017264 ,Left ,57,8472794614545 ,47,1757386550869 ,71,3043615410826
18.9391202 ,Left ,57,7075122714821 ,47,1740387858299 ,71,2312915694839
18.96154 ,Left ,57,6459801257887 ,47,1363615972566 ,71,121940149523
18.9991847 ,Left ,57,5398966550065 ,47,0507508805265 ,70,9749544837976
19.021787 ,Left ,57,5982359021482 ,47,0652334585692 ,71,0372804371522
19.0591864 ,Left ,57,8847172081459 ,47,0792242863644 ,71,1186343958299
19.0817049 ,Left ,57,9415872463596 ,47,0663179876008 ,71,1119106117455
19.1189156 ,Left ,57,6718143203499 ,47,0559666924878 ,71,066363563388
19.1415232 ,Left ,57,6115210756304 ,47,074428419401 ,71,0220470007766
19.1791325 ,Left ,57,5595677454947 ,47,2321014197525 ,71,023904526914
19.2018228 ,Left ,57,7058296246509 ,47,3303660050947 ,71,0314859605509
19.2392909 ,Left ,57,9339983629262 ,47,2528555246571 ,71,081242575597
19.2615897 ,Left ,57,8800584719651 ,47,1812845082412 ,71,0928283570733
19.2992501 ,Left ,57,7156313581362 ,47,1392248712815 ,71,072578573374
19.3367242 ,Left ,57,776304390023 ,47,0990502873655 ,71,0560715386588
19.3592084 ,Left ,57,8280971481273 ,47,0882520523439 ,71,0337399323521
19.3968219 ,Left ,57,8563991415985 ,47,0617673604285 ,71,0056733706518
19.4192196 ,Left ,57,8358425863873 ,47,0689758758739 ,70,9789556500402
19.4565754 ,Left ,57,8244397433238 ,47,1440792188308 ,70,9374232867478
19.4791516 ,Left ,57,8295762523997 ,47,1784850015664 ,70,9339384195468
19.4941505 ,Left ,57,8131681146202 ,47,2119291399407 ,70,9304640802389
19.5166015 ,Left ,57,768140461406 ,47,2741641355238 ,70,9089395076067
19.5314889 ,Left ,57,7196299601483 ,47,3599841159887 ,70,8577550358914
19.554311 ,Left ,57,6748636942588 ,47,4380812634873 ,70,7981884960366
19.5767949 ,Left ,57,6815459415065 ,47,5076539995524 ,70,7554034117413
19.5912412 ,Left ,57,6749842124722 ,47,5672503999401 ,70,7737890869674
19.6138708 ,Left ,57,6582484520819 ,47,5997031240675 ,70,8164785279649
19.6371802 ,Left ,57,6428130701103 ,47,6003388101196 ,70,8122281819673
19.6515884 ,Left ,57,5986199876426 ,47,5559216425151 ,70,8092275268265
19.6739551 ,Left ,57,5165530679471 ,47,4903085950541 ,70,8420246961261
19.6966107 ,Left ,57,4611919027494 ,47,4593496606553 ,70,856190453384
19.711426 ,Left ,57,4830725922657 ,47,4710990077534 ,70,8092979051319
19.7338498 ,Left ,57,5627722692225 ,47,4806343769096 ,70,7451561078856
19.7564561 ,Left ,57,6114333989188 ,47,4726323371928 ,70,7054731600412
19.7714389 ,Left ,57,5942590465597 ,47,458069794739 ,70,6726494315071
19.7941976 ,Left ,57,5600144110272 ,47,4397294704671 ,70,6477923060993
19.8165419 ,Left ,57,5384324799012 ,47,4452997727067 ,70,6441622020137
19.8314754 ,Left ,57,5210332332941 ,47,4629380252104 ,70,645462773653
19.8541418 ,Left ,57,5122106955759 ,47,5250600346736 ,70,6763653339038
19.8764744 ,Left ,57,5502053746433 ,47,5903056743009 ,70,6925098321468
19.8915696 ,Left ,57,6224643929759 ,47,6317719329534 ,70,6931378860423
19.9139958 ,Left ,57,7428774207431 ,47,649104777931 ,70,6924641516371
19.9363656 ,Left ,57,8413813120183 ,47,6571427758931 ,70,6954124176372
19.9514089 ,Left ,57,9083265843636 ,47,6327118613923 ,70,7035407312719
19.9741289 ,Left ,57,9416750883454 ,47,6048927282697 ,70,7277401004891
19.9965227 ,Left ,57,8819290750203 ,47,5611002359089 ,70,7424703957929
20.0114607 ,Left ,57,8393217975985 ,47,5313405454998 ,70,7446042353488
20.0339992 ,Left ,57,8552333940997 ,47,5119562113208 ,70,7196351422633
20.0565902 ,Left ,57,8532203835832 ,47,5201921825255 ,70,672142829125
20.0715347 ,Left ,57,8492024523994 ,47,5460598874109 ,70,6231239546168
20.0941594 ,Left ,57,8772434066077 ,47,573863526468 ,70,5755727820683
20.1168544 ,Left ,57,8955823042801 ,47,5994366145408 ,70,5265014005561
20.1319832 ,Left ,57,8138314290645 ,47,6334889537475 ,70,4578407700369
20.1541167 ,Left ,57,6920106383084 ,47,6725372499068 ,70,3854289865649
20.1766153 ,Left ,57,5778640019857 ,47,7272853998132 ,70,3402743072422
20.1989358 ,Left ,57,489342211038 ,47,7794735851978 ,70,3127256850368
20.2139276 ,Left ,57,4599556582189 ,47,8106583542665 ,70,2726258669452
20.2366628 ,Left ,57,4474257078655 ,47,7883967392014 ,70,2618783969553
20.2591142 ,Left ,57,4398478812957 ,47,7452881777106 ,70,2959861635391
20.2739683 ,Left ,57,2875774360086 ,47,713331165167 ,70,296567538343
20.2964188 ,Left ,57,1493723221096 ,47,7326378915153 ,70,2562197413609
20.3191785 ,Left ,57,1931524133888 ,47,7185366091119 ,70,2430240452833
20.3339705 ,Left ,57,4006413189473 ,47,6180454380159 ,70,283217928545
20.3565329 ,Left ,57,6467626814983 ,47,4526486772194 ,70,336005870096
20.3789934 ,Left ,57,8029433120949 ,47,2821265914479 ,70,3552727975222
20.3940777 ,Left ,57,8175296655281 ,47,1883677497255 ,70,3213817382719
20.416968 ,Left ,57,6943055226651 ,47,1620534806016 ,70,2993747473514
20.4392202 ,Left ,57,5645823250731 ,47,1844974656781 ,70,3116702049913
20.4543342 ,Left ,57,6395304350795 ,47,2128115932316 ,70,2679376150028
20.4768644 ,Left ,57,6998057052956 ,47,245056768231 ,70,1756805291852
20.4992927 ,Left ,57,7150919211695 ,47,2987989683437 ,70,1646050577536
20.5143449 ,Left ,57,7238648614868 ,47,338078211886 ,70,1979460914044
20.5369425 ,Left ,57,6432122932319 ,47,3800415320914 ,70,2256371839468
20.5594166 ,Left ,57,6097521737329 ,47,3935907696479 ,70,2476602209264
20.5742768 ,Left ,57,665430893537 ,47,3623865206405 ,70,2957365687734
20.5967714 ,Left ,57,7395620764385 ,47,3038537034408 ,70,3758342374429
20.6192621 ,Left ,57,7672743710394 ,47,2314863155312 ,70,4466201826295
20.6343974 ,Left ,57,7656153473265 ,47,1750329301885 ,70,4896152221231
20.6566049 ,Left ,57,7797201360495 ,47,1600832039651 ,70,51127691778
20.6792201 ,Left ,57,7656263547777 ,47,1458422112444 ,70,5276729469522
20.6940641 ,Left ,57,7560616240923 ,47,1289054603142 ,70,582637978586
20.7164885 ,Left ,57,7702246402658 ,47,1008245612129 ,70,6532165174045
20.7389477 ,Left ,57,7992105834428 ,47,0717971154227 ,70,722881094504
20.7539187 ,Left ,57,816553219724 ,47,0636404750178 ,70,7772197476317
20.7764287 ,Left ,57,8445290504288 ,47,0845481033825 ,70,8224547220363
20.7992217 ,Left ,57,8519652139454 ,47,1115217629693 ,70,869660438927
20.8140757 ,Left ,57,8388177024085 ,47,137066788267 ,70,9063897384194
20.836889 ,Left ,57,8081007647597 ,47,1605121573693 ,70,9335348070696
20.8591789 ,Left ,57,8197874630532 ,47,1701451070614 ,70,9519003534086
20.8740935 ,Left ,57,8340586526289 ,47,1685850093373 ,70,9763553316042
20.8967464 ,Left ,57,8280361473571 ,47,1778645903254 ,70,9958135640537
20.9192973 ,Left ,57,8530498045519 ,47,200712749931 ,70,9948668389119
20.9344582 ,Left ,57,8796378932908 ,47,2029570795295 ,70,9852632238539
20.9569141 ,Left ,57,9060718436217 ,47,1824650474781 ,70,9920375120478
20.979279 ,Left ,57,9195817826937 ,47,165217735799 ,70,9981636896597
20.9943835 ,Left ,57,9109962743866 ,47,1616841775723 ,70,9914121786967
21.0169401 ,Left ,57,9096769538956 ,47,1686466957065 ,70,9794827688884
21.0393916 ,Left ,57,9209237377217 ,47,1672236814298 ,70,9727679643603
21.0543011 ,Left ,57,9323341908847 ,47,1522534737007 ,70,9919629041332
21.0769057 ,Left ,57,9514328147265 ,47,1445276530301 ,71,0314657857487
21.0994058 ,Left ,57,9599374247242 ,47,1417726569079 ,71,0577949391264
21.1143585 ,Left ,57,9293842973215 ,47,1481618017188 ,71,0660042642133
21.1367237 ,Left ,57,8970722737898 ,47,1614747645974 ,71,0805167826284
21.1590175 ,Left ,57,8978173086971 ,47,1686045272947 ,71,1055404713303
21.1742264 ,Left ,57,909865670046 ,47,1707754515161 ,71,1305238310086
21.1965269 ,Left ,57,9079193016042 ,47,1759126157735 ,71,1493116970419
21.2189626 ,Left ,57,8913273039418 ,47,1822503832436 ,71,1644384436443
21.2341485 ,Left ,57,8682719131879 ,47,1890250669851 ,71,1682489234044
21.2571413 ,Left ,57,8636025988857 ,47,1963117254338 ,71,1666906362679
21.2795921 ,Left ,57,8646785600543 ,47,1982674686341 ,71,1644238763794
21.2941241 ,Left ,57,8698156009881 ,47,200831983237 ,71,1681787280186
21.3165965 ,Left ,57,8711457777854 ,47,1994579000851 ,71,1679295734288
21.3391125 ,Left ,57,8655100341158 ,47,201941929306 ,71,1679539971214
21.3540133 ,Left ,57,8408167664634 ,47,2275586519281 ,71,1647742260885
21.3765505 ,Left ,57,8581270750369 ,47,2338017536561 ,71,115715245648
21.3989088 ,Left ,57,8580935643536 ,47,2319122777561 ,71,0582871216275
21.4218894 ,Left ,57,7977400463243 ,47,2289839576901 ,71,069492413377
21.4371101 ,Left ,57,7194206868776 ,47,2615990225531 ,71,1211930177787
21.4592222 ,Left ,57,6600361185716 ,47,3207614215332 ,71,1307527806747
21.4817169 ,Left ,57,7268445651308 ,47,4069612097071 ,71,1099493802763
21.4967042 ,Left ,57,9095793579208 ,47,4242385929661 ,71,1164947997542
21.5188953 ,Left ,58,0811373414954 ,47,3583785515838 ,71,1736951827625
21.5414703 ,Left ,58,1303498101083 ,47,2726041504424 ,71,225407416056
21.5563308 ,Left ,58,0647837760065 ,47,2352852307085 ,71,204898979574
21.5789072 ,Left ,57,9102170868367 ,47,2095259522134 ,71,1431702233331
21.6021192 ,Left ,57,7543064233615 ,47,1586682454094 ,71,0984943265755
21.616364 ,Left ,57,7136926965189 ,47,1086474508636 ,71,079940892894
21.6389219 ,Left ,57,7394602238357 ,47,0717544175787 ,71,0525815332771
21.6616266 ,Left ,57,7877795372091 ,47,0876123082828 ,71,0008157763633
21.6766656 ,Left ,57,8276004159045 ,47,1251778160109 ,70,9575190018799
21.6992257 ,Left ,57,8657820192248 ,47,1584779839866 ,70,931514463015
21.7216931 ,Left ,57,845719358168 ,47,1858747905148 ,70,934538389811
21.7368338 ,Left ,57,7716321000819 ,47,1759218920609 ,70,942780881996
21.7594427 ,Left ,57,6723700305214 ,47,1568629745165 ,70,9729789243932
21.7819206 ,Left ,57,6171948378422 ,47,1742327484616 ,71,0093493820779
21.7967478 ,Left ,57,7100641528483 ,47,2359076529867 ,71,0015618372528
21.8193692 ,Left ,57,8337345088778 ,47,2669294708576 ,70,9922811531437
21.8418978 ,Left ,57,9801456252379 ,47,2473633138034 ,70,9998164091292
21.8567684 ,Left ,57,9620232062596 ,47,2377912670051 ,70,9726551697744
21.8788194 ,Left ,57,7573464424972 ,47,2708703613843 ,70,8812456226106
21.9014201 ,Left ,57,580967856383 ,47,2607834811449 ,70,8173283634697
21.9163784 ,Left ,57,5103858335915 ,47,2684680100225 ,70,8243886037824
21.939005 ,Left ,57,4454019370085 ,47,3057065723271 ,70,8680937506537
21.9614253 ,Left ,57,4676295650376 ,47,378407695997 ,70,8936984880549
21.9765473 ,Left ,57,5857694790934 ,47,4620219999456 ,70,8981944987864
21.9991028 ,Left ,57,7455899008081 ,47,491429556535 ,70,9085641272932
22.0215087 ,Left ,57,7887391212739 ,47,4826379084546 ,70,9169537517437
22.0367552 ,Left ,57,675172310199 ,47,5197857474094 ,70,9136499970833
22.0590716 ,Left ,57,5129161634595 ,47,565976939694 ,70,9400630361002
22.0817733 ,Left ,57,4246137566119 ,47,5818396041449 ,70,9845990903293
22.0966597 ,Left ,57,3776106188186 ,47,5833787009262 ,70,9877303473971
22.1188832 ,Left ,57,3761818362675 ,47,5641211918033 ,70,9455279509271
22.1414667 ,Left ,57,3635761648993 ,47,552647135631 ,70,8880156781625
22.1639413 ,Left ,57,2641176241343 ,47,5734060764659 ,70,8609901685774
22.1789136 ,Left ,57,1148387207098 ,47,6351662596279 ,70,8665420978211
22.2016524 ,Left ,57,0595929288763 ,47,7039231919606 ,70,8624904861352
22.224266 ,Left ,57,1846088004039 ,47,7353314101099 ,70,8506868407838
22.2391115 ,Left ,57,4766511468117 ,47,7022633710228 ,70,8536846187838
22.2617034 ,Left ,57,7217418366578 ,47,6217161316994 ,70,8871462932599
22.284293 ,Left ,57,8111409320563 ,47,5381940901974 ,70,8994150355702
22.2992492 ,Left ,57,7390929424015 ,47,4617042055363 ,70,8919232011335
22.3215755 ,Left ,57,657375011396 ,47,4045778269855 ,70,8953630346182
22.3441086 ,Left ,57,6084626903127 ,47,3593024096888 ,70,8816988833054
22.3592742 ,Left ,57,5948822799106 ,47,3380800157527 ,70,8559499408029
22.3819197 ,Left ,57,6524057224284 ,47,3386388519969 ,70,8131969916412
22.404256 ,Left ,57,7731417102662 ,47,355896570224 ,70,785788529623
22.4192247 ,Left ,57,8576526105384 ,47,3748320796734 ,70,770369231706
22.4416194 ,Left ,57,8715685416706 ,47,4117210699489 ,70,7610070889017
22.4640425 ,Left ,57,826473919301 ,47,4651208623222 ,70,7328158202724
22.4792851 ,Left ,57,7760195508228 ,47,5377367214961 ,70,6872874696685
22.5014912 ,Left ,57,7661624800581 ,47,6163329635907 ,70,6427432083263
22.5241981 ,Left ,57,7589783670677 ,47,6663417987433 ,70,6336078408167
22.5392373 ,Left ,57,7707347630197 ,47,7141173830566 ,70,644554333992
22.5615662 ,Left ,57,7592342953163 ,47,778044081528 ,70,617491081066
22.5838277 ,Left ,57,6734984930671 ,47,8426106582678 ,70,5614498495921
22.5989192 ,Left ,57,5528390842089 ,47,9066703753547 ,70,4683922988034
22.6216321 ,Left ,57,451327211921 ,47,957901561062 ,70,4006960621835
22.6441724 ,Left ,57,4001581931176 ,47,9890711759403 ,70,34784950897
22.6588475 ,Left ,57,3297849545195 ,47,9985828559953 ,70,3090314595851
22.6814562 ,Left ,57,2512123333301 ,47,9768457468738 ,70,2887043216717
22.7039416 ,Left ,57,1448711195612 ,47,9173347006572 ,70,2663570895788
22.7190693 ,Left ,57,0265270863873 ,47,9398764312774 ,70,2732154758027
22.7417045 ,Left ,56,9711138605306 ,47,9961768252911 ,70,2827301056706
22.76409 ,Left ,56,946755228519 ,48,0735892653367 ,70,2988208249515
22.7792849 ,Left ,57,016306133944 ,48,0994739925748 ,70,3485732689981
22.8016767 ,Left ,57,1769931895097 ,47,9936458416656 ,70,4193932367476
22.831878 ,Left ,57,3606412652004 ,47,8106613470294 ,70,4739824807894
22.8467801 ,Left ,57,4770556895732 ,47,6245015047479 ,70,4618742690663
22.8693474 ,Left ,57,5262903039218 ,47,4773998223034 ,70,4425561431761
22.8992709 ,Left ,57,4220417205568 ,47,2941249944075 ,70,5035915002982
22.9220962 ,Left ,57,4435259754733 ,47,2224882677903 ,70,4573678034112
22.9448397 ,Left ,57,4278081431847 ,47,1970412498684 ,70,3825657727988
22.9594265 ,Left ,57,4423884551456 ,47,1952904775809 ,70,3863902835118
22.9820242 ,Left ,57,3948796857658 ,47,1802370677049 ,70,4072623276842
23.0045861 ,Left ,57,2510983249011 ,47,2033820927403 ,70,3377835263694
23.0270267 ,Left ,57,0982294054823 ,47,2733093541028 ,70,2277831825741
23.0415501 ,Left ,56,8996688205481 ,47,3458026543188 ,70,2288133098505
23.0639614 ,Left ,56,7020666303792 ,47,4067351676088 ,70,3484411716752
23.0789828 ,Left ,56,5839040154893 ,47,4305193379617 ,70,4463488692481
23.1013945 ,Left ,56,6381269417437 ,47,4488014415812 ,70,4531840817599
23.1238165 ,Left ,56,7869229850152 ,47,4788006029208 ,70,4272375006098
23.1465974 ,Left ,56,943603507602 ,47,474953542553 ,70,4046480339426
23.1614135 ,Left ,56,9980768276056 ,47,4072806239575 ,70,3856040209544
23.1842257 ,Left ,57,0001646778045 ,47,320354754147 ,70,3916989699352
23.2066631 ,Left ,56,9631375798178 ,47,2488400693734 ,70,4301732300177
23.2216139 ,Left ,56,9828957550778 ,47,2203594186768 ,70,4957013986482
23.2440564 ,Left ,57,0654486014925 ,47,2270943812383 ,70,5722815683738
23.2667035 ,Left ,57,1799294642903 ,47,2601916795034 ,70,6409003696125
23.2816112 ,Left ,57,2958995485235 ,47,3150748939554 ,70,7065952635491
23.3040299 ,Left ,57,3957023508551 ,47,3654502139404 ,70,7634259685585
23.334179 ,Left ,57,5066486712253 ,47,4685930055489 ,70,8318642350573
23.3563632 ,Left ,57,544659511008 ,47,5102788291261 ,70,8435392502858
23.3941635 ,Left ,57,6502528860707 ,47,570537400178 ,70,8510535347891
23.4163626 ,Left ,57,7210103211079 ,47,5941409462962 ,70,8636724992787
23.4314508 ,Left ,57,7546316114148 ,47,6173954685025 ,70,8900534676864
23.4542124 ,Left ,57,7907520851031 ,47,6355880698951 ,70,9031369580321
23.4762324 ,Left ,57,7977896133121 ,47,6381736895164 ,70,9249518171679
23.4914412 ,Left ,57,7936486712682 ,47,6337774392945 ,70,9598045940874
23.5139017 ,Left ,57,7904913193477 ,47,6256043377628 ,70,9861206609661
23.5369626 ,Left ,57,8059420689735 ,47,6118750031791 ,71,0085895941665
23.5520881 ,Left ,57,8272739757451 ,47,5804406017803 ,71,0230069752635
23.5746397 ,Left ,57,8487617704489 ,47,5518422022015 ,71,0199746607415
23.5966204 ,Left ,57,8475554321411 ,47,5345032787092 ,70,9907366896279
23.6115598 ,Left ,57,8270366698457 ,47,5224938036791 ,70,9602107049059
23.6341888 ,Left ,57,7906204929689 ,47,5116516604232 ,70,9408944930731
23.6565611 ,Left ,57,7736126616659 ,47,5051307854313 ,70,9249098453105
23.6713581 ,Left ,57,7753928770237 ,47,4839041292488 ,70,9052754463788
23.69415 ,Left ,57,7932517259676 ,47,4577224408814 ,70,8972630815065
23.7166411 ,Left ,57,8188214534483 ,47,4303283120009 ,70,8975577910275
23.7316499 ,Left ,57,8114727718752 ,47,3993641752643 ,70,9037775465858
23.7616977 ,Left ,57,7768209750727 ,47,3663689540694 ,70,9116441388327
23.784415 ,Left ,57,7605980579246 ,47,3369059317409 ,70,9199520238106
23.8143079 ,Left ,57,773115413254 ,47,3030818443044 ,70,9407566573625
23.8365859 ,Left ,57,7713601824747 ,47,304278969104 ,70,9407157105111
23.8741204 ,Left ,57,7875926640741 ,47,3220544220461 ,70,9639727800311
23.8964974 ,Left ,57,7916064912845 ,47,3181497465997 ,70,9816668325129
23.9341408 ,Left ,57,7422283200067 ,47,3141905378384 ,71,0065183134332
23.9564353 ,Left ,57,7340364198128 ,47,3216685685055 ,71,0200113473306
23.9939683 ,Left ,57,7727982092098 ,47,337607642012 ,71,0247943032654
24.0164897 ,Left ,57,7781503934533 ,47,3327463119933 ,71,0164445685556
24.0540459 ,Left ,57,7070723903417 ,47,2756121794691 ,71,0266394183089
24.0763133 ,Left ,57,6388899062538 ,47,240177089891 ,71,031010749214
24.1142224 ,Left ,57,562663891943 ,47,1963430407869 ,71,0438481399429
24.1365164 ,Left ,57,513919342025 ,47,2050675531759 ,71,0584783024327
24.1739826 ,Left ,57,6073862638419 ,47,3293191897703 ,71,0642372778547
24.1967553 ,Left ,57,7522981869325 ,47,355932159816 ,71,0645316846583
24.2342855 ,Left ,57,9297666060931 ,47,2482928492411 ,71,1213821881066
24.2567507 ,Left ,57,914090001051 ,47,1952277256812 ,71,1382279689025
24.2947444 ,Left ,57,8068321019684 ,47,1765038868048 ,71,0993936685042
24.3166082 ,Left ,57,7571158335797 ,47,1432820102079 ,71,0673111445779
24.3540379 ,Left ,57,6478501689912 ,47,0986076476853 ,70,9160962855215
24.3766009 ,Left ,57,5904947050648 ,47,0883916980115 ,70,8289160611996
24.4138208 ,Left ,57,5815243464848 ,47,0888067747283 ,70,9466519581923
24.4365642 ,Left ,57,6538341287521 ,47,1079603554702 ,70,9828785569083
24.4740532 ,Left ,57,7986098863415 ,47,1567823618383 ,70,9447174557218
24.4965731 ,Left ,57,7841247465666 ,47,188726341765 ,70,8948200258978
24.5342209 ,Left ,57,5915910713786 ,47,2176819101822 ,70,8903925842548
24.556847 ,Left ,57,5113871317654 ,47,300497585377 ,70,9228281545367
24.5944611 ,Left ,57,5900173655804 ,47,5380758778063 ,70,899902249037
24.6167995 ,Left ,57,7570520221673 ,47,5994457300893 ,70,8947050134941
24.6541289 ,Left ,57,7395051192577 ,47,6712229876799 ,70,8499060872326
24.6766186 ,Left ,57,5772380079982 ,47,7040044329115 ,70,8706347083474
24.7141364 ,Left ,57,4234422390949 ,47,6176751237727 ,70,9783807596416
24.7368499 ,Left ,57,4496968605581 ,47,5623874345473 ,70,9504676335272
24.7743245 ,Left ,57,4207270869454 ,47,5721875196165 ,70,8746841857404
24.7966534 ,Left ,57,3725984738717 ,47,6203537568118 ,70,8221379773267
24.8342644 ,Left ,57,4119576944168 ,47,6924496381645 ,70,8009652442115
24.8567258 ,Left ,57,606948961155 ,47,6854323543302 ,70,829466942748
24.8941177 ,Left ,57,9245210963996 ,47,7071675109082 ,70,7949348236245
24.9164543 ,Left ,57,9504680893956 ,47,7314918235526 ,70,7541487687125
24.9540825 ,Left ,57,8347196700602 ,47,8023350591426 ,70,6264713635188
24.9763798 ,Left ,57,8084778504104 ,47,8377600284003 ,70,5080985110188
25.0141735 ,Left ,57,7963866254265 ,47,8508848674761 ,70,3696479829976
25.0368732 ,Left ,57,7981010761764 ,47,8679381414189 ,70,2999473079379
25.0741976 ,Left ,57,5674967120568 ,47,86277649439 ,70,1961396288419
25.0968175 ,Left ,57,4004532510738 ,47,7992994188227 ,70,1481918726003
25.1341852 ,Left ,57,1904252905784 ,47,7633796683887 ,70,1151369352719
25.1492916 ,Left ,57,1651585682461 ,47,8148267186852 ,70,0667288539269
25.1717855 ,Left ,57,1616725390457 ,47,9000343130334 ,70,0418759939061
25.1867804 ,Left ,57,2877762205593 ,47,9009322925976 ,70,0927611264287
25.2093242 ,Left ,57,4672768526579 ,47,7782211838579 ,70,1866432130479
25.2317899 ,Left ,57,5890162779449 ,47,5923302030463 ,70,2348097898188
25.2467735 ,Left ,57,633641266853 ,47,4510786426932 ,70,2432212162447
25.2692254 ,Left ,57,5892723794294 ,47,3905518949366 ,70,2678451898964
25.2917834 ,Left ,57,4947727931638 ,47,3983367463486 ,70,3308998919875
25.3067101 ,Left ,57,5019604870565 ,47,4001131374922 ,70,3649001572078
25.3289253 ,Left ,57,5735822908578 ,47,3484783736888 ,70,3169539597753
25.3513098 ,Left ,57,6057891283969 ,47,275474391842 ,70,2584907394434
25.3664002 ,Left ,57,5501085588235 ,47,221036850885 ,70,2764269503653
25.3892059 ,Left ,57,4320043887755 ,47,2054349901843 ,70,3033069890351
25.4114554 ,Left ,57,2711127777937 ,47,2717665636425 ,70,2804938945511
25.4264385 ,Left ,57,1993786853296 ,47,3980844843773 ,70,2830414347316
25.4488375 ,Left ,57,3350361130204 ,47,4655359262086 ,70,342618445164
25.4714552 ,Left ,57,5741160023388 ,47,4519981327065 ,70,4478560130358
25.4864274 ,Left ,57,7297577856874 ,47,3735654055104 ,70,5206176385219
25.5089473 ,Left ,57,803540799291 ,47,2997249765362 ,70,5297289938766
25.5315206 ,Left ,57,7728222838153 ,47,2531660744054 ,70,5409390693775
25.5467477 ,Left ,57,7680171764786 ,47,2453190728717 ,70,5772278072966
25.5691879 ,Left ,57,7329511625147 ,47,2372406095049 ,70,6182571099155
25.5916966 ,Left ,57,7188354162315 ,47,2122682496533 ,70,6378393927091
25.6067148 ,Left ,57,7315249617277 ,47,181214157245 ,70,6408666337703
25.6288429 ,Left ,57,7782171480676 ,47,1556729359201 ,70,6563764442096
25.6515417 ,Left ,57,7787367858312 ,47,1237451769219 ,70,6942905641229
25.6663853 ,Left ,57,7941688996781 ,47,1115247769624 ,70,7347198733741
25.6889465 ,Left ,57,7836359628534 ,47,1126352454647 ,70,749316513581
25.7115174 ,Left ,57,787788625709 ,47,1417809726432 ,70,7500569547761
25.7270533 ,Left ,57,7903886292467 ,47,180084799301 ,70,7469150807731
25.7497635 ,Left ,57,8203740673276 ,47,2178765006354 ,70,7597815895631
25.7714828 ,Left ,57,8379834159378 ,47,2396750827125 ,70,7964706984844
25.786532 ,Left ,57,8411267048163 ,47,257387400005 ,70,8439994891017
25.8089991 ,Left ,57,8038735268645 ,47,2738334396693 ,70,8843278259922
25.8315869 ,Left ,57,7722497397951 ,47,288991280035 ,70,9146591343865
25.8464094 ,Left ,57,7920828500887 ,47,3015464078417 ,70,93727168945
25.8692541 ,Left ,57,8354986526557 ,47,3081199864353 ,70,9586899170858
25.8919753 ,Left ,57,8725164839397 ,47,3078139523383 ,70,9888593650588
25.9068933 ,Left ,57,8854252379306 ,47,3023234527803 ,71,004641877852
25.929085 ,Left ,57,8855655701914 ,47,2978707853474 ,71,0117195934957
25.9515586 ,Left ,57,8809758473363 ,47,2943397552508 ,71,0182737230821
25.9663855 ,Left ,57,8809758473363 ,47,2943397552508 ,71,0182737230821
25.9887806 ,Left ,57,875056850184 ,47,2904382491452 ,71,0143659818727
26.0114439 ,Left ,57,8685899603206 ,47,2795300753647 ,71,0089249303507
26.0266529 ,Left ,57,8642759233156 ,47,2612489039097 ,71,0048358812921
26.0493077 ,Left ,57,8692478640527 ,47,2393743586185 ,71,0142177536347
26.0715472 ,Left ,57,8738466327278 ,47,2179522414841 ,71,0159830020683
26.093986 ,Left ,57,8606761455582 ,47,1954830690287 ,71,0075823936166
26.1092474 ,Left ,57,8390322203172 ,47,1707236458528 ,71,005906190611
26.131722 ,Left ,57,8212652157303 ,47,1544014228896 ,71,0060901326035
26.1467679 ,Left ,57,8196440085769 ,47,1551220134602 ,71,0087497949999
26.1690241 ,Left ,57,8022264131955 ,47,1617042995064 ,71,0159406243157
26.1919423 ,Left ,57,7955773413761 ,47,1933833301056 ,71,0183551342384
26.214697 ,Left ,57,7947170825754 ,47,2430068175774 ,70,9913952914822
26.2296885 ,Left ,57,7079799578801 ,47,306709863425 ,70,9808371608138
26.2514499 ,Left ,57,6590638981637 ,47,3795638374584 ,71,0147010819185
26.2741805 ,Left ,57,7534423952893 ,47,4281185109492 ,71,039495296399
26.2889286 ,Left ,57,8594109700692 ,47,3894833862839 ,71,0727690739465
26.3114211 ,Left ,57,9988566413627 ,47,2897921331876 ,71,1269098930131
26.3341546 ,Left ,58,0474600219146 ,47,2020671827732 ,71,1185055828051
26.3489399 ,Left ,57,8969354993915 ,47,1693017492835 ,71,0482008647359
26.3716925 ,Left ,57,7523717494847 ,47,1342928756027 ,70,9641708968777
26.394041 ,Left ,57,7244304939855 ,47,0749098997117 ,70,8808101090386
26.4089456 ,Left ,57,7806947717156 ,47,0023224602628 ,70,8062082106885
26.4314099 ,Left ,57,7979294557536 ,46,9443424350205 ,70,7433175539918
26.4539369 ,Left ,57,8162107296992 ,46,9376229429647 ,70,743932974601
26.4691853 ,Left ,57,786238928619 ,46,9509048325221 ,70,8129048660683
26.4916643 ,Left ,57,7036562410433 ,47,0247138264069 ,70,8466092097249
26.5144398 ,Left ,57,7160280992688 ,47,1333140605653 ,70,8182826303858
26.5293926 ,Left ,57,7645387216954 ,47,1920544214746 ,70,805801844325
26.5517734 ,Left ,57,925988039229 ,47,1798986797348 ,70,7870840443364
26.5743659 ,Left ,57,9666301431597 ,47,1530516854543 ,70,7320209892542
26.589176 ,Left ,57,8257143101135 ,47,177714847701 ,70,6832821198312
26.6117702 ,Left ,57,6503175678101 ,47,1484909115529 ,70,6861697819683
26.6341122 ,Left ,57,5899293620995 ,47,160497336823 ,70,684959832106
26.6489035 ,Left ,57,4402873982989 ,47,2316032205697 ,70,6499283089909
26.67137 ,Left ,57,3853566685649 ,47,3238651941691 ,70,6375696008781
26.6942284 ,Left ,57,4941171246042 ,47,404186779813 ,70,6627107802226
26.7091173 ,Left ,57,6752095853479 ,47,4154825281637 ,70,6990691156219
26.7317557 ,Left ,57,7895079528296 ,47,3817741468446 ,70,733387547624
26.754362 ,Left ,57,7192573142061 ,47,3941686305559 ,70,7563211797672
26.7693036 ,Left ,57,5575254226349 ,47,4539651278731 ,70,8138981406659
26.7917462 ,Left ,57,4784728104909 ,47,4871737744997 ,70,8681494994059
26.8140517 ,Left ,57,469353447069 ,47,4497854564559 ,70,8577791424797
26.8289017 ,Left ,57,4904098505078 ,47,4032151637515 ,70,8336128602601
26.8514527 ,Left ,57,4689807857047 ,47,4291266420149 ,70,7846752961029
26.8738579 ,Left ,57,3025416519542 ,47,5262673891045 ,70,7134336391679
26.8965606 ,Left ,57,1980741340768 ,47,6601831519428 ,70,6729555670473
26.9114981 ,Left ,57,3333055066255 ,47,7282709821098 ,70,6969127239471
26.9339695 ,Left ,57,5580686600286 ,47,6900575448032 ,70,7736303655477
26.956731 ,Left ,57,7255952270027 ,47,6331700120398 ,70,8231190021696
26.9717059 ,Left ,57,7808018607886 ,47,6103477188837 ,70,83016328643
26.9942607 ,Left ,57,7503242623619 ,47,5942823643104 ,70,8285076977776
27.0164995 ,Left ,57,7076167065376 ,47,5726316580752 ,70,845136583866
27.0315133 ,Left ,57,6996939348716 ,47,5411455152073 ,70,8717549833424
27.0543762 ,Left ,57,7130450921002 ,47,5374233669466 ,70,8570366707431
27.0691109 ,Left ,57,742467216204 ,47,5601727422106 ,70,8057392870293
27.0989168 ,Left ,57,7656732536618 ,47,5654586246393 ,70,7710477907122
27.121566 ,Left ,57,8398571123194 ,47,5548946280425 ,70,7723966092871
27.1515525 ,Left ,57,9624051044718 ,47,4916472396519 ,70,8231861015566
27.1740809 ,Left ,57,9413080620497 ,47,5038479052529 ,70,8051723113019
27.1965794 ,Left ,57,9081877930848 ,47,5386142531309 ,70,7592712199821
27.2114548 ,Left ,57,9167044610657 ,47,5352560216326 ,70,7235395056395
27.2340947 ,Left ,57,9571740782599 ,47,5014176392428 ,70,7394974893033
27.2565577 ,Left ,57,9779542845912 ,47,4784479178777 ,70,7555956582669
27.2716566 ,Left ,57,9620979779374 ,47,4886655521326 ,70,7300579861378
27.2940763 ,Left ,57,9393719145225 ,47,4973973606909 ,70,7007077386242
27.3168238 ,Left ,57,9355650742565 ,47,4849744905641 ,70,7030633145716
27.3315878 ,Left ,57,9394325536192 ,47,4526078381406 ,70,7253528255474
27.3540125 ,Left ,57,9409129533347 ,47,432028790348 ,70,7394209011953
27.3763865 ,Left ,57,9579037990476 ,47,4112997698591 ,70,7321984451925
27.3914557 ,Left ,57,9929354046613 ,47,3814987624804 ,70,7175358482318
27.4137461 ,Left ,58,0369765765047 ,47,3462896572322 ,70,7052864921131
27.4367733 ,Left ,58,0570988775319 ,47,3281790329717 ,70,6836081716222
27.4515293 ,Left ,58,063778644492 ,47,3460040694081 ,70,6491923857932
27.4740755 ,Left ,58,0567370912863 ,47,3918068065366 ,70,6241943786657
27.496719 ,Left ,58,030154369754 ,47,4467104974282 ,70,5936674061214
27.5113401 ,Left ,57,9656097374324 ,47,5005801244905 ,70,5303268784656
27.5339775 ,Left ,57,8888040846581 ,47,5379951092615 ,70,4627564904047
27.5566926 ,Left ,57,8151467498581 ,47,5629483592019 ,70,4158350047054
27.5715865 ,Left ,57,7331693620344 ,47,5852371029472 ,70,3755782010291
27.5943947 ,Left ,57,6307243813586 ,47,5877766974543 ,70,3267787743397
27.6169442 ,Left ,57,5589330524645 ,47,548446964788 ,70,3018414567171
27.631804 ,Left ,57,5203286879731 ,47,4804608596976 ,70,3130425149606
27.6544522 ,Left ,57,4623007657927 ,47,42072390974 ,70,2964080283947
27.6767579 ,Left ,57,3962296102704 ,47,4040399264099 ,70,2364055621767
27.6919647 ,Left ,57,4431379530296 ,47,3882750797984 ,70,2127615047358
27.714518 ,Left ,57,6675594099425 ,47,2840680946889 ,70,2558786078753
27.7369558 ,Left ,57,9431806675314 ,47,1304105758684 ,70,3458737370398
27.7518649 ,Left ,58,1177832534422 ,46,9834423752994 ,70,3557476547312
27.7745208 ,Left ,58,0583099440307 ,46,9104661935342 ,70,2691761173651
27.7969535 ,Left ,57,9083320036455 ,46,8810871626749 ,70,2294174124966
27.8119268 ,Left ,57,837557593521 ,46,8595442873321 ,70,2700562624624
27.8340505 ,Left ,57,8336267192808 ,46,8038342964639 ,70,3082737275259
27.8568638 ,Left ,57,8902013607172 ,46,7590239819033 ,70,2770020578187
27.8792663 ,Left ,57,9620771659669 ,46,7311783048898 ,70,2194574456217
27.8941395 ,Left ,57,9681801948919 ,46,7350784447743 ,70,2001438615681
27.9167543 ,Left ,57,9034759963388 ,46,7900888282415 ,70,2019386869924
27.9392963 ,Left ,57,7966563986177 ,46,8779830386291 ,70,2011581634338
27.9543863 ,Left ,57,7657727215962 ,46,955599064118 ,70,2226303048174
27.976787 ,Left ,57,8545848827284 ,47,0177557203737 ,70,2571888745694
27.9992868 ,Left ,57,990477497418 ,47,0257315342038 ,70,3076953486781
28.0218214 ,Left ,58,0891169851652 ,46,9926772923449 ,70,3621268736599
28.0443532 ,Left ,58,1506282411546 ,46,9389187317981 ,70,3988328326183
28.0741944 ,Left ,58,1499312877793 ,46,9371130058855 ,70,4293177844387
28.0966608 ,Left ,58,0919804058431 ,46,9578582728101 ,70,4403865495291
28.1191882 ,Left ,58,0489865228536 ,46,9608297533858 ,70,4775889059325
28.1343683 ,Left ,58,050658971336 ,46,9369323948559 ,70,5169049365534
28.1566307 ,Left ,58,0537281660367 ,46,9128052021273 ,70,5461203599612
28.1791788 ,Left ,58,0750143428117 ,46,9241815742755 ,70,5453055332697
28.1940207 ,Left ,58,057474910681 ,46,9304192578004 ,70,5293102193735
28.216807 ,Left ,58,0502678356107 ,46,946702576562 ,70,5419802380019
28.2389742 ,Left ,58,0433798847317 ,46,955667306295 ,70,5609748366345
28.2541558 ,Left ,58,0331488788907 ,46,9688732163107 ,70,5908271541623
28.276765 ,Left ,58,0386320197083 ,46,9826231371677 ,70,6197519609482
28.2992747 ,Left ,58,0354796843875 ,46,9904594797817 ,70,6570342588767
28.3139826 ,Left ,58,0477503629542 ,47,0021241260099 ,70,6914435391433
28.3367905 ,Left ,58,0411116714 ,47,0094685772002 ,70,7231418976243
28.3589068 ,Left ,58,0375092078015 ,47,0159122458471 ,70,7419871463939
28.3739878 ,Left ,58,0480957391829 ,47,0178187217337 ,70,7562935500171
28.396599 ,Left ,58,0500061910378 ,47,0138420603892 ,70,7789477200765
28.418911 ,Left ,58,0445740072018 ,47,0009330241485 ,70,7941321178097
28.4340359 ,Left ,58,0215522466126 ,46,9932793633217 ,70,8031413525031
28.456811 ,Left ,58,0115171903501 ,46,9887742890273 ,70,8117830733336
28.4790759 ,Left ,58,026718588357 ,46,9862620140048 ,70,828302253035
28.4941592 ,Left ,58,0472902674697 ,46,9829848828141 ,70,8505622304691
28.5164054 ,Left ,58,061181364239 ,46,9846290186344 ,70,8729990929033
28.5391262 ,Left ,58,0677941127427 ,46,9910467169091 ,70,8903875070098
28.554243 ,Left ,58,0763410445778 ,46,9957512252998 ,70,9105320761212
28.5768974 ,Left ,58,0651515040195 ,46,9954735594801 ,70,9299739624179
28.5992701 ,Left ,58,0554387324215 ,46,9945017218219 ,70,9418425017503
28.6144298 ,Left ,58,0566444771943 ,46,9959815665036 ,70,942275889175
28.6366027 ,Left ,58,0499060245848 ,46,9941057399963 ,70,9411998654555
28.6591797 ,Left ,58,0357805536943 ,46,9810401795471 ,70,9526641908536
28.6740568 ,Left ,58,017623103226 ,46,9708694079 ,70,9515202720603
28.6967163 ,Left ,57,996159557053 ,46,9569056805957 ,70,9467252813493
28.7190826 ,Left ,57,9886094982762 ,46,9445076882139 ,70,9409681529306
28.7342789 ,Left ,57,9727237160705 ,46,9349168936347 ,70,9324340879701
28.7566269 ,Left ,57,9826639454331 ,46,9245488938785 ,70,9313691795097
28.779215 ,Left ,57,9831420786052 ,46,9098888933395 ,70,9442470047133
28.7939901 ,Left ,57,9612617990627 ,46,9050404726055 ,70,9672790029689
28.8166803 ,Left ,57,8894928647402 ,46,9073764958383 ,70,9862819305753
28.8389508 ,Left ,57,832131987444 ,46,9280360517588 ,71,0076142240681
28.8539103 ,Left ,57,869697517512 ,46,9880233189674 ,71,0015088701796
28.8765879 ,Left ,58,0180658141043 ,47,0360162944226 ,70,9743312638566
28.8990693 ,Left ,58,1485493333865 ,46,996261645097 ,70,9965280937945
28.9216107 ,Left ,58,2930190082009 ,46,9157769930965 ,71,0464734573351
28.9367643 ,Left ,58,2923980522849 ,46,8951097160494 ,71,0423986784972
28.959323 ,Left ,58,1175221542973 ,46,9370180492335 ,70,9609642024674
28.9892884 ,Left ,57,8884329746502 ,46,8967701244755 ,70,821041150885
29.0117491 ,Left ,57,8693751713627 ,46,8062511032722 ,70,7692439334133
29.0492662 ,Left ,57,7878976962187 ,46,7977107473252 ,70,7679214246542
29.0716605 ,Left ,57,890096324289 ,46,8375684731181 ,70,7924128399968
29.1091609 ,Left ,58,0949043492885 ,46,7764133228074 ,70,8426894788008
29.1315821 ,Left ,58,0124665039072 ,46,7644200323411 ,70,8090044341017
29.1689994 ,Left ,57,7816445838828 ,46,7827438390718 ,70,7672388105332
29.1919646 ,Left ,57,6983864131878 ,46,8471996663019 ,70,7916942825653
29.2296064 ,Left ,57,7907516047284 ,47,0746886989232 ,70,7971988956964
29.2519823 ,Left ,57,9546982402479 ,47,1453584734648 ,70,7938613143336
29.2892176 ,Left ,57,9921314078524 ,47,2670312867463 ,70,7903728504942
29.3115846 ,Left ,57,8337088342836 ,47,3467800245452 ,70,8394555418009
29.3489511 ,Left ,57,6535204868419 ,47,2837444133772 ,70,9011415519843
29.3715994 ,Left ,57,6461551502039 ,47,256659927044 ,70,8543317416854
29.4094967 ,Left ,57,5387067990051 ,47,3277424502797 ,70,7865696474193
29.4316578 ,Left ,57,4818185310518 ,47,4417644633258 ,70,742209178
29.4693291 ,Left ,57,6080078280924 ,47,5900192287396 ,70,6860396484319
29.4919497 ,Left ,57,8214957914369 ,47,5974258970353 ,70,6937519574216
29.529457 ,Left ,58,1398358288852 ,47,5701821543582 ,70,6935786654811
29.5518838 ,Left ,58,2066360405341 ,47,5517525647698 ,70,6824837345925
29.5893047 ,Left ,58,1080671997573 ,47,5219569034542 ,70,687550892058
29.6119755 ,Left ,58,0515840161146 ,47,512025356371 ,70,6657148221807
29.6496733 ,Left ,58,0790068893776 ,47,5388240339198 ,70,5770795818669
29.6721526 ,Left ,58,1217403476376 ,47,5598869332844 ,70,5251640859279
29.7095271 ,Left ,58,166877620417 ,47,5617385578991 ,70,4873317315684
29.7316896 ,Left ,58,1259610566719 ,47,594224669622 ,70,4765203161387
29.7689506 ,Left ,57,911791324824 ,47,7428291944979 ,70,3666472346816
29.7915377 ,Left ,57,8479866816909 ,47,7891723722401 ,70,289906526643
29.8290809 ,Left ,57,739785479823 ,47,7821575978775 ,70,2529855961004
29.851674 ,Left ,57,6128767031235 ,47,7586298747275 ,70,2440094813433
29.8969548 ,Left ,57,3590657122276 ,47,7298019896031 ,70,1384558206206
29.9489839 ,Left ,57,175856614559 ,47,6700944953125 ,70,0668800735571
29.9715821 ,Left ,57,2717763324598 ,47,6650726510255 ,70,0852732726163
30.0090637 ,Left ,57,7172180602932 ,47,5358005326202 ,70,1139104983096
30.0316382 ,Left ,57,8750588173967 ,47,3798324959057 ,70,1428254731027
30.0697629 ,Left ,57,7140151237916 ,47,1168005512029 ,70,128040052043
30.0917412 ,Left ,57,5809884427683 ,47,0415209042701 ,70,1277890993173
30.1289664 ,Left ,57,6288001457972 ,46,9596083469099 ,70,0416245459897
30.1517191 ,Left ,57,6848134777491 ,46,9253277509439 ,70,0096481285592
30.1892672 ,Left ,57,6314434026196 ,46,878496733764 ,70,0754903933609
30.2117068 ,Left ,57,4519589989025 ,46,8749189340454 ,70,1136022043873
30.2491657 ,Left ,57,2101254132034 ,46,8992446581949 ,70,193236803136
30.2715755 ,Left ,57,2880485979882 ,46,9093484486469 ,70,2258249458717
30.3089427 ,Left ,57,6270703863918 ,46,9015889468788 ,70,2797699959594
30.3313923 ,Left ,57,6839770928151 ,46,8699852178901 ,70,3223163115712
30.3689554 ,Left ,57,5817024719285 ,46,8706664239936 ,70,4337139513874
30.3913431 ,Left ,57,5476574432178 ,46,9060619547771 ,70,4753750560208
30.4289562 ,Left ,57,6923803300548 ,47,0027756214805 ,70,5486895562369
30.4514215 ,Left ,57,8033131665557 ,47,049822631727 ,70,5933125238231
30.4891111 ,Left ,57,8948539249631 ,47,1415456008735 ,70,6451213842614
30.5116129 ,Left ,57,9311233201854 ,47,1915055317514 ,70,6584335050127
30.548975 ,Left ,57,9492776495729 ,47,2334439433516 ,70,7018567456338
30.5866088 ,Left ,57,9015293826569 ,47,2379648666876 ,70,7028565519674
30.6093236 ,Left ,57,9042155669252 ,47,2392378406267 ,70,6979678012719
30.6466356 ,Left ,57,9315541820685 ,47,2325064303123 ,70,7333297160839
30.6689009 ,Left ,57,9430812856289 ,47,2205146288873 ,70,7579220503755
30.6989885 ,Left ,57,9337758581343 ,47,2276582241957 ,70,7891389214065
30.7291578 ,Left ,57,9303779424603 ,47,2295541700274 ,70,7917418631706
30.7665981 ,Left ,57,9951563406316 ,47,221760756112 ,70,7768414167036
30.7890809 ,Left ,57,996141088916 ,47,2015052269057 ,70,7601981523324
30.8040842 ,Left ,57,9746520774038 ,47,175364228851 ,70,744992378144
30.8267978 ,Left ,57,9463767125162 ,47,1529762508972 ,70,7350724799369
30.8417366 ,Left ,57,9226554981542 ,47,1427229354697 ,70,7305539193295
30.8639301 ,Left ,57,9263133580969 ,47,122711275413 ,70,737436224371
30.8864801 ,Left ,57,9586852247342 ,47,0939071589267 ,70,7588320681889
30.9013986 ,Left ,57,9775195744596 ,47,0645738806193 ,70,7810123411277
30.9242906 ,Left ,57,9828428471093 ,47,0519024306009 ,70,799845103721
30.947066 ,Left ,57,9689545069441 ,47,0451641026417 ,70,8151559450538
30.96192 ,Left ,57,9740263903717 ,47,0426693219856 ,70,8332295208609
30.9845212 ,Left ,57,9950261039124 ,47,03560071923 ,70,8601799372939
31.0069409 ,Left ,57,9960612978361 ,47,0308139757022 ,70,8800819713109
31.021778 ,Left ,57,9723690821487 ,47,0316111415629 ,70,8958097531637
31.0440711 ,Left ,57,9409799514935 ,47,0393931894126 ,70,9095748687138
31.0666679 ,Left ,57,9310414088634 ,47,0406739995668 ,70,9294533800907
31.0815109 ,Left ,57,9335148682292 ,47,031199044197 ,70,9462286529681
31.1039989 ,Left ,57,9083402889288 ,47,0133922179712 ,70,9609245034177
31.1265377 ,Left ,57,8803169089813 ,46,9948355282091 ,70,9779315644212
31.1417569 ,Left ,57,8498555019263 ,46,9870059972541 ,70,9915988708803
31.1640722 ,Left ,57,8270032519215 ,46,9943113368926 ,70,9931330695915
31.1866089 ,Left ,57,8367108102693 ,47,0002539907004 ,70,9667312928854
31.2017502 ,Left ,57,834989915979 ,46,9926561648503 ,70,931405189395
31.2243301 ,Left ,57,7871472879876 ,46,9856152188668 ,70,9461108345848
31.2465554 ,Left ,57,7394879271885 ,47,005186726162 ,70,9940313597047
31.2614602 ,Left ,57,6989732043307 ,47,0832849568482 ,70,998845273248
31.2839996 ,Left ,57,7851330187791 ,47,1344939164186 ,70,9780673622961
31.3068063 ,Left ,57,9478613428785 ,47,1088198568188 ,71,0114340230993
31.3215319 ,Left ,58,1190146946512 ,47,0545592003564 ,71,0563470307046
31.344199 ,Left ,58,1360908648602 ,47,0251643322778 ,71,0370965096748
31.3665936 ,Left ,58,033155756661 ,47,0475828006072 ,70,9857894099384
31.3815955 ,Left ,57,9122364406241 ,47,0707090374414 ,70,9278060434093
31.4041441 ,Left ,57,858165766266 ,47,0510218490836 ,70,8488221688702
31.4266633 ,Left ,57,792183584902 ,46,9770184135392 ,70,7487014930904
31.4416785 ,Left ,57,7050868027733 ,46,9063272334709 ,70,7198928221309
31.463966 ,Left ,57,6715386587808 ,46,9006812622383 ,70,7600198580219
31.4866407 ,Left ,57,7538392691715 ,46,9576707022728 ,70,7698594182528
31.5013155 ,Left ,57,8659946687042 ,46,9996155131428 ,70,7779282609209
31.5241429 ,Left ,58,0335907687316 ,46,9836110516229 ,70,813087407062
31.5470132 ,Left ,58,0694129680929 ,46,924643381745 ,70,815931149332
31.5622281 ,Left ,57,946384713863 ,46,928743107031 ,70,7447687467527
31.5847269 ,Left ,57,7514619175709 ,46,925953513575 ,70,671178860003
31.6071779 ,Left ,57,7309756255915 ,46,9249797673249 ,70,6229546532375
31.6298028 ,Left ,57,6987091016863 ,46,9680714655234 ,70,6199485295265
31.6443665 ,Left ,57,695598369248 ,47,0385507279191 ,70,6552519716708
31.666667 ,Left ,57,7907813149533 ,47,1276804480096 ,70,6833108212854
31.6892629 ,Left ,57,9055851085897 ,47,1962012785049 ,70,6746586874032
31.7039381 ,Left ,57,9972496941042 ,47,2168127504158 ,70,6445638081158
31.726588 ,Left ,57,9389911495192 ,47,2626695901641 ,70,6421004127925
31.7490781 ,Left ,57,8159578188078 ,47,3324606831571 ,70,7293557099023
31.7640626 ,Left ,57,7791210968914 ,47,2995902325114 ,70,8555527193369
31.7863345 ,Left ,57,7843473283702 ,47,2150063692431 ,70,904702607345
31.8090414 ,Left ,57,7566659409642 ,47,1360613680823 ,70,8434615046487
31.8238157 ,Left ,57,7181740512384 ,47,1411531926675 ,70,7555402844927
31.8464769 ,Left ,57,6390455313192 ,47,2240533251767 ,70,7010317015653
31.8688761 ,Left ,57,5361548316124 ,47,3504853540551 ,70,6931108216765
31.8839455 ,Left ,57,4475171712279 ,47,4667510829977 ,70,6972383770516
31.9064533 ,Left ,57,4928508033152 ,47,5250764785076 ,70,7100988353021
31.928909 ,Left ,57,7207328439999 ,47,5284205229046 ,70,73563463618
31.944095 ,Left ,57,9866752190229 ,47,5076161842205 ,70,7521211696663
31.9666493 ,Left ,58,1573311036536 ,47,4989035132788 ,70,7274434855461
31.988944 ,Left ,58,21613832525 ,47,4890394536313 ,70,7017094876087
32.0041813 ,Left ,58,1493835347143 ,47,4558833187724 ,70,6762976654961
32.026484 ,Left ,58,0474228883793 ,47,4062024464239 ,70,6722221071965
32.0492135 ,Left ,58,0094023883009 ,47,3542413989818 ,70,6599251206163
32.0639701 ,Left ,58,0098151504309 ,47,3025146151861 ,70,6421562598265
32.0865386 ,Left ,58,0331776556671 ,47,2779006273184 ,70,6245832590082
32.1090907 ,Left ,58,1028750951551 ,47,2490428987023 ,70,5883486509781
32.1243023 ,Left ,58,1616617211406 ,47,1998804006822 ,70,5695959797378
32.1467918 ,Left ,58,184903443258 ,47,1575065478285 ,70,5766040664199
32.1689784 ,Left ,58,1687767525112 ,47,1539708732348 ,70,5714855912265
32.1840666 ,Left ,58,1152352347202 ,47,1863626431629 ,70,543696949439
32.2065308 ,Left ,58,0867801106561 ,47,2357088876518 ,70,5349287485076
32.2293581 ,Left ,58,0999162941697 ,47,2578257586473 ,70,5510668921755
32.2445126 ,Left ,58,148201341959 ,47,266166329495 ,70,5814047358356
32.2669697 ,Left ,58,1649600255241 ,47,2983516610923 ,70,5870646521973
32.2893858 ,Left ,58,1186883902713 ,47,3624922000445 ,70,5509813453542
32.3044352 ,Left ,58,1029787358525 ,47,4354379477291 ,70,4999244638985
32.3264682 ,Left ,58,1200254761951 ,47,4928668807084 ,70,4573400959753
32.348987 ,Left ,58,12719167138 ,47,537729520713 ,70,4316949599854
32.3639336 ,Left ,58,1322669096538 ,47,5671462585008 ,70,4205264279217
32.3866884 ,Left ,58,1110720962206 ,47,594481836553 ,70,4159768761684
32.4092487 ,Left ,58,0486851720969 ,47,6113142219799 ,70,386567214284
32.4241912 ,Left ,57,9927984023917 ,47,5957170446442 ,70,3563065126943
32.4463599 ,Left ,57,9424475058334 ,47,566384391091 ,70,3495965734553
32.469139 ,Left ,57,8585584981078 ,47,5632402787829 ,70,3242711072096
32.484018 ,Left ,57,7473631518532 ,47,5746537716867 ,70,2760689145162
32.5066031 ,Left ,57,6725436732728 ,47,5796536396757 ,70,226245377382
32.5291876 ,Left ,57,6412887909758 ,47,5710376936407 ,70,1831628350501
32.5442778 ,Left ,57,6148922137324 ,47,5501444775438 ,70,1714808343838
32.5665544 ,Left ,57,5679804604752 ,47,5476599986105 ,70,1738276075404
32.5891565 ,Left ,57,5289417865684 ,47,5674356466649 ,70,1708878525954
32.6042246 ,Left ,57,5440407657856 ,47,5911070699529 ,70,1515625146203
32.6266566 ,Left ,57,5717110694572 ,47,606843336108 ,70,1373373772806
32.6491697 ,Left ,57,5875047993611 ,47,6253983293802 ,70,1350312711703
32.6638189 ,Left ,57,5886850630786 ,47,6577591773474 ,70,1388223503337
32.6865518 ,Left ,57,5949748105557 ,47,671995725465 ,70,1245925805939
32.7091311 ,Left ,57,5958596619862 ,47,648900853088 ,70,1252031910021
32.7240187 ,Left ,57,5764537074737 ,47,6178738320628 ,70,1298967142395
32.7465784 ,Left ,57,5651409993834 ,47,6097310423341 ,70,1270825340393
32.7690661 ,Left ,57,5558065167694 ,47,6289408263562 ,70,1198681880534
32.7916071 ,Left ,57,549039993398 ,47,6621647504158 ,70,0902211264627
32.8066507 ,Left ,57,5423926956117 ,47,7115762327605 ,70,0711810424883
32.828992 ,Left ,57,5201209452456 ,47,737065242051 ,70,0412548768868
32.8517608 ,Left ,57,4856245482304 ,47,7460305694141 ,70,0364851640166
32.8665434 ,Left ,57,4452355327454 ,47,7501930460144 ,70,0509064975175
32.8890345 ,Left ,57,4139862708773 ,47,727339429166 ,70,0556775182235
32.911738 ,Left ,57,4306785849088 ,47,6763331186606 ,70,0629464594392
32.9267868 ,Left ,57,5162286020123 ,47,6072749739578 ,70,0839279416866
32.9490206 ,Left ,57,6200692310725 ,47,534240561479 ,70,0883293079432
32.9717427 ,Left ,57,6837031620178 ,47,4448813803434 ,70,0829463700536
32.9867363 ,Left ,57,6867051307585 ,47,346888847746 ,70,1150575274254
33.0092748 ,Left ,57,6420952455398 ,47,2740854329063 ,70,1729726025922
33.0317859 ,Left ,57,6052065319633 ,47,247270865316 ,70,2303159165964
33.0465177 ,Left ,57,5964101296931 ,47,2608778416794 ,70,2726038089683
33.069263 ,Left ,57,6587097711865 ,47,2980676114475 ,70,2955408453507
33.0917282 ,Left ,57,7497273158801 ,47,3047937364541 ,70,2677917056004
33.1065438 ,Left ,57,7445228051508 ,47,2877193579338 ,70,2640681598825
33.128979 ,Left ,57,6742911697492 ,47,2487550855561 ,70,2755139287257
33.1516109 ,Left ,57,6244288113224 ,47,234873972175 ,70,2580331967346
33.1666202 ,Left ,57,5279198636901 ,47,2549875838933 ,70,2093724796491
33.1966441 ,Left ,57,5207815091908 ,47,3042352997634 ,70,1845755181639
33.218919 ,Left ,57,5800502021469 ,47,3285416476316 ,70,1948208555887
33.2340059 ,Left ,57,6320933433951 ,47,3259350003876 ,70,2043198968267
33.2638522 ,Left ,57,6768566704514 ,47,312021351964 ,70,2213467226521
33.2791386 ,Left ,57,7337560061223 ,47,2818895411524 ,70,2469324534796
33.2942269 ,Left ,57,8113662671228 ,47,2715081858296 ,70,2650279283721
33.3091445 ,Left ,57,847284969221 ,47,23223313266 ,70,274016100516
33.3314615 ,Left ,57,8769381522086 ,47,1968490231061 ,70,2932815927535
33.3465038 ,Left ,57,9025361738639 ,47,1886912896676 ,70,3043837536449
33.3691998 ,Left ,57,8792402204198 ,47,1961484036455 ,70,3213772501129
33.3918236 ,Left ,57,8695933276239 ,47,2083049454106 ,70,3381300218667
33.4064726 ,Left ,57,883565498695 ,47,2046606128249 ,70,3539125429315
33.4288601 ,Left ,57,9284656973061 ,47,1971655466527 ,70,3724227467173
33.4515241 ,Left ,57,9357175362955 ,47,1726612775185 ,70,3940601470668
33.4666093 ,Left ,57,9668311015947 ,47,1581919283581 ,70,4276869984968
33.4888707 ,Left ,57,9796309813266 ,47,1462355625712 ,70,464964837746
33.5115858 ,Left ,57,9531838422951 ,47,1553514444046 ,70,5151969132526
33.5268726 ,Left ,57,9561059838575 ,47,1776154608639 ,70,5557351910295
33.5492042 ,Left ,57,933208060445 ,47,1860284945016 ,70,5935883167407
33.5718628 ,Left ,57,9054830716085 ,47,2010783982331 ,70,6372239714761
33.5868789 ,Left ,57,8989044347057 ,47,2090375033133 ,70,6661250181635
33.6092649 ,Left ,57,894706248637 ,47,2131374532978 ,70,6946987693186
33.631639 ,Left ,57,8814723562625 ,47,2231377494292 ,70,7182209645835
33.6465402 ,Left ,57,8610716759963 ,47,2305337324973 ,70,7381865890416
33.6689783 ,Left ,57,8551910804103 ,47,2272484962544 ,70,7549106972496
33.6915882 ,Left ,57,8520777818414 ,47,2179013060714 ,70,7682157906707
33.7065208 ,Left ,57,855321948509 ,47,2029894764703 ,70,7837639505789
33.7288913 ,Left ,57,8310721206483 ,47,1927566388684 ,70,7973761974548
33.7515136 ,Left ,57,8098076564976 ,47,1883929246924 ,70,7993564253356
33.7739098 ,Left ,57,79115142805 ,47,193377548619 ,70,8060961519836
33.7890251 ,Left ,57,7789224158788 ,47,2122403116855 ,70,8237385708782
33.8115697 ,Left ,57,7874208658005 ,47,2381304000562 ,70,8397951754132
33.8346774 ,Left ,57,7895175486072 ,47,2548236459159 ,70,8611908024136
33.8497976 ,Left ,57,7977528035863 ,47,2635200175318 ,70,8765665105547
33.8722638 ,Left ,57,8078054823053 ,47,2692414820744 ,70,8813271190341
33.8948121 ,Left ,57,8083600287544 ,47,2665615607297 ,70,8809345189649
33.9095764 ,Left ,57,82017316963 ,47,2567485143984 ,70,8675570905157
33.9315845 ,Left ,57,7984307153894 ,47,2350292778708 ,70,8454383124583
33.9541116 ,Left ,57,7582926544011 ,47,2065211545672 ,70,8387025453151
33.9690701 ,Left ,57,7233091065064 ,47,1732747375974 ,70,8467714762838
33.9918108 ,Left ,57,7078043144636 ,47,1479231933056 ,70,8562158925545
34.0139054 ,Left ,57,7066041296075 ,47,146435370873 ,70,8558002872125
34.0289632 ,Left ,57,7353379765222 ,47,1338042528917 ,70,8256186411332
34.0514842 ,Left ,57,7323612356559 ,47,1179965432997 ,70,8121796184614
34.0740546 ,Left ,57,6775632608533 ,47,1177255448191 ,70,8606002546794
34.089123 ,Left ,57,6614548032025 ,47,1376606098912 ,70,9089662003977
34.1116314 ,Left ,57,6245980127968 ,47,2129253915042 ,70,8955101861696
34.1341286 ,Left ,57,7165500070339 ,47,2699831763232 ,70,8665146494579
34.1491377 ,Left ,57,8750782394295 ,47,2529666245528 ,70,8778941259433
34.1715861 ,Left ,58,0088989621403 ,47,201872798952 ,70,9216436093862
34.1940059 ,Left ,58,0211310461476 ,47,1558063280449 ,70,9272121336772
34.2090794 ,Left ,57,930865220611 ,47,1600134385936 ,70,8767454801303
34.2314398 ,Left ,57,7820493124893 ,47,1603997380411 ,70,7837188935134
34.2541684 ,Left ,57,6839275126597 ,47,1284309102107 ,70,7138785496966
34.2690374 ,Left ,57,5807456289679 ,47,0602623732615 ,70,653324438138
34.2917089 ,Left ,57,5724594298336 ,47,0111143633204 ,70,6003971178728
34.3142451 ,Left ,57,5670463407578 ,47,0400484984721 ,70,5845287969419
34.3292446 ,Left ,57,66191869072 ,47,0737689124159 ,70,6173276351087
34.3518725 ,Left ,57,7760597009798 ,47,064017795028 ,70,6780145590796
34.3741416 ,Left ,57,8912213423176 ,47,0319816051191 ,70,7091171807464
34.3891968 ,Left ,57,8538956371049 ,47,0261568124598 ,70,6864581993947
34.411563 ,Left ,57,6913392915725 ,47,0313695550058 ,70,6406704806075
34.4339392 ,Left ,57,6196846597395 ,47,0492052815381 ,70,6089439379338
34.4564771 ,Left ,57,5895362226907 ,47,1219582325078 ,70,608808575099
34.4715296 ,Left ,57,5526424743302 ,47,2165925089605 ,70,6091714922807
34.4941933 ,Left ,57,608922510599 ,47,3308208561894 ,70,6228165077117
34.516422 ,Left ,57,7121056501083 ,47,3879866128589 ,70,6389575944855
34.5314252 ,Left ,57,8062322464724 ,47,3842900727458 ,70,6586873757284
34.5538353 ,Left ,57,7865813277268 ,47,4035456465007 ,70,6524328582672
34.5839052 ,Left ,57,6707752417792 ,47,4678803559957 ,70,6264392955359
34.5989533 ,Left ,57,5380462649413 ,47,4761892389709 ,70,6649245810793
34.6213961 ,Left ,57,4985585081517 ,47,4403519857504 ,70,7388104057947
34.6438995 ,Left ,57,5277862158269 ,47,4580085394793 ,70,7449917808484
34.6662921 ,Left ,57,6118174856895 ,47,5301606163366 ,70,7110853641419
34.70422 ,Left ,57,5200759615566 ,47,6506094459297 ,70,6087648573905
34.7266243 ,Left ,57,3814597422845 ,47,6668042404276 ,70,6272717923617
34.7639515 ,Left ,57,3273215282576 ,47,8137428938169 ,70,6127676321316
34.7865084 ,Left ,57,4709763584106 ,47,9187619056279 ,70,557681229408
34.8240207 ,Left ,57,8572930657147 ,47,8292297059145 ,70,6268499293084
34.8468574 ,Left ,57,8757648236176 ,47,7343680519702 ,70,648399516611
34.8838975 ,Left ,57,7436539558274 ,47,5758730193405 ,70,6014078846663
34.9064071 ,Left ,57,745558264963 ,47,5124234196629 ,70,5614451457091
34.9441876 ,Left ,57,7605702109879 ,47,4617712234898 ,70,4131390400492
34.9666462 ,Left ,57,8225145123766 ,47,4691525291387 ,70,3245997157107
34.9820883 ,Left ,57,8705873548313 ,47,5024910549887 ,70,2604187502854
35.0046359 ,Left ,57,8724276073568 ,47,5470885503372 ,70,2135132976121
35.0269648 ,Left ,57,8558724056613 ,47,5742536710578 ,70,1817481470799
35.041785 ,Left ,57,8359691777872 ,47,6068690017591 ,70,178218321073
35.0641239 ,Left ,57,7965562714233 ,47,6574573304808 ,70,1739146120066
35.0866021 ,Left ,57,7172087436599 ,47,7132172218156 ,70,118051600757
35.1240165 ,Left ,57,6265217313878 ,47,7496117794603 ,69,9897611856617
35.1540401 ,Left ,57,5666168863694 ,47,7384876013323 ,69,9509492496196
35.2068324 ,Left ,57,3536308104608 ,47,652964291016 ,69,9083564462244
35.2440545 ,Left ,57,3718240339084 ,47,6991870279016 ,69,8610833488927
35.2668155 ,Left ,57,5454317655769 ,47,6697657140638 ,69,8556395496448
35.3043075 ,Left ,57,7876850988313 ,47,4563534320061 ,69,9116182101025
35.3268373 ,Left ,57,7715722050807 ,47,378345188471 ,69,9025799375661
35.364326 ,Left ,57,5774583472624 ,47,4000190368125 ,69,9455985096422
35.3863418 ,Left ,57,6021534204155 ,47,4160550914456 ,69,9533914135429
35.4238443 ,Left ,57,7012699680524 ,47,4061030640963 ,69,8580334733775
35.4470014 ,Left ,57,6947729789665 ,47,3699457287145 ,69,8732666764428
35.4845264 ,Left ,57,5626995462697 ,47,3643766160414 ,69,8975389061455
35.507032 ,Left ,57,5734279745579 ,47,3708756056444 ,69,8821838143282
35.5445439 ,Left ,57,7681523584794 ,47,2503105416918 ,69,9532112285589
35.5668766 ,Left ,57,7959373350645 ,47,1817292601689 ,69,9908947899341
35.6045015 ,Left ,57,7977443091038 ,47,1359444580087 ,70,0633839492074
35.6266548 ,Left ,57,7777842338045 ,47,1128451370021 ,70,0824674950707
35.6640184 ,Left ,57,8078847050721 ,47,0750867151981 ,70,1798044522473
35.686685 ,Left ,57,847568700793 ,47,0742648698617 ,70,2291829984677
35.7245269 ,Left ,57,8314367396572 ,47,1064009578441 ,70,2970441766914
35.7470095 ,Left ,57,8276688183882 ,47,1245913830851 ,70,3283524265854
35.7846845 ,Left ,57,8275159888934 ,47,1505659261017 ,70,3942198473883
35.8075098 ,Left ,57,8623961975256 ,47,1654079827008 ,70,428658025677
35.8443421 ,Left ,57,869790508682 ,47,2011542736819 ,70,4692642932568
35.8666888 ,Left ,57,8618413145145 ,47,2274170592525 ,70,4760230495051
35.9044492 ,Left ,57,878020352383 ,47,2403347942115 ,70,4903969612528
35.9272242 ,Left ,57,9079021981566 ,47,2389112319354 ,70,4932137637497
35.9646969 ,Left ,57,929924804403 ,47,2352610319999 ,70,5077807280897
35.9872471 ,Left ,57,8896165715145 ,47,2386322953853 ,70,4912671760084
36.0242794 ,Left ,57,8407015941731 ,47,2410684166661 ,70,4689086015754
36.0468074 ,Left ,57,8235002133103 ,47,238796744055 ,70,4690657450075
36.0843381 ,Left ,57,7821326658058 ,47,2205508726606 ,70,4947869403072
36.1217047 ,Left ,57,7197363932339 ,47,1697765607005 ,70,5557348027254
36.1443509 ,Left ,57,7041669747453 ,47,1724539386175 ,70,5853750051627
36.1816656 ,Left ,57,7119223803997 ,47,2219404070088 ,70,5748214631241
36.2043272 ,Left ,57,6874847401651 ,47,2390719481172 ,70,5625774910187
36.2417888 ,Left ,57,665705701659 ,47,2927862471086 ,70,5807312141526
36.2642743 ,Left ,57,7120580062603 ,47,2707139132028 ,70,5942342670416
36.2867796 ,Left ,57,8038787493101 ,47,2249788852818 ,70,6257359709457
36.3167273 ,Left ,57,9082494314116 ,47,1308320807147 ,70,6779315916363
36.3467579 ,Left ,57,869543666496 ,47,1200200844353 ,70,6563901207357
36.3843552 ,Left ,57,8066327788672 ,47,0977109065145 ,70,5511830837266
36.4218082 ,Left ,57,732369470744 ,47,0837528803962 ,70,3651214239422
36.4443307 ,Left ,57,7095005382814 ,47,0346239164089 ,70,3413955177695
36.4592689 ,Left ,57,6554501117304 ,47,0180173808849 ,70,389249586815
36.4816891 ,Left ,57,6846205632839 ,47,0457261028667 ,70,4533312970697
36.4967477 ,Left ,57,7816690863108 ,47,0644724344726 ,70,4964683574672
36.5191478 ,Left ,57,925104144534 ,47,0590502578218 ,70,5120670642767
36.5417727 ,Left ,57,9547369698039 ,47,0673963511545 ,70,4629824695119
36.5566186 ,Left ,57,837493255777 ,47,1149703054379 ,70,3731796501782
36.5793501 ,Left ,57,7307361986704 ,47,1189534697888 ,70,3434518320726
36.6017337 ,Left ,57,7226341193676 ,47,106791834697 ,70,3786976152469
36.6167144 ,Left ,57,7028341105537 ,47,1315013977845 ,70,4348786752071
36.6392244 ,Left ,57,7199218888879 ,47,1895657811791 ,70,4598071922786
36.6617207 ,Left ,57,8028874876916 ,47,2710698926016 ,70,4323476211605
36.6768118 ,Left ,57,9255120610617 ,47,3091404537199 ,70,4091602756939
36.6992636 ,Left ,57,993512107462 ,47,323610088503 ,70,3963827985327
36.7218274 ,Left ,57,9153851291942 ,47,378417673156 ,70,3858842055922
36.7365786 ,Left ,57,7852852901968 ,47,4135035840824 ,70,4294797947073
36.7592872 ,Left ,57,7110144843296 ,47,4211862614759 ,70,4918746909254
36.781409 ,Left ,57,7097132513357 ,47,3930953545202 ,70,5069355270873
36.7966186 ,Left ,57,7163348269214 ,47,3200249445172 ,70,4785970977868
36.819146 ,Left ,57,705965681118 ,47,2675745436093 ,70,4575552918839
36.841427 ,Left ,57,6257283873694 ,47,2608937289027 ,70,4688031411702
36.8566774 ,Left ,57,5071815546085 ,47,3109105764824 ,70,4686346211116
36.8798484 ,Left ,57,4879419834082 ,47,409337684175 ,70,4363105510831
36.9022523 ,Left ,57,6411134333681 ,47,4837169289123 ,70,4276131191831
36.917201 ,Left ,57,8940260900889 ,47,4739984792073 ,70,4556661151717
36.9397336 ,Left ,58,0786155152211 ,47,4294201526549 ,70,5059891169727
36.9618632 ,Left ,58,0997680658749 ,47,371242865466 ,70,5301005518714
36.9766297 ,Left ,57,9963968946787 ,47,3388401621113 ,70,5530544454034
36.9993016 ,Left ,57,9006803270254 ,47,3188674743206 ,70,5641465591602
37.0217135 ,Left ,57,8572265292055 ,47,2816017107365 ,70,5600998254221
37.0368855 ,Left ,57,858049192224 ,47,2429717866023 ,70,547845358738
37.059313 ,Left ,57,9100680682597 ,47,2227178866938 ,70,5312385437762
37.0972557 ,Left ,57,9801293079418 ,47,2055447031388 ,70,5125333945401
37.1121042 ,Left ,58,0383541190896 ,47,2060393130037 ,70,5033965346976
37.1343193 ,Left ,58,0474151546839 ,47,2178425436682 ,70,5066497830128
37.1568215 ,Left ,58,0438908906346 ,47,298940811694 ,70,4864350811825
37.1794014 ,Left ,58,0432078428404 ,47,3579590612512 ,70,4570045222641
37.2017088 ,Left ,58,0759880289312 ,47,4063759746933 ,70,4296239567304
37.2168269 ,Left ,58,1161660460584 ,47,4421888753496 ,70,4159624014953
37.239352 ,Left ,58,1266915330151 ,47,4760930497422 ,70,4011634202154
37.2618075 ,Left ,58,0715215326902 ,47,5138656056781 ,70,3668347988608
37.2766616 ,Left ,58,0012821669931 ,47,5605622185891 ,70,3222806927835
37.299162 ,Left ,57,9457419656409 ,47,5811296685813 ,70,2615214579581
37.3214809 ,Left ,57,8804666911758 ,47,5928834090708 ,70,2134325735904
37.336643 ,Left ,57,8004413739229 ,47,611044743724 ,70,1475411737915
37.359037 ,Left ,57,7214814725241 ,47,6326296074945 ,70,0901703846251
37.3815663 ,Left ,57,6783515732701 ,47,644997673396 ,70,0252667602055
37.4043423 ,Left ,57,6105839295614 ,47,632870014116 ,69,9677742337294
37.4191008 ,Left ,57,500775282084 ,47,6010951515557 ,69,9505424491605
37.4418618 ,Left ,57,4253973954214 ,47,5922328039371 ,69,9615639394452
37.4568982 ,Left ,57,4224651273434 ,47,5976545095499 ,69,9423234484809
37.4791912 ,Left ,57,5504490784022 ,47,591960637718 ,69,9339567522291
37.5016614 ,Left ,57,7072565926341 ,47,4928350631298 ,69,9531872519158
37.5243756 ,Left ,57,8438267478415 ,47,3118619659979 ,70,0178655035963
37.538852 ,Left ,57,8566115638065 ,47,1238810285222 ,70,0263192658953
37.562265 ,Left ,57,7399639369366 ,46,9767641109039 ,69,9881754268029
37.5848268 ,Left ,57,609719960015 ,46,8569907687532 ,69,99897347244
37.599508 ,Left ,57,5524660402049 ,46,7828809822361 ,70,0753651974381
37.621626 ,Left ,57,6142992870452 ,46,7795721693729 ,70,1506526469146
37.6440794 ,Left ,57,7089895654023 ,46,8258839895599 ,70,1842361941377
37.6590887 ,Left ,57,8063477847125 ,46,8953312750378 ,70,1694450383757
37.6820571 ,Left ,57,8210646323048 ,46,9539472237976 ,70,1737287044212
37.7045195 ,Left ,57,6870070568078 ,47,0097209693832 ,70,1821339754869
37.7198949 ,Left ,57,4080810576034 ,47,1015886392417 ,70,1110215373799
37.7421496 ,Left ,57,2089366074669 ,47,2424992884542 ,70,0079376779854
37.7645359 ,Left ,56,9765044566397 ,47,3558269540579 ,69,9706032892426
37.7792331 ,Left ,56,7488494760111 ,47,4489112308376 ,70,0379323576824
37.8015433 ,Left ,56,7102308779159 ,47,5273195365565 ,70,0973962842421
37.8239717 ,Left ,56,7359114855801 ,47,5595166523626 ,70,0970179467091
37.8390687 ,Left ,56,776899845695 ,47,5547405569876 ,70,0919461714729
37.8615176 ,Left ,56,8362737946366 ,47,550784547518 ,70,0887046242719
37.8841437 ,Left ,56,85747062725 ,47,5678446520202 ,70,075727742115
37.8989642 ,Left ,56,8989329435852 ,47,5872550126248 ,70,0726939754985
37.9216272 ,Left ,56,977051681816 ,47,5589990247595 ,70,0546940857398
37.9439153 ,Left ,57,0827346285327 ,47,5120060293739 ,70,0483242167178
37.9590416 ,Left ,57,2401237067622 ,47,4539320967075 ,70,0598875671563
