timestamp,event,roll,pitch,yaw
0.0169088 ,Left ,56.246017285107 ,41.4076313447507 ,58.6478330512198
0.0543732 ,Left ,56.2265433355197 ,41.3915669938816 ,58.652886030395
0.0770476 ,Left ,56.2113868817274 ,41.3890348333815 ,58.6576559813968
0.1234415 ,Left ,56.2085159417921 ,41.3906208338479 ,58.6629630549698
0.1447956 ,Left ,56.2199884348202 ,41.3931616950604 ,58.6628990654115
0.1745162 ,Left ,56.2526552308297 ,41.4005677963325 ,58.6582094275126
0.1970915 ,Left ,56.2546811042874 ,41.3978478654941 ,58.6578037336589
0.2345664 ,Left ,56.2499270861211 ,41.4021714969526 ,58.6552684129552
0.2572923 ,Left ,56.2382394340219 ,41.4085582363752 ,58.6539050052271
0.2944418 ,Left ,56.2133310320208 ,41.4190636510943 ,58.6527289093173
0.3167623 ,Left ,56.196621463134 ,41.42624647895 ,58.6545909036541
0.3696115 ,Left ,56.1943138534431 ,41.4269336010785 ,58.6549810330897
0.39179 ,Left ,56.1989554017794 ,41.4305194996889 ,58.6591347146698
0.4164434 ,Left ,56.1982725511857 ,41.4328836357962 ,58.6665051015178
0.4368471 ,Left ,56.1974895916753 ,41.4362675337644 ,58.6708385230073
0.4743115 ,Left ,56.199796504781 ,41.4355796855979 ,58.6704495975697
0.5020626 ,Left ,56.199796504781 ,41.4355796855979 ,58.6704495975697
0.5344474 ,Left ,56.199796504781 ,41.4355796855979 ,58.6704495975697
0.556787 ,Left ,56.199796504781 ,41.4355796855979 ,58.6704495975697
0.5944433 ,Left ,56.1974895916753 ,41.4362675337644 ,58.6708385230073
0.6170149 ,Left ,56.1974895916753 ,41.4362675337644 ,58.6708385230073
0.6621067 ,Left ,56.1974895916753 ,41.4362675337644 ,58.6708385230073
0.6844317 ,Left ,56.1974895916753 ,41.4362675337644 ,58.6708385230073
0.714606 ,Left ,56.1974895916753 ,41.4362675337644 ,58.6708385230073
0.7369127 ,Left ,56.1974895916753 ,41.4362675337644 ,58.6708385230073
0.7744004 ,Left ,56.1974895916753 ,41.4362675337644 ,58.6708385230073
0.7969347 ,Left ,56.1974895916753 ,41.4362675337644 ,58.6708385230073
0.8344535 ,Left ,56.199796504781 ,41.4355796855979 ,58.6704495975697
0.8567701 ,Left ,56.199796504781 ,41.4355796855979 ,58.6704495975697
0.8945096 ,Left ,56.1974895916753 ,41.4362675337644 ,58.6708385230073
0.9170113 ,Left ,56.2037584724152 ,41.4375977467105 ,58.6657642322355
0.9545238 ,Left ,56.2146980923599 ,41.4420680355428 ,58.6593537744546
0.976927 ,Left ,56.2146980923599 ,41.4420680355428 ,58.6593537744546
1.0146322 ,Left ,56.2146980923599 ,41.4420680355428 ,58.6593537744546
1.0372348 ,Left ,56.212680764059 ,41.4447842787884 ,58.6597563196941
1.0743048 ,Left ,56.2136236940697 ,41.4448960978734 ,58.6578967530683
1.0968977 ,Left ,56.220808025092 ,41.4384313571969 ,58.6575856500708
1.1346968 ,Left ,56.2462112362169 ,41.4225128607024 ,58.6544222251136
1.1569355 ,Left ,56.2505231945644 ,41.4126700380892 ,58.6544624678858
1.1944159 ,Left ,56.2453683100722 ,41.3911300215385 ,58.654984483535
1.2243831 ,Left ,56.2387830341185 ,41.3828070818222 ,58.6551122459202
1.2696546 ,Left ,56.2175576464276 ,41.3714931275078 ,58.660615676851
1.2845463 ,Left ,56.2171324132374 ,41.3709244509471 ,58.6630692678701
1.3371367 ,Left ,56.2081440016927 ,41.3473559592974 ,58.6601021515652
1.3753668 ,Left ,56.1873303335803 ,41.3365995421417 ,58.6632118840069
1.3970463 ,Left ,56.185796078891 ,41.3274530710847 ,58.6601353279824
1.4349657 ,Left ,56.2068455640475 ,41.3342843194041 ,58.6325281142808
1.4569209 ,Left ,56.2466519671523 ,41.3561158605388 ,58.5965092801722
1.494458 ,Left ,56.259775309748 ,41.5019892450278 ,58.515641635202
1.5171281 ,Left ,56.1873841694912 ,41.6373742270231 ,58.5203512486501
1.5546309 ,Left ,55.7845424787517 ,41.9994954287762 ,58.6735319227355
1.5770069 ,Left ,55.4824776482321 ,42.2192084007026 ,58.8044932029551
1.6153234 ,Left ,54.93197479499 ,42.6571680325931 ,59.1172090923563
1.6369274 ,Left ,54.7985873019391 ,42.869682876636 ,59.2306889842441
1.6744203 ,Left ,54.4344117587335 ,43.3703487504101 ,59.4097073565462
1.6970551 ,Left ,53.8946804810382 ,43.5882500943489 ,59.5962181669758
1.734509 ,Left ,52.4914759682656 ,44.2544614021833 ,60.0958271122792
1.7496493 ,Left ,51.7630702846717 ,44.6323049787629 ,60.3703905253194
1.7721298 ,Left ,51.0374591651829 ,45.0340141968711 ,60.6533752760848
1.7871012 ,Left ,50.3360146702788 ,45.4655386173026 ,60.984027433313
1.8095609 ,Left ,49.6690115406798 ,45.9127824120146 ,61.3490903966622
1.832174 ,Left ,49.0903075876647 ,46.3426671227195 ,61.7534768238727
1.8470836 ,Left ,48.5334216715193 ,46.7242189673803 ,62.172275003659
1.8703531 ,Left ,48.0484598535646 ,47.0484578679802 ,62.6427871033757
1.892051 ,Left ,47.705814508118 ,47.3375564119274 ,63.1808465357992
1.9071158 ,Left ,47.508636799148 ,47.5861631726405 ,63.7678727324921
1.9295937 ,Left ,47.2992868131209 ,47.7754003263211 ,64.407675000013
1.9594069 ,Left ,47.045177636663 ,47.901225357605 ,65.043442685625
1.9745761 ,Left ,46.7739548128287 ,47.9537749115764 ,65.6494720068034
1.9971116 ,Left ,46.5046475493822 ,47.9433609445449 ,66.187863051352
2.0120949 ,Left ,46.2690943412921 ,47.8880478477814 ,66.6868265733143
2.0271689 ,Left ,46.0672343163568 ,47.8148370134163 ,67.097836457958
2.0495819 ,Left ,45.8840807782449 ,47.7598119525818 ,67.4368084610195
2.0731969 ,Left ,45.7222881928911 ,47.7297126215155 ,67.6846104335862
2.087081 ,Left ,45.6456236628254 ,47.7046658614203 ,67.8092784239026
2.1096237 ,Left ,45.6230071370244 ,47.6329135390472 ,67.839691266246
2.1320869 ,Left ,45.6269902658442 ,47.5484624448489 ,67.841070890907
2.1469311 ,Left ,45.6272594962482 ,47.4829168506503 ,67.8669487694168
2.1706063 ,Left ,45.6089249388121 ,47.4342773073844 ,67.9021827877369
2.1919525 ,Left ,45.5884033142894 ,47.3992989172083 ,67.9192463045733
2.2069723 ,Left ,45.5853109733668 ,47.3754135396437 ,67.9425652934437
2.2295722 ,Left ,45.6418935143414 ,47.340911683168 ,67.9837163835749
2.2520968 ,Left ,45.6975064869682 ,47.2820868825576 ,68.0061890498489
2.2671088 ,Left ,45.7429115883032 ,47.1953447982877 ,68.0100122629373
2.2896424 ,Left ,45.7523710582024 ,47.10779445831 ,68.0180565899572
2.3120957 ,Left ,45.7095561474757 ,47.0525216914612 ,68.0200393328856
2.3345771 ,Left ,45.6946198237281 ,47.0075721714155 ,68.0200420682787
2.3570989 ,Left ,45.7380766716526 ,46.9592675141414 ,68.0166322075314
2.3873042 ,Left ,45.8061962099111 ,46.9007080940745 ,67.9950026382244
2.409659 ,Left ,45.802919082862 ,46.9133922699916 ,67.9817414071822
2.4321172 ,Left ,45.8006278747733 ,46.9387813738399 ,67.9565301141906
2.4471709 ,Left ,45.8264909618385 ,46.9585289577809 ,67.9343339221692
2.4694921 ,Left ,45.8441516894103 ,46.966378935459 ,67.9019325091186
2.4923988 ,Left ,45.8147420879717 ,46.9763586257886 ,67.8820172802865
2.5072371 ,Left ,45.777926552999 ,46.9804158025199 ,67.8833122230817
2.5296954 ,Left ,45.7221815874412 ,46.9831708262241 ,67.8949838855883
2.5521952 ,Left ,45.6698486403 ,46.9856134077851 ,67.8992181253052
2.5747614 ,Left ,45.6745676686902 ,46.9880095551441 ,67.9071182574758
2.5900056 ,Left ,45.6750908703748 ,46.9906516844953 ,67.9133161119962
2.6122657 ,Left ,45.6236007395829 ,47.0002450576013 ,67.9252855570734
2.6346951 ,Left ,45.5690084853306 ,47.0131471994861 ,67.9281780049086
2.6495324 ,Left ,45.537737385223 ,47.0289996289953 ,67.9146732575679
2.6719611 ,Left ,45.5015328119976 ,47.0465763352821 ,67.883044978562
2.6945099 ,Left ,45.4827908337047 ,47.0578222012942 ,67.8469772067751
2.7095447 ,Left ,45.4736464993035 ,47.0627813661324 ,67.8131586018837
2.7321895 ,Left ,45.4421774706226 ,47.0721813950599 ,67.7777086738669
2.7545594 ,Left ,45.3922167192648 ,47.0788581291419 ,67.7464460176187
2.7695691 ,Left ,45.3641931257925 ,47.0802848791934 ,67.7283073141287
2.7921312 ,Left ,45.3646176561592 ,47.0750512556414 ,67.7196674485585
2.8145588 ,Left ,45.3584767488056 ,47.0680717085971 ,67.7290109603226
2.8297994 ,Left ,45.3293606774764 ,47.0588019939917 ,67.7434171606353
2.8521232 ,Left ,45.3212128121105 ,47.0483539896425 ,67.7514747001707
2.882049 ,Left ,45.3207114547213 ,47.0282219881589 ,67.760412984989
2.8970689 ,Left ,45.3236410931472 ,47.0039969958106 ,67.7742261519146
2.9196124 ,Left ,45.3405929364313 ,46.9814258395886 ,67.7915168314294
2.9495897 ,Left ,45.3974880183246 ,46.9257298634943 ,67.829565127975
2.9721148 ,Left ,45.4655607623296 ,46.9079011219167 ,67.8364978472036
2.9946145 ,Left ,45.4973897923352 ,46.8994727325796 ,67.860028867129
3.0095939 ,Left ,45.4877022683621 ,46.9028282643922 ,67.8866651787346
3.0321821 ,Left ,45.4808900931179 ,46.9106050495085 ,67.9001478531985
3.0545347 ,Left ,45.4800347727766 ,46.9308788551454 ,67.9124497926438
3.0697619 ,Left ,45.4935117916051 ,46.9306108778287 ,67.9262439414979
3.0919733 ,Left ,45.4650023933802 ,46.9333198487232 ,67.9147873864555
3.1219022 ,Left ,45.444506720389 ,46.9052166828273 ,67.9034524693192
3.137045 ,Left ,45.47844931005 ,46.8730567658207 ,67.9080001544903
3.1594363 ,Left ,45.5075733438586 ,46.8413752253168 ,67.9159906093067
3.1744788 ,Left ,45.4949753609075 ,46.8254723016377 ,67.9172291987701
3.189572 ,Left ,45.4251195197421 ,46.8503575980625 ,67.9182486457612
3.2121519 ,Left ,45.3359673662177 ,46.8899947128203 ,67.9245428315952
3.2345917 ,Left ,45.2815646604934 ,46.9184829538001 ,67.91739012459
3.249649 ,Left ,45.2796621690697 ,46.9166238465724 ,67.9088322001139
3.2720846 ,Left ,45.3090247911412 ,46.8949837668055 ,67.901115209981
3.294511 ,Left ,45.330693382316 ,46.8747543850218 ,67.9009650113063
3.3096267 ,Left ,45.3160990773685 ,46.8640959403233 ,67.9174993417817
3.3320774 ,Left ,45.2846929891521 ,46.860287133506 ,67.9246179782317
3.3547019 ,Left ,45.2814694000793 ,46.8747571657943 ,67.9289008502092
3.3696307 ,Left ,45.2918409692027 ,46.8973748348635 ,67.9384109555715
3.3920744 ,Left ,45.2579269711047 ,46.9524309945334 ,67.9495970996951
3.41653 ,Left ,45.1728975348481 ,47.0152905438181 ,67.9754018972144
3.4321191 ,Left ,45.1227391340319 ,47.0734459113472 ,68.0097617403513
3.4522625 ,Left ,45.1583444270926 ,47.111111256126 ,68.0487906309155
3.4745622 ,Left ,45.2232393251475 ,47.1405366165196 ,68.0882857960106
3.4896687 ,Left ,45.2820253884481 ,47.172119376219 ,68.145583616866
3.5120772 ,Left ,45.3033885835845 ,47.2103406299367 ,68.2148942703999
3.5344102 ,Left ,45.3095007470849 ,47.2295678955334 ,68.2892744072513
3.5570215 ,Left ,45.3038412127324 ,47.2254396751018 ,68.3562021751487
3.5720855 ,Left ,45.3126353566992 ,47.2067096272567 ,68.4189809877924
3.5944865 ,Left ,45.3598586098435 ,47.170596059218 ,68.4645361821426
3.6173184 ,Left ,45.3750155548754 ,47.1421825373578 ,68.4955245749544
3.6350288 ,Left ,45.3268243134804 ,47.1380702685338 ,68.5264070965636
3.6545152 ,Left ,45.296380628299 ,47.1679788661848 ,68.5329445914858
3.6768776 ,Left ,45.3024576366787 ,47.1895848127172 ,68.5274843490459
3.692135 ,Left ,45.3268733390571 ,47.1904378550845 ,68.4992215603233
3.7145814 ,Left ,45.380012597042 ,47.1710368889361 ,68.4585971941815
3.7369425 ,Left ,45.4138897466337 ,47.1735425527935 ,68.4096968894624
3.7519861 ,Left ,45.4206374597308 ,47.1695234326776 ,68.3578533306066
3.7755868 ,Left ,45.3861170486267 ,47.1690636799769 ,68.315205620571
3.7969076 ,Left ,45.3605731606221 ,47.1810573128716 ,68.2942395607239
3.8120342 ,Left ,45.3461993623853 ,47.1863598726493 ,68.2771387514051
3.8344571 ,Left ,45.3289891815464 ,47.1910308363809 ,68.2607840531706
3.8572665 ,Left ,45.3233515683373 ,47.193522928804 ,68.2497433951893
3.8725769 ,Left ,45.3352018808156 ,47.1837550698397 ,68.2519247202797
3.8946082 ,Left ,45.3626574465939 ,47.1615501918826 ,68.2513395234209
3.9171743 ,Left ,45.3571754218567 ,47.1406354425428 ,68.2450999133502
3.932061 ,Left ,45.3253222461214 ,47.1226793311928 ,68.2406526394209
3.9543773 ,Left ,45.311217216187 ,47.1078143515182 ,68.239376904618
3.9769714 ,Left ,45.3331457446975 ,47.0934848717025 ,68.2334667336856
3.9994615 ,Left ,45.3508773964162 ,47.0794307616845 ,68.2258606651523
4.0219219 ,Left ,45.3278065553366 ,47.0728558703996 ,68.2268785246798
4.0521754 ,Left ,45.3265395010015 ,47.1013367607074 ,68.2214593822702
4.074854 ,Left ,45.3589949397061 ,47.1152943565032 ,68.2076961730378
4.0973882 ,Left ,45.399970022268 ,47.1282859049272 ,68.1952721665828
4.112036 ,Left ,45.4150729460327 ,47.1482567628667 ,68.1839801267217
4.1345476 ,Left ,45.4179820313058 ,47.164700609156 ,68.175381426366
4.156969 ,Left ,45.4103900824644 ,47.1825502143457 ,68.1664882534505
4.1719145 ,Left ,45.4050177043311 ,47.1990739382916 ,68.1523604978078
4.1946047 ,Left ,45.410352818872 ,47.2109191489974 ,68.1398903027285
4.2170094 ,Left ,45.4269678416135 ,47.2178108745703 ,68.1239682503726
4.2326156 ,Left ,45.4139044642983 ,47.2229149948515 ,68.1110687100027
4.2545119 ,Left ,45.4000375865185 ,47.2308319575606 ,68.1002600636536
4.2846197 ,Left ,45.402392952354 ,47.235044567642 ,68.0900904015642
4.2996736 ,Left ,45.4039003227056 ,47.2307456325222 ,68.0790776167581
4.322293 ,Left ,45.387317543624 ,47.2292159680843 ,68.0752714289124
4.3371064 ,Left ,45.387317543624 ,47.2292159680843 ,68.0752714289124
4.3521219 ,Left ,45.3917385886528 ,47.2234538191708 ,68.0686936834451
4.374628 ,Left ,45.3834975995742 ,47.2167945675713 ,68.0642743299944
4.3972829 ,Left ,45.3790348440712 ,47.2097371790464 ,68.0645532282652
4.4121444 ,Left ,45.3547624697917 ,47.2109350449723 ,68.061447802937
4.4345682 ,Left ,45.3298927273503 ,47.2198827085328 ,68.0640282223023
4.4571289 ,Left ,45.3368451193462 ,47.2253455186063 ,68.0711482633399
4.472102 ,Left ,45.348077782941 ,47.2254815759148 ,68.0738229661382
4.494446 ,Left ,45.3594524039581 ,47.2259120213601 ,68.0760700468759
4.5170341 ,Left ,45.3669205133749 ,47.2286871713419 ,68.083682387265
4.5469526 ,Left ,45.3631800613493 ,47.2246217625245 ,68.0897332255787
4.5695734 ,Left ,45.3600058374494 ,47.2195164142575 ,68.0889820921842
4.5920698 ,Left ,45.3520432417761 ,47.2119645442106 ,68.0803303573662
4.622112 ,Left ,45.3214843861165 ,47.2075849061002 ,68.0797868334058
4.637141 ,Left ,45.3489560041866 ,47.2047764687742 ,68.0847427409705
4.659652 ,Left ,45.3682997755223 ,47.2015649634877 ,68.0820632683153
4.6745404 ,Left ,45.3772021999182 ,47.205841204437 ,68.0865149837042
4.6977504 ,Left ,45.401019756016 ,47.21266142746 ,68.0948947719705
4.719643 ,Left ,45.3932986254987 ,47.2295740358907 ,68.0950211971308
4.7346121 ,Left ,45.3812720968365 ,47.2322780402163 ,68.0944082401355
4.7570622 ,Left ,45.3976112042127 ,47.2221800212543 ,68.0702763454706
4.7795474 ,Left ,45.4399476778885 ,47.1964498742358 ,68.0513867975023
4.7946495 ,Left ,45.4860031140128 ,47.1536628716863 ,68.0285168187249
4.8246093 ,Left ,45.4608209570809 ,47.1228163898963 ,68.0067923299994
4.8470452 ,Left ,45.368690017128 ,47.120543140342 ,68.0217764419502
4.8620474 ,Left ,45.3450417240023 ,47.1216145573283 ,68.053824912553
4.8845925 ,Left ,45.4040870136574 ,47.1148640964738 ,68.074316067624
4.8995105 ,Left ,45.4474916059898 ,47.118274773957 ,68.1028590850424
4.9147478 ,Left ,45.4474825576571 ,47.1407024513439 ,68.1448699455325
4.9371036 ,Left ,45.4173305276872 ,47.160368650999 ,68.1764634904218
4.9597807 ,Left ,45.342832646931 ,47.1904889265517 ,68.19553154445
4.9746454 ,Left ,45.3072435343773 ,47.2197621759655 ,68.2145373398102
4.9971043 ,Left ,45.3280511962244 ,47.2284189189896 ,68.2205887431503
5.0198543 ,Left ,45.3579593021509 ,47.2283309060382 ,68.2222649226093
5.0346758 ,Left ,45.3812081407079 ,47.2323660493304 ,68.2244573969499
5.0571683 ,Left ,45.3921448561972 ,47.2333237900456 ,68.2314395626059
5.083021 ,Left ,45.3888819304046 ,47.2265861610307 ,68.2379904046279
5.0946209 ,Left ,45.3814901619448 ,47.2210297466633 ,68.2338057469273
5.1169809 ,Left ,45.4031173236235 ,47.2143115512881 ,68.2310815195512
5.1397669 ,Left ,45.4385561536904 ,47.2033607758888 ,68.2267345022338
5.1545488 ,Left ,45.4527990365121 ,47.1910968433991 ,68.2198230210811
5.1770693 ,Left ,45.4454101039335 ,47.186282539146 ,68.2173376659516
5.1994704 ,Left ,45.4454101039335 ,47.186282539146 ,68.2173376659516
5.2145475 ,Left ,45.4510495364231 ,47.1800628745568 ,68.2153101948006
5.2371217 ,Left ,45.4602343511452 ,47.1766889292524 ,68.2166603046504
5.2597543 ,Left ,45.4697179551275 ,47.1798908494532 ,68.2143258247949
5.2745908 ,Left ,45.4858589765557 ,47.1931303897166 ,68.2109827126387
5.2971052 ,Left ,45.5183362390389 ,47.2028992708328 ,68.2079068384786
5.3196032 ,Left ,45.5488561198177 ,47.2138391442669 ,68.2075691771983
5.3345717 ,Left ,45.5656930263391 ,47.2292937462152 ,68.208440990444
5.3644903 ,Left ,45.5892548935967 ,47.2452136214411 ,68.212948947443
5.3869266 ,Left ,45.6203701896442 ,47.2611818648831 ,68.2134257269622
5.4169715 ,Left ,45.6449212673406 ,47.2858776809486 ,68.2185395736661
5.4395614 ,Left ,45.6356946141087 ,47.2942899452172 ,68.2233744955116
5.4619792 ,Left ,45.6235654541757 ,47.2974882004138 ,68.2248034695036
5.4770983 ,Left ,45.6110684156871 ,47.2962198839861 ,68.2247044465127
5.4996199 ,Left ,45.6040988667457 ,47.2920713262319 ,68.2361112722034
5.5221918 ,Left ,45.6018716345303 ,47.287364766373 ,68.244144589199
5.5443436 ,Left ,45.5845664962943 ,47.2849715084974 ,68.2547472585381
5.5670184 ,Left ,45.564575255459 ,47.2822648504508 ,68.2656370365713
5.5973113 ,Left ,45.5243591436206 ,47.2787090373863 ,68.2827184320326
5.619469 ,Left ,45.5053863868821 ,47.2848304860395 ,68.2941113030865
5.6426773 ,Left ,45.4919130815309 ,47.2918863988129 ,68.3045206452779
5.6495805 ,Left ,45.4782023405827 ,47.2940463087975 ,68.3112805292518
5.6718449 ,Left ,45.4622303887252 ,47.2953167002603 ,68.3136200804085
5.7095722 ,Left ,45.4603321097876 ,47.3001701116574 ,68.3294207313552
5.7321675 ,Left ,45.4643889493604 ,47.3003143590405 ,68.3333054024315
5.7706181 ,Left ,45.455723547981 ,47.3097599704348 ,68.3517309781234
5.7918436 ,Left ,45.4845269660748 ,47.3132119865942 ,68.3600110820895
5.830147 ,Left ,45.5074191083882 ,47.31251021409 ,68.3865447206174
5.852084 ,Left ,45.5024555350249 ,47.312563983956 ,68.4011494108975
5.8895363 ,Left ,45.5522612829727 ,47.2956961660273 ,68.3863893655922
5.9120645 ,Left ,45.538527814493 ,47.2942480758928 ,68.379984429677
5.9493318 ,Left ,45.4773483332699 ,47.3028399151926 ,68.3747433631524
5.9719769 ,Left ,45.4733675309716 ,47.3005973190616 ,68.3760384607934
6.0093683 ,Left ,45.4692321675423 ,47.2881728529301 ,68.4188126225283
6.0319485 ,Left ,45.4894489841214 ,47.2725357959435 ,68.4440098911833
6.0696041 ,Left ,45.4893534066102 ,47.2150173273343 ,68.4928488372103
6.0920032 ,Left ,45.4882658888774 ,47.1843208716751 ,68.5155737923119
6.1294456 ,Left ,45.6208303372662 ,47.1151886301539 ,68.5496320890894
6.1520918 ,Left ,45.636218928723 ,47.0826970338274 ,68.5394151648242
6.1895621 ,Left ,45.4387782097346 ,47.0518752858077 ,68.5091924656375
6.2119084 ,Left ,45.4589099796975 ,47.025911831207 ,68.4966548848549
6.2498288 ,Left ,45.5410064110016 ,46.9960753687926 ,68.4641623763865
6.2717883 ,Left ,45.5271257633796 ,47.0097035880234 ,68.4615819930392
6.3169666 ,Left ,45.4930771465759 ,47.0277560518726 ,68.4458231943612
6.3321268 ,Left ,45.4413390345542 ,47.0446703887631 ,68.4448553556363
6.3694269 ,Left ,45.4368082696125 ,47.0618490265736 ,68.4420274174147
6.3921123 ,Left ,45.389613511162 ,47.0599647744622 ,68.4255605792735
6.4297892 ,Left ,45.2732093864336 ,47.0498659437957 ,68.4002863844339
6.4521345 ,Left ,45.282698400408 ,47.0329923469247 ,68.3906301854573
6.4894137 ,Left ,45.3477968975585 ,47.0208901617473 ,68.3735524959126
6.5120678 ,Left ,45.3618952777377 ,47.030324522266 ,68.3690405276933
6.5499149 ,Left ,45.3291201715857 ,47.102767720045 ,68.3884284295421
6.5718298 ,Left ,45.2833513421382 ,47.1641535986501 ,68.4007091519013
6.6093539 ,Left ,45.3247517310827 ,47.2891510661934 ,68.4468894878119
6.6323702 ,Left ,45.4061051821159 ,47.3225589881032 ,68.481838907221
6.6696377 ,Left ,45.4055541226998 ,47.3746033174216 ,68.5999175231022
6.6921189 ,Left ,45.4467274476496 ,47.3845991048159 ,68.6706609022565
6.7317119 ,Left ,45.5352939265892 ,47.3489805135616 ,68.7112399613412
6.7522935 ,Left ,45.5486096735587 ,47.3560798083862 ,68.7028887077365
6.797231 ,Left ,45.4743954954295 ,47.4440371424972 ,68.6330190463069
6.8500118 ,Left ,45.5534943247933 ,47.482458751024 ,68.4715174164792
6.8718519 ,Left ,45.5447155458933 ,47.4760313252693 ,68.415891431578
6.9096151 ,Left ,45.5297682895129 ,47.4906633994512 ,68.3410855037013
6.9361542 ,Left ,45.5417164178844 ,47.4801874343844 ,68.2852659980301
6.9693931 ,Left ,45.4893356717241 ,47.463801317518 ,68.201736680987
6.9917977 ,Left ,45.4844202454865 ,47.4402706577527 ,68.1956289956097
7.0292583 ,Left ,45.5526674639085 ,47.3624833032618 ,68.1803198822868
7.0669207 ,Left ,45.5528418441282 ,47.3253360373942 ,68.187392354245
7.1497008 ,Left ,45.6951355954068 ,47.2024737735907 ,68.1653507177452
7.1720444 ,Left ,45.700309423589 ,47.152119835186 ,68.1345051998349
7.2094846 ,Left ,45.4286222485145 ,47.1427701779652 ,68.217323184265
7.2319986 ,Left ,45.4536305245598 ,47.1326509044367 ,68.2616413731084
7.2695676 ,Left ,45.5110956972948 ,47.107730558883 ,68.3166466449847
7.2921522 ,Left ,45.497474233808 ,47.1235003542039 ,68.3464334257227
7.336867 ,Left ,45.3989286860984 ,47.2210160198603 ,68.381899281472
7.3594058 ,Left ,45.4498263038002 ,47.2525408813153 ,68.3825858559974
7.3893549 ,Left ,45.6291642445985 ,47.2516385927867 ,68.3674647331596
7.4119144 ,Left ,45.5714006349691 ,47.2677994755607 ,68.3722539026779
7.4494973 ,Left ,45.4705487942812 ,47.2999966295205 ,68.3767451356206
7.4720245 ,Left ,45.5141401211837 ,47.2925093994061 ,68.3656547090611
7.5094676 ,Left ,45.5660664547383 ,47.2932821886433 ,68.3518284352779
7.5245651 ,Left ,45.5454447054444 ,47.3042765630803 ,68.3508201394452
7.5471546 ,Left ,45.5201012386542 ,47.3225674075377 ,68.3521045791675
7.562072 ,Left ,45.5046338483584 ,47.3441601734015 ,68.3481377211248
7.5847222 ,Left ,45.5225692858279 ,47.3558503999227 ,68.3427044561775
7.614491 ,Left ,45.5478771793906 ,47.3531276349996 ,68.3340866119577
7.6297048 ,Left ,45.5587510700677 ,47.3503636690804 ,68.3280618196119
7.6519215 ,Left ,45.5252542757175 ,47.362358507764 ,68.3243379369402
7.6670408 ,Left ,45.4777100949701 ,47.3854741493876 ,68.323659748171
7.6820911 ,Left ,45.4557913599048 ,47.4019393695643 ,68.324282967918
7.7045091 ,Left ,45.4500633820817 ,47.4153170669603 ,68.3273631910363
7.7269426 ,Left ,45.4499669151322 ,47.4298998838653 ,68.3290536119914
7.7433421 ,Left ,45.4562408025964 ,47.447191945852 ,68.3317736696432
7.764685 ,Left ,45.4504822295132 ,47.4521865940678 ,68.3432565043036
7.7871686 ,Left ,45.3952937223077 ,47.4585583941563 ,68.3634302765748
7.8020945 ,Left ,45.3422340869678 ,47.4603469020501 ,68.3930763561559
7.8245097 ,Left ,45.3164281044716 ,47.4588306779849 ,68.4284549935757
7.8471541 ,Left ,45.3039975507384 ,47.4543681072019 ,68.4687632779756
7.861882 ,Left ,45.3185101114269 ,47.4510698741645 ,68.5065366346723
7.8845667 ,Left ,45.3493017445038 ,47.444104052335 ,68.5446717092925
7.9069893 ,Left ,45.3551444782877 ,47.4431366781993 ,68.5742415332102
7.9220325 ,Left ,45.3399182705301 ,47.4413748867903 ,68.6006683020877
7.9445926 ,Left ,45.3034191545651 ,47.4457246499508 ,68.6254009499835
7.967143 ,Left ,45.2321011613863 ,47.4544932646792 ,68.6503773096557
7.9821174 ,Left ,45.1544986145805 ,47.4653353602538 ,68.678574817434
8.004589 ,Left ,45.0901580910731 ,47.4745370769785 ,68.7047935740795
8.0271422 ,Left ,45.0261010956768 ,47.4764987010648 ,68.7275681397941
8.0420434 ,Left ,44.9860258692564 ,47.4735046719538 ,68.7425788743045
8.0645466 ,Left ,44.9914731225322 ,47.4727712819948 ,68.7489310630142
8.086964 ,Left ,45.0394621592035 ,47.4769824062831 ,68.7460625221977
8.101958 ,Left ,45.0777792469918 ,47.4866028250615 ,68.7396128499359
8.1247829 ,Left ,45.1097229154265 ,47.4915419401558 ,68.7375322776829
8.1471523 ,Left ,45.1230095113822 ,47.4897848510363 ,68.7354446951273
8.1618898 ,Left ,45.1086615477578 ,47.4894583801437 ,68.7359692211113
8.1920285 ,Left ,45.0888984588868 ,47.4906371043461 ,68.7318935391739
8.2145394 ,Left ,45.0956167203676 ,47.4859535837454 ,68.7292725510491
8.2445883 ,Left ,45.1212836638844 ,47.4727531483281 ,68.7203743380752
8.2669253 ,Left ,45.1206218184617 ,47.4663858649751 ,68.726711313146
8.2895216 ,Left ,45.1150975526385 ,47.4618806380082 ,68.7403937438267
8.3044011 ,Left ,45.1287832035313 ,47.4529213376938 ,68.760622349327
8.3269876 ,Left ,45.1532050095396 ,47.4386206578886 ,68.7803928400675
8.3498794 ,Left ,45.1841728527251 ,47.42719387104 ,68.8007174205145
8.364591 ,Left ,45.2362455110106 ,47.4129373744317 ,68.8105124697623
8.3872041 ,Left ,45.3273219621169 ,47.3831533406167 ,68.8072237153158
8.4095608 ,Left ,45.4003197599942 ,47.3709157578508 ,68.7873303732174
8.4319944 ,Left ,45.3428782163346 ,47.3731131637858 ,68.7619688600951
8.4543324 ,Left ,45.2189310621769 ,47.3918559642195 ,68.7240221117176
8.4767763 ,Left ,45.1815994917212 ,47.3762357759493 ,68.677514454169
8.4920474 ,Left ,45.203155833518 ,47.3352901142325 ,68.6283848881415
8.506956 ,Left ,45.2482713707841 ,47.2941507416721 ,68.5766248852261
8.5294693 ,Left ,45.2515902076571 ,47.2753249311434 ,68.5542956485576
8.544563 ,Left ,45.2459873908319 ,47.2727797298115 ,68.5369566815204
8.5670372 ,Left ,45.2240474022232 ,47.2730810660695 ,68.5176931438736
8.5905888 ,Left ,45.1969556683931 ,47.2739248986125 ,68.4895754553464
8.6044397 ,Left ,45.1843767622032 ,47.2777291491297 ,68.4701220007519
8.627054 ,Left ,45.1838958081921 ,47.2804104298173 ,68.4696269150022
8.6494452 ,Left ,45.1838958081921 ,47.2804104298173 ,68.4696269150022
8.6646102 ,Left ,45.1903097379807 ,47.2838505424676 ,68.4722601465767
8.6870289 ,Left ,45.2153926173274 ,47.2774526173152 ,68.4785169033859
8.7168331 ,Left ,45.2521452226526 ,47.2653540782289 ,68.4765834145527
8.7393752 ,Left ,45.2566329583815 ,47.2502912822207 ,68.4742015406946
8.7620456 ,Left ,45.2442801164451 ,47.2465767764099 ,68.4773285767121
8.7768846 ,Left ,45.2114401057604 ,47.2592917533432 ,68.4853000860644
8.7920388 ,Left ,45.1795032833014 ,47.2884252882901 ,68.4967366242028
8.8071806 ,Left ,45.1391022957954 ,47.3304129094606 ,68.5118749800276
8.8298974 ,Left ,45.1037553263409 ,47.3723309320175 ,68.538037384215
8.8445302 ,Left ,45.1203137564559 ,47.3960329535187 ,68.5722276843196
8.8670226 ,Left ,45.1586503653148 ,47.4102145471939 ,68.6068746973097
8.8895194 ,Left ,45.1883436502521 ,47.417934373034 ,68.6397533572202
8.9044569 ,Left ,45.1527280754015 ,47.4271150551748 ,68.6889719758387
8.9270779 ,Left ,45.1699155366661 ,47.435809527534 ,68.7425906451374
8.9570859 ,Left ,45.2126504109859 ,47.4145131882574 ,68.7910940116502
8.9722014 ,Left ,45.2811213228017 ,47.3909734057153 ,68.8187109945479
9.0021206 ,Left ,45.333200130002 ,47.3652798577242 ,68.8380826691335
9.0170531 ,Left ,45.3577373611021 ,47.3598575137598 ,68.8511300977932
9.0326451 ,Left ,45.3218907712785 ,47.3852214931064 ,68.8457226440266
9.0470225 ,Left ,45.2594946323174 ,47.4257839465179 ,68.8085877301548
9.0696196 ,Left ,45.2260471529291 ,47.4704940998966 ,68.7702680613724
9.0844637 ,Left ,45.2819398988897 ,47.4815678823204 ,68.7226863021445
9.1069422 ,Left ,45.3428151144398 ,47.476244598772 ,68.6637332603538
9.1294842 ,Left ,45.3565909054075 ,47.4680504123703 ,68.6205625384151
9.1444114 ,Left ,45.3620571637744 ,47.4722843138368 ,68.5790373960494
9.167074 ,Left ,45.3481167367577 ,47.4658550294091 ,68.5405881892892
9.18947 ,Left ,45.3539619840979 ,47.454897082636 ,68.492775056873
9.2046294 ,Left ,45.3331325071541 ,47.4425980293877 ,68.4450207976026
9.2268673 ,Left ,45.3365178481298 ,47.4329321198971 ,68.4159427483795
9.24965 ,Left ,45.3708244634336 ,47.4139230721669 ,68.4022464815071
9.2794559 ,Left ,45.4016852685717 ,47.3856853368346 ,68.3858188227619
9.2943041 ,Left ,45.3801950373338 ,47.3448364571626 ,68.381194675659
9.332119 ,Left ,45.3143089001734 ,47.3194020076959 ,68.4218614309087
9.347069 ,Left ,45.3506238502137 ,47.2690608413707 ,68.4113018996168
9.3696002 ,Left ,45.3472362633511 ,47.1696247562615 ,68.3900515515223
9.3920782 ,Left ,45.3413721167342 ,47.0334066075882 ,68.3654937642209
9.4069988 ,Left ,45.3729048026584 ,46.8898683929297 ,68.340323539956
9.4295941 ,Left ,45.3482555032327 ,46.7636877791781 ,68.315445937611
9.452107 ,Left ,45.1746266314535 ,46.6914191487937 ,68.3397570008455
9.4672616 ,Left ,45.1268670310772 ,46.6590636011701 ,68.4126873113964
9.4895329 ,Left ,45.1853153977609 ,46.6493665901578 ,68.4613636208582
9.511782 ,Left ,45.2079924069779 ,46.6730481863448 ,68.5193760455953
9.5269989 ,Left ,45.2360710141412 ,46.7215562196011 ,68.5758256887369
9.549597 ,Left ,45.2560651084657 ,46.7925278460033 ,68.6080757264909
9.5719947 ,Left ,45.2633942908262 ,46.8700537740388 ,68.620553134458
9.5871232 ,Left ,45.2992691716808 ,46.9282673073542 ,68.624632203353
9.6103849 ,Left ,45.3696051404265 ,46.9746232767803 ,68.6154983171204
9.6325062 ,Left ,45.4294857843982 ,47.0052781038987 ,68.5930781525008
9.647058 ,Left ,45.4115447361654 ,47.0373763114875 ,68.5780197297757
9.6694352 ,Left ,45.3328095779763 ,47.0786342852212 ,68.5701885634974
9.6921354 ,Left ,45.2872401137803 ,47.1173040971045 ,68.563726030282
9.7069614 ,Left ,45.2988413369919 ,47.1439631630601 ,68.5466744366844
9.7293407 ,Left ,45.3478552671969 ,47.176641945855 ,68.5264186582637
9.7518814 ,Left ,45.3979387667717 ,47.211745976812 ,68.5075166850934
9.7669598 ,Left ,45.4241985357654 ,47.2537357739688 ,68.503723104834
9.7897582 ,Left ,45.4243344175752 ,47.3051802612235 ,68.4983322380216
9.8121108 ,Left ,45.4074422356552 ,47.3508474020029 ,68.4875630392535
9.8269627 ,Left ,45.4032025953893 ,47.3796109579206 ,68.4873648565779
9.849522 ,Left ,45.4525913544538 ,47.3814257993147 ,68.4921669501368
9.87941 ,Left ,45.5190372085274 ,47.3621868235168 ,68.4935824257063
9.8944634 ,Left ,45.5115676868008 ,47.3500142447565 ,68.4903542136049
9.9168594 ,Left ,45.4569004359766 ,47.3505541324499 ,68.497527267564
9.9318859 ,Left ,45.4428678485337 ,47.3462247236553 ,68.507986908254
9.9470144 ,Left ,45.4735525711526 ,47.3358613538665 ,68.5067859522744
9.9696162 ,Left ,45.5042285731828 ,47.3343280185948 ,68.4992802656301
9.9921085 ,Left ,45.5055249261012 ,47.3405708822377 ,68.5027879061336
10.0071146 ,Left ,45.4953402237597 ,47.3388864609717 ,68.5141032272132
10.0297144 ,Left ,45.4858385930271 ,47.3319798626351 ,68.5289460206713
10.0521464 ,Left ,45.4779168514239 ,47.3261418702521 ,68.5384786498601
10.0670141 ,Left ,45.4770024997962 ,47.3205714993031 ,68.5490731756363
10.0903708 ,Left ,45.4744969042396 ,47.3089015477277 ,68.5587526445882
10.1120692 ,Left ,45.4595966866137 ,47.3007016242602 ,68.5724770211216
10.1268624 ,Left ,45.4457144159851 ,47.2945815861932 ,68.5877915078169
10.1494736 ,Left ,45.4249972669915 ,47.2856749330043 ,68.6051434704713
10.1719549 ,Left ,45.3984153692355 ,47.2789016925649 ,68.6226510096553
10.1945765 ,Left ,45.3858188744527 ,47.2790688365504 ,68.6415023780583
10.209628 ,Left ,45.3743988812684 ,47.2808800851318 ,68.6597628663697
10.2329732 ,Left ,45.3659494208953 ,47.2886252628098 ,68.6831439432599
10.2545164 ,Left ,45.3686794688468 ,47.2983775274929 ,68.7040812526438
10.2695551 ,Left ,45.3773949720203 ,47.3062831652825 ,68.7245013317228
10.2924609 ,Left ,45.3947391402293 ,47.3154462199877 ,68.7406326289369
10.3149182 ,Left ,45.4034264058058 ,47.3254273253745 ,68.7558532895739
10.3294794 ,Left ,45.3900166258866 ,47.3398281868846 ,68.7673614020906
10.3522772 ,Left ,45.379261770321 ,47.3573449115588 ,68.7750938286691
10.3971 ,Left ,45.3780502260278 ,47.3707470944271 ,68.7794977540921
10.4120885 ,Left ,45.3926524842056 ,47.3830804989108 ,68.7837429318984
10.4346372 ,Left ,45.4080023078264 ,47.3847005526998 ,68.7831050957318
10.4570357 ,Left ,45.3908268062767 ,47.385956141686 ,68.7790153777069
10.4719743 ,Left ,45.3729274433429 ,47.3836199589456 ,68.7777846714349
10.4945526 ,Left ,45.3607029762442 ,47.3867318917916 ,68.7796401118413
10.5095448 ,Left ,45.349494707421 ,47.3868591795976 ,68.7768197779951
10.5321664 ,Left ,45.3556505332023 ,47.3832045461393 ,68.781133617826
10.5546803 ,Left ,45.3512344955037 ,47.3744507688792 ,68.7861823064929
10.5698864 ,Left ,45.3587619599206 ,47.3634621848145 ,68.7937297905332
10.592086 ,Left ,45.3807250272171 ,47.3587277046356 ,68.7978671328196
10.6146418 ,Left ,45.4006351807705 ,47.3756950722271 ,68.8169810477447
10.6295858 ,Left ,45.3720100355543 ,47.3909110265634 ,68.8234878388742
10.6520886 ,Left ,45.3563888299261 ,47.3945882025164 ,68.8070204186754
10.6743864 ,Left ,45.3754156002156 ,47.3935840391344 ,68.7754411314197
10.6895162 ,Left ,45.3577932754265 ,47.3812653282358 ,68.7222526523689
10.7120236 ,Left ,45.3242092704899 ,47.3695833928335 ,68.6697846571477
10.7345519 ,Left ,45.3145224436766 ,47.3431760420123 ,68.6252269292689
10.7495963 ,Left ,45.3040913647322 ,47.3057010385572 ,68.5830179159666
10.7719863 ,Left ,45.2885471732284 ,47.2898147533383 ,68.5585700174358
10.794479 ,Left ,45.2699645392908 ,47.2918093957449 ,68.552182239382
10.8095615 ,Left ,45.2590805443517 ,47.2837842418823 ,68.5441584172428
10.8320393 ,Left ,45.3161272149487 ,47.2702123144682 ,68.5154026347411
10.8548901 ,Left ,45.3621791572873 ,47.2579085675123 ,68.5001758018401
10.86959 ,Left ,45.3528814034053 ,47.2756647673562 ,68.500793943164
10.8921848 ,Left ,45.3033500927841 ,47.3013892897448 ,68.5068075761283
10.9145522 ,Left ,45.298249507314 ,47.304975991564 ,68.5093159301008
10.9293558 ,Left ,45.3452353707364 ,47.2931126640456 ,68.5030360715683
10.952122 ,Left ,45.3958796506087 ,47.270392230836 ,68.4894900181734
10.9747441 ,Left ,45.3713257144091 ,47.259567015902 ,68.4820251708737
10.9898431 ,Left ,45.3490103418131 ,47.2649619709538 ,68.4823316371506
11.0121864 ,Left ,45.3426032742435 ,47.2761504517776 ,68.4812310275301
11.0348019 ,Left ,45.3646120587402 ,47.3001092365478 ,68.4866860414775
11.0577044 ,Left ,45.3407514069505 ,47.3491661699666 ,68.4879967947416
11.0727071 ,Left ,45.2729614619526 ,47.4139245141165 ,68.5057922196912
11.0945515 ,Left ,45.2492581207987 ,47.4630039614076 ,68.5328144015081
11.1170822 ,Left ,45.2989927781592 ,47.492808168263 ,68.5626648819816
11.1320806 ,Left ,45.353759239672 ,47.5033984251181 ,68.5976805702504
11.1546011 ,Left ,45.3718287033939 ,47.5149477718622 ,68.6464170824365
11.1769998 ,Left ,45.3903972243654 ,47.5244616933514 ,68.6974825607238
11.191899 ,Left ,45.399465354083 ,47.526765738195 ,68.7354388316893
11.2295253 ,Left ,45.4088478590317 ,47.5264717941452 ,68.7480003701644
11.2519845 ,Left ,45.4529611261922 ,47.5261560043877 ,68.7497546419468
11.267057 ,Left ,45.4971327145096 ,47.5363484011114 ,68.7378526408094
11.3064387 ,Left ,45.4351969625184 ,47.5750299968359 ,68.6894047859105
11.3195609 ,Left ,45.4210140708343 ,47.5892436146566 ,68.6630828076105
11.3417366 ,Left ,45.4309855839937 ,47.5888854339818 ,68.6311915917819
11.3571258 ,Left ,45.4305075322493 ,47.5874444220659 ,68.5869651866926
11.3718523 ,Left ,45.4451037080715 ,47.5902573336688 ,68.5392466133905
11.3943874 ,Left ,45.5013010537972 ,47.5879072082195 ,68.5023202286955
11.4169193 ,Left ,45.5536147638223 ,47.575304606741 ,68.474686398539
11.4243396 ,Left ,45.5570192982971 ,47.5654239502291 ,68.4433528598027
11.4469194 ,Left ,45.5152326068632 ,47.5679191582483 ,68.410392754377
11.4923784 ,Left ,45.5126229371668 ,47.5439380874786 ,68.3872953135095
11.5220937 ,Left ,45.5643891089336 ,47.5058617773167 ,68.3881545599061
11.5519635 ,Left ,45.5496455174748 ,47.4589880185408 ,68.4437947059875
11.566932 ,Left ,45.535873002027 ,47.4611601333729 ,68.4787715115921
11.6043545 ,Left ,45.6693717999071 ,47.4111356233504 ,68.4326151079109
11.626773 ,Left ,45.7411567661346 ,47.365157350137 ,68.4079712615527
11.6642429 ,Left ,45.5792432876109 ,47.3108786989315 ,68.4626999560998
11.6868936 ,Left ,45.5323524750342 ,47.3098669118356 ,68.5133614488044
11.7251753 ,Left ,45.5515553761221 ,47.2880842958437 ,68.6008962056524
11.7471087 ,Left ,45.5789061822489 ,47.3084111028434 ,68.655084345746
11.7844445 ,Left ,45.5807778126706 ,47.4093334782897 ,68.7104905476665
11.8070262 ,Left ,45.5974841377402 ,47.4484745955972 ,68.7118184723698
11.8443268 ,Left ,45.6236973541353 ,47.5050921287903 ,68.6848021721184
11.8669973 ,Left ,45.5946844701653 ,47.5295637453199 ,68.6896366448295
11.9049984 ,Left ,45.5535276603506 ,47.5628485328341 ,68.7043082973741
11.926766 ,Left ,45.5461800215909 ,47.5865926166718 ,68.7034436712729
11.964315 ,Left ,45.5733740641213 ,47.6463756774347 ,68.6971857544709
11.9945596 ,Left ,45.5855976969089 ,47.6822469536263 ,68.6837802070767
12.0319899 ,Left ,45.6029255426352 ,47.7517578872829 ,68.6328037931828
12.0468403 ,Left ,45.585651463461 ,47.7888795049371 ,68.6028876232695
12.0845002 ,Left ,45.6206190995594 ,47.8387100640358 ,68.5178442783048
12.1069511 ,Left ,45.6614608725698 ,47.8500970836127 ,68.4696931913111
12.1444433 ,Left ,45.7327265288754 ,47.8547515493471 ,68.4063726079479
12.166934 ,Left ,45.7356564481886 ,47.8777825522432 ,68.3948082525819
12.2046108 ,Left ,45.6221370142039 ,47.95513377749 ,68.3868493768632
12.2268816 ,Left ,45.6596944476756 ,47.980133169961 ,68.3861470826417
12.2643665 ,Left ,45.7269639295924 ,47.9830408533532 ,68.4009011451723
12.2868976 ,Left ,45.6900352931458 ,47.9782202589012 ,68.4239054735127
12.3245525 ,Left ,45.5928112874202 ,47.9743780903196 ,68.4626862842182
12.3470992 ,Left ,45.6021790592614 ,47.9620923949694 ,68.4703290010173
12.384535 ,Left ,45.6188599255086 ,47.9317259412433 ,68.4896687992639
12.4068538 ,Left ,45.5981607113853 ,47.9254053096643 ,68.5057835375661
12.4445987 ,Left ,45.5835878537201 ,47.9145932668943 ,68.5378817291708
12.4668983 ,Left ,45.5792002514257 ,47.9066416682785 ,68.5469081632511
12.5045141 ,Left ,45.5968274644228 ,47.9075532342177 ,68.5584777286883
12.5269211 ,Left ,45.6196390696959 ,47.9257588297887 ,68.5794227024238
12.5720633 ,Left ,45.5790723324199 ,47.961050438678 ,68.6450527670155
12.5945317 ,Left ,45.5734169488191 ,47.9772977428053 ,68.6758250497088
12.6244101 ,Left ,45.6467889790024 ,47.9943290628594 ,68.7154577737229
12.6468281 ,Left ,45.652877548133 ,47.9981830493114 ,68.7232143034179
12.6845744 ,Left ,45.6157786487862 ,47.9978320072387 ,68.7335042775369
12.7073659 ,Left ,45.5958960086579 ,47.989716052307 ,68.7358045988258
12.7446251 ,Left ,45.5666462998043 ,47.9714209503217 ,68.7389318811608
12.7673073 ,Left ,45.5922044584089 ,47.9549170056046 ,68.7451188486329
12.8044606 ,Left ,45.603694626506 ,47.9150148735772 ,68.7552201057249
12.8270103 ,Left ,45.6131141658341 ,47.896391248474 ,68.7500614621499
12.8717776 ,Left ,45.7079649674579 ,47.8594511817553 ,68.7205691884504
12.894575 ,Left ,45.7444609354281 ,47.8700471030913 ,68.7131669572086
12.9245708 ,Left ,45.7913164405681 ,47.8973371041872 ,68.6188027968011
12.9468854 ,Left ,45.7831558931756 ,47.8829916388575 ,68.5338564748665
12.984435 ,Left ,45.7011467487516 ,47.8219566772632 ,68.3657843787369
13.0068738 ,Left ,45.7022358798138 ,47.8333674788549 ,68.316876787868
13.0444569 ,Left ,45.65789621475 ,47.8492678884014 ,68.2350088234853
13.0669782 ,Left ,45.6251466191237 ,47.8608941564113 ,68.2099885627664
13.1045916 ,Left ,45.6229407736572 ,47.873282143206 ,68.2010529639728
13.1273258 ,Left ,45.6184849174519 ,47.8737101171465 ,68.2017907136931
13.1719244 ,Left ,45.7252016655829 ,47.8366898227616 ,68.1827098439346
13.1945265 ,Left ,45.7346916826519 ,47.7996470920768 ,68.1760822193657
13.2245861 ,Left ,45.7364370900754 ,47.758339563126 ,68.2019818226329
13.2467837 ,Left ,45.6982667823486 ,47.7640467312583 ,68.2021462354581
13.2846571 ,Left ,45.599850593388 ,47.8109713968441 ,68.2091743264831
13.3069547 ,Left ,45.5506979659861 ,47.8377027004791 ,68.2328605376682
13.3220611 ,Left ,45.5614861143809 ,47.8462827848581 ,68.2740572997685
13.3371122 ,Left ,45.5900463341982 ,47.8393476056508 ,68.3146960259723
13.3595312 ,Left ,45.6231312130095 ,47.8328292451772 ,68.3738357513676
13.3824563 ,Left ,45.6483203851564 ,47.8156640603827 ,68.4381425140988
13.3971566 ,Left ,45.6706826363154 ,47.7862926373351 ,68.4844987495581
13.4194682 ,Left ,45.6959666019611 ,47.757040577184 ,68.4972552071717
13.4420822 ,Left ,45.7460428883559 ,47.7463465455402 ,68.5053436682489
13.457002 ,Left ,45.7954333647835 ,47.7421929092364 ,68.5005750501778
13.4794547 ,Left ,45.7993269225357 ,47.7455033017263 ,68.4903623039287
13.5019346 ,Left ,45.7443102979719 ,47.7684731980711 ,68.4759894033621
13.5175313 ,Left ,45.6919116584863 ,47.791704936567 ,68.4614393502453
13.5395547 ,Left ,45.6876790877268 ,47.7967809111609 ,68.4355373056172
13.5622859 ,Left ,45.7033062532977 ,47.7832372918711 ,68.3982041501577
13.57707 ,Left ,45.7037669555421 ,47.7735819453762 ,68.3692387268541
13.6020801 ,Left ,45.6994791165377 ,47.774944925527 ,68.3583975568063
13.6220436 ,Left ,45.7173031037775 ,47.7738134208477 ,68.3442909985941
13.6369379 ,Left ,45.7260960794549 ,47.7763743485819 ,68.3282552214555
13.6593318 ,Left ,45.7160254656709 ,47.7810565796155 ,68.3080041259147
13.6820549 ,Left ,45.7122638655442 ,47.7834388128577 ,68.2826441267545
13.7044794 ,Left ,45.7212353183996 ,47.7801924015145 ,68.2560397128606
13.7269657 ,Left ,45.7438898284998 ,47.7633542792031 ,68.2350044509913
13.7504992 ,Left ,45.7446686131117 ,47.7431225409037 ,68.219465743996
13.7646873 ,Left ,45.7233391822616 ,47.7353111655396 ,68.219848535035
13.7795928 ,Left ,45.674529757255 ,47.7396228164207 ,68.2080928748702
13.8020815 ,Left ,45.6218055119793 ,47.7378944147983 ,68.1819155712777
13.817042 ,Left ,45.6463880873246 ,47.7252238787695 ,68.1360637460127
13.8396799 ,Left ,45.745439836642 ,47.6906319348206 ,68.0875153973315
13.862098 ,Left ,45.8233838979038 ,47.6542750600257 ,68.0470230705337
13.8769821 ,Left ,45.7613028771564 ,47.6358272708239 ,68.0273548925221
13.8996306 ,Left ,45.6980302207286 ,47.6349787345715 ,68.072499353833
13.9220958 ,Left ,45.7997451431462 ,47.6220247951305 ,68.123492505402
13.9445878 ,Left ,45.8973864195129 ,47.5788366803284 ,68.1503865128319
13.9679238 ,Left ,45.9554176436906 ,47.5727638674808 ,68.1840953484377
13.9969033 ,Left ,45.9914860898211 ,47.6041198630482 ,68.2169922448894
14.0270543 ,Left ,45.9898882112832 ,47.7133992196044 ,68.2520585664545
14.0428294 ,Left ,46.0168591266988 ,47.7480782896432 ,68.2535089729511
14.0645217 ,Left ,46.1082550089356 ,47.7532835415395 ,68.2549408808527
14.0794832 ,Left ,46.1510463127851 ,47.7500028441446 ,68.2655372713906
14.1019444 ,Left ,46.0976837211974 ,47.7554571257934 ,68.2888971364682
14.1245328 ,Left ,46.0448275705842 ,47.7582933335691 ,68.3127284888259
14.1467228 ,Left ,46.0375246361336 ,47.7640981081089 ,68.3242926710017
14.1693327 ,Left ,46.0611564275169 ,47.7708462358153 ,68.336027533821
14.2002689 ,Left ,46.0916455425654 ,47.7979051235201 ,68.3593380592715
14.2220791 ,Left ,46.087734472466 ,47.8153656346544 ,68.3685533153957
14.2444484 ,Left ,46.0726942098838 ,47.8378387794442 ,68.3810086589049
14.2597118 ,Left ,46.064520366452 ,47.8603388184796 ,68.3951804316285
14.2817386 ,Left ,46.0687060764383 ,47.8747485188336 ,68.3988015773925
14.3045627 ,Left ,46.0773011816134 ,47.8880843353538 ,68.4000173597349
14.319507 ,Left ,46.0960702407318 ,47.8925835862294 ,68.4036400247068
14.342053 ,Left ,46.0977185736987 ,47.8915361288734 ,68.4035439624388
14.3644211 ,Left ,46.0901680161471 ,47.8992756843228 ,68.4104187758644
14.3795103 ,Left ,46.0914769354638 ,47.9060925245136 ,68.4159332836017
14.4020546 ,Left ,46.0912460466203 ,47.9062231422514 ,68.4185093404174
14.4244524 ,Left ,46.1003842298437 ,47.9101103904258 ,68.4210022637531
14.439437 ,Left ,46.103164155864 ,47.9106952789046 ,68.4204195710268
14.4621757 ,Left ,46.1042963258772 ,47.912328526084 ,68.4199325287731
14.4846165 ,Left ,46.0925304124189 ,47.9271618974833 ,68.4240608148422
14.4996068 ,Left ,46.0908826706683 ,47.9282103606937 ,68.4241559427221
14.5220014 ,Left ,46.0997921560709 ,47.9395886017389 ,68.4301234588754
14.5445549 ,Left ,46.1150798117334 ,47.9483486244239 ,68.4288699721446
14.5595999 ,Left ,46.1162111901797 ,47.9499811272174 ,68.4283869692744
14.5820315 ,Left ,46.1090062963108 ,47.949862752662 ,68.4296362994811
14.6045705 ,Left ,46.1014970298447 ,47.9434829126703 ,68.4364629678001
14.6196183 ,Left ,46.0749841342963 ,47.9401264729232 ,68.4430986355433
14.6419896 ,Left ,46.0492924466399 ,47.9477139357239 ,68.4454442223806
14.664451 ,Left ,46.0554689142177 ,47.9458270686205 ,68.4425144772255
14.6795996 ,Left ,46.0554689142177 ,47.9458270686205 ,68.4425144772255
14.7020662 ,Left ,46.0308027827039 ,47.9480525643158 ,68.4456560315229
14.7245418 ,Left ,45.9996029597627 ,47.9594374514864 ,68.4556129299497
14.7395263 ,Left ,45.9804627703295 ,47.9681753794292 ,68.4661766966733
14.7620789 ,Left ,45.9797268814229 ,47.9628288728331 ,68.4786714706126
14.7845403 ,Left ,45.9864431363492 ,47.9544294169247 ,68.4911346666622
14.7997241 ,Left ,45.9925992285429 ,47.9511130930917 ,68.4976502545563
14.8369506 ,Left ,45.9782029058625 ,47.9515198664944 ,68.5019390987219
14.8592989 ,Left ,45.984147333588 ,47.94975490019 ,68.5015767566637
14.8744609 ,Left ,46.0166522749634 ,47.9377820881972 ,68.496244413345
14.897076 ,Left ,46.0345548763084 ,47.9277774386895 ,68.4883219827221
14.9118493 ,Left ,46.0219342017072 ,47.9281773534349 ,68.4808966119171
14.9420906 ,Left ,45.9883612473723 ,47.9419507689546 ,68.469567978804
14.9645851 ,Left ,45.9795649667907 ,47.9522870169045 ,68.4640967352729
14.9870764 ,Left ,45.9610242596077 ,47.9661348392561 ,68.4625930014824
15.0019792 ,Left ,45.9503416099918 ,47.977651233323 ,68.4597934550461
15.0246908 ,Left ,45.9473412980259 ,47.9845789431525 ,68.4638228055122
15.0470687 ,Left ,45.9499345573679 ,47.985917389825 ,68.4675465140728
15.0620894 ,Left ,45.9482806793121 ,47.9855642813232 ,68.4770870596659
15.0919202 ,Left ,45.927759039287 ,47.9854703260834 ,68.4898668472181
15.1142702 ,Left ,45.9158382227675 ,47.9802316717733 ,68.4991891471621
15.1295056 ,Left ,45.9162104996298 ,47.9691692160157 ,68.5103499745829
15.1671055 ,Left ,45.9175609527184 ,47.9386238237515 ,68.5223665408792
15.1820922 ,Left ,45.918509450805 ,47.9244938783703 ,68.5317943208844
15.2046316 ,Left ,45.9323470464366 ,47.9112286133892 ,68.5365764124624
15.2270865 ,Left ,45.977106486851 ,47.8987076067949 ,68.5415943111813
15.2420035 ,Left ,46.0403433520385 ,47.9023122038694 ,68.5408281234692
15.26431 ,Left ,46.062421657547 ,47.9152406867075 ,68.5283698324734
15.286977 ,Left ,46.0239658648143 ,47.9375138652356 ,68.4928148902531
15.3020544 ,Left ,45.9421222878422 ,47.94053579394 ,68.4603265866213
15.3245711 ,Left ,45.9033690521763 ,47.9277123806638 ,68.4284549530748
15.3470638 ,Left ,45.9106489409053 ,47.8987772260429 ,68.3925672421681
15.3620159 ,Left ,45.9526674314472 ,47.8787429125137 ,68.3664660264961
15.3844978 ,Left ,45.9728161229045 ,47.8738485473017 ,68.3502585806216
15.4146265 ,Left ,45.9386852557856 ,47.8636606360206 ,68.3314845888658
15.4296165 ,Left ,45.8863532590415 ,47.8443955148205 ,68.317010539823
15.4524243 ,Left ,45.8707515537516 ,47.8264784498513 ,68.2972234241591
15.4672514 ,Left ,45.87999469798 ,47.7929472518178 ,68.2759426352164
15.4820205 ,Left ,45.8326254753511 ,47.7828055112979 ,68.2685989602831
15.50466 ,Left ,45.8082293067902 ,47.8053903721453 ,68.2965118323493
15.5269163 ,Left ,45.8467811149593 ,47.825775603926 ,68.2984138853035
15.5419648 ,Left ,45.8879078748443 ,47.8372676536442 ,68.2763916362802
15.5718784 ,Left ,45.954748966463 ,47.8364017440316 ,68.2456196120299
15.5942754 ,Left ,46.0699385629378 ,47.810824871476 ,68.2026542138594
15.609456 ,Left ,46.1050687374883 ,47.7844260569679 ,68.1783669817795
15.632294 ,Left ,46.0405519527659 ,47.7859236102782 ,68.2134792326943
15.662009 ,Left ,46.0101564182955 ,47.7874966965214 ,68.2524998075351
15.6918263 ,Left ,45.9645502930682 ,47.7626012237733 ,68.2773457519128
15.7070739 ,Left ,45.9823382227214 ,47.7422583107128 ,68.2878064279836
15.722081 ,Left ,45.998412882643 ,47.7203985376815 ,68.2864550632743
15.7445431 ,Left ,45.9726636468058 ,47.7204862360066 ,68.2881673318222
15.7681025 ,Left ,45.9443559042387 ,47.7321971712654 ,68.2951123799223
15.7819373 ,Left ,45.9522125706336 ,47.7416431040984 ,68.2992163689047
15.8044332 ,Left ,45.9774423874152 ,47.7442278833508 ,68.2970991609085
15.8270322 ,Left ,45.9962410529856 ,47.7414271341484 ,68.2997102541657
15.849957 ,Left ,45.9841842390852 ,47.744646396585 ,68.300914772321
15.8643534 ,Left ,45.9605892677835 ,47.7484058782769 ,68.3037387368582
15.8869412 ,Left ,45.9453372557607 ,47.7533246230082 ,68.3030094798266
15.9244678 ,Left ,45.9516374526609 ,47.7584547776386 ,68.29871655259
15.940029 ,Left ,45.9660739608922 ,47.7581321287991 ,68.2943434082628
15.984421 ,Left ,45.9475714430155 ,47.7509964896385 ,68.2939034033018
16.0069202 ,Left ,45.9372775490548 ,47.7527870893628 ,68.2928704926327
16.0296891 ,Left ,45.9193067370697 ,47.743605261157 ,68.2945864894575
16.0446762 ,Left ,45.9384683263227 ,47.7402940935893 ,68.2924551229931
16.0671967 ,Left ,45.9564837733203 ,47.7303752134916 ,68.2844818863627
16.0895295 ,Left ,45.9478809495604 ,47.7243749637127 ,68.2842590635348
16.1044517 ,Left ,45.9261942685709 ,47.7195626445462 ,68.2836413613687
16.1271227 ,Left ,45.9053682728978 ,47.7109021453169 ,68.2770305831126
16.1495523 ,Left ,45.906155917434 ,47.7006989080362 ,68.2740820150474
16.1645751 ,Left ,45.9028883810238 ,47.7010109396638 ,68.2815600681422
16.1870711 ,Left ,45.8891561107608 ,47.7176337283712 ,68.2900416823522
16.2095483 ,Left ,45.872514730314 ,47.7290702712906 ,68.2949426517018
16.2245354 ,Left ,45.8982463891596 ,47.7480950583718 ,68.2993974548733
16.2470153 ,Left ,45.9381863612102 ,47.7551963889333 ,68.2966463743569
16.2697414 ,Left ,45.9579562652269 ,47.7562038814284 ,68.2936102462661
16.2845525 ,Left ,45.9392866427205 ,47.7512270534173 ,68.288054522903
16.3070867 ,Left ,45.9206470343503 ,47.7518557415361 ,68.2905908496286
16.3294736 ,Left ,45.9193218621758 ,47.7485811108519 ,68.3009436496559
16.3444938 ,Left ,45.9288383375683 ,47.7446296273385 ,68.2977712009637
16.3670033 ,Left ,45.9355167356252 ,47.7418553603468 ,68.2879473150493
16.3896453 ,Left ,45.9294989216408 ,47.7453610037045 ,68.2810769145399
16.4045302 ,Left ,45.9294989216408 ,47.7453610037045 ,68.2810769145399
16.4270551 ,Left ,45.9294989216408 ,47.7453610037045 ,68.2810769145399
16.4496047 ,Left ,45.9267471880667 ,47.7535314673756 ,68.2730939446342
16.4645727 ,Left ,45.9402530267697 ,47.7581912931323 ,68.2657506105479
16.4869769 ,Left ,45.9430396861705 ,47.7587920369042 ,68.2651364304394
16.517009 ,Left ,45.9306762247346 ,47.7639052950987 ,68.2616571430661
16.5319763 ,Left ,45.9244077685794 ,47.7675388666252 ,68.2573591987638
16.554635 ,Left ,45.9437820676528 ,47.7714993633051 ,68.253490052106
16.5695159 ,Left ,45.9562762744355 ,47.7747788349046 ,68.2462514996649
16.5845257 ,Left ,45.9452136675627 ,47.7793684505951 ,68.2473750633697
16.6069182 ,Left ,45.9273598738081 ,47.7821342484984 ,68.2540883463359
16.6295792 ,Left ,45.9257044231133 ,47.7831727523946 ,68.2541908841667
16.6444849 ,Left ,45.9181738018441 ,47.7767847191093 ,68.2611313004712
16.6727531 ,Left ,45.9070716646343 ,47.7676349107941 ,68.2644987028837
16.6895149 ,Left ,45.892131656627 ,47.7632425427666 ,68.2676733273824
16.704566 ,Left ,45.8853110449762 ,47.7607909000418 ,68.2715677051072
16.726955 ,Left ,45.8843672473608 ,47.7576414468819 ,68.2789221992208
16.756963 ,Left ,45.8695683076238 ,47.7584935816682 ,68.2880375180423
16.7720525 ,Left ,45.866574434975 ,47.7636615837715 ,68.2992932223385
16.7945039 ,Left ,45.8763721262799 ,47.7695367361469 ,68.3062507921677
16.8321311 ,Left ,45.848927831637 ,47.7625662535195 ,68.3184561764666
16.8469473 ,Left ,45.8364063498627 ,47.7593291824709 ,68.325758299393
16.8695504 ,Left ,45.8479840591318 ,47.7520386341397 ,68.3250348749135
16.8920982 ,Left ,45.8468467837824 ,47.7504009741367 ,68.3255551546617
16.9071102 ,Left ,45.8376441063216 ,47.7574607192206 ,68.3397948266281
16.9296713 ,Left ,45.8341393836187 ,47.7653210857962 ,68.3506433757611
16.951997 ,Left ,45.857388612789 ,47.7694453639979 ,68.3532761106051
16.9670878 ,Left ,45.8680879479859 ,47.7653519834153 ,68.3568622694435
16.9896044 ,Left ,45.8519041838016 ,47.7647437298891 ,68.3690855694763
17.0125859 ,Left ,45.8326813657011 ,47.7667409304217 ,68.3806797031978
17.0271614 ,Left ,45.8208252112659 ,47.7660935237308 ,68.3943466255112
17.0497403 ,Left ,45.8144171863459 ,47.7663784262457 ,68.4071924651817
17.0735067 ,Left ,45.8070008737484 ,47.7652876732451 ,68.4201453045236
17.0871119 ,Left ,45.820297413742 ,47.767544614907 ,68.4337719061701
17.109708 ,Left ,45.82901379135 ,47.7699958710938 ,68.4485566761529
17.1320782 ,Left ,45.8151439447811 ,47.7642129574405 ,68.4680246227785
17.1468018 ,Left ,45.8142111752435 ,47.7569279960973 ,68.488323917183
17.1694328 ,Left ,45.820217461166 ,47.7449058404633 ,68.5034956865399
17.1919615 ,Left ,45.8223013570365 ,47.7380558883442 ,68.5206171827579
17.1995702 ,Left ,45.8468552047466 ,47.7330288960013 ,68.5361584824497
17.2219167 ,Left ,45.8962424281679 ,47.7252716794659 ,68.5461533041182
17.2672464 ,Left ,45.9954946776116 ,47.7228732330638 ,68.5592939550216
17.2895293 ,Left ,46.019525673864 ,47.7198438321798 ,68.5422384511828
17.3193225 ,Left ,45.9098400596524 ,47.7029100715021 ,68.4990094454442
17.3418179 ,Left ,45.8716022756408 ,47.6804118212406 ,68.4692936381016
17.3792235 ,Left ,45.9023995240986 ,47.6462550698217 ,68.4121842802073
17.4019955 ,Left ,45.8951013326385 ,47.6390605671582 ,68.3845091591585
17.4393569 ,Left ,45.8732719587642 ,47.6275329788776 ,68.326780447995
17.461906 ,Left ,45.8826474566446 ,47.6144626411272 ,68.302323213981
17.5075347 ,Left ,45.8701596966304 ,47.6217333996075 ,68.293744237277
17.5295112 ,Left ,45.8327681213401 ,47.6315028665642 ,68.2908142034815
17.5670673 ,Left ,45.7966632239806 ,47.6283621494666 ,68.285436039558
17.5971284 ,Left ,45.8374807362942 ,47.6128954589938 ,68.2723749250195
17.627071 ,Left ,45.8104558154754 ,47.5975741473903 ,68.2771820859151
17.6420792 ,Left ,45.8297789249615 ,47.5995182946253 ,68.2808168940122
17.6807648 ,Left ,45.8541784321173 ,47.6530039715643 ,68.28811801628
17.7020313 ,Left ,45.7906504056037 ,47.7160293475951 ,68.3034409926237
17.7395899 ,Left ,45.7490828060781 ,47.8028056743564 ,68.3664569873378
17.7617582 ,Left ,45.8139086755884 ,47.8188320179302 ,68.4071419829777
17.7992691 ,Left ,45.7718233072836 ,47.863308248522 ,68.5227681298617
17.8220107 ,Left ,45.7698350554387 ,47.8745861607418 ,68.5537352099063
17.8593637 ,Left ,45.7548966384834 ,47.8131144287332 ,68.5223368881718
17.8896148 ,Left ,45.6834645332518 ,47.7838732252713 ,68.4969010534399
17.9124098 ,Left ,45.566344140759 ,47.7878212970105 ,68.4562771259567
17.9270583 ,Left ,45.4196704231782 ,47.8102794698536 ,68.4150455623707
17.9418809 ,Left ,45.3327911804711 ,47.8312096219196 ,68.37412041277
17.9645718 ,Left ,45.3520053893029 ,47.8162569592661 ,68.3247003265694
17.9795136 ,Left ,45.439746121613 ,47.7819754725926 ,68.2634069992967
18.0019495 ,Left ,45.4807368890545 ,47.7488703697646 ,68.193183963441
18.0396196 ,Left ,45.4323376570319 ,47.7200364818364 ,68.0903782090956
18.0620434 ,Left ,45.3949460383163 ,47.6967447526894 ,68.0428189769163
18.0995149 ,Left ,45.385127200238 ,47.670755530775 ,67.9593416393385
18.122077 ,Left ,45.390384048351 ,47.6595150989276 ,67.925843044896
18.1670226 ,Left ,45.4596851667871 ,47.6285007636135 ,67.9038445938654
18.1898024 ,Left ,45.4392256465896 ,47.6193844585347 ,67.9231073357971
18.2419995 ,Left ,45.2600477000252 ,47.6488416296922 ,67.9865365842193
18.2794019 ,Left ,45.6113804289932 ,47.5166739319973 ,67.9257439473022
18.3022771 ,Left ,45.6325678110277 ,47.470995367856 ,67.9005245078341
18.3247856 ,Left ,45.4807867791484 ,47.472063706268 ,67.9280681220487
18.3620011 ,Left ,45.4052411520581 ,47.4922817958449 ,68.0132900730665
18.3996332 ,Left ,45.4979518579652 ,47.493908570647 ,68.1015641375452
18.4294491 ,Left ,45.5175547109297 ,47.5009526609421 ,68.1365769747744
18.4775242 ,Left ,45.4561578612645 ,47.5516143285772 ,68.1860034959208
18.4896281 ,Left ,45.505485499974 ,47.5605996543187 ,68.1900123658674
18.5420165 ,Left ,45.5891702672613 ,47.5726928439372 ,68.1805720004718
18.5794696 ,Left ,45.5801212696203 ,47.6075360666228 ,68.1894669148506
18.6019635 ,Left ,45.6195560633441 ,47.6121923301389 ,68.179787878168
18.6395272 ,Left ,45.6635418062875 ,47.6421878999396 ,68.1718747226117
18.6619159 ,Left ,45.6895640611372 ,47.6538250319387 ,68.1726149574386
18.7067547 ,Left ,45.713067827998 ,47.6734172513013 ,68.1628386608692
18.737151 ,Left ,45.7275248466347 ,47.6942620384549 ,68.156750264997
18.7820307 ,Left ,45.7914860317046 ,47.7322321510285 ,68.1421939735211
18.8195562 ,Left ,45.781893750022 ,47.75726981109 ,68.1438676518263
18.8419661 ,Left ,45.7609682758277 ,47.7732692791007 ,68.1515484458655
18.8794068 ,Left ,45.7684294492589 ,47.8007715156971 ,68.1430686990663
18.9019664 ,Left ,45.7789298562585 ,47.8200157451681 ,68.1400206083367
18.9395388 ,Left ,45.7171183537366 ,47.8504126525381 ,68.1720789034324
18.96185 ,Left ,45.6883379800363 ,47.8680212993066 ,68.1921879020914
19.0069307 ,Left ,45.7104368071575 ,47.9028442597341 ,68.2102824966405
19.0595073 ,Left ,45.7487880600046 ,47.9184625444119 ,68.2390331757062
19.0745863 ,Left ,45.7457536195392 ,47.9029581346939 ,68.2538497526856
19.0969503 ,Left ,45.6860505016181 ,47.8997834708641 ,68.2660649265625
19.1120613 ,Left ,45.6534309163043 ,47.9047939946707 ,68.272548307782
19.1362896 ,Left ,45.6931348111509 ,47.9057681325949 ,68.2753220811131
19.157069 ,Left ,45.7237445120412 ,47.9010209298855 ,68.2830717241015
19.1720239 ,Left ,45.7148418104737 ,47.9005806136437 ,68.2939167301252
19.1945555 ,Left ,45.6799564538626 ,47.908423766666 ,68.3116097113322
19.2170442 ,Left ,45.6458767584054 ,47.9197969266752 ,68.3241003139881
19.239544 ,Left ,45.6128355010246 ,47.9258436218441 ,68.3374479982244
19.2707422 ,Left ,45.599201010341 ,47.9284146228056 ,68.3460668844826
19.2995307 ,Left ,45.6652169293968 ,47.930880809592 ,68.3520790801766
19.3145358 ,Left ,45.6927491988284 ,47.9279999990615 ,68.3574906754273
19.3370149 ,Left ,45.6879665105977 ,47.9290055219832 ,68.3629239202237
19.3547077 ,Left ,45.667536612573 ,47.9378574249016 ,68.3667985055963
19.3745071 ,Left ,45.6537280523343 ,47.9425429179287 ,68.370270512034
19.3969704 ,Left ,45.6576478834256 ,47.9373786175002 ,68.3683416948213
19.4120167 ,Left ,45.6539562500094 ,47.9350011746166 ,68.3669173984874
19.4345915 ,Left ,45.6322314784337 ,47.930217926649 ,68.3663511443781
19.4571249 ,Left ,45.6097431610806 ,47.928263339717 ,68.3679495220337
19.4724455 ,Left ,45.5796349587179 ,47.9290962913049 ,68.3700807779621
19.4945613 ,Left ,45.5584554568725 ,47.9266716867033 ,68.3763240139664
19.5170906 ,Left ,45.5506360257872 ,47.9228957177176 ,68.3803728289405
19.5394821 ,Left ,45.5513268332171 ,47.9181206043461 ,68.3859391671469
19.5622191 ,Left ,45.5453341181815 ,47.9112048113399 ,68.395032792618
19.5918183 ,Left ,45.4884514995099 ,47.9042987889174 ,68.4309897357649
19.6145652 ,Left ,45.5000683321065 ,47.9007753530013 ,68.4460260870351
19.6369732 ,Left ,45.5399043158012 ,47.8975267050722 ,68.4615303476843
19.6595393 ,Left ,45.5850225803597 ,47.8905240724966 ,68.4720557349322
19.6744091 ,Left ,45.6552120776286 ,47.8806671989142 ,68.4744599910265
19.696922 ,Left ,45.7283089110767 ,47.875963625095 ,68.4805498635866
19.7194651 ,Left ,45.7461132888527 ,47.8821705708423 ,68.467270463887
19.7348043 ,Left ,45.6577193937643 ,47.9065597334607 ,68.4182769414344
19.7645041 ,Left ,45.5298438834026 ,47.9471506288178 ,68.3465102973864
19.7869234 ,Left ,45.4830786472618 ,47.9583508761505 ,68.2747156766917
19.8020734 ,Left ,45.5440194179768 ,47.9361675994915 ,68.2088858931338
19.8242997 ,Left ,45.6079406429751 ,47.9168744704067 ,68.1654412281984
19.8395359 ,Left ,45.6430083499739 ,47.8987669386651 ,68.163583989438
19.8544641 ,Left ,45.6430147538245 ,47.8800240188661 ,68.1595705233717
19.8767939 ,Left ,45.6183699406118 ,47.856773393165 ,68.1467845513788
19.8995558 ,Left ,45.5418113628415 ,47.8502595951337 ,68.1343053945452
19.9143892 ,Left ,45.5126975384799 ,47.8541801471886 ,68.1288070143511
19.936959 ,Left ,45.5184729738655 ,47.8558189570268 ,68.1139123913147
19.9595232 ,Left ,45.5063947569386 ,47.8465090876716 ,68.1082069147395
19.9762223 ,Left ,45.5278097041829 ,47.839612937786 ,68.1062643063089
19.9978623 ,Left ,45.5471150506305 ,47.8296914738948 ,68.1049662348508
20.0196442 ,Left ,45.5394125598734 ,47.8254367473582 ,68.1068966526587
20.0344931 ,Left ,45.5393513051775 ,47.8184542377265 ,68.1082900958987
20.0570126 ,Left ,45.5466470344127 ,47.8112548702288 ,68.1061592368341
20.0868524 ,Left ,45.5201991877888 ,47.8286369932564 ,68.1091621116262
20.1093348 ,Left ,45.5014796255248 ,47.8654333265926 ,68.1290286637459
20.1318165 ,Left ,45.4482646063092 ,47.9132772465509 ,68.1466844052914
20.1621241 ,Left ,45.4094905485901 ,47.9725571430952 ,68.2093140837986
20.1770698 ,Left ,45.4677559919481 ,47.9886985924749 ,68.2460005129817
20.1995714 ,Left ,45.48026843558 ,48.0022356797074 ,68.2976897778011
20.2143709 ,Left ,45.4630300553276 ,48.0189247124686 ,68.3742009326902
20.2370422 ,Left ,45.5018164915321 ,48.0114019349008 ,68.4536258257131
20.2594677 ,Left ,45.547146973962 ,47.9862040357364 ,68.521454854852
20.2744576 ,Left ,45.5685025992418 ,47.9631138981537 ,68.5713535708009
20.2971776 ,Left ,45.5882818573424 ,47.9377396365417 ,68.5917699005204
20.3194584 ,Left ,45.5739235937572 ,47.9310862631071 ,68.5950457991724
20.3378717 ,Left ,45.5296355658716 ,47.9549937665696 ,68.5905666771926
20.3569866 ,Left ,45.5229614643064 ,47.9766942842362 ,68.5761041962627
20.3794541 ,Left ,45.5624776133946 ,47.9849711428621 ,68.5379904322213
20.3946017 ,Left ,45.5759494185603 ,47.9815565374994 ,68.4967675492722
20.4244132 ,Left ,45.5589550254814 ,47.983288775535 ,68.4474011043019
20.4466684 ,Left ,45.5487865565336 ,47.9849985167063 ,68.3997459312343
20.461892 ,Left ,45.5718403547851 ,47.9845957978438 ,68.3541339405808
20.4770079 ,Left ,45.6075536592141 ,47.9779521238528 ,68.3056372787775
20.4997746 ,Left ,45.6329274006129 ,47.9805431951968 ,68.2569887987307
20.5146492 ,Left ,45.6504441238529 ,47.9911313022489 ,68.217805141795
20.5370527 ,Left ,45.6515257863251 ,47.9973186497717 ,68.1908884827589
20.5595156 ,Left ,45.6457160417495 ,48.0014632194665 ,68.1699991788599
20.5754219 ,Left ,45.6530869225658 ,47.9897205945198 ,68.1479397641959
20.5970906 ,Left ,45.6618906845766 ,47.9657560898782 ,68.1250644451723
20.6196199 ,Left ,45.6456922254469 ,47.9419762390724 ,68.1158011316373
20.6420614 ,Left ,45.6314285814061 ,47.9157057073327 ,68.1132728691213
20.6570159 ,Left ,45.6525471760881 ,47.8845325467763 ,68.1019529027683
20.679456 ,Left ,45.6356882420368 ,47.8711944169975 ,68.0952663619515
20.7019709 ,Left ,45.5890001223636 ,47.8909712445634 ,68.0894882362936
20.7170387 ,Left ,45.5337256883334 ,47.9242516979291 ,68.0761062729191
20.7395588 ,Left ,45.5699389048829 ,47.9461475271834 ,68.0524444837011
20.762121 ,Left ,45.7070131157436 ,47.9189569744037 ,68.0109568653473
20.7771274 ,Left ,45.8347989716661 ,47.8883727662302 ,67.9695755548141
20.7996873 ,Left ,45.8481788134416 ,47.8705091887253 ,67.9430084147364
20.8220041 ,Left ,45.7438682455756 ,47.8821602820333 ,67.9630752362824
20.8372892 ,Left ,45.6684642099229 ,47.9046923221583 ,68.0213881427782
20.8596486 ,Left ,45.7218817671505 ,47.9159882112728 ,68.0531452135678
20.8819994 ,Left ,45.7609188617726 ,47.9316392398794 ,68.0609801678043
20.8970052 ,Left ,45.7826327242878 ,47.9616438108478 ,68.0754706647286
20.9194266 ,Left ,45.7794654396239 ,48.0016513449866 ,68.083109555152
20.9419874 ,Left ,45.7881134036591 ,48.0550016712041 ,68.0840744945703
20.9570976 ,Left ,45.8324505270632 ,48.0932871263782 ,68.091926671941
20.9804654 ,Left ,45.914479767971 ,48.10752107323 ,68.101171972614
21.0021828 ,Left ,45.9708370496021 ,48.1099028231056 ,68.1065136371524
21.0170708 ,Left ,45.9519780668883 ,48.1089363470014 ,68.121139637397
21.0396098 ,Left ,45.8936045548576 ,48.1125138141168 ,68.1405796446732
21.0619574 ,Left ,45.8671102784594 ,48.1009762962003 ,68.1599335976339
21.0770541 ,Left ,45.8721274462468 ,48.0751777502023 ,68.1706704924379
21.0996065 ,Left ,45.8972897875317 ,48.0481643023181 ,68.1810792528084
21.1219736 ,Left ,45.9140571714183 ,48.0286872398457 ,68.1864620521351
21.1369896 ,Left ,45.922166806611 ,48.0099216586448 ,68.1906572776064
21.1595924 ,Left ,45.9177695541223 ,47.9966179941278 ,68.1934757416756
21.1820238 ,Left ,45.9183462637872 ,47.9865745945317 ,68.1930178723926
21.1970483 ,Left ,45.9325956585793 ,47.9796926602976 ,68.1921628187061
21.2196091 ,Left ,45.9325956585793 ,47.9796926602976 ,68.1921628187061
21.2422775 ,Left ,45.9325956585793 ,47.9796926602976 ,68.1921628187061
21.2575857 ,Left ,45.9242597020197 ,47.9858712490957 ,68.1964972013496
21.2795367 ,Left ,45.9187856200538 ,47.9966347276755 ,68.2027750449357
21.3029639 ,Left ,45.9191395311936 ,48.0070753110117 ,68.2146736495172
21.3171943 ,Left ,45.9271455240315 ,48.0073985998566 ,68.2252659335649
21.3396424 ,Left ,45.9425803961588 ,48.0057254964551 ,68.2396862207412
21.3618148 ,Left ,45.9506299115586 ,48.0066491182437 ,68.252004238943
21.384546 ,Left ,45.9417115295148 ,48.0128869742626 ,68.2619038452646
21.3994564 ,Left ,45.9269342231226 ,48.0161054559599 ,68.2653434030758
21.4222258 ,Left ,45.9269342231226 ,48.0161054559599 ,68.2653434030758
21.4369239 ,Left ,45.9269342231226 ,48.0161054559599 ,68.2653434030758
21.4595831 ,Left ,45.9204328414645 ,48.0184933013196 ,68.2729746641681
21.4898522 ,Left ,45.9274692586343 ,48.0237695624217 ,68.2806587051608
21.5044109 ,Left ,45.9469667233854 ,48.0171663144714 ,68.292742491596
21.526846 ,Left ,45.9700593942209 ,48.0059270014739 ,68.3076060397831
21.5420048 ,Left ,45.9807433046706 ,47.9860663310269 ,68.3210540924083
21.5643989 ,Left ,45.9760161539347 ,47.9665383351886 ,68.3294429188771
21.5793113 ,Left ,45.9672145641646 ,47.951915757835 ,68.3402220989276
21.6020722 ,Left ,45.9704285033587 ,47.9414335928804 ,68.3507263133586
21.6245077 ,Left ,45.9820359882353 ,47.9303145549484 ,68.3650012676727
21.6396019 ,Left ,45.985192626659 ,47.9265750555087 ,68.3746484481565
21.6621265 ,Left ,45.9839949599905 ,47.9288727762128 ,68.3931205757266
21.6844859 ,Left ,46.0018436944156 ,47.9287906172715 ,68.4134826459411
21.6994979 ,Left ,46.0036282751094 ,47.9309102284519 ,68.4270783087148
21.7219237 ,Left ,45.9946702523198 ,47.9395822639807 ,68.431470424401
21.751789 ,Left ,46.0069076098526 ,47.9503032489151 ,68.4277577573593
21.7669019 ,Left ,46.0193359878209 ,47.960277962599 ,68.4197530791039
21.7895143 ,Left ,46.0243499807712 ,47.9708817811331 ,68.4173346426439
21.8197841 ,Left ,46.0477517524033 ,47.9815375306828 ,68.4168831403967
21.8420463 ,Left ,46.0380867806071 ,47.9862586633439 ,68.4243043386665
21.8644518 ,Left ,46.0296151477777 ,47.9902082837862 ,68.4367834571455
21.8794704 ,Left ,46.0200392208347 ,47.9857770550151 ,68.4506064579106
21.902369 ,Left ,45.9988512145628 ,47.9823229042784 ,68.4681202279446
21.9244676 ,Left ,45.9832894273592 ,47.9850099922025 ,68.4909102027367
21.9396106 ,Left ,45.9777968457481 ,47.9806507817701 ,68.5088295042922
21.9619783 ,Left ,45.9665032099609 ,47.9685318847 ,68.5313913838828
21.984498 ,Left ,45.9545832944963 ,47.9594851563243 ,68.5557456127762
21.9995178 ,Left ,45.9507628062136 ,47.9455557543541 ,68.5818220547996
22.0297035 ,Left ,45.9879807966377 ,47.9180920195959 ,68.6020250991206
22.0549389 ,Left ,46.0196126475597 ,47.8841086794524 ,68.614825673611
22.0670567 ,Left ,46.0109626668903 ,47.8563272885733 ,68.6115186266488
22.0893779 ,Left ,45.9260943873043 ,47.8570451475728 ,68.6030169333793
22.1045605 ,Left ,45.8635836234997 ,47.8612386536735 ,68.5859241181408
22.1194823 ,Left ,45.8183719063965 ,47.8554333990048 ,68.5356079132694
22.1419644 ,Left ,45.8039777885745 ,47.8298108055492 ,68.4887056838116
22.1644817 ,Left ,45.8256152635621 ,47.7933557665585 ,68.4498311466742
22.1794998 ,Left ,45.8535441435901 ,47.7642885256021 ,68.4319105510786
22.2019559 ,Left ,45.8522794337008 ,47.748914686799 ,68.4347261148148
22.2246519 ,Left ,45.8386793995225 ,47.7412177519003 ,68.4589216671549
22.2395495 ,Left ,45.8489738921531 ,47.7302299012169 ,68.4664586874943
22.262016 ,Left ,45.8220448808796 ,47.7220770140226 ,68.4697383254007
22.2846229 ,Left ,45.8255165216614 ,47.7319624951041 ,68.4745196928
22.3070283 ,Left ,45.8539480485761 ,47.7412157155722 ,68.466000270762
22.3293976 ,Left ,45.8498656693325 ,47.741150672836 ,68.4619941107878
22.3521416 ,Left ,45.7992792369907 ,47.747112286855 ,68.4526064855801
22.3669827 ,Left ,45.756269626678 ,47.7526146181276 ,68.4371892599412
22.3819814 ,Left ,45.7601062184765 ,47.7576552200184 ,68.4196937125848
22.4045018 ,Left ,45.7859351648468 ,47.7538289776545 ,68.4020714613651
22.4195638 ,Left ,45.787781696535 ,47.7469940662251 ,68.3913231023433
22.4420479 ,Left ,45.7740673569826 ,47.7512911320975 ,68.3926788258495
22.4645778 ,Left ,45.7884530311147 ,47.7636957153651 ,68.3975009639575
22.4870437 ,Left ,45.7883728310915 ,47.7832170559353 ,68.4058387569013
22.5019637 ,Left ,45.8034256567517 ,47.8190443691241 ,68.4159773813372
22.524666 ,Left ,45.7827133070485 ,47.865454266079 ,68.4156718459669
22.5470241 ,Left ,45.7514722573235 ,47.9131243896726 ,68.4280794710892
22.5694257 ,Left ,45.7607816007652 ,47.9344394833675 ,68.4439872970039
22.5920257 ,Left ,45.8044651486776 ,47.9460067885818 ,68.4680592746191
22.6220354 ,Left ,45.7772205497839 ,47.9524249982505 ,68.5530384608755
22.6445027 ,Left ,45.7553158568303 ,47.9427176204613 ,68.6233866345022
22.6670466 ,Left ,45.7554450637516 ,47.9239252020508 ,68.678266339614
22.6823733 ,Left ,45.7471919987687 ,47.9139145069435 ,68.7190229834884
22.7050441 ,Left ,45.7878020708726 ,47.8980403604731 ,68.7367688109024
22.7270446 ,Left ,45.8438128587768 ,47.8817599748898 ,68.7285010159714
22.742238 ,Left ,45.8207892104514 ,47.886277289862 ,68.7148419868972
22.7645608 ,Left ,45.7759209600386 ,47.9096323107611 ,68.696448217886
22.7869285 ,Left ,45.7870902482578 ,47.9234840126346 ,68.6688545789446
22.8020447 ,Left ,45.8095359361558 ,47.9193390977957 ,68.6260704072035
22.8244943 ,Left ,45.8306314149398 ,47.9151287370304 ,68.5769400682678
22.8469331 ,Left ,45.8432202987834 ,47.9120273548145 ,68.526295689918
22.862165 ,Left ,45.8528995870331 ,47.9117386220017 ,68.4925892262263
22.8772356 ,Left ,45.865851496594 ,47.9191428336314 ,68.4539998778632
22.907155 ,Left ,45.8662616338189 ,47.9301137641263 ,68.421782689676
22.9221492 ,Left ,45.875987445799 ,47.942857884532 ,68.3971443079714
22.9445904 ,Left ,45.8856406835671 ,47.9536071596454 ,68.3802329359522
22.9670558 ,Left ,45.8611770028518 ,47.9570122519182 ,68.3714855682341
22.9743721 ,Left ,45.8610820153237 ,47.9587706578748 ,68.3642159370914
22.9967657 ,Left ,45.8667981365339 ,47.9468159436556 ,68.3515034805627
23.0194984 ,Left ,45.8580683086198 ,47.9302241453042 ,68.3367507424021
23.03446 ,Left ,45.830015824229 ,47.9147050974628 ,68.3322156063108
23.0569184 ,Left ,45.8103687545901 ,47.8942120555469 ,68.3268106725277
23.0793437 ,Left ,45.8147963000472 ,47.8666236407541 ,68.3173114683054
23.0943638 ,Left ,45.796664724851 ,47.8448243119513 ,68.312307274086
23.1169354 ,Left ,45.742997465918 ,47.8507109882488 ,68.3078295924748
23.139544 ,Left ,45.6890706557285 ,47.8802035975744 ,68.2989119071551
23.1544269 ,Left ,45.7315174534771 ,47.8911179089804 ,68.2813526684767
23.1768278 ,Left ,45.8356030206704 ,47.8614620558399 ,68.2498458742268
23.1993494 ,Left ,45.9220997866512 ,47.835954963269 ,68.2132140922422
23.2143638 ,Left ,45.9019901181156 ,47.8138361457723 ,68.1899592730275
23.2368303 ,Left ,45.7954176408508 ,47.7948922334329 ,68.2139684911701
23.2594906 ,Left ,45.7538615734615 ,47.7714819993118 ,68.2644451344745
23.2743064 ,Left ,45.8188359858831 ,47.7293172926495 ,68.2824905647869
23.2969132 ,Left ,45.8523883083014 ,47.696451163111 ,68.2877296631938
23.3355174 ,Left ,45.8611980018972 ,47.7060374740866 ,68.3314092502795
23.3567639 ,Left ,45.8466533885123 ,47.7315342307939 ,68.3522594500411
23.394237 ,Left ,45.8931895911064 ,47.7571129164609 ,68.3710353022308
23.4168228 ,Left ,45.9703853378335 ,47.7478796997955 ,68.374502032973
23.454418 ,Left ,45.9899607745903 ,47.7495711757286 ,68.4061807340164
23.4768056 ,Left ,45.9598991414298 ,47.7522426063504 ,68.4312851487972
23.5145926 ,Left ,45.9595463651422 ,47.738615653503 ,68.4665644776437
23.5402613 ,Left ,45.9615013826681 ,47.7406106848965 ,68.4775809467831
23.5743831 ,Left ,46.0017086676582 ,47.7472994992073 ,68.5028244546783
23.5968055 ,Left ,46.0179970449217 ,47.7559928501075 ,68.510738827824
23.6344518 ,Left ,46.0251810781493 ,47.7755592311891 ,68.5179324566578
23.6568083 ,Left ,46.0263235414871 ,47.7771910167972 ,68.5174269305848
23.701929 ,Left ,46.0699753476061 ,47.7828408345069 ,68.500498192855
23.7251611 ,Left ,46.0762569640384 ,47.7897595413746 ,68.4889306729376
23.7545639 ,Left ,46.0620618501938 ,47.8018413360918 ,68.4657282028205
23.7768429 ,Left ,46.0566792727634 ,47.8091104868502 ,68.456163512027
23.8142962 ,Left ,46.0463111648188 ,47.8219467422636 ,68.441340589331
23.8369497 ,Left ,46.0423410294361 ,47.8289052224417 ,68.4359999420689
23.874443 ,Left ,46.025740877755 ,47.8465216533887 ,68.4382510457725
23.8968111 ,Left ,46.0292777057333 ,47.8516648676071 ,68.4363350795067
23.93451 ,Left ,45.9973557688254 ,47.8605204612977 ,68.4399707889713
23.9568958 ,Left ,45.9906094342106 ,47.8601319272075 ,68.4361131541013
24.0094602 ,Left ,45.9581282817142 ,47.8561364251739 ,68.4488591045513
24.0770492 ,Left ,45.8929196017741 ,47.8354835257203 ,68.4806160485629
24.114382 ,Left ,45.922928173471 ,47.8130204579448 ,68.4779231557101
24.1371602 ,Left ,45.9471148684119 ,47.7993209688485 ,68.4742858178823
24.1745314 ,Left ,45.9728962050673 ,47.7972951289427 ,68.4799363757347
24.1968511 ,Left ,45.9938621008128 ,47.8121593946512 ,68.4836793749877
24.2343229 ,Left ,46.0503355631015 ,47.849084313433 ,68.4874112411301
24.2642752 ,Left ,46.0602747674312 ,47.8618484316981 ,68.4932415050584
24.31676 ,Left ,46.0472846298243 ,47.8719373114722 ,68.4841335352338
24.3545827 ,Left ,45.9851777952195 ,47.8663045257411 ,68.4685984338658
24.3770335 ,Left ,45.9470082256643 ,47.8579953855872 ,68.4688553019634
24.4146543 ,Left ,45.8737225166896 ,47.8541590860297 ,68.4735785369583
24.436907 ,Left ,45.8510612576639 ,47.8566829278859 ,68.495218298202
24.474376 ,Left ,45.7859172151173 ,47.8978031509983 ,68.6101185989397
24.4969556 ,Left ,45.8040893111601 ,47.9297119423081 ,68.6767744500636
24.5343346 ,Left ,45.8964899443541 ,47.9803842059796 ,68.7878747135391
24.5569964 ,Left ,45.9751263613153 ,47.9818206004569 ,68.8347922253976
24.5945205 ,Left ,46.0376617980347 ,47.9793232765039 ,68.8776835057913
24.6168255 ,Left ,45.9425942752667 ,47.9898887758121 ,68.8687774593447
24.6544838 ,Left ,45.8671022935943 ,47.9627019024494 ,68.8260828418572
24.6769821 ,Left ,45.904491079044 ,47.9085198143096 ,68.7872284114845
24.7144564 ,Left ,45.8876784219919 ,47.8781829924336 ,68.7481919341098
24.7370455 ,Left ,45.8779808418493 ,47.8848114154794 ,68.7483536486102
24.7773085 ,Left ,45.8879454524139 ,47.8716490799775 ,68.7024000166078
24.8044007 ,Left ,45.9059592537863 ,47.8702818552626 ,68.6857256282029
24.8418088 ,Left ,45.8780159134949 ,47.8598805221126 ,68.6543485690283
24.8720538 ,Left ,45.8415193703018 ,47.8431167733077 ,68.6206593071828
24.8870277 ,Left ,45.8639355454701 ,47.8339030769375 ,68.6024512836602
24.9096403 ,Left ,45.8839527346014 ,47.8345839711375 ,68.596832788401
24.9319848 ,Left ,45.8824654726936 ,47.8426337560226 ,68.5955877387127
24.9471225 ,Left ,45.8710728006533 ,47.8623794720757 ,68.6034957668044
24.9695513 ,Left ,45.8504252164893 ,47.9005434121703 ,68.6140560804407
24.9921637 ,Left ,45.7814052882396 ,47.9539559351428 ,68.6246080175047
25.0070396 ,Left ,45.7226580493729 ,48.0041607739474 ,68.6457133969273
25.0376783 ,Left ,45.7490644308865 ,48.0188839615058 ,68.6602950333394
25.0593936 ,Left ,45.8141166498092 ,48.0248625022211 ,68.6751921055528
25.0744686 ,Left ,45.823909124871 ,48.0363808215636 ,68.6930841041651
25.0971624 ,Left ,45.783850520389 ,48.0486926285674 ,68.717934446674
25.1119583 ,Left ,45.7640142101979 ,48.0446032409563 ,68.7381663012239
25.1270186 ,Left ,45.8176006149134 ,48.0308448255688 ,68.7418552375657
25.1495672 ,Left ,45.8560241329596 ,48.0043301311153 ,68.7262542043674
25.172036 ,Left ,45.8362181285688 ,48.0021063589818 ,68.692456725854
25.18818 ,Left ,45.7535937118753 ,48.0284627083142 ,68.6414338887741
25.209711 ,Left ,45.648345936732 ,48.0581425176809 ,68.6006188796501
25.2320153 ,Left ,45.615032246194 ,48.0539485327647 ,68.5551208705477
25.2547272 ,Left ,45.6682690056713 ,48.0309325334788 ,68.5041814674769
25.2694029 ,Left ,45.6784798055096 ,48.0085041099944 ,68.4621142636804
25.2919379 ,Left ,45.6342272590079 ,48.0068721346049 ,68.4385412171782
25.3070646 ,Left ,45.6288503465309 ,48.0081491526573 ,68.4183366762203
25.3295304 ,Left ,45.65712366666 ,47.992198108055 ,68.3934890300208
25.3594973 ,Left ,45.7233316073348 ,47.9725114756147 ,68.3635972243603
25.3895915 ,Left ,45.756878754792 ,47.9523519422884 ,68.3320496254053
25.4075723 ,Left ,45.753237199735 ,47.9459073029139 ,68.3127025424642
25.4495583 ,Left ,45.6901804972527 ,47.9170657149465 ,68.2967414765574
25.4719254 ,Left ,45.6919984212384 ,47.894116235701 ,68.2938560842408
25.4945046 ,Left ,45.6884034519613 ,47.8826263881149 ,68.2989176407849
25.50954 ,Left ,45.6449249635679 ,47.8895148786578 ,68.3228142204384
25.5321459 ,Left ,45.5952124392223 ,47.9137657174682 ,68.3401307381383
25.5545023 ,Left ,45.5779812099492 ,47.9327003407413 ,68.3513417052212
25.5694758 ,Left ,45.5962588570917 ,47.915809643025 ,68.3417460839584
25.5919863 ,Left ,45.6540662473238 ,47.873690734519 ,68.3172406449144
25.6145955 ,Left ,45.6960705340777 ,47.8217773683447 ,68.2782047183203
25.6296126 ,Left ,45.6563918336318 ,47.7892371477765 ,68.2623537815737
25.659486 ,Left ,45.5830762475194 ,47.7673658192566 ,68.2827080370876
25.6818194 ,Left ,45.5867951604583 ,47.7476239759192 ,68.2947308116404
25.6971132 ,Left ,45.6119861596793 ,47.7254544959736 ,68.3089624289208
25.7193725 ,Left ,45.6459498219456 ,47.7219360038229 ,68.3298930809013
25.7344529 ,Left ,45.6453083036293 ,47.7411672030377 ,68.3543936833863
25.7494499 ,Left ,45.6394090151548 ,47.7818867447838 ,68.3687170248408
25.7720554 ,Left ,45.6447832351208 ,47.8238920707105 ,68.3766609011115
25.7945925 ,Left ,45.7086511940534 ,47.8447742876951 ,68.3837892814948
25.8095939 ,Left ,45.8240534915108 ,47.8377530868163 ,68.3767538848835
25.8319747 ,Left ,45.8441543199786 ,47.8226864784488 ,68.3785245961217
25.8545135 ,Left ,45.7847386166056 ,47.8178418385455 ,68.3954592424147
25.8771319 ,Left ,45.7295928637625 ,47.8123336907581 ,68.4122064209216
25.8993506 ,Left ,45.7284500187817 ,47.81070025294 ,68.4127320105712
25.9292013 ,Left ,45.7831990778047 ,47.815401905452 ,68.4101424896478
25.9520009 ,Left ,45.8211815950245 ,47.823952996356 ,68.4121643852469
25.974535 ,Left ,45.8411337996082 ,47.8301242749776 ,68.4150468850083
25.9894474 ,Left ,45.8432891323809 ,47.8405249001934 ,68.4152479041623
26.012157 ,Left ,45.8289541257298 ,47.8546438507238 ,68.4173748293539
26.0345926 ,Left ,45.8289456451167 ,47.8687687604551 ,68.4172671600298
26.0494095 ,Left ,45.845762944484 ,47.8786422945914 ,68.4105323133354
26.0719857 ,Left ,45.8689374629938 ,47.884478830679 ,68.4059948163882
26.0944208 ,Left ,45.8763749691976 ,47.8912113386659 ,68.4012067874567
26.1095775 ,Left ,45.8829206569594 ,47.9005197276249 ,68.3990117816463
26.1321139 ,Left ,45.8709032545375 ,47.9125240836741 ,68.3915956454668
26.1545498 ,Left ,45.8495200012483 ,47.9213675009938 ,68.3860799345146
26.1695518 ,Left ,45.8492031848533 ,47.9306449801007 ,68.382203130544
26.1920726 ,Left ,45.8489794993834 ,47.9395334751899 ,68.3761809616257
26.2146285 ,Left ,45.8448317685051 ,47.953575235339 ,68.3721021085616
26.230655 ,Left ,45.8338771349699 ,47.9651925067467 ,68.3718816134011
26.2519056 ,Left ,45.8374698647367 ,47.9679495444065 ,68.3754937507151
26.274605 ,Left ,45.8573106397553 ,47.9671520051499 ,68.3798087187384
26.2967948 ,Left ,45.8526835881109 ,47.9683831616332 ,68.3848039486088
26.3120282 ,Left ,45.8256174285134 ,47.9676901145713 ,68.3912152507093
26.3345525 ,Left ,45.8347778186218 ,47.9628802826501 ,68.4022169422534
26.3570161 ,Left ,45.8443187797236 ,47.9625175440896 ,68.4148858297338
26.3720414 ,Left ,45.8350276388198 ,47.9703729754233 ,68.433429646706
26.3945798 ,Left ,45.8324095454644 ,47.9803998658288 ,68.4485408390197
26.4170433 ,Left ,45.8445267652777 ,47.9881226816848 ,68.4640472168093
26.4321597 ,Left ,45.861686384341 ,47.9922968394278 ,68.4771282836689
26.4545975 ,Left ,45.8746168385509 ,47.9894106478797 ,68.4874935501947
26.4779189 ,Left ,45.8711930292523 ,47.9831443734754 ,68.4984461925093
26.4920902 ,Left ,45.8414261894103 ,47.9802084808196 ,68.5127396599634
26.5145062 ,Left ,45.8215607190004 ,47.9851032305702 ,68.5264182132799
26.536981 ,Left ,45.821388892713 ,47.9888727517752 ,68.5448592560571
26.551879 ,Left ,45.827907364313 ,47.9978011699924 ,68.5560433237847
26.5744571 ,Left ,45.8418749068208 ,48.0036493545574 ,68.5671852384181
26.5969358 ,Left ,45.8527038224866 ,48.0064691272601 ,68.5695410531105
26.6120569 ,Left ,45.8508249428107 ,48.0076683452214 ,68.572213744377
26.6346124 ,Left ,45.831815970968 ,48.0040051611623 ,68.5729846690536
26.6570518 ,Left ,45.818101444212 ,48.0010009123581 ,68.5734003327045
26.6720111 ,Left ,45.8176940021693 ,47.9965489084571 ,68.5717359447656
26.6945728 ,Left ,45.8100599495685 ,47.9920069801523 ,68.5713695865177
26.7170665 ,Left ,45.7830774403503 ,47.9910819361136 ,68.57564857844
26.7321529 ,Left ,45.7390278230621 ,47.9970365712032 ,68.5835873673822
26.7695394 ,Left ,45.6283120343937 ,48.0062983387657 ,68.6127496488684
26.7918813 ,Left ,45.4423151846967 ,48.0004591216471 ,68.6826849379307
26.8068355 ,Left ,45.2364536055161 ,47.9896358463631 ,68.7342941806937
26.8220643 ,Left ,45.0752359032854 ,47.9791644052735 ,68.7697492161145
26.8370426 ,Left ,45.0781498846595 ,47.9687740972872 ,68.82332441959
26.8519838 ,Left ,45.196037321792 ,47.9514536254147 ,68.837799921978
26.8744189 ,Left ,45.3006727460182 ,47.9216986680782 ,68.8097985903679
26.8974691 ,Left ,45.3041698331436 ,47.9105621542304 ,68.7713262081289
26.9126133 ,Left ,45.2417160676895 ,47.9168135926255 ,68.7334552693706
26.9344298 ,Left ,45.1940261792202 ,47.9055388329122 ,68.691958024916
26.9568657 ,Left ,45.2345238376397 ,47.8758669530561 ,68.6390676104286
26.9721481 ,Left ,45.3127085617825 ,47.8354630596144 ,68.5846663330924
26.9943431 ,Left ,45.3918414079794 ,47.8154572094185 ,68.5499388921761
27.0168807 ,Left ,45.4227396735251 ,47.8161886078645 ,68.5212889607984
27.0320316 ,Left ,45.3906317282834 ,47.825253254497 ,68.496641595089
27.0551908 ,Left ,45.3654661195156 ,47.8400447444977 ,68.4816078708389
27.0770574 ,Left ,45.3533843275746 ,47.8523803617811 ,68.4763199239833
27.0920588 ,Left ,45.3642195584799 ,47.8675185222344 ,68.4858139648721
27.114544 ,Left ,45.3854731976446 ,47.8607995062402 ,68.4859897163383
27.1370225 ,Left ,45.4001589451145 ,47.8460617472609 ,68.4791681668771
27.1519638 ,Left ,45.4274662235312 ,47.8371444997882 ,68.4767489080711
27.174799 ,Left ,45.4693044157757 ,47.8284733743456 ,68.4715238962089
27.1968836 ,Left ,45.4782329541368 ,47.8146775646863 ,68.4608365043284
27.2194028 ,Left ,45.4601005159062 ,47.8139864979315 ,68.4545582746358
27.2347409 ,Left ,45.4229044434668 ,47.8342122266177 ,68.4639017849089
27.2570885 ,Left ,45.4054008194999 ,47.8703108103911 ,68.4739425748908
27.2793793 ,Left ,45.3781398384406 ,47.912950601453 ,68.48419675899
27.3020411 ,Left ,45.3561701892514 ,47.9538043249349 ,68.5129126399601
27.3242493 ,Left ,45.4108619408322 ,47.9666270443404 ,68.5462622910135
27.3467687 ,Left ,45.4972336229725 ,47.9631241800951 ,68.5777432272316
27.3619198 ,Left ,45.5328592521505 ,47.9467019902641 ,68.6244294189256
27.3769467 ,Left ,45.5724331116387 ,47.9198494309736 ,68.6913163718291
27.3995044 ,Left ,45.6411442098731 ,47.873837061314 ,68.759184563409
27.4142424 ,Left ,45.7304110074428 ,47.8336620281841 ,68.8109998107621
27.4388034 ,Left ,45.8393074402694 ,47.826759491272 ,68.8513752416775
27.4596014 ,Left ,45.9814131602344 ,47.8335075125584 ,68.8755862940868
27.4745824 ,Left ,45.9634100530722 ,47.8619668929182 ,68.8735202944349
27.4968153 ,Left ,45.8533942010192 ,47.9009282255679 ,68.8576384886544
27.5196003 ,Left ,45.7996609469496 ,47.9277055639202 ,68.8353102108043
27.5343592 ,Left ,45.8008763300125 ,47.9355769742236 ,68.8009404144541
27.5569483 ,Left ,45.8095341603911 ,47.9270823684231 ,68.7680107174969
27.5944835 ,Left ,45.7947643218025 ,47.9222831416889 ,68.735727542746
27.6094904 ,Left ,45.7589405590401 ,47.9293414518485 ,68.7095021808875
27.6319304 ,Left ,45.7399603803771 ,47.9400139482669 ,68.6662018921903
27.65511 ,Left ,45.7360986517539 ,47.9668910194459 ,68.5939005685201
27.6770972 ,Left ,45.7840865400257 ,47.9689264064409 ,68.5490553231433
27.6995592 ,Left ,45.7989482195307 ,47.9672677329454 ,68.5047595043103
27.7144851 ,Left ,45.7653368411521 ,47.9614423539627 ,68.4850827776573
27.7369926 ,Left ,45.7403026169323 ,47.9528055820449 ,68.4743314742328
27.7594684 ,Left ,45.7184505346263 ,47.9320356738876 ,68.4506947322204
27.7745414 ,Left ,45.6782682214068 ,47.9070441647847 ,68.4382521597393
27.7968986 ,Left ,45.6783394580939 ,47.8746965929832 ,68.4206404426488
27.8195846 ,Left ,45.6902131527042 ,47.83422634958 ,68.3980467291375
27.8345329 ,Left ,45.65865850191 ,47.8316115376319 ,68.3802391145224
27.8643996 ,Left ,45.6029460971568 ,47.8569518105948 ,68.3655604089553
27.8887333 ,Left ,45.604898204924 ,47.8811364214476 ,68.3351815168834
27.9019902 ,Left ,45.9097060101593 ,47.8371721465835 ,68.3010004383106
27.9167981 ,Left ,46.2712021613121 ,47.7462025716922 ,68.2366154512561
27.9395189 ,Left ,46.299465434728 ,47.7152880728922 ,68.2237700000758
27.9619084 ,Left ,46.1262406524925 ,47.7558100837278 ,68.3170478312015
27.976988 ,Left ,46.059155147078 ,47.7799566283491 ,68.4046260820619
27.9993955 ,Left ,46.1171980347359 ,47.7629233807368 ,68.4242290161124
28.0219924 ,Left ,46.2060396470637 ,47.7361650280003 ,68.4295898051389
28.0368442 ,Left ,46.2651197606973 ,47.7273516486612 ,68.4479936765631
28.0594811 ,Left ,46.245946639423 ,47.7483077814522 ,68.4659099482917
28.0745464 ,Left ,46.1817413008643 ,47.8031880552763 ,68.4826293821802
28.1048058 ,Left ,46.1973481078996 ,47.8557880837122 ,68.5020789542398
28.1344163 ,Left ,46.3158319971133 ,47.8782163723585 ,68.5117490787584
28.1648029 ,Left ,46.46888700996 ,47.9092153500652 ,68.5321358484871
28.2018076 ,Left ,46.399494139854 ,47.9450831949741 ,68.5642720502269
28.2168717 ,Left ,46.3782594285231 ,47.9575196778189 ,68.5744831275243
28.2395083 ,Left ,46.3988613681359 ,47.9606845861921 ,68.5757165169261
28.2622027 ,Left ,46.4217194608145 ,47.9665389329594 ,68.5742951713324
28.2771915 ,Left ,46.4217194608145 ,47.9665389329594 ,68.5742951713324
28.2995475 ,Left ,46.4217194608145 ,47.9665389329594 ,68.5742951713324
28.3219232 ,Left ,46.4233582144782 ,47.9654803959473 ,68.5742069620224
28.3370048 ,Left ,46.4205238099722 ,47.9741464087829 ,68.5684293765257
28.3669596 ,Left ,46.4146975724373 ,47.9823552993389 ,68.5657851562189
28.3894625 ,Left ,46.409709352075 ,47.9947619908108 ,68.559730202048
28.4044757 ,Left ,46.3895457449954 ,48.0049077604531 ,68.5517343000187
28.4419986 ,Left ,46.366411280096 ,48.0166917555631 ,68.5391690738391
28.4570523 ,Left ,46.3560804641573 ,48.0278157589496 ,68.531624823669
28.4796251 ,Left ,46.3362958816506 ,48.0497008869797 ,68.5263679326627
28.5020651 ,Left ,46.3550467391301 ,48.0702923033114 ,68.5228099552541
28.5170217 ,Left ,46.435979171446 ,48.0619997172552 ,68.5226007479645
28.539553 ,Left ,46.5693024431727 ,48.0155860778177 ,68.535192700784
28.5621115 ,Left ,46.640100817727 ,47.9702060828706 ,68.548704750449
28.577014 ,Left ,46.5804111148714 ,47.9557171346851 ,68.5564379748393
28.5995544 ,Left ,46.5045586877958 ,47.9816674703083 ,68.588550773474
28.6219409 ,Left ,46.4669224531415 ,48.0193040184584 ,68.6369722419999
28.6371346 ,Left ,46.4903200676829 ,48.0350920181175 ,68.6807661041444
28.6593029 ,Left ,46.5404174808199 ,48.0342434034006 ,68.70467917721
28.6820649 ,Left ,46.5513197336636 ,48.0330542340416 ,68.7219866584878
28.7014483 ,Left ,46.4917685049395 ,48.0291783638541 ,68.7446703763935
28.7195123 ,Left ,46.3866747587146 ,48.0200378898805 ,68.7650634034372
28.7422726 ,Left ,46.2849703932839 ,48.0087314255842 ,68.783075233441
28.7738945 ,Left ,46.1815785945439 ,47.9581180885747 ,68.7756972040182
28.7943332 ,Left ,46.2001847229319 ,47.9217320358925 ,68.7693433751115
28.8093491 ,Left ,46.2044114263684 ,47.8997396900598 ,68.7677056576845
28.8318656 ,Left ,46.1877241686185 ,47.8970034776739 ,68.7729263733517
28.854498 ,Left ,46.1803271735924 ,47.9062895275858 ,68.770314687309
28.8695014 ,Left ,46.2002815134045 ,47.9068933334137 ,68.7649162145144
28.8919146 ,Left ,46.2352228754731 ,47.9045480666579 ,68.7552766958869
28.9142281 ,Left ,46.2510923475229 ,47.9052004446316 ,68.7457922040962
28.9294575 ,Left ,46.2349174058802 ,47.9083839361762 ,68.7431727574487
28.9517783 ,Left ,46.2072435988036 ,47.9122562833222 ,68.7420431157435
28.9744318 ,Left ,46.1878597415879 ,47.9110314987884 ,68.7400693631822
28.9895563 ,Left ,46.1850776090451 ,47.910473882802 ,68.7406429745302
29.0194466 ,Left ,46.1657197108991 ,47.9068073319367 ,68.7442586566681
29.0420076 ,Left ,46.1435853515537 ,47.9031858842894 ,68.75024206299
29.0570058 ,Left ,46.1266056960151 ,47.893812626244 ,68.7589606366099
29.072023 ,Left ,46.1108771583751 ,47.8857029295772 ,68.7650272427184
29.0944311 ,Left ,46.0898924777557 ,47.8812913530093 ,68.7761608011897
29.1094084 ,Left ,46.0661252142889 ,47.8769475696799 ,68.7896811375938
29.1320275 ,Left ,46.0515505905625 ,47.8686625104634 ,68.8026750156492
29.1543676 ,Left ,46.0613780889657 ,47.8604375374372 ,68.8094904171673
29.1692537 ,Left ,46.0908380993568 ,47.853268410945 ,68.8155849595605
29.192062 ,Left ,46.1239572101964 ,47.8555047189578 ,68.8245019667306
29.2142764 ,Left ,46.1463736848789 ,47.8571097654372 ,68.8232307553367
29.2293396 ,Left ,46.1751823032269 ,47.8526120378347 ,68.7986113349428
29.2518244 ,Left ,46.1862755407967 ,47.8544945084691 ,68.7637627640476
29.2742478 ,Left ,46.1523487871492 ,47.844446137617 ,68.7093920581231
29.2897 ,Left ,46.0480348265521 ,47.8382059644597 ,68.6580546689312
29.3151981 ,Left ,45.9678856612875 ,47.8283157398144 ,68.6181650484174
29.334255 ,Left ,45.9672770944091 ,47.8041916494732 ,68.5778416275778
29.3492896 ,Left ,46.0027657732544 ,47.7828456240937 ,68.5434068692551
29.3719694 ,Left ,46.044884892645 ,47.7823774410273 ,68.5252778461661
29.4093669 ,Left ,46.0771278851425 ,47.7615686386171 ,68.467899987734
29.4319128 ,Left ,46.0369034620936 ,47.7567102591644 ,68.4352593984346
29.4698041 ,Left ,46.0536559007926 ,47.7487103491916 ,68.4132101195081
29.4918719 ,Left ,45.9961617972352 ,47.7476863797857 ,68.4032161695609
29.5372046 ,Left ,45.9435311760208 ,47.7464139808144 ,68.4071139842692
29.5594818 ,Left ,46.0228067172506 ,47.7351356725122 ,68.4036891024698
29.5893995 ,Left ,46.0398311481716 ,47.7269333098812 ,68.409484154363
29.6120519 ,Left ,45.9895577938804 ,47.7536313561805 ,68.4267453245852
29.6495098 ,Left ,45.9612495881863 ,47.8347015024801 ,68.4427435137535
29.672446 ,Left ,45.9156130221062 ,47.8894926274884 ,68.4587007991009
29.7169479 ,Left ,45.9295130537588 ,47.9371048928452 ,68.5139039108684
29.7396376 ,Left ,45.9395279046592 ,47.946699240076 ,68.5364781843062
29.7693239 ,Left ,45.8389198002752 ,47.9933466622855 ,68.5880539912234
29.7993812 ,Left ,45.8549298351453 ,48.0295903807885 ,68.5792416072205
29.8371526 ,Left ,45.8313333897173 ,48.0948869585926 ,68.5577340334978
29.8517692 ,Left ,45.8405273285876 ,48.1229856878974 ,68.5421546166589
29.8899081 ,Left ,45.6748434880345 ,48.1760215113033 ,68.5080911565756
29.9118653 ,Left ,45.6391196404914 ,48.1804036036505 ,68.4845377353007
29.9500823 ,Left ,45.6797316856775 ,48.1767776717555 ,68.4302473010334
29.9730112 ,Left ,45.6885696772882 ,48.1854662380577 ,68.4087292067457
30.0095483 ,Left ,45.802500305346 ,48.2054691021064 ,68.3563415639443
30.0319976 ,Left ,45.8093110165349 ,48.2050588193244 ,68.3226601176474
30.0767455 ,Left ,45.7979385375832 ,48.2004928805808 ,68.2508182134638
30.0993273 ,Left ,45.7839037474591 ,48.1776579638388 ,68.2124456080855
30.1519198 ,Left ,45.797100733093 ,48.0846706306328 ,68.1381901462977
30.1903947 ,Left ,45.7736769850724 ,48.050572936347 ,68.1635041028055
30.2119677 ,Left ,45.787552907523 ,48.0487023061651 ,68.1872994734511
30.2494494 ,Left ,45.8380630862048 ,48.0506018492407 ,68.1518934034543
30.2719486 ,Left ,45.8971427324858 ,48.0162277114816 ,68.1351877487281
30.3094662 ,Left ,45.9850541412375 ,47.884349146282 ,68.0934177032452
30.3320124 ,Left ,45.890178049178 ,47.8326227839653 ,68.102642718432
30.3778644 ,Left ,45.7779696242106 ,47.7643442136761 ,68.1687219634815
30.3993239 ,Left ,45.8353873950465 ,47.7418391895972 ,68.1989250133662
30.451893 ,Left ,45.8665371945348 ,47.7896702209797 ,68.2738928671265
30.4894054 ,Left ,45.8953507589551 ,47.8197710764823 ,68.2896725181381
30.5118001 ,Left ,45.9514161902464 ,47.8237463996363 ,68.2898358898831
30.5494289 ,Left ,45.9394412166743 ,47.8375365809992 ,68.3054898446653
30.5724455 ,Left ,45.9302766546152 ,47.8445531275687 ,68.3197118716047
30.6167808 ,Left ,45.932199278242 ,47.8519310094524 ,68.3392085389004
30.6394318 ,Left ,45.9825697850026 ,47.8550029654155 ,68.3428546418501
30.6618792 ,Left ,46.0118691765038 ,47.8576078004518 ,68.3448882030492
30.6768914 ,Left ,46.0118691765038 ,47.8576078004518 ,68.3448882030492
30.6918543 ,Left ,46.0132345339264 ,47.8708233867811 ,68.3473422162879
30.7069884 ,Left ,46.0270028900831 ,47.8809124582462 ,68.3456515210014
30.7220034 ,Left ,46.0395071744591 ,47.8891239273997 ,68.3448947979886
30.7444853 ,Left ,46.050862920995 ,47.9030678229721 ,68.3455112813636
30.7670194 ,Left ,46.071178426889 ,47.9157330966089 ,68.3426338303478
30.7820321 ,Left ,46.1014514034332 ,47.9197157183874 ,68.3447481954282
30.8061892 ,Left ,46.1194781877339 ,47.9079893385092 ,68.3441149877752
30.8270674 ,Left ,46.1303384908038 ,47.8893625896573 ,68.345580895551
30.8420854 ,Left ,46.1172562603549 ,47.8694695533338 ,68.3462817926552
30.8644555 ,Left ,46.0947159836502 ,47.8664524171705 ,68.3591536499641
30.8944314 ,Left ,46.091517115021 ,47.8790436890047 ,68.3739060018981
30.9168266 ,Left ,46.1035093364445 ,47.9007864775374 ,68.3895211978066
30.9469397 ,Left ,46.1239533479288 ,47.9239063059254 ,68.4012834181559
30.9619588 ,Left ,46.1448411951574 ,47.9387894437169 ,68.4053210741406
30.9775625 ,Left ,46.1795151887498 ,47.9495950344337 ,68.4077862423642
30.9924146 ,Left ,46.2016096659476 ,47.9466887176167 ,68.4027332412937
31.0070908 ,Left ,46.1934175869814 ,47.9378076787655 ,68.4031103074881
31.0293908 ,Left ,46.1592556631418 ,47.931677268899 ,68.4019304869811
31.0444822 ,Left ,46.1288666082875 ,47.927524501501 ,68.4001589890753
31.0668094 ,Left ,46.1347647957707 ,47.9208418655722 ,68.3933796418082
31.0894009 ,Left ,46.1620277123231 ,47.9140759744143 ,68.3836946186367
31.1044693 ,Left ,46.1620277123231 ,47.9140759744143 ,68.3836946186367
31.1269124 ,Left ,46.1696114187038 ,47.918648404399 ,68.3841557093231
31.1494721 ,Left ,46.1799708488672 ,47.9238077589961 ,68.3840471004992
31.1720255 ,Left ,46.1861315129974 ,47.9292991168436 ,68.3820365678274
31.2020141 ,Left ,46.1793487307836 ,47.9356804145712 ,68.3773010826492
31.231921 ,Left ,46.2010444881812 ,47.9365948712635 ,68.3602918601764
31.2469795 ,Left ,46.1892695863291 ,47.9323485150175 ,68.3579048878582
31.2692629 ,Left ,46.168788036383 ,47.9218864366623 ,68.3555396243088
31.2843311 ,Left ,46.1541495116164 ,47.9100469974345 ,68.3550088014548
31.306926 ,Left ,46.1321784287359 ,47.9057976771754 ,68.3587951035563
31.3294771 ,Left ,46.1022437151419 ,47.9042289336421 ,68.3660479346857
31.3444829 ,Left ,46.0888882905481 ,47.899206902706 ,68.3710888609735
31.3669755 ,Left ,46.0809963722748 ,47.8883698950844 ,68.3762442733245
31.3895212 ,Left ,46.0729383021322 ,47.8758575012065 ,68.3912608402755
31.4057537 ,Left ,46.0573665499174 ,47.8731435927423 ,68.4054693941452
31.4343843 ,Left ,46.0217763588144 ,47.8905207228867 ,68.4242944023071
31.4645987 ,Left ,45.9952119396814 ,47.9249093512458 ,68.4571703839074
31.4793111 ,Left ,46.0054340616278 ,47.9640858965102 ,68.5007622404626
31.494243 ,Left ,46.0391854851816 ,47.9808332005703 ,68.5371178944985
31.524608 ,Left ,46.0987322375341 ,47.9914639553857 ,68.5945401381
31.5468785 ,Left ,46.097881119672 ,47.9931904384905 ,68.6083827036684
31.5693664 ,Left ,46.0926451742039 ,47.9915564717678 ,68.6047784015945
31.5844166 ,Left ,46.1132095463471 ,47.9906631001301 ,68.5881410602117
31.6072594 ,Left ,46.1757587903394 ,47.9733759270901 ,68.5610324519252
31.6294814 ,Left ,46.2276060639801 ,47.9428496337087 ,68.514227403313
31.6443624 ,Left ,46.1718468642195 ,47.9014735651636 ,68.451700993182
31.6669956 ,Left ,46.0713813612637 ,47.8648273960734 ,68.3836534044384
31.6895337 ,Left ,45.9777089807865 ,47.8139759637102 ,68.3202220823568
31.7043136 ,Left ,45.9543245347339 ,47.7534289435215 ,68.2597255673998
31.7269825 ,Left ,46.0051507269786 ,47.6856182334009 ,68.2009120091598
31.7568141 ,Left ,46.067528270682 ,47.6301829445574 ,68.1497897748184
31.7792421 ,Left ,46.081253107737 ,47.596560739277 ,68.100155434441
31.7953386 ,Left ,46.0411751642373 ,47.5686482606437 ,68.0487743452579
31.8095314 ,Left ,45.9763841859457 ,47.5494765637473 ,67.9997426241221
31.8246337 ,Left ,45.9507958201654 ,47.5368879856907 ,67.9644979628403
31.8470602 ,Left ,45.9191796674398 ,47.5417758007534 ,67.949863446998
31.8697548 ,Left ,45.8556100630259 ,47.5510855014238 ,67.9515797733021
31.8844947 ,Left ,45.845149798716 ,47.5618998175659 ,67.9441865248413
31.9078726 ,Left ,45.907380624291 ,47.5580908304017 ,67.9441950716165
31.9295509 ,Left ,45.9864364107032 ,47.5482321637014 ,67.9452524688572
31.9518852 ,Left ,46.0039990486842 ,47.5380018299749 ,67.9533886705094
31.9668049 ,Left ,45.970960246649 ,47.541432216407 ,67.9718484312423
31.9974726 ,Left ,45.9195658347535 ,47.5498161611367 ,67.9946037509923
32.0192673 ,Left ,45.8498323474745 ,47.5839467094556 ,68.0180156542444
32.0420503 ,Left ,45.7843167604972 ,47.6523552946543 ,68.0372376138078
32.0793198 ,Left ,45.7202561204646 ,47.7982070666381 ,68.1138326210113
32.0944361 ,Left ,45.7703162973945 ,47.850108691586 ,68.1573228512267
32.1094894 ,Left ,45.8255105695656 ,47.8969937882561 ,68.2081129358014
32.1320427 ,Left ,45.8812778608715 ,47.9469937489984 ,68.2699193304701
32.1469814 ,Left ,45.9254130669394 ,47.9934531620986 ,68.3183468225792
32.1694423 ,Left ,45.8951435928049 ,48.0425685947567 ,68.3636951248679
32.1919528 ,Left ,45.8278232006874 ,48.0951202135883 ,68.4061475632472
32.2070247 ,Left ,45.8439006815538 ,48.138285428055 ,68.4270324520042
32.2294153 ,Left ,45.8981798583306 ,48.1659320127519 ,68.4193398277293
32.2520617 ,Left ,45.8682424186389 ,48.1972648893622 ,68.3975429814209
32.2670219 ,Left ,45.8155352501059 ,48.2575758755416 ,68.3736977081051
32.2969647 ,Left ,45.7711767904184 ,48.3114063982675 ,68.3429788859905
32.3192747 ,Left ,45.7598801065293 ,48.3350065471604 ,68.3172253106356
32.3344865 ,Left ,45.8065514929507 ,48.3271780798169 ,68.279328118818
32.3569889 ,Left ,45.8382617019382 ,48.3090752767624 ,68.2341172406917
32.3723852 ,Left ,45.8279399902021 ,48.3016492645754 ,68.206117217688
32.3871878 ,Left ,45.8353824314119 ,48.2933053803933 ,68.1975947799309
32.4095019 ,Left ,45.8577048895344 ,48.270652638753 ,68.1818341250889
32.4319632 ,Left ,45.8351707068489 ,48.2522008709293 ,68.1578847928385
32.446966 ,Left ,45.8107372627347 ,48.2492334142846 ,68.1362826135826
32.4695688 ,Left ,45.8253154337373 ,48.2434291958312 ,68.1210297396436
32.4921313 ,Left ,45.8327209893473 ,48.2354823890921 ,68.1146525421021
32.506936 ,Left ,45.8447895434476 ,48.2269590680684 ,68.1050473927881
32.5295179 ,Left ,45.8404245914266 ,48.2146346366268 ,68.0963370472295
32.5520259 ,Left ,45.8225461031255 ,48.1933578558116 ,68.0926115967465
32.5669124 ,Left ,45.8415553214134 ,48.169641309809 ,68.0965667238068
32.5896362 ,Left ,45.8333369558679 ,48.1461419080697 ,68.1131148454367
32.6196624 ,Left ,45.7921264088971 ,48.1323225613709 ,68.1121298268176
32.6344775 ,Left ,45.7913012032688 ,48.1107825933 ,68.1020131760784
32.6569932 ,Left ,45.8503374411691 ,48.0768784994494 ,68.0874701856317
32.6720682 ,Left ,45.9040537565548 ,48.0356453711553 ,68.0613702514138
32.6869473 ,Left ,45.8921337434277 ,47.9996927461627 ,68.0485327924751
32.709501 ,Left ,45.8169669936423 ,47.974783950382 ,68.0727726017576
32.7320601 ,Left ,45.8004622728909 ,47.9616734614476 ,68.0959412586605
32.7468984 ,Left ,45.7997994652713 ,47.9350632391286 ,68.1101250568752
32.7693583 ,Left ,45.8040903630386 ,47.9197226551799 ,68.1235185177273
32.7919526 ,Left ,45.8287814790039 ,47.9204294883366 ,68.1473854968602
32.8070547 ,Left ,45.8277882905048 ,47.9220433487846 ,68.1614619667279
32.8297053 ,Left ,45.8276757908595 ,47.9348107954156 ,68.1707579111746
32.8594776 ,Left ,45.8657364288817 ,47.9488730651732 ,68.1789025794117
32.881859 ,Left ,45.9300942202483 ,47.9528573547415 ,68.1851076612488
32.8970609 ,Left ,45.9582670911218 ,47.9396171814367 ,68.188083783323
32.9120355 ,Left ,45.9423622651361 ,47.9317828651397 ,68.1988499053626
32.9344646 ,Left ,45.9093972215341 ,47.9238814300091 ,68.2141095538515
32.9494657 ,Left ,45.8851579149767 ,47.9148946709708 ,68.2284441969837
32.9719541 ,Left ,45.8873463020214 ,47.9098083763474 ,68.2381269826846
32.9943801 ,Left ,45.9167235257099 ,47.9101339534725 ,68.2456400450199
33.0094108 ,Left ,45.9644441695401 ,47.9130037067579 ,68.2495019057658
33.0318658 ,Left ,45.9879473290117 ,47.914635726641 ,68.2553131078035
33.0556487 ,Left ,45.9862923062546 ,47.9156747299341 ,68.2554119162024
33.0697719 ,Left ,45.9800024371088 ,47.9179101056089 ,68.2604846847602
33.0920424 ,Left ,45.9835782408179 ,47.9206624672954 ,68.2641056317168
33.1293564 ,Left ,45.9928150752681 ,47.9242326822592 ,68.2644022101723
33.1442314 ,Left ,46.0017196165503 ,47.9297268910602 ,68.2600268763385
33.1894473 ,Left ,46.0340156337206 ,47.9466130276268 ,68.2568658431809
33.2120748 ,Left ,46.03123692294 ,47.9460146804703 ,68.2574517614505
33.2344322 ,Left ,46.0226374917368 ,47.9517226548486 ,68.2626490766422
33.2493718 ,Left ,46.0189700362801 ,47.9479328726074 ,68.2705417432144
33.273068 ,Left ,46.0139431107016 ,47.9426449174527 ,68.281498161903
33.2945307 ,Left ,46.0001169163221 ,47.9452425883087 ,68.2925551902418
33.3094921 ,Left ,45.9884481438556 ,47.9514972680073 ,68.3047770781397
33.3320523 ,Left ,45.9797608502229 ,47.9561915662111 ,68.3215232135413
33.3618665 ,Left ,45.9965271984914 ,47.9485676797471 ,68.3320636012514
33.3769712 ,Left ,46.0003509831974 ,47.9423893803841 ,68.3416716995434
33.407073 ,Left ,45.9698658814274 ,47.9420888815017 ,68.3580174399351
33.4371222 ,Left ,45.9281785695064 ,47.9492267565071 ,68.3720814326358
33.4600136 ,Left ,45.9129745644614 ,47.9474263637461 ,68.3721646952758
33.474494 ,Left ,45.8833225544683 ,47.9453583366768 ,68.3748489041083
33.4903026 ,Left ,45.8388728722179 ,47.9465767968568 ,68.3810696853207
33.5120147 ,Left ,45.8057930771646 ,47.9456375432927 ,68.3955934517892
33.5345067 ,Left ,45.8097862020395 ,47.9373752691901 ,68.4103655440106
33.5494155 ,Left ,45.8185975356622 ,47.9331017939377 ,68.4260932071178
33.5720082 ,Left ,45.8316228552515 ,47.935876891198 ,68.4445256957428
33.5942856 ,Left ,45.8587835757785 ,47.943746100339 ,68.4697541788564
33.6093381 ,Left ,45.8778559714041 ,47.9503179560103 ,68.4960014659395
33.6319791 ,Left ,45.8773674141727 ,47.9619602828106 ,68.5200189450058
33.6545635 ,Left ,45.8842675077883 ,47.9753237003725 ,68.5328823641561
33.6694697 ,Left ,45.9056330065948 ,47.980492270853 ,68.5384337170044
33.6995461 ,Left ,45.9357854095638 ,47.9797260123727 ,68.5362164441175
33.7222904 ,Left ,45.938571172372 ,47.9803007664447 ,68.5356259010104
33.7370573 ,Left ,45.9367474309828 ,47.9835145827256 ,68.5305801076878
33.7528204 ,Left ,45.9416762836765 ,47.9871061651843 ,68.5294162328324
33.7744733 ,Left ,45.9632131908616 ,48.0026880621636 ,68.5165604127977
33.7893409 ,Left ,45.9793693278755 ,48.009625744733 ,68.5014588277166
33.8119352 ,Left ,46.0034256421301 ,48.0132554229095 ,68.4812004619088
33.8344155 ,Left ,46.0405812875186 ,48.0035603131103 ,68.453792026365
33.857823 ,Left ,46.0839732406282 ,47.9969842192637 ,68.429931129671
33.8724885 ,Left ,46.1034818355108 ,48.0015504695838 ,68.4125973178102
33.8943874 ,Left ,46.0805097809406 ,47.9988289546054 ,68.3975633527353
33.9167769 ,Left ,46.0459474238476 ,47.9822951712311 ,68.3844383767524
33.9320828 ,Left ,46.0310046846993 ,47.9479866800832 ,68.3642560793703
33.9618194 ,Left ,46.0376968948205 ,47.9046652892171 ,68.3471459957574
33.9843589 ,Left ,46.0662247838503 ,47.86250056522 ,68.3454361563533
33.9994786 ,Left ,46.0825894490101 ,47.839499241185 ,68.33761093206
34.0443773 ,Left ,45.9515497758547 ,47.8078410524088 ,68.2971618783997
34.0597236 ,Left ,45.9529494726853 ,47.7854056293318 ,68.2685806317665
34.0970018 ,Left ,46.0494005752965 ,47.6854599186225 ,68.1685731533907
34.1119362 ,Left ,46.0707632885578 ,47.6317170166067 ,68.1350957667242
34.1344319 ,Left ,46.0603792916767 ,47.6057502613882 ,68.1087485876653
34.1569713 ,Left ,46.0087226091305 ,47.5852694915341 ,68.0878585880212
34.1720026 ,Left ,45.9027113788989 ,47.5941574990507 ,68.0911534326732
34.1944909 ,Left ,45.8533686806206 ,47.6061834628685 ,68.1154550036352
34.2169783 ,Left ,45.8607854362107 ,47.6268638820457 ,68.1384379211869
34.2323973 ,Left ,45.8749778950205 ,47.6430022095389 ,68.1588931721455
34.2544696 ,Left ,45.9391221271686 ,47.6527775165157 ,68.175059034844
34.2775762 ,Left ,46.028558577896 ,47.650999186378 ,68.189335842551
34.2921063 ,Left ,46.0609956075185 ,47.6588032876452 ,68.1922202814339
34.314513 ,Left ,46.043541632262 ,47.6779391613383 ,68.2056323879208
34.3369841 ,Left ,46.0273470925843 ,47.6983497749902 ,68.2163943677352
34.3520278 ,Left ,45.9868624113251 ,47.7273190633376 ,68.2244596097072
34.3743905 ,Left ,45.9541734984293 ,47.7725079073553 ,68.2357349582742
34.397092 ,Left ,45.8792934264281 ,47.8357658618669 ,68.2501017267737
34.4118343 ,Left ,45.804238495884 ,47.8998365819824 ,68.2687139417006
34.4343338 ,Left ,45.8075275659614 ,47.927907076269 ,68.2913421927506
34.4568664 ,Left ,45.8379770181709 ,47.9486189759426 ,68.3178742244456
34.4718832 ,Left ,45.855362033233 ,47.9617349146844 ,68.352605899701
34.4944702 ,Left ,45.8378077672513 ,47.966313214509 ,68.4131259155994
34.5256273 ,Left ,45.8390223801489 ,47.9555985265183 ,68.4821096921004
34.5397736 ,Left ,45.9308033842272 ,47.9118999727764 ,68.5345104443544
34.5543512 ,Left ,46.0810340015007 ,47.8224655156764 ,68.5552305887862
34.5693425 ,Left ,46.1491611578697 ,47.7355019914316 ,68.5572498298368
34.5842299 ,Left ,46.1310434032062 ,47.7172049293146 ,68.5351473898646
34.6071198 ,Left ,46.0129855189509 ,47.7400645852911 ,68.5047097779946
34.6293449 ,Left ,45.917336974127 ,47.7800169786626 ,68.4634939102125
34.666848 ,Left ,46.0322822869011 ,47.8032398932927 ,68.3908154360589
34.6895484 ,Left ,46.0871567266387 ,47.7969183553953 ,68.3694598774177
34.7042474 ,Left ,46.1311001724849 ,47.7949174958261 ,68.347104437196
34.7275446 ,Left ,46.1097041168735 ,47.785930674727 ,68.3261574315477
34.7494973 ,Left ,46.0774509764591 ,47.7799635734265 ,68.3131907533719
34.7642983 ,Left ,46.0635559128049 ,47.7685119986456 ,68.2939994366204
34.7866727 ,Left ,46.0631473303941 ,47.7567708614555 ,68.2611783604714
34.8092716 ,Left ,46.0407423712272 ,47.7406902218826 ,68.2323772742532
34.824192 ,Left ,46.0285181626738 ,47.7225447305075 ,68.2051128238182
34.8468757 ,Left ,46.0238865771797 ,47.7008405446226 ,68.1884920245904
34.8692156 ,Left ,45.9781699931639 ,47.6875561026545 ,68.1886664421828
34.8843286 ,Left ,45.9357150534533 ,47.6796244018595 ,68.2197669554978
34.9068882 ,Left ,45.9527071408721 ,47.6595990103544 ,68.2507452519659
34.9305049 ,Left ,45.9922919880271 ,47.6499425321134 ,68.2694306073316
34.9461091 ,Left ,45.9979067787541 ,47.6648781061879 ,68.2962583755795
34.9667704 ,Left ,45.9703524202913 ,47.6911035004091 ,68.3145937541159
34.989411 ,Left ,45.9701119621058 ,47.7091886314043 ,68.3020870376886
35.0042462 ,Left ,46.0008326167868 ,47.6986081293708 ,68.2689244681789
35.0268628 ,Left ,46.073374852553 ,47.6462254573949 ,68.2251378917752
35.0492798 ,Left ,46.1690080841667 ,47.588442084731 ,68.1738940074835
35.0643394 ,Left ,46.1359434584351 ,47.5455297115597 ,68.1328966156176
35.0944151 ,Left ,45.9813851010929 ,47.5392414340014 ,68.1464061648047
35.1169597 ,Left ,45.894256725866 ,47.5368008554559 ,68.1886397869143
35.1320028 ,Left ,45.9106630213251 ,47.5088994966049 ,68.2048455628984
35.1468554 ,Left ,45.9686641612287 ,47.4921121410067 ,68.2241699113223
35.1692792 ,Left ,45.9749124248767 ,47.5110333124359 ,68.247776675238
35.1844954 ,Left ,45.9196183605369 ,47.5546605215432 ,68.262814208278
35.2072523 ,Left ,45.8967381451945 ,47.6008338029835 ,68.2745689141838
35.2294594 ,Left ,45.9492349024485 ,47.6285837401614 ,68.2777412725648
35.2668175 ,Left ,46.1181227561978 ,47.6257508696745 ,68.2705103085923
35.2894733 ,Left ,46.0835007753252 ,47.6273398045809 ,68.275367693926
35.3270237 ,Left ,45.988770649954 ,47.6312453103977 ,68.3035701141257
35.3498329 ,Left ,46.006845958744 ,47.6177389215264 ,68.3101276037382
35.3944168 ,Left ,46.0312481051071 ,47.6131548587486 ,68.3277364253711
35.4170494 ,Left ,46.0355674662479 ,47.6229944289366 ,68.3418985065414
35.4467608 ,Left ,46.0497583101907 ,47.6480858691455 ,68.3561718489383
35.484504 ,Left ,46.0574579811542 ,47.6787698595898 ,68.3614637714894
35.5070173 ,Left ,46.0703745867048 ,47.691425745707 ,68.3622563755018
35.544534 ,Left ,46.0756609837239 ,47.7142522927851 ,68.3643910193382
35.5669752 ,Left ,46.0656436785185 ,47.7208990881146 ,68.3671463664051
35.604484 ,Left ,46.070153137662 ,47.7415830925237 ,68.3650775739877
35.6343499 ,Left ,46.0871129760956 ,47.7493354581986 ,68.3635566374376
35.6719096 ,Left ,46.1106660096005 ,47.7529061422687 ,68.3616566476071
35.6868463 ,Left ,46.0994182152173 ,47.7509092944856 ,68.3662052458959
35.7245862 ,Left ,46.0254998188966 ,47.7534548140356 ,68.3884364923912
35.748193 ,Left ,45.9890828695716 ,47.7595161348737 ,68.4095948844183
35.7844981 ,Left ,45.9942666455778 ,47.7438666239556 ,68.4299290824617
35.8078115 ,Left ,45.9915129626874 ,47.7414873853746 ,68.4378376938094
35.8447941 ,Left ,46.0043785814077 ,47.7459451670704 ,68.4489887461028
35.8667056 ,Left ,46.0197450596204 ,47.7387719751767 ,68.4548942245139
35.9116564 ,Left ,45.9811327493342 ,47.74367988497 ,68.4693950519534
35.9344007 ,Left ,45.9925508189824 ,47.7434609244268 ,68.4699404321493
35.986723 ,Left ,46.0163347640146 ,47.7571148327325 ,68.4803446609077
36.0244236 ,Left ,46.026012484468 ,47.7792015282579 ,68.4822022699829
36.0468843 ,Left ,46.0364134760321 ,47.7843421205981 ,68.4819643744984
36.0844152 ,Left ,46.0308734381089 ,47.8046844046623 ,68.483965356068
36.1069598 ,Left ,46.0177028130871 ,47.8063397161746 ,68.485642834373
36.1444941 ,Left ,45.9771728944592 ,47.7933782755345 ,68.4964214930026
36.1667803 ,Left ,45.9581713739945 ,47.7872609385217 ,68.5028278209615
36.2045112 ,Left ,45.9632864225539 ,47.764229244719 ,68.5223999824346
36.2270326 ,Left ,45.9798825408771 ,47.7515298398297 ,68.5265642033095
36.2644564 ,Left ,46.0208416351034 ,47.7352315049165 ,68.5394776929583
36.2868942 ,Left ,46.049524509548 ,47.7492729354776 ,68.5349948959337
36.3245638 ,Left ,46.0485921520081 ,47.772118717237 ,68.4868272393443
36.3470072 ,Left ,45.9876914741992 ,47.7854585530597 ,68.4541488702636
36.3844921 ,Left ,45.9493865795055 ,47.7432539416362 ,68.3857621742325
36.3994821 ,Left ,45.9745099721477 ,47.7246502688017 ,68.3546910978056
36.4218173 ,Left ,45.9839920362391 ,47.7150900233835 ,68.3434220467289
36.4369611 ,Left ,45.9936059002721 ,47.7057866860517 ,68.3317305525896
36.4594642 ,Left ,45.9920755941582 ,47.6941019387164 ,68.3225016244966
36.4892457 ,Left ,45.9288608017705 ,47.6970407381185 ,68.322504560285
36.5043015 ,Left ,45.9041027047713 ,47.706567565972 ,68.326704661514
36.5269543 ,Left ,45.8735924506047 ,47.716413581606 ,68.3253033320032
36.5420261 ,Left ,45.8463665921917 ,47.7191808176686 ,68.3173623535574
36.558177 ,Left ,45.8436754198439 ,47.7132017657683 ,68.3095043227416
36.5805095 ,Left ,45.868563777394 ,47.7113316878291 ,68.3056455562561
36.6020161 ,Left ,45.8718957202451 ,47.7068429155832 ,68.3109938251609
36.6169829 ,Left ,45.8724411501555 ,47.7097925160095 ,68.3194775431438
36.6395131 ,Left ,45.8600222795928 ,47.7259236357732 ,68.3325714570722
36.6619674 ,Left ,45.8355723535884 ,47.757676179136 ,68.3540437852987
36.6845086 ,Left ,45.822337841211 ,47.8109366808832 ,68.3792501451854
36.7068847 ,Left ,45.7946674689211 ,47.8663300118987 ,68.4016105069568
36.7369515 ,Left ,45.7838307906326 ,47.9117574004203 ,68.4400529608036
36.7669933 ,Left ,45.9012590367102 ,47.9380449293866 ,68.5040343680017
36.8044151 ,Left ,45.8399404207306 ,47.9721066840722 ,68.5962535231934
36.8193138 ,Left ,45.8826298345093 ,47.9569553397406 ,68.6345869674785
36.8420184 ,Left ,45.9052113726393 ,47.9193977019025 ,68.6445535322402
36.864431 ,Left ,45.8627984240869 ,47.8939821356379 ,68.6577031732627
36.8795064 ,Left ,45.8563587335118 ,47.8553788320316 ,68.6842609631552
36.9018076 ,Left ,45.9402765230984 ,47.8060024784702 ,68.7011712173285
36.9245908 ,Left ,45.9621272119088 ,47.7678746615918 ,68.697018009041
36.9393889 ,Left ,45.8591421152402 ,47.7695387719606 ,68.7038053053358
36.9619058 ,Left ,45.7792079434625 ,47.8012714688181 ,68.7059308185605
36.9845582 ,Left ,45.7685742201876 ,47.8362665011744 ,68.6989384374531
36.9995516 ,Left ,45.8040854526376 ,47.863159156584 ,68.6768604508893
37.0218272 ,Left ,45.8864136583952 ,47.8828353935084 ,68.6536763405377
37.0444238 ,Left ,45.9395339012112 ,47.8994908808134 ,68.6243782634068
37.059531 ,Left ,45.9417557956097 ,47.916876623255 ,68.5927604157137
37.0819474 ,Left ,45.9435989974019 ,47.934777909531 ,68.5659285769778
37.1042448 ,Left ,45.9750838904181 ,47.939472489174 ,68.5326267550246
37.1193143 ,Left ,45.979504090862 ,47.9368611829156 ,68.5065936666561
37.1420867 ,Left ,45.9686810794693 ,47.9378510870537 ,68.4892117232975
37.1645409 ,Left ,45.9622302182345 ,47.9363320269528 ,68.4788642606492
37.1795992 ,Left ,45.9569158988073 ,47.9364386954128 ,68.4680251123017
37.2026642 ,Left ,45.9480896952072 ,47.9320276615086 ,68.4608406526285
37.2265883 ,Left ,45.9315519238681 ,47.9234263672738 ,68.4554367417452
37.2396019 ,Left ,45.9333583573827 ,47.9240164535514 ,68.4454762861504
37.2621327 ,Left ,45.9240208690638 ,47.9222715407463 ,68.4379080554349
37.2844719 ,Left ,45.9197415533755 ,47.924369977721 ,68.4287443244694
37.2994127 ,Left ,45.9215100595106 ,47.9243317072246 ,68.417057895326
37.3216522 ,Left ,45.923614996994 ,47.9311453398977 ,68.401498425408
37.3444703 ,Left ,45.9074853735133 ,47.935719279419 ,68.3892089180558
37.359427 ,Left ,45.9003121215599 ,47.9375996057649 ,68.3828079294478
37.3819445 ,Left ,45.8903039049259 ,47.926532480354 ,68.3697846564651
37.4043716 ,Left ,45.901086258594 ,47.9110712087946 ,68.3546220448532
37.4193533 ,Left ,45.902375953622 ,47.9069569672903 ,68.3434440302898
37.4433344 ,Left ,45.8896661830146 ,47.919997973763 ,68.3454756280908
37.4644728 ,Left ,45.8488114231147 ,47.9266677401338 ,68.3365000312868
37.4868359 ,Left ,45.8653756425198 ,47.9116095651481 ,68.3158600338785
37.5020275 ,Left ,45.9301173144603 ,47.8861209291923 ,68.284962833005
37.5317742 ,Left ,46.0106873211978 ,47.8545696582813 ,68.2458892470275
37.5470992 ,Left ,46.0431684456358 ,47.8305783792452 ,68.2030086965167
37.5694472 ,Left ,45.9792072016619 ,47.8131935556687 ,68.1832258637461
37.5844401 ,Left ,45.9441879901788 ,47.8032328299154 ,68.1876678475007
37.5995971 ,Left ,45.9236997488541 ,47.7838493972906 ,68.1942356370582
37.6295323 ,Left ,45.8717413231945 ,47.767422823125 ,68.1910561740707
37.651794 ,Left ,45.7951226142766 ,47.7545297525683 ,68.2122777089418
37.6819153 ,Left ,45.8899136785313 ,47.70734796105 ,68.2568066355401
37.7043 ,Left ,45.8785045133607 ,47.7075729841179 ,68.286610290587
37.7270227 ,Left ,45.8425897598192 ,47.7400835113586 ,68.309303274965
37.7419762 ,Left ,45.8297512613448 ,47.777625333403 ,68.3260331895896
37.764452 ,Left ,45.8941849672737 ,47.7974713632356 ,68.3240597982248
37.7870152 ,Left ,46.0051133249039 ,47.8054419697339 ,68.3176533309794
37.8019404 ,Left ,46.0694866830481 ,47.8234501493509 ,68.3234502245587
37.8259137 ,Left ,46.0538783781402 ,47.8397893468188 ,68.3440526157094
37.8469948 ,Left ,46.0239828770022 ,47.8561150053749 ,68.3668138653095
37.8620898 ,Left ,46.018136781309 ,47.8610197981138 ,68.3808583105252
37.8846054 ,Left ,46.018136781309 ,47.8610197981138 ,68.3808583105252
37.9069614 ,Left ,46.0477684550452 ,47.8630767132082 ,68.3782121831328
37.9219671 ,Left ,46.0694944359338 ,47.8624912319583 ,68.3704884791639
37.9444726 ,Left ,46.072275721954 ,47.8630811405027 ,68.3698977275716
37.9669508 ,Left ,46.0693290174738 ,47.8573007469177 ,68.3645023662986
37.9820634 ,Left ,46.0583660078401 ,47.8566120873012 ,68.3570260493937
38.0044227 ,Left ,46.0557467602139 ,47.8576931195493 ,68.3477764233081
38.0268937 ,Left ,46.0488001221392 ,47.8588498872326 ,68.3370722350184
38.0420735 ,Left ,46.0545221404786 ,47.8617065173927 ,68.326049452974
38.0644361 ,Left ,46.0560882967248 ,47.8741751796107 ,68.3242310120819
38.0945395 ,Left ,46.0643636420311 ,47.8900812054118 ,68.3224718878205
38.1095451 ,Left ,46.0685763996664 ,47.9108834234091 ,68.3231041857708
38.131943 ,Left ,46.0749612772688 ,47.9279614905255 ,68.3240490682183
38.1470448 ,Left ,46.0931762484396 ,47.9425505708854 ,68.328184329662
38.1618653 ,Left ,46.1050346371565 ,47.9538137706867 ,68.3292695549561
38.1845022 ,Left ,46.1181151708853 ,47.9663450159681 ,68.3277426236773
38.2071001 ,Left ,46.1350181360514 ,47.9741098274482 ,68.3264300956424
38.2219687 ,Left ,46.1350181360514 ,47.9741098274482 ,68.3264300956424
38.2444504 ,Left ,46.1515244906639 ,47.9636717520188 ,68.3254827896853
38.2670992 ,Left ,46.149725025902 ,47.9507248516135 ,68.3280697871747
38.2819526 ,Left ,46.1328199419484 ,47.94296084041 ,68.329389575702
38.3119735 ,Left ,46.1343932572754 ,47.9349210527529 ,68.3305477418105
38.3343407 ,Left ,46.1528436160831 ,47.9208850407179 ,68.332456239253
38.3495827 ,Left ,46.1674917718001 ,47.9042535743774 ,68.3332738304617
38.36457 ,Left ,46.1692110403331 ,47.8890846886469 ,68.3331139893442
38.3870051 ,Left ,46.1569100248112 ,47.8786796225345 ,68.3389009924468
38.4019906 ,Left ,46.1308125747868 ,47.8729227252601 ,68.3480811380191
38.4244622 ,Left ,46.1021627890314 ,47.8781622944825 ,68.3608706688215
38.4470342 ,Left ,46.0950149253932 ,47.8835803685321 ,68.3702847532711
38.4620374 ,Left ,46.1148030402856 ,47.8900972357456 ,68.3755767351776
38.4843759 ,Left ,46.1365255088047 ,47.8930051505317 ,68.3837602182362
38.5071324 ,Left ,46.1448015189707 ,47.9000706773291 ,68.3906016733513
