timestamp,event,roll,pitch,yaw
0.0271956 ,Left ,64,9030311474288 ,43,1389205682737 ,93,2014519593669
0.0418324 ,Left ,64,8762438666563 ,43,1321748368596 ,93,2096194623903
0.0650531 ,Left ,64,8417499174915 ,43,1327442766307 ,93,2103921577365
0.0875394 ,Left ,64,8048146674477 ,43,135032906937 ,93,2068311174719
0.1017283 ,Left ,64,760003584402 ,43,1288334645181 ,93,1995741718566
0.125132 ,Left ,64,7153068568097 ,43,1107819282746 ,93,1977477740203
0.147499 ,Left ,64,6699424865333 ,43,0953851961252 ,93,1950531123295
0.1618844 ,Left ,64,6138429981493 ,43,0802856716087 ,93,1992391772212
0.184893 ,Left ,64,5488706251557 ,43,0720313556962 ,93,2016216804496
0.2074182 ,Left ,64,5018924247487 ,43,061078361796 ,93,1989613424671
0.2215773 ,Left ,64,4684191608289 ,43,0404820699947 ,93,1797360484415
0.2448914 ,Left ,64,4198801019817 ,43,0064205120034 ,93,1504881801122
0.2679449 ,Left ,64,3815558331485 ,42,9659997939637 ,93,1117756410512
0.2821859 ,Left ,64,3458223697969 ,42,9313111331377 ,93,0658061698371
0.3054693 ,Left ,64,3081900839686 ,42,9045025151712 ,93,0169976838903
0.3279271 ,Left ,64,2783250056664 ,42,8832732433756 ,92,9730513389692
0.3422548 ,Left ,64,2609857792477 ,42,8681274949273 ,92,9341543346526
0.3653798 ,Left ,64,247642704158 ,42,8649161149089 ,92,8902512291561
0.3875824 ,Left ,64,2257631151802 ,42,870992303513 ,92,8491756393658
0.4085138 ,Left ,64,2131691006563 ,42,8899782460154 ,92,807585962601
0.42483 ,Left ,64,1978224761183 ,42,9181962361269 ,92,7652260593563
0.4471823 ,Left ,64,1853263059362 ,42,9489303265028 ,92,7336880696167
0.4691122 ,Left ,64,1779231746246 ,42,9967234851261 ,92,7071876377117
0.485308 ,Left ,64,159047609983 ,43,0503292659435 ,92,6958115103507
0.5078344 ,Left ,64,1531017197612 ,43,0991083718875 ,92,6991985844291
0.5287675 ,Left ,64,1754737269728 ,43,1447293176519 ,92,7076715608319
0.5447145 ,Left ,64,1988893336721 ,43,1678616038582 ,92,7201949019003
0.5673777 ,Left ,64,2287775117777 ,43,1779858650823 ,92,7325424240675
0.5889035 ,Left ,64,2715109966959 ,43,230332353947 ,92,7475009985739
0.6055114 ,Left ,64,3236179054881 ,43,2657098382516 ,92,7616425376838
0.6280488 ,Left ,64,3689149375435 ,43,3261843861507 ,92,7590391946177
0.6492097 ,Left ,64,4368932855379 ,43,4102014756482 ,92,7366603745932
0.6653924 ,Left ,64,5603995923397 ,43,4983235051232 ,92,6811838058032
0.6878246 ,Left ,64,6631742839165 ,43,5378118075872 ,92,605023879908
0.7085511 ,Left ,64,7393635593125 ,43,5207139467611 ,92,5280869941335
0.7248528 ,Left ,64,8453336981148 ,43,4580835049649 ,92,472845880583
0.7475719 ,Left ,64,9045781532434 ,43,3771034140944 ,92,4426477753374
0.7691579 ,Left ,64,9637459978938 ,43,2689021320501 ,92,4348478429366
0.7848562 ,Left ,65,048589676404 ,43,2121758289119 ,92,4896460430508
0.81548 ,Left ,65,046527499374 ,43,2133057019203 ,92,5815407133339
0.8305564 ,Left ,65,022073321322 ,43,3282597496325 ,92,6752254175119
0.8446102 ,Left ,65,0315420243243 ,43,4922417599136 ,92,7627707428956
0.8676551 ,Left ,65,054793661587 ,43,6668630782044 ,92,8596329115786
0.8900741 ,Left ,65,0947751293899 ,43,8280132105877 ,92,9534201063723
0.9045243 ,Left ,65,1035270619251 ,43,9560040404787 ,93,0338686739341
0.9275859 ,Left ,65,0790353575413 ,44,0010863841196 ,93,1224681649826
0.9499978 ,Left ,65,0723194530277 ,44,0163074098231 ,93,2195065758472
0.9712216 ,Left ,65,0509012582436 ,43,9780964554253 ,93,3322328860752
0.9875069 ,Left ,65,0091847404923 ,43,9173945038761 ,93,4390526783595
1.0097274 ,Left ,64,9092163671279 ,43,8480734069627 ,93,5611108764235
1.0241399 ,Left ,64,8984729432041 ,43,8331015566968 ,93,6582402541438
1.0476341 ,Left ,64,9099569304899 ,43,8491422761357 ,93,8015572139377
1.0700336 ,Left ,64,8924794991989 ,44,0505146087268 ,93,9307910986259
1.0911861 ,Left ,64,8719660982684 ,44,3580832182461 ,94,0316496029749
1.1074959 ,Left ,64,930568116222 ,44,6482016753153 ,94,0970988366995
1.1303746 ,Left ,65,0181754491171 ,44,8804318587254 ,94,1595558563795
1.1513358 ,Left ,65,0932762644833 ,45,0177599872064 ,94,2306648779434
1.1673618 ,Left ,65,0953229513478 ,45,0626427582214 ,94,274330809507
1.1899722 ,Left ,65,1164861548007 ,45,0305282567914 ,94,3115045795758
1.2109832 ,Left ,65,117593635975 ,44,9731331162612 ,94,3495341229114
1.2273595 ,Left ,65,0944864206364 ,44,9006523244159 ,94,3994657836775
1.2499661 ,Left ,65,1023601883422 ,44,8221645301051 ,94,4307146612051
1.2644227 ,Left ,65,1198541039749 ,44,727961131193 ,94,4491955923579
1.2877768 ,Left ,65,1533405234281 ,44,6469368420141 ,94,462148547405
1.3102165 ,Left ,65,1797230253983 ,44,5783720074706 ,94,4714016971564
1.3312042 ,Left ,65,2270903233449 ,44,5277636603886 ,94,4663215208676
1.3475624 ,Left ,65,256550836808 ,44,4797683849665 ,94,4619372448293
1.3700965 ,Left ,65,2885574713357 ,44,4483281170184 ,94,4568687425173
1.3914595 ,Left ,65,3135100800366 ,44,4237226625995 ,94,4552329430971
1.4076404 ,Left ,65,3326803849601 ,44,4136918451646 ,94,4509558710168
1.4299905 ,Left ,65,3298415319478 ,44,4148716528629 ,94,4527256812059
1.4514265 ,Left ,65,3267776266388 ,44,4174040336131 ,94,4517014868065
1.4675659 ,Left ,65,3264059922944 ,44,4187323538902 ,94,4536177748332
1.4900955 ,Left ,65,3174774702558 ,44,43362002668 ,94,4544653002795
1.5111907 ,Left ,65,2926649929559 ,44,4526533073269 ,94,4534926109488
1.5275089 ,Left ,65,2803858855094 ,44,4680228266577 ,94,4528157625166
1.5498758 ,Left ,65,2645231666096 ,44,4908018734814 ,94,4457335432957
1.5722657 ,Left ,65,2495771343811 ,44,5083899689879 ,94,4354372952492
1.5866549 ,Left ,65,2327182745285 ,44,5144939381215 ,94,4247528351016
1.6100554 ,Left ,65,2068301352581 ,44,526790421832 ,94,418458165335
1.6321981 ,Left ,65,1812844636081 ,44,5355312979429 ,94,414736736119
1.647751 ,Left ,65,1750759494293 ,44,5471571122743 ,94,408595603929
1.6699997 ,Left ,65,1724541260172 ,44,5579928638467 ,94,4001008077129
1.6925314 ,Left ,65,1555395663269 ,44,5531958450323 ,94,3927977923789
1.7074337 ,Left ,65,1562090895646 ,44,5493431299126 ,94,3868242741738
1.7301448 ,Left ,65,1405038646158 ,44,5512138248051 ,94,3847699652811
1.7522943 ,Left ,65,1418705773646 ,44,5555207830478 ,94,3762922645523
1.7672383 ,Left ,65,1419563150172 ,44,5533236127695 ,94,37607806194
1.7898121 ,Left ,65,1419563150172 ,44,5533236127695 ,94,37607806194
1.8122549 ,Left ,65,1305758263541 ,44,5581720969774 ,94,3734445946364
1.827305 ,Left ,65,1305758263541 ,44,5581720969774 ,94,3734445946364
1.849922 ,Left ,65,1305758263541 ,44,5581720969774 ,94,3734445946364
1.8724774 ,Left ,65,1305758263541 ,44,5581720969774 ,94,3734445946364
1.8875075 ,Left ,65,1321681171705 ,44,5601384537427 ,94,3744067219816
1.9099544 ,Left ,65,1297171873515 ,44,5599788627536 ,94,3742522019581
1.9326101 ,Left ,65,1321681171705 ,44,5601384537427 ,94,3744067219816
1.9468558 ,Left ,65,1287101365968 ,44,5553450637504 ,94,374178174961
1.9699824 ,Left ,65,1291964843282 ,44,5484286513402 ,94,3696913821654
1.9927496 ,Left ,65,1281803238957 ,44,531769999819 ,94,3661619008033
2.0066158 ,Left ,65,121533856495 ,44,5044280182161 ,94,3693487074407
2.0298412 ,Left ,65,1348050066966 ,44,4653088500184 ,94,3675159378054
2.0525522 ,Left ,65,1336399725567 ,44,4162438667101 ,94,3598563153519
2.0668661 ,Left ,65,142067418988 ,44,3626669815971 ,94,3491083033857
2.0900679 ,Left ,65,1318310717355 ,44,3024236000328 ,94,3485021201585
2.1124618 ,Left ,65,1389638325709 ,44,2423975532896 ,94,3411373759542
2.126838 ,Left ,65,162885691584 ,44,178809558709 ,94,3251429301711
2.1498601 ,Left ,65,2046893269582 ,44,1163374701517 ,94,3004569854343
2.1730794 ,Left ,65,2392425579625 ,44,0600150008982 ,94,271164677709
2.1868266 ,Left ,65,2607046987545 ,44,0121827081982 ,94,2409485517843
2.2100432 ,Left ,65,275566775613 ,43,957083270259 ,94,2007943681131
2.2325806 ,Left ,65,3135773512461 ,43,8905074850426 ,94,150346926748
2.2467817 ,Left ,65,3636991854589 ,43,8166380771341 ,94,0790796231081
2.2700169 ,Left ,65,3950851142119 ,43,7253122309604 ,93,9926354754913
2.2926986 ,Left ,65,4230322357948 ,43,6348255748278 ,93,8893510987252
2.3135985 ,Left ,65,4503581247751 ,43,54147861706 ,93,7818001085251
2.3300797 ,Left ,65,469827579607 ,43,4595138752904 ,93,6727408693704
2.3525186 ,Left ,65,4658473792129 ,43,3742617788473 ,93,5746929644319
2.3736231 ,Left ,65,4616880255238 ,43,298705006842 ,93,4847913403801
2.3900701 ,Left ,65,4437019843371 ,43,2413249390826 ,93,3928024062457
2.412238 ,Left ,65,4397999320539 ,43,1969765011977 ,93,2957872169767
2.4333927 ,Left ,65,4329956097224 ,43,145079967455 ,93,1938107940908
2.449876 ,Left ,65,3955641294531 ,43,0777237854392 ,93,1016959007421
2.4729688 ,Left ,65,3331044852563 ,43,0067727119359 ,93,0299433059362
2.4939496 ,Left ,65,2504867565295 ,42,947749439007 ,92,9720941610373
2.5104175 ,Left ,65,1774768497412 ,42,8957969179149 ,92,9207211633371
2.5328464 ,Left ,65,1410227586653 ,42,8406219131199 ,92,8643521681308
2.553793 ,Left ,65,1011257622261 ,42,784542662533 ,92,8135961044068
2.5695597 ,Left ,65,0452047707795 ,42,7204679113801 ,92,7603891393133
2.5921639 ,Left ,64,9940585792766 ,42,6500228940147 ,92,6961899702084
2.6134093 ,Left ,64,948310435052 ,42,5841843641927 ,92,6379714493986
2.6291174 ,Left ,64,9106389297942 ,42,5543233084805 ,92,5752398894306
2.6525573 ,Left ,64,8465127350729 ,42,5504526118032 ,92,5204782021375
2.6734242 ,Left ,64,7820523992267 ,42,5652973298569 ,92,4654435616087
2.6894484 ,Left ,64,7110463433353 ,42,5993917462171 ,92,41745115416
2.7123621 ,Left ,64,647114657907 ,42,6609080322631 ,92,3726894101295
2.7353925 ,Left ,64,5632209632857 ,42,7389035027493 ,92,3368653742328
2.7566421 ,Left ,64,466795942073 ,42,8280939229532 ,92,3183892302479
2.7728723 ,Left ,64,4036687839102 ,42,9294979456677 ,92,3027379530921
2.7950938 ,Left ,64,3355869529996 ,43,0325517247131 ,92,2914745113543
2.8093137 ,Left ,64,290937908015 ,43,1319040820592 ,92,2900422487947
2.8326939 ,Left ,64,2647204468351 ,43,2129036406242 ,92,2987949442264
2.8550011 ,Left ,64,2576033528319 ,43,2716039388198 ,92,321946340365
2.8694447 ,Left ,64,25747074777 ,43,3306268098354 ,92,3889328117816
2.8928871 ,Left ,64,2778004252747 ,43,3954307144469 ,92,45956989818
2.9155061 ,Left ,64,2948445936758 ,43,3831956181977 ,92,5715683460515
2.9296943 ,Left ,64,3072406718658 ,43,4141921677214 ,92,7095971867594
2.9525003 ,Left ,64,3478951787903 ,43,5555830944021 ,92,7788556076481
2.9750101 ,Left ,64,4782980481927 ,43,7594582345243 ,92,7459367704608
2.9965478 ,Left ,64,660649506538 ,43,9307224433094 ,92,6553502856733
3.0128134 ,Left ,64,7775596255643 ,44,0571063038236 ,92,574486927949
3.0351297 ,Left ,64,8590808038331 ,44,1038720536292 ,92,5201361308705
3.0563131 ,Left ,64,8912387353427 ,44,028404467406 ,92,5321468026921
3.0727957 ,Left ,64,8607229701401 ,43,8966458407732 ,92,5897862381834
3.0966041 ,Left ,64,8097492998356 ,43,6912374030532 ,92,6847958717981
3.1162243 ,Left ,64,8480920398119 ,43,4291871411927 ,92,7719697620845
3.1325361 ,Left ,64,864491304736 ,43,1255695897186 ,92,8602542908782
3.1547913 ,Left ,64,8758870291432 ,43,087051639716 ,92,8905034415711
3.1760867 ,Left ,64,8480659052385 ,43,1846008246617 ,92,8499605242146
3.1924821 ,Left ,64,8985006345735 ,43,3257429696287 ,92,8117738224781
3.2146754 ,Left ,64,9528337697011 ,43,4566078028464 ,92,8565785395611
3.235904 ,Left ,65,0304540977732 ,43,6712763660965 ,92,9714253908043
3.2523069 ,Left ,65,0949874288049 ,43,929908239209 ,93,1052433706084
3.274935 ,Left ,65,0951645853118 ,44,1190804576166 ,93,2240056478581
3.2968834 ,Left ,65,0826200870705 ,44,2973076469103 ,93,3506834705308
3.3126395 ,Left ,64,9470108996245 ,44,4511995964599 ,93,432951145171
3.3350836 ,Left ,64,8970728972624 ,44,471373381583 ,93,4646580811411
3.3562027 ,Left ,64,8090875179387 ,44,3750134305698 ,93,4999271407219
3.3724177 ,Left ,64,6295700576445 ,44,1679814209084 ,93,5831524255361
3.3953331 ,Left ,64,5926043484834 ,43,9775163574133 ,93,7522645120515
3.4163221 ,Left ,64,6184529057716 ,44,2155473856625 ,93,851660331531
3.4325428 ,Left ,64,5686285237264 ,44,5551865885193 ,93,8552900834243
3.4550402 ,Left ,64,6669070570392 ,44,8048974757672 ,93,8853743317362
3.4760613 ,Left ,64,837599392399 ,44,9941494460853 ,93,9401423760322
3.4923472 ,Left ,64,8859959977232 ,45,1648728295794 ,93,9895615213499
3.5150603 ,Left ,64,8533906618325 ,45,3372624943148 ,94,0201063882239
3.5359874 ,Left ,64,8926804548512 ,45,5170051811926 ,94,0006551447849
3.5525669 ,Left ,64,9886788039972 ,45,6292959414048 ,93,9294648644559
3.5750934 ,Left ,65,0514983037801 ,45,6677510914342 ,93,8439054283579
3.5957522 ,Left ,65,0886713264154 ,45,6097931049529 ,93,7724789576798
3.611804 ,Left ,65,1252190976999 ,45,4730935840218 ,93,7259754922587
3.6349036 ,Left ,65,1459314004718 ,45,3192017743331 ,93,6585276447785
3.6574578 ,Left ,65,1455701147375 ,45,1944562482157 ,93,5487300030843
3.6719638 ,Left ,65,1286099309719 ,45,084738698576 ,93,4404047907488
3.6950921 ,Left ,65,1274331578043 ,44,9689022637645 ,93,385612430816
3.717417 ,Left ,65,123634097547 ,44,808566528667 ,93,3969665356188
3.7320115 ,Left ,65,0695644856147 ,44,698665807007 ,93,4289018154684
3.7550286 ,Left ,64,974598655886 ,44,5832449540715 ,93,4431087296787
3.7774948 ,Left ,64,960262748586 ,44,4331590647016 ,93,4834681279099
3.7917094 ,Left ,65,0286098596642 ,44,276192215986 ,93,5628672803507
3.8150143 ,Left ,65,0442319033579 ,44,2798390485308 ,93,582901627777
3.8375076 ,Left ,65,0802447459309 ,44,3267626173038 ,93,5660274015418
3.8518573 ,Left ,65,19134993367 ,44,2884304383881 ,93,5426976064201
3.8749645 ,Left ,65,2792496405742 ,44,1988755073092 ,93,5377011994424
3.9006931 ,Left ,65,3040547019908 ,44,0519589023031 ,93,5257163320938
3.9045216 ,Left ,65,2942337515348 ,43,8724719204225 ,93,5148615415243
3.9270269 ,Left ,65,2716415314065 ,43,7139580212248 ,93,4958842747277
3.9501812 ,Left ,65,2178370360521 ,43,5051435961855 ,93,4581070997917
3.96449 ,Left ,65,1856799169852 ,43,5012287262448 ,93,4785604751836
3.9870728 ,Left ,65,3414457215494 ,43,4433904411269 ,93,5478939310465
4.0100362 ,Left ,65,5422769550189 ,43,4154147246251 ,93,6055452113242
4.0243612 ,Left ,65,2577257881888 ,43,3927580796139 ,93,7590210689753
4.0468036 ,Left ,65,335062053929 ,43,5993600503682 ,93,7942156053514
4.069744 ,Left ,65,5402374926476 ,43,6613290204872 ,93,7875955075082
4.0841719 ,Left ,65,5362919069027 ,43,5231662428408 ,93,8479318331785
4.1066702 ,Left ,65,4937722289034 ,43,5615572934388 ,93,9131643248166
4.1297994 ,Left ,65,421458129237 ,43,6013556624527 ,93,8767094041257
4.1441223 ,Left ,65,4264192469714 ,43,5897633377192 ,93,7741549841524
4.1659036 ,Left ,65,4104184780526 ,43,4769137844059 ,93,6972500437896
4.1816168 ,Left ,65,3753419310808 ,43,3160743185343 ,93,6420211320622
4.2026308 ,Left ,65,2679219688196 ,43,1548193583274 ,93,5731064372345
4.2259861 ,Left ,65,0001291947694 ,43,0449667971925 ,93,5351559869034
4.2401166 ,Left ,64,9782330137949 ,42,9775375899734 ,93,3918558227379
4.2627094 ,Left ,64,7432464078917 ,43,007883270771 ,93,3713232311189
4.2867492 ,Left ,64,6673826258428 ,42,9883458200686 ,93,3310826014218
4.3001249 ,Left ,64,6058167276094 ,43,0069108131417 ,93,2815821101328
4.3229508 ,Left ,64,5217561166688 ,43,0379504461121 ,93,2240341056488
4.3459853 ,Left ,64,4490460834656 ,43,100524434485 ,93,1601012958225
4.3605641 ,Left ,64,4036109688519 ,43,1898225011025 ,93,0890242655865
4.3828347 ,Left ,64,3611128740285 ,43,282168496289 ,93,0163421897405
4.4062394 ,Left ,64,3455279152153 ,43,373771814594 ,92,9520568908529
4.4203371 ,Left ,64,3472402022361 ,43,4551720147174 ,92,8997997131832
4.4437823 ,Left ,64,3422791312387 ,43,50024044707 ,92,8751745789554
4.466504 ,Left ,64,3410578568936 ,43,5186543363825 ,92,8387705737735
4.4805404 ,Left ,64,3600950276493 ,43,5599777606879 ,92,8347583735604
4.5035226 ,Left ,64,3914791408863 ,43,6126762065274 ,92,8503176431659
4.526211 ,Left ,64,419509079754 ,43,5726603732332 ,92,9165668429812
4.5404087 ,Left ,64,4834430011554 ,43,4452700190035 ,93,0626132966801
4.5628745 ,Left ,64,51647870766 ,43,471421494704 ,93,1717405353553
4.5861375 ,Left ,64,5729520965514 ,43,6315994953852 ,93,1800942490253
4.6003824 ,Left ,64,6992492799142 ,43,7916257219201 ,93,1223481334824
4.6229253 ,Left ,64,835609332254 ,43,9052187843201 ,93,0546818451643
4.645925 ,Left ,64,9140038014595 ,43,9873665476735 ,93,0100220399952
4.6604436 ,Left ,64,9041337183197 ,44,0044413619967 ,92,9957830182849
4.6829646 ,Left ,64,8549377665968 ,43,956918061773 ,93,0092076602993
4.7062465 ,Left ,64,8087649147843 ,43,853015770008 ,93,0499403421726
4.720371 ,Left ,64,7665508356621 ,43,6678373076318 ,93,117270792576
4.743042 ,Left ,64,7119767970473 ,43,458792488252 ,93,2336553012861
4.7663096 ,Left ,64,7114321632754 ,43,2811534028467 ,93,2912662997667
4.7803842 ,Left ,64,835037145486 ,43,203476865117 ,93,3219171434169
4.8028743 ,Left ,64,8814459268983 ,43,2912860056309 ,93,2992439782022
4.8255656 ,Left ,64,7895827754697 ,43,3620880993275 ,93,2656789370547
4.8406549 ,Left ,64,8420763760426 ,43,4944934565648 ,93,2437115099992
4.8628151 ,Left ,64,8316973544686 ,43,6481729271595 ,93,2452630484005
4.8855135 ,Left ,64,7728629410308 ,43,6944889934902 ,93,2504966304038
4.9004283 ,Left ,64,7605355183824 ,43,6382933856311 ,93,2983095825543
4.9228229 ,Left ,64,8017841759209 ,43,626146022243 ,93,4232522938331
4.9460776 ,Left ,64,7643408016566 ,43,7404040429988 ,93,4568675353494
4.9607684 ,Left ,64,6825865441278 ,43,8813101819862 ,93,4615333503112
4.9829565 ,Left ,64,7122322007633 ,44,0215959927295 ,93,4200079444092
5.0144851 ,Left ,64,7471311129362 ,44,1168718393297 ,93,4171533495963
5.0201177 ,Left ,64,5963416708429 ,44,1664207951841 ,93,5140907585033
5.0429694 ,Left ,64,5412751179581 ,44,1606326176975 ,93,6464092563713
5.0652086 ,Left ,64,6163778238681 ,44,1989719646384 ,93,7886902875056
5.0819675 ,Left ,64,6414552625554 ,44,4570310550828 ,93,833945963006
5.1029 ,Left ,64,5442541121581 ,44,6370766195815 ,93,8299604003185
5.1255762 ,Left ,64,5732367445154 ,44,7592539887299 ,93,7752416625449
5.1420086 ,Left ,64,6279968572478 ,44,9605913156059 ,93,6124468192321
5.1630344 ,Left ,64,6112863712988 ,45,0793918682599 ,93,4177918772698
5.1853243 ,Left ,64,575961553914 ,45,0949558930418 ,93,2719698591141
5.201789 ,Left ,64,4579056806305 ,44,9585751577518 ,93,250450841035
5.2229915 ,Left ,64,4082576260498 ,44,6886957516989 ,93,2822482808949
5.2454871 ,Left ,64,3886196290427 ,44,4192935948991 ,93,3367330949105
5.2618426 ,Left ,64,4085519723728 ,44,2248438052136 ,93,367630114794
5.2831054 ,Left ,64,5361255386526 ,44,1008429521186 ,93,3823690422725
5.3054536 ,Left ,64,6223563658736 ,44,0950174304295 ,93,4025141613976
5.3218141 ,Left ,64,6844060117949 ,44,1146301636309 ,93,4748962535307
5.3428933 ,Left ,64,8581970151158 ,44,1465733519976 ,93,5716967845065
5.3656675 ,Left ,65,0136812632562 ,44,2122891861072 ,93,7062476359401
5.3834331 ,Left ,65,1462442451294 ,44,291955659855 ,93,8748963377189
5.4030324 ,Left ,65,2571596704476 ,44,3447868561415 ,94,0246190817764
5.4256529 ,Left ,65,4677896936463 ,44,2994933278948 ,94,08197645048
5.4434892 ,Left ,65,5723261756106 ,44,1633190565485 ,94,1412446655084
5.4629567 ,Left ,65,6808777621875 ,44,0555992774216 ,94,2206882041251
5.4854006 ,Left ,65,6757537028442 ,43,9643024939022 ,94,3211063493871
5.5032295 ,Left ,65,6798133999553 ,43,8799147115666 ,94,3730649147417
5.5230103 ,Left ,65,7150429554353 ,43,8133240172692 ,94,3764631435476
5.5464234 ,Left ,65,7252018032163 ,43,7939593527982 ,94,3612220147913
5.5606759 ,Left ,65,7008137655107 ,43,8431083960052 ,94,3344168605091
5.5831356 ,Left ,65,6634958672994 ,43,9515298981969 ,94,2804700522393
5.6063367 ,Left ,65,5800107647184 ,44,0731486670433 ,94,2013465100408
5.6206462 ,Left ,65,4928138541551 ,44,1920213889819 ,94,1161294045164
5.6430487 ,Left ,65,3922795348088 ,44,3003658215789 ,94,0474908816882
5.6661225 ,Left ,65,307039295566 ,44,3985441968153 ,93,9819460204463
5.6804328 ,Left ,65,1834049511747 ,44,4580074728903 ,93,901199067561
5.7029362 ,Left ,65,0823026925514 ,44,4349529013901 ,93,8228084133577
5.7261117 ,Left ,64,9675792651631 ,44,3739136820412 ,93,7854699290914
5.7410238 ,Left ,64,8386679215592 ,44,3560990535448 ,93,7499826980459
5.7633491 ,Left ,64,7781349510309 ,44,3029610394641 ,93,6882268365315
5.7858258 ,Left ,64,7950653491204 ,44,2966118570762 ,93,6232006984034
5.8011264 ,Left ,64,7785286839497 ,44,324705127533 ,93,559792661579
5.8227674 ,Left ,64,8430287739186 ,44,2887826444306 ,93,5254369767943
5.8454468 ,Left ,65,0103374767959 ,44,2190658953687 ,93,4758654798701
5.8605486 ,Left ,65,1369221204943 ,44,0845822677245 ,93,4061700688273
5.8830278 ,Left ,65,1779345989917 ,43,913856330053 ,93,3369796234845
5.905556 ,Left ,65,1660746193769 ,43,7227301391402 ,93,3057663398373
5.9294047 ,Left ,65,1230958838626 ,43,5596304995698 ,93,305193880997
5.9431822 ,Left ,65,1714691662975 ,43,4233279705728 ,93,3227085750018
5.9653932 ,Left ,65,1349034738339 ,43,2398296131358 ,93,4239221901643
5.9804234 ,Left ,65,1610707736539 ,43,1296959282788 ,93,5753821673
6.0031205 ,Left ,65,1115239069403 ,43,1412758733877 ,93,7068216492939
6.0256756 ,Left ,65,210456054196 ,43,4065976629627 ,93,6737699833837
6.0406601 ,Left ,65,1767456030288 ,43,6709351495104 ,93,7217398483266
6.0630524 ,Left ,65,1554786201911 ,43,8470783811576 ,93,7845525514392
6.0856561 ,Left ,65,0657110332087 ,43,9894652423894 ,93,8206273026337
6.1007287 ,Left ,64,93891149247 ,44,0806899208583 ,93,824644405965
6.1245802 ,Left ,64,7962075182852 ,44,0803017094734 ,93,7942614058496
6.1454307 ,Left ,64,6649961355868 ,44,0095092609079 ,93,7836979184883
6.1605047 ,Left ,64,5729943924073 ,43,9165621336057 ,93,7754483884049
6.1827132 ,Left ,64,4255844737448 ,43,8416789130948 ,93,740209418944
6.2053988 ,Left ,64,2791704251906 ,43,8014025190257 ,93,6632049163711
6.2204527 ,Left ,64,1574332545346 ,43,8337259146908 ,93,5863719450986
6.2444057 ,Left ,64,0457325270743 ,43,8985054964865 ,93,5192191506426
6.2655715 ,Left ,63,978831541193 ,43,9912224687273 ,93,4662457866154
6.2805246 ,Left ,63,8795176873384 ,43,9423207076624 ,93,4360473897216
6.3029479 ,Left ,63,8355686782798 ,43,9323817173377 ,93,3782658340415
6.3256146 ,Left ,63,8025984814625 ,43,9598845606847 ,93,3260105470427
6.3406828 ,Left ,63,8007475309362 ,44,023737896577 ,93,2667874336253
6.3632881 ,Left ,63,7882584006813 ,44,1066042991297 ,93,2234673175518
6.3858852 ,Left ,63,7756868706542 ,44,1971419026197 ,93,2042930853914
6.4008962 ,Left ,63,7608699298928 ,44,2803210382991 ,93,2171185928585
6.4234414 ,Left ,63,7710720207006 ,44,3464805242055 ,93,2350513325302
6.4459911 ,Left ,63,7676397071554 ,44,3935018481971 ,93,2614460941874
6.4637313 ,Left ,63,8296129853933 ,44,4634221602986 ,93,2969952260063
6.4858882 ,Left ,63,9104054820755 ,44,4873455142325 ,93,3189120920884
6.5054489 ,Left ,63,9732852011039 ,44,4183448471554 ,93,4278227969794
6.5233641 ,Left ,64,0525196381427 ,44,348343722151 ,93,5728122804087
6.5457717 ,Left ,64,068763885665 ,44,4285971465509 ,93,6720369966669
6.565677 ,Left ,64,1519046562669 ,44,6159726809535 ,93,6654289081969
6.5877086 ,Left ,64,2913365107822 ,44,7593547396732 ,93,592129016374
6.6056729 ,Left ,64,3733844062483 ,44,825672566818 ,93,5244852659805
6.6252342 ,Left ,64,4597987807856 ,44,8382254327195 ,93,4672379520605
6.6483595 ,Left ,64,4654179862298 ,44,756350287957 ,93,4587807071269
6.6661881 ,Left ,64,4022438674797 ,44,6497621616219 ,93,4946523573497
6.6858602 ,Left ,64,3762772914473 ,44,4881674609565 ,93,5521037972312
6.7083707 ,Left ,64,3577439649958 ,44,2715193317382 ,93,652557535073
6.726274 ,Left ,64,3748837102069 ,43,9843496490434 ,93,721230085207
6.7459207 ,Left ,64,4647889553763 ,43,8602564525051 ,93,7386896838643
6.7683694 ,Left ,64,4430184429194 ,43,857142952846 ,93,7104165318604
6.7861246 ,Left ,64,4177253345727 ,43,9069256586703 ,93,6956748540448
6.8055455 ,Left ,64,3954773087531 ,44,0358620364264 ,93,6883607350914
6.823204 ,Left ,64,3847880915774 ,44,1022312704086 ,93,7204717905894
6.8462102 ,Left ,64,4953913287806 ,44,1331334588347 ,93,7840649735398
6.8658585 ,Left ,64,5170142120968 ,44,2065563664314 ,93,9018974824802
6.8883057 ,Left ,64,5781283186943 ,44,4052588798313 ,93,9103382039463
6.9062009 ,Left ,64,5423155371332 ,44,5786208569493 ,93,8817226871576
6.9261214 ,Left ,64,5389011967691 ,44,7469787864422 ,93,8709056271257
6.9481562 ,Left ,64,5137242671952 ,44,8289897762468 ,93,8640742221517
6.9660515 ,Left ,64,5045040649819 ,44,8107278423231 ,93,8864039131798
6.9869723 ,Left ,64,4015950737441 ,44,7321419208392 ,94,0112873438753
7.0079691 ,Left ,64,3150700743775 ,44,6551693739344 ,94,1534135294756
7.0258365 ,Left ,64,4480606644595 ,44,7049092144356 ,94,2617437776574
7.0454679 ,Left ,64,4128340845813 ,44,9653040093455 ,94,3544960673741
7.0677471 ,Left ,64,3441608246375 ,45,2270670383777 ,94,4053223928864
7.0857466 ,Left ,64,4002967778137 ,45,3923498933599 ,94,4200860338845
7.1067148 ,Left ,64,5214826853558 ,45,5258819739895 ,94,3790207323037
7.1285012 ,Left ,64,5607348444871 ,45,6379135848168 ,94,2987753392937
7.1461959 ,Left ,64,5559571288471 ,45,7196580369586 ,94,1818655955169
7.1673103 ,Left ,64,5444504585002 ,45,7878604118566 ,94,0393202584525
7.1885442 ,Left ,64,5231450749352 ,45,8227723628927 ,93,8878393659834
7.2060494 ,Left ,64,5327471844171 ,45,7692592060384 ,93,7216889393571
7.2270626 ,Left ,64,5162878972717 ,45,6278126419292 ,93,5852539670588
7.2480291 ,Left ,64,4580588004551 ,45,4196526960459 ,93,495354046396
7.2657858 ,Left ,64,4275011334305 ,45,166589596595 ,93,4308075322
7.2885138 ,Left ,64,4424255365191 ,44,8820155892849 ,93,4019129038576
7.3077013 ,Left ,64,5094242483702 ,44,5822146784576 ,93,4234400722872
7.3258237 ,Left ,64,6325670279925 ,44,51318148877 ,93,4234397386672
7.3467195 ,Left ,64,6198574293924 ,44,4866164649229 ,93,3788115480822
7.368113 ,Left ,64,6992117501067 ,44,3923655521917 ,93,3369809516117
7.3859984 ,Left ,64,8806894501349 ,44,1952173253471 ,93,324329059403
7.4084651 ,Left ,64,9949963174394 ,44,0056026843461 ,93,3288886892672
7.4279659 ,Left ,65,0528733999425 ,43,8188537422277 ,93,3549376592002
7.4458195 ,Left ,65,0611378899888 ,43,6541216967715 ,93,3755370651225
7.4744833 ,Left ,65,0451262197304 ,43,5292428863668 ,93,4091198011473
7.4878728 ,Left ,65,0284409055751 ,43,424960388874 ,93,4677368086632
7.5056021 ,Left ,65,0609197918637 ,43,3161447049618 ,93,5851797542231
7.5287469 ,Left ,65,1004341094754 ,43,3044735920399 ,93,7191447989412
7.5490426 ,Left ,65,1344072611425 ,43,4799439014283 ,93,7718197678992
7.5654938 ,Left ,65,1605031600552 ,43,6846437749423 ,93,7858226878191
7.5875525 ,Left ,65,2096828985876 ,43,8064785841242 ,93,8215944095625
7.6085867 ,Left ,65,2354701278214 ,43,8556192623977 ,93,8683557529807
7.6246451 ,Left ,65,242978381331 ,43,9003674938112 ,93,8966675249316
7.64743 ,Left ,65,2293436229819 ,43,9013304864634 ,93,89678096793
7.6686999 ,Left ,65,1813989757665 ,43,8091223507158 ,93,8628450298744
7.6850923 ,Left ,65,1769386701355 ,43,5926003105108 ,93,8446220469821
7.7076827 ,Left ,65,1681983041224 ,43,3629536899605 ,93,8036242855281
7.7283144 ,Left ,65,1149685121869 ,43,1650289327583 ,93,7308020803875
7.7442407 ,Left ,65,04143305151 ,43,0149714627343 ,93,6307769544
7.7674004 ,Left ,64,9607021149027 ,42,9115915230453 ,93,5377183240575
7.7884008 ,Left ,64,8899900504435 ,42,8157435424079 ,93,4641086122714
7.8051815 ,Left ,64,8661093021424 ,42,7488513720115 ,93,3972838632655
7.8280426 ,Left ,64,8070881304681 ,42,7244011652977 ,93,3369716922101
7.8504123 ,Left ,64,7064600863036 ,42,7326314080196 ,93,2771667185122
7.8646812 ,Left ,64,6230173899386 ,42,7697163802152 ,93,2181938309455
7.8893294 ,Left ,64,5653176911542 ,42,8556910217834 ,93,1540927309312
7.9102267 ,Left ,64,5345261893393 ,42,9848653949665 ,93,0774800746827
7.9244503 ,Left ,64,4833089084279 ,43,1110887711671 ,93,0217992182633
7.9476433 ,Left ,64,4548287661009 ,43,2416239966485 ,92,992601207999
7.9705598 ,Left ,64,4239781152773 ,43,3689523319459 ,92,989785854344
7.9847507 ,Left ,64,4132610664083 ,43,4678470166987 ,92,9882668561975
8.0078151 ,Left ,64,4161102096331 ,43,5231253101637 ,92,999877314415
8.0289465 ,Left ,64,4755830317041 ,43,6046579109835 ,93,0457267693733
8.0451817 ,Left ,64,4948137363337 ,43,596058107542 ,93,1156861886547
8.0675982 ,Left ,64,5227097018779 ,43,5049199706812 ,93,2469871398635
8.0889204 ,Left ,64,5893246914786 ,43,471844972599 ,93,3661083658855
8.105225 ,Left ,64,6423496349433 ,43,5661035739156 ,93,3950707482128
8.1276737 ,Left ,64,8069813633127 ,43,7149972053435 ,93,3387775558525
8.1490271 ,Left ,64,9763760718336 ,43,8241920632969 ,93,2621748049392
8.165197 ,Left ,65,0803362246263 ,43,8811469596593 ,93,2125841584585
8.1877894 ,Left ,65,101065057527 ,43,8891316522442 ,93,2011131996913
8.2089153 ,Left ,65,056684506361 ,43,8464918776313 ,93,2449881591804
8.2251478 ,Left ,65,0074591727046 ,43,7833396953778 ,93,3261188787441
8.2476109 ,Left ,64,9277011043697 ,43,652927333967 ,93,4350310665417
8.2687008 ,Left ,64,938725101485 ,43,5162722559925 ,93,5591984946001
8.2847336 ,Left ,64,9520611638829 ,43,3872903862199 ,93,6722605736066
8.3078389 ,Left ,65,0361592417251 ,43,4824877238045 ,93,6892778893952
8.3287448 ,Left ,64,9651509674341 ,43,5901425412303 ,93,6775595779072
8.344491 ,Left ,65,0254533207288 ,43,6683631289969 ,93,6285077123017
8.3676971 ,Left ,65,0565557135075 ,43,7056631896746 ,93,6057818646643
8.3902098 ,Left ,65,0577580322355 ,43,71937472619 ,93,6113009810893
8.4044794 ,Left ,64,9490926626456 ,43,7126328245243 ,93,6455259304726
8.4277727 ,Left ,64,8544191139973 ,43,6795210925953 ,93,6753609883307
8.4503787 ,Left ,64,8869536362895 ,43,6261921214014 ,93,741174500374
8.4644548 ,Left ,64,9224405626401 ,43,6635212576251 ,93,844902336243
8.4876686 ,Left ,64,9113895271861 ,43,7592019823329 ,93,8695706350959
8.5103619 ,Left ,64,7719444091885 ,43,8366893976788 ,93,8912939455438
8.5245418 ,Left ,64,7787101673842 ,43,989168387917 ,93,8714949383879
8.5476003 ,Left ,64,8081116685343 ,44,0755695611591 ,93,874754403745
8.5701795 ,Left ,64,697742573656 ,44,1492600685877 ,93,9667741085571
8.584653 ,Left ,64,6546987302958 ,44,1541727896214 ,94,0542696985212
8.6078363 ,Left ,64,6835390460689 ,44,1061716855866 ,94,1089394789518
8.630265 ,Left ,64,7009243981807 ,44,256812667638 ,94,1127531802628
8.6515341 ,Left ,64,5517201033457 ,44,4587412857595 ,94,0289074750755
8.6675803 ,Left ,64,5328524121426 ,44,5890766992245 ,93,9400382530835
8.6903268 ,Left ,64,6480242507392 ,44,6900458998152 ,93,8927125151888
8.7114124 ,Left ,64,6763757377028 ,44,7647675269769 ,93,8810291334897
8.7276919 ,Left ,64,6299898584115 ,44,8377570497509 ,93,8838924474645
8.7503753 ,Left ,64,5711294282092 ,44,9258556777433 ,93,9090963885012
8.7714159 ,Left ,64,6050336596125 ,45,0228329472356 ,93,923551516721
8.7877998 ,Left ,64,6850206346246 ,45,079798797707 ,93,9141723819391
8.8103175 ,Left ,64,7600514535976 ,45,0522141671461 ,93,9332726137266
8.8313756 ,Left ,64,8722167711902 ,44,9613628416484 ,93,9786530461632
8.8469904 ,Left ,64,9577418396048 ,44,8334758345983 ,94,0457068151104
8.8701153 ,Left ,65,0246041018061 ,44,6736736456655 ,94,125752910294
8.8928189 ,Left ,65,1425442325592 ,44,4411998306485 ,94,1845496702794
8.9071046 ,Left ,65,3397456835459 ,44,1675536423098 ,94,2346207591512
8.9301922 ,Left ,65,4937563993071 ,43,9445345406333 ,94,2718398906541
8.9527966 ,Left ,65,5594559111897 ,43,7707134274751 ,94,290853981509
8.9741416 ,Left ,65,6464452996216 ,43,649487635998 ,94,276714062233
8.9881296 ,Left ,65,7705510961812 ,43,5726902902877 ,94,2348853646887
9.0043896 ,Left ,65,8875828564454 ,43,579171408562 ,94,1620851294451
9.0270969 ,Left ,66,0095725101273 ,43,7991486838781 ,94,0734645140196
9.0481586 ,Left ,66,1294565166835 ,44,0777973390456 ,93,9651377293717
9.0643705 ,Left ,66,1473725352662 ,44,214483591934 ,93,8743393182149
9.0867936 ,Left ,65,8231472007379 ,44,263601463059 ,93,8955530580411
9.1082138 ,Left ,65,812767494719 ,44,5710195056675 ,93,7949816642325
9.1246548 ,Left ,65,7839973503749 ,44,7096426790743 ,93,6963246260084
9.1470024 ,Left ,65,4417998616296 ,44,666399129467 ,93,7239933518888
9.1680778 ,Left ,65,2561550960355 ,44,6925129112152 ,93,6754437406415
9.1843553 ,Left ,65,1313603251954 ,44,6776752099884 ,93,6243253904003
9.206895 ,Left ,65,0932527341147 ,44,5319828383128 ,93,5928818300771
9.2280635 ,Left ,65,0492946457096 ,44,3869293893756 ,93,5725007482332
9.2444088 ,Left ,65,0789954233404 ,44,3067192542423 ,93,5498757666678
9.2669496 ,Left ,65,1221099407959 ,44,3013528789068 ,93,4665458973153
9.2881052 ,Left ,65,1890254985144 ,44,1387578416233 ,93,3311670169768
9.3046295 ,Left ,65,1476197219574 ,43,7347362097506 ,93,2959109510482
9.3269396 ,Left ,65,2872882580135 ,43,3324445131911 ,93,2458838955003
9.3479683 ,Left ,65,3561115637572 ,43,0706797680181 ,93,2428551003386
9.3678254 ,Left ,65,38410983384 ,42,7970891341048 ,93,2384201763913
9.3868858 ,Left ,65,3515634894688 ,42,6049051118946 ,93,2573751930738
9.4163866 ,Left ,65,3568033384452 ,42,476595529369 ,93,2932875193046
9.4246283 ,Left ,65,3215324323173 ,42,3359773417732 ,93,4059540549612
9.4530105 ,Left ,65,3286261019297 ,42,2922702386274 ,93,5707420663562
9.4694111 ,Left ,65,2756962168723 ,42,453783489805 ,93,6435029281593
9.4844634 ,Left ,65,2687346633978 ,42,6906340187971 ,93,6881729835725
9.5069022 ,Left ,65,3172716648576 ,42,8479914490054 ,93,7735624670202
9.5294084 ,Left ,65,3588319537863 ,42,9109271691808 ,93,8626231190603
9.5507237 ,Left ,65,3568253063814 ,42,9429543223426 ,93,9069066535047
9.5731655 ,Left ,65,2870927159776 ,42,95005657382 ,93,9148193424884
9.5893734 ,Left ,65,2558425111406 ,42,9036502082663 ,93,8560823944932
9.6107594 ,Left ,65,2545214953502 ,42,7859875139887 ,93,7700529804735
9.6267461 ,Left ,65,2471612748135 ,42,6154880865252 ,93,6892142931064
9.6493888 ,Left ,65,1973362183781 ,42,4752398095974 ,93,5908495075741
9.6704474 ,Left ,65,0747599194461 ,42,3670285364597 ,93,480282787977
9.6872874 ,Left ,65,0006125499303 ,42,276011303959 ,93,3598069889933
9.7098068 ,Left ,64,9585161567602 ,42,1920021391882 ,93,2538481270943
9.7328318 ,Left ,64,9069129464882 ,42,1250330653121 ,93,1896626256247
9.7465856 ,Left ,64,872142052689 ,42,1097333001168 ,93,1442647694774
9.7693626 ,Left ,64,8181122878344 ,42,1272292420222 ,93,1053320408401
9.7917248 ,Left ,64,7607880913998 ,42,1639784507195 ,93,080035006122
9.8064482 ,Left ,64,7411849767885 ,42,1953566601473 ,93,0536527973451
9.8286987 ,Left ,64,7086790465994 ,42,2054803096403 ,93,0346581612908
9.8512288 ,Left ,64,6866546049303 ,42,1980035535395 ,93,0098743075641
9.8735007 ,Left ,64,6752649928013 ,42,1954902739461 ,92,9816491733194
9.8901029 ,Left ,64,6809346045415 ,42,2042725225628 ,92,9428482984269
9.9124394 ,Left ,64,6967502468207 ,42,2073620380762 ,92,9084264030874
9.9335467 ,Left ,64,7227098581127 ,42,210310969518 ,92,876753933289
9.9501343 ,Left ,64,7515127432432 ,42,2245836738438 ,92,8314099734486
9.9731004 ,Left ,64,7924179719505 ,42,2432535897603 ,92,7742623867217
9.9935905 ,Left ,64,8279780254114 ,42,2905642613327 ,92,7157124284746
10.0100921 ,Left ,64,8431046531501 ,42,3815924030407 ,92,6603791254031
10.0325288 ,Left ,64,8304460106276 ,42,5309612879275 ,92,6101941482902
10.0535602 ,Left ,64,8008839819274 ,42,7184455923103 ,92,5798066997888
10.0701555 ,Left ,64,7672013950744 ,42,9190664314552 ,92,5748692273778
10.0926211 ,Left ,64,7242215714118 ,43,0770012345759 ,92,6025992924888
10.1136134 ,Left ,64,6903153671946 ,43,1881937274506 ,92,672474606835
10.1301173 ,Left ,64,6808959994771 ,43,291697050671 ,92,7906726393831
10.1525294 ,Left ,64,68069603567 ,43,3579876087303 ,92,8899657579803
10.173734 ,Left ,64,7087845327591 ,43,3420338577404 ,93,0280838889614
10.1894983 ,Left ,64,7680718252982 ,43,2990174817771 ,93,1861103465057
10.2126089 ,Left ,64,778340199204 ,43,3450977271437 ,93,2994440557475
10.2351497 ,Left ,64,9129239742398 ,43,4802139598567 ,93,3156055753327
10.2495219 ,Left ,65,0448220422948 ,43,603065513398 ,93,2839458379466
10.272325 ,Left ,65,1276029976224 ,43,6889959883753 ,93,2603834539545
10.2948962 ,Left ,65,2201337184318 ,43,7232370926276 ,93,2452503925115
10.3093928 ,Left ,65,2517471416526 ,43,681523522523 ,93,2567432044991
10.3323568 ,Left ,65,2508405906758 ,43,6035924976829 ,93,2869494913255
10.3550845 ,Left ,65,2191094778954 ,43,4804727693699 ,93,3407586919022
10.3694255 ,Left ,65,1451826848585 ,43,3433699451761 ,93,4003811758643
10.3927345 ,Left ,65,1059586430321 ,43,162930364085 ,93,4709504208207
10.4150779 ,Left ,65,075785204403 ,42,9639165199164 ,93,5435926418949
10.429362 ,Left ,65,1629113950151 ,42,8598679591415 ,93,6304255627406
10.452734 ,Left ,65,1955511549334 ,42,9352740114199 ,93,6500543379405
10.475131 ,Left ,65,1132981573028 ,43,0188565334208 ,93,6313954793557
10.4893646 ,Left ,65,1751479346727 ,43,0626268078902 ,93,5910263085741
10.5124328 ,Left ,65,2550755353584 ,43,1342714829267 ,93,5647291779643
10.5350818 ,Left ,65,2470923357002 ,43,1403348669093 ,93,5844605810367
10.5563736 ,Left ,65,1947542145211 ,43,1455896887505 ,93,6167297634495
10.5727842 ,Left ,65,179362312398 ,43,1407117946283 ,93,6335665576975
10.5949822 ,Left ,65,2094930027751 ,43,1126869486809 ,93,7018907329987
10.6163779 ,Left ,65,2318698087698 ,43,1657815954672 ,93,8130627580086
10.6326023 ,Left ,65,2109918656266 ,43,2865120503402 ,93,8919858589634
10.6551192 ,Left ,65,2105684327946 ,43,4289093257843 ,93,9292446520894
10.6763147 ,Left ,65,1959044360029 ,43,5553458403881 ,93,9579476021715
10.6927368 ,Left ,65,1815120429515 ,43,6844861484281 ,93,9711037015474
10.7152039 ,Left ,65,1384614509492 ,43,7661361016453 ,94,014156914355
10.7361632 ,Left ,65,0707406361543 ,43,8168615328041 ,94,068483031537
10.752786 ,Left ,65,0035968797936 ,43,8726994071907 ,94,1409036042986
10.7751254 ,Left ,64,8830209982751 ,43,8638773798048 ,94,2139234871927
10.8035633 ,Left ,64,911317490967 ,43,7946698502146 ,94,306014129676
10.8124359 ,Left ,64,9977521411634 ,43,8589902712186 ,94,3541461160234
10.8349996 ,Left ,64,9651610942337 ,44,0503952570065 ,94,3134262474276
10.8562599 ,Left ,64,9492739520542 ,44,2587960142077 ,94,23953677947
10.872577 ,Left ,65,0557152323593 ,44,4403688009089 ,94,1551259518759
10.8953172 ,Left ,65,0820549918333 ,44,5494088447493 ,94,1107678091224
10.9163345 ,Left ,65,052911109877 ,44,6453481193849 ,94,0630063014227
10.9325654 ,Left ,64,9755218029272 ,44,6995830303205 ,94,0147440749797
10.9630271 ,Left ,64,9460459694765 ,44,6654985703469 ,93,9509636382333
10.9766646 ,Left ,64,9632672746359 ,44,5749483628708 ,93,8720723358778
10.9922497 ,Left ,64,9021270228606 ,44,5048796639874 ,93,8083888184165
11.0153933 ,Left ,64,8560423057932 ,44,4477436536249 ,93,720571772813
11.0531894 ,Left ,64,8837469799684 ,44,2314893828729 ,93,6604425804719
11.0750665 ,Left ,64,963810227306 ,44,1458619648683 ,93,6605444140095
11.0975158 ,Left ,64,9067857730519 ,44,1907983180512 ,93,6979778422779
11.111868 ,Left ,65,0054195748646 ,43,9762382235494 ,93,657873954378
11.1350759 ,Left ,65,2423763326344 ,43,7036187239796 ,93,5822994722761
11.1576006 ,Left ,65,4629755737239 ,43,4539550627583 ,93,4844313142838
11.178698 ,Left ,65,6349291057304 ,43,2173625249011 ,93,3887716096335
11.1954133 ,Left ,65,8093487565203 ,43,0080750861168 ,93,315587750485
11.2175596 ,Left ,65,9347028982666 ,42,7987314667968 ,93,2816867677538
11.2323899 ,Left ,66,0814378455313 ,42,5518038821826 ,93,3257248230601
11.2554885 ,Left ,66,2558484138411 ,42,4315316596524 ,93,3849516484565
11.277556 ,Left ,66,3776684329695 ,42,4917582813675 ,93,375529849299
11.2919274 ,Left ,66,4577101146047 ,42,5528108531476 ,93,3678261463976
11.3151401 ,Left ,66,6152232462074 ,42,5247232853797 ,93,3841032762577
11.3374759 ,Left ,66,7056808526234 ,42,4278860721395 ,93,3957977907008
11.3519965 ,Left ,66,7499389876343 ,42,3574196384828 ,93,369993092675
11.3751316 ,Left ,66,7056423575676 ,42,3699042023725 ,93,3412274689623
11.3976472 ,Left ,66,621998544268 ,42,3398004202535 ,93,309006400843
11.4120022 ,Left ,66,5735695623959 ,42,2670310545443 ,93,2520236578831
11.435104 ,Left ,66,5024764520076 ,42,1697843900531 ,93,200690663232
11.4573583 ,Left ,66,4177738239055 ,42,0545869249141 ,93,1300641788545
11.478387 ,Left ,66,3159248937297 ,41,9498223955324 ,93,0358987854767
11.4950314 ,Left ,66,1541121031727 ,41,8876440978789 ,92,970831418108
11.5175319 ,Left ,66,0318391911668 ,41,8679545171775 ,92,9037042369006
11.5386608 ,Left ,65,9224181917494 ,41,8662902631336 ,92,8401294081619
11.5565281 ,Left ,65,8340184336829 ,41,871922938466 ,92,8033291675834
11.5776966 ,Left ,65,7415549252381 ,41,9107962601786 ,92,7761084823349
11.5988942 ,Left ,65,6252308386392 ,41,9778989696903 ,92,7546530246129
11.615156 ,Left ,65,5534332420285 ,42,0753177850725 ,92,7281408747032
11.6376363 ,Left ,65,5137418853443 ,42,2001599286068 ,92,6954875048851
11.6589624 ,Left ,65,4802719377626 ,42,3584422982289 ,92,658705681952
11.6752007 ,Left ,65,4501065108936 ,42,5406384157412 ,92,6266516109093
11.6976858 ,Left ,65,4043734546478 ,42,724999001284 ,92,6048954329474
11.7190565 ,Left ,65,3745270838068 ,42,858393318502 ,92,6024854578441
11.7347789 ,Left ,65,3976252013119 ,42,9334497459229 ,92,6300400009587
11.757512 ,Left ,65,3799055463837 ,42,98924238405 ,92,6917832789558
11.778462 ,Left ,65,3382513701381 ,43,0905720821497 ,92,8000056614614
11.795003 ,Left ,65,3167383992924 ,43,1523624240132 ,92,8916470432931
11.8175645 ,Left ,65,3634501040409 ,43,0570927884401 ,93,0158634596251
11.8385823 ,Left ,65,4342998196373 ,42,9472987036167 ,93,1687757821814
11.8551745 ,Left ,65,4351078977784 ,43,0237528440313 ,93,2538710464278
11.8774879 ,Left ,65,4875979974806 ,43,1955609863564 ,93,2321623622652
11.8985471 ,Left ,65,6044614145349 ,43,2912834065324 ,93,1355968443745
11.9153946 ,Left ,65,6815269009529 ,43,3457728565483 ,93,0718793044024
11.9375683 ,Left ,65,6922630706537 ,43,3282180773749 ,93,0432021553619
11.9586841 ,Left ,65,6003453777281 ,43,3098061223571 ,93,0407413563046
11.9750739 ,Left ,65,5576808515782 ,43,254130475906 ,93,0337289512286
11.9975983 ,Left ,65,5849248136587 ,43,1091154715175 ,93,0551354447486
12.0193477 ,Left ,65,5489837768517 ,42,890864299155 ,93,124276136691
12.0360059 ,Left ,65,5935490669217 ,42,8433681043336 ,93,1859667773786
12.0579321 ,Left ,65,5765379715051 ,42,9246039366421 ,93,1910201545316
12.0786856 ,Left ,65,5459317248681 ,42,9958247604445 ,93,1701935898538
12.0943516 ,Left ,65,5558450299714 ,43,1157174696524 ,93,1930060722462
12.1175117 ,Left ,65,5053684474644 ,43,2548477929105 ,93,2591013550889
12.1401021 ,Left ,65,4389917638003 ,43,3290725436626 ,93,3141320613282
12.1545434 ,Left ,65,5375653282079 ,43,4416309907008 ,93,3495869223271
12.17758 ,Left ,65,5707340749934 ,43,5914631499272 ,93,4469812387299
12.2003251 ,Left ,65,5021588584169 ,43,7600696656352 ,93,4845920259651
12.2143766 ,Left ,65,3886024497387 ,43,9288473086298 ,93,5155399511962
12.2375803 ,Left ,65,3011679226477 ,44,0586592479496 ,93,5586133541913
12.2601005 ,Left ,65,2942294498958 ,44,0814570411505 ,93,5814962512261
12.2745681 ,Left ,65,2044617220746 ,43,9789653106587 ,93,681110763189
12.2974658 ,Left ,65,134744314734 ,43,8761510821792 ,93,7729235522443
12.3200227 ,Left ,65,1710439222905 ,43,9620975457586 ,93,8225105030713
12.3345317 ,Left ,65,1247818672281 ,44,2426010441286 ,93,8439866090533
12.3575209 ,Left ,65,0410692638564 ,44,4963596176361 ,93,829165795991
12.3799414 ,Left ,65,0605737049692 ,44,6499601233816 ,93,7869526596203
12.4007732 ,Left ,65,0898595801876 ,44,7280316041131 ,93,7373157588184
12.4173978 ,Left ,65,0716848869421 ,44,7832064136862 ,93,6621348625056
12.4398687 ,Left ,65,031681112241 ,44,8187440902231 ,93,5744198977334
12.4611124 ,Left ,65,021284432996 ,44,7989421819401 ,93,484739764001
12.4776195 ,Left ,65,0172446062661 ,44,6867918222632 ,93,4303677132016
12.5064016 ,Left ,64,9854002438392 ,44,5432314788672 ,93,4046211557058
12.5211873 ,Left ,64,9170511146127 ,44,3670739082174 ,93,3989332088751
12.5377098 ,Left ,64,910322380435 ,44,1638145831005 ,93,4172643785069
12.5600858 ,Left ,64,9878270472524 ,44,1001872597312 ,93,4292174631289
12.5811035 ,Left ,64,9619054763629 ,44,133982351534 ,93,4150789029361
12.5975506 ,Left ,65,0486633357744 ,44,1042639847588 ,93,3921869274538
12.6202362 ,Left ,65,2286569086462 ,43,9303147684344 ,93,3437757454288
12.6412636 ,Left ,65,3131779159061 ,43,712671495482 ,93,3027988655852
12.6575632 ,Left ,65,359659233588 ,43,5147654412957 ,93,3014620111026
12.6801042 ,Left ,65,3762040927024 ,43,315517066099 ,93,2997588733217
12.7010935 ,Left ,65,4018435026896 ,43,0489770809942 ,93,3110837932547
12.7176631 ,Left ,65,4759150514357 ,42,8645943939571 ,93,417260558595
12.7401284 ,Left ,65,470619310727 ,42,8937634303456 ,93,5198619937671
12.7612366 ,Left ,65,5378746236782 ,43,0596615839798 ,93,5872211214273
12.7776319 ,Left ,65,6351595665303 ,43,2001016892235 ,93,6439200670681
12.8001517 ,Left ,65,7450289952792 ,43,2514191356163 ,93,7012617177667
12.8212412 ,Left ,65,8178021907281 ,43,2393949285735 ,93,7324339646077
12.8376814 ,Left ,65,839722844419 ,43,2031135145343 ,93,7330716453415
12.860107 ,Left ,65,8427497755074 ,43,1423086018187 ,93,7277343507376
12.8813119 ,Left ,65,841345408538 ,43,0565635676926 ,93,7240528890731
12.8976659 ,Left ,65,8286794144633 ,42,940046202087 ,93,6951961815387
12.9199387 ,Left ,65,7888109763714 ,42,8213726599326 ,93,6285512046136
12.9410936 ,Left ,65,7340445417744 ,42,7094516717733 ,93,5359337854513
12.9576251 ,Left ,65,6872596125262 ,42,6100033470985 ,93,4280458479735
12.9801433 ,Left ,65,6193930859271 ,42,527343812397 ,93,3580044536876
13.0010538 ,Left ,65,5159208142107 ,42,4747870907243 ,93,3162312778997
13.0171109 ,Left ,65,4153888517801 ,42,440344066374 ,93,2810749882402
13.0400489 ,Left ,65,3399250953873 ,42,4386125893038 ,93,2412818407369
13.0624651 ,Left ,65,2302412198789 ,42,4416998446363 ,93,2187509212789
13.076933 ,Left ,65,1240876570678 ,42,4530152379886 ,93,2088464471148
13.1001038 ,Left ,65,0273481060594 ,42,4734440792117 ,93,1909790516818
13.1227255 ,Left ,64,9444342355418 ,42,5066252011566 ,93,1733000231313
13.1437407 ,Left ,64,8824656314311 ,42,5605278138187 ,93,1453714997877
13.1536754 ,Left ,64,8164626150813 ,42,6390927091968 ,93,1184482045883
13.1736149 ,Left ,64,73841051913 ,42,7817222876973 ,93,1064195111341
13.189409 ,Left ,64,8447402725201 ,43,0441705211295 ,93,0351296511219
13.2122741 ,Left ,64,8153898869139 ,43,3676924096806 ,93,0303377919864
13.2339789 ,Left ,65,0156289574891 ,43,6684322003901 ,92,9784157507594
13.2496512 ,Left ,64,9639988146033 ,43,6807083162566 ,93,03242481338
13.2722188 ,Left ,64,8005467898746 ,43,7367351009147 ,93,1672428864276
13.2943673 ,Left ,65,04016831028 ,43,9225295591419 ,93,1841076164605
13.3096176 ,Left ,64,8424975139009 ,43,8873385725181 ,93,3549844552062
13.3319924 ,Left ,64,974557113674 ,43,816267014882 ,93,4631370302461
13.3553783 ,Left ,65,1195223024778 ,43,6916134016925 ,93,5713592550356
13.3696485 ,Left ,65,1519969207905 ,43,7457474348 ,93,6247848385511
13.3921335 ,Left ,65,1757626414641 ,43,9153787906707 ,93,577042489026
13.4153562 ,Left ,65,3062757579796 ,44,0195897348628 ,93,4502111876711
13.4294472 ,Left ,65,3886350076232 ,44,0410345423794 ,93,33139452914
13.4521423 ,Left ,65,4169157410775 ,44,0044760478539 ,93,2516586008111
13.4752391 ,Left ,65,4313782889091 ,44,1761655205841 ,93,1961904135356
13.4894539 ,Left ,65,3443189578308 ,44,1516495404006 ,93,1675548803766
13.5120842 ,Left ,65,2662715649914 ,43,9960689531527 ,93,2563825570267
13.5363102 ,Left ,65,2737711465456 ,43,7287988829202 ,93,3849555922307
13.549239 ,Left ,65,2854363844615 ,43,6896782223524 ,93,438901041484
13.5723036 ,Left ,65,25713678787 ,43,7195600824535 ,93,4049249150747
13.5955213 ,Left ,65,3482846549283 ,43,7504152335002 ,93,3623519593642
13.6166474 ,Left ,65,3833844743296 ,43,8483710648057 ,93,3894108240252
13.6322099 ,Left ,65,3719020404519 ,43,9730497294621 ,93,4508129479673
13.6551995 ,Left ,65,3647108171351 ,44,0335439031899 ,93,5199300962528
13.6762638 ,Left ,65,362768289762 ,44,061536380498 ,93,6367306601255
13.6920427 ,Left ,65,4507380683923 ,44,1874326882604 ,93,7289880822128
13.7151432 ,Left ,65,3673752515733 ,44,3065426562143 ,93,7609930411136
13.7362243 ,Left ,65,2898583070801 ,44,4917806932575 ,93,7763040985009
13.751925 ,Left ,65,2696362440756 ,44,6159526940029 ,93,7633630895034
13.775153 ,Left ,65,219665239239 ,44,5929363146334 ,93,7566034914613
13.7960568 ,Left ,65,1333861821216 ,44,5121220012106 ,93,7985940482399
13.8118969 ,Left ,65,0422581433788 ,44,4640040181024 ,93,8677275206958
13.8351478 ,Left ,65,0908948018003 ,44,5276768796615 ,93,917466299496
13.8559926 ,Left ,65,0399671666521 ,44,7462205663653 ,93,9142297908371
13.8718013 ,Left ,64,9929322885325 ,44,9478581790625 ,93,8650806434436
13.8948576 ,Left ,65,0407128685574 ,45,0324642006753 ,93,7967605605927
13.9162822 ,Left ,65,0672520174605 ,45,0960295758945 ,93,720019811268
13.9317222 ,Left ,65,025985355174 ,45,1612288411115 ,93,6274463082447
13.9551996 ,Left ,64,9935918798081 ,45,1995729609864 ,93,521248123624
13.9763763 ,Left ,64,9454739375349 ,45,2020742511279 ,93,4462731657051
13.9919278 ,Left ,64,9012529954682 ,45,1063249601267 ,93,4047793800242
14.0150573 ,Left ,64,859602420211 ,45,0146266395408 ,93,4173259489736
14.0451668 ,Left ,64,7698160163823 ,44,884373526958 ,93,4307067654118
14.0594671 ,Left ,64,7489658050854 ,44,7196825746373 ,93,4199457383197
14.0825896 ,Left ,64,7807523697855 ,44,4760912442926 ,93,4634837508902
14.1050749 ,Left ,64,8687989173078 ,44,3081463166661 ,93,5538879641327
14.1194099 ,Left ,64,8162361559279 ,44,3037611722829 ,93,6035387760625
14.1422643 ,Left ,64,8827053290168 ,44,2882660492381 ,93,6134845431538
14.1649462 ,Left ,65,0742239933024 ,44,1543243651781 ,93,5915828019844
14.1791842 ,Left ,65,203857036111 ,43,9565981120171 ,93,5747964177574
14.2025989 ,Left ,65,2632605622494 ,43,7674599642741 ,93,5371113082108
14.2252917 ,Left ,65,2620404353375 ,43,5959193120849 ,93,4919743922943
14.2394973 ,Left ,65,3519913933076 ,43,4637577020071 ,93,4275455786807
14.2625223 ,Left ,65,3724573948832 ,43,2734381839125 ,93,4086367261973
14.285149 ,Left ,65,3504648373328 ,43,1115163088772 ,93,5190575610613
14.2994738 ,Left ,65,3179344695997 ,43,1071144934237 ,93,6322478221104
14.3225333 ,Left ,65,3711131914104 ,43,2519660779122 ,93,6620518430433
14.3454897 ,Left ,65,4139423322255 ,43,3844014662868 ,93,6531815934952
14.3666844 ,Left ,65,4815902181899 ,43,446188874075 ,93,654650089143
14.3827313 ,Left ,65,5147141733199 ,43,5024625844049 ,93,6748906506647
14.4051815 ,Left ,65,4838238195445 ,43,5886771342285 ,93,6885353193811
14.4195893 ,Left ,65,4835520812438 ,43,6445188873165 ,93,6421682293149
14.4427348 ,Left ,65,4276548623391 ,43,5854272288809 ,93,5900657320829
14.4650872 ,Left ,65,3855641215907 ,43,413612733869 ,93,5933306099215
14.4859204 ,Left ,65,3696791326499 ,43,2195274910908 ,93,6133909824983
14.5023961 ,Left ,65,3084583499849 ,43,0706337333225 ,93,5995712210133
14.5251045 ,Left ,65,2078523899053 ,42,9909511515044 ,93,5710528737791
14.5462521 ,Left ,65,0882470183835 ,42,9251291874631 ,93,5438851337913
14.569028 ,Left ,65,0336074825569 ,42,8519804656863 ,93,5148753275715
14.5851908 ,Left ,65,0091982558435 ,42,7715093337737 ,93,4970923109142
14.6064396 ,Left ,64,9735625181118 ,42,7156726115331 ,93,4694951945844
14.6226865 ,Left ,64,8796754284415 ,42,6923050277107 ,93,4258407958033
14.6454722 ,Left ,64,7735029576656 ,42,7056367906375 ,93,3754748554253
14.6663461 ,Left ,64,706807064236 ,42,7322890955037 ,93,3237209600983
14.6820318 ,Left ,64,6613353888234 ,42,7654265888536 ,93,266953637067
14.7052133 ,Left ,64,6143969038654 ,42,8144904317317 ,93,1999024217616
14.7264586 ,Left ,64,5471475340338 ,42,8860961106199 ,93,1238155046816
14.7427835 ,Left ,64,5080458287647 ,43,0173320302455 ,93,0606848375804
14.765214 ,Left ,64,5014455476576 ,43,197069277117 ,93,0162947123197
14.7862201 ,Left ,64,5067261123833 ,43,3928823534192 ,93,0055714799775
14.8027435 ,Left ,64,5181430561958 ,43,5455933750465 ,93,0041175527863
14.8252003 ,Left ,64,5366139363845 ,43,6360452281126 ,93,0747655576234
14.8463466 ,Left ,64,5534000703371 ,43,8041487829541 ,93,1914449937694
14.8625921 ,Left ,64,5529335170709 ,43,8697258541294 ,93,274416742371
14.8848764 ,Left ,64,6226693037475 ,43,7488576950287 ,93,4094039071559
14.9061287 ,Left ,64,7218278486328 ,43,6925245241729 ,93,5048051207373
14.9219377 ,Left ,64,7480597588076 ,43,7909544019823 ,93,5127168255813
14.9450547 ,Left ,64,9349114466974 ,43,9243376537711 ,93,3873599473248
14.9674456 ,Left ,65,1231733814725 ,43,9775310322357 ,93,2451192536503
14.9819473 ,Left ,65,1986352843102 ,43,9733390461721 ,93,176505174491
15.0055282 ,Left ,65,1743826026715 ,43,9522118858915 ,93,1899933687282
15.0280288 ,Left ,65,1057668870805 ,43,8873693957622 ,93,2107986580801
15.0424099 ,Left ,65,0712566584105 ,43,7381471530044 ,93,2706903290285
15.0653706 ,Left ,65,088687790023 ,43,5287454458601 ,93,3907387561785
15.0879237 ,Left ,65,057204757173 ,43,3289157242771 ,93,5188150201063
15.1022913 ,Left ,65,1768229796388 ,43,3756949411081 ,93,5191003834965
15.1250004 ,Left ,65,1338453969848 ,43,4444610036358 ,93,4740092122198
15.1473464 ,Left ,65,1830658251248 ,43,5000444418871 ,93,4467575271224
15.1618544 ,Left ,65,1941772053932 ,43,6670520348811 ,93,4605712253015
15.1848912 ,Left ,65,1338849347354 ,43,7763373549999 ,93,5146497538871
15.2075845 ,Left ,65,2205130540008 ,43,8161786051904 ,93,5567870834587
15.2292003 ,Left ,65,2394712475045 ,43,8249508143945 ,93,671225699583
15.2451935 ,Left ,65,1936892702609 ,43,9493689377856 ,93,7963294320663
15.2677253 ,Left ,65,0323532696816 ,44,2006594241504 ,93,9060331831909
15.2889868 ,Left ,64,853644751785 ,44,2768298136118 ,93,9533235916203
15.3057185 ,Left ,64,853534579074 ,44,1712371185656 ,93,9583847078264
15.327703 ,Left ,64,720702872952 ,44,0034890194983 ,94,023529982402
15.3486401 ,Left ,64,7097597759322 ,43,8122332781654 ,94,0868990565184
15.3554506 ,Left ,64,7949227492325 ,43,7154047006558 ,94,1089187215649
15.3704745 ,Left ,64,7582610518612 ,43,7960105548755 ,94,028432387991
15.3929676 ,Left ,64,6546664373858 ,43,8116383050075 ,93,8956610593064
15.4158999 ,Left ,64,6840685534041 ,43,7864116600967 ,93,7492968200328
15.4308617 ,Left ,64,6631100635658 ,43,747775659561 ,93,5804673440555
15.4535251 ,Left ,64,6532733910352 ,43,618374286417 ,93,4245358039305
15.4759637 ,Left ,64,521337693403 ,43,436356270952 ,93,3361392807087
15.4910882 ,Left ,64,3481143635694 ,43,2242510160092 ,93,2716584652592
15.5134123 ,Left ,64,2308218298244 ,42,9644559795837 ,93,2652814103319
15.5358571 ,Left ,64,2633316742226 ,42,8779344404957 ,93,2754108995155
15.5511432 ,Left ,64,3244880545957 ,42,8044800372851 ,93,2885086765011
15.5736207 ,Left ,64,3654729296769 ,42,8395365936226 ,93,2663004892119
15.5956491 ,Left ,64,4328466277505 ,42,8503593522735 ,93,2322382975261
15.6106032 ,Left ,64,6024070689323 ,42,7675871939713 ,93,1874080799039
15.6330691 ,Left ,64,7404314640324 ,42,6095826698811 ,93,1348049498633
15.655624 ,Left ,64,8290423561113 ,42,4429335672515 ,93,1082665350923
15.6705743 ,Left ,64,9026016649039 ,42,2295157097155 ,93,0907997876365
15.693152 ,Left ,64,939253194726 ,41,9575485654276 ,93,1130738988053
15.7156735 ,Left ,64,9000706113174 ,41,7005958045665 ,93,178808179692
15.7319565 ,Left ,64,8830680031723 ,41,5383317394233 ,93,3269417373391
15.7531176 ,Left ,64,836848796385 ,41,5399779766646 ,93,4395351161098
15.7756597 ,Left ,64,9896673341612 ,41,7350437633193 ,93,5184460656127
15.7904091 ,Left ,65,1402075298771 ,41,9185766490675 ,93,5847353038979
15.8139136 ,Left ,65,2766715328629 ,42,0404659766631 ,93,682083704702
15.8361598 ,Left ,65,308604825106 ,42,1177276472834 ,93,771666278048
15.8505262 ,Left ,65,225677466945 ,42,3183587000941 ,93,8673013951665
15.8730556 ,Left ,65,3571840490451 ,42,340987141321 ,93,8346037002923
15.8962354 ,Left ,65,244291397487 ,42,2316089946796 ,93,8593053720946
15.9106422 ,Left ,65,0836430190504 ,42,133047646511 ,93,9098320570768
15.9327888 ,Left ,65,2906970538684 ,42,071068416499 ,93,8069912866469
15.9560442 ,Left ,65,0783066115965 ,41,9074360059614 ,93,8783017136837
15.970543 ,Left ,65,0017849844545 ,41,891873551981 ,93,8359952085057
15.9935554 ,Left ,65,0127947492796 ,41,9648370881519 ,93,7376862908953
16.0170514 ,Left ,64,982077425435 ,41,8939402356331 ,93,6829635156303
16.0308729 ,Left ,64,9762318211949 ,41,928779544105 ,93,6078967201665
16.0534927 ,Left ,64,9493354808712 ,41,987239209558 ,93,5289862933248
16.0765841 ,Left ,64,88347612734 ,42,0777673504061 ,93,4548815756755
16.0907068 ,Left ,64,7583399227078 ,42,1898344182573 ,93,4135229561691
16.113007 ,Left ,64,6461233715158 ,42,3267821140228 ,93,3949715822007
16.1362578 ,Left ,64,4459485311524 ,42,5543509422664 ,93,4233988956239
16.1506967 ,Left ,64,4001900005384 ,42,6293450412613 ,93,4018764199929
16.1731861 ,Left ,64,3486041186441 ,42,9583768492663 ,93,4269235370723
16.1967197 ,Left ,64,283972449924 ,43,1168290640924 ,93,4760071545992
16.210583 ,Left ,64,2539231235469 ,43,2245170176446 ,93,5114848464195
16.2327975 ,Left ,64,2175660407052 ,43,2778397503202 ,93,5691653993753
16.2560046 ,Left ,64,2016803234547 ,43,3556881250716 ,93,6536300438981
16.2702919 ,Left ,64,1742718908924 ,43,4175067035833 ,93,7350324224604
16.2930079 ,Left ,64,2239543654056 ,43,2981398165085 ,93,8340560830002
16.3163861 ,Left ,64,3744618458865 ,43,1836950132331 ,93,9054788607308
16.3305765 ,Left ,64,3609148777366 ,43,2342113567538 ,93,9383324166656
16.3529596 ,Left ,64,4562446714228 ,43,4133407568049 ,93,8867700778832
16.3763807 ,Left ,64,6050286308633 ,43,5334081876684 ,93,7815797797468
16.3904261 ,Left ,64,7105436760427 ,43,5565011331746 ,93,6651880604224
16.4134355 ,Left ,64,7843475100088 ,43,4950885358445 ,93,6050282217247
16.4366047 ,Left ,64,7578280811718 ,43,4286567527097 ,93,5978356576239
16.4511174 ,Left ,64,7340721898044 ,43,3331616777197 ,93,5740781025886
16.4735743 ,Left ,64,7801412014257 ,43,1564156461434 ,93,5500996739921
16.4964432 ,Left ,64,7732984535613 ,42,9045157891694 ,93,6502926086342
16.5109253 ,Left ,64,8841724285578 ,42,8850125451327 ,93,7032199328702
16.5331781 ,Left ,64,8575835933022 ,42,9836877351145 ,93,6417909740002
16.5566323 ,Left ,64,8597332115145 ,43,0601890560499 ,93,5833223924372
16.5708619 ,Left ,64,8991650269773 ,43,2309477067353 ,93,5795081970376
16.5933572 ,Left ,64,9048313214516 ,43,3866454574022 ,93,6247560504738
16.6165217 ,Left ,64,9200486232687 ,43,4967607797972 ,93,6988971075573
16.6304147 ,Left ,64,9385363179734 ,43,6590567607973 ,93,8187242051104
16.6528405 ,Left ,64,9271232563245 ,43,8410028226968 ,93,8656747692299
16.6758275 ,Left ,64,8580787884627 ,44,0125407183816 ,93,8875199781101
16.6903149 ,Left ,64,7625947499587 ,44,1800252366146 ,93,9010105794999
16.7128539 ,Left ,64,7067429226819 ,44,2144893010959 ,93,8933236198878
16.7354292 ,Left ,64,5776444277845 ,44,1174128142769 ,93,9550478286342
16.7517678 ,Left ,64,5625140785223 ,43,9922132425703 ,94,024564825072
16.7727897 ,Left ,64,5955442610607 ,43,9247222625572 ,94,0536579825882
16.7953237 ,Left ,64,5684844669905 ,44,1419559795295 ,94,0033717641983
16.811637 ,Left ,64,4721907508122 ,44,3427528736346 ,93,8927182858915
16.8329447 ,Left ,64,5192659399008 ,44,4921858287933 ,93,7681624108859
16.8556355 ,Left ,64,5415322441447 ,44,6112128975021 ,93,6254209833032
16.8732814 ,Left ,64,5442919226359 ,44,6592361045133 ,93,4736973519141
16.8929798 ,Left ,64,5302700090303 ,44,660768711127 ,93,3680808629692
16.9155392 ,Left ,64,5039655935353 ,44,6560226626174 ,93,2819455473814
16.9334042 ,Left ,64,5276319467834 ,44,6020835162833 ,93,1878014653232
16.9533642 ,Left ,64,5355778670418 ,44,5151328249592 ,93,1403731469759
16.976101 ,Left ,64,5164803079025 ,44,3589728509446 ,93,1552103300221
16.99371 ,Left ,64,5807068490688 ,44,3247095564304 ,93,1682992573809
17.0130646 ,Left ,64,6301073208316 ,44,3581275991651 ,93,1597983554701
17.0356211 ,Left ,64,7736062893005 ,44,3274861316792 ,93,1329025610835
17.0534133 ,Left ,64,9498808101483 ,44,1793018528659 ,93,0941655322519
17.0729589 ,Left ,65,1081878512781 ,43,946916949138 ,93,0443409678579
17.095634 ,Left ,65,1844174198308 ,43,6967831667936 ,93,0307418905763
17.1133578 ,Left ,65,2238930691762 ,43,4957700545432 ,93,0105664199962
17.1330475 ,Left ,65,2652347736835 ,43,2796641825321 ,93,0107269474841
17.1556018 ,Left ,65,311284216273 ,42,9869574688623 ,93,1291881606693
17.1734764 ,Left ,65,4141462975687 ,42,81943986782 ,93,3291690751448
17.1931141 ,Left ,65,3992319005416 ,42,9360897973902 ,93,4638648164583
17.2154299 ,Left ,65,470080288674 ,43,1365721514542 ,93,5622421311353
17.2331086 ,Left ,65,6451091666127 ,43,2299635536793 ,93,6331428810827
17.2530225 ,Left ,65,7582963369887 ,43,2745391793946 ,93,7507419035583
17.2754601 ,Left ,65,7698695870763 ,43,2976501075462 ,93,8644493491422
17.2932139 ,Left ,65,7693946299602 ,43,3216598676809 ,93,9371947619544
17.3129213 ,Left ,65,7625067972334 ,43,316548450253 ,93,955317634418
17.3355002 ,Left ,65,7173303477398 ,43,2271145615375 ,93,9346731414966
17.3530576 ,Left ,65,6597782396719 ,43,0439365035211 ,93,9299285738353
17.3727971 ,Left ,65,5969990908957 ,42,8654065195198 ,93,8821646692841
17.3953746 ,Left ,65,4787008264698 ,42,6989593651905 ,93,8056965611489
17.4132884 ,Left ,65,4013857051656 ,42,5674054625806 ,93,7112105225571
17.432834 ,Left ,65,3449058902744 ,42,5188208121392 ,93,6228841608096
17.4553889 ,Left ,65,2772771872801 ,42,5188063145878 ,93,5190495402604
17.473176 ,Left ,65,227479772398 ,42,5461809137782 ,93,419181277009
17.4943105 ,Left ,65,1890467216611 ,42,5949478030605 ,93,3349075193876
17.5153499 ,Left ,65,09368609721 ,42,6604023553928 ,93,2826128744411
17.5333799 ,Left ,65,0051083168142 ,42,7698742094818 ,93,2466474955131
17.5560354 ,Left ,64,9359389149655 ,42,9193660813287 ,93,2080909771518
17.5756714 ,Left ,64,8948521774691 ,43,0920241774401 ,93,1699736650286
17.5934255 ,Left ,64,8629141664543 ,43,2865705378763 ,93,1459049551174
17.6160873 ,Left ,64,8338809726737 ,43,4880508639076 ,93,1462815163858
17.6356113 ,Left ,64,7812617011294 ,43,6587541599172 ,93,1653814548164
17.6534451 ,Left ,64,7745548591289 ,43,7666318338054 ,93,2155301386152
17.6759683 ,Left ,64,811906431416 ,43,8251246474032 ,93,2977328699199
17.6958461 ,Left ,64,7764145444667 ,43,8491036135128 ,93,439761281843
17.7134449 ,Left ,64,7694850096283 ,43,9029058467967 ,93,5887315518318
17.7361447 ,Left ,64,8123652291794 ,43,8543737959749 ,93,6819386157053
17.7558085 ,Left ,64,9406300101432 ,43,7506937483525 ,93,8014259490798
17.773482 ,Left ,65,0071110529899 ,43,7882450281818 ,93,9243685341048
17.7959768 ,Left ,65,0209387456139 ,43,9861872195609 ,93,9901527483232
17.8155921 ,Left ,65,1506939457315 ,44,191899527791 ,93,9531766320694
17.833418 ,Left ,65,2997762999031 ,44,2713556371394 ,93,8877031280176
17.856066 ,Left ,65,3961661184147 ,44,2872238477338 ,93,8290172201239
17.8758723 ,Left ,65,3903427357526 ,44,2152541948851 ,93,804887788855
17.8934891 ,Left ,65,3247559174509 ,44,1312645112263 ,93,8159248372309
17.9159794 ,Left ,65,2658922501851 ,44,0996535636677 ,93,8350678245127
17.9371503 ,Left ,65,2718088772931 ,43,7372722979827 ,93,8233636042614
17.9531534 ,Left ,65,3658973500504 ,43,4578187160322 ,93,8599382864074
17.9762408 ,Left ,65,4967215840791 ,43,5063122143603 ,93,8840335063868
17.9955822 ,Left ,65,5241303799279 ,43,716143756564 ,93,8149951702194
18.0133555 ,Left ,65,5623860916773 ,43,917961931893 ,93,7272655355246
18.0358626 ,Left ,65,6678268006965 ,44,1866449402727 ,93,6923216246493
18.0556861 ,Left ,65,6433839275559 ,44,4916420336947 ,93,7421229581619
18.0754431 ,Left ,65,5806048042519 ,44,7181133028984 ,93,794255926989
18.0956305 ,Left ,65,7312044181118 ,44,8714273062592 ,93,848404633288
18.1153479 ,Left ,65,8554404643697 ,45,1833493548132 ,93,9567060872713
18.1332794 ,Left ,65,8207052789501 ,45,5664696819237 ,93,9631323061326
18.1557407 ,Left ,65,835240174357 ,45,8641001709171 ,93,9613109085222
18.17533 ,Left ,65,9155935364233 ,46,1260340074259 ,93,9504444601546
18.1980023 ,Left ,65,7889253011158 ,46,2370672758387 ,93,9924991502101
18.2161626 ,Left ,65,719173528549 ,46,1188856350918 ,94,0260467572061
18.235696 ,Left ,65,6559481591306 ,45,9820361100735 ,93,9965301747634
18.2580014 ,Left ,65,5233571043795 ,45,9081833795544 ,93,9655097205074
18.2760898 ,Left ,65,4436901720463 ,46,0877843258763 ,93,9564114254495
18.2955946 ,Left ,65,3282130332941 ,46,2797151912728 ,93,9165317167067
18.3180273 ,Left ,65,3791594015268 ,46,4022825202936 ,93,836653152931
18.3359642 ,Left ,65,380447871113 ,46,4578263673179 ,93,763468556155
18.355724 ,Left ,65,335146655908 ,46,4983600205319 ,93,6888669871176
18.3777248 ,Left ,65,2990052870539 ,46,537022988989 ,93,59294635467
18.3963206 ,Left ,65,2926278315889 ,46,5693621191284 ,93,4771662343821
18.4173552 ,Left ,65,2798605915926 ,46,5585704574465 ,93,3546641239309
18.4384301 ,Left ,65,2606108444154 ,46,4502018960228 ,93,3012437186369
18.4558858 ,Left ,65,1889824952838 ,46,2573435172887 ,93,2947739741148
18.4769928 ,Left ,65,1178040632217 ,45,9914264764934 ,93,3028792973113
18.4978223 ,Left ,65,0722953852856 ,45,7215394333429 ,93,3315821435312
18.5159857 ,Left ,65,1581749551357 ,45,5751194200732 ,93,3658668102326
18.5369829 ,Left ,65,1753700783041 ,45,5898203307476 ,93,3780814606586
18.5580987 ,Left ,65,2443229269181 ,45,5724191263145 ,93,3820596888728
18.5758287 ,Left ,65,3950621228352 ,45,4635934894516 ,93,3885999731363
18.5968947 ,Left ,65,4932244657177 ,45,2942817493984 ,93,3850611790298
18.6178039 ,Left ,65,5252553053211 ,45,0655986152328 ,93,3929031965016
18.6357163 ,Left ,65,5841649253418 ,44,8011558961338 ,93,3942222721804
18.6566933 ,Left ,65,6266533487373 ,44,5095587907766 ,93,4151853531983
18.6779628 ,Left ,65,7008766278904 ,44,2053075806198 ,93,479212877289
18.6958407 ,Left ,65,7213831789798 ,43,9135383339063 ,93,5874760359253
18.7169574 ,Left ,65,7262889040959 ,43,8008804428417 ,93,6990489346271
18.7382613 ,Left ,65,7138076265164 ,43,9496921379848 ,93,7354526947799
18.7562981 ,Left ,65,7517910153456 ,44,133541000699 ,93,7808664532401
18.7783101 ,Left ,65,8679068028622 ,44,2440350877912 ,93,8605996512435
18.7980221 ,Left ,65,9167013472551 ,44,2847662329164 ,93,9485359979741
18.8158091 ,Left ,65,91100312237 ,44,3195108536124 ,94,006269525878
18.8385453 ,Left ,65,8726034780037 ,44,3229937672045 ,94,0285593489109
18.8581808 ,Left ,65,8809106173059 ,44,2371843020109 ,93,9976681311814
18.8761215 ,Left ,65,8770792161257 ,44,0547770310382 ,93,9567140652213
18.8986048 ,Left ,65,8429777438585 ,43,8512712218449 ,93,9234106759573
18.9179224 ,Left ,65,768510077504 ,43,6831096528771 ,93,87303297052
18.9349661 ,Left ,65,6633849852037 ,43,5394742427935 ,93,8053321521352
18.9575022 ,Left ,65,5570135677174 ,43,388719920051 ,93,7366429059515
18.9786182 ,Left ,65,5030983815 ,43,2799214466945 ,93,68648961986
18.9951739 ,Left ,65,4347703034195 ,43,2382353096518 ,93,6303612706398
19.017537 ,Left ,65,3688731892536 ,43,2297333932727 ,93,5686009462564
19.0388568 ,Left ,65,3106940323423 ,43,2258014269349 ,93,5031324919399
19.0556606 ,Left ,65,205495824213 ,43,2097168127243 ,93,4621293980933
19.0776095 ,Left ,65,1232694504339 ,43,2027586284997 ,93,4402455807881
19.0986024 ,Left ,65,0658089404594 ,43,2495134880259 ,93,3988176203984
19.1143939 ,Left ,64,9667339026902 ,43,3264549458154 ,93,3477892278261
19.1376277 ,Left ,64,912633219543 ,43,4372253917486 ,93,2883161428515
19.1588038 ,Left ,64,8623285389308 ,43,5680977410465 ,93,2255449015386
19.1745435 ,Left ,64,7945137018723 ,43,7199221861018 ,93,1817868325851
19.1976165 ,Left ,64,7308262272286 ,43,8648950135211 ,93,1572969424883
19.2204377 ,Left ,64,6742240660359 ,43,9475409109917 ,93,1632172158161
19.2344877 ,Left ,64,684109528337 ,43,9978767799614 ,93,2313912070793
19.2575295 ,Left ,64,6807384839599 ,44,0916689195438 ,93,2963494312763
19.2787349 ,Left ,64,6897208047237 ,44,04842838689 ,93,3321418221937
19.2944864 ,Left ,64,7273347377002 ,43,9164450661545 ,93,4318044217968
19.3176917 ,Left ,64,7724565590035 ,43,8856362222808 ,93,5280804756496
19.338564 ,Left ,64,7854663206541 ,44,000673050047 ,93,5560748981943
19.3550938 ,Left ,64,9628011115567 ,44,1522745541372 ,93,4928786342051
19.3776742 ,Left ,65,1169100941208 ,44,2200837786343 ,93,4277326665493
19.3989126 ,Left ,65,1999488806908 ,44,2224828864293 ,93,3762792650428
19.415142 ,Left ,65,2205252778575 ,44,1690192229185 ,93,3625120992358
19.4374182 ,Left ,65,1914236048094 ,44,1031014101805 ,93,3763532548204
19.4586421 ,Left ,65,1415643739524 ,43,9633471547204 ,93,4180497503143
19.4813225 ,Left ,65,1633412748137 ,43,7461852816405 ,93,4969774803126
19.4956488 ,Left ,65,208337538322 ,43,5515047978499 ,93,5958363140871
19.5180196 ,Left ,65,2572513364085 ,43,5046309737218 ,93,6062678696943
19.5344793 ,Left ,65,1739313574313 ,43,3720192204816 ,93,5887968338702
19.55571 ,Left ,65,0718453599339 ,43,3079194602352 ,93,6142689970814
19.5781266 ,Left ,64,9449979106764 ,43,4587756725333 ,93,6912627402082
19.5944103 ,Left ,65,1417693741736 ,43,6948790988281 ,93,6365462828677
19.615722 ,Left ,65,0171758576339 ,43,6238699669496 ,93,7437117449943
19.6381444 ,Left ,64,941748266492 ,43,6979383628992 ,93,9266097521145
19.6546554 ,Left ,65,1462940489852 ,43,9427670857698 ,93,9283212545536
19.6756438 ,Left ,65,0924149913822 ,44,0566788962861 ,93,9254942242266
19.6982581 ,Left ,65,055337639592 ,44,1722002907489 ,93,964799506791
19.7220144 ,Left ,64,9759023391476 ,44,2476290472025 ,93,9969065671633
19.7357029 ,Left ,64,9417162665079 ,44,1793288990357 ,94,0555250319841
19.7577861 ,Left ,64,8109605957009 ,44,1047689992206 ,94,1374461322323
19.7744211 ,Left ,64,8759721894302 ,44,078399674862 ,94,1861506066576
19.7965683 ,Left ,64,946022829434 ,44,2627658492557 ,94,1736508445064
19.8179831 ,Left ,64,7199477118633 ,44,2642943738237 ,94,1588483374236
19.8419116 ,Left ,64,7341750898035 ,44,319973284267 ,94,0826781081056
19.8570365 ,Left ,64,7359361008997 ,44,4775491748977 ,94,0057715160522
19.8781649 ,Left ,64,7135778630177 ,44,5499388401835 ,93,8814164052964
19.8944617 ,Left ,64,7128808008718 ,44,589753511062 ,93,7679560969522
19.9169753 ,Left ,64,6709286002451 ,44,5753090832888 ,93,7155826160339
19.9378381 ,Left ,64,6465804832128 ,44,5802621218516 ,93,6697763483119
19.9543379 ,Left ,64,5950116938302 ,44,512057365224 ,93,6218519438974
19.9767894 ,Left ,64,578680068885 ,44,3049093112742 ,93,6651200959636
19.9979298 ,Left ,64,6586176163765 ,44,266830852347 ,93,7024088824519
20.0145265 ,Left ,64,6553519837852 ,44,3348764626858 ,93,6833949989151
20.0367593 ,Left ,64,7661272416637 ,44,3575288954443 ,93,6426881723181
20.0578435 ,Left ,64,936110534979 ,44,2269433168159 ,93,5810789566974
20.0743264 ,Left ,65,0477831385074 ,44,0451797406148 ,93,5241829178923
20.096951 ,Left ,65,0907338421551 ,43,7953484130778 ,93,513806504357
20.118116 ,Left ,65,0788741178005 ,43,5358432483658 ,93,5240531964163
20.1346831 ,Left ,65,1005761646752 ,43,297727546717 ,93,510177715305
20.1569465 ,Left ,65,1079320455773 ,42,9977210061563 ,93,5378396297734
20.1781005 ,Left ,65,1731821877684 ,42,7264605078315 ,93,6657837350252
20.1944678 ,Left ,65,2243527935818 ,42,664526983872 ,93,8075405423554
20.2173321 ,Left ,65,2498317152407 ,42,8295998202498 ,93,8677386304836
20.2384921 ,Left ,65,2981854320354 ,42,9973147141902 ,93,9204180889747
20.2546056 ,Left ,65,3945005972514 ,43,0527187844597 ,93,9942330618247
20.2769579 ,Left ,65,4443251713434 ,43,0829811067373 ,94,0494048105658
20.297977 ,Left ,65,4757837311073 ,43,1185932271169 ,94,0437041894295
20.3143134 ,Left ,65,4556099616023 ,43,0876495378116 ,93,994552095305
20.3368546 ,Left ,65,4206598086648 ,42,9602315112382 ,93,9436240964448
20.3577662 ,Left ,65,3956361512481 ,42,7799916354375 ,93,9198443233389
20.3812629 ,Left ,65,3310108051337 ,42,6222016265259 ,93,8484212539766
20.3972683 ,Left ,65,2080933761387 ,42,4876794774461 ,93,7722696238489
20.4199063 ,Left ,65,1047096967728 ,42,425508225255 ,93,6990431638157
20.4413458 ,Left ,65,0150577979161 ,42,3916942774152 ,93,6265497182924
20.4576575 ,Left ,64,9916299893499 ,42,3867255025107 ,93,5432854824038
20.4801111 ,Left ,64,9420728214917 ,42,3996197880521 ,93,4668096551286
20.5010088 ,Left ,64,8685850866387 ,42,4453166073614 ,93,415426882632
20.5180545 ,Left ,64,7918788756287 ,42,5352498103751 ,93,3580107321467
20.5401158 ,Left ,64,724667291055 ,42,6633580488022 ,93,3097673093716
20.5610915 ,Left ,64,682938908838 ,42,8456414131556 ,93,264825136299
20.5769316 ,Left ,64,6277577510419 ,43,0438133426017 ,93,2314932914864
20.60035 ,Left ,64,5928752059254 ,43,239971079678 ,93,2158889437876
20.6212268 ,Left ,64,5719026565515 ,43,3898944801253 ,93,2123752474401
20.6368728 ,Left ,64,5514346420181 ,43,4798247079418 ,93,2585925695227
20.6599255 ,Left ,64,5522148344474 ,43,5929385005225 ,93,3598836944425
20.6826841 ,Left ,64,5180364194778 ,43,6626322082775 ,93,4559330066689
20.6969488 ,Left ,64,5026787239217 ,43,5744447803479 ,93,5946698810106
20.7200707 ,Left ,64,5617948679209 ,43,4845820628371 ,93,7435192332421
20.7426708 ,Left ,64,6381611752331 ,43,5499672888769 ,93,8025102842838
20.7568161 ,Left ,64,8206362006957 ,43,7515910145024 ,93,7109807827747
20.7801731 ,Left ,64,954951280527 ,43,8734668134646 ,93,561892078428
20.802699 ,Left ,65,0597466633306 ,43,9484908824376 ,93,4536864515966
20.8169446 ,Left ,65,0948852705091 ,43,9625018315365 ,93,4328372937138
20.8401029 ,Left ,65,0499795010055 ,43,9577996339147 ,93,4223793908607
20.8625756 ,Left ,64,9902456366501 ,43,8666786242183 ,93,4195125895392
20.8769213 ,Left ,65,0005561155674 ,43,6468124847434 ,93,4887607126065
20.9002073 ,Left ,64,999959061127 ,43,401921316459 ,93,6318020220052
20.922702 ,Left ,65,0280046374454 ,43,4608585637507 ,93,6697571087834
20.9436423 ,Left ,64,9737085707725 ,43,5383656597819 ,93,6274932260103
20.9603848 ,Left ,65,0577121287794 ,43,566706014019 ,93,5859885489014
20.9829806 ,Left ,65,1399129512307 ,43,7154870470682 ,93,5936396211853
20.9972528 ,Left ,65,108339421294 ,43,8132379074004 ,93,6534609599524
21.0201986 ,Left ,65,1144249641612 ,43,8600968542265 ,93,7206561111487
21.0427286 ,Left ,65,1596167066498 ,44,0065304939506 ,93,8571208208932
21.0635645 ,Left ,65,1406456521174 ,44,2686832205218 ,93,9495815723646
21.0803459 ,Left ,65,0215959979508 ,44,44741141955 ,94,0346195036448
21.1024887 ,Left ,64,947038061972 ,44,6043981288582 ,94,0635613574689
21.1244863 ,Left ,64,8385292627032 ,44,6138963792728 ,94,1202606848136
21.1401822 ,Left ,64,7961759640074 ,44,4800345565702 ,94,2005970140979
21.162527 ,Left ,64,7512519120567 ,44,3034526418374 ,94,2991525673321
21.1833441 ,Left ,64,7681864899333 ,44,2200922778047 ,94,3098045471489
21.2000077 ,Left ,64,7638650575876 ,44,3620885698021 ,94,331708092522
21.2229655 ,Left ,64,6807838297593 ,44,6217186260531 ,94,2857536720765
21.2440614 ,Left ,64,6081333702592 ,44,7839583965298 ,94,2149881648894
21.2604502 ,Left ,64,6828033468791 ,44,8998553390776 ,94,1495901917635
21.2829373 ,Left ,64,6655943436413 ,44,9922000198828 ,94,0751674497388
21.3042075 ,Left ,64,6389731847597 ,45,0542063035097 ,93,9760738059745
21.3206388 ,Left ,64,6616719362757 ,45,0564777020811 ,93,8711763961218
21.3426761 ,Left ,64,6740341456745 ,45,0072136985846 ,93,8055168373323
21.363534 ,Left ,64,6466338633021 ,44,9380027363555 ,93,7379753312393
21.380299 ,Left ,64,614109286291 ,44,7928890856984 ,93,7186836964322
21.4024929 ,Left ,64,6585706165732 ,44,5831760181743 ,93,7638319969499
21.4252972 ,Left ,64,6904683767432 ,44,548354751992 ,93,7776327529534
21.4401812 ,Left ,64,6743421526235 ,44,5761684090521 ,93,7777204779212
21.4623455 ,Left ,64,7751914083108 ,44,504953257616 ,93,7544120330612
21.4849986 ,Left ,64,9515943796234 ,44,3162029488614 ,93,710619627231
21.5063732 ,Left ,65,0227580983759 ,44,0578290402479 ,93,7081235317338
21.5227 ,Left ,65,0587751673283 ,43,7714303814472 ,93,7488007017107
21.5452063 ,Left ,65,0944046005128 ,43,5235311485505 ,93,7651979859924
21.5593747 ,Left ,65,0705251893972 ,43,2966527383083 ,93,7732836154936
21.582834 ,Left ,65,0689461627317 ,43,0208283705818 ,93,867451029078
21.6056008 ,Left ,65,1944112080143 ,43,026325334233 ,93,9736616949286
21.6267363 ,Left ,65,1068600045993 ,43,1049766091007 ,94,0570060154027
21.6425881 ,Left ,65,0348116221793 ,43,0859845735623 ,94,1139730954774
21.6653079 ,Left ,65,0126884361802 ,42,983228434006 ,94,2087847257529
21.6862408 ,Left ,64,9533998182654 ,42,8718287414112 ,94,2973866946402
21.7024482 ,Left ,64,8911524657834 ,42,755662022363 ,94,3478829058179
21.7265821 ,Left ,64,8204920439488 ,42,603595372999 ,94,3116208970972
21.7462178 ,Left ,64,6563317391293 ,42,3613825384858 ,94,3117790201412
21.7623842 ,Left ,64,5403251211992 ,42,1318444530205 ,94,3371723912122
21.7849631 ,Left ,64,3574336666715 ,41,9590355522514 ,94,3479438215821
21.8061156 ,Left ,64,1343010487559 ,41,8687157836789 ,94,3562827659616
21.8225304 ,Left ,63,9010615725134 ,41,8596861195722 ,94,341096010527
21.8452865 ,Left ,63,6724687739953 ,41,8752986642559 ,94,3204390503519
21.8663649 ,Left ,63,5228609889219 ,41,8778163681597 ,94,2919043439802
21.8826437 ,Left ,63,5133333792498 ,41,8811813391375 ,94,2153612334432
21.9053208 ,Left ,63,4712183945655 ,41,9455758787525 ,94,1132534689219
21.9264101 ,Left ,63,4220287380699 ,42,0535293571908 ,94,0138795542452
21.9426999 ,Left ,63,4050543408894 ,42,1808905647118 ,93,9170589512082
21.9650204 ,Left ,63,4216432974541 ,42,3386743904635 ,93,8084526888252
21.9862362 ,Left ,63,4370027589273 ,42,5587355059526 ,93,6925484374363
22.0025742 ,Left ,63,4365105418633 ,42,8081952942203 ,93,5956883025035
22.0252216 ,Left ,63,4316764053643 ,43,0312942826849 ,93,5500988321778
22.0464231 ,Left ,63,4821879153828 ,43,1833013448638 ,93,5365818035985
22.0624281 ,Left ,63,5444296387018 ,43,28441709316 ,93,5775947520857
22.0852479 ,Left ,63,5333032677917 ,43,4025186861028 ,93,6828700153976
22.1065939 ,Left ,63,5296730990299 ,43,3951053438768 ,93,797140023625
22.1225231 ,Left ,63,6790160289406 ,43,2527616270255 ,93,9334278746506
22.1451516 ,Left ,63,7883653568021 ,43,2402262906492 ,93,9871777651529
22.1660176 ,Left ,63,8251748856285 ,43,3609084812679 ,93,9839812570894
22.1826676 ,Left ,64,0626457108176 ,43,5168370211942 ,93,851632620343
22.2052773 ,Left ,64,2422436973021 ,43,5432760084293 ,93,7149409525199
22.2264543 ,Left ,64,3360520527059 ,43,4988862198644 ,93,6517095193314
22.2427364 ,Left ,64,3664003431703 ,43,5077717077206 ,93,6288951117536
22.2653839 ,Left ,64,314177202084 ,43,4480135757312 ,93,6219443710979
22.2864661 ,Left ,64,3090956972864 ,43,2598570274267 ,93,6613330419636
22.3027327 ,Left ,64,3840166808575 ,43,1059349108761 ,93,7689518357271
22.3253894 ,Left ,64,4270904202923 ,43,1303588853323 ,93,8052974085569
22.3466975 ,Left ,64,4566356082781 ,43,1937483451586 ,93,76306025343
22.3630272 ,Left ,64,4804993186877 ,43,2419849966091 ,93,7329089072705
22.3853488 ,Left ,64,5530769225735 ,43,4063584064265 ,93,726432599395
22.4065942 ,Left ,64,5158296075953 ,43,5525231882814 ,93,7808891068486
22.4227313 ,Left ,64,3870917227108 ,43,6284182056768 ,93,8731115959883
22.4452895 ,Left ,64,3998785612902 ,43,7224807057959 ,94,0106876587972
22.4666491 ,Left ,64,3938444588356 ,43,94956469705 ,94,1114652837468
22.4820681 ,Left ,64,3331880532815 ,44,1266023236374 ,94,1392515561957
22.5053924 ,Left ,64,3648868250682 ,44,2414353642681 ,94,1580674046442
22.5266627 ,Left ,64,3246101185549 ,44,3609084591986 ,94,2053437998917
22.542172 ,Left ,64,3164758891106 ,44,3940768071609 ,94,2300449837874
22.5653582 ,Left ,64,2976714540618 ,44,3324995298004 ,94,271632250147
22.587625 ,Left ,64,2301919422809 ,44,2545915737767 ,94,3542239974311
22.6020927 ,Left ,64,2823327816169 ,44,310499795517 ,94,4355573203542
22.6254529 ,Left ,64,3010172660392 ,44,54703927276 ,94,4405062901679
22.6477352 ,Left ,64,2175593788328 ,44,758116766139 ,94,3749665749321
22.6618887 ,Left ,64,3082403072949 ,44,87019239937 ,94,2733977512359
22.6851106 ,Left ,64,4083017817545 ,44,9342543647863 ,94,182100832278
22.7076617 ,Left ,64,341606632564 ,44,9885030918037 ,94,0828700499168
22.721795 ,Left ,64,3311181573442 ,45,0045783618925 ,93,9668378301032
22.745148 ,Left ,64,3324123080783 ,44,9538016572512 ,93,8662495189708
22.7675081 ,Left ,64,337432252697 ,44,8900363017896 ,93,7847097343841
22.782003 ,Left ,64,2731477265396 ,44,8007146890968 ,93,7351791692284
22.8050022 ,Left ,64,2504260287444 ,44,5674617841529 ,93,7839454339196
22.8275095 ,Left ,64,3826587584342 ,44,4398580599832 ,93,8580342629209
22.8486762 ,Left ,64,3949198261745 ,44,511403566289 ,93,8684744908821
22.8650289 ,Left ,64,4772380644975 ,44,5491613435386 ,93,8510433191417
22.8876958 ,Left ,64,7222901275725 ,44,4025823015739 ,93,8035662173329
22.9088107 ,Left ,64,9047524591075 ,44,1799494323784 ,93,7635535101214
22.9250709 ,Left ,65,0179891871546 ,43,8698970570547 ,93,7519960947459
22.9474379 ,Left ,65,0955016922253 ,43,5327651882025 ,93,751083875948
22.9686688 ,Left ,65,1177766112411 ,43,2767271567401 ,93,7123637255199
22.984918 ,Left ,65,1226491799383 ,42,9781085666468 ,93,6984876221125
23.0151327 ,Left ,65,2240117350239 ,42,71647258255 ,93,8262387082796
23.0286024 ,Left ,65,2542222420284 ,42,7667672340815 ,93,9350131720467
23.0451196 ,Left ,65,3481114976069 ,42,9893034738132 ,94,0018485488058
23.0678062 ,Left ,65,5363303203712 ,43,1576374690136 ,94,0777031492337
23.0884761 ,Left ,65,6359648114979 ,43,191018650539 ,94,1792631429427
23.1052749 ,Left ,65,7084997850367 ,43,2641977284998 ,94,2389330338457
23.1273406 ,Left ,65,6551752584917 ,43,3322786222246 ,94,2819563068827
23.1484283 ,Left ,65,618622583881 ,43,3561574511851 ,94,2851847185258
23.1651732 ,Left ,65,5835734420457 ,43,2835076108129 ,94,2715493981353
23.1877452 ,Left ,65,506310449388 ,43,0987556865252 ,94,2799773516494
23.2087953 ,Left ,65,4076836473467 ,42,9318203890855 ,94,2594768617312
23.2254418 ,Left ,65,2631500425797 ,42,8103496472219 ,94,1925625890558
23.2475696 ,Left ,65,1389271495692 ,42,7227230953687 ,94,0909734187782
23.2686671 ,Left ,65,0457777279904 ,42,6602291602225 ,93,9883947345998
23.2853089 ,Left ,64,9889442971838 ,42,6465033761972 ,93,8807256707764
23.3076739 ,Left ,64,9237171803435 ,42,6956999565098 ,93,7755908391757
23.3301715 ,Left ,64,8733791430365 ,42,802159320374 ,93,6641893318306
23.3509697 ,Left ,64,8216694859574 ,42,9645260352383 ,93,536281687287
23.3674896 ,Left ,64,7095730216828 ,43,1474822211751 ,93,4591726062367
23.3902123 ,Left ,64,613345239637 ,43,3901557474768 ,93,4136946315666
23.4041712 ,Left ,64,5372390325702 ,43,6377513118268 ,93,3791771673103
23.4275209 ,Left ,64,4557996121459 ,43,7931792264923 ,93,3812472121278
23.4502967 ,Left ,64,4840772460389 ,43,8745823277941 ,93,4516889038426
23.464351 ,Left ,64,4560561328355 ,43,9622013302785 ,93,5890219174655
23.4876207 ,Left ,64,401139102303 ,44,0174714496342 ,93,6799559466766
23.510033 ,Left ,64,4308684577226 ,43,9369131956123 ,93,8032744479959
23.5244296 ,Left ,64,5079969324682 ,43,8703748346622 ,93,8708702886372
23.5476857 ,Left ,64,541155795315 ,43,944100059766 ,93,882034084065
23.5699182 ,Left ,64,6930674766081 ,44,0917154921408 ,93,7565336704439
23.584819 ,Left ,64,8322485811229 ,44,1302895789709 ,93,585272289226
23.6079766 ,Left ,64,925233129398 ,44,1460072169336 ,93,4921314230105
23.6304463 ,Left ,64,9562071279938 ,44,1744808775408 ,93,4786873565907
23.6515775 ,Left ,64,8999885953572 ,44,133481128145 ,93,4929529740746
23.6678331 ,Left ,64,9647431182892 ,43,9137938302083 ,93,5619818650203
23.6904038 ,Left ,65,0351839121901 ,43,7141996735604 ,93,6992267868588
23.711576 ,Left ,65,0505178262833 ,43,7705859162833 ,93,7344493541681
23.7276468 ,Left ,65,0645534438317 ,43,8285052057013 ,93,6652707199061
23.7533164 ,Left ,65,1467601333595 ,43,8634102729915 ,93,6538105583767
23.7572233 ,Left ,65,1992893646751 ,43,9923835353411 ,93,6857606713903
23.779344 ,Left ,65,1589136712679 ,44,0558096760826 ,93,7701721143682
23.8026621 ,Left ,65,1506141308773 ,43,9166237344618 ,93,8404801595288
23.8168763 ,Left ,65,3169634456559 ,44,1647748791606 ,93,942952549701
23.8394128 ,Left ,65,4471154873404 ,44,5143978082264 ,93,9632854969808
23.8624695 ,Left ,65,3584041069402 ,44,6325448607099 ,94,0039550375812
23.8770857 ,Left ,65,1218445053281 ,44,6866412114219 ,94,1055120566391
23.8994959 ,Left ,65,1849226866005 ,44,9008787113144 ,94,0930792236911
23.9227019 ,Left ,65,3131975971307 ,44,8293945574524 ,94,0840742392618
23.9369211 ,Left ,65,3535730581114 ,44,8242004570232 ,94,079899053309
23.9593767 ,Left ,65,3580205292604 ,44,835834053894 ,94,0759329875697
23.9826325 ,Left ,65,2479899417863 ,44,9934076183287 ,94,0633093656336
23.9967888 ,Left ,65,1091752027783 ,45,2458612345302 ,94,0580240607391
24.0198586 ,Left ,65,050231409603 ,45,4467783614259 ,94,0572367315237
24.0430269 ,Left ,65,0095546210985 ,45,5289112232546 ,94,0840398528238
24.0636311 ,Left ,64,999918239441 ,45,6707595138465 ,94,084153659327
24.079415 ,Left ,65,0617967325019 ,45,6407103781658 ,94,0033680878307
24.102588 ,Left ,65,2007449591157 ,45,9295575696449 ,93,891630079112
24.1234433 ,Left ,65,2622253846109 ,46,0503035191934 ,93,8167248089282
24.1407253 ,Left ,65,2822919918359 ,46,0558927694329 ,93,7791068368736
24.1624852 ,Left ,65,2449977491683 ,46,0421684748816 ,93,7737735701176
24.1767876 ,Left ,65,2037046772518 ,46,0146080423602 ,93,7812869630907
24.199286 ,Left ,65,2480150897934 ,45,954478069788 ,93,772139839961
24.2223812 ,Left ,65,3333935959135 ,45,8138090249095 ,93,7747674388059
24.2435294 ,Left ,65,4126342645641 ,45,6735642936747 ,93,8055059662403
24.259472 ,Left ,65,4548016331319 ,45,5794259065897 ,93,8342265427088
24.2826338 ,Left ,65,4901031688754 ,45,521925580981 ,93,834006475648
24.3036142 ,Left ,65,5209325102362 ,45,4756215973974 ,93,8332353261697
24.3196265 ,Left ,65,5484051493184 ,45,4558662867882 ,93,8244416998607
24.3427233 ,Left ,65,5357920717865 ,45,4354963882642 ,93,8162825642184
24.3638866 ,Left ,65,5256358810671 ,45,431578433532 ,93,8080495417427
24.3792424 ,Left ,65,5022163430686 ,45,4220223253567 ,93,8030078262927
24.4025529 ,Left ,65,478501704878 ,45,3986598072862 ,93,807094983298
24.4235033 ,Left ,65,4506866761256 ,45,359044843736 ,93,8106431068788
24.4393891 ,Left ,65,4369325307648 ,45,3321007439735 ,93,8152351197455
24.46273 ,Left ,65,4180363652871 ,45,3168250782273 ,93,8182215919284
24.4837389 ,Left ,65,3941849364587 ,45,3033315518584 ,93,8210493331849
24.4994193 ,Left ,65,3709316400163 ,45,2883573102844 ,93,8315197722292
24.5224034 ,Left ,65,3416120298502 ,45,2717554768223 ,93,8531561318668
24.5438084 ,Left ,65,3252332049558 ,45,2558290078677 ,93,8809656899295
24.5594768 ,Left ,65,3166527925791 ,45,2444137657702 ,93,9017938622343
24.5819153 ,Left ,65,3238662734826 ,45,2236356453065 ,93,9220790055374
24.6036389 ,Left ,65,3356222929256 ,45,1937789905431 ,93,9432109566739
24.6195425 ,Left ,65,3581789534515 ,45,1455275643612 ,93,9667616015706
24.6501502 ,Left ,65,3901878097985 ,45,0680763042563 ,93,9999903151272
24.6724383 ,Left ,65,4409525611603 ,44,9527346031608 ,94,0392698879884
24.6866544 ,Left ,65,4514389576676 ,44,7894834217946 ,94,072946451938
24.7102685 ,Left ,65,4818832529446 ,44,5943669056346 ,94,0910139657787
24.7326859 ,Left ,65,4735023995132 ,44,3814786420383 ,94,1314092119379
24.7536869 ,Left ,65,4450538953638 ,44,1641706319735 ,94,1629449449066
24.7702939 ,Left ,65,4595030601608 ,43,9756863010915 ,94,148762120096
24.792571 ,Left ,65,4378278578369 ,43,7642674265808 ,94,1084325708902
24.8134885 ,Left ,65,4268362449874 ,43,5386802069664 ,94,0832344141049
24.830261 ,Left ,65,4272864512437 ,43,3385387202874 ,94,0686338575163
24.852571 ,Left ,65,3975722908165 ,43,188694345258 ,94,0318558714056
24.8734918 ,Left ,65,35283541074 ,43,0531250683953 ,93,9631737963828
24.8901403 ,Left ,65,3175021410523 ,42,9640317068269 ,93,8911002328706
24.9126682 ,Left ,65,2588708954679 ,42,8867776604548 ,93,8335175731877
24.9338467 ,Left ,65,2203649163879 ,42,8283847804264 ,93,7930165055207
24.9503745 ,Left ,65,1791759142643 ,42,7799824008246 ,93,7601911722986
24.9727237 ,Left ,65,1377919502145 ,42,7425218989339 ,93,7238707200302
24.9939086 ,Left ,65,1167013232749 ,42,722636401094 ,93,6639042143351
25.010264 ,Left ,65,07199095406 ,42,718155470807 ,93,5867260438994
25.0327847 ,Left ,65,0183268282809 ,42,7299179106167 ,93,5025475269287
25.0538924 ,Left ,64,9289595603743 ,42,7442703926497 ,93,4347800360355
25.0703606 ,Left ,64,8272124761061 ,42,7721485288158 ,93,3793422436543
25.0927792 ,Left ,64,7121534906998 ,42,8256539384589 ,93,3451803415432
25.1139417 ,Left ,64,6220512212929 ,42,8987081066912 ,93,3031403903345
25.1303701 ,Left ,64,5414037416266 ,42,9804941321217 ,93,2529890602661
25.1527217 ,Left ,64,4626554882438 ,43,0793342371116 ,93,1796567794132
25.1736783 ,Left ,64,4107808444817 ,43,1892672903306 ,93,1076605047088
25.1903484 ,Left ,64,3381480545564 ,43,2940153439462 ,93,0561192585084
25.2127584 ,Left ,64,2849058729185 ,43,3868598301173 ,93,0198454081096
25.2339978 ,Left ,64,2316438405391 ,43,4415994140266 ,93,0011042810312
25.2502565 ,Left ,64,2122161068144 ,43,4771589128394 ,92,9985921187337
25.2727475 ,Left ,64,1923199973082 ,43,4844155748863 ,93,0129772663129
25.2938419 ,Left ,64,1983097099293 ,43,4337623752165 ,93,0615072055592
25.3096697 ,Left ,64,2753370369854 ,43,331490564714 ,93,1365448246168
25.3326906 ,Left ,64,3686675126676 ,43,2101332385962 ,93,2206185418124
25.3539242 ,Left ,64,4434643161594 ,43,1670971184052 ,93,3142686832563
25.3695655 ,Left ,64,5870945223232 ,43,2708257179219 ,93,3749855768945
25.3927143 ,Left ,64,7251933818094 ,43,4711924913338 ,93,414823412126
25.4153873 ,Left ,64,8937121383943 ,43,6549719591972 ,93,4130592468691
25.4295143 ,Left ,65,0693374205732 ,43,7910827434588 ,93,416549819594
25.4527152 ,Left ,65,2645779747226 ,43,8806483342808 ,93,4631604323966
25.475321 ,Left ,65,395498698221 ,43,9232133225041 ,93,5284046124124
25.4895047 ,Left ,65,4917844878225 ,43,909381909668 ,93,5952719721355
25.5127281 ,Left ,65,525098070415 ,43,8448535644466 ,93,6609630237604
25.5352463 ,Left ,65,5374852716195 ,43,7307239889857 ,93,718595649758
25.5500308 ,Left ,65,4931208558672 ,43,650911809341 ,93,7529585936244
25.5727357 ,Left ,65,4733862173207 ,43,5425145766192 ,93,7698415555326
25.5952272 ,Left ,65,463513775485 ,43,4196326179825 ,93,850542873206
25.6096866 ,Left ,65,3868876210937 ,43,540815236685 ,93,9033031298418
25.6328539 ,Left ,65,2465831103968 ,43,8199717128 ,93,8817407811698
25.655382 ,Left ,65,2784212576804 ,44,1092499986092 ,93,7805736101001
25.6765168 ,Left ,65,3530335367412 ,44,2423293424328 ,93,6865854627312
25.6930565 ,Left ,65,3546020460237 ,44,276847675835 ,93,6548078629696
25.7154246 ,Left ,65,2725114352366 ,44,2546899310139 ,93,6674644736238
25.7365279 ,Left ,65,1091588812436 ,44,1910675617612 ,93,6666998454635
25.7527611 ,Left ,65,0747573165188 ,43,9888915598935 ,93,6517197713025
25.7753069 ,Left ,65,0833730703636 ,43,773904918383 ,93,7007749647038
25.7965143 ,Left ,65,0660050816815 ,43,8070731237011 ,93,7579975142562
25.8128542 ,Left ,65,0091390268772 ,43,9652629160828 ,93,7487758119736
25.8352771 ,Left ,65,0327816934644 ,44,1204986769113 ,93,709581493851
25.8564607 ,Left ,65,0434166619356 ,44,2188196664006 ,93,7280201820469
25.8727335 ,Left ,65,0298748759841 ,44,165141335482 ,93,7358937976693
25.8953607 ,Left ,65,0223801362452 ,44,318038989796 ,93,7896606423062
25.9163009 ,Left ,64,9080005627247 ,44,3654794060743 ,93,8757291212294
25.9327148 ,Left ,64,7797519464227 ,44,308487472826 ,93,9574437646314
25.9552837 ,Left ,64,6410410428862 ,44,1131264033568 ,94,0658755083274
25.9765691 ,Left ,64,6114573464483 ,43,9967749259625 ,94,2403254486633
25.9927857 ,Left ,64,5302917054922 ,44,1018226545359 ,94,3513303043756
26.0154995 ,Left ,64,4373993504132 ,44,2849433014539 ,94,4624080619842
26.0365025 ,Left ,64,480959402053 ,44,3900219896055 ,94,5710836316449
26.0527932 ,Left ,64,5556702826701 ,44,4124193141181 ,94,6916482573843
26.0753002 ,Left ,64,5230588862481 ,44,3922308724804 ,94,7628829762202
26.096321 ,Left ,64,4439450792901 ,44,2898291135302 ,94,7946353418412
26.1126542 ,Left ,64,368374131155 ,44,1177609979571 ,94,8122320139898
26.1352455 ,Left ,64,3036124739781 ,43,9164946537198 ,94,8118389102096
26.1565514 ,Left ,64,3484756195155 ,43,9150849623772 ,94,7677719405076
26.1727372 ,Left ,64,3790669546391 ,43,8583998504505 ,94,7086857380626
26.1954113 ,Left ,64,4065754239275 ,43,7794705395041 ,94,6332295329696
26.2165192 ,Left ,64,4603173564843 ,43,6839806077553 ,94,5481866330361
26.2320509 ,Left ,64,4942754824575 ,43,5783118200485 ,94,4666956165356
26.2553519 ,Left ,64,5512897304929 ,43,4854488737639 ,94,3856082394721
26.2765125 ,Left ,64,6079141304721 ,43,4294654723002 ,94,2986076899117
26.2988667 ,Left ,64,6653461451703 ,43,3876223075101 ,94,2110169737006
26.3151898 ,Left ,64,7206456931303 ,43,3400309308554 ,94,1452731427982
26.3377306 ,Left ,64,7262070385156 ,43,3003454371235 ,94,0981598226594
26.3590309 ,Left ,64,733634092878 ,43,270078297673 ,94,0508418704981
26.3753592 ,Left ,64,7271240433278 ,43,2695599834035 ,94,0211951828703
26.3976972 ,Left ,64,6971899096131 ,43,308413574045 ,93,9966555274676
26.4184075 ,Left ,64,6304210599847 ,43,3103582687247 ,93,9949216525474
26.4349857 ,Left ,64,6116613638823 ,43,2051920790417 ,94,0344918749816
26.4573677 ,Left ,64,640090104545 ,43,2783485831761 ,94,0309530749147
26.4791611 ,Left ,64,6234234604731 ,43,4123320926114 ,93,9921217714769
26.4807438 ,Left ,64,6551812918961 ,43,4601084882493 ,93,9448880110451
26.5003639 ,Left ,64,7732739175235 ,43,35908210446 ,93,9223603697521
26.5231893 ,Left ,64,8492629532518 ,43,2247767676632 ,93,8829184417506
26.541216 ,Left ,64,8470557024214 ,43,0388992380735 ,93,8685955680195
26.5609006 ,Left ,64,8368930812109 ,42,8450309030608 ,93,8740556159592
26.5832308 ,Left ,64,8730530868988 ,42,7165846720822 ,93,8563752360741
26.6010547 ,Left ,64,8482879092226 ,42,560688536071 ,93,8865102870434
26.6203444 ,Left ,64,859321143337 ,42,3625860663875 ,93,9973160198097
26.6428502 ,Left ,64,9356021280437 ,42,3347556375274 ,94,1021087350728
26.6594069 ,Left ,64,9053085443876 ,42,5151362231425 ,94,0963429683949
26.6804265 ,Left ,64,911002325055 ,42,6516337687529 ,94,1040161292875
26.7027529 ,Left ,64,966892361117 ,42,7065735957625 ,94,1485529500456
26.7209002 ,Left ,64,9597067749469 ,42,7363721685492 ,94,1778366718614
26.7405762 ,Left ,64,9296636600483 ,42,7261264550109 ,94,141184946391
26.7631477 ,Left ,64,8851285836495 ,42,6262205080568 ,94,0751736624486
26.7806312 ,Left ,64,8617575505179 ,42,4545806442376 ,94,0254856010142
26.8001936 ,Left ,64,8413866589406 ,42,2902210979769 ,93,9645684418167
26.8228388 ,Left ,64,7686077565014 ,42,1273438968191 ,93,8814902943114
26.8407655 ,Left ,64,7125016074441 ,42,0263476424061 ,93,7564248115937
26.8605672 ,Left ,64,6555229456457 ,41,981888063018 ,93,6341107892205
26.8829715 ,Left ,64,5895767630738 ,41,9579464398419 ,93,5255609561199
26.9010547 ,Left ,64,5416791641615 ,41,9389981978434 ,93,4390574997223
26.9208392 ,Left ,64,4901130343412 ,41,9414697505797 ,93,3871041702502
26.9433232 ,Left ,64,4415761498298 ,42,0086018385234 ,93,3479779390346
26.9608912 ,Left ,64,4005687513625 ,42,1306829718649 ,93,3017316358185
26.9805959 ,Left ,64,3690122081599 ,42,2847858412134 ,93,2477755982266
27.003391 ,Left ,64,3513179110444 ,42,4346641657853 ,93,2005189326074
27.0258158 ,Left ,64,3363906017617 ,42,5781897450416 ,93,1518065940678
27.0408659 ,Left ,64,3030448566451 ,42,6998092119954 ,93,1264932390635
27.0631857 ,Left ,64,3161630174169 ,42,7787405854395 ,93,1299598156666
27.0856547 ,Left ,64,3311340117782 ,42,8165257733885 ,93,1951088456576
27.1007798 ,Left ,64,294113989765 ,42,8703341101785 ,93,2789762610934
27.1230507 ,Left ,64,2806526394368 ,42,8306747980178 ,93,3861435916085
27.145317 ,Left ,64,363531606598 ,42,7607661040518 ,93,4838720731703
27.1604962 ,Left ,64,3988030732884 ,42,7841135739269 ,93,5582522016428
27.1838001 ,Left ,64,5249695517874 ,42,9173462498852 ,93,5670163303789
27.2081854 ,Left ,64,7052478305208 ,43,1064564457688 ,93,491688322505
27.2086666 ,Left ,64,7052478305208 ,43,1064564457688 ,93,491688322505
27.2108735 ,Left ,64,3363906017617 ,42,5781897450416 ,93,1518065940678
27.2166166 ,Left ,64,3030448566451 ,42,6998092119954 ,93,1264932390635
27.2313955 ,Left ,64,7052478305208 ,43,1064564457688 ,93,491688322505
27.2367743 ,Left ,64,7588257038029 ,43,250242218164 ,93,4338132718588
27.2436456 ,Left ,64,7182352694301 ,43,3150975951062 ,93,4499175179748
27.2663385 ,Left ,64,590186920997 ,43,2930226807332 ,93,5190874274413
27.2804476 ,Left ,64,6473496986893 ,43,3895802051357 ,93,4980658373492
27.3037513 ,Left ,64,7065500624933 ,43,2194152416933 ,93,5186139479645
27.3265339 ,Left ,64,5282873676065 ,42,982413005068 ,93,729844894377
27.3409188 ,Left ,64,7335462918422 ,43,1477632931588 ,93,6935396188705
27.363297 ,Left ,64,7579474504946 ,43,2167031766107 ,93,6350762619932
27.3863391 ,Left ,64,8805917353105 ,43,2458253697879 ,93,5589030943343
27.4008784 ,Left ,64,9360698621545 ,43,4050517295305 ,93,5630582924702
27.4239461 ,Left ,64,9207726705612 ,43,5150996916116 ,93,5969110344174
27.4462868 ,Left ,64,8464420467004 ,43,5790540817642 ,93,6465114507369
27.4608914 ,Left ,64,8309735021469 ,43,6666078758591 ,93,7758816527162
27.4832643 ,Left ,64,7903115934457 ,43,8813361491122 ,93,8833324628878
27.5063775 ,Left ,64,7077275804522 ,44,1209381331223 ,93,9366827104934
27.5208762 ,Left ,64,808068827394 ,44,3195584383883 ,93,9065866376708
27.5433676 ,Left ,64,7655391880483 ,44,5703317157894 ,93,9130364017638
27.5669767 ,Left ,64,7742391288132 ,44,4801428656347 ,93,9173701738745
27.580646 ,Left ,64,7131619640534 ,44,3657188443183 ,93,9426288522809
27.6031386 ,Left ,64,679160728354 ,44,3172349485069 ,93,9458234091698
27.6265885 ,Left ,64,6693366677412 ,44,5057699622551 ,93,9600146785252
27.6409059 ,Left ,64,5448241361215 ,44,7322930100322 ,93,933063324204
27.6631474 ,Left ,64,4630706164414 ,44,8972805073865 ,93,8800845203029
27.6864486 ,Left ,64,489605105832 ,45,0241581818589 ,93,8040848949183
27.700854 ,Left ,64,4804639935794 ,45,0701269439541 ,93,7369254656507
27.7233464 ,Left ,64,4178745313819 ,45,0893801613673 ,93,6686209438806
27.7463104 ,Left ,64,3820153304715 ,45,0511603388263 ,93,6334689419736
27.7608667 ,Left ,64,3261570357566 ,44,9483653021032 ,93,5751754584439
27.7830841 ,Left ,64,3307222918795 ,44,8000093001111 ,93,5736007253256
27.8063402 ,Left ,64,3601672313283 ,44,7779261618072 ,93,5853596359971
27.8208419 ,Left ,64,3536672217191 ,44,834052607672 ,93,5402956820652
27.8433081 ,Left ,64,4421289763334 ,44,7945642770299 ,93,497712763244
27.8663011 ,Left ,64,6327717622349 ,44,6455134385653 ,93,439058994311
27.8886244 ,Left ,64,7994469314963 ,44,4332186416607 ,93,3696405324472
27.9031606 ,Left ,64,8817358383426 ,44,2188942583275 ,93,3184669994746
27.9262728 ,Left ,64,9580329752952 ,43,9884553924171 ,93,2730587154472
27.9407566 ,Left ,65,0409297458757 ,43,7011174132453 ,93,263009917164
27.9629344 ,Left ,65,1282948081041 ,43,3897121361656 ,93,3392739845942
27.9862052 ,Left ,65,1287995731685 ,43,1213698902073 ,93,4549836945985
28.0004873 ,Left ,65,1383111387755 ,42,9871812607785 ,93,5705478730223
28.023023 ,Left ,65,1741388245365 ,43,0049925448248 ,93,6278390332703
28.0461981 ,Left ,65,2149541495305 ,43,0668232320171 ,93,6720547786475
28.0607189 ,Left ,65,2951366370237 ,43,1241425431259 ,93,7226872287658
28.0830105 ,Left ,65,3345668131799 ,43,1564181247941 ,93,7498408649621
28.1056847 ,Left ,65,3509854143458 ,43,1400581722038 ,93,7431287411415
28.1218124 ,Left ,65,3496071808172 ,43,0358374301072 ,93,7212351814058
28.1429094 ,Left ,65,3199038130715 ,42,8886165785989 ,93,7052432849239
28.1653632 ,Left ,65,2559514697684 ,42,777661923638 ,93,6713086478892
28.1832399 ,Left ,65,1550430625223 ,42,6958293128057 ,93,6286449666911
28.2031199 ,Left ,65,0607286421187 ,42,6485018793402 ,93,5585354713691
28.2255479 ,Left ,64,9866285839452 ,42,6122587557411 ,93,4824540403597
28.2430617 ,Left ,64,9068134314682 ,42,6113473018771 ,93,3939857773766
28.2628668 ,Left ,64,7979953866733 ,42,6339467845493 ,93,3180956900547
28.2853413 ,Left ,64,7127216672239 ,42,6961804768179 ,93,2459800450208
28.303356 ,Left ,64,5884655198561 ,42,7879681783139 ,93,1958007720894
28.3232171 ,Left ,64,4763831661072 ,42,9138610798968 ,93,1636244360836
28.3455892 ,Left ,64,3875732889059 ,43,0645044188588 ,93,1265149484424
28.3638353 ,Left ,64,3228951593097 ,43,2294917752959 ,93,0721629142651
28.3862062 ,Left ,64,2899528975997 ,43,3827574950685 ,93,0304427965208
28.4065047 ,Left ,64,2718872281327 ,43,4896440733535 ,93,0290117703852
28.4208672 ,Left ,64,33174065254 ,43,5491061218225 ,93,0676329307496
28.4433525 ,Left ,64,3721487916377 ,43,6222958991133 ,93,1571160379426
28.4656898 ,Left ,64,3580979562504 ,43,6580846211308 ,93,2324168079975
28.4808195 ,Left ,64,3975157396099 ,43,5825763035148 ,93,3692221869298
28.5032832 ,Left ,64,5463159373031 ,43,5482002877321 ,93,4962812713152
28.5256925 ,Left ,64,6063464162903 ,43,6314007048471 ,93,5599055669142
28.5407506 ,Left ,64,7849137711954 ,43,7956646785391 ,93,5162334824182
28.5631593 ,Left ,64,9434232916103 ,43,8927711485253 ,93,4216725825721
28.5855367 ,Left ,65,0744104516447 ,43,9219417508962 ,93,3485145808746
28.6006466 ,Left ,65,1471631342796 ,43,8768598285068 ,93,3004543920553
28.6231406 ,Left ,65,1145925247251 ,43,7966844792523 ,93,3189539334556
28.6453461 ,Left ,65,0645213256718 ,43,6729924344439 ,93,3612507821702
28.6603655 ,Left ,65,1081352841603 ,43,4764237811966 ,93,4166062810798
28.6830278 ,Left ,65,1672019049006 ,43,3170495867286 ,93,5128392246825
28.7054571 ,Left ,65,2006886655159 ,43,3825608564181 ,93,5339058177769
28.7211109 ,Left ,65,151229067504 ,43,4541268641132 ,93,4866612993092
28.7436119 ,Left ,65,1841492976962 ,43,5353789417462 ,93,4655454076029
28.7660186 ,Left ,65,2220171425182 ,43,6761262483145 ,93,4767162906064
28.780762 ,Left ,65,1771511608046 ,43,7713086451671 ,93,5392908936254
28.8031969 ,Left ,65,2131832101962 ,43,8872943200176 ,93,6379643500042
28.8258613 ,Left ,65,2395748646208 ,44,1402865934017 ,93,7846875045344
28.8409535 ,Left ,65,1335840288064 ,44,3708855316646 ,93,8473962290574
28.8630522 ,Left ,65,0789173630523 ,44,5071451322957 ,93,8909562157937
28.8855965 ,Left ,65,0096612150162 ,44,6006495235393 ,93,9147080569043
28.9008221 ,Left ,64,9402792326317 ,44,5867859533224 ,93,94684431928
28.9231224 ,Left ,64,9340540084094 ,44,4490952764647 ,93,9888893405243
28.9455935 ,Left ,64,8740961955597 ,44,3532748875216 ,93,9942808103828
28.9605042 ,Left ,64,8108663764758 ,44,3808795043925 ,94,0140165577283
28.98321 ,Left ,64,7176719935184 ,44,6055269749538 ,94,0684658234997
29.0055163 ,Left ,64,5405234048385 ,44,8399025160002 ,94,0852778156017
29.0204761 ,Left ,64,5387829953077 ,45,038917795086 ,94,0322603410877
29.0435268 ,Left ,64,5715315806382 ,45,1416234585936 ,93,9661508327911
29.065688 ,Left ,64,5433234459387 ,45,1774402355257 ,93,9164411275609
29.0806689 ,Left ,64,5033512703608 ,45,1705972730217 ,93,8385263302164
29.1033467 ,Left ,64,4930868456663 ,45,1465620030121 ,93,7270542505389
29.1259975 ,Left ,64,5077158386974 ,45,1037950465285 ,93,6086780958608
29.1409868 ,Left ,64,5297587690452 ,45,0238179661049 ,93,5134601092962
29.1634083 ,Left ,64,5388372483429 ,44,9059928715414 ,93,4611784732886
29.1852857 ,Left ,64,4888778671835 ,44,699311880435 ,93,4555985202581
29.2019939 ,Left ,64,6005284668402 ,44,6248451355369 ,93,4745708569772
29.2229397 ,Left ,64,6033728711959 ,44,6889688467687 ,93,4504708869784
29.2455075 ,Left ,64,7241134739296 ,44,7166137155991 ,93,424517304136
29.2618599 ,Left ,64,8855074882372 ,44,6011139037677 ,93,3921623275003
29.285859 ,Left ,65,0534544800709 ,44,4119203687335 ,93,3405265213586
29.3053673 ,Left ,65,2011105464311 ,44,2003907500343 ,93,3268146367438
29.3234355 ,Left ,65,1177630392773 ,43,7826770802321 ,93,3535745922356
29.3460319 ,Left ,65,2120588435472 ,43,3668349733587 ,93,3275122575991
29.36543 ,Left ,65,262514214091 ,43,0375938568643 ,93,3156429308885
29.3835026 ,Left ,65,3966824506759 ,42,8148303010543 ,93,3931551776651
29.4061964 ,Left ,65,5378710684874 ,42,7670980975734 ,93,4344246264275
29.4255745 ,Left ,65,7321279949483 ,42,8865412301268 ,93,4150338814639
29.4433151 ,Left ,65,9063505809233 ,42,9697799247134 ,93,4082646824669
29.4659232 ,Left ,66,0616473363957 ,42,9913634188522 ,93,4301328494747
29.485657 ,Left ,66,178990308062 ,43,0259843372659 ,93,4383741999344
29.5086046 ,Left ,66,2861763327945 ,43,0058252491011 ,93,4035681850601
29.5262588 ,Left ,66,3703379941964 ,42,8932873806696 ,93,3171427223474
29.5454421 ,Left ,66,3967068640822 ,42,671029689715 ,93,2770843204432
29.5677571 ,Left ,66,4236510374395 ,42,4416221103317 ,93,2214321285258
29.5857076 ,Left ,66,2575447869231 ,42,3598582424384 ,93,2223579988505
29.6070101 ,Left ,66,1276222239494 ,42,3221139865945 ,93,1814109670978
29.6234281 ,Left ,65,9944778447729 ,42,2635956300229 ,93,1420867569559
29.6458825 ,Left ,65,9438093895333 ,42,1910483022573 ,93,1056531147631
29.6751566 ,Left ,65,9046751013647 ,42,132564462181 ,93,0621476894039
29.6819753 ,Left ,65,8041420756473 ,42,1116685655497 ,93,0095222261457
29.7056273 ,Left ,65,6869743272432 ,42,0991548975918 ,92,9699773634809
29.7274896 ,Left ,65,6085631544381 ,42,0973689151669 ,92,9639056552983
29.7419738 ,Left ,65,5323885660579 ,42,0967157495712 ,92,9753681726945
29.7656397 ,Left ,65,4735778521181 ,42,1153248131129 ,92,9898916699815
29.7881952 ,Left ,65,4219839002395 ,42,1446085767303 ,93,0034638972942
29.8026582 ,Left ,65,4089312555034 ,42,171295596758 ,93,0149093763079
29.8252645 ,Left ,65,4326791639105 ,42,1934437933221 ,93,0280181372405
29.8476974 ,Left ,65,4795306806757 ,42,2179420680198 ,93,0504706537937
29.8619978 ,Left ,65,5403704124976 ,42,2477441762073 ,93,0645851980785
29.8885314 ,Left ,65,6085338063157 ,42,2875300584418 ,93,0645435707033
29.9057229 ,Left ,65,6673596372827 ,42,3243969439813 ,93,0590642209577
29.9219195 ,Left ,65,8111425770015 ,42,306761540604 ,93,0104292409309
29.9430712 ,Left ,65,7057909107473 ,42,1668475886072 ,93,0646108018227
29.9654381 ,Left ,65,5013203031151 ,42,0802376274057 ,93,170111872745
29.9819757 ,Left ,65,5573303321178 ,42,1904597178763 ,93,1551605209835
30.0027958 ,Left ,65,7536431669711 ,42,227784822771 ,93,0569283522542
30.0252755 ,Left ,65,4932600943055 ,42,1408505111775 ,93,1620118026395
30.0425266 ,Left ,65,5804002759476 ,42,2358370086872 ,93,1156935304039
30.0633269 ,Left ,65,7069462137575 ,42,2741482195679 ,93,0420983764505
30.0861588 ,Left ,65,6584521281806 ,42,3238814999557 ,93,0536160235804
30.108625 ,Left ,65,5970275910294 ,42,3157901182283 ,93,0438993322567
30.123569 ,Left ,65,5448210086538 ,42,3265232757092 ,93,0266831800083
30.145526 ,Left ,65,4935984628464 ,42,3373485731626 ,93,0092319340713
30.1619206 ,Left ,65,4319883976482 ,42,3351065931787 ,93,0065517430707
30.1844529 ,Left ,65,3848043167657 ,42,3460120338917 ,92,994285277906
30.2056173 ,Left ,65,4205955072692 ,42,4679375652286 ,92,9418526116486
30.2218789 ,Left ,65,2546677922162 ,42,3073534763992 ,92,943859518719
30.2445005 ,Left ,65,3206269194499 ,42,3969048711151 ,92,8604898544963
30.2670151 ,Left ,65,2812506110482 ,42,4410162294046 ,92,8195012333048
30.2821287 ,Left ,65,2219382661987 ,42,5244659680585 ,92,810706869775
30.3045495 ,Left ,65,1865020980162 ,42,6305969953725 ,92,8089847299021
30.3257695 ,Left ,65,1447922737741 ,42,7546670925495 ,92,8122678565686
30.3480634 ,Left ,65,1264393342382 ,42,8858567824507 ,92,8303013090703
30.3647726 ,Left ,65,1310577293166 ,43,0185983720946 ,92,8500519082075
30.3858212 ,Left ,65,1323883725597 ,43,1214551637371 ,92,8620047574585
30.4082887 ,Left ,65,1434400266478 ,43,1679256362508 ,92,8857877706276
30.4246975 ,Left ,65,1760102382571 ,43,2117384573335 ,92,90553124344
30.4456265 ,Left ,65,1648569580731 ,43,2227906402266 ,92,9288282981966
30.4634163 ,Left ,65,1695195253614 ,43,1692361225947 ,93,0024010276866
30.4846752 ,Left ,65,1624914605442 ,43,1423069052094 ,93,1059226432565
30.5056823 ,Left ,65,1374742946486 ,43,2374650725014 ,93,1514102551548
30.5281963 ,Left ,65,2401788713295 ,43,4198346232233 ,93,0938182910104
30.5445448 ,Left ,65,3482001089301 ,43,5442450690998 ,93,0088279249896
30.5657492 ,Left ,65,4038939117492 ,43,6031852129244 ,92,9692746138267
30.5882344 ,Left ,65,4449337088775 ,43,6134801315719 ,92,977468201549
30.6044827 ,Left ,65,4302643559181 ,43,5811835701559 ,93,0299178441289
30.6257595 ,Left ,65,3924668575854 ,43,461141438717 ,93,1215948973928
30.6483624 ,Left ,65,4327752762179 ,43,3280500896505 ,93,257658198102
30.6645056 ,Left ,65,4676530743269 ,43,3325182422623 ,93,3464198777228
30.685831 ,Left ,65,5467404995708 ,43,4238070349496 ,93,4249607390379
30.7082772 ,Left ,65,7244641716062 ,43,6088012547488 ,93,499336735006
30.7245394 ,Left ,65,8655819167065 ,43,8020948070979 ,93,6086173203076
30.7458701 ,Left ,65,9286649734559 ,43,9182448760689 ,93,7773846289959
30.76849 ,Left ,66,0262871632321 ,44,0616560815074 ,93,9246806401842
30.7853984 ,Left ,66,1094855381527 ,44,1782993544836 ,94,0511783902336
30.8077512 ,Left ,66,1816103001412 ,44,280849383989 ,94,1655350247568
30.8288406 ,Left ,66,2312642103852 ,44,3745036896798 ,94,2828152074819
30.8445856 ,Left ,66,2719183948042 ,44,4508667577601 ,94,4035981296389
30.8679586 ,Left ,66,3103270605593 ,44,5073539306086 ,94,4994640984305
30.8886127 ,Left ,66,312596084426 ,44,5162857209021 ,94,5824429180929
30.9051717 ,Left ,66,2985919208867 ,44,5192516665862 ,94,6482609283759
30.9275614 ,Left ,66,268165057661 ,44,5163689963471 ,94,6968922985205
30.9484223 ,Left ,66,2453334848012 ,44,504969009661 ,94,7107409476888
30.9651549 ,Left ,66,2103885938286 ,44,4684257845396 ,94,6831203007768
30.9877234 ,Left ,66,1854334298084 ,44,3854367098788 ,94,6303309388508
31.0090484 ,Left ,66,1653335249418 ,44,2760280327258 ,94,5792998345198
31.024451 ,Left ,66,1073759366034 ,44,1624707663727 ,94,5262131063446
31.0476705 ,Left ,66,0161432903774 ,44,0319267889745 ,94,4559497588366
31.0702551 ,Left ,65,9086792102645 ,43,8687825612434 ,94,3690365978778
31.084374 ,Left ,65,8261753761048 ,43,6653910103734 ,94,3080374830612
31.1074397 ,Left ,65,7101822669954 ,43,4460154825526 ,94,2957026509923
31.1301385 ,Left ,65,6853085408579 ,43,2878218880987 ,94,276823566887
31.1442615 ,Left ,65,6538654703815 ,43,2619336695624 ,94,3466643810483
31.167558 ,Left ,65,5911058492564 ,43,4622167833693 ,94,4176087116767
31.1902608 ,Left ,65,420266322707 ,43,6791888227632 ,94,4800566759536
31.2114497 ,Left ,65,4867284011941 ,43,8443103042986 ,94,4881599367468
31.2277933 ,Left ,65,5340218402387 ,43,9508858234587 ,94,5177224470839
31.2502286 ,Left ,65,4738080927194 ,44,0377354834174 ,94,5384080809443
31.2710425 ,Left ,65,38781932711 ,44,1055141704038 ,94,5651594876159
31.287659 ,Left ,65,3135420307935 ,44,1230084478291 ,94,5696120697085
31.3102265 ,Left ,65,2969830792075 ,44,1286493422527 ,94,5834743881265
31.3313488 ,Left ,65,21838360874 ,44,1326488779221 ,94,5725752032464
31.3475592 ,Left ,65,2155579197111 ,44,1294073019559 ,94,5786999974092
31.3701584 ,Left ,65,2651951061842 ,44,2733499567365 ,94,5925098180102
31.3912143 ,Left ,65,1591347554149 ,44,5154670683392 ,94,5535015878136
31.4068951 ,Left ,65,1426383461715 ,44,7258310929619 ,94,4670193783705
31.4300717 ,Left ,65,2027426364617 ,44,8414669562285 ,94,3923492803752
31.4511086 ,Left ,65,2193405642637 ,44,9486291587553 ,94,3040510182355
31.466954 ,Left ,65,1546556209945 ,44,9948418833265 ,94,2020068830587
31.4969049 ,Left ,65,0975521683381 ,44,9473389434735 ,94,0913231119385
31.5118047 ,Left ,65,0511853939181 ,44,8524392290081 ,93,9993821528693
31.528071 ,Left ,64,9941114968811 ,44,7503712592488 ,93,9235342292957
31.5503183 ,Left ,64,9392346648491 ,44,5595061277444 ,93,9034237682371
31.5712027 ,Left ,64,9719142031018 ,44,34260260731 ,93,9562400322969
31.5876449 ,Left ,64,9547452458998 ,44,3442118715521 ,93,9778338338291
31.6102529 ,Left ,64,9680030567974 ,44,4103266348949 ,93,9672127759002
31.6311165 ,Left ,65,1238145242053 ,44,3606954188558 ,93,918017104261
31.6473231 ,Left ,65,2773812054421 ,44,1633255348883 ,93,8396946743827
31.6700996 ,Left ,65,365847097704 ,43,8947020846315 ,93,7863741863343
31.6913311 ,Left ,65,3661365725075 ,43,6031625357561 ,93,7970439681557
31.7076116 ,Left ,65,370827845902 ,43,3647899855776 ,93,789144017481
31.7300856 ,Left ,65,3457394357347 ,43,1283182738036 ,93,7851980729684
31.7512698 ,Left ,65,3976965879237 ,42,9033371426419 ,93,8317826238802
31.7673023 ,Left ,65,494360804188 ,42,8272102695281 ,93,9104011913498
31.7902132 ,Left ,65,4434746518723 ,42,9333536255268 ,93,9255786236398
31.8112783 ,Left ,65,4143480701125 ,43,0407815588567 ,93,9503842466978
31.8276051 ,Left ,65,4738353594432 ,43,1050791689163 ,94,0046885523934
31.8502602 ,Left ,65,4637295466552 ,43,1260400360158 ,94,059858573716
31.871458 ,Left ,65,4373411816605 ,43,1062657049662 ,94,0721542553493
31.8933981 ,Left ,65,4270326646428 ,43,0169118269305 ,94,0242449813791
31.9102142 ,Left ,65,3642617541336 ,42,871018088954 ,94,0019455618554
31.9327015 ,Left ,65,3254254666247 ,42,7307014104225 ,93,9763814879819
31.9534844 ,Left ,65,2200318248613 ,42,6070893931865 ,93,9303833058923
31.9702125 ,Left ,65,082910088923 ,42,5031645997285 ,93,8722466980192
31.9927018 ,Left ,65,0413847008649 ,42,4498955188419 ,93,7657869416112
32.0138136 ,Left ,64,8607704414511 ,42,3324272928858 ,93,7217954383726
32.0303271 ,Left ,64,9000347070939 ,42,1774097304683 ,93,5826815774686
32.0526928 ,Left ,64,9617962248758 ,42,1574829449805 ,93,4294295449032
32.0739056 ,Left ,65,0216938418507 ,42,2374655492937 ,93,2849820298175
32.0902551 ,Left ,65,0708505972636 ,42,3851263267418 ,93,1567513026023
32.1128077 ,Left ,65,111273417832 ,42,5503468462072 ,93,0408505510215
32.1338518 ,Left ,65,1697621639745 ,42,7406791363149 ,92,9369717076441
32.1501983 ,Left ,65,2256532543657 ,42,9660333771735 ,92,8348308001316
32.172823 ,Left ,65,291830745666 ,43,1995476841915 ,92,7490651778327
32.1871033 ,Left ,65,3810198007278 ,43,3847761873894 ,92,6969944112699
32.2101727 ,Left ,65,5138178043706 ,43,5172070261793 ,92,6640666168044
32.2327793 ,Left ,65,6270056299761 ,43,5893954731229 ,92,6766656060298
32.2540152 ,Left ,65,7698756414656 ,43,6773994791166 ,92,6891194846371
32.2702627 ,Left ,65,840130134404 ,43,711323513264 ,92,7007263081045
32.292765 ,Left ,65,8502213519928 ,43,5891847291588 ,92,8029922454342
32.3137834 ,Left ,65,9137515500562 ,43,5450782164661 ,92,9041759601077
32.3325205 ,Left ,65,9023079165482 ,43,6543666896024 ,92,9617276627572
32.3527298 ,Left ,66,0271544242747 ,43,8491477810756 ,92,9031908469202
32.3739639 ,Left ,66,1377275784218 ,43,9481887431505 ,92,8215287824153
32.3902988 ,Left ,66,2002728682413 ,43,9772810490921 ,92,7948381314103
32.4126261 ,Left ,66,1713468378551 ,44,0106552643358 ,92,8283543931495
32.4338048 ,Left ,66,1089506446758 ,43,9807510686213 ,92,866096663296
32.4507435 ,Left ,66,0342037666993 ,43,8138812921486 ,92,9452154290101
32.4727864 ,Left ,66,1254903226044 ,43,6203339848562 ,93,0585686167566
32.4938887 ,Left ,66,1088973962423 ,43,6205102960326 ,93,136515304269
32.5103357 ,Left ,66,0541999960615 ,43,7435237221807 ,93,148784252631
32.532687 ,Left ,66,0823971495682 ,43,8576553162805 ,93,1588658941341
32.5539424 ,Left ,66,074441808295 ,44,0180672883548 ,93,1902254711016
32.5702037 ,Left ,66,0027638428902 ,44,1230811777857 ,93,280971689883
32.5927595 ,Left ,66,0127397784414 ,44,2300087472939 ,93,3807747251139
32.6138239 ,Left ,65,9694476013548 ,44,3543809802078 ,93,5157767107806
32.6301929 ,Left ,65,8813685951177 ,44,4673141415287 ,93,5906968292228
32.6528107 ,Left ,65,7436577245607 ,44,5622679572613 ,93,6618835394466
32.6739427 ,Left ,65,607045286669 ,44,6144713724019 ,93,6984269740643
32.6902388 ,Left ,65,5613367973761 ,44,5449135757683 ,93,7156658018398
32.7128358 ,Left ,65,528887223519 ,44,4060448588746 ,93,7998903488595
32.7338148 ,Left ,65,5089987720526 ,44,309326996497 ,93,8495487060943
32.7504148 ,Left ,65,4365637772177 ,44,40939398302 ,93,9216224771887
32.7727765 ,Left ,65,2750199074507 ,44,6729065607557 ,93,9517193272452
32.7938557 ,Left ,65,1784296903154 ,44,8848327026016 ,93,9524325114906
32.8103553 ,Left ,65,2187008466106 ,45,0225117899351 ,93,9196213309998
32.8328263 ,Left ,65,1891908257294 ,45,112851706912 ,93,8691238903465
32.8537687 ,Left ,65,121353670941 ,45,1643127396454 ,93,8181099188885
32.8696983 ,Left ,65,0583507017865 ,45,1704752530606 ,93,7526511086918
32.8926471 ,Left ,65,088774458048 ,45,1260261516231 ,93,6735459772344
32.9136008 ,Left ,65,0957422374542 ,45,0017041263203 ,93,6154859729247
32.9292545 ,Left ,65,013733767641 ,44,8757523535851 ,93,589522499148
32.9523468 ,Left ,64,9473077893482 ,44,6499103818021 ,93,5890401113197
32.9749135 ,Left ,65,026513801305 ,44,4361347838929 ,93,6272742885022
32.989505 ,Left ,65,0684352725058 ,44,4227829753177 ,93,6267330628094
33.012403 ,Left ,65,1049944528347 ,44,4725240157463 ,93,6183353022383
33.0351298 ,Left ,65,2280863903047 ,44,4167733198117 ,93,6101283709709
33.0495793 ,Left ,65,4340405141071 ,44,2033501311144 ,93,5540636114031
33.0728071 ,Left ,65,5677264092774 ,43,8996828239658 ,93,5000046294775
33.0952745 ,Left ,65,6064654081004 ,43,5328395448657 ,93,505430008284
33.1096607 ,Left ,65,6171882954135 ,43,2816108419465 ,93,5064866749301
33.1329068 ,Left ,65,6022793895656 ,43,1119629122636 ,93,4468387127358
33.1548843 ,Left ,65,6753867548064 ,42,9428823838066 ,93,4578864046965
33.1694345 ,Left ,65,7176527387346 ,42,9065722750168 ,93,5421139010363
33.1926724 ,Left ,65,7097785292222 ,43,0456751060193 ,93,6167758536864
33.2152512 ,Left ,65,7352939240503 ,43,2070911445954 ,93,6475129179453
33.2364728 ,Left ,65,7569824590902 ,43,2750178963168 ,93,7032227757152
33.2525729 ,Left ,65,7813728035156 ,43,2897283317469 ,93,7710459395385
33.2749679 ,Left ,65,7216161110164 ,43,2996534669737 ,93,8157077997714
33.2960494 ,Left ,65,6855262583161 ,43,2805714236231 ,93,7962863519086
33.3126238 ,Left ,65,6037754117893 ,43,1665631945071 ,93,7474662691716
33.3350354 ,Left ,65,5534523740609 ,42,9961689445445 ,93,7267978141629
33.3562491 ,Left ,65,4842532176416 ,42,8391057216154 ,93,7091026091785
33.3726599 ,Left ,65,3787845899043 ,42,7454350783576 ,93,6425259721961
33.3951288 ,Left ,65,226772948519 ,42,7168765260212 ,93,573235073181
33.4167528 ,Left ,65,1274964062925 ,42,6623942973564 ,93,5071243025425
33.4331992 ,Left ,65,0867177104653 ,42,5939559737539 ,93,4408447468853
33.4556356 ,Left ,65,0003495222939 ,42,5677454279631 ,93,3703197198078
33.4768708 ,Left ,64,9209706115492 ,42,5708466462699 ,93,2776574263813
33.4928474 ,Left ,64,8510059469953 ,42,6191152392848 ,93,1793960476704
33.5151565 ,Left ,64,7707282611726 ,42,7028941818441 ,93,1121606274789
33.5363197 ,Left ,64,7446657758652 ,42,8466666286497 ,93,0431049021992
33.5524792 ,Left ,64,6960904865308 ,43,0339562759464 ,92,9696416059609
33.575167 ,Left ,64,6292057122441 ,43,249597277796 ,92,9041152445291
33.5978106 ,Left ,64,5881261448492 ,43,4106619326653 ,92,8765442714277
33.6118649 ,Left ,64,6518349146307 ,43,5035440819634 ,92,8742437867413
33.6348695 ,Left ,64,6996806346907 ,43,5828324638432 ,92,9524572876104
