timestamp,event,roll,pitch,yaw
0.0131762 ,Left ,65,5386907782336 ,45,8291058663426 ,56,777238372125
0.028189 ,Left ,65,543386544804 ,45,8615128758431 ,56,789151018079
0.0509933 ,Left ,65,5632283162156 ,45,9040794985224 ,56,7988976417908
0.0733603 ,Left ,65,580666810836 ,45,9571841518265 ,56,8076984919107
0.0884905 ,Left ,65,6011952332021 ,46,0175092758808 ,56,8176351482406
0.1109008 ,Left ,65,6279520439716 ,46,0864532034864 ,56,8253150781215
0.141233 ,Left ,65,726998006933 ,46,2061648847215 ,56,8220601634578
0.1638533 ,Left ,65,7378322194592 ,46,2465898735723 ,56,8083973200162
0.2010859 ,Left ,65,7849302257383 ,46,3873004883587 ,56,7779594483666
0.2236243 ,Left ,65,7694108117657 ,46,4787538261688 ,56,7865613232103
0.2611504 ,Left ,65,7583329238892 ,46,6341511731448 ,56,8358222607364
0.283755 ,Left ,65,7735599588861 ,46,6966837743716 ,56,8573519240829
0.3212462 ,Left ,65,7501206708777 ,46,7773970034839 ,56,8805789024445
0.3438344 ,Left ,65,7181535974449 ,46,8030589711448 ,56,9027338551768
0.3886668 ,Left ,65,7290837615909 ,46,8401330191881 ,56,9153036166037
0.4112284 ,Left ,65,7170890194139 ,46,8325238085157 ,56,9276028182393
0.4412492 ,Left ,65,6764323979821 ,46,7912036547413 ,56,9696647914729
0.4635874 ,Left ,65,6708172267572 ,46,7715622845944 ,56,9912362215775
0.5011379 ,Left ,65,6663958541292 ,46,637362037447 ,56,9767363919195
0.5235032 ,Left ,65,6560537555247 ,46,5491214717637 ,56,9789923893278
0.5610053 ,Left ,65,5949704397915 ,46,51058032015 ,57,02298445427
0.5835749 ,Left ,65,5212071861139 ,46,5193872859408 ,57,0933881319765
0.6060703 ,Left ,65,4821300079414 ,46,5791704035482 ,57,1923986641917
0.6212472 ,Left ,65,488298337261 ,46,6711049075766 ,57,2830515248331
0.643821 ,Left ,65,4713546522354 ,46,7459532138665 ,57,3600948714193
0.6660947 ,Left ,65,4488763124595 ,46,788772462769 ,57,4252992718051
0.6812298 ,Left ,65,3988309647171 ,46,8109446164031 ,57,4764180304659
0.7112587 ,Left ,65,3534177768447 ,46,8077249654291 ,57,5150715957096
0.7488375 ,Left ,65,3179650568862 ,46,7444864114697 ,57,4937609613052
0.7641419 ,Left ,65,2505927011597 ,46,6928480735211 ,57,4846255029892
0.8012599 ,Left ,65,1494936771844 ,46,76237871405 ,57,5011203183979
0.8236316 ,Left ,65,1493030282633 ,46,8547486934756 ,57,5084344186837
0.8610799 ,Left ,65,1779002713038 ,46,9700004123377 ,57,5779525950178
0.8834641 ,Left ,65,1290585771631 ,47,0757808270328 ,57,6154017641014
0.9210948 ,Left ,64,9008992174882 ,47,3100271432663 ,57,624892451194
0.9434374 ,Left ,64,8425126383474 ,47,3703967832707 ,57,6136078604078
0.9809236 ,Left ,64,841008650992 ,47,3248000945743 ,57,5821673741074
1.003309 ,Left ,64,7901154902848 ,47,2342423929384 ,57,5655416024456
1.0408282 ,Left ,64,7564624888656 ,47,0039826310651 ,57,5916163880115
1.0635348 ,Left ,64,7654697876511 ,47,017215137795 ,57,5822227785024
1.1011821 ,Left ,64,8632260051365 ,47,1489383591599 ,57,612871248096
1.1236665 ,Left ,64,9066509668678 ,47,171691201973 ,57,6779488274715
1.1610882 ,Left ,64,9669498436227 ,47,2328760430064 ,57,7879215985869
1.1839949 ,Left ,64,9765263684411 ,47,2490975481891 ,57,8282124339014
1.2210812 ,Left ,64,9909871161371 ,47,2025414582574 ,57,873966595369
1.243421 ,Left ,65,0233604526773 ,47,1482033773609 ,57,8827562884772
1.2808207 ,Left ,65,0932329159132 ,47,0422321818403 ,57,8881358379612
1.3035292 ,Left ,65,1334599157919 ,46,9783220343466 ,57,9061063865331
1.3412298 ,Left ,65,1929796124004 ,46,8599934059678 ,57,9434372819784
1.3640699 ,Left ,65,2298685799615 ,46,8062917619109 ,57,9428674664189
1.400875 ,Left ,65,2995598302636 ,46,6628174961511 ,57,9489398697942
1.4233373 ,Left ,65,3500848430691 ,46,5904386036095 ,57,9512836914796
1.4607614 ,Left ,65,4113920231622 ,46,4982807967988 ,57,9085839169933
1.4832865 ,Left ,65,4165706940054 ,46,47088741389 ,57,885240495305
1.5208268 ,Left ,65,4086174742285 ,46,446075200216 ,57,8448635012586
1.5432597 ,Left ,65,4095682399319 ,46,4404873947102 ,57,8259722459923
1.5808082 ,Left ,65,4125592349867 ,46,4315124820829 ,57,812569072051
1.6033954 ,Left ,65,3937297658546 ,46,4301429819606 ,57,8251119662909
1.64094 ,Left ,65,3613977400206 ,46,4494891226688 ,57,8575019938947
1.6634213 ,Left ,65,3527665062901 ,46,4625507439662 ,57,8754276348075
1.7011097 ,Left ,65,3181484461162 ,46,4947545222687 ,57,9137285370398
1.7233664 ,Left ,65,304093239192 ,46,5029813334155 ,57,9314425263723
1.7610141 ,Left ,65,2875685048602 ,46,5078337903674 ,57,9772775100805
1.7836599 ,Left ,65,2842975286802 ,46,498063417115 ,58,0140021272397
1.813467 ,Left ,65,2892670405954 ,46,4887150973336 ,58,1110279916752
1.8436842 ,Left ,65,2966902056839 ,46,4946653302874 ,58,1584302986881
1.8811117 ,Left ,65,3059595028537 ,46,4940908048697 ,58,2531868596727
1.9033618 ,Left ,65,3171951051874 ,46,5071995963136 ,58,2973410983426
1.9411348 ,Left ,65,2915302661205 ,46,52914150675 ,58,3790337318158
1.9560682 ,Left ,65,2941756445149 ,46,5370101160185 ,58,4085524952749
1.9786194 ,Left ,65,2780052418892 ,46,5438521398771 ,58,4346650644317
1.9937623 ,Left ,65,2723628180968 ,46,5571559320845 ,58,455066270655
2.0158092 ,Left ,65,2642784221722 ,46,5604647442274 ,58,4703138080679
2.0381858 ,Left ,65,252606718934 ,46,557727160354 ,58,4825614784744
2.0535789 ,Left ,65,2441385695011 ,46,5626663670148 ,58,4821833346845
2.0760821 ,Left ,65,2222230857958 ,46,580990846537 ,58,4696634448794
2.1060712 ,Left ,65,2165167135375 ,46,6098043455769 ,58,4492396857167
2.1209714 ,Left ,65,2370708908669 ,46,6348435673113 ,58,4273436730717
2.1436921 ,Left ,65,2589851562375 ,46,6600123070288 ,58,4224452844876
2.1584683 ,Left ,65,2506534659282 ,46,6727000460369 ,58,4331561078805
2.1736757 ,Left ,65,2318055993479 ,46,6763640448579 ,58,466652483613
2.1963585 ,Left ,65,2167755250255 ,46,6924637898342 ,58,5250447738787
2.219004 ,Left ,65,1991584430962 ,46,7171116788924 ,58,5896569581731
2.2334788 ,Left ,65,2057865266331 ,46,7333637400808 ,58,6560830884009
2.2557442 ,Left ,65,2090133844484 ,46,7369310626603 ,58,7180682544042
2.2789196 ,Left ,65,1996882503699 ,46,7057436514206 ,58,7697428902538
2.2934395 ,Left ,65,1817089675398 ,46,670210650281 ,58,809583065628
2.3157449 ,Left ,65,161509806241 ,46,6423052234876 ,58,8270321263766
2.3390111 ,Left ,65,1483846311117 ,46,606325848355 ,58,8227597320503
2.3541765 ,Left ,65,1739531375534 ,46,5588471431963 ,58,8073634400499
2.3764369 ,Left ,65,1735044880801 ,46,4792369551693 ,58,7844950318958
2.398684 ,Left ,65,1742214111615 ,46,4040807347986 ,58,7569907657477
2.413434 ,Left ,65,1673449387996 ,46,3487244821469 ,58,7178219896929
2.4359262 ,Left ,65,1591610946882 ,46,2995742577091 ,58,6675225817031
2.4585067 ,Left ,65,1844808939656 ,46,2517798486742 ,58,6077493477781
2.4734823 ,Left ,65,2005489513139 ,46,1952656960902 ,58,5360249871512
2.4957968 ,Left ,65,2320476173639 ,46,1329620468026 ,58,4616974046172
2.5184763 ,Left ,65,2419440081657 ,46,0758576311124 ,58,3871744823915
2.5332864 ,Left ,65,2399020229521 ,46,0251110320527 ,58,3249857267393
2.5557639 ,Left ,65,2557597120291 ,45,9926321595657 ,58,2718927462138
2.5784634 ,Left ,65,2685734044924 ,45,9782139690893 ,58,236891354173
2.6009395 ,Left ,65,2703215848174 ,45,976863732879 ,58,2175627423467
2.6157701 ,Left ,65,2926381006455 ,45,9829164793188 ,58,1979068723558
2.6383589 ,Left ,65,290087233238 ,45,9851078572024 ,58,1822536228379
2.6612183 ,Left ,65,2759551594702 ,46,0082546957443 ,58,1565063190676
2.6758705 ,Left ,65,2556504247765 ,46,0477194253012 ,58,1248037758048
2.6986989 ,Left ,65,2210484588727 ,46,0961077312752 ,58,0974563254016
2.7213007 ,Left ,65,2019007243479 ,46,1398364456201 ,58,0818770819268
2.7360284 ,Left ,65,1626972991687 ,46,1767767985255 ,58,0693849035624
2.7585256 ,Left ,65,125025094224 ,46,2185239237021 ,58,0642120059536
2.7812555 ,Left ,65,1109936465351 ,46,2761407771347 ,58,0484678557835
2.7959672 ,Left ,65,1001809983443 ,46,3150442568606 ,58,0283078994922
2.8181655 ,Left ,65,0967351423669 ,46,3359465514087 ,58,0195680617323
2.8410133 ,Left ,65,0988617649378 ,46,3337240361835 ,58,018753142547
2.8557408 ,Left ,65,0673938619878 ,46,3015278663785 ,58,0348183552875
2.8782317 ,Left ,64,9770198333009 ,46,2869821590193 ,58,035650855512
2.9009566 ,Left ,64,8677514732262 ,46,2810725969652 ,58,0313690062318
2.9157429 ,Left ,64,8311229665838 ,46,2235762959862 ,58,0606616857207
2.9383821 ,Left ,64,8109325256609 ,46,2117433839048 ,58,1372657202478
2.9608951 ,Left ,64,8072223263797 ,46,3002454515201 ,58,2003786979736
2.9758023 ,Left ,64,8273788509851 ,46,3935994758008 ,58,2272146571067
2.9983172 ,Left ,64,8329787080198 ,46,442352478195 ,58,2367112515509
3.0209828 ,Left ,64,8228928001242 ,46,4846031724296 ,58,2130379888186
3.0358301 ,Left ,64,7787353112165 ,46,5185047795876 ,58,1665435977745
3.0583994 ,Left ,64,7571679843809 ,46,5443271787292 ,58,0912459671142
3.0811425 ,Left ,64,7209891031768 ,46,5230248222726 ,57,9910713752903
3.0959543 ,Left ,64,7181390440343 ,46,4107630062591 ,57,9354129516733
3.1184257 ,Left ,64,7279846883652 ,46,2541632377129 ,57,9273342578369
3.140952 ,Left ,64,7426254455128 ,46,1891564101706 ,57,9240208947509
3.1558713 ,Left ,64,7729120881988 ,46,2406889199755 ,57,8754015821579
3.1784279 ,Left ,64,798362792441 ,46,2663009156243 ,57,833028228836
3.2010441 ,Left ,64,8368502389889 ,46,3130582667721 ,57,8143922445104
3.2159778 ,Left ,64,8499471594126 ,46,3690679016598 ,57,7934986196936
3.2381471 ,Left ,64,792521466563 ,46,4278797206948 ,57,7820880118236
3.2609076 ,Left ,64,8034741448257 ,46,4230918198106 ,57,7939046776309
3.2758437 ,Left ,64,7996132751812 ,46,3525752321705 ,57,8629988544915
3.2985395 ,Left ,64,8461163454023 ,46,3983196886922 ,57,9267652960662
3.3213214 ,Left ,64,8308900042902 ,46,5246763869776 ,57,9621132825505
3.3436417 ,Left ,64,8542287659135 ,46,6789048716092 ,58,0026859611063
3.3585149 ,Left ,64,8273680963833 ,46,8717240109576 ,58,0583842648954
3.3807196 ,Left ,64,7590209328318 ,47,0906720628127 ,58,0887116655052
3.4035294 ,Left ,64,6540714108077 ,47,2735572571769 ,58,1063291412995
3.4183943 ,Left ,64,5831458588511 ,47,4024933854991 ,58,1213904357139
3.4411053 ,Left ,64,50913226967 ,47,4718838092598 ,58,1462706832069
3.4638044 ,Left ,64,4132958919257 ,47,451699764843 ,58,1730855989218
3.4785053 ,Left ,64,3741829739404 ,47,3445146698314 ,58,1934239569131
3.5012182 ,Left ,64,323324627004 ,47,2007204579475 ,58,1917962479675
3.5236255 ,Left ,64,2499396462782 ,47,1225937447338 ,58,1984118312053
3.5385731 ,Left ,64,1999812820773 ,47,1962575257584 ,58,1784673557126
3.5611174 ,Left ,64,2175129937589 ,47,2864636621213 ,58,168761230089
3.5833168 ,Left ,64,2639805590952 ,47,3154297406972 ,58,211035140813
3.5983057 ,Left ,64,324631827477 ,47,3281494464402 ,58,2377195239922
3.6209563 ,Left ,64,3714765037239 ,47,3873506603931 ,58,220139534556
3.6434982 ,Left ,64,3725934039791 ,47,4895187755381 ,58,1434078543479
3.6586443 ,Left ,64,4119861511917 ,47,5848450802895 ,58,0091761512711
3.680923 ,Left ,64,4731415825512 ,47,6501689931581 ,57,8493492188363
3.703409 ,Left ,64,4991992232691 ,47,7035768987362 ,57,6887897662154
3.7184691 ,Left ,64,4927180133713 ,47,7452045714947 ,57,5167882534623
3.7409689 ,Left ,64,4744012994274 ,47,7511802220597 ,57,3302062215887
3.7637711 ,Left ,64,4511825219679 ,47,6861945643593 ,57,1454826309145
3.7786119 ,Left ,64,4547251233836 ,47,5795143611578 ,56,987684284306
3.8012301 ,Left ,64,4673120491359 ,47,4653629831339 ,56,8441307595369
3.8235711 ,Left ,64,4251633516132 ,47,3343917577349 ,56,7226286430752
3.8387399 ,Left ,64,3900015661578 ,47,1412811834977 ,56,7275066200867
3.861108 ,Left ,64,4043908048931 ,46,9472750256653 ,56,8043767917355
3.8838124 ,Left ,64,4848066090484 ,46,9293698099819 ,56,8461312705723
3.898594 ,Left ,64,592792173624 ,46,955295536722 ,56,8774142070255
3.9213429 ,Left ,64,7547033374096 ,46,8651947263423 ,56,969655169903
3.9438358 ,Left ,64,860314978105 ,46,766576797193 ,57,0653859293263
3.9585959 ,Left ,64,9263767554462 ,46,7232514440668 ,57,1225376859981
3.9811997 ,Left ,64,954692488619 ,46,6874055081905 ,57,1757811415032
4.0038221 ,Left ,64,9858908535534 ,46,6939563168442 ,57,2225099501008
4.0186242 ,Left ,65,0097106619542 ,46,7119278300615 ,57,2181217938945
4.0410052 ,Left ,65,0278996378094 ,46,7148541772679 ,57,1652893868732
4.0636377 ,Left ,64,9970376984245 ,46,6612192374569 ,57,1268184733819
4.0782824 ,Left ,64,9947250546004 ,46,5158147990842 ,57,1263023904318
4.101624 ,Left ,64,9367174982408 ,46,3668793347004 ,57,1486724328233
4.1244039 ,Left ,64,8781165136722 ,46,3835120565529 ,57,1612497344347
4.1460812 ,Left ,64,8581322786632 ,46,5024219413489 ,57,1485489263137
4.1608335 ,Left ,64,9016988297644 ,46,5701459225579 ,57,1565373941494
4.1835969 ,Left ,64,9643904045618 ,46,5734002491082 ,57,1975940659645
4.1982728 ,Left ,64,9827440696914 ,46,5620464958617 ,57,2464239222052
4.2209353 ,Left ,64,999749503782 ,46,551140339396 ,57,2961634924818
4.2433087 ,Left ,65,0086224900421 ,46,5339859971158 ,57,3449475691687
4.2584385 ,Left ,65,0340580318704 ,46,5074529101318 ,57,3939107773094
4.2811454 ,Left ,65,0536545589575 ,46,4744847670671 ,57,4328455413349
4.303294 ,Left ,65,0514107522499 ,46,4492323182121 ,57,4727868607489
4.3182689 ,Left ,65,0418392840459 ,46,4292921999187 ,57,5205344535748
4.3408812 ,Left ,65,0002147439412 ,46,3995327276761 ,57,5787861960845
4.3635524 ,Left ,64,9724184832365 ,46,3454866590725 ,57,6461094456639
4.3784248 ,Left ,64,975718634935 ,46,2878891947814 ,57,6983295522182
4.4009808 ,Left ,64,9556801240766 ,46,2299259820731 ,57,7432660220717
4.423444 ,Left ,64,946416401661 ,46,1914734729857 ,57,7751878004403
4.438555 ,Left ,64,9337811333867 ,46,1740506992354 ,57,7940276357663
4.460896 ,Left ,64,93769867903 ,46,1683446756942 ,57,8030838010593
4.4834751 ,Left ,64,9346307194157 ,46,1554028596987 ,57,8031869293376
4.5060105 ,Left ,64,9319650235492 ,46,1274701105078 ,57,7991901104461
4.5208597 ,Left ,64,9470784280101 ,46,0970570292279 ,57,7893580277142
4.5433792 ,Left ,64,9383984174202 ,46,0896034487075 ,57,778538708206
4.5659615 ,Left ,64,9338349180414 ,46,1015735180868 ,57,7545651468425
4.5810886 ,Left ,64,9134839444411 ,46,1038024308677 ,57,7325857497677
4.6038418 ,Left ,64,8845293568919 ,46,0851877066138 ,57,7210971774258
4.6261434 ,Left ,64,8704862242044 ,46,0853016524931 ,57,7117108970326
4.6411323 ,Left ,64,8421656408715 ,46,1173045350122 ,57,6927505903236
4.663701 ,Left ,64,8220126831446 ,46,1323789357193 ,57,6587093057016
4.686256 ,Left ,64,8110026054121 ,46,0966163640937 ,57,6234366630356
4.701285 ,Left ,64,8091323155392 ,46,0618365749761 ,57,5975550813481
4.7237495 ,Left ,64,7505186880542 ,46,0672553017054 ,57,5910223471582
4.7461804 ,Left ,64,6984623064792 ,46,0696600511699 ,57,603840839646
4.7611386 ,Left ,64,7063166665617 ,46,0748367267335 ,57,6406737454798
4.7836958 ,Left ,64,7419352850432 ,46,0834377802733 ,57,6925524485133
4.8061438 ,Left ,64,7914189743957 ,46,1033406675604 ,57,7317695251963
4.8213675 ,Left ,64,775798765608 ,46,1282634111019 ,57,7530153937636
4.8438634 ,Left ,64,7830607688228 ,46,1562121807066 ,57,7500681850606
4.8661867 ,Left ,64,7558069879569 ,46,1690687313941 ,57,7287625847653
4.8813256 ,Left ,64,7493292874752 ,46,1581176538358 ,57,6985681363009
4.903836 ,Left ,64,7388078941717 ,46,1508163935876 ,57,6676703040909
4.926182 ,Left ,64,6548249148354 ,46,142542001002 ,57,6338664029291
4.9410781 ,Left ,64,6120946340479 ,46,0831635437423 ,57,5809248528395
4.9636561 ,Left ,64,6067225992488 ,46,0043324452374 ,57,5780263356499
4.9861534 ,Left ,64,6056565526291 ,45,8992866662938 ,57,6063526806587
5.0012696 ,Left ,64,5855811411275 ,45,8887001555036 ,57,613168444443
5.0233801 ,Left ,64,5714437943211 ,45,9498826755055 ,57,6097931813085
5.0459363 ,Left ,64,5825892345633 ,45,9751503293211 ,57,6052610634079
5.0609015 ,Left ,64,6128639262584 ,46,0143797713278 ,57,6192141993996
5.0833464 ,Left ,64,5882830379495 ,46,0653451579803 ,57,6252508064434
5.1059215 ,Left ,64,5466093512631 ,46,0988741753055 ,57,6274308003274
5.1210902 ,Left ,64,5120130813355 ,46,10908313718 ,57,6277188701898
5.1434486 ,Left ,64,5560490737001 ,46,0770512943107 ,57,6512952519902
5.165944 ,Left ,64,605566026234 ,46,0372378536623 ,57,7124311421161
5.1810128 ,Left ,64,6248987736467 ,46,1042410906873 ,57,7598156847554
5.2037 ,Left ,64,6437371284878 ,46,2378750978773 ,57,781799815455
5.2260307 ,Left ,64,6712528224978 ,46,3879015699748 ,57,8190362431396
5.248638 ,Left ,64,6475642209925 ,46,5541435845119 ,57,8586419689393
5.2634304 ,Left ,64,5728255044397 ,46,7209648082778 ,57,8930433549798
5.2860802 ,Left ,64,4904151805014 ,46,8495152452713 ,57,910605822039
5.3087642 ,Left ,64,4521216641166 ,46,9269671204172 ,57,9030537509756
5.3234098 ,Left ,64,4012726919452 ,46,9471196832569 ,57,8882380728051
5.3463877 ,Left ,64,3700509330091 ,46,9046943356327 ,57,8860114975314
5.3688406 ,Left ,64,302325557884 ,46,8189314614269 ,57,8897321969055
5.3841339 ,Left ,64,2270968539688 ,46,7191076838698 ,57,8694626768598
5.4067166 ,Left ,64,1988208101595 ,46,7039581290811 ,57,841825569025
5.4286868 ,Left ,64,2093252046679 ,46,768995246673 ,57,8241651373171
5.4434566 ,Left ,64,2485115099862 ,46,83641874276 ,57,8513574032922
5.4737832 ,Left ,64,320276726378 ,46,861265532242 ,57,8916857128937
5.496175 ,Left ,64,3951058021233 ,46,8906728477885 ,57,9208181689169
5.5111164 ,Left ,64,412389857856 ,46,9529178867879 ,57,9184509664161
5.5259451 ,Left ,64,4333104697805 ,47,0230504456335 ,57,8820388936306
5.5485592 ,Left ,64,4627943344352 ,47,0894828076511 ,57,8075390921908
5.5634588 ,Left ,64,4782992542434 ,47,1463551101743 ,57,7081825020792
5.5859804 ,Left ,64,4946091361627 ,47,2041875528837 ,57,5753156872749
5.6083221 ,Left ,64,5020810324097 ,47,2540306730439 ,57,4076881354359
5.6235001 ,Left ,64,4942613886786 ,47,2884244460379 ,57,2254428716232
5.6460419 ,Left ,64,4760584452414 ,47,2873049657621 ,57,0536179707224
5.6685241 ,Left ,64,46262330639 ,47,270492959779 ,56,8928045798534
5.6834319 ,Left ,64,4413536524651 ,47,2318289636515 ,56,7394591658087
5.7061534 ,Left ,64,4399052134776 ,47,1699610147917 ,56,6094191073118
5.7286295 ,Left ,64,4266584953843 ,47,0854777837674 ,56,4909445996247
5.7435404 ,Left ,64,4024488948104 ,46,9797791045673 ,56,4074530785186
5.7659731 ,Left ,64,3849111979386 ,46,8978817582852 ,56,3956562272672
5.7885104 ,Left ,64,406126750171 ,46,8467093537973 ,56,4567587204597
5.8038389 ,Left ,64,5164981754322 ,46,822364187943 ,56,5192532513877
5.8260182 ,Left ,64,6001772206237 ,46,7826329623384 ,56,5814385545667
5.8486428 ,Left ,64,7049051434408 ,46,7193729901305 ,56,6391395274021
5.8638099 ,Left ,64,7689830609787 ,46,6555740785286 ,56,6873554881736
5.8862973 ,Left ,64,8075725662301 ,46,5999114710003 ,56,7283626677386
5.9012209 ,Left ,64,8451287842722 ,46,5122286489643 ,56,7625871930155
5.9161183 ,Left ,64,8822546885624 ,46,4189103627422 ,56,8080216952863
5.9386339 ,Left ,64,9227402610152 ,46,3467764974408 ,56,861454214205
5.9611005 ,Left ,64,91244117633 ,46,2994495962469 ,56,9317203167197
5.9758105 ,Left ,64,8974335546347 ,46,2648238479009 ,56,9718536283713
5.9984013 ,Left ,64,8896964056596 ,46,2203887788647 ,56,9842055400125
6.0209534 ,Left ,64,8118401692411 ,46,1492060335973 ,57,0096761754854
6.0360526 ,Left ,64,7626623949837 ,46,1430152080418 ,57,0480840701882
6.0584846 ,Left ,64,730324897438 ,46,2232811823327 ,57,0684658523243
6.0809539 ,Left ,64,774238577269 ,46,2936080394977 ,57,0885644419151
6.0960017 ,Left ,64,8238055509398 ,46,3314351883995 ,57,1293916403294
6.1184539 ,Left ,64,8626921748042 ,46,3582458769175 ,57,1674812829094
6.1407978 ,Left ,64,8690366171276 ,46,3315569893969 ,57,1974893654001
6.1558251 ,Left ,64,9136801058607 ,46,3125572826769 ,57,2179821065639
6.1783465 ,Left ,64,9511194623021 ,46,288964653683 ,57,2388506555487
6.2157823 ,Left ,64,9655816450961 ,46,2176542498962 ,57,3316832904475
6.2384859 ,Left ,64,9574376476889 ,46,195907679229 ,57,3945408407678
6.2760234 ,Left ,64,9188651432532 ,46,1467742344091 ,57,5217892706304
6.2987891 ,Left ,64,9126290917049 ,46,1143086592022 ,57,5905800997955
6.3361962 ,Left ,64,9114038925993 ,46,057658381431 ,57,7238318465181
6.3587551 ,Left ,64,8984810729124 ,46,0374520929396 ,57,7738103665429
6.3962244 ,Left ,64,8550476071446 ,46,0141397492478 ,57,8223004289293
6.4188702 ,Left ,64,8369560337749 ,45,9909092756984 ,57,8434203689321
6.4562391 ,Left ,64,813600274881 ,45,9544142387209 ,57,8923755619527
6.478862 ,Left ,64,8013590944609 ,45,9490029355433 ,57,906150486996
6.5162611 ,Left ,64,7838086196858 ,45,9411590898411 ,57,9231625645824
6.5386224 ,Left ,64,7549962395229 ,45,959167204822 ,57,9270402174733
6.5762406 ,Left ,64,7250836317149 ,45,9831094755441 ,57,8946971838644
6.5987803 ,Left ,64,7181809434333 ,45,9691717818373 ,57,8792316680901
6.6362851 ,Left ,64,638670664999 ,45,8878233305348 ,57,8573165774588
6.6587843 ,Left ,64,5849209493559 ,45,8834918804939 ,57,8461599480131
6.6962613 ,Left ,64,5170435462433 ,45,9122609909171 ,57,8828926221866
6.7187843 ,Left ,64,5112401880669 ,45,978712171224 ,57,9204949639456
6.7561507 ,Left ,64,5990454734959 ,46,1337423298424 ,57,9497411364318
6.7787964 ,Left ,64,6333028335038 ,46,1803049671879 ,57,9420000908088
6.8162756 ,Left ,64,6041870161004 ,46,2441321825298 ,57,8530140401576
6.838788 ,Left ,64,5887058558671 ,46,2593106758458 ,57,7985435323752
6.8760759 ,Left ,64,5290120029165 ,46,29648823969 ,57,6833470371077
6.8984037 ,Left ,64,5131596087408 ,46,2143679795166 ,57,6583774557879
6.9360669 ,Left ,64,4741978221777 ,46,0679046811422 ,57,6607214515382
6.9586738 ,Left ,64,4489822693103 ,46,1251243610839 ,57,6376754003383
6.9959991 ,Left ,64,51909765685 ,46,2327927167349 ,57,6580442194846
7.0183654 ,Left ,64,5165348983335 ,46,277769235816 ,57,6928887878915
7.0558937 ,Left ,64,4198576327873 ,46,2822846823516 ,57,7583913363911
7.0783183 ,Left ,64,3871690085869 ,46,276981280828 ,57,7537036436042
7.1160257 ,Left ,64,3360944913205 ,46,2017884882784 ,57,7710459409594
7.1385714 ,Left ,64,354108239029 ,46,213947392387 ,57,7968783940326
7.176258 ,Left ,64,4368867641813 ,46,3681558652296 ,57,8097030443489
7.1985977 ,Left ,64,4406420509584 ,46,4785294587239 ,57,8336878074469
7.2362292 ,Left ,64,2853311388756 ,46,697731856783 ,57,828913385355
7.2586054 ,Left ,64,2323464812974 ,46,7479081398349 ,57,8307996151623
7.2961096 ,Left ,64,1426095232548 ,46,8132673101162 ,57,872526785801
7.3186951 ,Left ,64,0635314674128 ,46,8231487589957 ,57,8777048428374
7.3563157 ,Left ,63,9387393964412 ,46,7181823756185 ,57,9295063108277
7.3786597 ,Left ,63,9246817342849 ,46,6937464244422 ,57,9341178322772
7.4160893 ,Left ,63,9992115890291 ,46,7923116876291 ,57,9166259732502
7.4386183 ,Left ,64,1037259349894 ,46,7948251875929 ,57,9243463648726
7.4760653 ,Left ,64,259923251642 ,46,8321421553461 ,57,9015629038341
7.4984894 ,Left ,64,3256523834868 ,46,8939142781482 ,57,8322943589941
7.5360426 ,Left ,64,4145960801957 ,47,0491139514532 ,57,5994364136409
7.5584895 ,Left ,64,4150991296907 ,47,1121968948152 ,57,4868250502174
7.5960579 ,Left ,64,3693085066069 ,47,1727263343659 ,57,2551969755563
7.6185806 ,Left ,64,3567672845309 ,47,1677066967998 ,57,1313972536492
7.6560836 ,Left ,64,3119986511833 ,47,1560562419249 ,56,8919610789555
7.6783187 ,Left ,64,2744828629627 ,47,1441046474372 ,56,7894118483938
7.7159121 ,Left ,64,1930776359848 ,47,0683445519719 ,56,6174793447585
7.7385522 ,Left ,64,2012063937595 ,46,9613848333419 ,56,5632214435439
7.7536603 ,Left ,64,2220946635964 ,46,8846944255216 ,56,5835740987656
7.776176 ,Left ,64,320393757279 ,46,8827485861329 ,56,6166078418123
7.7910286 ,Left ,64,4606364682239 ,46,9163923161636 ,56,6443902914238
7.8135167 ,Left ,64,5217698815636 ,46,8778702404565 ,56,6893217217611
7.8283933 ,Left ,64,6051305581311 ,46,7959963434222 ,56,7340692317222
7.8512047 ,Left ,64,6812061319483 ,46,7113988608427 ,56,7524171684954
7.8736016 ,Left ,64,7392078213738 ,46,638754642203 ,56,7650236004408
7.8884811 ,Left ,64,7814518679009 ,46,5659658231601 ,56,7728348517267
7.910966 ,Left ,64,8015362773011 ,46,5069009642879 ,56,7829918645261
7.933699 ,Left ,64,8043280579076 ,46,4552910479599 ,56,7828301608797
7.9484895 ,Left ,64,7617831707898 ,46,3615231495869 ,56,7852231955986
7.9712188 ,Left ,64,7563792996998 ,46,254157994229 ,56,7998522565488
7.9937785 ,Left ,64,7288652592417 ,46,1560854158403 ,56,8025830776271
8.0160513 ,Left ,64,7219365353022 ,46,1676245191869 ,56,7970563487154
8.0311981 ,Left ,64,7293551720305 ,46,2272247869661 ,56,7847676480452
8.0537978 ,Left ,64,7934576319356 ,46,2779224617507 ,56,8104217713482
8.0758086 ,Left ,64,8180527388094 ,46,2903213843323 ,56,8504266443672
8.0909948 ,Left ,64,8236756459418 ,46,3124016990673 ,56,8814644523496
8.1136108 ,Left ,64,8299516815858 ,46,3254499831701 ,56,9079665120118
8.1285317 ,Left ,64,8642070741393 ,46,3242560945485 ,56,939455717536
8.1509402 ,Left ,64,8766469189695 ,46,3186814119495 ,56,9729631745133
8.1734478 ,Left ,64,8733283938792 ,46,3134664101114 ,57,0227641951019
8.1885227 ,Left ,64,8567884889158 ,46,310929546022 ,57,0830075625288
8.2109817 ,Left ,64,8442021510073 ,46,304697119925 ,57,1483007224591
8.2336568 ,Left ,64,8481669069649 ,46,2747546238567 ,57,220502333908
8.255934 ,Left ,64,8403724549857 ,46,2313192933821 ,57,2906669885243
8.2711464 ,Left ,64,819817874205 ,46,1936698646499 ,57,3569028380289
8.2937419 ,Left ,64,8022855808163 ,46,1619561513362 ,57,4098781024441
8.3160277 ,Left ,64,7793739807415 ,46,1332305717682 ,57,4446154828714
8.3311467 ,Left ,64,7674081999336 ,46,0937142542451 ,57,4758421565411
8.3534606 ,Left ,64,7614954748646 ,46,0734539735668 ,57,5097333086566
8.3760355 ,Left ,64,747800877918 ,46,0749140074117 ,57,5400703167405
8.3909195 ,Left ,64,7490518467066 ,46,0947042943111 ,57,5609146007353
8.4137474 ,Left ,64,7294273223888 ,46,1126403124339 ,57,5717515150378
8.436084 ,Left ,64,703496121906 ,46,1339773780185 ,57,5795227976167
8.4512215 ,Left ,64,6749769629668 ,46,1517558432854 ,57,5789929274286
8.4736077 ,Left ,64,6733644218656 ,46,156710444823 ,57,5742847843363
8.4961727 ,Left ,64,6644511370451 ,46,1448750221516 ,57,5596435007401
8.5109568 ,Left ,64,6103129301778 ,46,1213307094417 ,57,5512162236009
8.533823 ,Left ,64,5619116544626 ,46,1062310943325 ,57,5396474235435
8.5561181 ,Left ,64,4866758054285 ,46,1316887980335 ,57,5288669653332
8.5712628 ,Left ,64,4284064707999 ,46,1214144097335 ,57,5315689506837
8.5938094 ,Left ,64,438892109136 ,46,1425230677621 ,57,5662573167375
8.6161145 ,Left ,64,4641967841327 ,46,1959339198504 ,57,6020061846738
8.6309833 ,Left ,64,5112662739985 ,46,2492002777023 ,57,6183440393099
8.6538278 ,Left ,64,4930081026856 ,46,2640613438208 ,57,6293030246965
8.6762523 ,Left ,64,4772463606456 ,46,2752614977715 ,57,6256757288615
8.6910235 ,Left ,64,4414615117093 ,46,2547898920225 ,57,5955819329001
8.7136631 ,Left ,64,4246328641242 ,46,225629733108 ,57,5411098708482
8.736168 ,Left ,64,3427736424328 ,46,1600457845286 ,57,4704714359502
8.7512401 ,Left ,64,3397905150503 ,46,1183625163457 ,57,4147319893353
8.773542 ,Left ,64,3316101931778 ,46,0592495302991 ,57,4057933451964
8.795903 ,Left ,64,3382007264444 ,46,0608608195665 ,57,4289117408655
8.8110267 ,Left ,64,3773810338882 ,46,1125944848311 ,57,4483513077118
8.8334034 ,Left ,64,3812539869957 ,46,161545605519 ,57,4752217967708
8.8559998 ,Left ,64,3809518219473 ,46,2221348746602 ,57,5169161628639
8.8711574 ,Left ,64,3412525794786 ,46,2760983554931 ,57,5556852847571
8.8936927 ,Left ,64,2801008511329 ,46,3362042649289 ,57,5946466575297
8.9160478 ,Left ,64,2374654067907 ,46,3733868843446 ,57,6071292143957
8.9311784 ,Left ,64,2198920701618 ,46,3304756324912 ,57,6279053170347
8.9536789 ,Left ,64,2307584536941 ,46,1855744007432 ,57,6909561408157
8.9761727 ,Left ,64,2442772181833 ,46,1853854380214 ,57,7271450511298
8.9986096 ,Left ,64,2461449042254 ,46,3232723174218 ,57,7019238219363
9.0211617 ,Left ,64,264149760981 ,46,462117101715 ,57,7045231637863
9.0437188 ,Left ,64,2335911586599 ,46,6271192885116 ,57,7189724136778
9.0660712 ,Left ,64,133693335904 ,46,7720851489303 ,57,7338118439551
9.0811531 ,Left ,64,0424101043555 ,46,8863682255152 ,57,7481915551997
9.0962059 ,Left ,64,0007871614152 ,46,9669071679769 ,57,7524928341693
9.1186754 ,Left ,63,9655188822287 ,46,980143036065 ,57,7555637101141
9.1335429 ,Left ,63,93721377685 ,46,9268535448821 ,57,7871648087127
9.156012 ,Left ,63,8502174497194 ,46,8095938747077 ,57,8226098332975
9.1785395 ,Left ,63,8155283268243 ,46,7047275470291 ,57,8297155963124
9.1936132 ,Left ,63,8029466810275 ,46,7004866846682 ,57,8006269659211
9.2159751 ,Left ,63,81341598449 ,46,7969464952629 ,57,767298334346
9.2385237 ,Left ,63,8783960767558 ,46,8970378511014 ,57,7521849315401
9.2537997 ,Left ,63,9307889578995 ,46,9651814026639 ,57,7657242452189
9.2761958 ,Left ,63,9762630479076 ,47,0465779037461 ,57,751573416414
9.298574 ,Left ,64,0174018750312 ,47,1452809835827 ,57,678435226435
9.3133236 ,Left ,64,0226530332631 ,47,2525292055468 ,57,5591574706381
9.3359813 ,Left ,64,0156520752131 ,47,3407545108383 ,57,3954661652269
9.3584029 ,Left ,63,9957464497484 ,47,3984822864237 ,57,2248815459931
9.3733301 ,Left ,63,972115608031 ,47,4261306925206 ,57,0497618562638
9.3961992 ,Left ,63,960544306486 ,47,4246465004385 ,56,8683677436793
9.4188088 ,Left ,63,9413593154378 ,47,3979929055471 ,56,685123852349
9.433871 ,Left ,63,9379992413983 ,47,3437263102891 ,56,5095480939718
9.4561447 ,Left ,63,9244410469772 ,47,2596303249699 ,56,3559359288766
9.4788083 ,Left ,63,9041773646259 ,47,1505174827406 ,56,2444522105368
9.4939197 ,Left ,63,9169883324425 ,47,0363115639398 ,56,1991971627683
9.5162547 ,Left ,63,9589746391288 ,46,9794739756331 ,56,250858871948
9.5387734 ,Left ,64,069168625218 ,46,9998835077212 ,56,3070620754331
9.5538911 ,Left ,64,2265308807782 ,46,984276214971 ,56,3887336950246
9.5761701 ,Left ,64,3840519749247 ,46,9035310676566 ,56,4947007617777
9.5987266 ,Left ,64,4640379047105 ,46,8308505692594 ,56,5679704324055
9.6137031 ,Left ,64,5142079950802 ,46,7922626706691 ,56,606112599692
9.6363148 ,Left ,64,582131307764 ,46,726682722716 ,56,631143231848
9.6587148 ,Left ,64,6573871271562 ,46,6342589925249 ,56,6659368915938
9.6736304 ,Left ,64,7136930428258 ,46,5371427317936 ,56,7184698520832
9.6961608 ,Left ,64,695524746703 ,46,4946780893651 ,56,7547287863753
9.7187991 ,Left ,64,6798660351551 ,46,4811627535949 ,56,7506336215053
9.733929 ,Left ,64,6446218769585 ,46,4150451955419 ,56,7261143315293
9.7561328 ,Left ,64,6043193791366 ,46,3197798905304 ,56,7306605105948
9.778746 ,Left ,64,592039948925 ,46,2171440066236 ,56,7565430620656
9.8013425 ,Left ,64,594441666306 ,46,2336619466714 ,56,7528209269429
9.8162441 ,Left ,64,639106343296 ,46,2971955357604 ,56,7262659860079
9.8387017 ,Left ,64,7068843517599 ,46,3118887701385 ,56,739370834599
9.8538149 ,Left ,64,7291420407355 ,46,284003919056 ,56,8074585828464
9.8761412 ,Left ,64,749252519587 ,46,2446078245777 ,56,8812804995451
9.8986337 ,Left ,64,7683083600368 ,46,2152289118696 ,56,9482929038381
9.9134372 ,Left ,64,8109306469558 ,46,1986420173585 ,57,0130497550878
9.9356978 ,Left ,64,8459456497558 ,46,1933738839756 ,57,0761983124331
9.9584189 ,Left ,64,847212872842 ,46,1763740379575 ,57,1546015809596
9.9733276 ,Left ,64,8548897536768 ,46,1448736785512 ,57,2441589710426
9.9958531 ,Left ,64,8523134405709 ,46,1065092645642 ,57,3398358056459
10.0182911 ,Left ,64,8387338716608 ,46,0819143648194 ,57,4242848647989
10.0333055 ,Left ,64,8045931284359 ,46,059007967894 ,57,4957348954937
10.0558091 ,Left ,64,7703365652272 ,46,0253445259438 ,57,5663450643526
10.0783141 ,Left ,64,7733354118626 ,45,9787289493478 ,57,6244932980997
10.0932765 ,Left ,64,7488808332762 ,45,9484041415111 ,57,6579345225278
10.1158173 ,Left ,64,7127217139224 ,45,9245315271965 ,57,6700380040671
10.1384459 ,Left ,64,685938181994 ,45,9166142842633 ,57,6709290152687
10.1610984 ,Left ,64,6619310500048 ,45,9091823939833 ,57,6654832676535
10.1760522 ,Left ,64,6588413539124 ,45,9072226034396 ,57,661887673464
10.198409 ,Left ,64,6565643126498 ,45,9044447760657 ,57,6564363845399
10.2209254 ,Left ,64,6379077318407 ,45,9021915216405 ,57,6417468418284
10.2359841 ,Left ,64,6142804971226 ,45,9221469994038 ,57,6169954038472
10.2584391 ,Left ,64,6005412277684 ,45,9561567662252 ,57,5854290360544
10.2810724 ,Left ,64,5927270405898 ,46,0005524494596 ,57,5422417446127
10.2958331 ,Left ,64,5886996054185 ,46,0395344947796 ,57,4990395865316
10.318681 ,Left ,64,5847378615652 ,46,0569676764926 ,57,4841571574676
10.3411008 ,Left ,64,5647673600742 ,46,0706678321238 ,57,4910358480549
10.3560691 ,Left ,64,540248670643 ,46,1105582395816 ,57,5009101979848
10.3785983 ,Left ,64,5425658904962 ,46,1511777877773 ,57,5058422878105
10.4010551 ,Left ,64,5440531615245 ,46,1590047305411 ,57,5027200172226
10.4157809 ,Left ,64,5444694724681 ,46,1594322668811 ,57,5237384028058
10.4383286 ,Left ,64,5374757522189 ,46,1596183743621 ,57,5487671783596
10.4609386 ,Left ,64,5136260232511 ,46,1422594676237 ,57,5747747651823
10.4758017 ,Left ,64,4975906616517 ,46,1053170105812 ,57,5871291426584
10.4987165 ,Left ,64,4871087790615 ,46,0984182434913 ,57,6067032660747
10.5214516 ,Left ,64,4302536493846 ,46,122324108766 ,57,6455517732801
10.5364523 ,Left ,64,3998336734222 ,46,1674358705595 ,57,7004856331486
10.5585557 ,Left ,64,4260428759265 ,46,2332573402234 ,57,7854534272297
10.5813613 ,Left ,64,4612370591913 ,46,2811918074634 ,57,8447485677173
10.596069 ,Left ,64,4653403067304 ,46,302241567666 ,57,8658087061168
10.6185503 ,Left ,64,4220539717725 ,46,3395630985681 ,57,8437947251784
10.6412365 ,Left ,64,3740234822364 ,46,3741316013963 ,57,7913448755703
10.6562284 ,Left ,64,3702286023165 ,46,3912145443224 ,57,6905185041438
10.6786291 ,Left ,64,354600808925 ,46,3596821837093 ,57,5873591123546
10.7013191 ,Left ,64,3245818360044 ,46,2582713190942 ,57,5136603626167
10.7162067 ,Left ,64,3022805426192 ,46,141949937631 ,57,5071339353524
10.7387042 ,Left ,64,314478038854 ,46,0821821266901 ,57,5232018436734
10.7614759 ,Left ,64,3472079135123 ,46,1509471992208 ,57,515757919748
10.7764077 ,Left ,64,3649987869231 ,46,2223916854267 ,57,5124268419942
10.7988507 ,Left ,64,392590972059 ,46,2712402896858 ,57,5398767686859
10.8214101 ,Left ,64,3692512090896 ,46,3294293381043 ,57,5688711625391
10.8363375 ,Left ,64,3050229784981 ,46,384961343758 ,57,6010922405584
10.858632 ,Left ,64,2498967786084 ,46,4277453190022 ,57,6227735585798
10.8814122 ,Left ,64,1993106609759 ,46,3864853261721 ,57,6649333091376
10.8961981 ,Left ,64,2327222069046 ,46,3018574835025 ,57,7258716584005
10.9187549 ,Left ,64,1961085528802 ,46,2990607436121 ,57,7359892085587
10.9412844 ,Left ,64,1807666750081 ,46,3851142059977 ,57,7046887634596
10.9640093 ,Left ,64,1886630563595 ,46,4834759517228 ,57,679585912892
10.9788684 ,Left ,64,1531332149234 ,46,6022634501591 ,57,6522824913757
11.0014198 ,Left ,64,0701348645854 ,46,7189571009552 ,57,6212641769347
11.0236663 ,Left ,64,0012375183187 ,46,8075018307738 ,57,5836035654637
11.0387851 ,Left ,63,9733738699097 ,46,850148250343 ,57,5619738902226
11.0614386 ,Left ,63,9551136772103 ,46,8582125159631 ,57,5655673699212
11.0836802 ,Left ,63,9128407013718 ,46,8252073588156 ,57,5815112522748
11.0989502 ,Left ,63,8549872623267 ,46,7465510925015 ,57,619622205964
11.1214271 ,Left ,63,8340835517085 ,46,6959191218885 ,57,6552392989815
11.1439727 ,Left ,63,8547830676958 ,46,6998271297943 ,57,6435848894437
11.1586786 ,Left ,63,8734134187168 ,46,7934368906975 ,57,611758717478
11.1811944 ,Left ,63,952713269505 ,46,8885715778281 ,57,5816727446437
11.2037858 ,Left ,63,998114670969 ,46,9386808619774 ,57,5733534934381
11.2184624 ,Left ,64,0460044354505 ,47,00906964874 ,57,5638071910942
11.2409823 ,Left ,64,0697184378618 ,47,1111581540692 ,57,516449510313
11.2633841 ,Left ,64,0654596842056 ,47,2251662356985 ,57,4292874305296
11.2785226 ,Left ,64,0588768995754 ,47,310740121678 ,57,3070100504008
11.3009796 ,Left ,64,0354883093955 ,47,3694285521302 ,57,1767952019863
11.3236084 ,Left ,64,0146086882758 ,47,4041069838835 ,57,0408357023665
11.3384239 ,Left ,63,9805729539661 ,47,4205225313223 ,56,8981402449125
11.360907 ,Left ,63,9570643193574 ,47,4200029826931 ,56,7483513260073
11.3835918 ,Left ,63,9316292909879 ,47,4028159390838 ,56,598292841983
11.3986848 ,Left ,63,9074016421109 ,47,3629569956659 ,56,4668826843517
11.4211645 ,Left ,63,9051432814683 ,47,3018878320098 ,56,3596575193886
11.4437765 ,Left ,63,8999030767075 ,47,2235871099644 ,56,2705198090044
11.4586029 ,Left ,63,9050438701115 ,47,1160966429077 ,56,2021179790073
11.4811667 ,Left ,63,8869937314356 ,47,0253108396946 ,56,1968303322756
11.5035681 ,Left ,63,9187526912315 ,47,0060837204673 ,56,2518788557684
11.5186505 ,Left ,64,0349549829022 ,46,9809160531407 ,56,3316104758879
11.5410811 ,Left ,64,1371673296417 ,46,8989123960532 ,56,429383413723
11.5638428 ,Left ,64,2424349919665 ,46,817493018171 ,56,5010992791543
11.5786353 ,Left ,64,3098400295194 ,46,7640158895065 ,56,5522171193368
11.6010365 ,Left ,64,3678723887116 ,46,7077815139876 ,56,5997754385522
11.6236074 ,Left ,64,4178238645546 ,46,6405474171269 ,56,6514619165987
11.6386377 ,Left ,64,4692346791149 ,46,5726320178213 ,56,7022751125601
11.6612415 ,Left ,64,5016870745854 ,46,550086776068 ,56,7344717718398
11.676141 ,Left ,64,5216327277752 ,46,5358639266376 ,56,7387531694019
11.6914007 ,Left ,64,5416446928309 ,46,4773419767033 ,56,72235595054
11.7138202 ,Left ,64,5243714790216 ,46,3549019666298 ,56,7256534642834
11.736045 ,Left ,64,5302203270958 ,46,2092793897247 ,56,7402883147713
11.7512855 ,Left ,64,5122703198584 ,46,1563393116955 ,56,7583229849513
11.7738651 ,Left ,64,5198243365274 ,46,2318860267164 ,56,7485690929825
11.7962822 ,Left ,64,5692372086878 ,46,3286255440546 ,56,753168163569
11.8113414 ,Left ,64,6111002003072 ,46,3821087455234 ,56,8028457173842
11.8339084 ,Left ,64,6351096361391 ,46,4184468897719 ,56,8745473033398
11.8558933 ,Left ,64,6336917399925 ,46,4111894243495 ,56,9367281617999
11.8710283 ,Left ,64,6405744915915 ,46,4012670115757 ,56,9905707128685
11.8933719 ,Left ,64,6733011718524 ,46,3795352445681 ,57,0369963271604
11.916058 ,Left ,64,670483976551 ,46,3502401381757 ,57,0911098547867
11.9312918 ,Left ,64,6450945950853 ,46,3231466034151 ,57,1530397729675
11.954237 ,Left ,64,6158615027243 ,46,2998146842945 ,57,2100860686488
11.9765364 ,Left ,64,603617511004 ,46,2682300154925 ,57,2657739939114
11.9915431 ,Left ,64,6016789691988 ,46,2204855278396 ,57,3294684137057
12.0137815 ,Left ,64,5969266010061 ,46,1715056749872 ,57,3925082948528
12.036012 ,Left ,64,5648324844035 ,46,1471570259599 ,57,4492835341382
12.0510462 ,Left ,64,5336122021415 ,46,1492906746797 ,57,4894291396363
12.0736062 ,Left ,64,5098981812777 ,46,1589310928913 ,57,5096264576226
12.0960871 ,Left ,64,4940557808728 ,46,1595935844858 ,57,5304760732212
12.1113227 ,Left ,64,4814208614421 ,46,1513231265394 ,57,5587935457862
12.1338316 ,Left ,64,4597843845063 ,46,1468710928562 ,57,5884138255572
12.1561721 ,Left ,64,425902690028 ,46,1499873410723 ,57,6147361046957
12.1713609 ,Left ,64,3934943513361 ,46,1566374151756 ,57,6387874935166
12.1940132 ,Left ,64,3476965890397 ,46,15665585578 ,57,6522709979738
12.216217 ,Left ,64,316298449076 ,46,1478135313838 ,57,6663235756824
12.2313365 ,Left ,64,3007353875781 ,46,1488296053885 ,57,6737848250036
12.2539913 ,Left ,64,2610768981581 ,46,1793199071147 ,57,6673682108155
12.2763328 ,Left ,64,2477945775871 ,46,2144472892333 ,57,6497924110545
12.2912734 ,Left ,64,2463261177746 ,46,2295302577508 ,57,6296340195365
12.3139551 ,Left ,64,2398453770825 ,46,2328132095175 ,57,6308889308113
12.3512264 ,Left ,64,1877895667681 ,46,2088745112245 ,57,5951443583384
12.3738195 ,Left ,64,1549419348806 ,46,2125538350919 ,57,5768528308693
12.4113841 ,Left ,64,1203825519971 ,46,2347902451883 ,57,6276171254045
12.4339712 ,Left ,64,1397127493601 ,46,2663434654182 ,57,6982666589229
12.4711944 ,Left ,64,2039504595924 ,46,3154774851408 ,57,7865108969525
12.4939689 ,Left ,64,2377293945317 ,46,3395637075007 ,57,7791651947064
12.5314151 ,Left ,64,2108567581892 ,46,3508651675205 ,57,7032162218082
12.554002 ,Left ,64,2019531188727 ,46,3405049890436 ,57,614797768652
12.5763054 ,Left ,64,1791914305763 ,46,2701105384521 ,57,5394068654724
12.6138217 ,Left ,64,2057134931435 ,46,0863998993262 ,57,6051918398998
12.6362079 ,Left ,64,2336682820411 ,46,1274202616289 ,57,603188877251
12.6738473 ,Left ,64,3104788498352 ,46,2113180211451 ,57,6185397684528
12.7112849 ,Left ,64,2586223035453 ,46,2947314224544 ,57,6503046932384
12.7339959 ,Left ,64,2236886133123 ,46,3250227876098 ,57,6369875696081
12.7715199 ,Left ,64,17016395905 ,46,224731728236 ,57,6883944835958
12.7939901 ,Left ,64,1650886059518 ,46,2336860985606 ,57,7264662450998
12.8311374 ,Left ,64,1720012631171 ,46,4664103706307 ,57,7236516020937
12.8539618 ,Left ,64,1279208645061 ,46,5953252344668 ,57,7302835793544
12.8763168 ,Left ,64,0309333822551 ,46,7326057549505 ,57,7144457661127
12.9139375 ,Left ,63,8665181725118 ,46,8979608061423 ,57,7163184120309
12.9362526 ,Left ,63,8263527624711 ,46,9170284189993 ,57,7246151074286
12.9742567 ,Left ,63,7313669818097 ,46,8351093240525 ,57,7693262546225
13.0115371 ,Left ,63,6113864227623 ,46,7304175121681 ,57,7823019026058
13.0340504 ,Left ,63,6209277166526 ,46,711644082029 ,57,7564939339124
13.0713583 ,Left ,63,6685158954678 ,46,8500281563413 ,57,721010633928
13.0939743 ,Left ,63,7239919672228 ,46,8997483064924 ,57,7438592001556
13.1312483 ,Left ,63,7695353163816 ,47,1116225508429 ,57,7045312764957
13.1540346 ,Left ,63,7608284755747 ,47,2299384834104 ,57,6316671855573
13.1912687 ,Left ,63,722257677575 ,47,3981626027333 ,57,411116212512
13.2140705 ,Left ,63,7113202602234 ,47,4127334564373 ,57,2996372219291
13.25147 ,Left ,63,7031505971952 ,47,3478537012347 ,57,0216732323762
13.273808 ,Left ,63,7051876188683 ,47,302998233867 ,56,8576407060069
13.3113503 ,Left ,63,7070086636587 ,47,248465225141 ,56,5126613372697
13.3337207 ,Left ,63,7046949726933 ,47,2147209767287 ,56,3738406182808
13.3707203 ,Left ,63,7272218025117 ,47,0814581010156 ,56,2130520595914
13.3936294 ,Left ,63,7656810761484 ,46,9896282375725 ,56,2359471147892
13.4315321 ,Left ,63,9647804724986 ,47,0728807168503 ,56,2755956724612
13.4538179 ,Left ,64,0876875222168 ,47,060376370094 ,56,3259845246705
13.4910245 ,Left ,64,2892161739048 ,46,9417202039163 ,56,4874184577619
13.5138066 ,Left ,64,3572635707705 ,46,9026097475306 ,56,5233689244659
13.5286196 ,Left ,64,4250938686509 ,46,8535116551858 ,56,5427298371969
13.5512434 ,Left ,64,5110405239138 ,46,7747588565702 ,56,5594323344419
13.5662174 ,Left ,64,5336671924449 ,46,7332093093959 ,56,5779923422069
13.5884618 ,Left ,64,5066051471144 ,46,7029777460067 ,56,5953450006338
13.6113033 ,Left ,64,5016303067288 ,46,6312849878642 ,56,6220214089282
13.6261625 ,Left ,64,5518863921047 ,46,4972397012644 ,56,6867003833001
13.6486392 ,Left ,64,5721116422977 ,46,3745519162309 ,56,7523237984139
13.6712081 ,Left ,64,5647137750877 ,46,3877655086305 ,56,7991634298388
13.6858947 ,Left ,64,6110975805131 ,46,4752177075939 ,56,806955732039
13.7083982 ,Left ,64,6760670952692 ,46,5284406997871 ,56,836534484495
13.7311084 ,Left ,64,74216577207 ,46,5582233543468 ,56,8983747965026
13.7459132 ,Left ,64,7473488684719 ,46,5778769256337 ,56,9594919452363
13.7685171 ,Left ,64,7484801781055 ,46,5813988894616 ,57,0293627701202
13.7833653 ,Left ,64,7604754082124 ,46,5815320308738 ,57,099988418911
13.8058201 ,Left ,64,7706200065057 ,46,5728293869115 ,57,1751676233241
13.828511 ,Left ,64,7534091313439 ,46,5504721656565 ,57,2572541280068
13.8437914 ,Left ,64,7199278828277 ,46,5386630594785 ,57,3239950979739
13.8660674 ,Left ,64,6971020547023 ,46,5210201065988 ,57,3883668442167
13.8886637 ,Left ,64,6487055428154 ,46,492222106955 ,57,4534737442697
13.9034838 ,Left ,64,5920636142087 ,46,4531185737995 ,57,5187510827098
13.9261136 ,Left ,64,5461394240032 ,46,4006396421632 ,57,5868067885674
13.9487234 ,Left ,64,5050567378703 ,46,3508350912348 ,57,6472298625119
13.971298 ,Left ,64,4650900381594 ,46,3172809080935 ,57,7021180206702
13.9861367 ,Left ,64,4437329983378 ,46,3010761481616 ,57,7375265883278
14.0087546 ,Left ,64,4390379766344 ,46,2747171993915 ,57,7664475747353
14.0311577 ,Left ,64,4297666884712 ,46,2410764057301 ,57,7981020727307
14.0461298 ,Left ,64,4291677809429 ,46,2354409902127 ,57,8231570449669
14.0685153 ,Left ,64,3955482463273 ,46,2488235712111 ,57,8475159659961
14.0911962 ,Left ,64,3827156745005 ,46,2751432519162 ,57,8688002453132
14.1060097 ,Left ,64,3786758695446 ,46,301335822533 ,57,8716589656172
14.1286687 ,Left ,64,3786758695446 ,46,301335822533 ,57,8716589656172
14.1512997 ,Left ,64,3784716456809 ,46,3255424383129 ,57,8756086409303
14.1660534 ,Left ,64,3574585041135 ,46,3544346535722 ,57,8756020041076
14.1886176 ,Left ,64,351732656142 ,46,3723242061052 ,57,8610125624336
14.2113021 ,Left ,64,3279199650553 ,46,3786198174155 ,57,8410815210309
14.2258764 ,Left ,64,2895476607796 ,46,3805067695331 ,57,8122102120046
14.2485777 ,Left ,64,2575357105408 ,46,3474559908363 ,57,7693964701609
14.2711706 ,Left ,64,2314661854517 ,46,3298278819448 ,57,7500025354581
14.2862477 ,Left ,64,1866702044012 ,46,3211695006639 ,57,73684156665
14.3086353 ,Left ,64,1447885206404 ,46,3619257667616 ,57,7551364786723
14.3311713 ,Left ,64,1135995955776 ,46,4090666757568 ,57,7854795395166
14.3457915 ,Left ,64,156706245664 ,46,4430025764661 ,57,8326890130285
14.3683983 ,Left ,64,1908930500648 ,46,4524015744915 ,57,8557042535762
14.3910811 ,Left ,64,2116616202779 ,46,4562168945012 ,57,84829740764
14.405933 ,Left ,64,1900596795939 ,46,4710449500705 ,57,8236305092057
14.4288294 ,Left ,64,1459487867213 ,46,4913076689758 ,57,7824593122142
14.4513795 ,Left ,64,102618442899 ,46,5025678648548 ,57,7105635875987
14.4656864 ,Left ,64,0836048711222 ,46,4887517979398 ,57,6341979442579
14.4883648 ,Left ,64,0825991715494 ,46,4155002972101 ,57,5693305762683
14.5111483 ,Left ,64,070916779831 ,46,3057914397566 ,57,567316939039
14.5260548 ,Left ,64,0896043631619 ,46,2506650102427 ,57,5874128545656
14.548398 ,Left ,64,1234766853427 ,46,2975309016595 ,57,5837859043952
14.5709116 ,Left ,64,1541204211914 ,46,3631287342915 ,57,5842548363051
14.5860867 ,Left ,64,1454896242893 ,46,4379332064365 ,57,5975903102758
14.6086292 ,Left ,64,1211315668803 ,46,497880302467 ,57,5978044528396
14.6310709 ,Left ,64,0851513507444 ,46,5460858395682 ,57,6012222553752
14.6460664 ,Left ,64,0531175569775 ,46,5899158098036 ,57,5848826516154
14.6685589 ,Left ,64,0183667586146 ,46,5388386619983 ,57,588563158007
14.6910818 ,Left ,64,010889715879 ,46,4170526811938 ,57,6532914791833
14.7059893 ,Left ,64,0312245531286 ,46,404726201988 ,57,6929793910749
14.7286805 ,Left ,64,0564286687528 ,46,5086143758863 ,57,690539029547
14.7511756 ,Left ,64,0785583767507 ,46,6435847154435 ,57,7064775239416
14.7736948 ,Left ,64,0648990519184 ,46,8098392678352 ,57,7253219613518
14.7884228 ,Left ,63,9982120791727 ,46,9666319416253 ,57,7410556488084
14.8108903 ,Left ,63,9295441930453 ,47,0888404197318 ,57,7608156274956
14.8334095 ,Left ,63,9007308566385 ,47,1626577365504 ,57,7798803115404
14.8564235 ,Left ,63,8718540379167 ,47,1600331994298 ,57,8158867819854
14.87868 ,Left ,63,8463855117351 ,47,0998422341475 ,57,8552749545613
14.9085584 ,Left ,63,7533717929287 ,46,9438788062249 ,57,8581124183701
14.9312043 ,Left ,63,7217583324759 ,46,880388757337 ,57,8406675597425
14.9534752 ,Left ,63,7100079036418 ,46,8886767453804 ,57,8307771381425
14.9685582 ,Left ,63,7210690524782 ,46,9542718934849 ,57,8194054417723
14.9907953 ,Left ,63,7715045363004 ,46,9905176724617 ,57,8364006177954
15.0134574 ,Left ,63,8148197478266 ,47,0015321383169 ,57,8690845245168
15.028451 ,Left ,63,8371945703337 ,47,0519564788745 ,57,8744178172917
15.0509445 ,Left ,63,8538328149838 ,47,0909151695314 ,57,8518410090678
15.0733906 ,Left ,63,8762423118874 ,47,1166576964955 ,57,8168004391289
15.0885 ,Left ,63,911330328738 ,47,1284794863241 ,57,7803582692772
15.1114696 ,Left ,63,9426043717587 ,47,1332112487942 ,57,7384437116836
15.1339775 ,Left ,63,9760101774708 ,47,1509147898173 ,57,6777310796481
15.1490561 ,Left ,64,0146970054121 ,47,1845661276447 ,57,5999778994292
15.1717773 ,Left ,64,0273365250082 ,47,2253255314092 ,57,5178660121842
15.1939504 ,Left ,64,0363706334633 ,47,2696481329647 ,57,4441523451074
15.208288 ,Left ,64,0371213473383 ,47,3016912546116 ,57,3962399658491
15.231018 ,Left ,64,0298996653244 ,47,2917037570568 ,57,3581246735781
15.2534312 ,Left ,64,0354551873112 ,47,2812632200559 ,57,3131173906922
15.2684751 ,Left ,64,0227660002096 ,47,3089353506772 ,57,2225209367181
15.2909005 ,Left ,63,9909402230358 ,47,345994329345 ,57,0913588243494
15.3134662 ,Left ,63,9579671529219 ,47,3749608258182 ,56,9592106365619
15.3283872 ,Left ,63,9458258701801 ,47,3796506256387 ,56,8611502919548
15.3513294 ,Left ,63,9420227227934 ,47,3540324264494 ,56,7894328790483
15.3741019 ,Left ,63,9054837073624 ,47,2908895650841 ,56,7357782928675
15.389236 ,Left ,63,8976538151407 ,47,1961107046947 ,56,7327826888759
15.4114663 ,Left ,63,8941956172065 ,47,1355142999083 ,56,7654628703732
15.433958 ,Left ,63,9566538817906 ,47,1607501292154 ,56,8063075455228
15.4489225 ,Left ,64,0610900569957 ,47,181257162912 ,56,8526701665909
15.4713573 ,Left ,64,1795612854834 ,47,1608467636756 ,56,9390654895754
15.4940286 ,Left ,64,2676133843794 ,47,1079586675647 ,57,0256534055343
15.5087611 ,Left ,64,3405455504992 ,47,0724285344417 ,57,0842938520047
15.5312691 ,Left ,64,3844835564503 ,47,0400184540323 ,57,1036692732052
15.553899 ,Left ,64,3884299470564 ,47,0237792573794 ,57,1163243753477
15.5759248 ,Left ,64,415846715146 ,46,9800586340451 ,57,1005048151665
15.5910584 ,Left ,64,3934205833912 ,46,9066815816028 ,57,0749343421972
15.6136682 ,Left ,64,3708175577931 ,46,8199715910928 ,57,0364311978726
15.6361411 ,Left ,64,3515951913254 ,46,6756243986699 ,57,0271252854813
15.6511906 ,Left ,64,3419264455046 ,46,5406287874675 ,57,0433988473827
15.6812134 ,Left ,64,3855842551058 ,46,5846960401781 ,57,0368704922275
15.7037823 ,Left ,64,4250784614125 ,46,722045989984 ,57,0177524226365
15.7187323 ,Left ,64,4894996667791 ,46,7940279879613 ,57,0451122737717
15.756134 ,Left ,64,5557912538825 ,46,8609334753853 ,57,1997648405505
15.7712357 ,Left ,64,5699395042443 ,46,8602302987026 ,57,2582538369267
15.7936829 ,Left ,64,600192870985 ,46,8349461441631 ,57,3258305511475
15.8160298 ,Left ,64,6173267037011 ,46,8000262099062 ,57,3932201207617
15.8309052 ,Left ,64,6094552364122 ,46,752020188387 ,57,4654857817954
15.8535291 ,Left ,64,5883813479505 ,46,7207041109636 ,57,5294765798908
15.8760942 ,Left ,64,5860988396308 ,46,6905971200436 ,57,5858103256787
15.8911727 ,Left ,64,5799342458508 ,46,6450415947422 ,57,6387560337768
15.9141723 ,Left ,64,5832628091182 ,46,5844561045771 ,57,7083097567301
15.9365409 ,Left ,64,5653759628827 ,46,5142269293961 ,57,7814377601715
15.9514552 ,Left ,64,5383404716845 ,46,4773040547382 ,57,8433906769262
15.9735776 ,Left ,64,5019026151066 ,46,4729409482281 ,57,8911865662157
15.9961132 ,Left ,64,4681794206468 ,46,4833384964133 ,57,9343251020403
16.011186 ,Left ,64,4334930295252 ,46,5005328063985 ,57,9691738858494
16.0338267 ,Left ,64,4018657628355 ,46,4887430481281 ,58,0153334679945
16.0561257 ,Left ,64,3983161516627 ,46,4563433387816 ,58,0641428676958
16.0711271 ,Left ,64,3908554729216 ,46,4407171126385 ,58,0864263932511
16.0938676 ,Left ,64,3776417874897 ,46,4333722104949 ,58,0781336572651
16.1161367 ,Left ,64,3921286135075 ,46,4262884123509 ,58,0660884716333
16.131045 ,Left ,64,3851852837189 ,46,4163803222921 ,58,0589268540191
16.1535355 ,Left ,64,3706444373674 ,46,3992919224529 ,58,0670209155153
16.1762245 ,Left ,64,3637313013063 ,46,3878717533347 ,58,0932831359426
16.1910734 ,Left ,64,3559570315759 ,46,3814994586412 ,58,1108933596215
16.2134042 ,Left ,64,3427397407502 ,46,3938079312997 ,58,1209901335653
16.2360414 ,Left ,64,327620874464 ,46,4084590866256 ,58,1275033908452
16.2507852 ,Left ,64,3340291323304 ,46,4051014340599 ,58,12629198556
16.2733842 ,Left ,64,3359668307746 ,46,3822187719841 ,58,1135389622939
16.296092 ,Left ,64,3293118591643 ,46,3645452163618 ,58,0777501707642
16.311055 ,Left ,64,3065037859808 ,46,3433246149912 ,58,0247789746071
16.3338161 ,Left ,64,2421510096504 ,46,3189129990821 ,57,9768139446696
16.3562892 ,Left ,64,1990434183745 ,46,3111177855408 ,57,9476135147076
16.3712708 ,Left ,64,1696426246288 ,46,2895277270489 ,57,9557104053893
16.3936925 ,Left ,64,1554892388694 ,46,2733043190516 ,58,0323647980097
16.4163154 ,Left ,64,1865737022146 ,46,3107867516805 ,58,092936698144
16.4314249 ,Left ,64,1990203543717 ,46,3714185429311 ,58,1134888134212
16.46123 ,Left ,64,2191911250925 ,46,4014276250179 ,58,1207120841924
16.4840169 ,Left ,64,2173606731217 ,46,4237507337096 ,58,1175285712977
16.4988076 ,Left ,64,1958616118947 ,46,4319969089506 ,58,1093177138882
16.5135419 ,Left ,64,1750586783179 ,46,4214423790482 ,58,0769813123989
16.5362781 ,Left ,64,1414137939706 ,46,3710096515668 ,58,0220296097569
16.5513901 ,Left ,64,1002413964491 ,46,3377790243169 ,57,9636834103749
16.5737412 ,Left ,64,0380491640236 ,46,2889021303096 ,57,9052227625524
16.6040006 ,Left ,64,028055286464 ,46,2059649988052 ,57,8475084925876
16.6262326 ,Left ,64,0117781565111 ,46,1124197286038 ,57,8509247864517
16.6414033 ,Left ,64,0131543912178 ,46,1410833923151 ,57,8458208473196
16.6786666 ,Left ,64,073410041583 ,46,3179511946155 ,57,8033225644131
16.6936677 ,Left ,64,0943922694295 ,46,400232749417 ,57,811200876965
16.716172 ,Left ,64,0549001438843 ,46,4766571903932 ,57,8088578366722
16.7313084 ,Left ,64,0021053232074 ,46,5411570366039 ,57,7944323112823
16.7539479 ,Left ,64,0090653921509 ,46,5648692583458 ,57,7602573883394
16.7762627 ,Left ,64,0104551790225 ,46,5249098403603 ,57,7696014993769
16.7988153 ,Left ,64,0209939848423 ,46,4542422673333 ,57,8299896895384
16.8137001 ,Left ,64,0307153730463 ,46,4543649460519 ,57,877820656671
16.8362375 ,Left ,64,048987172029 ,46,5308855997674 ,57,9080362075099
16.858749 ,Left ,64,0623153600515 ,46,6599919387739 ,57,9370194849985
16.8736745 ,Left ,64,0329534031477 ,46,8008111256078 ,57,9457740835076
16.8962033 ,Left ,63,9723956790854 ,46,9280132161393 ,57,9569396958417
16.918858 ,Left ,63,9067728339935 ,47,0294602486823 ,57,9695059391222
16.9335483 ,Left ,63,857800384782 ,47,1014814492802 ,57,9958560899478
16.9563294 ,Left ,63,8342741958397 ,47,1420192362027 ,58,0358478576183
16.9788052 ,Left ,63,7932947627896 ,47,1255583624601 ,58,076355876365
16.9936837 ,Left ,63,7495907580184 ,47,0981029078684 ,58,096504674541
17.0162165 ,Left ,63,6797318443978 ,47,0647261099257 ,58,1002006622242
17.0384265 ,Left ,63,6264471837066 ,47,0724896859501 ,58,0573145449343
17.0535724 ,Left ,63,6092831175496 ,47,0999576252999 ,58,024165329473
17.0758536 ,Left ,63,6388387264005 ,47,1495935591006 ,58,0446328820978
17.0986291 ,Left ,63,6898699400553 ,47,2153038026729 ,58,0727012838939
17.1134605 ,Left ,63,7315120547968 ,47,2572341786001 ,58,101553860359
17.1362085 ,Left ,63,7886725052765 ,47,2571689420717 ,58,1392214968099
17.158788 ,Left ,63,8565532528452 ,47,2650072234443 ,58,1675811879293
17.1735963 ,Left ,63,9009841052516 ,47,3048370446313 ,58,1534097616052
17.1961038 ,Left ,63,9558500493324 ,47,3778167578316 ,58,109561208977
17.2185661 ,Left ,63,9852781113558 ,47,4594094738034 ,58,0424803433482
17.233648 ,Left ,63,9751625937799 ,47,5416488318909 ,57,9646245055075
17.2558773 ,Left ,63,9911602097123 ,47,5868105768338 ,57,8940260817773
17.2785183 ,Left ,64,0247535981283 ,47,5825926007947 ,57,8062829497615
17.2936343 ,Left ,64,0146151176319 ,47,5782861588692 ,57,6940899449124
17.3160609 ,Left ,63,9882037381325 ,47,5822289989831 ,57,5739645974183
17.3386778 ,Left ,63,9663124609298 ,47,5732459145007 ,57,45951587525
17.3536049 ,Left ,63,9546172168279 ,47,5564737230504 ,57,3379972265937
17.3760933 ,Left ,63,9276071258366 ,47,5213179728777 ,57,2029660091291
17.3982224 ,Left ,63,8756872481755 ,47,4790800361832 ,57,0689589844684
17.4134075 ,Left ,63,852456662838 ,47,4186061713404 ,56,9433965419248
17.4284219 ,Left ,63,818687392517 ,47,3676134829723 ,56,8397826602199
17.4509339 ,Left ,63,7818849622806 ,47,3266683038909 ,56,7767855907916
17.4664678 ,Left ,63,710143966028 ,47,2772097788581 ,56,7532534751143
17.4893256 ,Left ,63,6516329202606 ,47,2069412132846 ,56,7724448160987
17.5116881 ,Left ,63,6255169368431 ,47,1186693343632 ,56,8262944505645
17.5265685 ,Left ,63,6646010522323 ,47,1235524288131 ,56,8776058646536
17.5490837 ,Left ,63,7412851053435 ,47,1926392015242 ,56,8648458253063
17.5715357 ,Left ,63,8021960714941 ,47,1733532871675 ,56,8856820872727
17.5860967 ,Left ,63,8624339274761 ,47,0980070479663 ,56,9281646441368
17.6086898 ,Left ,63,9227556874933 ,47,0615732673117 ,56,9258816861273
17.6312022 ,Left ,63,9530752072867 ,47,0350829367083 ,56,9094612066898
17.6462448 ,Left ,63,9923285738528 ,46,9908243303104 ,56,9167222897759
17.668658 ,Left ,64,0440149876092 ,46,9303037539592 ,56,923029442273
17.6912957 ,Left ,64,0914879028542 ,46,8680976638447 ,56,9265169179257
17.7060478 ,Left ,64,1154812107729 ,46,8421794435988 ,56,9122228768753
17.7286003 ,Left ,64,1020689445963 ,46,7754739360543 ,56,8954831487425
17.7513429 ,Left ,64,1184224644832 ,46,6911629550356 ,56,9327632186552
17.7661756 ,Left ,64,1369432285068 ,46,5785347731391 ,56,9821252114555
17.7886553 ,Left ,64,1558022555829 ,46,6226577456623 ,56,9977895385515
17.8112324 ,Left ,64,2438329196952 ,46,7035033812242 ,56,9856383160718
17.8261727 ,Left ,64,3299233858882 ,46,7308450880581 ,57,0079157606599
17.848706 ,Left ,64,4126505952166 ,46,7251053179502 ,57,0710664479139
17.8712502 ,Left ,64,4204579565565 ,46,7054500657774 ,57,1314688811675
17.8862429 ,Left ,64,4318240704442 ,46,6786033029249 ,57,2000896312216
17.9086891 ,Left ,64,4493870109729 ,46,6458784325157 ,57,26874504354
17.9307218 ,Left ,64,4532763635192 ,46,6023943696076 ,57,3523087444244
17.9459291 ,Left ,64,4428701992919 ,46,5546736774149 ,57,4565516356811
17.9684107 ,Left ,64,4323300980047 ,46,5303003131055 ,57,5628578560996
17.9913162 ,Left ,64,4323380454853 ,46,5125863001959 ,57,6591130864334
18.0064098 ,Left ,64,4207979173294 ,46,4847372223893 ,57,7637732467653
18.0288845 ,Left ,64,4006734090568 ,46,4445538621555 ,57,8814285936193
18.0512043 ,Left ,64,3753944593029 ,46,4156083241128 ,57,9926713908571
18.0659661 ,Left ,64,346683953559 ,46,3916023842355 ,58,0883541621202
18.0884026 ,Left ,64,3226636905119 ,46,3612309554149 ,58,1626106158401
18.1107854 ,Left ,64,3299715477147 ,46,3268817447009 ,58,2132301874936
18.1485461 ,Left ,64,3238687877532 ,46,2397209884465 ,58,3145147901751
18.1710213 ,Left ,64,342620130956 ,46,2197763167291 ,58,3374808104467
18.2086159 ,Left ,64,3497718277115 ,46,2085300330631 ,58,3554491344592
18.2312952 ,Left ,64,338477492073 ,46,241558167981 ,58,3498908619911
18.2687022 ,Left ,64,3332012755266 ,46,3166449703482 ,58,2838265723439
18.2912812 ,Left ,64,3306324059322 ,46,3295656374381 ,58,2506513539097
18.3286734 ,Left ,64,2770034997548 ,46,4135212340808 ,58,1837302970368
18.3662395 ,Left ,64,2648577123304 ,46,4687754712945 ,58,0863270316393
18.3885479 ,Left ,64,2569579921533 ,46,4443551652564 ,58,0387392934679
18.4258956 ,Left ,64,2573262003587 ,46,4072545990371 ,57,9624784860649
18.4483688 ,Left ,64,2024719632937 ,46,3829817714381 ,57,917208062676
18.4861395 ,Left ,64,1416793991636 ,46,3434821978592 ,57,8780907023956
18.5085667 ,Left ,64,1304410156253 ,46,3532321417931 ,57,9143318645667
18.5459479 ,Left ,64,1559281889446 ,46,3887939942982 ,57,9554359486699
18.5685151 ,Left ,64,2039673856903 ,46,4030053889151 ,57,9373023124153
18.6059621 ,Left ,64,1648140626241 ,46,4714272412693 ,57,8546953348394
18.6286177 ,Left ,64,1329633770926 ,46,4834743717783 ,57,801181397537
18.6735572 ,Left ,64,0743478166107 ,46,3930119516029 ,57,7398653095506
18.6957524 ,Left ,64,0571433901576 ,46,3302295903273 ,57,7654197973913
18.726541 ,Left ,64,1000625095105 ,46,3727119090649 ,57,8009564054068
18.7491245 ,Left ,64,1107801680911 ,46,4031431236723 ,57,8350930059637
18.7865787 ,Left ,64,023354724742 ,46,5066636857947 ,57,8922001320019
18.8090729 ,Left ,63,9998767836384 ,46,547718175572 ,57,8854251655228
18.8462584 ,Left ,63,9648144377961 ,46,4707094559299 ,57,9435868632655
18.8686032 ,Left ,63,9940156655481 ,46,4703507428585 ,57,970514764699
18.9060457 ,Left ,64,033129993069 ,46,702473554441 ,57,9580037589639
18.928603 ,Left ,64,0033269524447 ,46,8517088511403 ,57,9413635945491
18.9511867 ,Left ,63,9430424575026 ,46,9840469280078 ,57,9318112218468
18.9885939 ,Left ,63,8183809556394 ,47,1470723923754 ,57,9208283586122
19.0111081 ,Left ,63,7650582822021 ,47,1504798848897 ,57,922833270634
19.0486058 ,Left ,63,682666462511 ,46,9738710917205 ,58,0134980800312
19.0862149 ,Left ,63,6166374921816 ,46,8627383678927 ,58,0397548704528
19.1086642 ,Left ,63,5983988160627 ,46,9805936617035 ,58,0008632151568
19.1465896 ,Left ,63,7689026999986 ,47,1173581042485 ,58,0676012876245
19.1690673 ,Left ,63,8251194045722 ,47,1783009266057 ,58,1391676038078
19.2060559 ,Left ,63,8510910450702 ,47,3908999689831 ,58,1652572751905
19.2285155 ,Left ,63,8742781126857 ,47,4892620648425 ,58,1340212478832
19.2661098 ,Left ,63,8373086473151 ,47,6292444326117 ,57,998280341432
19.2885795 ,Left ,63,8283749470256 ,47,6709233360506 ,57,889223651758
19.3038155 ,Left ,63,8076714198739 ,47,6960602683329 ,57,7521755827111
19.3260658 ,Left ,63,7821553624089 ,47,7045764729457 ,57,5788422003826
19.3410903 ,Left ,63,749041086532 ,47,6865661997324 ,57,3916298506003
19.3633702 ,Left ,63,7273095320255 ,47,6531186974174 ,57,2117219299793
19.3859854 ,Left ,63,7105032019293 ,47,6058565230463 ,57,0392903376259
19.4010732 ,Left ,63,6904879532691 ,47,5450651754144 ,56,8745423262936
19.4234129 ,Left ,63,6665024514042 ,47,4658137153907 ,56,7414660541377
19.445995 ,Left ,63,6324518422469 ,47,368000711845 ,56,6535365017649
19.461166 ,Left ,63,6003386005364 ,47,2893304643301 ,56,624762448903
19.4836404 ,Left ,63,6494717976173 ,47,2614981634868 ,56,690512148569
19.5061463 ,Left ,63,8072656580882 ,47,286873365437 ,56,7458021634678
19.5212309 ,Left ,63,922122490528 ,47,2647438921489 ,56,8087245072353
19.5438206 ,Left ,64,0350891711525 ,47,2308619365296 ,56,8774570063083
19.5662784 ,Left ,64,1117989338927 ,47,2087525735618 ,56,9218929247218
19.5813167 ,Left ,64,1718885518451 ,47,1659717328325 ,56,9768457266047
19.6036279 ,Left ,64,2309171545294 ,47,0919153245754 ,57,0286322693006
19.6262195 ,Left ,64,2940522322297 ,46,9916947978081 ,57,068296177731
19.6411024 ,Left ,64,3261473692908 ,46,9315435994018 ,57,087942938815
19.6637915 ,Left ,64,3490763154043 ,46,8861823031882 ,57,0736860279025
19.6863255 ,Left ,64,3231076372328 ,46,7803099615237 ,57,0488047683232
19.7013583 ,Left ,64,3347170043634 ,46,678354944205 ,57,0534946304089
19.7237164 ,Left ,64,31643650302 ,46,5639731050672 ,57,0629987872714
19.7461418 ,Left ,64,3048130105132 ,46,5601344039902 ,57,0862068236597
19.761315 ,Left ,64,3651603019518 ,46,6219129564153 ,57,0789422034647
19.783846 ,Left ,64,4430385282113 ,46,6657222314638 ,57,1156146458636
19.8061705 ,Left ,64,4962707646139 ,46,6490581119701 ,57,1708632774431
19.8212426 ,Left ,64,5372438440886 ,46,6099239686935 ,57,2341497108533
19.8438162 ,Left ,64,5414610532698 ,46,5932112414667 ,57,2649448532721
19.8659195 ,Left ,64,5383455393531 ,46,5735031810457 ,57,3055739718338
19.8808788 ,Left ,64,5393110429748 ,46,5524236090571 ,57,3634984366488
19.9035679 ,Left ,64,5401161611564 ,46,5285370156035 ,57,4317313089629
19.9261186 ,Left ,64,5080058311658 ,46,5005095989365 ,57,5088359510228
19.9412706 ,Left ,64,4738037747751 ,46,4739136030019 ,57,5889032245221
19.9640649 ,Left ,64,4262232893254 ,46,4571396893593 ,57,6717873103578
19.9861022 ,Left ,64,3818354385631 ,46,4478773916313 ,57,7464839988118
20.001276 ,Left ,64,3418759820148 ,46,4388134347827 ,57,8054092571886
20.0236595 ,Left ,64,2823045849428 ,46,4104997328399 ,57,8622560495846
20.04622 ,Left ,64,250310101748 ,46,3734038042889 ,57,928887782144
20.0609979 ,Left ,64,2131239458387 ,46,3449236866498 ,57,994954999006
20.0838214 ,Left ,64,1813159132266 ,46,3216321698145 ,58,0475552100398
20.1060199 ,Left ,64,1899008879524 ,46,2937089473057 ,58,0898113040108
20.1212036 ,Left ,64,1924091999571 ,46,2516827796978 ,58,1317633092077
20.1436309 ,Left ,64,2122636692238 ,46,2251726195379 ,58,1722597337048
20.1660392 ,Left ,64,2467754982984 ,46,2241313842252 ,58,1928881108153
20.1812698 ,Left ,64,2450535684754 ,46,2289788746477 ,58,1924131527536
20.2037797 ,Left ,64,2521890684858 ,46,2501375834296 ,58,1775241320376
20.2260574 ,Left ,64,2489035352857 ,46,280143527906 ,58,1590475870745
20.2410222 ,Left ,64,2460376085743 ,46,3212170102802 ,58,1278832098198
20.2635189 ,Left ,64,2328522162173 ,46,3584677107926 ,58,0968473520762
20.2862138 ,Left ,64,2064035489843 ,46,3855514923623 ,58,0680502453061
20.301008 ,Left ,64,1998529843525 ,46,3877062403223 ,58,0327706531833
20.3235084 ,Left ,64,1792354174404 ,46,356908283744 ,58,0136245213055
20.3459273 ,Left ,64,1602168024754 ,46,3411871025101 ,57,9997010176088
20.3608224 ,Left ,64,1089612532123 ,46,3454916518852 ,57,9742582494251
20.3834644 ,Left ,64,0783179302623 ,46,340997972288 ,57,9267417057234
20.4060468 ,Left ,64,031765954044 ,46,3582950651714 ,57,897982036299
20.4211002 ,Left ,63,9861166278471 ,46,3794984865262 ,57,9183029119738
20.4437323 ,Left ,63,9959189436691 ,46,4355963762577 ,57,9640664941096
20.4660849 ,Left ,64,0113845587237 ,46,4982726557047 ,58,0057570686944
20.4810902 ,Left ,64,0104672766313 ,46,5345963933472 ,58,0313090887331
20.5037831 ,Left ,64,018383437774 ,46,5397203113332 ,58,0426840303307
20.5261936 ,Left ,63,9814180560276 ,46,5365049108274 ,58,0407021233937
20.5484608 ,Left ,63,9300135307307 ,46,5406113005333 ,58,0237642446854
20.5633613 ,Left ,63,864394520554 ,46,531155954686 ,57,9715518518055
20.5858086 ,Left ,63,8056592670249 ,46,4656069525859 ,57,9130898191898
20.6085419 ,Left ,63,7919165729671 ,46,3785910922072 ,57,8924093398778
20.6234623 ,Left ,63,7856123977225 ,46,302508061322 ,57,9041189524654
20.6457875 ,Left ,63,8181740531724 ,46,3170275083302 ,57,9040350834865
20.6684205 ,Left ,63,8726484815493 ,46,3764712360693 ,57,8917498149134
20.6836024 ,Left ,63,9080941736672 ,46,4064354138517 ,57,8939390655408
20.7061535 ,Left ,63,8977785417748 ,46,4342166185993 ,57,9060218533653
20.7286322 ,Left ,63,8784978744344 ,46,4707309713629 ,57,9110712607144
20.7434833 ,Left ,63,8326618675606 ,46,5102625070957 ,57,9080946363973
20.7658148 ,Left ,63,7827244559284 ,46,5308501353451 ,57,8875465862066
20.7885768 ,Left ,63,785353750904 ,46,4995179892656 ,57,8962653005019
20.8035543 ,Left ,63,8189605828894 ,46,454099162155 ,57,9371703200901
20.8258279 ,Left ,63,842807060472 ,46,5149245954028 ,57,9506426941804
20.8485365 ,Left ,63,8977333443057 ,46,6391815261761 ,57,9454756754324
20.8634335 ,Left ,63,9483733942632 ,46,7509211448568 ,57,96011320901
20.8862334 ,Left ,63,9222670453438 ,46,8828827751305 ,57,9712928391233
20.9088343 ,Left ,63,8650298226469 ,47,0047124535829 ,57,9682509855641
20.9236252 ,Left ,63,8116950646866 ,47,0770562654791 ,57,9748489199038
20.9461222 ,Left ,63,7831332594848 ,47,098794542951 ,58,0014127957784
20.9687279 ,Left ,63,7743421071946 ,47,085039415816 ,58,0354485439906
20.9836577 ,Left ,63,7368452532706 ,47,0550500820184 ,58,0525735696961
21.0061861 ,Left ,63,7049465674076 ,47,0225458613885 ,58,0398175571807
21.0287928 ,Left ,63,6347756597566 ,46,9930482902755 ,57,9982825858473
21.0438453 ,Left ,63,5302515785265 ,47,0024652654617 ,57,9461881561184
21.066162 ,Left ,63,5177826435937 ,47,0412337370772 ,57,9179827501181
21.0886135 ,Left ,63,5534113404248 ,47,1639821451007 ,57,9100349868098
21.1033362 ,Left ,63,6074827345372 ,47,291783407195 ,57,9112686896881
21.1262994 ,Left ,63,6676640629489 ,47,3805170606691 ,57,9234157911997
21.1490872 ,Left ,63,7069810882221 ,47,4588178264934 ,57,9192224536478
21.1639627 ,Left ,63,6925000414641 ,47,554459652702 ,57,878155687842
21.1865428 ,Left ,63,683994700285 ,47,6517212394482 ,57,802798146066
21.20895 ,Left ,63,688134914467 ,47,7193559765698 ,57,7040509783782
21.2237448 ,Left ,63,681995297062 ,47,7523754336207 ,57,5962772255221
21.2463215 ,Left ,63,6817019980125 ,47,7613916299103 ,57,4934589059802
21.268913 ,Left ,63,6918155258701 ,47,7438284137589 ,57,3905752843419
21.2913087 ,Left ,63,7026460342223 ,47,6965016126417 ,57,2768189913906
21.3062882 ,Left ,63,7097062062938 ,47,6417416575603 ,57,1397289564152
21.3289252 ,Left ,63,7059466130934 ,47,5766156220731 ,56,98861293553
21.3514816 ,Left ,63,7075189235688 ,47,4964037318336 ,56,857573609422
21.366254 ,Left ,63,6754681727546 ,47,3777391037657 ,56,7666434019681
21.388959 ,Left ,63,6949344611815 ,47,2791578836184 ,56,7209827056822
21.4113593 ,Left ,63,6688896957082 ,47,20858782932 ,56,7135220477444
21.4262392 ,Left ,63,6788499755868 ,47,1998909993033 ,56,7496455396824
21.4563411 ,Left ,63,806891297983 ,47,1896673228197 ,56,8266581755892
21.4787164 ,Left ,63,9703237597419 ,47,1280537513281 ,56,9209324710692
21.4941026 ,Left ,64,1013514327691 ,47,0197561715113 ,57,0048968868229
21.5314756 ,Left ,64,2249489052496 ,46,9569942128337 ,57,0781061085957
21.5462098 ,Left ,64,280143534978 ,46,924713099704 ,57,1088008389424
21.5688109 ,Left ,64,3148490839972 ,46,877173620569 ,57,1501864833672
21.5913144 ,Left ,64,371668142749 ,46,85503615186 ,57,1719435008024
21.6061532 ,Left ,64,397289778151 ,46,8349307817692 ,57,1674114248261
21.6289202 ,Left ,64,4068541548146 ,46,7760695279457 ,57,1826444713181
21.6514675 ,Left ,64,4463028037077 ,46,6805751135577 ,57,2150345564194
21.6663344 ,Left ,64,4620910202341 ,46,5815522994175 ,57,2317054592401
21.6888148 ,Left ,64,4619470132873 ,46,6291632940909 ,57,2339239398509
21.7114168 ,Left ,64,4993400310822 ,46,7256266815744 ,57,2183644822097
21.7261752 ,Left ,64,5633337545846 ,46,7655700964958 ,57,2222777780923
21.7487665 ,Left ,64,5856494691314 ,46,7372767278998 ,57,2610442958994
21.7713883 ,Left ,64,5915627012106 ,46,7165256847237 ,57,2944779442828
21.7863073 ,Left ,64,5868547804243 ,46,676624410219 ,57,32757050265
21.8085156 ,Left ,64,5691393833349 ,46,6270398413916 ,57,3696492932353
21.8308894 ,Left ,64,5475558123223 ,46,5717724971082 ,57,4200205128727
21.8459713 ,Left ,64,52341194187 ,46,5252862550103 ,57,4727169525554
21.8687277 ,Left ,64,4708139886827 ,46,5082064071189 ,57,5233328395699
21.8912079 ,Left ,64,4308447317803 ,46,5106996211684 ,57,5717653722074
21.9057427 ,Left ,64,4276157663897 ,46,5159744223175 ,57,6239401467112
21.9284551 ,Left ,64,4243852071068 ,46,4933414116275 ,57,688676458725
21.9510653 ,Left ,64,4108704977117 ,46,469214664286 ,57,7609735969347
21.966238 ,Left ,64,3985833819175 ,46,4387420488956 ,57,8238831460397
21.9886926 ,Left ,64,3698304633671 ,46,4388394596025 ,57,8761047174763
22.0112337 ,Left ,64,3247514004924 ,46,4395367752332 ,57,9189301261115
22.0261235 ,Left ,64,3256866187586 ,46,4316445656647 ,57,9470791958574
22.0485364 ,Left ,64,3261678543548 ,46,4104661544576 ,57,9669024942078
22.0712205 ,Left ,64,3219514740119 ,46,3877855892573 ,57,9884048968811
22.0861885 ,Left ,64,3178786006785 ,46,3884955877781 ,58,0115101067034
22.1087883 ,Left ,64,3029519449691 ,46,406260211842 ,58,0326424718163
22.130864 ,Left ,64,3017177545742 ,46,4090266485229 ,58,054551309653
22.1458829 ,Left ,64,3087884323979 ,46,4087645851503 ,58,0727837112069
22.1684613 ,Left ,64,2970453951399 ,46,4061105597745 ,58,0896071652901
22.1908956 ,Left ,64,2931715333285 ,46,408686233606 ,58,1043582338585
22.2064465 ,Left ,64,2899803349665 ,46,4131354634853 ,58,1112031178793
22.2288302 ,Left ,64,2965908308738 ,46,4122798504744 ,58,1131173804316
22.2513173 ,Left ,64,3156853959676 ,46,406303160709 ,58,1172774638778
22.2661548 ,Left ,64,3188922261199 ,46,3970984755713 ,58,1383931067806
22.2885441 ,Left ,64,3138107491228 ,46,3836308437532 ,58,1547519923143
22.311031 ,Left ,64,3105625520419 ,46,3783679845662 ,58,1456713630069
22.3263395 ,Left ,64,3150661750622 ,46,381215991131 ,58,1149221982888
22.348787 ,Left ,64,3360800700545 ,46,3855590380531 ,58,0717432765675
22.371029 ,Left ,64,3307824567431 ,46,3857644752528 ,58,0260261451638
22.3860575 ,Left ,64,3045802137938 ,46,3699567968187 ,57,9687488279927
22.4085949 ,Left ,64,2591558651474 ,46,3154152300669 ,57,9161991409207
22.4312701 ,Left ,64,2541951774974 ,46,2909140617681 ,57,9456873928331
22.4538352 ,Left ,64,2698154126562 ,46,2879084517902 ,58,0034793301185
22.4688176 ,Left ,64,3386447027859 ,46,3556383617464 ,58,0374994783774
22.4911215 ,Left ,64,3232332688886 ,46,4154839958385 ,58,0372297247277
22.5137818 ,Left ,64,3187245626605 ,46,4711840094933 ,58,0174833500125
22.5285494 ,Left ,64,2781890306443 ,46,5282037356082 ,57,982190302172
22.5512216 ,Left ,64,2439073996908 ,46,5872226586287 ,57,9201988226642
22.573659 ,Left ,64,1988302916675 ,46,6055771328084 ,57,8440260363919
22.5886633 ,Left ,64,1689898017544 ,46,607074920254 ,57,7967262897911
22.6113532 ,Left ,64,1592149730235 ,46,5494587833373 ,57,7545138087117
22.6339414 ,Left ,64,1179722784077 ,46,4315280499582 ,57,7730560448656
22.6485982 ,Left ,64,1179998063599 ,46,3050095408517 ,57,8017998223928
22.6711716 ,Left ,64,1380511205124 ,46,3144487461831 ,57,8061774486762
22.6936254 ,Left ,64,1441868850085 ,46,390695757873 ,57,7911099553809
22.7086142 ,Left ,64,1463018508495 ,46,4367304448971 ,57,81620471956
22.7313122 ,Left ,64,1164718689031 ,46,4882828308188 ,57,8374124056804
22.7539362 ,Left ,64,078287274494 ,46,5689580146004 ,57,8394390718184
22.7683546 ,Left ,64,0630713084716 ,46,6496725206834 ,57,8061254835858
22.7916638 ,Left ,64,0429626311815 ,46,6410958038162 ,57,799542765971
22.8142589 ,Left ,64,0660259076354 ,46,5736966635623 ,57,8640711758781
22.8289122 ,Left ,64,0595767395742 ,46,6183717082759 ,57,8975587503221
22.8512241 ,Left ,64,0650407390314 ,46,7748300379625 ,57,9030410515655
22.8739053 ,Left ,64,087392536364 ,46,8997968944268 ,57,9354031758835
22.8888413 ,Left ,64,0611175470929 ,47,0452070551305 ,57,9829070731526
22.9113777 ,Left ,63,9707228996464 ,47,1944721700783 ,58,0163057540078
22.933996 ,Left ,63,87569244112 ,47,312441046991 ,58,0388659807633
22.9488104 ,Left ,63,8240528948221 ,47,3666247859125 ,58,0594889195632
22.971389 ,Left ,63,7805098155228 ,47,3507368999696 ,58,0861458172087
22.9938009 ,Left ,63,7127151905968 ,47,2845509673402 ,58,0972366449539
23.0087285 ,Left ,63,6113285608277 ,47,1948001443855 ,58,0767511551393
23.0310894 ,Left ,63,4976816846269 ,47,1402403788212 ,58,0321038721399
23.0539169 ,Left ,63,4586711086204 ,47,1205964221915 ,57,9999701595164
23.0688082 ,Left ,63,4484926350186 ,47,1746539230014 ,57,9943832433091
23.0910653 ,Left ,63,5007158181889 ,47,2614532703344 ,57,995232159778
23.1138541 ,Left ,63,5575731424443 ,47,3355922102348 ,58,0112918568994
23.1362369 ,Left ,63,6172671519223 ,47,4215411942451 ,58,0155058103873
23.1508016 ,Left ,63,6572766840738 ,47,5188315907539 ,57,9748891373465
23.1733682 ,Left ,63,661853368246 ,47,6162552540078 ,57,8908039186314
23.1887492 ,Left ,63,6625196719765 ,47,6924564688754 ,57,770923418327
23.2036675 ,Left ,63,6503233984432 ,47,7427090528113 ,57,6393783345709
23.2259354 ,Left ,63,6355792302385 ,47,7716934805931 ,57,5029817533375
23.2636492 ,Left ,63,637701317952 ,47,7344475934213 ,57,167342645593
23.2862881 ,Left ,63,63335381524 ,47,6681772897784 ,57,0140022106924
23.3236932 ,Left ,63,6106386572818 ,47,5193657467384 ,56,7730064137107
23.3463971 ,Left ,63,6135444775861 ,47,4450427072681 ,56,6982729418723
23.3842404 ,Left ,63,6945003870773 ,47,3680301656999 ,56,6939315532185
23.4141192 ,Left ,63,8160414691956 ,47,3749614268735 ,56,7257400399098
23.474071 ,Left ,64,1823192784834 ,47,1691870520052 ,56,893629632324
23.5038503 ,Left ,64,3338288853777 ,47,0154655526207 ,57,0173390445125
23.52619 ,Left ,64,4008340404316 ,46,9114795103815 ,57,0570547935949
23.5636118 ,Left ,64,5073225345345 ,46,7343884251945 ,57,1236447826823
23.5859451 ,Left ,64,5229351933141 ,46,6947983042881 ,57,1366925864054
23.6236433 ,Left ,64,4862925052823 ,46,5414681553182 ,57,1497634944394
23.6464872 ,Left ,64,4598577060842 ,46,5202119609878 ,57,1712486056284
23.6614291 ,Left ,64,4751147046282 ,46,5785720348035 ,57,178610208433
23.6839075 ,Left ,64,5282356719172 ,46,635025487985 ,57,2031720692044
23.7060647 ,Left ,64,5683032073069 ,46,6407489697155 ,57,2695709428898
23.721243 ,Left ,64,57253076975 ,46,6238782619037 ,57,347522948727
23.7434556 ,Left ,64,5569941287985 ,46,6358019204032 ,57,3847310554936
23.7660602 ,Left ,64,5454877582608 ,46,63161391591 ,57,4213222581945
23.7809227 ,Left ,64,5436790703241 ,46,6097388318201 ,57,456031756923
23.8038312 ,Left ,64,5058521032455 ,46,5866829727906 ,57,4925029535767
23.8261262 ,Left ,64,4680009849879 ,46,5643291640412 ,57,5405008778169
23.8633222 ,Left ,64,4618417848265 ,46,5378089644915 ,57,6528053601438
23.8860876 ,Left ,64,4642625351145 ,46,4982838345203 ,57,7208901397552
23.9238572 ,Left ,64,4362233499025 ,46,4207608177377 ,57,8500319701328
23.9465555 ,Left ,64,404256103259 ,46,3934108552798 ,57,9144984244607
23.9839893 ,Left ,64,3606172930829 ,46,3299625970285 ,58,0439702320349
24.0062723 ,Left ,64,3247753285068 ,46,2963333501179 ,58,1192779260388
24.0440833 ,Left ,64,2888748719467 ,46,2828194117518 ,58,2425728595217
24.0662471 ,Left ,64,2522892026378 ,46,3027194764343 ,58,2784795709453
24.1040809 ,Left ,64,2223734121126 ,46,3501473513322 ,58,3138332858279
24.1265 ,Left ,64,2020173121789 ,46,362473867737 ,58,327915631729
24.1641202 ,Left ,64,1712847094692 ,46,4204436942167 ,58,3287115367408
24.1863434 ,Left ,64,1659202582581 ,46,4285412651593 ,58,3028086756879
24.2238359 ,Left ,64,1565756348042 ,46,4092039118118 ,58,2373050802104
24.2464267 ,Left ,64,1359148669733 ,46,4214053999872 ,58,1948545462102
24.2839684 ,Left ,64,10200686641 ,46,3871871840693 ,58,0495079615612
24.3063167 ,Left ,64,0608572190487 ,46,3841517524161 ,58,0592843678242
24.3438934 ,Left ,64,1600946693397 ,46,4523033315199 ,58,1748564537793
24.3663611 ,Left ,64,2145856099416 ,46,536354563021 ,58,1979343320108
24.4040871 ,Left ,64,2559135953385 ,46,6203918162776 ,58,2123955438911
24.4263966 ,Left ,64,2046160874497 ,46,648467949864 ,58,1922642246433
24.4639677 ,Left ,64,1369971178459 ,46,6430411978095 ,58,0321334414549
24.4864116 ,Left ,64,0685984231156 ,46,5814794782761 ,57,9578505857629
24.5239338 ,Left ,64,0372976036491 ,46,3612186588828 ,57,9379585215569
24.5459932 ,Left ,64,0427589206239 ,46,4122605069046 ,57,9199672459227
24.5833849 ,Left ,64,0623748005161 ,46,5534539479871 ,57,9247533153066
24.6209793 ,Left ,63,9800437145531 ,46,7095599190154 ,57,944366608385
24.6437363 ,Left ,63,9420321310491 ,46,7752141500269 ,57,9283956858178
24.6812595 ,Left ,63,8604010583997 ,46,6739788961304 ,57,9561929940815
24.7037855 ,Left ,63,8659442271751 ,46,6355488106344 ,57,968400048665
24.7412225 ,Left ,63,9149034681501 ,46,8486921134315 ,57,9604292817632
24.7634351 ,Left ,63,931820098552 ,46,9644621017127 ,58,0105032606397
24.7861216 ,Left ,63,8929231306605 ,47,1107750128027 ,58,0549005475981
24.8241563 ,Left ,63,7355931395642 ,47,3171150638981 ,58,1659890459843
24.8542948 ,Left ,63,7014101823353 ,47,3563265300772 ,58,2068861079991
24.9215725 ,Left ,63,4168758899948 ,47,1202569608001 ,58,1821586431801
24.943765 ,Left ,63,4240959925052 ,47,1383739859723 ,58,1430352718524
24.9658879 ,Left ,63,3982212677153 ,47,3007355504933 ,58,0651243237204
25.0044044 ,Left ,63,506374273477 ,47,4545102005637 ,58,0792999538583
25.026353 ,Left ,63,5583419098566 ,47,5193715084056 ,58,0671372877027
25.0642103 ,Left ,63,6161930326551 ,47,6404054370086 ,57,9421757186175
25.0789134 ,Left ,63,6306160204833 ,47,6986042948019 ,57,8279286822552
25.1016471 ,Left ,63,6327150371979 ,47,7459250442085 ,57,6844021453303
25.1162193 ,Left ,63,6398599911996 ,47,766617700689 ,57,5296390241378
25.1388661 ,Left ,63,644411923417 ,47,7644776254229 ,57,3735773768871
25.1614621 ,Left ,63,6501931138558 ,47,7342370001177 ,57,2162368568743
25.1762194 ,Left ,63,6642734294771 ,47,6968451721273 ,57,0519394511855
25.1989032 ,Left ,63,6623613271239 ,47,6624159988147 ,56,8996465220759
25.2213828 ,Left ,63,6691394855185 ,47,632021933867 ,56,7802990515087
25.2363747 ,Left ,63,651465733449 ,47,5850444506262 ,56,6989541746228
25.2588532 ,Left ,63,6542581605085 ,47,5052971768902 ,56,6593167776942
25.2813106 ,Left ,63,6759680653495 ,47,4253141673961 ,56,6795286874961
25.2962973 ,Left ,63,7732387067242 ,47,4239389390845 ,56,713498885811
25.3186354 ,Left ,63,9365660692784 ,47,4030179551437 ,56,7405449411986
25.3413947 ,Left ,64,0804827231029 ,47,2965342577159 ,56,7942979702292
25.3561767 ,Left ,64,1483786048228 ,47,1829078661145 ,56,8436992371706
25.3786783 ,Left ,64,2113802202963 ,47,0967132303173 ,56,8737916322767
25.4012449 ,Left ,64,2775928536697 ,47,0376310332151 ,56,8878116082837
25.4160634 ,Left ,64,3354513593809 ,46,9720952364317 ,56,9003602103241
25.4386537 ,Left ,64,3808716039404 ,46,8967442582893 ,56,9172776347674
25.461068 ,Left ,64,4042189328773 ,46,8242621468609 ,56,9395778436819
25.4758543 ,Left ,64,3615639031905 ,46,7188205705731 ,56,9756249873276
25.4983746 ,Left ,64,3477933459872 ,46,629137944498 ,57,0121192178013
25.5210821 ,Left ,64,303831592555 ,46,5705712631772 ,57,0388509555289
25.536226 ,Left ,64,3053910637262 ,46,6167388897537 ,57,0514175936955
25.5586338 ,Left ,64,3606337656403 ,46,6982491671646 ,57,0739728244516
25.5813364 ,Left ,64,4249818442975 ,46,7546425232167 ,57,1321733191264
25.596331 ,Left ,64,456313869251 ,46,7589456421328 ,57,2204814510947
25.6189238 ,Left ,64,4644389042281 ,46,788211826652 ,57,2927211115267
25.6409216 ,Left ,64,4557504112255 ,46,8238243186106 ,57,3274016576897
25.6559474 ,Left ,64,4651269819607 ,46,8454296166157 ,57,3627423314103
25.6785646 ,Left ,64,496338439524 ,46,8419161292331 ,57,3997227302557
25.7015043 ,Left ,64,4862255402117 ,46,8193434255619 ,57,4500646765599
25.7165993 ,Left ,64,4593698475159 ,46,7906487246445 ,57,5176729721404
25.7387062 ,Left ,64,4407903316468 ,46,7830074732894 ,57,5994462943454
25.7610279 ,Left ,64,4292934494336 ,46,7827443232494 ,57,6945281278189
25.7762518 ,Left ,64,4083347212729 ,46,7819152858534 ,57,7955770519559
25.7987725 ,Left ,64,3741777865681 ,46,7817126551305 ,57,9034664112379
25.8209346 ,Left ,64,3443573271956 ,46,7672756080513 ,58,0075230125189
25.8361761 ,Left ,64,3162955915761 ,46,7543876317365 ,58,0938705217488
25.8586191 ,Left ,64,288505803991 ,46,7462530620281 ,58,1573036800905
25.8812026 ,Left ,64,2552293513031 ,46,7436127593985 ,58,2053879100237
25.896302 ,Left ,64,225254189183 ,46,7466092210246 ,58,244774599899
25.9187937 ,Left ,64,2174432604761 ,46,7392196427176 ,58,2773630807683
25.9410251 ,Left ,64,2056846157237 ,46,7140763813157 ,58,2996658111055
25.955973 ,Left ,64,188319448969 ,46,6960907149416 ,58,3025188600556
25.9785691 ,Left ,64,1555599883623 ,46,6940007916605 ,58,2870495250656
26.0012852 ,Left ,64,1445967251578 ,46,7106350838513 ,58,2555661512821
26.0162305 ,Left ,64,14149115225 ,46,7126610630224 ,58,2086213520011
26.0387603 ,Left ,64,1497225816015 ,46,7099914891511 ,58,178461823523
26.0610359 ,Left ,64,1794460268389 ,46,702652281708 ,58,1442791827454
26.0761049 ,Left ,64,195062553431 ,46,7168788324633 ,58,1100577282766
26.0986286 ,Left ,64,1860183990422 ,46,7320193953651 ,58,0802744407517
26.1212258 ,Left ,64,185333844584 ,46,7613960530842 ,58,0577337757938
26.1362975 ,Left ,64,1908723718309 ,46,7909145106325 ,58,0260587840271
26.1586626 ,Left ,64,1867841339114 ,46,8085676439336 ,57,9797454182835
26.1812201 ,Left ,64,1710765207717 ,46,744021126978 ,57,9816449816593
26.1962759 ,Left ,64,1519944174139 ,46,6943119934568 ,58,0216705591312
26.2260483 ,Left ,64,1375488090357 ,46,7176730757284 ,58,0593949009266
26.2486609 ,Left ,64,1519712509505 ,46,7824217393021 ,58,0847311376532
26.271246 ,Left ,64,2003300372522 ,46,837299821157 ,58,1129597824454
26.286201 ,Left ,64,2206341141571 ,46,8356688990817 ,58,1173863588462
26.3013456 ,Left ,64,195833892385 ,46,8395420270297 ,58,093526300564
26.3237109 ,Left ,64,1744576956303 ,46,8373875171924 ,58,0538911216139
26.3387039 ,Left ,64,1247093779361 ,46,8566457544885 ,57,9955586242959
26.3612185 ,Left ,64,1044679873242 ,46,8505196577319 ,57,9362318112659
26.3837758 ,Left ,64,1033883152574 ,46,80787126107 ,57,8717812624166
26.3983518 ,Left ,64,040751605213 ,46,7037688631851 ,57,8393026640319
26.42168 ,Left ,64,0263259354124 ,46,5998069988608 ,57,8753745870585
26.443926 ,Left ,64,0469452581773 ,46,6008462534188 ,57,891804932321
26.4590347 ,Left ,64,0700719966061 ,46,7467704063449 ,57,8635636682958
26.4812886 ,Left ,64,0661809595006 ,46,8703313835209 ,57,8563535377848
26.5036591 ,Left ,64,0704733897598 ,46,9746550352862 ,57,8746218939633
26.518835 ,Left ,64,0305891767565 ,47,0837509508198 ,57,8781352147379
26.5411304 ,Left ,63,9696358349799 ,47,1808602330669 ,57,8639591695426
26.5636381 ,Left ,63,9222236091797 ,47,2465820729807 ,57,8426581469062
26.5786026 ,Left ,63,8738427150044 ,47,2614236625061 ,57,8280170964501
26.6010267 ,Left ,63,8114165874167 ,47,2500323623115 ,57,8565302625526
26.6236185 ,Left ,63,7265230965416 ,47,1393374382089 ,57,9057728529629
26.6384393 ,Left ,63,6848812649347 ,47,1185966428006 ,57,9424451644741
26.6609597 ,Left ,63,618882401769 ,47,2511256950768 ,57,9117322655089
26.6833686 ,Left ,63,5604905750134 ,47,3573612632857 ,57,9539535891551
26.6983535 ,Left ,63,5909964722319 ,47,4336740957416 ,58,0241302028042
26.7208637 ,Left ,63,6365576868967 ,47,4331984677672 ,58,108335213363
26.7433424 ,Left ,63,6839663983096 ,47,4377597878178 ,58,1437152855005
26.7584199 ,Left ,63,7392349602861 ,47,4815723252761 ,58,1091913639631
26.7808815 ,Left ,63,7667646358231 ,47,5416657530811 ,58,0633945886158
26.8036024 ,Left ,63,7604241458688 ,47,5829438454151 ,58,0636240902442
26.8183744 ,Left ,63,7117243791219 ,47,6257356409174 ,58,113823450844
26.8409981 ,Left ,63,6714093656564 ,47,6397818616843 ,58,2258625397445
26.8636025 ,Left ,63,6680005356171 ,47,5966181927868 ,58,3698996027609
26.8787075 ,Left ,63,6756139021374 ,47,5127795865439 ,58,4854346863083
26.9011274 ,Left ,63,6220802773827 ,47,4591065642751 ,58,5267044692112
26.9236256 ,Left ,63,5445228958852 ,47,4283849920832 ,58,4990606279591
26.9460492 ,Left ,63,4273138389407 ,47,3693695250569 ,58,4482555614115
26.9610289 ,Left ,63,3670116033981 ,47,2806723926076 ,58,4058649554309
26.9835722 ,Left ,63,3133314193369 ,47,245663594845 ,58,3889063244667
27.0135471 ,Left ,63,2808602000317 ,47,3700812136093 ,58,3449205524495
27.0285577 ,Left ,63,3040012081416 ,47,4744527749112 ,58,3208600874725
27.0510917 ,Left ,63,395732996504 ,47,4683024939882 ,58,3642849742439
27.0661171 ,Left ,63,4525196859151 ,47,4161663593855 ,58,4069373931791
27.0811427 ,Left ,63,4959316047804 ,47,4372917481116 ,58,4221578430423
27.1039386 ,Left ,63,519278546443 ,47,4699062416987 ,58,4216353906375
27.1189965 ,Left ,63,5393613075244 ,47,5070691208316 ,58,4143957316739
27.1413465 ,Left ,63,5509235905748 ,47,5415179025868 ,58,3983295821175
27.1640861 ,Left ,63,5708565163006 ,47,563853511184 ,58,3711489534668
27.1862883 ,Left ,63,5955090395366 ,47,5852075933371 ,58,3187449941032
27.2012641 ,Left ,63,6263099405402 ,47,6173955884234 ,58,2404511230644
27.2234351 ,Left ,63,6487096044645 ,47,6445163149148 ,58,1464463706337
27.2461092 ,Left ,63,6611357268431 ,47,6737155775792 ,58,0303370124639
27.2609166 ,Left ,63,6661563651249 ,47,7027474680909 ,57,8962579405727
27.2835353 ,Left ,63,669274083184 ,47,7372281542606 ,57,7467514408891
27.3061817 ,Left ,63,6990238557152 ,47,7714611625163 ,57,5920056833245
27.3210626 ,Left ,63,6909806811282 ,47,7933649856609 ,57,4394897206535
27.3437427 ,Left ,63,667795934688 ,47,8216673649387 ,57,2671109059808
27.3663188 ,Left ,63,6224537128019 ,47,846701043813 ,57,1039458896312
27.3811286 ,Left ,63,5981070870112 ,47,8583672938024 ,56,9757271754476
27.4036355 ,Left ,63,5752873924923 ,47,8362905576587 ,56,8813550588601
27.4261205 ,Left ,63,5645815862969 ,47,7419323809961 ,56,8325230615571
27.441046 ,Left ,63,58627525305 ,47,6265185400921 ,56,8684323601513
27.4636163 ,Left ,63,6555720411284 ,47,6885881807085 ,56,8887501531714
27.4863019 ,Left ,63,769858393668 ,47,7788872010946 ,56,8905097098747
27.5012642 ,Left ,63,8718075137402 ,47,7689953281397 ,56,9405243753222
27.5238052 ,Left ,63,9727112899196 ,47,7053851603924 ,57,0058437447048
27.5461546 ,Left ,64,0362727186561 ,47,6361068774432 ,57,0429051695213
27.5611566 ,Left ,64,0937065854643 ,47,5831486176023 ,57,0671277247089
27.5838312 ,Left ,64,1261204553641 ,47,5267833820125 ,57,0934248735669
27.6062484 ,Left ,64,1483970997404 ,47,4681159848776 ,57,0937445561888
27.6211233 ,Left ,64,1477733218141 ,47,3975125359021 ,57,0809931208152
27.6438448 ,Left ,64,1362303708618 ,47,2534715676621 ,57,0680105362021
27.6661204 ,Left ,64,145582801063 ,47,0750489640369 ,57,0731180217312
27.688744 ,Left ,64,2241618099768 ,47,0483491637003 ,57,1069042388968
27.7111936 ,Left ,64,2850548623499 ,47,1455637068343 ,57,1173407336512
27.7411205 ,Left ,64,3714996110937 ,47,2547138723041 ,57,2488942811641
27.7636428 ,Left ,64,384678971432 ,47,2778261396391 ,57,3274030014715
27.7859909 ,Left ,64,4014605956999 ,47,2726824933004 ,57,3820474015338
27.801005 ,Left ,64,4328550957837 ,47,2324668202631 ,57,4268550550806
27.8234204 ,Left ,64,4461363395936 ,47,1669136779085 ,57,4752593216465
27.8539002 ,Left ,64,4296863791349 ,47,0858623638785 ,57,5361033023263
27.868802 ,Left ,64,3952187500087 ,47,0178709814466 ,57,6070710730816
27.8911663 ,Left ,64,353906676211 ,46,9867188847418 ,57,6657451598363
27.906127 ,Left ,64,336274982816 ,46,9582278567768 ,57,7201124744491
27.9212238 ,Left ,64,3161836178298 ,46,9077177871823 ,57,7798685633038
27.9437766 ,Left ,64,2851711010492 ,46,8506276570145 ,57,8495461311321
27.966309 ,Left ,64,2582046610895 ,46,7982414230949 ,57,9223984524297
27.9813262 ,Left ,64,2167576264423 ,46,767574646803 ,57,9820406246097
28.0039055 ,Left ,64,1833812745765 ,46,74680952189 ,58,0168556619562
28.0262315 ,Left ,64,1730002984415 ,46,7034301947966 ,58,0403201827515
28.0412898 ,Left ,64,1642989653637 ,46,6403754542574 ,58,0609891899802
28.0635783 ,Left ,64,167430176019 ,46,5671426119248 ,58,0821678284514
28.0862976 ,Left ,64,17609982087 ,46,5321931559442 ,58,0980740069556
28.1087865 ,Left ,64,1900399146913 ,46,5341781279645 ,58,0856565193029
28.1236645 ,Left ,64,2015979576698 ,46,5250015453053 ,58,0748636622954
28.1458994 ,Left ,64,241683267733 ,46,5229039627306 ,58,063015921795
28.1761051 ,Left ,64,2593760328639 ,46,5437037503103 ,58,0545262456981
28.1911587 ,Left ,64,272595262076 ,46,5848470159437 ,58,0398363714434
28.2135644 ,Left ,64,2806810601441 ,46,5919987107342 ,58,0251250665281
28.2283994 ,Left ,64,254990615342 ,46,5588450792872 ,58,0136534249423
28.2433491 ,Left ,64,231662040813 ,46,5344053566434 ,57,9931984192943
28.265981 ,Left ,64,1572964742743 ,46,560698810195 ,57,9722801946858
28.2884607 ,Left ,64,0447288468698 ,46,5848306319328 ,57,9659870648003
28.3035882 ,Left ,64,0289625494868 ,46,5715560676823 ,57,9983303753443
28.3259348 ,Left ,64,0507705620889 ,46,5647199406999 ,58,0564668700504
28.3486217 ,Left ,64,0471323372383 ,46,598904722252 ,58,0876468615454
28.3637694 ,Left ,64,0200979168931 ,46,6511369198337 ,58,0883618825946
28.386151 ,Left ,63,9940652551578 ,46,7120126392591 ,58,0698637854895
28.4088427 ,Left ,63,9392009546639 ,46,7441847398318 ,58,0290967480088
28.4235965 ,Left ,63,9041223073421 ,46,7847514552541 ,57,9723761341759
28.4460124 ,Left ,63,8443833739681 ,46,7635353466359 ,57,916638257274
28.4686391 ,Left ,63,8019798857474 ,46,6720007300692 ,57,8641025255679
28.4836393 ,Left ,63,7702894031552 ,46,5491334926135 ,57,8526289159817
28.5060397 ,Left ,63,7357698043068 ,46,5025312928801 ,57,8340319250635
28.528343 ,Left ,63,7533765468124 ,46,5666457505809 ,57,7862479382175
28.5435286 ,Left ,63,7776484771594 ,46,6335368786342 ,57,768450498025
28.566342 ,Left ,63,797101361608 ,46,6730051537689 ,57,7883272335009
28.5888265 ,Left ,63,7560209134679 ,46,722943147154 ,57,8055265902932
28.6040211 ,Left ,63,6971249221678 ,46,773651178516 ,57,8136844063
28.6261778 ,Left ,63,6495120280203 ,46,7851236562195 ,57,7953091194909
28.6489836 ,Left ,63,6404845120064 ,46,7488833438543 ,57,8133309395516
28.6713232 ,Left ,63,6294490903778 ,46,6716722226576 ,57,8490244303975
28.6935155 ,Left ,63,6543007079545 ,46,7168953086128 ,57,8531319465728
28.7162159 ,Left ,63,7099435627885 ,46,8462591924833 ,57,8276869317809
28.7311532 ,Left ,63,7510948481692 ,46,9901278290207 ,57,8312698277148
28.7460002 ,Left ,63,7116745278215 ,47,1638531028917 ,57,8310338640674
28.7685328 ,Left ,63,6232331812901 ,47,3237105191522 ,57,8430141163835
28.7910326 ,Left ,63,5338711394281 ,47,4525881392849 ,57,8611107735576
28.8058949 ,Left ,63,4684176471537 ,47,5368435804839 ,57,884249658591
28.8285614 ,Left ,63,4012346114455 ,47,5540995517236 ,57,9362729015284
28.8517623 ,Left ,63,3284750191313 ,47,5294793693436 ,57,9915344140145
28.8665599 ,Left ,63,2610304548774 ,47,4738243499839 ,57,9988735878507
28.8891918 ,Left ,63,1961871120435 ,47,4080846827806 ,57,9685392375255
28.9034726 ,Left ,63,214003338099 ,47,4201322693364 ,57,9412924123036
28.925917 ,Left ,63,2559179540001 ,47,5240705190537 ,57,9070893873907
28.9484744 ,Left ,63,3513520579139 ,47,6193771434947 ,57,8911115852144
28.9710259 ,Left ,63,405931734253 ,47,7039303814277 ,57,8879575645703
28.9785367 ,Left ,63,4043410161392 ,47,8033641607748 ,57,8575992844149
29.0011163 ,Left ,63,4164711314201 ,47,8987738766642 ,57,7999664831588
29.0386431 ,Left ,63,4719382799046 ,48,0186791309552 ,57,5780061006492
29.0610141 ,Left ,63,475771583404 ,48,0464924497167 ,57,4400055946756
29.0988129 ,Left ,63,4345413866688 ,48,0835227730785 ,57,1281457547291
29.1209988 ,Left ,63,4123392963188 ,48,0697830586088 ,56,9717000887988
29.1586048 ,Left ,63,3995967655004 ,47,9767430583338 ,56,684530148719
29.1811527 ,Left ,63,3934544179714 ,47,9024145960985 ,56,5663800669616
29.2185449 ,Left ,63,3680850200552 ,47,6931216821989 ,56,4218311361176
29.2412036 ,Left ,63,3797489365994 ,47,5836663643452 ,56,4139121336973
29.2784635 ,Left ,63,5684764779921 ,47,5895352203187 ,56,4636520292396
29.3012428 ,Left ,63,683510721919 ,47,5493239245543 ,56,5226250711469
29.338993 ,Left ,63,8479468169603 ,47,4378461634843 ,56,6548433617442
29.3615317 ,Left ,63,9600488222823 ,47,3596644239958 ,56,7369307632009
29.3991406 ,Left ,64,0808827523262 ,47,2529206438973 ,56,8746223475777
29.4211283 ,Left ,64,1203636880654 ,47,2060653260109 ,56,9098866515425
29.4659503 ,Left ,64,0824045609065 ,46,9917776185129 ,56,9472925531027
29.4885304 ,Left ,64,0650357259209 ,46,9337739930509 ,56,9538591224886
29.5261153 ,Left ,64,1289565403731 ,47,0609725288223 ,57,0217655448612
29.5484283 ,Left ,64,1720687644877 ,47,0923845276233 ,57,1086360694187
29.5784752 ,Left ,64,1849151077267 ,47,0870473277137 ,57,2763929052172
29.6011483 ,Left ,64,1916796071164 ,47,0898822024156 ,57,3387735380538
29.6387029 ,Left ,64,1982755719017 ,47,052854302532 ,57,458859900977
29.6612772 ,Left ,64,1779941933836 ,46,9989240348666 ,57,5391941874728
29.6985137 ,Left ,64,1396632976189 ,46,9606927944399 ,57,6961637599395
29.7211138 ,Left ,64,117532070371 ,46,9525211018268 ,57,7666467262437
29.7585901 ,Left ,64,0849976883202 ,46,9031903629342 ,57,9029758532533
29.78126 ,Left ,64,0752950516914 ,46,8921393404361 ,57,9500604295859
29.8187864 ,Left ,64,0385479759467 ,46,8911728024562 ,58,0409762761211
29.8411631 ,Left ,64,0207366567282 ,46,8965691173993 ,58,0904616937588
29.8786417 ,Left ,64,0156005787663 ,46,8840104374066 ,58,1860019330343
29.9011633 ,Left ,64,0251868723238 ,46,8823803510276 ,58,2150087223517
29.9386668 ,Left ,64,0400153711551 ,46,9191230278569 ,58,2161142606755
29.9613682 ,Left ,64,0553760450732 ,46,9278287185976 ,58,207032978322
29.9992541 ,Left ,64,101036455825 ,46,9152746530305 ,58,1552444227563
30.0216818 ,Left ,64,0940457159774 ,46,8991561840152 ,58,1159522035369
30.0588187 ,Left ,64,1103450771555 ,46,9034978311826 ,58,0165506346246
30.0812653 ,Left ,64,1030124521351 ,46,9047348230996 ,57,9742147939712
30.1186625 ,Left ,64,0185998037296 ,46,918147024675 ,57,9084040135764
30.1413142 ,Left ,63,9964225347248 ,46,8669477707923 ,57,9005813737491
30.178649 ,Left ,63,9673287722766 ,46,9084081001163 ,57,9363872446872
30.2011694 ,Left ,63,9770866755173 ,46,9935151440916 ,57,9504725680279
30.2388525 ,Left ,63,9983440346952 ,47,0729148505547 ,57,9375017929362
30.2612753 ,Left ,63,9787431340051 ,47,0813481121512 ,57,9045879102693
30.2985885 ,Left ,63,9302164997603 ,47,0546045608844 ,57,8037978729795
30.3207734 ,Left ,63,9362322623214 ,46,9900223089891 ,57,7704310987792
30.3586017 ,Left ,63,9054354398579 ,46,9723949584623 ,57,7574196484887
30.3812469 ,Left ,63,9474375646117 ,47,0798680728413 ,57,745946954422
30.4187416 ,Left ,63,9623795526857 ,47,1995911060188 ,57,7847461015084
30.4412562 ,Left ,63,9141366975549 ,47,2349413917346 ,57,8035898180608
30.4786032 ,Left ,63,8154244861131 ,47,2410076227757 ,57,7628942158345
30.5160694 ,Left ,63,8058300463544 ,47,0900728548789 ,57,818935305167
30.5386726 ,Left ,63,8204183594115 ,47,1494232823004 ,57,8187334844024
30.5611778 ,Left ,63,8612245024683 ,47,247255697977 ,57,823134685392
30.5986985 ,Left ,63,8617116213546 ,47,4857456143015 ,57,8429606987269
30.6435623 ,Left ,63,7541098975151 ,47,641661808512 ,57,866322799728
30.6962385 ,Left ,63,565937478576 ,47,6490495108603 ,57,9128998991033
30.7262498 ,Left ,63,4932064765072 ,47,5686975711515 ,57,937007876209
30.763844 ,Left ,63,4929541851155 ,47,5173840738879 ,57,930418484447
30.8013513 ,Left ,63,5421202350072 ,47,7413679609443 ,57,8656135234368
30.8387915 ,Left ,63,5574221647195 ,47,8689606802431 ,57,8733717848356
30.8536386 ,Left ,63,5691903728574 ,47,9406692444924 ,57,8343450962314
30.8762882 ,Left ,63,60207114156 ,48,0022393848279 ,57,7722325945972
30.8988654 ,Left ,63,6177156295072 ,48,0308920253371 ,57,6968339154337
30.9212868 ,Left ,63,6155232875801 ,48,0288958781586 ,57,6224717534235
30.9508477 ,Left ,63,5919061442256 ,48,0067401892812 ,57,4078661989469
30.9736835 ,Left ,63,5754491678812 ,47,9771206983103 ,57,2659940456682
30.9961316 ,Left ,63,5588687703561 ,47,9322955377726 ,57,1329021241536
31.0109749 ,Left ,63,5467690563432 ,47,873115715125 ,57,0133355248977
31.0337985 ,Left ,63,5152527081996 ,47,8410184579749 ,56,9079228433014
31.0560167 ,Left ,63,4859898363587 ,47,8197401936075 ,56,8008329472057
31.0712584 ,Left ,63,4371324617348 ,47,7724001317645 ,56,7082772980841
31.0939969 ,Left ,63,3833018576494 ,47,6901705535522 ,56,6469498758269
31.1162315 ,Left ,63,346425074916 ,47,5955964991487 ,56,6229963908669
31.1312779 ,Left ,63,352676995141 ,47,5345650873698 ,56,6292550240244
31.1539645 ,Left ,63,4632730138513 ,47,5717034281212 ,56,641094470587
31.1763529 ,Left ,63,6273071480709 ,47,6001145213303 ,56,6526001850036
31.1911647 ,Left ,63,7037057170747 ,47,5551835706442 ,56,6849177710385
31.2139058 ,Left ,63,7635769261552 ,47,5187401237612 ,56,711542682824
31.2363113 ,Left ,63,8204291575839 ,47,4989921168487 ,56,7327680496789
31.2511161 ,Left ,63,8971833613916 ,47,4768316989759 ,56,7666627424495
31.2737361 ,Left ,63,970380084704 ,47,4239233195706 ,56,8149216619622
31.3037785 ,Left ,64,0232385028942 ,47,3413676858752 ,56,8629048214048
31.3188681 ,Left ,64,0650077727221 ,47,2617779929618 ,56,9006127675541
31.3411576 ,Left ,64,06210011057 ,47,1936858940491 ,56,9251727719752
31.3562769 ,Left ,64,0181147135742 ,47,1328213343548 ,56,9348529561433
31.370835 ,Left ,64,0105162350527 ,47,076442730698 ,56,9648037061671
31.3937041 ,Left ,64,039946469735 ,47,1254843507056 ,56,9964831178434
31.4160947 ,Left ,64,0814556191389 ,47,2138529925835 ,57,0354134916876
31.4310389 ,Left ,64,1544995295916 ,47,2636761169146 ,57,0999493974659
31.4534236 ,Left ,64,147465866501 ,47,2733046607857 ,57,1960089128545
31.4760094 ,Left ,64,1479066718152 ,47,2999534393959 ,57,2842493539142
31.490848 ,Left ,64,1159097649946 ,47,319924149074 ,57,3642073271899
31.5134472 ,Left ,64,0916422280451 ,47,3311627747991 ,57,4450277656377
31.5362525 ,Left ,64,070202982426 ,47,3264074327584 ,57,5159856024379
31.5513271 ,Left ,64,0320836447155 ,47,3132291880138 ,57,6094944294282
31.5736361 ,Left ,64,0131403224163 ,47,3144774252273 ,57,7125510574641
31.5963153 ,Left ,63,9805950150205 ,47,3130429794712 ,57,8120403706208
31.6113949 ,Left ,63,9582159656174 ,47,2900197782816 ,57,9038179187962
31.6338396 ,Left ,63,9390850229974 ,47,2601593030169 ,57,9820609641377
31.6562065 ,Left ,63,9107103318633 ,47,2459450377536 ,58,0330580233359
31.6712646 ,Left ,63,9000902700964 ,47,2351769986231 ,58,0613737258843
31.6936201 ,Left ,63,906305962438 ,47,2283673874771 ,58,0812359091888
31.7162187 ,Left ,63,8909708629414 ,47,2204540620177 ,58,0925068598557
31.7313877 ,Left ,63,8702586315978 ,47,2259133458045 ,58,103374941452
31.7535763 ,Left ,63,8451122239211 ,47,2406906511992 ,58,1204932199371
31.7759132 ,Left ,63,8419130334631 ,47,2542086953307 ,58,1397731824008
31.7911549 ,Left ,63,83723487459 ,47,2509486297437 ,58,1626475800427
31.813703 ,Left ,63,8436595111849 ,47,2376949563585 ,58,1639873270832
31.8361907 ,Left ,63,8359377265671 ,47,228580014977 ,58,1413583843569
31.8586212 ,Left ,63,8172005876665 ,47,2197377322783 ,58,1032907389073
31.8735252 ,Left ,63,799724901555 ,47,1895809582288 ,58,0400910693371
31.8961397 ,Left ,63,7476986439838 ,47,1280944927625 ,57,9572090787351
31.9186335 ,Left ,63,7091632767733 ,47,1012526000761 ,57,9040141241388
31.9334994 ,Left ,63,6850335840143 ,47,0704819155484 ,57,910170619333
31.956179 ,Left ,63,725644710351 ,47,0777703821088 ,57,9524048459105
31.9790019 ,Left ,63,7700509711278 ,47,1219370165416 ,57,9846457040445
31.9937439 ,Left ,63,8007740951749 ,47,1791276948556 ,58,0018502184832
32.0164195 ,Left ,63,831820918372 ,47,2198511605637 ,57,9940305967537
32.0388658 ,Left ,63,8140295153602 ,47,2449170085428 ,57,9665622038241
32.0538203 ,Left ,63,7962847905752 ,47,2517484904658 ,57,9351906396973
32.0762952 ,Left ,63,7462647299531 ,47,2540523390608 ,57,8921809883903
32.0989054 ,Left ,63,6925227618397 ,47,2183472006812 ,57,843556408214
32.1138755 ,Left ,63,7284525648898 ,47,1289100406684 ,57,8159909648176
32.1362447 ,Left ,63,7151807951888 ,47,0099113191776 ,57,8216856343668
32.1588353 ,Left ,63,7213085981677 ,47,0066290825064 ,57,8248720826086
32.1737639 ,Left ,63,7758136412095 ,47,0783870431424 ,57,7972130843317
32.1963844 ,Left ,63,8200579562651 ,47,1162075519404 ,57,8019590639615
32.218988 ,Left ,63,7976706937441 ,47,1685840454875 ,57,828739045794
32.2337666 ,Left ,63,7602531699332 ,47,2088389196555 ,57,8503969580991
32.2562886 ,Left ,63,7192042732503 ,47,2685411814556 ,57,8509319128421
32.2788769 ,Left ,63,6935013616052 ,47,278180527171 ,57,8274168522082
32.2937336 ,Left ,63,6620860178453 ,47,2156816741719 ,57,8256424233686
32.3163811 ,Left ,63,6779957502832 ,47,1151076174023 ,57,8714978620455
32.3389163 ,Left ,63,7459085961166 ,47,1038721517389 ,57,9041557539278
32.3540392 ,Left ,63,8291473563561 ,47,1818877898416 ,57,8915524729032
32.3763241 ,Left ,63,86190724004 ,47,3107045149893 ,57,9010939795099
32.3988871 ,Left ,63,8362496742637 ,47,4611661386007 ,57,8960199236479
32.4137701 ,Left ,63,7708647658384 ,47,6017091202358 ,57,9023779742797
32.4365632 ,Left ,63,7059783349963 ,47,7091072744745 ,57,9097018083246
32.4588859 ,Left ,63,6618417234936 ,47,7689346126803 ,57,9294660246239
32.4737425 ,Left ,63,5918444539182 ,47,774035315927 ,57,9753939818564
32.4963268 ,Left ,63,5309022217322 ,47,7022289808774 ,58,0637622247844
32.5190294 ,Left ,63,4519745399393 ,47,5993160733305 ,58,1266565244593
32.5338356 ,Left ,63,3883667312524 ,47,5568498944627 ,58,1167699972166
32.5641561 ,Left ,63,3330611381728 ,47,597565511453 ,58,0543896538424
32.5863098 ,Left ,63,3284999840763 ,47,7014423183287 ,58,0167146924038
32.6014372 ,Left ,63,407351777937 ,47,7718629287859 ,58,0370709340391
32.6160734 ,Left ,63,4629850382443 ,47,8307404392203 ,58,0787403737563
32.6386885 ,Left ,63,4955358523376 ,47,9299024490677 ,58,0947229315855
32.6612747 ,Left ,63,5151429722447 ,48,0378960392507 ,58,072115541687
32.6759698 ,Left ,63,5336594666302 ,48,1588541803422 ,58,0219102437859
32.6989934 ,Left ,63,5433827048476 ,48,2531491700688 ,57,9266689509269
32.7216876 ,Left ,63,541991187182 ,48,3088433312823 ,57,8069561433478
32.7365313 ,Left ,63,5536423689677 ,48,3269233878842 ,57,6718741221042
32.7590452 ,Left ,63,5670957884637 ,48,3329165233791 ,57,5339555699203
32.7812575 ,Left ,63,5563156221534 ,48,321067023999 ,57,3952467337972
32.7962263 ,Left ,63,546934075434 ,48,2993430348956 ,57,2637737218358
32.8186186 ,Left ,63,5190640886213 ,48,2651139787335 ,57,1127925652778
32.8412944 ,Left ,63,4688796668057 ,48,212534537674 ,56,9663575575568
32.8560808 ,Left ,63,4238674843213 ,48,1563399464126 ,56,8472129804302
32.8785264 ,Left ,63,3737700984745 ,48,1072876011735 ,56,7537465941123
32.9010134 ,Left ,63,274105431474 ,48,0535940598517 ,56,7006075436203
32.916038 ,Left ,63,2136105779268 ,47,9660321418594 ,56,6872510254847
32.9385035 ,Left ,63,1884245170917 ,47,900301542502 ,56,6976169799585
32.9610789 ,Left ,63,2041771023716 ,47,9147509061043 ,56,6955009406532
32.9763069 ,Left ,63,2816692803458 ,47,9159921581902 ,56,7136700958013
32.9987459 ,Left ,63,3933504421555 ,47,859985463762 ,56,7671767219049
33.021322 ,Left ,63,452831307306 ,47,8553513092066 ,56,8020699549007
33.0362665 ,Left ,63,5035560936525 ,47,8745844857124 ,56,827561344976
33.0588633 ,Left ,63,5587067948048 ,47,8688740531455 ,56,8620954011913
33.0813063 ,Left ,63,6455480296775 ,47,8096965959438 ,56,9002704160062
33.0961165 ,Left ,63,7424460500585 ,47,7443937795974 ,56,9229780039035
33.11877 ,Left ,63,7958987855126 ,47,6789102063353 ,56,917038936758
33.1412906 ,Left ,63,7715625503127 ,47,5841652749525 ,56,9050908688474
33.1561651 ,Left ,63,7916450652361 ,47,4912456121313 ,56,9014046141819
33.1787992 ,Left ,63,7627392288112 ,47,3923408090669 ,56,9142402759326
33.2013479 ,Left ,63,761261685155 ,47,4311968163308 ,56,9205615171047
33.2162468 ,Left ,63,7941459103563 ,47,5125036083389 ,56,9244667726209
33.2459781 ,Left ,63,8256825197 ,47,5670266396904 ,56,9851263945257
33.2685848 ,Left ,63,8633915347977 ,47,5525907376983 ,57,0774473681678
33.2834887 ,Left ,63,8892516243787 ,47,5218233081209 ,57,1820299473414
33.29843 ,Left ,63,9264689828463 ,47,540839011654 ,57,2541949933938
33.3210613 ,Left ,63,9518803762899 ,47,5362575499572 ,57,3217450805649
33.3362633 ,Left ,64,002221639119 ,47,5027866294861 ,57,4177533062056
33.358673 ,Left ,64,0321529665543 ,47,4799974651921 ,57,5112516963787
33.3814875 ,Left ,64,0142364672212 ,47,490704583095 ,57,5889612155447
33.4040246 ,Left ,63,997488113225 ,47,505008212615 ,57,6554381407069
33.4187139 ,Left ,64,0042322653647 ,47,5054045028369 ,57,7140532446592
33.4413295 ,Left ,64,025792430058 ,47,4671399588478 ,57,7849077580757
33.4562417 ,Left ,64,0458632829331 ,47,3967000964322 ,57,8859063332837
33.478728 ,Left ,64,0276281514126 ,47,3366382342091 ,57,9881652015846
33.5014812 ,Left ,64,0096230975604 ,47,3026026772825 ,58,0687054965885
33.5162073 ,Left ,63,9820049848112 ,47,2791559582773 ,58,1334861418815
33.5388479 ,Left ,63,959220582636 ,47,2707164404448 ,58,1782731168326
33.561404 ,Left ,63,9350019968232 ,47,2447460704757 ,58,2243205028271
33.575921 ,Left ,63,9305855063691 ,47,1882513906953 ,58,2663739994956
33.5986288 ,Left ,63,9639738773734 ,47,1368764800582 ,58,2735027683666
33.6210019 ,Left ,63,9669654464808 ,47,1135355692815 ,58,2474191713871
33.6361516 ,Left ,63,9640873271078 ,47,1070901152292 ,58,1994679975411
33.6584852 ,Left ,63,9544366943239 ,47,1104927795911 ,58,1534515662604
33.6812261 ,Left ,63,9517804560961 ,47,1182275182062 ,58,0936320403921
33.6962149 ,Left ,63,9377382301176 ,47,1019380607128 ,58,0409787516016
33.7185567 ,Left ,63,8989891926989 ,47,0646989692214 ,58,0048452429034
33.7410277 ,Left ,63,8626125632332 ,47,0441649685207 ,57,9791158550957
33.7643386 ,Left ,63,7858891428932 ,47,0138491815672 ,57,9613112592106
33.7826595 ,Left ,63,7468949595375 ,46,9445103457918 ,57,9615713144718
33.8009813 ,Left ,63,7316739278734 ,46,9025137836335 ,57,9853532430038
33.8235793 ,Left ,63,7078780002073 ,46,955724194863 ,58,0172214380958
33.8385256 ,Left ,63,7444152976277 ,47,0619432380855 ,58,0244800597382
33.8608826 ,Left ,63,7879004371652 ,47,1375069422096 ,58,0189979131372
33.8835186 ,Left ,63,8193948007636 ,47,1617347836252 ,58,0079661437776
33.8987188 ,Left ,63,8051536900917 ,47,1590279215186 ,57,9952683069469
33.9212441 ,Left ,63,7755553903595 ,47,1609102628207 ,57,9638955340985
33.9512959 ,Left ,63,7548256711818 ,47,1599218639288 ,57,8907658405606
33.9663215 ,Left ,63,7217495416815 ,47,1486807125262 ,57,8158556298981
33.9886815 ,Left ,63,6869963496049 ,47,1104517887877 ,57,7419875144468
34.0039723 ,Left ,63,6540554776862 ,47,0107544295818 ,57,6819068830541
34.0188444 ,Left ,63,6584729221445 ,46,8899718664624 ,57,6804622806723
34.0410985 ,Left ,63,6891782331089 ,46,8853600329626 ,57,6902305510625
34.0638985 ,Left ,63,7467205493647 ,46,9620263832337 ,57,6688609461958
34.0786756 ,Left ,63,7884908948393 ,46,998058833914 ,57,6926320623972
34.1011397 ,Left ,63,7754460307534 ,47,0543531474404 ,57,7103445530258
34.1236929 ,Left ,63,7213295973001 ,47,115380070701 ,57,7118129062963
34.1386764 ,Left ,63,6797131132562 ,47,1648871220964 ,57,6924340312352
34.1612828 ,Left ,63,6409880551305 ,47,1308851152095 ,57,6721429861665
34.1839227 ,Left ,63,6694263222184 ,47,0272412381534 ,57,7163647832057
34.1986651 ,Left ,63,6862044021319 ,46,964946386623 ,57,7496277688617
34.2287408 ,Left ,63,7168518612715 ,47,0375261762823 ,57,7442297189561
34.2512811 ,Left ,63,7265211779697 ,47,1261561195876 ,57,7632464974822
34.2662185 ,Left ,63,7022585517466 ,47,2504099686466 ,57,7887154132601
34.2813292 ,Left ,63,6223366549851 ,47,3748867757691 ,57,8186439798014
34.3038045 ,Left ,63,5392051113531 ,47,4789667979594 ,57,8526855988333
34.318802 ,Left ,63,4784973239426 ,47,5400092632784 ,57,899290092267
34.3411087 ,Left ,63,4298853628061 ,47,5515981290112 ,57,9472983732705
34.3638977 ,Left ,63,3537898044226 ,47,5322022896174 ,57,9937766448934
34.3788733 ,Left ,63,2557311146132 ,47,5087739271898 ,58,0111698936602
34.4013465 ,Left ,63,1195343292435 ,47,4762091733063 ,57,9973134078934
34.4239263 ,Left ,63,029720005434 ,47,4333081543428 ,57,9766092697869
34.4387163 ,Left ,63,03040001745 ,47,4200025020733 ,57,9662853328067
34.4611062 ,Left ,63,0404944140631 ,47,563577911004 ,57,9647841015355
34.4836335 ,Left ,63,1212553838724 ,47,7086551972406 ,58,0066477904996
34.4987741 ,Left ,63,2155533274152 ,47,7696561305734 ,58,0720045935645
34.5213036 ,Left ,63,2794027384058 ,47,8175404258705 ,58,1130596864858
34.543745 ,Left ,63,2954980950939 ,47,9003319257611 ,58,0982170767201
34.5662295 ,Left ,63,3367342484648 ,48,0102082498922 ,58,0525844462535
34.5811264 ,Left ,63,3806041587103 ,48,1294288505573 ,57,9847576405342
34.6043268 ,Left ,63,3936772437013 ,48,2312655953118 ,57,9169721315452
34.6266032 ,Left ,63,3883364348379 ,48,3033251882144 ,57,8441904964027
34.6416791 ,Left ,63,3852442927879 ,48,3320153564123 ,57,7591793056888
34.6643649 ,Left ,63,3769189647359 ,48,3555330158779 ,57,6366425297022
34.6861217 ,Left ,63,3729765503266 ,48,3595295435815 ,57,4771160230094
34.7012648 ,Left ,63,3700657245423 ,48,3370365694826 ,57,3086302146248
34.7235955 ,Left ,63,3548784936637 ,48,2941150665198 ,57,14393297449
34.7460644 ,Left ,63,335098723696 ,48,2318774449961 ,56,9864139881337
34.7538322 ,Left ,63,308216663847 ,48,1590417223644 ,56,8460762910212
34.7760304 ,Left ,63,2717147578156 ,48,0434501313619 ,56,757322413182
34.8137986 ,Left ,63,2846081278508 ,47,7553808330771 ,56,7892511982533
34.8360567 ,Left ,63,3169569298618 ,47,7722578678271 ,56,8063082388493
34.8738188 ,Left ,63,531738777298 ,47,6977917226504 ,56,8938824173474
34.8962136 ,Left ,63,6379676028607 ,47,6070993926736 ,56,9518661869517
34.9338976 ,Left ,63,8392953803406 ,47,545193580088 ,56,969284636679
34.9561788 ,Left ,63,8941528574848 ,47,5320665473999 ,56,9580645680415
34.9936166 ,Left ,63,9758862411854 ,47,4495484625615 ,56,9446174505332
35.0161616 ,Left ,63,9983860077373 ,47,4017776107335 ,56,9413536432227
35.031119 ,Left ,63,9662097760034 ,47,2989553689722 ,56,9450670324396
35.0611546 ,Left ,63,9780808566456 ,47,1543290020062 ,57,0017457662926
35.0839291 ,Left ,64,0011862177534 ,47,1038547896031 ,57,0530502302681
35.113958 ,Left ,64,0939780891482 ,47,3005700096073 ,57,0754663920061
35.1363443 ,Left ,64,1714679728842 ,47,3260835378074 ,57,1248107544383
35.1811216 ,Left ,64,2228535708738 ,47,3542796344126 ,57,2665790372152
35.2037618 ,Left ,64,2392727264814 ,47,3700506784324 ,57,3327960001081
35.2338492 ,Left ,64,2224555899181 ,47,3879881753905 ,57,4662654906957
35.2561802 ,Left ,64,1937250645211 ,47,3801963556084 ,57,5377501642784
35.2937458 ,Left ,64,1352492769114 ,47,3485304395609 ,57,6494468236918
35.316191 ,Left ,64,1031020719895 ,47,3149507574211 ,57,7091411807185
35.3613707 ,Left ,64,0484709554565 ,47,2682724446396 ,57,7737671770804
35.4137354 ,Left ,63,9889878030253 ,47,253481076695 ,57,8347922337997
35.4361744 ,Left ,63,9796950053618 ,47,2603051776539 ,57,8532064910171
35.4734541 ,Left ,63,9341405593087 ,47,3508221512776 ,57,865427472444
35.496005 ,Left ,63,9096790183255 ,47,4046030635342 ,57,8596877492754
35.5339087 ,Left ,63,8588005347784 ,47,4100430686444 ,57,838085291841
35.5562211 ,Left ,63,8383967692908 ,47,3906593461061 ,57,8306739142987
35.5939591 ,Left ,63,8126267121656 ,47,3939061417545 ,57,7666438115339
35.6161642 ,Left ,63,7728202133263 ,47,3518576659769 ,57,7260686333342
35.6539381 ,Left ,63,799552703323 ,47,236380787374 ,57,7045939004007
35.6763496 ,Left ,63,8074862603771 ,47,2291910453564 ,57,7239337976864
35.7136163 ,Left ,63,8896317626828 ,47,3417902560375 ,57,7928021997552
35.7366482 ,Left ,63,9089721764452 ,47,35591809231 ,57,8241348267165
35.7743228 ,Left ,63,9057654597991 ,47,3983803723397 ,57,8434960381562
35.7964103 ,Left ,63,9065559068303 ,47,4026366359572 ,57,8431164017182
35.833862 ,Left ,63,7850965015424 ,47,4205487249587 ,57,7862662394883
35.8561459 ,Left ,63,7478174480491 ,47,3771895131271 ,57,7348018658459
35.908806 ,Left ,63,6378235287444 ,47,0923378606652 ,57,6995900161458
35.9312413 ,Left ,63,6133196290953 ,47,0056909320584 ,57,7079808295295
35.9762799 ,Left ,63,7135428853671 ,47,096853947492 ,57,7457281422996
36.0138999 ,Left ,63,6665243648736 ,47,1257753346682 ,57,7685825930764
36.0362932 ,Left ,63,6560719367678 ,47,1449494514486 ,57,7341374935112
36.0737311 ,Left ,63,6360329102374 ,47,0165053387709 ,57,7133644264054
36.0963057 ,Left ,63,6854122112037 ,46,940728887584 ,57,7455271951636
36.1338926 ,Left ,63,7583683227727 ,47,0867504250174 ,57,7577001824531
36.1638938 ,Left ,63,7336535340672 ,47,2225956721954 ,57,7682373846712
36.2010947 ,Left ,63,620831819761 ,47,4672970460039 ,57,7724974165653
36.2236222 ,Left ,63,5709436926185 ,47,5444965927837 ,57,7823449698563
36.2614889 ,Left ,63,4727528580118 ,47,5489542055674 ,57,8696496688195
36.276651 ,Left ,63,439789833977 ,47,497565205677 ,57,9397761030239
36.3139633 ,Left ,63,3411349874699 ,47,4301687629877 ,57,967222870855
36.33633 ,Left ,63,2631522451052 ,47,4221385933984 ,57,9392204597518
36.3738134 ,Left ,63,270472676983 ,47,6158984847406 ,57,8778733229012
36.3962205 ,Left ,63,3524206283402 ,47,726779367521 ,57,8796577682525
36.4334629 ,Left ,63,4801418233484 ,47,858844023848 ,57,8809299843108
36.4561958 ,Left ,63,505441879645 ,47,9866013703505 ,57,7780352395438
36.4935452 ,Left ,63,4895433682336 ,48,2682717278342 ,57,509697431457
36.5159701 ,Left ,63,4663614582352 ,48,3603238536055 ,57,3744750229625
36.5537639 ,Left ,63,4997526064346 ,48,3864279550916 ,57,1104648619863
36.5762418 ,Left ,63,5015788723019 ,48,3535841880774 ,56,9686454221777
36.6135603 ,Left ,63,4645609069012 ,48,2272246726363 ,56,7001476617762
36.6286373 ,Left ,63,4461306269325 ,48,148844005271 ,56,5928164188465
36.6510133 ,Left ,63,39490930587 ,48,0675810869745 ,56,502580371247
36.665992 ,Left ,63,3553752227002 ,47,9412596059872 ,56,4441963163654
36.6885752 ,Left ,63,3762626791161 ,47,8093319540773 ,56,4617251716457
36.7112136 ,Left ,63,4367081678921 ,47,8368272194286 ,56,4797963937276
36.7263254 ,Left ,63,5211569908694 ,47,8608862589284 ,56,5297735000895
36.7488611 ,Left ,63,6117245993242 ,47,8038789475597 ,56,6144510693576
36.770975 ,Left ,63,7022195582705 ,47,7569251216851 ,56,686404099125
36.7860034 ,Left ,63,7843235289598 ,47,701300203212 ,56,7476451916627
36.8087661 ,Left ,63,9022761351868 ,47,6224429403072 ,56,8104551711772
36.83133 ,Left ,63,9849938725716 ,47,5310855014476 ,56,871096938441
36.8464361 ,Left ,64,0478138525169 ,47,4568277468453 ,56,9229194180693
36.8689747 ,Left ,64,0666111556554 ,47,4198875137149 ,56,9534739575146
36.8915013 ,Left ,64,0329503575438 ,47,3584585058222 ,56,966647215581
36.9063035 ,Left ,64,0120024733808 ,47,2692059797656 ,56,9721285357817
36.9289426 ,Left ,63,9908814541218 ,47,1514810426919 ,56,987398171956
36.9514927 ,Left ,63,9506725626543 ,47,185535701236 ,57,011109318468
36.9664064 ,Left ,63,9747259915512 ,47,3252044574612 ,57,0216588234523
36.9965051 ,Left ,64,0418138677762 ,47,415107987041 ,57,0709604439426
37.018991 ,Left ,64,0754268897072 ,47,4300755324196 ,57,1476614686308
37.0340832 ,Left ,64,1021779766206 ,47,4438344906996 ,57,2083617160002
37.0486688 ,Left ,64,0952645576255 ,47,4590038726898 ,57,2443440348703
37.0708021 ,Left ,64,1068883525225 ,47,4429116809618 ,57,2974542285701
37.0861406 ,Left ,64,1183003431625 ,47,4091102056014 ,57,3652736797158
37.108735 ,Left ,64,1111356895647 ,47,3614026986676 ,57,4569692332345
37.1309363 ,Left ,64,1055168475836 ,47,3178948659317 ,57,5622966214355
37.1459821 ,Left ,64,0929785321898 ,47,2931381709602 ,57,6785437877082
37.1687149 ,Left ,64,0732105971505 ,47,2790937456713 ,57,7859359879423
37.1911847 ,Left ,64,0610442193477 ,47,2588897505672 ,57,8754966785992
37.20633 ,Left ,64,0489951838161 ,47,2240635597295 ,57,9445890073849
37.2287893 ,Left ,64,0235254826468 ,47,2017105712394 ,58,0010734942889
37.2513827 ,Left ,64,0023842539246 ,47,212561356947 ,58,0368131742528
37.2662429 ,Left ,64,0051933634019 ,47,245207843277 ,58,0404684615839
37.2887708 ,Left ,64,0111882064639 ,47,2660732982656 ,58,0251650692353
37.3114113 ,Left ,63,9926328402857 ,47,2960617943831 ,58,0111921730353
37.3264319 ,Left ,63,9624243682369 ,47,3235541600111 ,58,0045233387415
37.3484839 ,Left ,63,928573477211 ,47,3322638092185 ,58,0029025656688
37.3709051 ,Left ,63,9095687419305 ,47,3272240808662 ,58,0022520743035
37.3866228 ,Left ,63,8987329422448 ,47,3108770148341 ,58,0008804853165
37.4086946 ,Left ,63,8789401990565 ,47,3015779276729 ,58,0006564445658
37.4309557 ,Left ,63,8633661943759 ,47,2937793306719 ,57,9854977184453
37.4459524 ,Left ,63,8337772637151 ,47,2568221766441 ,57,9520949097237
37.4687013 ,Left ,63,8227786795711 ,47,2008056073982 ,57,911169562517
37.4911088 ,Left ,63,7663094035812 ,47,1424878072625 ,57,8743751066358
37.5140421 ,Left ,63,767489428304 ,47,0970496488882 ,57,841205893182
