timestamp,event,roll,pitch,yaw
0.0900463 ,Left ,57,0089941981704 ,50,2340762877206 ,64,5334315231144
0.1064019 ,Left ,57,0026259923547 ,50,2363944177287 ,64,5264602911912
0.128869 ,Left ,56,9893652863951 ,50,2333845379131 ,64,5199403611704
0.1500327 ,Left ,56,980396861304 ,50,2344506842949 ,64,5146678634824
0.1663976 ,Left ,56,9712498846408 ,50,2358868408737 ,64,5070381905829
0.1888607 ,Left ,56,9678460498255 ,50,2386927477199 ,64,503096158114
0.2101964 ,Left ,56,9581167171932 ,50,2386161366403 ,64,4954381271038
0.2265411 ,Left ,56,9456095026368 ,50,2376601589112 ,64,4871227633676
0.2488308 ,Left ,56,9420263326225 ,50,2408312189801 ,64,4808246618982
0.27158 ,Left ,56,9435493763782 ,50,2398030160315 ,64,4804360690954
0.286605 ,Left ,56,9366675601521 ,50,231165794585 ,64,4757405763904
0.3091335 ,Left ,56,9366732831306 ,50,2245609414926 ,64,4654162244207
0.3315534 ,Left ,56,9312892291533 ,50,2167701011903 ,64,4519329490048
0.3466389 ,Left ,56,9169832624568 ,50,2114404113873 ,64,4467771732433
0.3691703 ,Left ,56,9043376385672 ,50,2098905579131 ,64,4403435142085
0.3917124 ,Left ,56,8982361260007 ,50,202379803079 ,64,4380643757981
0.4058623 ,Left ,56,8930824458785 ,50,1923318935679 ,64,4353772943966
0.4290864 ,Left ,56,8849969246973 ,50,1808421566888 ,64,433894213055
0.4515953 ,Left ,56,8770769861713 ,50,1699142578655 ,64,4305744595818
0.4658103 ,Left ,56,86561520881 ,50,1602734490415 ,64,4293880043956
0.4889239 ,Left ,56,8541571804109 ,50,1506317503489 ,64,4282141226858
0.5113418 ,Left ,56,8302223504987 ,50,1432971664285 ,64,4239686472885
0.5258242 ,Left ,56,8027748615697 ,50,1348456706098 ,64,4125374258887
0.5492545 ,Left ,56,7779083136226 ,50,1309480581334 ,64,4045487701886
0.5794867 ,Left ,56,7574781874353 ,50,1298708442512 ,64,4043037267785
0.5861309 ,Left ,56,7300105009253 ,50,1262236898811 ,64,4116228140724
0.6094316 ,Left ,56,7124926024978 ,50,1290068442031 ,64,4195188715879
0.6319807 ,Left ,56,6935503008138 ,50,1327002514385 ,64,4333694611509
0.6457873 ,Left ,56,6773504418685 ,50,1415367807508 ,64,4487682853705
0.6691249 ,Left ,56,6781670475409 ,50,157526769833 ,64,4655775942638
0.6912644 ,Left ,56,6747434327169 ,50,1694120444282 ,64,4812513643243
0.7056853 ,Left ,56,665999232263 ,50,180735309513 ,64,5116074353598
0.7291372 ,Left ,56,6658372356542 ,50,1969215071309 ,64,5391529736101
0.7519074 ,Left ,56,6571145884156 ,50,214324764139 ,64,5620226020129
0.7730052 ,Left ,56,6403148092355 ,50,2321333886002 ,64,5905183296174
0.7892173 ,Left ,56,6188066463537 ,50,2621558118679 ,64,6229038703469
0.8116458 ,Left ,56,6083748947361 ,50,2804592284017 ,64,6457009572762
0.8326598 ,Left ,56,5802951864199 ,50,2776144206441 ,64,6840163757522
0.84887 ,Left ,56,5587301089654 ,50,2587368207834 ,64,7530037997842
0.871445 ,Left ,56,5471044357506 ,50,217185405788 ,64,8342264162755
0.8926872 ,Left ,56,5340978189712 ,50,1800082508666 ,64,9269014698838
0.9091765 ,Left ,56,5059975880116 ,50,1504512640175 ,65,0308395452013
0.9315265 ,Left ,56,5057103767304 ,50,1387538451651 ,65,122124642829
0.9525888 ,Left ,56,538602204679 ,50,1144887099507 ,65,189777373217
0.9689201 ,Left ,56,545231527325 ,50,0532110658353 ,65,2537586700551
0.9916806 ,Left ,56,5333259185051 ,49,964750741381 ,65,3212403351762
1.0123754 ,Left ,56,5287288219629 ,49,9006097879016 ,65,3612719417021
1.028866 ,Left ,56,5157150018182 ,49,910604569898 ,65,3576389570725
1.051954 ,Left ,56,5488858410499 ,50,0306635357815 ,65,3946968003982
1.0731946 ,Left ,56,6477324207086 ,50,1719679390429 ,65,4498415364986
1.0969345 ,Left ,56,7604688897481 ,50,2437515817558 ,65,4562907183278
1.1116177 ,Left ,56,7238405022997 ,50,2333051995869 ,65,4784949667766
1.1325677 ,Left ,56,7404401975564 ,50,2326448772403 ,65,4512377312709
1.1485935 ,Left ,56,7452023632339 ,50,2245566721996 ,65,4141958666198
1.1713656 ,Left ,56,7750839037927 ,50,1928613905626 ,65,3725592994838
1.1940374 ,Left ,56,7753543690528 ,50,0874995490644 ,65,3294420680797
1.2165571 ,Left ,56,6618284976526 ,49,9640059406095 ,65,2922538790451
1.2318506 ,Left ,56,68331484489 ,49,9123748731648 ,65,3039697022472
1.2544191 ,Left ,56,7573197312934 ,49,8805130219175 ,65,3544113692299
1.2597528 ,Left ,56,7929996091181 ,49,8292868251559 ,65,3295035020539
1.2759167 ,Left ,56,8406905201634 ,49,8645212097022 ,65,3512170069226
1.2970135 ,Left ,56,7619385287764 ,49,9144639221204 ,65,4165326693053
1.3195957 ,Left ,56,7168825429829 ,49,9729958388417 ,65,4418681354846
1.3358755 ,Left ,56,833167095387 ,50,0163015057954 ,65,4148903874652
1.3570092 ,Left ,56,8710850638664 ,50,0097757085922 ,65,3840680867162
1.3795688 ,Left ,56,7734324419157 ,49,9782625610741 ,65,3414725304885
1.3959852 ,Left ,56,7107570051804 ,49,9075879724686 ,65,2700736632897
1.4169874 ,Left ,56,6796779885525 ,49,8307912126269 ,65,1408607541717
1.4394559 ,Left ,56,654000328747 ,49,7455422084168 ,64,9662499628025
1.4573648 ,Left ,56,6022814359874 ,49,6615516718425 ,64,7769730971891
1.4771779 ,Left ,56,5145622864173 ,49,5931585310728 ,64,6282223085558
1.4994779 ,Left ,56,4156816892441 ,49,5367691681249 ,64,5221729600403
1.5156373 ,Left ,56,3186585590185 ,49,4834477784192 ,64,4375678254067
1.5368692 ,Left ,56,2397283463738 ,49,4623201156242 ,64,4072198763574
1.5593606 ,Left ,56,1620782384922 ,49,4739642629555 ,64,4161485891339
1.5758715 ,Left ,56,1054529911082 ,49,5121674890202 ,64,4410492970354
1.596984 ,Left ,56,0757896712655 ,49,557502086832 ,64,4845337506149
1.619303 ,Left ,56,0655831037313 ,49,6169500940944 ,64,5435055381132
1.6343677 ,Left ,56,0641037254266 ,49,6796115488914 ,64,6078465355462
1.6569603 ,Left ,56,0588099597622 ,49,7259897567219 ,64,6893396917704
1.6794396 ,Left ,56,0276893205661 ,49,7620012583293 ,64,8107056600623
1.6958287 ,Left ,56,0786771636392 ,49,8206336617967 ,64,8773707749885
1.7167387 ,Left ,56,0901454516113 ,49,8635081466047 ,64,9578042305755
1.7393538 ,Left ,56,0495987537076 ,49,9345769217561 ,65,0628190808359
1.7558098 ,Left ,56,0809190736648 ,50,0270343990177 ,65,1240128795975
1.7768675 ,Left ,56,0399441005045 ,50,1367712373924 ,65,1941235648693
1.7994548 ,Left ,55,9501986503855 ,50,2708967150007 ,65,2865255851347
1.8156799 ,Left ,55,9368611020799 ,50,4085935841241 ,65,3408368261581
1.8370101 ,Left ,55,9565149416045 ,50,5031827368136 ,65,3904493809122
1.8597666 ,Left ,55,9441390869453 ,50,5777210824855 ,65,4621464897459
1.8760243 ,Left ,55,9110077842236 ,50,6379690184239 ,65,5346177604242
1.8970599 ,Left ,55,9021707824988 ,50,6864485372939 ,65,6169424303872
1.9197155 ,Left ,55,937027023721 ,50,7178895867973 ,65,6901483784997
1.9360933 ,Left ,55,9358715939574 ,50,7032461762864 ,65,7631979989444
1.9570791 ,Left ,55,9385497999106 ,50,67648084354 ,65,8300299705684
1.9796673 ,Left ,55,9600795295875 ,50,6488212843439 ,65,908219149626
1.9960888 ,Left ,55,9976245826373 ,50,6569751606433 ,65,9752080833659
2.0169425 ,Left ,56,0060417777577 ,50,6649683936524 ,66,0431395090102
2.039362 ,Left ,56,0503135636183 ,50,6682564085085 ,66,0402776093656
2.0555721 ,Left ,56,1278161608165 ,50,6682712440429 ,65,9937898148604
2.0768222 ,Left ,56,1964596985931 ,50,6625591313825 ,65,9562522596907
2.0994036 ,Left ,56,2054407099695 ,50,6454667386746 ,65,8885811478786
2.1159129 ,Left ,56,2223255799818 ,50,5773323595895 ,65,818134841352
2.1371199 ,Left ,56,2851270768831 ,50,4763464767564 ,65,769238245898
2.1595813 ,Left ,56,4080818606176 ,50,3962473910755 ,65,7134788562111
2.1773168 ,Left ,56,5337963996024 ,50,2880350688269 ,65,6359566472975
2.1969847 ,Left ,56,5678360769996 ,50,1917652786546 ,65,5228513183601
2.2193224 ,Left ,56,5312152009808 ,50,1015452033757 ,65,4235316206751
2.2374138 ,Left ,56,5294223912864 ,50,0393386083495 ,65,338604032874
2.2567218 ,Left ,56,5745560317073 ,49,9955416415169 ,65,2850850679268
2.2793547 ,Left ,56,5959356823814 ,49,9599541803005 ,65,2617952579917
2.2972407 ,Left ,56,6000795353949 ,49,9284256629556 ,65,2223820757875
2.3169475 ,Left ,56,5723308572849 ,49,9089639938091 ,65,1394467385921
2.3399333 ,Left ,56,5569957832232 ,49,8836299741078 ,65,0744872828596
2.3577887 ,Left ,56,527804288211 ,49,8713554285559 ,65,0244910266065
2.3778062 ,Left ,56,4942320968436 ,49,8879195855723 ,64,9843004533332
2.3992277 ,Left ,56,4792475470318 ,49,9194997134867 ,64,9645886007807
2.4173829 ,Left ,56,4964192800407 ,49,9485251870805 ,64,9658381892497
2.4367602 ,Left ,56,4938604855566 ,49,9713110563137 ,65,0013620511284
2.4593436 ,Left ,56,4498847804918 ,50,005460593901 ,65,0528251173459
2.47768 ,Left ,56,3690006344614 ,50,0501521685412 ,65,1247659335546
2.4971153 ,Left ,56,3281878725072 ,50,102348241374 ,65,1799558171378
2.5192492 ,Left ,56,3160268760219 ,50,1585554991872 ,65,2102977718396
2.5377114 ,Left ,56,3454716685824 ,50,2278405935031 ,65,2120976628457
2.5572955 ,Left ,56,3937023379406 ,50,2619313101241 ,65,2065476473047
2.5797883 ,Left ,56,4313131124455 ,50,2786329383602 ,65,2055491396421
2.5975464 ,Left ,56,4380653889686 ,50,2793115554782 ,65,1840087388695
2.6171053 ,Left ,56,4127685045323 ,50,2708890062055 ,65,1570159760572
2.6409608 ,Left ,56,3708338083697 ,50,2822884870946 ,65,1080334942415
2.6574737 ,Left ,56,3349340173253 ,50,3021828701441 ,65,0545789088072
2.6766618 ,Left ,56,3084600693093 ,50,3358653205397 ,65,0209603017934
2.6955 ,Left ,56,2652091630464 ,50,3735251493591 ,65,0190795258986
2.7177653 ,Left ,56,2128200826038 ,50,4239231153607 ,65,0345393963135
2.7386737 ,Left ,56,1626966198773 ,50,4817228239447 ,65,0542756017444
2.7550362 ,Left ,56,1223196045188 ,50,5415901620438 ,65,0925118935386
2.7775917 ,Left ,56,110111386461 ,50,5857075398497 ,65,1535081253386
2.7985816 ,Left ,56,1171822333733 ,50,6247804086364 ,65,2110175506784
2.814985 ,Left ,56,1419788582951 ,50,645001998818 ,65,2737397953174
2.8375482 ,Left ,56,2089610325529 ,50,6389825042178 ,65,3365520689963
2.8585269 ,Left ,56,2764270764039 ,50,6173534458454 ,65,3963296158962
2.8752223 ,Left ,56,2803056140929 ,50,6213573552855 ,65,410896046504
2.8977131 ,Left ,56,2393307950394 ,50,6216654229736 ,65,4035806736589
2.9187073 ,Left ,56,1957315170216 ,50,6072807123711 ,65,3642523286641
2.9350833 ,Left ,56,2241551536839 ,50,583186971201 ,65,3537525130025
2.9577235 ,Left ,56,2777537206878 ,50,5283036314154 ,65,3531519525687
2.9786659 ,Left ,56,3759327770211 ,50,4911740062945 ,65,2924679146965
2.9996622 ,Left ,56,4469536943384 ,50,4435042143046 ,65,1437029401918
3.0175317 ,Left ,56,4443976456416 ,50,3609572201785 ,65,0282842877141
3.0403502 ,Left ,56,3628844475375 ,50,3049203053868 ,65,0138387962274
3.0594857 ,Left ,56,3047749269368 ,50,3000784158073 ,65,0530103087596
3.0773113 ,Left ,56,3503475994754 ,50,3315139132241 ,65,0578992332787
3.0997189 ,Left ,56,4680345399242 ,50,3951033366253 ,65,0427061347671
3.1192699 ,Left ,56,5512606027656 ,50,4480321762313 ,65,0461602991173
3.1364759 ,Left ,56,5301667878595 ,50,4789004098377 ,65,0902983136452
3.1593874 ,Left ,56,480187211238 ,50,4762693654415 ,65,1303779183464
3.1801445 ,Left ,56,4869563684415 ,50,4886710266291 ,65,1516710927343
3.1966186 ,Left ,56,5191350893382 ,50,5103621062071 ,65,1403527044874
3.2191823 ,Left ,56,5498120353947 ,50,511383010165 ,65,1328283663116
3.2402619 ,Left ,56,6520249803042 ,50,478869921062 ,65,1029921198129
3.2566269 ,Left ,56,7590070263281 ,50,3857577509737 ,65,0396941375748
3.2791472 ,Left ,56,8311547030064 ,50,2815162937372 ,64,9896719581106
3.3004807 ,Left ,56,7941453740082 ,50,1720934036627 ,64,9210420284681
3.3169363 ,Left ,56,6636138128578 ,50,0894786743446 ,64,8439653535207
3.3392833 ,Left ,56,5871431115907 ,50,0683956596791 ,64,789125451088
3.3599417 ,Left ,56,6136069428207 ,50,0984066933285 ,64,7515885006207
3.3763965 ,Left ,56,6183308197012 ,50,1400245936424 ,64,765660646575
3.3991051 ,Left ,56,5972016896552 ,50,2116797263036 ,64,7917881471503
3.4134775 ,Left ,56,5923165466419 ,50,2758718661288 ,64,8161363194622
3.436632 ,Left ,56,5847042805301 ,50,3161783867129 ,64,8438037711605
3.4591403 ,Left ,56,5781341138341 ,50,3511293680649 ,64,8640458645233
3.4734585 ,Left ,56,5772331410248 ,50,3639703994997 ,64,8578064942467
3.4965001 ,Left ,56,5761063029593 ,50,3799735397673 ,64,8562532743925
3.5193895 ,Left ,56,5745882353892 ,50,3983826090158 ,64,8580015596255
3.5336662 ,Left ,56,5365626151004 ,50,4028012198868 ,64,8547054457851
3.5565764 ,Left ,56,5079563732004 ,50,4205518948102 ,64,8373043433772
3.5791916 ,Left ,56,5022849517863 ,50,4308841174722 ,64,820863844423
3.6002509 ,Left ,56,5067949270787 ,50,4397390461811 ,64,8211080396199
3.6166735 ,Left ,56,5236079077769 ,50,4582060476067 ,64,8093620949838
3.6390894 ,Left ,56,528738598902 ,50,4637965782291 ,64,7912866636328
3.6600964 ,Left ,56,5311127146851 ,50,4633956088508 ,64,7758830359018
3.6766625 ,Left ,56,5231037150376 ,50,4684760787931 ,64,7607734622734
3.6991325 ,Left ,56,5210957570101 ,50,471974045544 ,64,7479208857882
3.7201575 ,Left ,56,5235317535547 ,50,4706889084725 ,64,7367756667055
3.7366065 ,Left ,56,5463208245164 ,50,4734828072756 ,64,7113961537207
3.7590905 ,Left ,56,5487516057103 ,50,4702759522201 ,64,6889879407485
3.779962 ,Left ,56,5462988137617 ,50,4597693405388 ,64,6573477670904
3.796377 ,Left ,56,5403283475069 ,50,445290364639 ,64,6114526481064
3.8188152 ,Left ,56,5514002213476 ,50,4345276385488 ,64,5619914497709
3.8399614 ,Left ,56,5682062458283 ,50,3898950381513 ,64,53456144216
3.856504 ,Left ,56,5692256403936 ,50,326918916621 ,64,5254631605099
3.8791995 ,Left ,56,5846259557891 ,50,2531811190885 ,64,5135993124675
3.9004384 ,Left ,56,6037179764722 ,50,1821712840607 ,64,5225924177377
3.9167712 ,Left ,56,5918065803873 ,50,1300099428398 ,64,5677923935962
3.9392277 ,Left ,56,6170646071594 ,50,0835547022198 ,64,6249157822221
3.9602844 ,Left ,56,6527150771744 ,50,0139306228061 ,64,6602824594874
3.9766895 ,Left ,56,6660688852263 ,49,9356860066201 ,64,6937067740108
3.9991994 ,Left ,56,6912624188862 ,49,8734480712432 ,64,7413283203207
4.02887 ,Left ,56,7051002892325 ,49,8354298300257 ,64,7810728329902
4.0366423 ,Left ,56,6821015445271 ,49,8300378332169 ,64,7777033301254
4.0592338 ,Left ,56,641434560448 ,49,8449592542229 ,64,7412052130873
4.0816575 ,Left ,56,666361396047 ,49,8643532947987 ,64,7166838486455
4.0966643 ,Left ,56,6914458738423 ,49,8549487311241 ,64,6817523738884
4.1194088 ,Left ,56,7024380720651 ,49,8439599356236 ,64,625044909416
4.1415948 ,Left ,56,6625377270065 ,49,8286879632526 ,64,5909390701334
4.1567215 ,Left ,56,6218154335354 ,49,846101585985 ,64,5841571360023
4.1791842 ,Left ,56,5744657734054 ,49,885578407878 ,64,5809534182529
4.2016587 ,Left ,56,5600663639274 ,49,9335956665733 ,64,5763272509778
4.2159547 ,Left ,56,5684721500686 ,49,9884135794413 ,64,5684942872518
4.2392435 ,Left ,56,556650831792 ,50,0443755344236 ,64,5724130323002
4.2616242 ,Left ,56,5263551431541 ,50,1059875293972 ,64,604455318188
4.2759714 ,Left ,56,4985587523993 ,50,1669308634822 ,64,6427292148692
4.2989088 ,Left ,56,5110965533341 ,50,2291024112019 ,64,6771343774351
4.3216986 ,Left ,56,5115650836509 ,50,2702572410101 ,64,7149449312382
4.3361112 ,Left ,56,473827534657 ,50,2978164653276 ,64,7695672323741
4.3594484 ,Left ,56,4445784940885 ,50,2972816961419 ,64,8462318351435
4.381722 ,Left ,56,4017783752067 ,50,2934619429126 ,64,9379379947972
4.396036 ,Left ,56,3973743982074 ,50,3008500326395 ,65,0233405860595
4.4193885 ,Left ,56,3910693851027 ,50,2763953555802 ,65,1177369506558
4.4417027 ,Left ,56,3723911113872 ,50,2477075153147 ,65,2213175185316
4.4561211 ,Left ,56,3324688845319 ,50,2397897336009 ,65,3200082960662
4.4792171 ,Left ,56,3246965791357 ,50,2381133024466 ,65,4171982378152
4.5019224 ,Left ,56,3571784510622 ,50,2204275617778 ,65,4891102999541
4.5160725 ,Left ,56,3672485859657 ,50,1779622664438 ,65,5397095217275
4.5392587 ,Left ,56,335778670093 ,50,1462596463151 ,65,590100079388
4.5618784 ,Left ,56,3124357459157 ,50,1340522257279 ,65,6594834647402
4.5830852 ,Left ,56,3178190961711 ,50,1181462789748 ,65,7241760346121
4.5995717 ,Left ,56,3501284770031 ,50,0940508266862 ,65,767695360906
4.6216615 ,Left ,56,3673522220295 ,50,0698033322069 ,65,7762155795217
4.6430937 ,Left ,56,4055147270196 ,50,0624209725259 ,65,731312965218
4.6592444 ,Left ,56,4846761350693 ,50,1653988492313 ,65,7796443448981
4.6817422 ,Left ,56,6250772552421 ,50,2768947700139 ,65,8248090682091
4.7024685 ,Left ,56,6930002212777 ,50,3424915156444 ,65,8655875585821
4.7188634 ,Left ,56,6714821470415 ,50,4379660804665 ,65,9765681971624
4.7424184 ,Left ,56,6819784255092 ,50,5117661018038 ,66,0215559193604
4.7632082 ,Left ,56,6600126226882 ,50,5085089425045 ,66,0064362532991
4.778781 ,Left ,56,6241090794203 ,50,4737969453373 ,65,9826273606901
4.8017531 ,Left ,56,5791577055492 ,50,3996219188434 ,65,9677275690989
4.8229909 ,Left ,56,5473710458748 ,50,3030175847268 ,65,9386600035443
4.8392561 ,Left ,56,5451590689214 ,50,2229472684547 ,65,8916970510961
4.8618879 ,Left ,56,5112048160595 ,50,1579720583658 ,65,8469311354512
4.8830054 ,Left ,56,422097494169 ,50,1317745865846 ,65,824253424492
4.8992279 ,Left ,56,371418030298 ,50,1827958842373 ,65,8087862163828
4.9218158 ,Left ,56,3936294780577 ,50,2480723106264 ,65,7930387079392
4.944274 ,Left ,56,4654918656993 ,50,2866458001634 ,65,8033039912705
4.9593558 ,Left ,56,4977270803709 ,50,2528769237928 ,65,8494915171532
4.9822007 ,Left ,56,5118400264803 ,50,1905014839806 ,65,8741856821318
5.0042972 ,Left ,56,4922446381849 ,50,1259894876814 ,65,8536010062145
5.0193939 ,Left ,56,4640619347261 ,50,0889077042684 ,65,8023631078746
5.0417364 ,Left ,56,4351881531385 ,50,0422657571217 ,65,7306779038791
5.0642756 ,Left ,56,4293005703465 ,50,0127617825898 ,65,658572901338
5.0792099 ,Left ,56,4273573179457 ,50,0094062142741 ,65,6575778990353
5.101697 ,Left ,56,4481531009071 ,50,0034505498383 ,65,7107421428702
5.1242401 ,Left ,56,4792744635513 ,49,9480143431646 ,65,7542358729246
5.1453809 ,Left ,56,5113170246204 ,49,8575664841018 ,65,7709393220616
5.1617344 ,Left ,56,530243512107 ,49,7507581139282 ,65,7691357412411
5.1842452 ,Left ,56,5020139575677 ,49,6904813855531 ,65,7655296158338
5.2057124 ,Left ,56,4407616312677 ,49,7566778455022 ,65,767803074643
5.2217767 ,Left ,56,4307245787856 ,49,9001381873153 ,65,710025663518
5.2442865 ,Left ,56,5213577311681 ,50,0326448874041 ,65,6617461121347
5.2653005 ,Left ,56,5596048549546 ,50,1329492774173 ,65,6643785519278
5.2816892 ,Left ,56,6046988030809 ,50,2043587035843 ,65,6628542710966
5.3044131 ,Left ,56,6114864685433 ,50,1995566703901 ,65,6469050504976
5.3253059 ,Left ,56,5968173348208 ,50,1421363433701 ,65,6123913964803
5.3416925 ,Left ,56,607478939857 ,50,0323470146527 ,65,5496953796687
5.3643096 ,Left ,56,5785433245151 ,49,9081528954805 ,65,4554071020686
5.3854693 ,Left ,56,5365617987067 ,49,8364767069613 ,65,3063613583018
5.4017703 ,Left ,56,510001418807 ,49,82671231018 ,65,1628011875203
5.4240771 ,Left ,56,5057997790273 ,49,8266834936119 ,65,0774989621931
5.4456762 ,Left ,56,5009951855716 ,49,854785321545 ,65,0630041136722
5.4618745 ,Left ,56,4294087269762 ,49,899262696228 ,65,1003780115933
5.484276 ,Left ,56,3380679318015 ,49,917510039122 ,65,1636607483578
5.5053299 ,Left ,56,2380890203507 ,49,9173778210114 ,65,2563965783777
5.5218216 ,Left ,56,1868950982103 ,49,973827083487 ,65,3427211110617
5.5443737 ,Left ,56,1695906014289 ,50,0658798510181 ,65,3995073595266
5.5654438 ,Left ,56,1335284704555 ,50,149156435246 ,65,4476962756966
5.5816449 ,Left ,56,1463637634511 ,50,2334113398004 ,65,4857127385136
5.6040902 ,Left ,56,1470850419665 ,50,2736227861563 ,65,5209209898172
5.6254292 ,Left ,56,1357800083524 ,50,3134340348938 ,65,590225831657
5.6417091 ,Left ,56,1351412819012 ,50,3597677983714 ,65,6803221353947
5.6640805 ,Left ,56,153553687092 ,50,4040181196089 ,65,7494776360867
5.6929265 ,Left ,56,1708540345948 ,50,4227281210798 ,65,7911520612135
5.7015969 ,Left ,56,1273174409091 ,50,4293783172574 ,65,8100164787993
5.7240333 ,Left ,56,1415179426941 ,50,4692270139182 ,65,8222101842021
5.7452939 ,Left ,56,2627962471519 ,50,5016386531345 ,65,8053613931887
5.7610306 ,Left ,56,3264483869391 ,50,4854745192164 ,65,7358359244738
5.7841334 ,Left ,56,3407509904165 ,50,399359419345 ,65,6632910037364
5.8051299 ,Left ,56,3531961870866 ,50,3228168656163 ,65,5475051510398
5.8211138 ,Left ,56,3575885670458 ,50,2227343970819 ,65,4425946430723
5.8446684 ,Left ,56,3625745750461 ,50,0970644647376 ,65,3386104359224
5.865731 ,Left ,56,4341803486823 ,49,9801974271949 ,65,2380703360289
5.8814332 ,Left ,56,5034359366875 ,49,8741090551094 ,65,1226111520657
5.9042132 ,Left ,56,5504175692964 ,49,8051757331567 ,65,0086252552918
5.9266015 ,Left ,56,5575214593093 ,49,7322925860409 ,64,9363705895487
5.9410785 ,Left ,56,5151733966904 ,49,669791693891 ,64,892950856758
5.9640519 ,Left ,56,4764003653479 ,49,6423544866682 ,64,8637843041427
5.986555 ,Left ,56,4935520590696 ,49,6515438261374 ,64,8315809481933
6.0008751 ,Left ,56,48403406283 ,49,6710982476237 ,64,8147277959781
6.0240519 ,Left ,56,4518490408977 ,49,6976730295718 ,64,8280152342258
6.0465812 ,Left ,56,3785451898119 ,49,7228904496744 ,64,8837733906474
6.0608592 ,Left ,56,3126959210622 ,49,7674048129488 ,64,9375026678642
6.0841802 ,Left ,56,2598757327921 ,49,8038348516756 ,64,9578620864563
6.1067051 ,Left ,56,1781046760146 ,49,8390430229357 ,64,9875889135429
6.1210405 ,Left ,56,1307526216258 ,49,8866028438835 ,65,0281934151133
6.1441046 ,Left ,56,0919228372068 ,49,9258021788278 ,65,087373773206
6.1666446 ,Left ,56,00257370738 ,49,9944288898401 ,65,1320439943285
6.1877898 ,Left ,55,9252636087394 ,50,0879263237771 ,65,1668135734016
6.2042321 ,Left ,55,9062526714488 ,50,181100202732 ,65,1846935550695
6.226703 ,Left ,55,9212015149141 ,50,2188747316995 ,65,2266017930492
6.2479108 ,Left ,55,8956439255221 ,50,21896687682 ,65,3000327554207
6.264219 ,Left ,55,8788107359772 ,50,192864355272 ,65,3555867488336
6.2866904 ,Left ,55,7953740481908 ,50,1586849946179 ,65,4138937047524
6.3010613 ,Left ,55,7307889106211 ,50,1633585771921 ,65,3904099372864
6.3241743 ,Left ,55,7011428016768 ,50,1741355849631 ,65,3048285656337
6.3466148 ,Left ,55,6835290574076 ,50,176780783823 ,65,2034360817741
6.3692362 ,Left ,55,6820945034426 ,50,1704848958655 ,65,1312401241808
6.3841922 ,Left ,55,7087936138053 ,50,163675438793 ,65,054891367637
6.4066497 ,Left ,55,73653382945 ,50,1405193272398 ,64,982648643313
6.4280235 ,Left ,55,7146526350002 ,50,1157754516155 ,64,9335145071931
6.4442306 ,Left ,55,6801424325893 ,50,1008182953101 ,64,8814226662307
6.4666261 ,Left ,55,7357462843614 ,50,1366719825465 ,64,8577857389673
6.4879634 ,Left ,55,7285609950726 ,50,1059922726891 ,64,8756581603907
6.5041216 ,Left ,55,7856801203841 ,50,0376060357314 ,64,886117626398
6.5266793 ,Left ,56,009256564377 ,49,9667890120407 ,64,8411335529702
6.5478457 ,Left ,56,0926190016379 ,49,9369922907127 ,64,7105684574571
6.5642803 ,Left ,56,1579675325035 ,49,9167588267316 ,64,5251208266697
6.5866705 ,Left ,56,2422124831297 ,49,8241084997027 ,64,3514294781005
6.6077465 ,Left ,56,2728354765224 ,49,6969441070961 ,64,1685616291786
6.6241095 ,Left ,56,2964751940485 ,49,5954865318994 ,63,9467232825248
6.6466688 ,Left ,56,2878007132955 ,49,4929174668301 ,63,7445341687402
6.6679344 ,Left ,56,3060894933054 ,49,3951075535925 ,63,6201783803772
6.6834547 ,Left ,56,3436225182953 ,49,3063248292426 ,63,5467522308209
6.7067343 ,Left ,56,3470259449929 ,49,2743761659725 ,63,5171884191178
6.727961 ,Left ,56,3028337412251 ,49,2948635925418 ,63,5352784893318
6.7435457 ,Left ,56,2526555727231 ,49,3351507643075 ,63,5874759068399
6.7666489 ,Left ,56,2669472410621 ,49,3972994158217 ,63,6661310071634
6.7879385 ,Left ,56,2733529577443 ,49,4549522933023 ,63,782256862116
6.8035405 ,Left ,56,2359371911782 ,49,5036981573154 ,63,9154766972122
6.8267555 ,Left ,56,1734229033228 ,49,5704958238993 ,64,0329885082574
6.8491918 ,Left ,56,140480217704 ,49,6337329380194 ,64,1237848173945
6.8635312 ,Left ,56,1490048838271 ,49,6794270015118 ,64,2034494685805
6.8866625 ,Left ,56,1758295957552 ,49,7274878759225 ,64,3024301497492
6.9092132 ,Left ,56,1902467353901 ,49,7449123510914 ,64,3691680166203
6.9239428 ,Left ,56,1399267203406 ,49,7611902009759 ,64,4095894218125
6.946651 ,Left ,56,0892921059884 ,49,7978943752537 ,64,4826615416182
6.9690436 ,Left ,56,1322800231507 ,49,8693205338912 ,64,5484623759495
6.9833454 ,Left ,56,1971101118211 ,49,9546977617791 ,64,5800084386622
7.0062408 ,Left ,56,2500950485528 ,50,0325388769571 ,64,5921483888738
7.0288117 ,Left ,56,3065823635317 ,50,0755949423119 ,64,6130267832297
7.0343603 ,Left ,56,3170538918214 ,50,0860974421969 ,64,5565280435924
7.0521454 ,Left ,56,2506703983066 ,50,0737144852199 ,64,5275269801122
7.079289 ,Left ,56,2180540793345 ,50,0639490021932 ,64,5356970435607
7.0942666 ,Left ,56,2913968359618 ,50,0612355226216 ,64,5112886643065
7.1107171 ,Left ,56,35356639559 ,50,0311006212672 ,64,4869871214245
7.131672 ,Left ,56,4235679493338 ,49,9774057035491 ,64,4326055320604
7.1542518 ,Left ,56,4582877447471 ,49,9061597744763 ,64,3750668925333
7.1692707 ,Left ,56,3825752910139 ,49,8649501278585 ,64,3460334475299
7.1918047 ,Left ,56,2888568402725 ,49,8587868359354 ,64,3406355564078
7.2143343 ,Left ,56,2592026145844 ,49,8948694647259 ,64,3540691832545
7.229398 ,Left ,56,2778862018614 ,49,9402786321145 ,64,3668185883554
7.2520382 ,Left ,56,2843068644932 ,49,9884151209774 ,64,3968801127134
7.2746185 ,Left ,56,2917537390349 ,50,0373998251131 ,64,4317424405235
7.28958 ,Left ,56,2558272672231 ,50,0619577967997 ,64,4834645430806
7.3123786 ,Left ,56,26099973778 ,50,0811355259944 ,64,551715138736
7.3348831 ,Left ,56,2534124200738 ,50,0746498518157 ,64,5942345585636
7.3512029 ,Left ,56,214401683808 ,50,0564543576377 ,64,6262516100879
7.3723417 ,Left ,56,2145888631916 ,50,0493760608084 ,64,6626190052089
7.3948412 ,Left ,56,2792127740902 ,50,0384994175172 ,64,6778479893009
7.4101397 ,Left ,56,3538675694625 ,50,0126437957807 ,64,6670784519185
7.4328973 ,Left ,56,3772309048577 ,49,9360462545818 ,64,6606372702873
7.4551753 ,Left ,56,3497859248493 ,49,8652188390449 ,64,6722603852249
7.471351 ,Left ,56,3585865751026 ,49,8116836197549 ,64,6954585208549
7.4926368 ,Left ,56,4251344883677 ,49,7362273708074 ,64,7176304866683
7.5145766 ,Left ,56,5172426099592 ,49,6563590617524 ,64,6791044156947
7.530963 ,Left ,56,4590047079755 ,49,6001752459523 ,64,6115723926419
7.5521882 ,Left ,56,3506897583429 ,49,5699094708002 ,64,5807131749235
7.5748156 ,Left ,56,3505171995392 ,49,5498891247981 ,64,539038502187
7.5913242 ,Left ,56,3799423432916 ,49,5299912057497 ,64,4800069897244
7.6122058 ,Left ,56,3699286517824 ,49,5241936581113 ,64,4470941847043
7.6374462 ,Left ,56,3279929547123 ,49,541671052912 ,64,4514352079267
7.6509617 ,Left ,56,2977213101249 ,49,5892698511234 ,64,4734480213758
7.6721527 ,Left ,56,2718403602722 ,49,6531259378142 ,64,5035617208049
7.6947896 ,Left ,56,2763181933842 ,49,7221820656602 ,64,521898575329
7.7111404 ,Left ,56,2999150752511 ,49,7651041192297 ,64,5483281794491
7.7321896 ,Left ,56,2777569490464 ,49,8178022709404 ,64,6029561037708
7.7546052 ,Left ,56,2656407856329 ,49,8840567537057 ,64,6436026880339
7.7710136 ,Left ,56,2474713513447 ,49,9111372381274 ,64,6845461118405
7.7921808 ,Left ,56,233292213084 ,49,9223205215046 ,64,7765444614547
7.8148275 ,Left ,56,2154347776529 ,49,9331626098252 ,64,9012094836733
7.8326403 ,Left ,56,1770565427634 ,49,9169519956496 ,65,047532842857
7.8521998 ,Left ,56,1409209240413 ,49,8851192554829 ,65,2112064841792
7.8747057 ,Left ,56,1874244717785 ,49,8628782281271 ,65,3476911612102
7.8924533 ,Left ,56,2513610627696 ,49,8275390964109 ,65,4568645212352
7.9149741 ,Left ,56,2786194586744 ,49,7839892346186 ,65,5339696319694
7.9346946 ,Left ,56,2123700931995 ,49,7561617263349 ,65,5579825129395
7.9526159 ,Left ,56,2601993514195 ,49,8286304487799 ,65,6061154481736
7.9720403 ,Left ,56,2961229136535 ,49,9769854567679 ,65,6437185592329
7.9947918 ,Left ,56,3093371899112 ,50,1499988624245 ,65,6556672421494
8.0126995 ,Left ,56,3237069094496 ,50,2581224971093 ,65,7061515609774
8.0321088 ,Left ,56,3594467341781 ,50,2544156904205 ,65,7408927026189
8.0549019 ,Left ,56,3419224584321 ,50,2004118158972 ,65,7437034596184
8.0723997 ,Left ,56,2506380832035 ,50,1293780107979 ,65,7343220024295
8.0920786 ,Left ,56,2048541020855 ,50,065390231398 ,65,7530395177472
8.1147092 ,Left ,56,2306275826906 ,49,9883936580515 ,65,7738899536414
8.1326774 ,Left ,56,2387199097501 ,49,9022487089513 ,65,8006482509474
8.1521037 ,Left ,56,2526858950494 ,49,8393616627708 ,65,7627891030828
8.1747407 ,Left ,56,285681889042 ,49,7841193284912 ,65,7148500592448
8.1924721 ,Left ,56,2433036202475 ,49,7610025868018 ,65,7082431756629
8.2122652 ,Left ,56,156256012824 ,49,7840378567605 ,65,7041090154246
8.2345102 ,Left ,56,1136541291059 ,49,8752334624006 ,65,6881628778312
8.2526147 ,Left ,56,1149499300128 ,49,9599063925421 ,65,6528400835507
8.2722686 ,Left ,56,2371567490547 ,49,9912490570879 ,65,6515039578065
8.2944831 ,Left ,56,2723167693254 ,49,9178163345078 ,65,6764644835293
8.3129195 ,Left ,56,3087234179396 ,49,8509906099957 ,65,6560019616183
8.3320011 ,Left ,56,3310091388473 ,49,7907594336041 ,65,6170064895323
8.3548111 ,Left ,56,2973876241326 ,49,7932068898746 ,65,6050993776695
8.3723507 ,Left ,56,2188746161722 ,49,8428646807834 ,65,6114186577829
8.3920602 ,Left ,56,2969714226026 ,49,8803368075549 ,65,586405751261
8.4145078 ,Left ,56,3235333524233 ,49,8803012326481 ,65,6047851534651
8.4324254 ,Left ,56,2549397148584 ,49,8974913170101 ,65,6348616395047
8.4531867 ,Left ,56,1986312143026 ,49,9427458173862 ,65,6603690683515
8.4743448 ,Left ,56,2237131942173 ,49,982463723405 ,65,6752709104802
8.4920895 ,Left ,56,2706590178782 ,49,969544097603 ,65,7161221162535
8.5132023 ,Left ,56,2763227637861 ,49,9103993052442 ,65,8377252055261
8.5341437 ,Left ,56,244959526462 ,49,8072755790052 ,65,9883640306756
8.5521797 ,Left ,56,2466908301802 ,49,7218038573951 ,66,0460587837942
8.5730625 ,Left ,56,2456387846485 ,49,6466687797387 ,66,0860420226974
8.594164 ,Left ,56,1672372854843 ,49,599180640808 ,66,109857738175
8.612214 ,Left ,56,1125601788702 ,49,5828894115301 ,66,1061217737268
8.6331396 ,Left ,56,0984876980048 ,49,5536085468661 ,66,1020925048959
8.6542109 ,Left ,56,0988726561661 ,49,5188043853197 ,66,0703916682764
8.6722255 ,Left ,56,1025000458343 ,49,5036380081767 ,66,0024426820148
8.6931313 ,Left ,56,1313958150986 ,49,4881153758236 ,65,9429624665315
8.7142593 ,Left ,56,1557955021755 ,49,4654777861808 ,65,9230928718382
8.732162 ,Left ,56,1682002782294 ,49,4605622328962 ,65,9143566208508
8.753167 ,Left ,56,1310867054608 ,49,456140682568 ,65,8806998120873
8.7743085 ,Left ,56,1032782167544 ,49,4555831508815 ,65,8490971492248
8.7922184 ,Left ,56,1829739550418 ,49,5166856984347 ,65,8654004204583
8.8146762 ,Left ,56,2297069617441 ,49,6192579631019 ,65,8667633011695
8.8341396 ,Left ,56,2949955854364 ,49,7194718661093 ,65,8631600219233
8.852022 ,Left ,56,3103907847656 ,49,7830383748631 ,65,8749369289899
8.874608 ,Left ,56,2621637797153 ,49,8253150024378 ,65,8850470691546
8.8950846 ,Left ,56,2195038275446 ,49,8741988227256 ,65,869943988527
8.9112644 ,Left ,56,1761420688752 ,49,8819085063414 ,65,8913841822745
8.9337824 ,Left ,56,1775053278231 ,49,864325427564 ,65,9536017089074
8.9549285 ,Left ,56,1920940514795 ,49,8426267983541 ,66,0121483721888
8.9712194 ,Left ,56,1658586431138 ,49,8274463616618 ,66,0584339550722
8.9938461 ,Left ,56,1338498113473 ,49,8389236070969 ,66,0803510964676
9.0225491 ,Left ,56,1077539413236 ,49,8318926424441 ,66,0626541907668
9.0312426 ,Left ,56,1502570696597 ,49,8348455566464 ,66,04256236048
9.0538444 ,Left ,56,1811861641478 ,49,835106090186 ,66,0343794457524
9.0681358 ,Left ,56,2456532400445 ,49,8108259912748 ,65,999952430511
9.0913551 ,Left ,56,342912800831 ,49,7726522739981 ,65,8943732450392
9.1138069 ,Left ,56,3150640957526 ,49,703064854036 ,65,7467444144638
9.1348995 ,Left ,56,3276402693056 ,49,6443535303142 ,65,5517745358709
9.1513106 ,Left ,56,4306608540602 ,49,5363817226876 ,65,3898875866161
9.1738677 ,Left ,56,4215386466497 ,49,3741317319596 ,65,2006883731282
9.1948972 ,Left ,56,4040996688564 ,49,2160095068695 ,64,9941117953835
9.2113239 ,Left ,56,4364467542788 ,49,067415987964 ,64,756615976452
9.2338431 ,Left ,56,4454327685595 ,48,9491277521897 ,64,5415566285863
9.2549367 ,Left ,56,4135367085391 ,48,874384795352 ,64,3722000194141
9.2713421 ,Left ,56,4044975842001 ,48,8290776230179 ,64,2194354140563
9.2936058 ,Left ,56,3836779221802 ,48,7848137983642 ,64,1085282503474
9.3149584 ,Left ,56,3990970414917 ,48,768312375149 ,64,0117922342432
9.331313 ,Left ,56,3612148044148 ,48,7942520400075 ,63,9857937168377
9.3538658 ,Left ,56,2597722966135 ,48,8828067063727 ,64,0311869361227
9.3749477 ,Left ,56,1692312940957 ,49,0008421656177 ,64,0914709795787
9.3912822 ,Left ,56,158238654529 ,49,1128111990061 ,64,0936973278762
9.4199286 ,Left ,56,1831681075282 ,49,2195338001771 ,64,0796780244187
9.4348604 ,Left ,56,2156998858799 ,49,3238048356366 ,64,0622394081254
9.4513444 ,Left ,56,2224506147866 ,49,3933778836513 ,64,06907596038
9.4738525 ,Left ,56,2369363579548 ,49,4020682875945 ,64,0895337555029
9.4948195 ,Left ,56,1705766340849 ,49,3948667814971 ,64,1292394984663
9.5113551 ,Left ,56,2436028173128 ,49,4299486558549 ,64,1500243005996
9.5338858 ,Left ,56,2958863616333 ,49,4290798574384 ,64,1494485279184
9.5549373 ,Left ,56,2250359771496 ,49,4696443984102 ,64,149613061818
9.5773805 ,Left ,56,1032933016615 ,49,5674292962974 ,64,1060497419695
9.5939015 ,Left ,56,1125701599276 ,49,6225815081547 ,64,0602745568874
9.6148968 ,Left ,56,1844885158596 ,49,6157866081271 ,64,042471625729
9.6306957 ,Left ,56,2477708015657 ,49,6191229808008 ,64,0724944826273
9.6538392 ,Left ,56,2723845713858 ,49,6090931728828 ,64,1078957406207
9.6749354 ,Left ,56,2235704110531 ,49,5661206405879 ,64,163579604761
9.6988297 ,Left ,56,1730777700176 ,49,5325886339134 ,64,1991887288967
9.7138663 ,Left ,56,1222384321695 ,49,5158808822696 ,64,2404727268987
9.7362918 ,Left ,56,0983548764729 ,49,5589255912542 ,64,2905287455733
9.7513532 ,Left ,56,0921460905942 ,49,599466627015 ,64,3547073545981
9.7738816 ,Left ,56,0781949537794 ,49,6358949773604 ,64,4264376705523
9.7962817 ,Left ,56,0396111850808 ,49,6970746869745 ,64,5033348240706
9.8113221 ,Left ,55,9801145250717 ,49,7814837684871 ,64,5606034540302
9.8339179 ,Left ,55,9339919596036 ,49,8763225312608 ,64,6094190405306
9.8568711 ,Left ,55,9058357366414 ,49,9678871806753 ,64,6523693115055
9.8706262 ,Left ,55,884481046509 ,50,045349551701 ,64,7201566131627
9.8938838 ,Left ,55,8840084731264 ,50,1293649666033 ,64,8287729191618
9.9163034 ,Left ,55,9045085824642 ,50,2047833724621 ,64,9403264513207
9.9374571 ,Left ,55,9056384244224 ,50,2416954083257 ,65,0493060419872
9.9538405 ,Left ,55,8986944196704 ,50,237560422294 ,65,1522847057323
9.9763786 ,Left ,55,931359781908 ,50,2424296199791 ,65,227801229572
9.9974477 ,Left ,55,9493703464814 ,50,2696958040791 ,65,2841411622963
10.0140932 ,Left ,55,9773895024989 ,50,3057337930338 ,65,2873196947234
10.0366034 ,Left ,55,9539785192644 ,50,3438658177529 ,65,2786542169982
10.050928 ,Left ,55,9485561299755 ,50,3925209481214 ,65,2610443969008
10.0739579 ,Left ,55,9493019424639 ,50,3877880786793 ,65,2492704392511
10.0971233 ,Left ,56,0084766804245 ,50,3160132912523 ,65,2169318851304
10.1180388 ,Left ,56,1207205528551 ,50,2053721694021 ,65,0960424566382
10.1341557 ,Left ,56,1503364201296 ,50,0650845304411 ,64,9601388662675
10.1564826 ,Left ,56,0515368010469 ,49,9214273686708 ,64,8274525286319
10.1775307 ,Left ,55,9019557153995 ,49,8279145416396 ,64,6925414231126
10.1940341 ,Left ,55,884747449874 ,49,7898927781701 ,64,5318695390702
10.216382 ,Left ,55,9999542530822 ,49,7160383261833 ,64,3934559448688
10.2377856 ,Left ,56,1029995362912 ,49,6058320701923 ,64,2866396102565
10.2544043 ,Left ,56,1534042349415 ,49,5230927456983 ,64,1739108722673
10.2766403 ,Left ,56,1180174666015 ,49,4429123231849 ,64,1230326267934
10.297908 ,Left ,56,0203182876981 ,49,3733665379484 ,64,1361216027746
10.3144222 ,Left ,55,9091729275659 ,49,3120052841759 ,64,1526961038594
10.336775 ,Left ,55,9143355865252 ,49,3195485849505 ,64,1453952615161
10.358018 ,Left ,55,9568403903728 ,49,3529804850405 ,64,1500024959328
10.3741853 ,Left ,55,9283628728345 ,49,3771383797869 ,64,2071168557211
10.3966765 ,Left ,55,8513651000618 ,49,3983657358674 ,64,3108888275711
10.4179905 ,Left ,55,7979009396734 ,49,4353047452327 ,64,3906295378511
10.4335395 ,Left ,55,772398874934 ,49,4798049762049 ,64,4404969635582
10.4566337 ,Left ,55,7453090800469 ,49,5291733602853 ,64,4934479106948
10.4774021 ,Left ,55,706825459838 ,49,5895854966477 ,64,5541971275355
10.4937855 ,Left ,55,6993857462767 ,49,641128062179 ,64,6154618833485
10.5162294 ,Left ,55,7336608048857 ,49,7017454245589 ,64,6706401304214
10.5374898 ,Left ,55,767578751262 ,49,7667886070066 ,64,6915434487016
10.5540773 ,Left ,55,7839076067548 ,49,8569215033323 ,64,7202123510408
10.57659 ,Left ,55,799710361647 ,49,9511801990695 ,64,7655434266368
10.5977708 ,Left ,55,8183238678293 ,50,012561145725 ,64,8493013043099
10.6134727 ,Left ,55,8886666086645 ,50,0899455299213 ,64,921419029097
10.6366576 ,Left ,55,9873752222481 ,50,1704519288263 ,64,9465019227689
10.6592179 ,Left ,56,0109472755829 ,50,2486467804908 ,64,939833930498
10.6735302 ,Left ,56,0244618602069 ,50,3027118309794 ,64,9339679479707
10.6966277 ,Left ,56,0553509407767 ,50,2938634034321 ,64,9114740642092
10.7193059 ,Left ,56,0701238563624 ,50,2825587727163 ,64,8131776754047
10.7342574 ,Left ,56,0808549264377 ,50,2749600891106 ,64,7200460359899
10.7568257 ,Left ,56,1294503441168 ,50,215754846911 ,64,7286844802112
10.779245 ,Left ,56,2461287970659 ,50,1462998465211 ,64,6958745901416
10.8079437 ,Left ,56,296602726539 ,50,0896879707772 ,64,621216538856
10.8167344 ,Left ,56,2100014968677 ,50,0517345037614 ,64,5829730751643
10.8395615 ,Left ,56,1480943733792 ,50,0448644403236 ,64,571181918684
10.8602271 ,Left ,56,1691835909846 ,50,067269735488 ,64,6062516849501
10.8768274 ,Left ,56,1786107423942 ,50,1314542919448 ,64,6263629181372
10.8993042 ,Left ,56,1537475062453 ,50,2094158423079 ,64,6306945944692
10.9136187 ,Left ,56,1115102454 ,50,241804395615 ,64,6638213039699
10.9368335 ,Left ,56,1096342577751 ,50,243924846988 ,64,6791876128969
10.9593158 ,Left ,56,1069961211786 ,50,2443932918058 ,64,6724790647135
10.9736021 ,Left ,56,0920532333475 ,50,2272829748979 ,64,6961458853025
10.996496 ,Left ,56,082728814245 ,50,2026984524538 ,64,7457233624445
11.0188212 ,Left ,56,1138472464843 ,50,1784061379655 ,64,7575454466672
11.0332777 ,Left ,56,1351330701997 ,50,1363291561125 ,64,7603702333006
11.0566621 ,Left ,56,1366154990484 ,50,1088875798819 ,64,7591526355412
11.0789059 ,Left ,56,1409366558156 ,50,0792745130247 ,64,7294053904563
11.0934694 ,Left ,56,1169874289525 ,50,0399497698637 ,64,7082045779729
11.116718 ,Left ,56,1604368796613 ,50,0455850518862 ,64,6938278357051
11.1391693 ,Left ,56,2452784116205 ,50,0474366813377 ,64,6714634896916
11.1603047 ,Left ,56,2757877165513 ,49,999809323891 ,64,6808628750585
11.1766395 ,Left ,56,2891597364249 ,49,9292877457679 ,64,7234513472414
11.1990006 ,Left ,56,3069355595482 ,49,8624908139267 ,64,7473860559969
11.2200336 ,Left ,56,3589941353786 ,49,7965475566287 ,64,7565837226939
11.2366672 ,Left ,56,4228169151037 ,49,7342731446329 ,64,7746115576277
11.2591201 ,Left ,56,4343746836823 ,49,6623676840255 ,64,8060437600514
11.2800743 ,Left ,56,4292297643402 ,49,6207293632996 ,64,7837827548641
11.2966535 ,Left ,56,3988397674989 ,49,6062214865523 ,64,7473214858769
11.3191285 ,Left ,56,3418717439466 ,49,5905422776233 ,64,7454363113558
11.3400783 ,Left ,56,282936032796 ,49,5635803075104 ,64,7308415799505
11.3563859 ,Left ,56,2810548640738 ,49,5686970240704 ,64,731558286425
11.3790992 ,Left ,56,297091151557 ,49,6175993869326 ,64,7362194913015
11.4002608 ,Left ,56,2679223211018 ,49,6747020519886 ,64,7642052149209
11.4167148 ,Left ,56,2458513326044 ,49,7217374426319 ,64,7739230844847
11.4391771 ,Left ,56,2368240299903 ,49,7691022237065 ,64,7576140999854
11.4602693 ,Left ,56,223564450783 ,49,8222647092154 ,64,7580377425996
11.4765995 ,Left ,56,1940420076672 ,49,8773926262318 ,64,7879956873732
11.4990145 ,Left ,56,1842188052777 ,49,9398735610913 ,64,8213586188126
11.5199752 ,Left ,56,1791443445421 ,49,9921590375976 ,64,8623504647179
11.5364556 ,Left ,56,1669844255865 ,50,0194792057994 ,64,9132000123633
11.559203 ,Left ,56,1371040173663 ,50,0175401897265 ,64,9788253776995
11.5799807 ,Left ,56,0934415516473 ,49,9921659152193 ,65,0736338944361
11.5957613 ,Left ,56,0348607156542 ,49,9535204979232 ,65,2230325234706
11.6191393 ,Left ,56,0133053246399 ,49,9266515741276 ,65,3741000203179
11.6419068 ,Left ,56,0651494383647 ,49,9051582329897 ,65,4935128081491
11.6556689 ,Left ,56,0711069126706 ,49,8496336428176 ,65,624887190681
11.6795737 ,Left ,56,0728116345267 ,49,8107755913539 ,65,7391511525879
11.7013712 ,Left ,56,0711037481933 ,49,8152449304271 ,65,7892160673062
11.7225918 ,Left ,56,0690186931675 ,49,8771617447508 ,65,8596729127066
11.7390886 ,Left ,56,0901864189219 ,49,9750477441826 ,65,8985187393034
11.7617048 ,Left ,56,1094349076139 ,50,1142720592991 ,65,9162283461656
11.782883 ,Left ,56,1234465196314 ,50,2645928391825 ,65,9297660375809
11.7991273 ,Left ,56,1238004021165 ,50,3250587228871 ,65,9193034791419
11.8215946 ,Left ,56,1180556599294 ,50,3039642597623 ,65,8918164480568
11.8429925 ,Left ,56,0651922970652 ,50,243334488225 ,65,876170698586
11.8591642 ,Left ,55,9983862022432 ,50,1707821921838 ,65,8543500164354
11.8816402 ,Left ,55,9842359596066 ,50,0973040001363 ,65,8210667091215
11.8960072 ,Left ,56,011470393425 ,50,0189690756878 ,65,7998155205265
11.9196157 ,Left ,56,0184216183341 ,49,9085507368687 ,65,8152736098478
11.9416776 ,Left ,56,0270841709485 ,49,8173522315315 ,65,8327897399103
11.9565005 ,Left ,56,0592646208924 ,49,774119016034 ,65,8028892806608
11.9789386 ,Left ,55,9965036290866 ,49,7710192641388 ,65,7987584476412
12.0015736 ,Left ,56,0228009762293 ,49,8245180988374 ,65,77287662468
12.0224249 ,Left ,56,1472138423592 ,49,834529999123 ,65,7693288793679
12.0390258 ,Left ,56,1540572737232 ,49,776845433925 ,65,7675496260457
12.061625 ,Left ,56,1300847598729 ,49,7073511771424 ,65,765808962265
12.0832782 ,Left ,56,1547733786976 ,49,7022383280708 ,65,7469107849831
12.0996662 ,Left ,56,1529606111006 ,49,7347292655066 ,65,7573310020966
12.1221373 ,Left ,56,1338179637244 ,49,780366879349 ,65,7257037662958
12.1430625 ,Left ,56,2485424492601 ,49,7826540223776 ,65,6884764080127
12.1591255 ,Left ,56,2716177046407 ,49,7908387702569 ,65,6740981063821
12.1816619 ,Left ,56,1483944088556 ,49,8593068281801 ,65,6276766719974
12.2025149 ,Left ,56,1161865364637 ,49,9127906197583 ,65,5811015871613
12.2182427 ,Left ,56,1569286345898 ,49,9143619421298 ,65,5541650499664
12.2415433 ,Left ,56,1674619690706 ,49,8788340043872 ,65,5123374047393
12.2627254 ,Left ,56,115317010406 ,49,8371099556928 ,65,4791695879883
12.2791959 ,Left ,56,0574068120114 ,49,8161234275312 ,65,411336593569
12.3014853 ,Left ,56,0413613253546 ,49,8095187945954 ,65,3502555895444
12.3227274 ,Left ,56,056651580262 ,49,8221687722771 ,65,3474277432604
12.339143 ,Left ,56,0151083029279 ,49,8315296497824 ,65,3764317218828
12.3615345 ,Left ,55,9216872274134 ,49,8513945100053 ,65,4361558987248
12.3827338 ,Left ,55,8572089583577 ,49,8925609042356 ,65,4936606899656
12.3984465 ,Left ,55,7766524090272 ,49,9251095473792 ,65,5477527211826
12.4215665 ,Left ,55,866175019085 ,49,9748226796902 ,65,5297356115765
12.4425751 ,Left ,55,9373765295829 ,49,9593372082953 ,65,5181602922179
12.4590597 ,Left ,55,919288091675 ,49,9728260325086 ,65,5569907868043
12.4814038 ,Left ,55,9131766214537 ,50,0003588220808 ,65,5952864500108
12.5027769 ,Left ,55,9093970191348 ,49,9941959993538 ,65,6136595597767
12.5191682 ,Left ,55,9192595067684 ,49,9922701467615 ,65,6323622000179
12.5416131 ,Left ,55,9187095589919 ,50,0328714936331 ,65,6333734237312
12.5642111 ,Left ,56,0006210547964 ,50,0920527250986 ,65,6214944009407
12.5791555 ,Left ,56,0670070285606 ,50,1248272522569 ,65,6169684653296
12.6016015 ,Left ,56,1320993546782 ,50,1083126922592 ,65,5941344405347
12.630146 ,Left ,56,2142791631409 ,50,0550546346263 ,65,5383392352006
12.639168 ,Left ,56,2644954406885 ,50,0210544194107 ,65,4630426212917
12.6616331 ,Left ,56,2748254797271 ,49,9396724485314 ,65,393986038553
12.6841482 ,Left ,56,2949434611373 ,49,8273223200317 ,65,3335065542347
12.6984557 ,Left ,56,3505469632831 ,49,73682841493 ,65,2629564833395
12.7218973 ,Left ,56,397493031111 ,49,6802664782546 ,65,1488706374902
12.7517262 ,Left ,56,3901795202232 ,49,6345668920004 ,65,0343366763121
12.7656135 ,Left ,56,3750037247609 ,49,5944018881431 ,64,9448643243491
12.7816183 ,Left ,56,3590631474491 ,49,5655782925653 ,64,8552778515014
12.8043059 ,Left ,56,3514224664456 ,49,5574483494708 ,64,7641505817789
12.8095584 ,Left ,56,3424244182351 ,49,537843716833 ,64,6688479894902
12.8276347 ,Left ,56,3047889764833 ,49,5001123308571 ,64,600777056754
12.8472073 ,Left ,56,2749315957113 ,49,5052373559422 ,64,5838340464835
12.8699027 ,Left ,56,2333550076162 ,49,5561772755357 ,64,6077984591322
12.8860006 ,Left ,56,1658330167712 ,49,6068506253699 ,64,6649070752542
12.9071609 ,Left ,56,1064787703265 ,49,6672548431382 ,64,708717755289
12.9297623 ,Left ,56,0448895169602 ,49,7297414544255 ,64,7618444534792
12.9522143 ,Left ,55,9610453693763 ,49,7995630432194 ,64,8225292574219
12.9672829 ,Left ,55,8983170081769 ,49,886851511749 ,64,9154189932777
12.9897578 ,Left ,55,8816487667099 ,49,9428038032195 ,65,075065786212
13.0075484 ,Left ,55,8994468937765 ,49,9472712003528 ,65,2621387077125
13.0286316 ,Left ,55,858497708005 ,49,9600471470552 ,65,3923678636678
13.0495446 ,Left ,55,7994118595763 ,49,9966880697988 ,65,4826727180987
13.0723385 ,Left ,55,7408890618519 ,50,017196901378 ,65,5276678190772
13.0873905 ,Left ,55,7832387696364 ,50,0123153299944 ,65,5531634220423
13.1097983 ,Left ,55,8381362784868 ,49,9733545428523 ,65,5471968707277
13.1277782 ,Left ,55,8296485175241 ,49,8897395907448 ,65,5261282231632
13.1473214 ,Left ,55,8068741465763 ,49,7800859373264 ,65,5445276230411
13.1698451 ,Left ,55,8225587551407 ,49,6969243007004 ,65,5374879643653
13.1876394 ,Left ,55,8523375231948 ,49,6340168928798 ,65,5154913243238
13.2072533 ,Left ,55,8235192326487 ,49,5692040195143 ,65,5261550092948
13.2297706 ,Left ,55,7983168408831 ,49,5106781381329 ,65,5156266074018
13.2475867 ,Left ,55,7771051758659 ,49,4892593112922 ,65,4765276923569
13.2685658 ,Left ,55,7525352191779 ,49,5085164718678 ,65,4334507242269
13.2896956 ,Left ,55,7189364547444 ,49,5294506022073 ,65,3805913314888
13.3075615 ,Left ,55,6787262390903 ,49,5377446610401 ,65,3542291137673
13.3272469 ,Left ,55,6367992368187 ,49,5422672812215 ,65,3295360811664
13.3496559 ,Left ,55,5829463888692 ,49,5810255262458 ,65,2961517289934
13.3661122 ,Left ,55,503007155843 ,49,6649204443228 ,65,2838392105794
13.3874051 ,Left ,55,412888755389 ,49,7645389068172 ,65,2890984951576
13.4098623 ,Left ,55,3647781422272 ,49,8560590383322 ,65,2890679192248
13.4261509 ,Left ,55,3841404504742 ,49,9069044676446 ,65,2837847751095
13.4472608 ,Left ,55,4198864827809 ,49,9420543748033 ,65,3060299275376
13.4698662 ,Left ,55,4801270067491 ,49,9374160977514 ,65,3333335784226
13.4875629 ,Left ,55,5287076390708 ,49,9036329151768 ,65,3536767763679
13.5073008 ,Left ,55,496718471609 ,49,8387764421829 ,65,3754531865223
13.5299012 ,Left ,55,4684983085618 ,49,7831419045298 ,65,3592259491164
13.5475168 ,Left ,55,4640836397743 ,49,7789969157433 ,65,3067299198361
13.5673509 ,Left ,55,5354879610512 ,49,8338553627712 ,65,3132357748079
13.5897365 ,Left ,55,6750642420053 ,49,9018042639279 ,65,2839064308321
13.6077412 ,Left ,55,7661059763503 ,49,900707143707 ,65,2142232690068
13.6273985 ,Left ,55,8291379859977 ,49,853069282867 ,65,1511237455363
13.6498681 ,Left ,55,8257947756629 ,49,7696610297745 ,65,1201975805635
13.6675502 ,Left ,55,7713798417059 ,49,6972076388552 ,65,1250343796037
13.6874032 ,Left ,55,7268902174241 ,49,6901797803639 ,65,1420736724959
13.7098518 ,Left ,55,733497044446 ,49,7365777032008 ,65,1486175386843
13.7277097 ,Left ,55,8161991200101 ,49,7679002916079 ,65,1214850104101
13.7473508 ,Left ,55,889398539441 ,49,7527614053857 ,65,107249196697
13.7698803 ,Left ,55,9191487717185 ,49,7293959819765 ,65,1503604379395
13.787803 ,Left ,55,8707021692574 ,49,7722280711594 ,65,1602374972477
13.8072545 ,Left ,55,888592612662 ,49,8541998692478 ,65,1370331721233
13.8297564 ,Left ,56,0289184722233 ,49,8840655288341 ,65,1160239666528
13.8477194 ,Left ,56,1948094428781 ,49,85081332561 ,65,0984603311873
13.8673788 ,Left ,56,2413849869782 ,49,7838037589175 ,65,0587809200639
13.8896256 ,Left ,56,2378836763518 ,49,7399564948751 ,64,9987133740635
13.9076049 ,Left ,56,2492599417584 ,49,6951905869483 ,64,9596363568914
13.927275 ,Left ,56,2793890693391 ,49,6612511229452 ,64,9649608700056
13.9498891 ,Left ,56,3462790213782 ,49,6396163783835 ,64,915659379056
13.9677426 ,Left ,56,3834989370006 ,49,6031968907055 ,64,8408226282619
13.9872852 ,Left ,56,3512074813662 ,49,6010056837081 ,64,7907271765977
14.0098252 ,Left ,56,2989639220741 ,49,6528632214042 ,64,7852047351017
14.027496 ,Left ,56,2514889211944 ,49,7500670652204 ,64,8039325638764
14.0471436 ,Left ,56,2532761788482 ,49,8502836068704 ,64,8305529990236
14.069766 ,Left ,56,3023313922521 ,49,9154199250711 ,64,8597017456777
14.0876772 ,Left ,56,357087320295 ,49,935345798755 ,64,8643439506701
14.1086635 ,Left ,56,3031415757548 ,49,9387625800896 ,64,8620288184294
14.129876 ,Left ,56,2490718756791 ,49,944228546925 ,64,8710484171525
14.1475261 ,Left ,56,2116588481377 ,49,9454304776797 ,64,8917398546788
14.1684366 ,Left ,56,1992830414446 ,49,9419157542484 ,64,8965530232437
14.1897754 ,Left ,56,2224571837126 ,49,9295107963214 ,64,8788697098848
14.2076269 ,Left ,56,2505432163691 ,49,9159190339077 ,64,8519225858447
14.2286734 ,Left ,56,2560256938395 ,49,8928887844706 ,64,8437482437947
14.2496723 ,Left ,56,2451573214268 ,49,8423008068723 ,64,8347011682897
14.2676119 ,Left ,56,2116139679456 ,49,790212496777 ,64,8259885426616
14.2943363 ,Left ,56,2428022515788 ,49,7502206448178 ,64,7809840078608
14.3092705 ,Left ,56,2362943535526 ,49,6963269063771 ,64,7592774965868
14.3274749 ,Left ,56,2194480477679 ,49,6765566674555 ,64,7560436030578
14.3484959 ,Left ,56,2337268587537 ,49,6801216632429 ,64,7469507677158
14.3696684 ,Left ,56,201478761441 ,49,6696083302354 ,64,7684305219357
14.3875789 ,Left ,56,1872189669138 ,49,6631998257678 ,64,7927611932164
14.4084898 ,Left ,56,2197512545268 ,49,6454826897823 ,64,8098707197909
14.4296243 ,Left ,56,2284238286066 ,49,6030615492261 ,64,8223516132179
14.4474553 ,Left ,56,227332245574 ,49,5591217973367 ,64,8336958359776
14.4699823 ,Left ,56,2258282778843 ,49,5255304094761 ,64,8296319174318
14.4896205 ,Left ,56,2416528093355 ,49,4811986739691 ,64,8334707728045
14.5076985 ,Left ,56,2788830100011 ,49,418059187213 ,64,8333176640792
14.5301106 ,Left ,56,3432339627069 ,49,3407338189798 ,64,8149189550605
14.549638 ,Left ,56,3379965823412 ,49,2777371071111 ,64,7802508414079
14.572172 ,Left ,56,2457679690198 ,49,2382071114663 ,64,7592499651989
14.5899526 ,Left ,56,1640641245445 ,49,211863055582 ,64,7326007579231
14.6097693 ,Left ,56,1748569009963 ,49,2030428380433 ,64,6963863574459
14.6276248 ,Left ,56,2000985398145 ,49,2038310755151 ,64,7047170390366
14.6560683 ,Left ,56,2109844791526 ,49,2572193558782 ,64,7314502949545
14.6697081 ,Left ,56,1807115668177 ,49,33552153047 ,64,7569195498569
14.6952066 ,Left ,56,1684883929948 ,49,4027431258308 ,64,7704799582406
14.7094175 ,Left ,56,1652613548168 ,49,465527261801 ,64,784011166952
14.7302193 ,Left ,56,1273919099502 ,49,5194541427258 ,64,8311579962162
14.7466219 ,Left ,56,1133414872236 ,49,5780998564856 ,64,8943445633432
14.7691658 ,Left ,56,1200311870817 ,49,6329214005529 ,64,9588369149254
14.7901033 ,Left ,56,1026140160256 ,49,6690699809309 ,65,0329486751557
14.8063391 ,Left ,56,066253325473 ,49,6854055557639 ,65,1325679404869
14.8291136 ,Left ,56,0350459272246 ,49,6760261508633 ,65,2617269072647
14.8501883 ,Left ,56,0229321720995 ,49,6479456033833 ,65,4141497955293
14.8666206 ,Left ,56,0503721458593 ,49,6074762051007 ,65,557139900044
14.8890592 ,Left ,56,0599391533497 ,49,566961800971 ,65,6785000471671
14.9101832 ,Left ,56,0614556222177 ,49,5591385234869 ,65,7919398961987
14.9266323 ,Left ,56,093530373062 ,49,5533430610852 ,65,8568748539053
14.9491232 ,Left ,56,1348878154205 ,49,5385208546359 ,65,8764340690187
14.9701304 ,Left ,56,1241085076586 ,49,546720704441 ,65,9083424157723
14.9867042 ,Left ,56,1160737707594 ,49,6548870248825 ,65,9641379546609
15.0092195 ,Left ,56,0897359512553 ,49,813416070311 ,65,9867721962398
15.0303741 ,Left ,56,1027780906917 ,49,9458794229268 ,65,9775506481644
15.0460418 ,Left ,56,152064980067 ,49,9916242432174 ,65,9508749724241
15.0691906 ,Left ,56,1979889786524 ,49,9678061905956 ,65,9106317583924
15.0903087 ,Left ,56,1400035601009 ,49,9124837309495 ,65,8823593040468
15.1066963 ,Left ,56,0588867081178 ,49,8435085996457 ,65,8745327939762
15.1295365 ,Left ,56,0661126546893 ,49,7658468643393 ,65,8493983813722
15.1502463 ,Left ,56,0921769128561 ,49,6683155321934 ,65,826635362487
15.1669333 ,Left ,56,0833711164686 ,49,6072167924191 ,65,7963350560145
15.1891208 ,Left ,56,0020832285061 ,49,6384110617559 ,65,8061218542302
15.2101607 ,Left ,55,9824486488852 ,49,7280369801223 ,65,8024540707398
15.2260217 ,Left ,56,0768992044867 ,49,8282490744049 ,65,7991153924431
15.2493741 ,Left ,56,1636163540606 ,49,885581491029 ,65,793953426249
15.2702971 ,Left ,56,1755555928785 ,49,862077311138 ,65,8134828233793
15.2860035 ,Left ,56,1734511071923 ,49,7771005238403 ,65,8257522604398
15.309183 ,Left ,56,1814146813554 ,49,6610850737788 ,65,8338147936976
15.3304224 ,Left ,56,1925040967581 ,49,6228642815329 ,65,8364658718596
15.3466202 ,Left ,56,1586608681122 ,49,6405244565394 ,65,8300182730421
15.3691163 ,Left ,56,2361464387779 ,49,6808535658689 ,65,7999587336469
15.3916855 ,Left ,56,2531160276457 ,49,7423410916789 ,65,7729174959458
15.4070906 ,Left ,56,2037479649692 ,49,8303564749247 ,65,7719117325527
15.429182 ,Left ,56,2557040294772 ,49,878834953052 ,65,7821113257017
15.4516406 ,Left ,56,2814561086634 ,49,8519223310421 ,65,7794770672884
15.4665795 ,Left ,56,2594611761911 ,49,8325035988599 ,65,7777341105457
15.4891725 ,Left ,56,2039067173255 ,49,8085425764789 ,65,7788638719451
15.5115813 ,Left ,56,2199068080561 ,49,818246855183 ,65,7752588590954
15.5272938 ,Left ,56,1807852188457 ,49,8108961953966 ,65,8060432633157
15.5491331 ,Left ,56,0969203203317 ,49,8199956625128 ,65,8421591418621
15.5716775 ,Left ,56,0781426030755 ,49,8642259356033 ,65,8870658100441
15.5861288 ,Left ,56,1365876103961 ,49,8879931067894 ,65,8684444244361
15.6094137 ,Left ,56,1091774499771 ,49,8667769125523 ,65,8681548819568
15.6316006 ,Left ,56,0540363342255 ,49,9073602956552 ,65,8615553053364
15.6461154 ,Left ,56,0753549523919 ,49,9898011990626 ,65,8301697399719
15.6693187 ,Left ,56,1649788307472 ,50,0126525706791 ,65,7739721047023
15.6917626 ,Left ,56,2195732518595 ,49,9541572734284 ,65,6941646675999
15.7061775 ,Left ,56,2828224918927 ,49,882575535242 ,65,6122603879845
15.7292277 ,Left ,56,2999304115035 ,49,7885911335882 ,65,5211562636153
15.751684 ,Left ,56,2595204697209 ,49,6899512340061 ,65,4084806572004
15.7730031 ,Left ,56,2450001811176 ,49,6308229277127 ,65,29698178157
15.7893399 ,Left ,56,2821275737759 ,49,5918519477697 ,65,1881990560905
15.8116952 ,Left ,56,3212268228104 ,49,5258255667628 ,65,107190440588
15.832934 ,Left ,56,355523527947 ,49,439730056029 ,65,0311359261633
15.8492456 ,Left ,56,3475396081577 ,49,339401261059 ,64,9575284189882
15.8718578 ,Left ,56,3427052875581 ,49,2411398495928 ,64,8469201467554
15.8930239 ,Left ,56,3425567720433 ,49,168581659123 ,64,7024611250152
15.9093272 ,Left ,56,3159920312143 ,49,1160635365582 ,64,5436283822658
15.9317761 ,Left ,56,2775220681238 ,49,0884146845467 ,64,4345280172353
15.9530526 ,Left ,56,2294262129743 ,49,092939003808 ,64,3789148155604
15.9692996 ,Left ,56,2322468133826 ,49,1217120768544 ,64,3178284881777
15.9917158 ,Left ,56,2158078456114 ,49,1563308349132 ,64,2857965860202
16.0129454 ,Left ,56,1651476912684 ,49,2116517246361 ,64,2859861729472
16.0288384 ,Left ,56,0953479757146 ,49,2807338419503 ,64,2959662433361
16.0516094 ,Left ,56,0192983179988 ,49,3545612691567 ,64,3083576405471
16.0725594 ,Left ,55,9689140822296 ,49,4187544096329 ,64,3406832062663
16.0889971 ,Left ,55,9600312698737 ,49,4689842541807 ,64,3977146765492
16.1117966 ,Left ,55,9191044344992 ,49,5199191867896 ,64,4630597669624
16.1330113 ,Left ,55,8646711889564 ,49,5691747196024 ,64,5297491906897
16.1493382 ,Left ,55,827228059379 ,49,6002821199481 ,64,5896078298697
16.1717558 ,Left ,55,7982942178332 ,49,6239642973095 ,64,6335945268278
16.1930843 ,Left ,55,7521182438459 ,49,6560897044888 ,64,6881436232023
16.2092916 ,Left ,55,7153588545183 ,49,6947176043507 ,64,7587476398259
16.2317665 ,Left ,55,7100866648749 ,49,7148906473134 ,64,8166679159195
16.2530501 ,Left ,55,7100019501087 ,49,7372054311681 ,64,8653033928956
16.2689408 ,Left ,55,6911376864952 ,49,7684778358595 ,64,9022552519163
16.2916661 ,Left ,55,6298587953589 ,49,7883224083192 ,64,9758737894029
16.3127055 ,Left ,55,5679204461743 ,49,8034124387374 ,65,0689124411313
16.3285114 ,Left ,55,6169781845795 ,49,8236033193702 ,65,1092820758608
16.3516643 ,Left ,55,6656662880491 ,49,828231997938 ,65,1301139963811
16.3742511 ,Left ,55,6238437526886 ,49,8042169443378 ,65,1489156023338
16.3891431 ,Left ,55,5569098885917 ,49,7459882434611 ,65,1843941654125
16.4116724 ,Left ,55,5557991197042 ,49,6826785160527 ,65,2177049456351
16.4340569 ,Left ,55,5835816239584 ,49,6354238554711 ,65,2029595513598
16.4491524 ,Left ,55,6388613674283 ,49,6352053743656 ,65,1451609593445
16.4716611 ,Left ,55,599893966456 ,49,6559525943687 ,65,0811558598724
16.4941627 ,Left ,55,6376933812725 ,49,6735273927002 ,65,0252770381784
16.5085636 ,Left ,55,733377255467 ,49,64608237711 ,64,9817806146241
16.5316681 ,Left ,55,702808394827 ,49,6068863287421 ,64,8481835756652
16.5541633 ,Left ,55,6969609584823 ,49,5781608278543 ,64,6744439197312
16.5751809 ,Left ,55,7114989603307 ,49,4821635940782 ,64,4939441200337
16.5917241 ,Left ,55,7029025883132 ,49,3563274199717 ,64,2997020116018
16.6142407 ,Left ,55,686386810525 ,49,1994845252127 ,64,1447606798798
16.6354526 ,Left ,55,6124263791629 ,49,0532262093537 ,64,0568441652368
16.651683 ,Left ,55,5059016343497 ,48,9897474522472 ,64,0063423236575
16.6746759 ,Left ,55,4716385479742 ,48,9596928692974 ,63,951616091534
16.6955001 ,Left ,55,4943453506392 ,48,9431429643434 ,63,9020697663514
16.7119847 ,Left ,55,5305878032592 ,48,9305778682677 ,63,9128090615965
16.7341556 ,Left ,55,4983669032163 ,48,9301771129168 ,63,9724468437655
16.7484825 ,Left ,55,4242685047381 ,48,9674819201973 ,64,0289456598444
16.7719007 ,Left ,55,392021661185 ,49,0282684861275 ,64,0789023625194
16.7946542 ,Left ,55,4190365641933 ,49,0907122478663 ,64,1185240866221
16.8085375 ,Left ,55,401329567769 ,49,1400297051302 ,64,1692617826815
16.8316392 ,Left ,55,3998957968771 ,49,1940667180886 ,64,2345709031201
16.8538488 ,Left ,55,4304029110948 ,49,2241803238303 ,64,2870734471924
16.8753257 ,Left ,55,4668136919235 ,49,2290757349697 ,64,3427772096717
16.8917352 ,Left ,55,5131754102504 ,49,2639997051332 ,64,3971354727723
16.9142478 ,Left ,55,5301279639404 ,49,4236370729941 ,64,448959863457
16.9355572 ,Left ,55,5905807150819 ,49,6157662064791 ,64,5079575970729
16.9514521 ,Left ,55,746242074163 ,49,832500159859 ,64,549596975548
16.9741558 ,Left ,55,8555166530409 ,49,9735395273946 ,64,578200719539
16.9950081 ,Left ,55,9578240515851 ,50,0367191759633 ,64,5842922408231
17.0116499 ,Left ,56,0065790770006 ,50,013146455166 ,64,5468646813414
17.0341473 ,Left ,55,9841727854954 ,49,9746845342011 ,64,4605598077284
17.0556275 ,Left ,55,9748843488534 ,49,9041287058179 ,64,347487033891
17.0710485 ,Left ,55,9505290761873 ,49,7962215544377 ,64,261318228593
17.0943179 ,Left ,55,9405985339931 ,49,6967632402916 ,64,186922305703
17.1152842 ,Left ,55,9539364546291 ,49,6189614290126 ,64,1279826194161
17.1309763 ,Left ,55,9200603778929 ,49,5718688819313 ,64,0924254992008
17.1541772 ,Left ,55,874078467021 ,49,5491384519607 ,64,0874229367514
17.1754549 ,Left ,55,860218776606 ,49,5395321704892 ,64,1126056806325
17.1922454 ,Left ,55,8975374023259 ,49,5529353420635 ,64,1443587333191
17.2142884 ,Left ,55,9030611147844 ,49,5277754039735 ,64,1711495942607
17.2354453 ,Left ,55,8608058430599 ,49,522181288145 ,64,1692383825954
17.2515799 ,Left ,55,8308790942555 ,49,5363130359142 ,64,1801349176138
17.2742078 ,Left ,55,817532768123 ,49,5433540379341 ,64,221937284305
17.296659 ,Left ,55,7700266578948 ,49,5498342004446 ,64,2501867003422
17.3117025 ,Left ,55,7568582483051 ,49,5631939481517 ,64,2498654110536
17.3341719 ,Left ,55,7371393967161 ,49,5678712872218 ,64,2511573020129
17.3567648 ,Left ,55,7162298113201 ,49,5665090146059 ,64,2429907179564
17.3716218 ,Left ,55,7031701340944 ,49,5586807487452 ,64,2361680819443
17.3942995 ,Left ,55,7112557274041 ,49,5643246742938 ,64,220171385631
17.416702 ,Left ,55,7169653542449 ,49,5562572293131 ,64,2015437205657
17.4311809 ,Left ,55,6986063985536 ,49,5175007159033 ,64,2004380485243
17.454307 ,Left ,55,6842510292327 ,49,4804238178936 ,64,1880971295759
17.4769218 ,Left ,55,6783945847259 ,49,4519574581724 ,64,1699925299779
17.4910586 ,Left ,55,669306465707 ,49,4349729875518 ,64,1554192235603
17.5137743 ,Left ,55,6973331353743 ,49,4277783178107 ,64,1342389911721
17.5366718 ,Left ,55,6825680391829 ,49,4008674122503 ,64,139169641243
17.5509503 ,Left ,55,6673618984033 ,49,3975532396345 ,64,1620429779187
17.5740004 ,Left ,55,6832863826601 ,49,3997924360611 ,64,1894983474801
17.5967315 ,Left ,55,6753790586868 ,49,4092555505082 ,64,2304228277545
17.6111561 ,Left ,55,6777517701554 ,49,4329126671794 ,64,2608849134284
17.6340897 ,Left ,55,6865185734528 ,49,4499577266269 ,64,299771252315
17.6566524 ,Left ,55,7241762199081 ,49,4734639389706 ,64,3326060752248
17.6709062 ,Left ,55,7281749312726 ,49,4821251539184 ,64,3588911430059
17.6943952 ,Left ,55,7357911593981 ,49,4892436507124 ,64,3581286229857
17.7167785 ,Left ,55,7341627598621 ,49,4854797583573 ,64,359715210995
17.7310514 ,Left ,55,7491874258493 ,49,4770729753078 ,64,3523458265275
17.7543152 ,Left ,55,7844342535359 ,49,4797381801704 ,64,3644195659334
17.7767882 ,Left ,55,8354511642831 ,49,4389925072482 ,64,4002893471767
17.7980173 ,Left ,55,9018769048456 ,49,3735561751848 ,64,4137546012247
17.8145359 ,Left ,55,9076718172032 ,49,316809727598 ,64,353411216001
17.8367964 ,Left ,55,8392123448977 ,49,2610517333714 ,64,2923887162594
17.8580738 ,Left ,55,8045892344255 ,49,2233066570774 ,64,2708274012236
17.8735518 ,Left ,55,8184506499713 ,49,2350721728764 ,64,264663653099
17.896713 ,Left ,55,8343210971378 ,49,2859744462592 ,64,2682446614662
17.9180255 ,Left ,55,8384656008899 ,49,3456847035765 ,64,2657322473746
17.9343395 ,Left ,55,8291904752099 ,49,3925223019498 ,64,2843011027768
17.956737 ,Left ,55,7792401944101 ,49,4190679060497 ,64,3295269278334
17.9780736 ,Left ,55,729799822141 ,49,4558978081316 ,64,3760927802325
17.9944093 ,Left ,55,6963037388042 ,49,5025916255748 ,64,4233240569809
18.0167847 ,Left ,55,6798763376892 ,49,5511508413001 ,64,4768597391918
18.0381336 ,Left ,55,6810338787802 ,49,5680791153673 ,64,5590448016095
18.0536545 ,Left ,55,6570968938135 ,49,5745123803724 ,64,6952561137669
18.0767802 ,Left ,55,6200256012787 ,49,5712429102119 ,64,8379298510787
18.0980315 ,Left ,55,6177370909769 ,49,5335487123346 ,64,9995309667599
18.1135738 ,Left ,55,6220570710196 ,49,4625661902067 ,65,1542258383673
18.1368488 ,Left ,55,6834978994076 ,49,4214251735579 ,65,274511558211
18.1578652 ,Left ,55,7426744697038 ,49,4007939593889 ,65,3714541251329
18.1805273 ,Left ,55,7143552759774 ,49,3983851968357 ,65,4269066055281
18.1967551 ,Left ,55,7421806672446 ,49,4356437405779 ,65,446757790655
18.2189358 ,Left ,55,7532689823428 ,49,5337260650758 ,65,4734234940366
18.2334658 ,Left ,55,7754339670949 ,49,6705641691468 ,65,4906342286472
18.2642706 ,Left ,55,7677521234149 ,49,7725584679048 ,65,5035626185283
18.2793484 ,Left ,55,7482406171331 ,49,7626082167689 ,65,4934990014962
18.2936102 ,Left ,55,7284934876731 ,49,7091143973706 ,65,4888463051066
18.3168076 ,Left ,55,7053802346125 ,49,6525026533557 ,65,4882998078164
18.3391982 ,Left ,55,6800581734088 ,49,5853603881621 ,65,4764057441533
18.3541299 ,Left ,55,6869185950297 ,49,5137346602246 ,65,4466810351203
18.3768357 ,Left ,55,6847878476936 ,49,4389041104746 ,65,4358648459539
18.3990344 ,Left ,55,6803201703322 ,49,3669036285574 ,65,4303253568681
18.4136263 ,Left ,55,6810304474735 ,49,3603627635932 ,65,4268567141115
18.4367489 ,Left ,55,6439128113022 ,49,4476542396375 ,65,4234945035143
18.4592587 ,Left ,55,6855915971803 ,49,567931310655 ,65,4361363466311
18.4800746 ,Left ,55,7649378151881 ,49,6165011398684 ,65,4647064939294
18.4966846 ,Left ,55,842329972069 ,49,5730254510181 ,65,487853391879
18.5193349 ,Left ,55,8201982354006 ,49,4469678424165 ,65,5086181954159
18.5399853 ,Left ,55,8115346207253 ,49,301274314384 ,65,5225128625482
18.5564244 ,Left ,55,7784097045224 ,49,241635363921 ,65,5299664165589
18.5796594 ,Left ,55,7270008085165 ,49,2448219997204 ,65,5069083117402
18.600465 ,Left ,55,8157040688635 ,49,2982168617594 ,65,4487512081849
18.6160159 ,Left ,55,8491480228727 ,49,385171939986 ,65,4372613642837
18.6222017 ,Left ,55,745977156584 ,49,5405471619849 ,65,4225798543276
18.6448605 ,Left ,55,7087466784485 ,49,6393584014207 ,65,4525101368159
18.6672252 ,Left ,55,7818148181781 ,49,6784251551837 ,65,4903956116259
18.6821002 ,Left ,55,7915398267744 ,49,6439854856177 ,65,5277679031084
18.7048353 ,Left ,55,8229645029424 ,49,6330706134471 ,65,5192589917737
18.7223954 ,Left ,55,7342508654801 ,49,6144977446303 ,65,537782498553
18.7423423 ,Left ,55,7052994949005 ,49,6414945664321 ,65,5575692458131
18.7648822 ,Left ,55,7246283036915 ,49,6192081453841 ,65,658759181228
18.7810172 ,Left ,55,6993293875747 ,49,611933650759 ,65,6978056209087
18.8022861 ,Left ,55,6665884902055 ,49,6436840992131 ,65,6937154873051
18.8247877 ,Left ,55,6119941728181 ,49,6691857397029 ,65,6804498565124
18.8410037 ,Left ,55,5910591039198 ,49,6864713201712 ,65,6700269342374
18.862198 ,Left ,55,6134091222072 ,49,6948475915709 ,65,6689797425354
18.8848903 ,Left ,55,5955608509241 ,49,7513695855007 ,65,6570885142522
18.9009774 ,Left ,55,6239135579422 ,49,8236109089352 ,65,6429466348834
18.9221312 ,Left ,55,6689136016826 ,49,8179857256984 ,65,628260179556
18.9446755 ,Left ,55,7060945670002 ,49,7539739095109 ,65,575209497579
18.9671145 ,Left ,55,7491946577755 ,49,6751783672851 ,65,4442954577628
18.982198 ,Left ,55,8127271172418 ,49,5967913283293 ,65,306500900224
19.0045192 ,Left ,55,7817298001119 ,49,5031871860039 ,65,1935519739892
19.0271536 ,Left ,55,8225150563035 ,49,4328291340637 ,65,0933882025141
19.0422493 ,Left ,55,98060543999 ,49,3738185579728 ,64,9678997555681
19.0648053 ,Left ,56,0643100969879 ,49,3189016153983 ,64,8226420997848
19.0872909 ,Left ,56,0095159657907 ,49,2574989152871 ,64,7052743936049
19.1022919 ,Left ,55,9643685945694 ,49,2099636840276 ,64,6162181110049
19.1322533 ,Left ,55,9552326983664 ,49,1696115037486 ,64,5443873519054
19.1427589 ,Left ,55,9648600757137 ,49,1229109611642 ,64,4679967130367
19.1620962 ,Left ,55,9710454256351 ,49,1049548423842 ,64,3902868608094
19.1847834 ,Left ,55,9766596779749 ,49,0793610732795 ,64,3616839049568
19.2026732 ,Left ,55,9472471907372 ,49,0465357654931 ,64,3894692361553
19.222258 ,Left ,55,8977583745433 ,49,0755629909191 ,64,3979625346817
19.2447489 ,Left ,55,8760526742171 ,49,1425632891591 ,64,3797386553223
19.2625351 ,Left ,55,865294137486 ,49,2227312158265 ,64,3665354485718
19.2822824 ,Left ,55,8437124230626 ,49,3100511577901 ,64,3675028205228
19.3048054 ,Left ,55,7943183333007 ,49,3874610433116 ,64,3864242683092
19.3224929 ,Left ,55,7236074722316 ,49,460431245691 ,64,4136577102217
19.3422156 ,Left ,55,6643734737722 ,49,5257114424615 ,64,4320801423615
19.3648459 ,Left ,55,6411867980316 ,49,5978775099804 ,64,4472889346549
19.3827534 ,Left ,55,6071404990229 ,49,6725205574097 ,64,4771961046811
19.409774 ,Left ,55,5330702085667 ,49,7671720161722 ,64,5424859682864
19.4248389 ,Left ,55,5070969186379 ,49,8802306757479 ,64,6214618131092
19.4427438 ,Left ,55,5279481452273 ,49,942493241048 ,64,7357573926273
19.4618487 ,Left ,55,572852142469 ,49,9751057297122 ,64,8358688289389
19.4843699 ,Left ,55,5577958466227 ,49,9935174864326 ,64,8862000873858
19.5023356 ,Left ,55,5253687850955 ,49,9943539474842 ,64,8882389816021
19.5222116 ,Left ,55,5099923643282 ,49,9282329690384 ,64,8928431041991
19.5447616 ,Left ,55,4928413884187 ,49,8340177071763 ,64,9127491672127
19.5671793 ,Left ,55,3974384601945 ,49,7992162887193 ,64,9077831221871
19.5822484 ,Left ,55,4348481059332 ,49,8647709475182 ,64,8533371430449
19.6047807 ,Left ,55,5543041529092 ,49,9033088309785 ,64,7574858966534
19.6224497 ,Left ,55,7196837602657 ,49,8726093305476 ,64,6779116031239
19.6420108 ,Left ,55,8161853116889 ,49,7736771435953 ,64,5978879995681
19.6649256 ,Left ,55,784685837581 ,49,6656011235939 ,64,5402775032006
19.6827911 ,Left ,55,6923760739902 ,49,5663060494748 ,64,5156684392084
19.7025549 ,Left ,55,6330105645283 ,49,4921132064253 ,64,5295394493539
19.7251493 ,Left ,55,6559739437398 ,49,4562574331069 ,64,5424808457758
19.7428641 ,Left ,55,6958104918592 ,49,4423044667955 ,64,5474156943237
19.7623536 ,Left ,55,7326477675401 ,49,4528039065451 ,64,5585753371272
19.7849176 ,Left ,55,7265171242771 ,49,4767972472593 ,64,5863771039636
19.8025796 ,Left ,55,6937775091443 ,49,4879432276623 ,64,6366416894466
19.8235789 ,Left ,55,7080386860422 ,49,5394678733959 ,64,6643206572023
19.8449948 ,Left ,55,734123645323 ,49,6360654209261 ,64,6680631410659
19.8626801 ,Left ,55,8066994279123 ,49,7210155375616 ,64,6911071807979
19.8837775 ,Left ,55,8340327286182 ,49,7324379852734 ,64,686532514106
19.9049435 ,Left ,55,8520980133333 ,49,6968941760018 ,64,6639621045851
19.9225847 ,Left ,55,8242961212801 ,49,6372218740799 ,64,6006133420946
19.9436858 ,Left ,55,8307659278085 ,49,6226849386995 ,64,496676954612
19.964679 ,Left ,55,815192128046 ,49,6041194894391 ,64,43961235755
19.9825086 ,Left ,55,8544602674692 ,49,5710630781532 ,64,3861556177481
20.0034977 ,Left ,55,8739861220204 ,49,4991702241591 ,64,3462688702806
20.0243472 ,Left ,55,867145345139 ,49,4869713190684 ,64,2770918071683
20.0424914 ,Left ,55,8314381447346 ,49,5181033772057 ,64,2163482573066
20.0635418 ,Left ,55,7969640675951 ,49,5916231323083 ,64,1942831046783
20.0845343 ,Left ,55,8291212112042 ,49,6601601792466 ,64,1891035759909
20.1025537 ,Left ,55,8214774112191 ,49,6841743387486 ,64,197234244621
20.1248543 ,Left ,55,763068684786 ,49,6831989469116 ,64,2123572426496
20.1444881 ,Left ,55,7177448370071 ,49,6996777410156 ,64,2051176073859
20.162458 ,Left ,55,71786985472 ,49,6993568072324 ,64,2074884030541
20.1851986 ,Left ,55,7014927526369 ,49,691114483304 ,64,2461813978506
20.2048002 ,Left ,55,6728629223397 ,49,6890053811182 ,64,2853876088653
20.2224188 ,Left ,55,6779414202568 ,49,6956963032493 ,64,2823450931506
20.2456503 ,Left ,55,6952915233034 ,49,6788308989488 ,64,2699508338233
20.2646197 ,Left ,55,6759247285665 ,49,6656465496325 ,64,2725254331499
20.2824825 ,Left ,55,6460803823925 ,49,6659580085082 ,64,2795021700517
20.3051048 ,Left ,55,6361720698461 ,49,6662364948584 ,64,291911319571
20.324765 ,Left ,55,6519648633886 ,49,6601331369167 ,64,3074072104887
20.3427057 ,Left ,55,6542824323259 ,49,6485010476479 ,64,3271056657102
20.3646239 ,Left ,55,6542358010316 ,49,6368796827567 ,64,3426136466284
20.3845583 ,Left ,55,6384140283883 ,49,6295413284104 ,64,3534866015706
20.4029184 ,Left ,55,6259247682133 ,49,6272931566434 ,64,3496289431803
20.4248016 ,Left ,55,6547248402546 ,49,6162633185497 ,64,334769107629
20.4451185 ,Left ,55,6529426935506 ,49,5765671481168 ,64,3302106783939
20.462635 ,Left ,55,6766531066031 ,49,5380103915099 ,64,3095667032393
20.4842464 ,Left ,55,7260844574011 ,49,5052699811134 ,64,2988338677427
20.5055972 ,Left ,55,7272379699755 ,49,4673471779705 ,64,3231685613587
20.5216563 ,Left ,55,7598525193309 ,49,4179197628869 ,64,3143565468162
20.544246 ,Left ,55,8335022165094 ,49,351806048503 ,64,2467215709864
20.5655881 ,Left ,55,8475157486857 ,49,2888408993696 ,64,1856769151905
20.5817304 ,Left ,55,8200245784344 ,49,2416987574116 ,64,1716093002268
20.6041883 ,Left ,55,8303961549084 ,49,2243128160972 ,64,1558106756873
20.6252643 ,Left ,55,8765346904662 ,49,2235715235464 ,64,1260192155557
20.6414511 ,Left ,55,8684380194929 ,49,1997269714204 ,64,1099193081004
20.6641526 ,Left ,55,8321178520466 ,49,1619578211623 ,64,1256807405763
20.6854044 ,Left ,55,8109157653774 ,49,1445939407563 ,64,1651162927922
20.701799 ,Left ,55,7992665867294 ,49,1704463723535 ,64,2059998988639
20.7242876 ,Left ,55,7819121022107 ,49,2085693638514 ,64,233678847737
20.7456123 ,Left ,55,7496471451279 ,49,2291882804843 ,64,2635894342946
20.7615876 ,Left ,55,7188858161624 ,49,2408710796541 ,64,3141096924476
20.7843134 ,Left ,55,6759798216029 ,49,2593671497362 ,64,3960877949857
20.8056944 ,Left ,55,646091499596 ,49,2773363693389 ,64,5157781809872
20.8218103 ,Left ,55,6267098832199 ,49,2670213677711 ,64,6672182748455
20.844357 ,Left ,55,5906569564133 ,49,244001808651 ,64,8625755620238
20.8654585 ,Left ,55,6098232976784 ,49,2228692885775 ,65,0483753825914
20.8811272 ,Left ,55,7060658601271 ,49,205687385446 ,65,2150189904974
20.9044465 ,Left ,55,794522052891 ,49,1904881192416 ,65,3166452278837
20.9253174 ,Left ,55,7635399373589 ,49,1942370982694 ,65,3574436869253
20.9411095 ,Left ,55,7977788607721 ,49,2534900944902 ,65,3724389700387
20.964246 ,Left ,55,7922645862879 ,49,3735248458853 ,65,3882993632759
20.9855702 ,Left ,55,7449818324254 ,49,5125225646359 ,65,3976469352202
21.0010766 ,Left ,55,7561922132286 ,49,6048732959792 ,65,4080258419372
21.0242734 ,Left ,55,7852469603082 ,49,6057700339975 ,65,4036835047768
21.0467941 ,Left ,55,7688932714511 ,49,5670867115832 ,65,3957229778597
21.0611539 ,Left ,55,6973609672754 ,49,5482090065627 ,65,3778935539179
21.0841833 ,Left ,55,6795526916972 ,49,5308849739455 ,65,3531722102521
21.1067006 ,Left ,55,7381404303663 ,49,4758623334293 ,65,3281102427863
21.1217492 ,Left ,55,8157743129217 ,49,3952195736823 ,65,3155927141774
21.1443398 ,Left ,55,7565822317283 ,49,3518408211796 ,65,332603930874
21.1668763 ,Left ,55,6456954616524 ,49,412939733889 ,65,3057099276108
21.1811786 ,Left ,55,6982997505044 ,49,5183118171843 ,65,3076525837791
21.2043216 ,Left ,55,8171760620493 ,49,5473085047716 ,65,3204223837945
21.2268853 ,Left ,55,87731295189 ,49,4983112813759 ,65,3300072734637
21.2478328 ,Left ,55,821867157269 ,49,4189395173097 ,65,3493818038256
21.264388 ,Left ,55,8105957912556 ,49,3761649242173 ,65,3476420947736
21.2868284 ,Left ,55,8552512750396 ,49,3668680264913 ,65,3788491776974
21.3011342 ,Left ,55,8344399661603 ,49,3797217104779 ,65,4013794448516
21.3241716 ,Left ,55,8880480243421 ,49,4270038471139 ,65,3695339619835
21.34684 ,Left ,55,8408824056446 ,49,5228853753032 ,65,3578662439294
21.3611859 ,Left ,55,8037572159898 ,49,6791419967015 ,65,353675539776
21.384233 ,Left ,55,827061267566 ,49,752921151463 ,65,3825309166262
21.406723 ,Left ,55,858116889527 ,49,8067514183308 ,65,4131522539825
21.4211342 ,Left ,55,788036333152 ,49,8438230881018 ,65,4356931792188
21.4443605 ,Left ,55,706839132737 ,49,8476684516719 ,65,478163721517
21.4668838 ,Left ,55,7252187821256 ,49,8411853913553 ,65,521155251799
21.4812581 ,Left ,55,7680587896731 ,49,8212818592869 ,65,5663366046693
21.5042722 ,Left ,55,7394778549843 ,49,7754841232667 ,65,6182781337442
21.526834 ,Left ,55,689222073995 ,49,7555437349634 ,65,6277745035654
21.5478005 ,Left ,55,7464410860495 ,49,7694754331387 ,65,6066641380739
21.5642156 ,Left ,55,7333182897036 ,49,7766805919688 ,65,5684856514697
21.5868502 ,Left ,55,6393403226529 ,49,8341609592009 ,65,5277091423113
21.6080441 ,Left ,55,6690555683111 ,49,9435666310958 ,65,4648486908212
21.6317991 ,Left ,55,7608015235732 ,49,9800854878994 ,65,4044810210555
21.6467632 ,Left ,55,8326001594004 ,49,962592230027 ,65,3187426087222
21.6678616 ,Left ,55,8761953923513 ,49,9263668613052 ,65,2249679197116
21.6843811 ,Left ,55,9270293477735 ,49,8798079272126 ,65,1210418149208
21.7068032 ,Left ,55,9143336491566 ,49,7731453784646 ,64,9936027702516
21.7277954 ,Left ,55,9060346789491 ,49,660552174312 ,64,8634327384514
21.7443542 ,Left ,55,9488509236077 ,49,5751941009485 ,64,7470363665638
21.7668198 ,Left ,56,0350048331576 ,49,5236421344946 ,64,6229311152749
21.7881232 ,Left ,56,0837556500508 ,49,4734092438105 ,64,4893703653582
21.8036869 ,Left ,56,0707670580746 ,49,3981464439177 ,64,3929066197295
21.8267936 ,Left ,56,0108993422363 ,49,3169940515757 ,64,351459518776
21.8480094 ,Left ,55,9758709621295 ,49,2634289634417 ,64,3109908266438
21.8637875 ,Left ,55,9657393089562 ,49,2327981455611 ,64,2805964575877
21.8868279 ,Left ,55,902407287931 ,49,2154545919003 ,64,2798964581471
21.9079772 ,Left ,55,8606548947495 ,49,2097701607285 ,64,3223281354395
21.9242076 ,Left ,55,7747132492323 ,49,2247149226747 ,64,3807446445848
21.9467178 ,Left ,55,6953422578936 ,49,2795475434951 ,64,4113840232003
21.9680706 ,Left ,55,6337429412739 ,49,3373798658097 ,64,4176306174043
21.9836715 ,Left ,55,5497473307475 ,49,3904726960292 ,64,4229298250822
22.0069624 ,Left ,55,4860085756089 ,49,4418038715901 ,64,444832617273
22.0293539 ,Left ,55,4247963901711 ,49,4972080597642 ,64,4739603861016
22.0441941 ,Left ,55,3979991460429 ,49,5614773327298 ,64,4933629813215
22.066821 ,Left ,55,4157485833215 ,49,6173820862217 ,64,5127999039203
22.0893123 ,Left ,55,4126070724895 ,49,6472220900316 ,64,5397172757999
22.1043716 ,Left ,55,3715339138343 ,49,6520963024399 ,64,5770507782581
22.1268148 ,Left ,55,4048016027804 ,49,6558184494081 ,64,586562819773
22.149343 ,Left ,55,4521563185202 ,49,6379104075858 ,64,5429945523606
22.1704676 ,Left ,55,3447880615753 ,49,6237413052551 ,64,4893011970666
22.1869273 ,Left ,55,2706019839948 ,49,6941228176773 ,64,4451100158577
22.2091578 ,Left ,55,3644912794798 ,49,7712775573616 ,64,3790060735758
22.2304601 ,Left ,55,513612534243 ,49,7642593839093 ,64,2817039495564
22.246841 ,Left ,55,6032316735936 ,49,6962953584419 ,64,1892016811794
22.2691015 ,Left ,55,6263395090539 ,49,5899649590543 ,64,0892695256439
22.2900582 ,Left ,55,5580138841783 ,49,4548336440474 ,64,0181595135244
22.3065123 ,Left ,55,4304819505172 ,49,3533874307505 ,63,9973895022053
22.3290606 ,Left ,55,3937734602769 ,49,3302090007298 ,64,0043133102432
22.3503501 ,Left ,55,451695927183 ,49,3421570445986 ,64,0032077973573
22.3666236 ,Left ,55,5142385974117 ,49,3618148743425 ,64,0189369034829
22.3892292 ,Left ,55,564540610729 ,49,377639287809 ,64,040108699405
22.4035543 ,Left ,55,5595521704121 ,49,3597456505149 ,64,0917566839589
22.4267333 ,Left ,55,4760036123578 ,49,3457426193883 ,64,158209078139
22.4492286 ,Left ,55,4091994232548 ,49,4152856433151 ,64,2049796539546
22.4704582 ,Left ,55,3743118379747 ,49,5718573755403 ,64,2042155249491
22.4867432 ,Left ,55,4873881494606 ,49,7180374210414 ,64,2566098641841
22.5092397 ,Left ,55,5996251462184 ,49,8381053652566 ,64,3101513847205
22.5302315 ,Left ,55,6764897379728 ,49,9470070033913 ,64,3137969102358
22.5466529 ,Left ,55,6923192177279 ,49,9591053842799 ,64,3020803265215
22.5691804 ,Left ,55,6649785737726 ,49,8922312452191 ,64,2831050535099
22.5901308 ,Left ,55,6337013464765 ,49,8513715045463 ,64,2189399365471
22.6066585 ,Left ,55,6426730741331 ,49,8322742530604 ,64,1441537858726
22.6293127 ,Left ,55,7191537126557 ,49,7659751814214 ,64,1273435370844
22.6505345 ,Left ,55,7708774979459 ,49,6508452241144 ,64,14369098813
22.6667718 ,Left ,55,7547993491807 ,49,5478132652083 ,64,115075975477
22.689211 ,Left ,55,6671362377871 ,49,4828855329364 ,64,0804038568351
22.7103864 ,Left ,55,6284733635621 ,49,464310539713 ,64,057291315067
22.7259005 ,Left ,55,6510711372843 ,49,4232520293417 ,64,0318173723981
22.7491219 ,Left ,55,6978759421084 ,49,3773341861234 ,64,007322340652
22.7705661 ,Left ,55,7228963401553 ,49,3587638453571 ,63,9863074305528
22.7868359 ,Left ,55,6666894673576 ,49,3632778978422 ,63,9985290298546
22.8093276 ,Left ,55,5963446073955 ,49,3901159838229 ,64,03363092779
22.8302603 ,Left ,55,6041716090687 ,49,4442756366294 ,64,0632407146274
22.8465458 ,Left ,55,6798518606475 ,49,4835848100861 ,64,0684735051318
22.8691172 ,Left ,55,7034870761139 ,49,4867532563062 ,64,0727787886072
22.8900042 ,Left ,55,6672962803241 ,49,4904173623382 ,64,0966990162016
22.9065003 ,Left ,55,6331386556996 ,49,5016619804522 ,64,1250274243903
22.9290588 ,Left ,55,6434475770737 ,49,5046970828039 ,64,128216496874
22.9514843 ,Left ,55,6528458988264 ,49,4872907013515 ,64,1283326129715
22.9666919 ,Left ,55,644390113444 ,49,458862837173 ,64,1380813731965
22.9891101 ,Left ,55,6554153715397 ,49,4195637805044 ,64,156080427472
23.0195682 ,Left ,55,6641625814783 ,49,3592883928379 ,64,188307997888
23.0262735 ,Left ,55,6955846197019 ,49,3064743816215 ,64,2142588261899
23.0561411 ,Left ,55,7306634640102 ,49,253604412422 ,64,2644768235759
23.0720941 ,Left ,55,751996265165 ,49,1812335582572 ,64,2798204470957
23.0869307 ,Left ,55,7541718219159 ,49,1161346754617 ,64,2489966875903
23.1093288 ,Left ,55,7118936895487 ,49,089723813369 ,64,2308768505458
23.1318273 ,Left ,55,6797802840443 ,49,1105661915564 ,64,2258838806482
23.1460967 ,Left ,55,6970793700177 ,49,1440462599569 ,64,2127222491419
23.1767573 ,Left ,55,7066377324346 ,49,159819348412 ,64,2095109034626
23.1917257 ,Left ,55,6666768343564 ,49,1683104530639 ,64,2084473195139
23.2059854 ,Left ,55,6528816650061 ,49,1839433566473 ,64,2191664718313
23.2292518 ,Left ,55,6592278806613 ,49,227432779756 ,64,2375832360026
23.2516867 ,Left ,55,6668189271076 ,49,2727394848924 ,64,2569715079173
23.2659808 ,Left ,55,7024907677948 ,49,3020732430679 ,64,2532076987039
23.289238 ,Left ,55,687099018741 ,49,3052734505496 ,64,2636438505728
23.3117626 ,Left ,55,637296882844 ,49,3144254952018 ,64,3080964261435
23.332886 ,Left ,55,5928593152858 ,49,3408394454784 ,64,3754904779864
23.3491865 ,Left ,55,5986379417461 ,49,3295977737501 ,64,4445373255829
23.3717086 ,Left ,55,569437930431 ,49,2931106835571 ,64,5398901029191
23.3927512 ,Left ,55,5348056125153 ,49,2722912598955 ,64,673249737985
23.4092149 ,Left ,55,5499502022208 ,49,2484313389444 ,64,8182051054247
23.4316594 ,Left ,55,5591371103041 ,49,2272664536771 ,64,9526006814754
23.4529119 ,Left ,55,5719854711819 ,49,2186770982834 ,65,0452755265136
23.4692696 ,Left ,55,5591726533416 ,49,2203337506504 ,65,1070189599502
23.4916316 ,Left ,55,5559369871797 ,49,2348041103289 ,65,1804371316101
23.5127062 ,Left ,55,6162619243394 ,49,2613416171974 ,65,2132170885426
23.5292902 ,Left ,55,5949207999723 ,49,2980556738575 ,65,2424108652015
23.5519758 ,Left ,55,5504230081681 ,49,389543772185 ,65,2347598219157
23.5728284 ,Left ,55,5239981907425 ,49,4563376397609 ,65,223905969206
23.5892049 ,Left ,55,5500755423854 ,49,4801795321292 ,65,2007341164298
23.6117334 ,Left ,55,5621124673546 ,49,4977836952154 ,65,1802824466258
23.6330011 ,Left ,55,4931806686176 ,49,488076698847 ,65,1869799120906
23.6494201 ,Left ,55,444322578534 ,49,4949403913577 ,65,2019568941968
23.6718727 ,Left ,55,4907807876942 ,49,4711998388811 ,65,2127700536266
23.6930927 ,Left ,55,5144534324575 ,49,3847786733658 ,65,2042948571615
23.7089461 ,Left ,55,5370434843755 ,49,3701744955411 ,65,1862584251883
23.7319466 ,Left ,55,4451321927313 ,49,392163692842 ,65,2055345775394
23.7527877 ,Left ,55,4489219079226 ,49,4420926720201 ,65,2114474597273
23.7690794 ,Left ,55,5101264127587 ,49,4498645859583 ,65,2017728120381
23.7918124 ,Left ,55,531065035512 ,49,414377064731 ,65,1906735451197
23.8127824 ,Left ,55,5243532483949 ,49,3624593980945 ,65,1904709180427
23.8291827 ,Left ,55,5119870762452 ,49,322113426581 ,65,1810582184494
23.8514628 ,Left ,55,5115659142535 ,49,3290591810789 ,65,1905931294178
23.8724457 ,Left ,55,4949757767847 ,49,3441337908643 ,65,1919913400321
23.8891689 ,Left ,55,5283951166129 ,49,3954837226313 ,65,1669773627019
23.9117047 ,Left ,55,5717012332469 ,49,4597691902355 ,65,1544157356006
23.9342122 ,Left ,55,5240474693125 ,49,5636060489752 ,65,1109254001797
23.9492135 ,Left ,55,5097396663781 ,49,6276099697332 ,65,0781352253402
23.9717012 ,Left ,55,48163709139 ,49,6377538418869 ,65,0777201057451
23.9943841 ,Left ,55,4463045126075 ,49,6158301395485 ,65,053367813947
24.009208 ,Left ,55,3886342706737 ,49,5764708273298 ,64,9939253549071
24.0317433 ,Left ,55,3752652576727 ,49,5524355685359 ,64,9179720227171
24.0541887 ,Left ,55,3830679065162 ,49,5341231214713 ,64,8760816739793
24.068539 ,Left ,55,4500734751402 ,49,5146367602679 ,64,8686954925123
24.0917635 ,Left ,55,5140039889214 ,49,4533423389766 ,64,8940736484988
24.1141759 ,Left ,55,4520537570189 ,49,3832110618879 ,64,9558828218634
24.1289418 ,Left ,55,3530919601441 ,49,3614135150712 ,65,0007883552725
24.1518659 ,Left ,55,3270844307091 ,49,3503999480513 ,65,0262616375852
24.1741491 ,Left ,55,4142909427073 ,49,3845855999661 ,65,0421042439105
24.1888194 ,Left ,55,4014351766359 ,49,4199743389708 ,65,0778270109989
24.2117141 ,Left ,55,3241276941261 ,49,5192391783413 ,65,1173939944889
24.2342663 ,Left ,55,3586802659875 ,49,6689078474574 ,65,1464913071433
24.2556057 ,Left ,55,4691767021825 ,49,7528356452139 ,65,1273995904754
24.271599 ,Left ,55,5087821667869 ,49,7346396068185 ,65,0761248811616
24.2941787 ,Left ,55,5488156267116 ,49,6751156255707 ,65,0119645747614
24.3149979 ,Left ,55,551145010547 ,49,5803873461679 ,64,9184636147167
24.3318193 ,Left ,55,5388274426222 ,49,4991122099757 ,64,8282074542485
24.3541908 ,Left ,55,5544023645568 ,49,4131060957157 ,64,7157685975889
24.3755172 ,Left ,55,6168149969786 ,49,3220279717066 ,64,5764287350744
24.3821376 ,Left ,55,6847148006685 ,49,2461975276985 ,64,4291251762503
24.3970418 ,Left ,55,7307794698009 ,49,2254981208668 ,64,2725297080015
24.4197402 ,Left ,55,7196595408193 ,49,1920146685467 ,64,1700232371645
24.4448637 ,Left ,55,7154985285904 ,49,1703290562944 ,64,0893864025381
24.4568604 ,Left ,55,7279949908554 ,49,1747326522993 ,64,0115831851949
24.4796465 ,Left ,55,7144117572644 ,49,1721982709729 ,63,9120820726154
24.5022841 ,Left ,55,6893370456621 ,49,1630442103388 ,63,8172810415754
24.5174189 ,Left ,55,6534461380033 ,49,1489115822737 ,63,7977375344606
24.5397514 ,Left ,55,6410027581744 ,49,1670688866866 ,63,7781816723722
24.5624485 ,Left ,55,5905964643248 ,49,1927435673904 ,63,7558692335253
24.5773247 ,Left ,55,5091882969802 ,49,2184421459686 ,63,7270256696547
24.5997352 ,Left ,55,4195631083073 ,49,2790081645263 ,63,7297038805388
24.6223318 ,Left ,55,3601198994909 ,49,3910858463347 ,63,803378710139
24.6372333 ,Left ,55,3264637769284 ,49,5225768108524 ,63,8963201115065
24.6599331 ,Left ,55,2857423446492 ,49,6280348382727 ,63,9869227118004
24.6945267 ,Left ,55,2666593330258 ,49,7140055447812 ,64,0716876933855
24.6989083 ,Left ,55,2682274528292 ,49,7146039942116 ,64,152532022455
24.7198903 ,Left ,55,2385263402165 ,49,6858254097048 ,64,2373156241876
24.7423103 ,Left ,55,2383929743101 ,49,7117110104813 ,64,3053193964282
24.757202 ,Left ,55,2770341346536 ,49,7702797245317 ,64,2999113182488
24.7797609 ,Left ,55,2783526254302 ,49,8123082224533 ,64,2807421918146
24.7961213 ,Left ,55,2961801287167 ,49,856169084763 ,64,2673410564007
24.8174371 ,Left ,55,3461189260031 ,49,8380310119552 ,64,2331882919379
24.839741 ,Left ,55,3863607060913 ,49,7463488901032 ,64,2471141035064
24.8623655 ,Left ,55,4666433644335 ,49,6336267810972 ,64,1355362602374
24.8771561 ,Left ,55,5235507618783 ,49,5276316221097 ,63,8754039353211
24.8997917 ,Left ,55,5304815688154 ,49,419508010972 ,63,5704254557396
24.922105 ,Left ,55,5421157089027 ,49,2674113152343 ,63,3007598144691
24.9374332 ,Left ,55,5506952863554 ,49,0937461806292 ,63,0933686439892
24.9598468 ,Left ,55,5535405885663 ,48,96813286813 ,62,9218628432897
24.982353 ,Left ,55,5447865446412 ,48,8291928383611 ,62,7721175537738
24.9971388 ,Left ,55,5492391455172 ,48,6592294844146 ,62,6463599823075
25.0196721 ,Left ,55,4889093777179 ,48,5162458678639 ,62,5923868314363
25.0421612 ,Left ,55,4044681648953 ,48,4548614223221 ,62,6323157411859
25.0573284 ,Left ,55,3838825705262 ,48,4310501253382 ,62,7249632219021
25.0796928 ,Left ,55,4282543055871 ,48,4179078685129 ,62,837852906904
25.1024758 ,Left ,55,4226885757262 ,48,4484832196294 ,62,9589322621542
25.117358 ,Left ,55,3587708919936 ,48,5032594081464 ,63,0884463759333
25.1397866 ,Left ,55,3024952805162 ,48,5931843985706 ,63,2344214286523
25.1623053 ,Left ,55,2928929556752 ,48,7093633104063 ,63,3725889169879
25.1771684 ,Left ,55,2784080635205 ,48,8122900041249 ,63,5046758147709
25.1997491 ,Left ,55,2446000693826 ,48,8985137270845 ,63,6484207735626
25.2223692 ,Left ,55,2398449166651 ,48,9771516111763 ,63,764708039408
25.2373792 ,Left ,55,2557182849028 ,49,0700280252801 ,63,8925290747788
25.2598933 ,Left ,55,2903138012824 ,49,1387464575798 ,64,0254766619006
25.277668 ,Left ,55,336425427853 ,49,1633175584927 ,64,1410290811543
25.2972952 ,Left ,55,3897172258948 ,49,2078536801199 ,64,2099074893792
25.3196892 ,Left ,55,3884381761021 ,49,2959728063244 ,64,2567926880975
25.337663 ,Left ,55,31195206937 ,49,4055195986375 ,64,2650280661825
25.357272 ,Left ,55,349106400713 ,49,5925410032557 ,64,2671217450337
25.379889 ,Left ,55,4136971095708 ,49,7369963466856 ,64,2629184482612
25.3981141 ,Left ,55,470991272467 ,49,8025002540085 ,64,2566857603257
25.4170653 ,Left ,55,5222485442474 ,49,8154951503668 ,64,2168888207445
25.439548 ,Left ,55,483024550583 ,49,8236470779553 ,64,1408333187384
25.4576557 ,Left ,55,4433444901799 ,49,8022652109845 ,64,0970703202425
25.4785983 ,Left ,55,4978762525392 ,49,7459963079057 ,64,0720554962769
25.49969 ,Left ,55,5670568262697 ,49,6355891988896 ,64,0294907424146
25.5180706 ,Left ,55,5211202899886 ,49,5372801069269 ,63,9701123129545
25.5386146 ,Left ,55,4000631310627 ,49,5066937415628 ,63,9374899296865
25.5598534 ,Left ,55,3505752106953 ,49,5227017314302 ,63,9307158226027
25.5775442 ,Left ,55,3650902247434 ,49,5081072953392 ,63,92470646011
25.5985545 ,Left ,55,4112845913996 ,49,4450537557374 ,63,9130015486383
25.6196237 ,Left ,55,3945004829182 ,49,3801375291855 ,63,9187295428003
25.6377141 ,Left ,55,3430939003435 ,49,3515650132435 ,63,9353077419032
25.6585863 ,Left ,55,294242538063 ,49,3662015552293 ,63,9560529274246
25.6795942 ,Left ,55,2695620384947 ,49,4125787688489 ,63,9817789895456
25.6975951 ,Left ,55,2887173521389 ,49,4426247098005 ,63,994229923562
25.7185498 ,Left ,55,3238490733777 ,49,4405542202795 ,64,0116454998847
25.7396829 ,Left ,55,3282046002345 ,49,4294911189604 ,64,0253339795029
25.7577287 ,Left ,55,2749698176035 ,49,4254131343881 ,64,0431212363906
25.7785635 ,Left ,55,2253195480078 ,49,4307438861306 ,64,0473661818743
25.7995171 ,Left ,55,240200692848 ,49,4225997681836 ,64,0298479398152
25.8174188 ,Left ,55,2634457257983 ,49,3902542306059 ,64,0152889599132
25.8398217 ,Left ,55,2909212947577 ,49,3511686280028 ,64,0150701619383
25.8596254 ,Left ,55,2997315436362 ,49,3043870521576 ,64,0209011170518
25.8775574 ,Left ,55,2816921606097 ,49,2578010291252 ,64,0496427548372
25.9000361 ,Left ,55,2833526216751 ,49,2341160267279 ,64,0438361413886
25.9195977 ,Left ,55,2986283821822 ,49,2002863066978 ,64,011335374383
25.937567 ,Left ,55,3581392239246 ,49,1861684560128 ,63,9818729285265
25.9599376 ,Left ,55,4311515920976 ,49,1609826918182 ,63,9771962177604
25.9796373 ,Left ,55,4809773939449 ,49,1120954066141 ,63,9853494995888
25.9974405 ,Left ,55,4882463575754 ,49,0366804142471 ,63,9624593677283
26.0199641 ,Left ,55,4765035704019 ,48,9673560795706 ,63,9334410119666
26.0395174 ,Left ,55,4848362331983 ,48,9087491357423 ,63,9003508705042
26.0574912 ,Left ,55,5293489585844 ,48,8745322026028 ,63,83382226465
26.0798495 ,Left ,55,5405082404425 ,48,8282361567736 ,63,7768575116187
26.0996215 ,Left ,55,530689383559 ,48,7982295456026 ,63,7190379448963
26.1176063 ,Left ,55,5122682639328 ,48,7797851829929 ,63,6810205012754
26.1401393 ,Left ,55,4949024806616 ,48,7646228391461 ,63,6426715848834
26.1597163 ,Left ,55,5076172130547 ,48,7503957176727 ,63,6301763225857
26.1778592 ,Left ,55,50139988798 ,48,7565181382413 ,63,6242939370684
26.200036 ,Left ,55,4524789736458 ,48,7826455254426 ,63,6286541281001
26.2198673 ,Left ,55,4206219912718 ,48,8177104760751 ,63,6348220415319
26.2367772 ,Left ,55,4422055227492 ,48,8557728976297 ,63,6332005242849
26.2593202 ,Left ,55,4689050429128 ,48,8859052135434 ,63,6367035549926
26.2805206 ,Left ,55,4777734787877 ,48,9128033791213 ,63,6568817717993
26.296789 ,Left ,55,4625144898594 ,48,9474139742328 ,63,6942431564213
26.3192789 ,Left ,55,446491096248 ,48,9914231504724 ,63,717588011412
26.3478473 ,Left ,55,4314834546941 ,49,0415564006393 ,63,7424438992567
26.3566863 ,Left ,55,4189089202579 ,49,091490569267 ,63,7737615130092
26.3855664 ,Left ,55,3910822600336 ,49,1405633805589 ,63,8126006317285
26.400443 ,Left ,55,3820027993884 ,49,1860081639018 ,63,8609263695338
26.4167579 ,Left ,55,3609696501209 ,49,2089970161725 ,63,9200765530909
26.4392704 ,Left ,55,3287314143086 ,49,2210507126007 ,63,9856439432455
26.4605371 ,Left ,55,3044664266559 ,49,2208273967531 ,64,0627965754693
26.4767693 ,Left ,55,2744862802641 ,49,2257539628283 ,64,1514051794311
26.4993228 ,Left ,55,2674732831297 ,49,2316065751101 ,64,2484616389253
26.5203371 ,Left ,55,2248152808287 ,49,2220065406855 ,64,3933045333797
26.5361221 ,Left ,55,2217147446458 ,49,2197385962341 ,64,5510998582656
26.5594919 ,Left ,55,2348638889021 ,49,2252215026505 ,64,6937054357586
26.5804857 ,Left ,55,2412700264649 ,49,2186053897627 ,64,8230329483671
26.5961187 ,Left ,55,2368904626614 ,49,2046307089107 ,64,9027142426594
26.6193391 ,Left ,55,2746997701186 ,49,1834141511041 ,64,9746447833177
26.6404317 ,Left ,55,2568532687684 ,49,1643619076577 ,65,0218218352395
26.6631428 ,Left ,55,2405508000752 ,49,1659473641127 ,65,0341845161109
26.6792936 ,Left ,55,2209734652394 ,49,1575529710803 ,65,038323718467
26.7005164 ,Left ,55,2200857367934 ,49,1304117431449 ,65,0318356416784
26.7167655 ,Left ,55,2301873678682 ,49,0874508282696 ,65,0459823079344
26.7392256 ,Left ,55,2555785797131 ,49,0375016580923 ,65,041924646931
26.7618278 ,Left ,55,2277636226459 ,48,9994696257218 ,65,0500404713397
26.783103 ,Left ,55,3062761427592 ,49,0318692018017 ,65,1241284094383
26.7991822 ,Left ,55,3359424528942 ,49,1082240157714 ,65,1910409860512
26.8217299 ,Left ,55,3377654792876 ,49,220598856984 ,65,2238824140175
26.8360673 ,Left ,55,3302786188045 ,49,3236104266486 ,65,2152618649245
26.8592855 ,Left ,55,367684213521 ,49,3645763148215 ,65,1618578504007
26.8817878 ,Left ,55,3697472136394 ,49,3398667311403 ,65,1473402806286
26.9030595 ,Left ,55,3289120675749 ,49,295216950798 ,65,1442739711913
26.919237 ,Left ,55,2613669815965 ,49,2421873854855 ,65,1402309501622
26.9417887 ,Left ,55,1968239248553 ,49,1566668872314 ,65,1634285489935
26.9560802 ,Left ,55,1547496056392 ,49,0444055648539 ,65,1600088205357
26.9793206 ,Left ,55,1053192048377 ,48,9449054974969 ,65,104746399186
27.0016893 ,Left ,55,0299260068753 ,48,8727367994757 ,65,0355447680954
27.0230638 ,Left ,54,92182314717 ,48,780352116919 ,65,0002547455671
27.0392735 ,Left ,54,8948587584285 ,48,714445075287 ,64,938909651911
27.0618025 ,Left ,54,9334741518237 ,48,6683074293365 ,64,9279552860894
27.0829247 ,Left ,54,8671665958124 ,48,6159659227618 ,64,9291049468011
27.0992653 ,Left ,54,7566493550127 ,48,5689016118617 ,64,9062819214153
27.1217352 ,Left ,54,6845736103971 ,48,5495297304454 ,64,8885039880257
27.1430479 ,Left ,54,6869171585109 ,48,5468480481795 ,64,870139434634
27.1593072 ,Left ,54,7203793333683 ,48,5348556427247 ,64,8544166537898
27.181719 ,Left ,54,6991943267673 ,48,543455549496 ,64,8923029016576
27.2031835 ,Left ,54,6296012864465 ,48,5508500160105 ,65,0327879751777
27.2193216 ,Left ,54,5934369931935 ,48,5481676396362 ,65,2002993359017
27.2418113 ,Left ,54,6290450056004 ,48,5393670776631 ,65,2843684175859
27.2630697 ,Left ,54,5953163653706 ,48,5398647156019 ,65,3347501823236
27.2793613 ,Left ,54,4750475840222 ,48,558936070967 ,65,3756089958692
27.3017673 ,Left ,54,4569275129347 ,48,5602693828041 ,65,4133577256786
27.3228687 ,Left ,54,4810700682447 ,48,5515562360828 ,65,4820038030785
27.3392388 ,Left ,54,4516910038513 ,48,5455159436654 ,65,5743284267592
27.3618726 ,Left ,54,3258088878397 ,48,5562047622567 ,65,6654703277142
27.3830686 ,Left ,54,2649708591381 ,48,5862588550062 ,65,7119979061389
27.3992085 ,Left ,54,2261109889222 ,48,567227015605 ,65,7266284750517
27.4218013 ,Left ,54,1937382066802 ,48,5318708977644 ,65,7241566607085
27.4428874 ,Left ,54,1756034493702 ,48,5081544736181 ,65,6831503569583
27.4593431 ,Left ,54,1652802949917 ,48,4997563459743 ,65,6175927476244
27.4816694 ,Left ,54,144528974761 ,48,4699335764781 ,65,5960617613258
27.5031007 ,Left ,54,1735011098501 ,48,4301796723906 ,65,63719346992
27.5193123 ,Left ,54,2398916352723 ,48,3940555621612 ,65,6789657051293
27.5418125 ,Left ,54,2739626623221 ,48,3776691449775 ,65,6935632080853
27.5631041 ,Left ,54,226932556197 ,48,3276679074752 ,65,6675829863729
27.5792906 ,Left ,54,2657960691273 ,48,3446416985857 ,65,6092355785177
27.601764 ,Left ,54,3408365768151 ,48,4442388492023 ,65,5127037194391
27.6230932 ,Left ,54,4897898367525 ,48,6012049574264 ,65,501375993962
27.6387427 ,Left ,54,6623404804518 ,48,7459737287373 ,65,57027085499
27.66187 ,Left ,54,7185965592694 ,48,8363631784283 ,65,6172374507077
27.6842863 ,Left ,54,7467819472686 ,48,8642616080792 ,65,6135235067425
27.6986336 ,Left ,54,746115801455 ,48,8482479490915 ,65,5909931639289
27.7218285 ,Left ,54,7611363655089 ,48,806723368123 ,65,5662390171031
27.7443323 ,Left ,54,7315514024936 ,48,7737148371295 ,65,5407352728904
27.7593578 ,Left ,54,7125071320364 ,48,7464243059614 ,65,5384312941652
27.7818339 ,Left ,54,7084387098447 ,48,7134525264681 ,65,5362421904589
27.8042168 ,Left ,54,7704598115453 ,48,7043398297446 ,65,5267541867302
27.8192835 ,Left ,54,8132528266331 ,48,7431388040926 ,65,5289919589523
27.8417475 ,Left ,54,8159747672657 ,48,8260157735357 ,65,515308966786
27.8642864 ,Left ,54,8369107278891 ,48,8639389614596 ,65,4878557104131
27.8786172 ,Left ,54,9327524357178 ,48,8698763453609 ,65,4663164700354
27.9017983 ,Left ,54,9746432398783 ,48,8433525638444 ,65,4157958668745
27.924292 ,Left ,54,9634683666501 ,48,8428280050803 ,65,3259312090306
27.9386649 ,Left ,54,9054163586483 ,48,8769778412183 ,65,2787687134724
27.9617227 ,Left ,54,8796758031095 ,48,8920002316024 ,65,3221369662003
27.9843817 ,Left ,54,9087122656959 ,48,8846085672649 ,65,4050550654448
27.9986332 ,Left ,54,9116548298841 ,48,8497583332081 ,65,4803272141322
28.0218875 ,Left ,54,8498797736302 ,48,8558714547522 ,65,5210110672791
28.0443452 ,Left ,54,7714274821773 ,48,859354333025 ,65,524479292789
28.0585935 ,Left ,54,7689116517863 ,48,8512716791779 ,65,5142742702037
28.0817668 ,Left ,54,8204828938952 ,48,8487103151054 ,65,4984978927836
28.1043102 ,Left ,54,8148648914833 ,48,8580654984998 ,65,4616738520633
28.1186539 ,Left ,54,831250090739 ,48,9169737918158 ,65,4410492388846
28.1418945 ,Left ,54,8236441410843 ,48,9864744436897 ,65,4077537057467
28.1718781 ,Left ,54,8746303842259 ,49,0830823733946 ,65,3727440108286
28.1854604 ,Left ,55,0366178125536 ,49,1786459172818 ,65,3505920634162
28.2018015 ,Left ,55,1171505328143 ,49,200434243649 ,65,3142916292776
28.2242425 ,Left ,55,1515127930305 ,49,1658014293195 ,65,2577802556215
28.2454943 ,Left ,55,1454563797213 ,49,1124258090996 ,65,1651549598966
28.2618566 ,Left ,55,1752622011011 ,49,0609388820108 ,65,0568856601396
28.2919026 ,Left ,55,2076656697005 ,48,9757392534632 ,64,9349393138905
28.305576 ,Left ,55,2402507952426 ,48,8654432943607 ,64,7851430276204
28.32929 ,Left ,55,2875230390333 ,48,7802591146485 ,64,6175162875275
28.3443499 ,Left ,55,2926852154422 ,48,7177691196713 ,64,469760789896
28.3656461 ,Left ,55,2369263749387 ,48,6490593247641 ,64,340888680047
28.3818465 ,Left ,55,1956369966223 ,48,5797713980649 ,64,2348137462205
28.4043887 ,Left ,55,2240775073363 ,48,5304888994925 ,64,1348697129284
28.4256433 ,Left ,55,2471701296064 ,48,5012842622259 ,64,0566639717912
28.4410453 ,Left ,55,1889075195255 ,48,5012253040682 ,64,0091431454383
28.4642363 ,Left ,55,1698283384696 ,48,5472708853339 ,63,9735815573262
28.4855717 ,Left ,55,1919309881148 ,48,6032507523379 ,63,9295229789648
28.5017164 ,Left ,55,204570482462 ,48,6678039566789 ,63,8759788930377
28.5303335 ,Left ,55,2027691926429 ,48,7330454907251 ,63,8336482739829
28.5455249 ,Left ,55,1741521651316 ,48,7899013970552 ,63,8318435118415
28.5679809 ,Left ,55,1299308135384 ,48,8632609740578 ,63,8411035226803
28.5842347 ,Left ,55,0666444735367 ,48,9318251733559 ,63,8658241741952
28.6052515 ,Left ,55,0225243205872 ,49,0022123218112 ,63,9048529461978
28.6217669 ,Left ,55,0017183019434 ,49,0471414891733 ,63,9515237233908
28.6441166 ,Left ,54,9794883411178 ,49,0920533157827 ,64,0053240613159
28.6668169 ,Left ,54,9546536758083 ,49,146359171301 ,64,049112451972
28.6818022 ,Left ,54,9852388545778 ,49,185779599082 ,64,0756714086592
28.7042375 ,Left ,55,0496121948284 ,49,1998562680732 ,64,0942663078571
28.7268431 ,Left ,55,1039991117642 ,49,1841069744225 ,64,1097315234655
28.7418474 ,Left ,55,1215540631209 ,49,1582785081739 ,64,1352550440317
28.7641863 ,Left ,55,1548554926663 ,49,1811597039859 ,64,1489906690509
28.7868144 ,Left ,55,2296214900674 ,49,1895295844739 ,64,1217211238859
28.8011833 ,Left ,55,2882975960016 ,49,1741395491038 ,64,0875335093101
28.8243073 ,Left ,55,3482857671661 ,49,1541040928604 ,64,0392807400852
28.8468367 ,Left ,55,4145245997024 ,49,1307351179707 ,63,971387363666
28.8612174 ,Left ,55,438181083068 ,49,0558875626279 ,63,9628626454262
28.8842584 ,Left ,55,4228177868575 ,48,9522813522182 ,63,9632483021362
28.906891 ,Left ,55,4450161362444 ,48,8761715073687 ,63,8845740827213
28.9211356 ,Left ,55,4112323721493 ,48,8533241729514 ,63,8492292689792
28.9444788 ,Left ,55,3772945176571 ,48,875265433362 ,63,8402153223763
28.9667989 ,Left ,55,3707536348928 ,48,9196318442914 ,63,8268260435958
28.9811796 ,Left ,55,3572413856702 ,48,9808861332195 ,63,8225335117078
29.0043735 ,Left ,55,3224261093117 ,49,0592839451042 ,63,8399728417973
29.0270247 ,Left ,55,283460704326 ,49,1464912217604 ,63,8669558942381
29.0411828 ,Left ,55,254292102883 ,49,2201908092145 ,63,9072989425876
29.0643026 ,Left ,55,2253967879959 ,49,283251240923 ,63,9590843815188
29.0867821 ,Left ,55,1834223007426 ,49,3658976316226 ,63,9980340988036
29.1012107 ,Left ,55,1402135071483 ,49,4596673902276 ,64,0380204130155
29.1248039 ,Left ,55,104556272499 ,49,542183529333 ,64,1011870800272
29.1468131 ,Left ,55,1021254024136 ,49,6273077459428 ,64,1838603313861
29.1680911 ,Left ,55,095747467606 ,49,6946993397214 ,64,2577876471101
29.1843857 ,Left ,55,0986024499401 ,49,7332259396166 ,64,318294089308
29.2067935 ,Left ,55,1532611130026 ,49,7412147923162 ,64,3869021245548
29.2280823 ,Left ,55,247806268555 ,49,7587641407836 ,64,4250829318057
29.2442531 ,Left ,55,2369018000105 ,49,7326320090105 ,64,41813292188
29.2665396 ,Left ,55,2622336544579 ,49,7286355389103 ,64,3423407124991
29.2877803 ,Left ,55,3915933726296 ,49,7254099346038 ,64,2157256204053
29.3042003 ,Left ,55,4416632909638 ,49,695099026647 ,63,9912536458624
29.3267927 ,Left ,55,4860699978168 ,49,6136182177946 ,63,7346262333474
29.34809 ,Left ,55,4877862047717 ,49,4948024137144 ,63,4893014728543
29.3637803 ,Left ,55,481360869334 ,49,3791971897002 ,63,2275108542781
29.3868893 ,Left ,55,4701889973248 ,49,2457959220718 ,63,0192593399009
29.4079108 ,Left ,55,4549741616038 ,49,1306945031574 ,62,8772683540509
29.4381912 ,Left ,55,4802039438626 ,49,0391359411563 ,62,8164815575399
29.4468666 ,Left ,55,5070648998332 ,48,9736387633995 ,62,8309319940699
29.4682039 ,Left ,55,4497910594569 ,48,9396592165532 ,62,8914490577174
29.4836803 ,Left ,55,4182482916039 ,48,9388395527384 ,62,9697631563416
29.5067983 ,Left ,55,3836419447963 ,48,9289502411101 ,63,0702461827153
29.5281963 ,Left ,55,3500297989511 ,48,9277943159533 ,63,2050715224029
29.543674 ,Left ,55,3271452138993 ,48,9525811779676 ,63,3349639500751
29.5667863 ,Left ,55,3267182587918 ,49,0078153662612 ,63,4582865805569
29.5894052 ,Left ,55,3036462548158 ,49,0601247189442 ,63,5741869740523
29.6037511 ,Left ,55,301067023153 ,49,1265379864 ,63,6665309515081
29.6268466 ,Left ,55,2784250746945 ,49,2015064876551 ,63,7426190816473
29.6492512 ,Left ,55,1947272700804 ,49,2125808674084 ,63,8374131638426
29.6635921 ,Left ,55,175386153177 ,49,2740472397494 ,63,921960441834
29.6867664 ,Left ,55,2645093831022 ,49,4340152079186 ,63,947961328563
29.7091951 ,Left ,55,3097834201627 ,49,5936574399605 ,63,9331504605116
29.7302438 ,Left ,55,379622073985 ,49,712564567976 ,63,9223752992053
29.7469141 ,Left ,55,3897916169197 ,49,7513755152078 ,63,9338129259149
29.7691939 ,Left ,55,3260497514619 ,49,765749974259 ,63,9229083445083
29.7899824 ,Left ,55,2581875544731 ,49,7243693611255 ,63,8809977536237
29.8065168 ,Left ,55,2448480626968 ,49,659236469635 ,63,8412859955715
29.8291919 ,Left ,55,2977066328329 ,49,5887481638032 ,63,8182088764968
29.8435083 ,Left ,55,3799411483005 ,49,505641552008 ,63,8010567788172
29.8670264 ,Left ,55,4501776161978 ,49,4292282960756 ,63,7801736609324
29.8891746 ,Left ,55,4299801735362 ,49,3815010413284 ,63,73635259095
29.9102445 ,Left ,55,3302872244652 ,49,3363197921165 ,63,7251307905331
29.9267222 ,Left ,55,2874088418567 ,49,3161798445171 ,63,7435627088813
29.9553816 ,Left ,55,3059048314151 ,49,3414729664982 ,63,7488286365914
29.970335 ,Left ,55,2938258365081 ,49,3956084397995 ,63,754004806253
29.9865199 ,Left ,55,2698939823518 ,49,4631627484971 ,63,7787312629325
30.0091074 ,Left ,55,2745670640907 ,49,5438978306908 ,63,813876417868
30.0233689 ,Left ,55,2708875129724 ,49,5993972359315 ,63,8658716941728
30.0467383 ,Left ,55,2890091523503 ,49,6285872144224 ,63,9003569342955
30.0691773 ,Left ,55,2914411274516 ,49,6209199749217 ,63,9253510649494
30.0901835 ,Left ,55,2711487843497 ,49,6012437478664 ,63,9555450199199
30.1127843 ,Left ,55,2577795729474 ,49,5711756511304 ,63,9652022512442
30.1291927 ,Left ,55,2855030251568 ,49,5452955084972 ,63,9757289962241
30.1502374 ,Left ,55,3494053331828 ,49,5123346462648 ,63,9549253625577
30.1666376 ,Left ,55,4056627803872 ,49,4399782784174 ,63,9313138638349
30.1719768 ,Left ,55,4436667127833 ,49,3639849606435 ,63,9171114627462
30.194769 ,Left ,55,4920156853989 ,49,2966652768425 ,63,9352254284241
30.2125998 ,Left ,55,5223685163298 ,49,233301151542 ,63,9525338403796
30.2320186 ,Left ,55,5870155845953 ,49,1670494129578 ,63,9802413636272
30.2544403 ,Left ,55,645256242947 ,49,108982811106 ,63,9805209915732
30.2724575 ,Left ,55,6251385616086 ,49,0619828934668 ,63,9342798103899
30.2920515 ,Left ,55,5814997562521 ,49,0336475038852 ,63,8945332108511
30.3143922 ,Left ,55,5425130543257 ,49,0133448643144 ,63,8696788887398
30.3325977 ,Left ,55,4861439793409 ,49,0065963679641 ,63,8506183620161
30.3522483 ,Left ,55,4732603042334 ,49,0183299952766 ,63,8323741132598
30.3746458 ,Left ,55,4932105887586 ,49,0348923913138 ,63,8204647743805
30.392438 ,Left ,55,5131224102418 ,49,0550938159516 ,63,8139639418584
30.4120129 ,Left ,55,4911568343923 ,49,0971887707233 ,63,8173059882982
30.4350221 ,Left ,55,4277750766668 ,49,1384540863104 ,63,8250387136052
30.4526777 ,Left ,55,3741219616822 ,49,1658289776341 ,63,8484158174142
30.4722753 ,Left ,55,3745021897823 ,49,1898840040265 ,63,8934888236561
30.4949191 ,Left ,55,3777672739948 ,49,2111634071485 ,63,9712600953172
30.5170722 ,Left ,55,363229228072 ,49,2360612007072 ,64,0880064376664
30.5318571 ,Left ,55,3262720913992 ,49,2448450300963 ,64,2472753203638
30.5546512 ,Left ,55,2916334120181 ,49,2228513616802 ,64,4392427030219
30.5770165 ,Left ,55,3024200896673 ,49,1791681254727 ,64,6155491742687
30.5920256 ,Left ,55,3783110819847 ,49,1564411503623 ,64,7486515723651
30.6145146 ,Left ,55,3592783046249 ,49,1372045580513 ,64,8111132332573
30.6371959 ,Left ,55,3231733652346 ,49,1786282253562 ,64,8636986663219
30.6523309 ,Left ,55,4454326869814 ,49,2957377886018 ,64,9211619023777
30.6748447 ,Left ,55,504930058352 ,49,4564164226148 ,64,9625405121347
30.6972799 ,Left ,55,5046018964805 ,49,6141070284715 ,64,9847979635065
30.7122259 ,Left ,55,458638282606 ,49,6657830649438 ,64,9984256119984
30.7348676 ,Left ,55,4260104982608 ,49,6242061487147 ,64,9914399785218
30.7571764 ,Left ,55,3895174920611 ,49,5481920428353 ,64,9894878171866
30.7721131 ,Left ,55,3555406015858 ,49,4600241647501 ,64,9857987256215
30.794875 ,Left ,55,3200600304845 ,49,376394552189 ,64,9879520756077
30.8127827 ,Left ,55,2938770868284 ,49,3105776714862 ,64,9977055065292
30.8325733 ,Left ,55,2916625105988 ,49,2652851762445 ,65,0104010267003
30.8546375 ,Left ,55,3680691002619 ,49,2362335768796 ,65,0149562942457
30.8724664 ,Left ,55,4489229098055 ,49,2145506269602 ,64,9924644178472
30.8922756 ,Left ,55,3694129065818 ,49,2226728049804 ,65,0021520235655
30.9147937 ,Left ,55,3329857222897 ,49,2839211831916 ,65,0227242645104
30.9326387 ,Left ,55,3290309759963 ,49,2860295226396 ,65,0473195688773
30.9522441 ,Left ,55,417913058771 ,49,2524016386473 ,65,040808761574
30.9746679 ,Left ,55,4811154401869 ,49,2092703239363 ,65,0160401236007
30.9925259 ,Left ,55,4770022818509 ,49,2248380358088 ,65,0026544714118
31.0121979 ,Left ,55,3839984829643 ,49,2317771728375 ,65,0199882293069
31.0348345 ,Left ,55,4220762482042 ,49,2818529519364 ,64,9770868285093
31.0571496 ,Left ,55,4550586621204 ,49,4091670290938 ,64,9381448064218
31.0720026 ,Left ,55,4132682248652 ,49,6168879403439 ,64,9314948268001
31.0946743 ,Left ,55,4074301104786 ,49,7489029429743 ,64,964227878067
31.1170347 ,Left ,55,4325160114512 ,49,8594424886179 ,64,9913979162273
31.1333055 ,Left ,55,410641156116 ,49,8962284170078 ,65,0090288953265
31.154427 ,Left ,55,3415784847483 ,49,8482167890909 ,65,0575141829333
31.1770421 ,Left ,55,2901279990849 ,49,7674836768481 ,65,1261385077552
31.1936452 ,Left ,55,3157127348739 ,49,7145168241354 ,65,1771966621857
31.2145423 ,Left ,55,3320250107194 ,49,6819505290175 ,65,2022089515252
31.2327322 ,Left ,55,304651873909 ,49,6418021214725 ,65,2603010909965
31.2535619 ,Left ,55,3268470462482 ,49,6162420866174 ,65,2887927727786
31.2746506 ,Left ,55,3574468662834 ,49,5839403874069 ,65,26805341646
31.2927329 ,Left ,55,3067200001866 ,49,5939577814948 ,65,2346202338019
31.3135931 ,Left ,55,3096258895085 ,49,651112329755 ,65,204373429714
31.3343168 ,Left ,55,3974916838371 ,49,6761721526709 ,65,1416802220366
31.3570041 ,Left ,55,4834661921337 ,49,6280676938131 ,65,0516460473858
31.373398 ,Left ,55,5315531129894 ,49,5761670371599 ,64,9227211471763
31.3945586 ,Left ,55,5553889623728 ,49,5201540813394 ,64,7889233434616
31.4122254 ,Left ,55,5480635015203 ,49,4069551744043 ,64,6698783054308
31.4333482 ,Left ,55,6117630888953 ,49,2785130604345 ,64,553616192791
31.4546515 ,Left ,55,7050474756454 ,49,1859373978768 ,64,4074497652866
31.4724202 ,Left ,55,7255437191911 ,49,0897297520631 ,64,2756791483467
31.4948191 ,Left ,55,6377366076311 ,49,0119353235524 ,64,1523926999737
31.5145739 ,Left ,55,5615138089148 ,48,979691838502 ,64,0335160363725
31.532475 ,Left ,55,5610013016756 ,48,9881603823318 ,63,9453155932533
31.5551413 ,Left ,55,5980269177635 ,49,0011425265413 ,63,8665356039787
31.574878 ,Left ,55,5764306118106 ,49,0261756786929 ,63,8210537078979
31.5925564 ,Left ,55,502323789271 ,49,073741612624 ,63,8581289777522
31.6210441 ,Left ,55,4483720355757 ,49,1318490542103 ,63,9387699302245
31.6348615 ,Left ,55,4024782989512 ,49,1981638906207 ,64,014248751135
31.657224 ,Left ,55,3581652841316 ,49,2990636311891 ,64,0541384920052
31.6751205 ,Left ,55,3224681500454 ,49,4279809828159 ,64,0857639854933
31.6949199 ,Left ,55,3057069987333 ,49,570764385998 ,64,1358148377147
31.7124813 ,Left ,55,3068711423381 ,49,6819787566146 ,64,2088108323916
31.735321 ,Left ,55,3098437296126 ,49,725230022451 ,64,2664769077998
31.7548957 ,Left ,55,2372986709264 ,49,7577271605206 ,64,3188632758333
31.7725261 ,Left ,55,1652851662852 ,49,7943796226596 ,64,3482129430757
31.7952997 ,Left ,55,2009666376812 ,49,8121550068571 ,64,3601280226331
31.8147912 ,Left ,55,2884264331294 ,49,7696432409609 ,64,3991571548014
31.8325378 ,Left ,55,332342968513 ,49,6743387664956 ,64,3714722775704
31.8552744 ,Left ,55,2539972514537 ,49,6293621059566 ,64,28194432908
31.8747296 ,Left ,55,1389494767529 ,49,6516180748018 ,64,1684821385908
31.9000429 ,Left ,55,1597133669259 ,49,6432924508882 ,64,081215892415
31.9153163 ,Left ,55,2549450553386 ,49,5574143039435 ,63,9887208128202
31.9348734 ,Left ,55,296813762973 ,49,4311515864487 ,63,8908218561768
31.9526821 ,Left ,55,2768000737796 ,49,2846990220818 ,63,8139725129876
31.9752026 ,Left ,55,239826752014 ,49,1418431763731 ,63,7770825165143
31.9950431 ,Left ,55,1646107450723 ,49,0519894859596 ,63,7964920829173
32.0123559 ,Left ,55,1644596722834 ,49,0092699586501 ,63,8422908340639
32.0341822 ,Left ,55,2342822347427 ,48,9840001129431 ,63,8613036924008
32.0556007 ,Left ,55,2573730337 ,48,9560554693591 ,63,8844137363188
32.0709932 ,Left ,55,2120847730453 ,48,9776547156178 ,63,9180922924579
32.0942098 ,Left ,55,153536562264 ,49,0224883951242 ,63,9442284066573
32.1153647 ,Left ,55,1421007466628 ,49,0761077153707 ,63,9642631339238
32.1317347 ,Left ,55,1987731632188 ,49,1105419634791 ,63,987963688696
32.1542241 ,Left ,55,2211338120592 ,49,1256798364083 ,64,0366624235133
32.1770804 ,Left ,55,1865915649783 ,49,1751700874346 ,64,0975316396539
32.1917392 ,Left ,55,1921156179325 ,49,2763415263409 ,64,1636853297155
32.2143469 ,Left ,55,1685536292076 ,49,4029825881294 ,64,2648568341955
32.2355663 ,Left ,55,1880745473942 ,49,5094754076436 ,64,3898305824882
32.2508936 ,Left ,55,2528271385502 ,49,6009409188543 ,64,4000847231424
32.2742578 ,Left ,55,2940477290329 ,49,6781424034857 ,64,3933209050052
32.2951642 ,Left ,55,2633680457503 ,49,8130824827352 ,64,3692207485801
32.311128 ,Left ,55,2583820653859 ,49,8820164168087 ,64,3255626342368
32.3347863 ,Left ,55,2618248705051 ,49,8593419291335 ,64,2830286921269
32.355224 ,Left ,55,2730900884723 ,49,7866767315552 ,64,2280384762602
32.3711517 ,Left ,55,2892391297832 ,49,716572968269 ,64,1586748000613
32.394298 ,Left ,55,3278231183784 ,49,6110085722798 ,64,0829228311155
32.4170049 ,Left ,55,3372780216078 ,49,5037956772057 ,63,9984673232173
32.431162 ,Left ,55,3911644250911 ,49,423475936123 ,63,9276084424174
32.454413 ,Left ,55,4876411887237 ,49,3469955214177 ,63,8734158159864
32.4768636 ,Left ,55,5280912489916 ,49,2915694032314 ,63,8121532736542
32.4911246 ,Left ,55,4857307197589 ,49,2602219662725 ,63,7825477682055
32.5143323 ,Left ,55,4561873068641 ,49,2347599476563 ,63,7726225617871
32.5368747 ,Left ,55,4377083728553 ,49,2010883236101 ,63,7554315472504
32.5520177 ,Left ,55,4541040170905 ,49,1722499229758 ,63,7406206345041
32.5740938 ,Left ,55,4953745593749 ,49,1751689000436 ,63,714996056734
32.5968476 ,Left ,55,4798836182135 ,49,1994383393078 ,63,7052239893437
32.611066 ,Left ,55,4002344637537 ,49,2509391207597 ,63,7305676094983
32.6342071 ,Left ,55,3443513941121 ,49,3332488611388 ,63,7668406075799
32.6566608 ,Left ,55,3664155760115 ,49,4109211973625 ,63,7956386559332
32.6709108 ,Left ,55,375516546253 ,49,4591097441047 ,63,8301289734613
32.6944077 ,Left ,55,3553827617337 ,49,4839510581714 ,63,8789454299734
32.7163735 ,Left ,55,3393325973868 ,49,4730079875867 ,63,9827565564445
32.7310432 ,Left ,55,3449904138655 ,49,4712055338483 ,64,087264674322
32.7541487 ,Left ,55,3387793733948 ,49,4690826114576 ,64,141324989721
32.7767367 ,Left ,55,3614740679767 ,49,4320329582702 ,64,1544350848702
32.797573 ,Left ,55,4405192570972 ,49,3271006342099 ,64,1509112597773
32.8142726 ,Left ,55,592287058185 ,49,2343071612052 ,64,1294086986184
32.8368145 ,Left ,55,6696686687854 ,49,1788115564013 ,64,136180940994
32.8579263 ,Left ,55,648443349797 ,49,1122144085599 ,64,1610738594722
32.8743273 ,Left ,55,6640596794321 ,49,0148785508676 ,64,127908919421
32.8967343 ,Left ,55,6929201975989 ,48,9233005822382 ,64,0791412656712
32.9177323 ,Left ,55,670722379022 ,48,8734429320618 ,64,0110069691342
32.9341783 ,Left ,55,6233590544012 ,48,8355075916598 ,63,9410708355951
32.9565549 ,Left ,55,6036128223543 ,48,810146510394 ,63,9078049291295
32.9776884 ,Left ,55,5806714191828 ,48,832056912726 ,63,9055730880528
32.9939939 ,Left ,55,5670348558225 ,48,8912128512177 ,63,914678989657
33.0164406 ,Left ,55,5804922359797 ,48,9594510431311 ,63,9003334559038
33.0378417 ,Left ,55,6021266770498 ,48,990645603175 ,63,8754413124759
33.054131 ,Left ,55,5586762091629 ,49,0154401518244 ,63,9101818935505
33.0768432 ,Left ,55,5216776870894 ,49,057708823431 ,63,9525852099283
33.097864 ,Left ,55,4698707567145 ,49,0890394374126 ,64,0203116686762
33.1141878 ,Left ,55,462357013045 ,49,1174454570702 ,64,1206690153404
33.1369141 ,Left ,55,4533422437442 ,49,1078996654797 ,64,2410173839168
33.1654163 ,Left ,55,4252367298226 ,49,0796232169426 ,64,3734888801706
33.1735437 ,Left ,55,4108829029793 ,49,0584571855582 ,64,5011134619812
33.1968596 ,Left ,55,4172498941086 ,49,0775682272205 ,64,6059404331538
33.2178466 ,Left ,55,3735193051498 ,49,099905518707 ,64,6513099839853
33.2333207 ,Left ,55,3984268607039 ,49,1316551251051 ,64,6974396319417
33.2567832 ,Left ,55,4510045260296 ,49,2120933824096 ,64,7620451289172
33.2776442 ,Left ,55,3896063780466 ,49,3496729228206 ,64,804513875733
33.2935814 ,Left ,55,3556673494243 ,49,4884268084236 ,64,813487862424
33.3169657 ,Left ,55,3854593938717 ,49,5516416003314 ,64,8191923322129
33.3393593 ,Left ,55,3968685334309 ,49,5422938540559 ,64,8274077265735
33.3537298 ,Left ,55,3438518458498 ,49,509511710262 ,64,8404892269755
33.3768672 ,Left ,55,3040166250049 ,49,4708494796191 ,64,8627313628623
33.399248 ,Left ,55,3498254285181 ,49,4137332151493 ,64,8542083728656
33.4138909 ,Left ,55,3887834105367 ,49,3298020304877 ,64,8431581857777
33.4366591 ,Left ,55,3965313453081 ,49,2502541568785 ,64,8598302326993
33.4589701 ,Left ,55,3820552431143 ,49,2236543907346 ,64,8768388531667
33.4740632 ,Left ,55,3618095233659 ,49,2367511797236 ,64,87316218754
33.4968582 ,Left ,55,3828131517251 ,49,3315393358024 ,64,8388065955696
33.5191632 ,Left ,55,4462942891022 ,49,490296586318 ,64,8313515106219
33.5402769 ,Left ,55,447409781312 ,49,6045863632718 ,64,8790318397667
33.556764 ,Left ,55,5395693109366 ,49,6954993063872 ,64,9614037967211
33.5791411 ,Left ,55,5421597848875 ,49,7598385954652 ,65,0012656048476
33.600417 ,Left ,55,6076227609565 ,49,7617513829978 ,65,002831726915
33.6167782 ,Left ,55,6196676913091 ,49,702821486164 ,64,9755713509814
33.6392996 ,Left ,55,6068914380772 ,49,6510878964722 ,64,8945817719909
33.6534748 ,Left ,55,5465415074523 ,49,5982625423621 ,64,8568337203605
33.6768562 ,Left ,55,5281164693528 ,49,5927205917006 ,64,8275662191232
