timestamp,event,roll,pitch,yaw
0.0588669 ,Left ,67,71236283581 ,44,8398722424587 ,64,0066502262382
0.0803194 ,Left ,67,7143403121815 ,44,8562536580502 ,64,0136662218453
0.1027971 ,Left ,67,719722508509 ,44,8600427720959 ,64,0433109493108
0.1192069 ,Left ,67,7322376463594 ,44,865166680731 ,64,0780066186744
0.1402735 ,Left ,67,7602795575562 ,44,860727759065 ,64,0982366328985
0.1626995 ,Left ,67,774287346397 ,44,8293692821896 ,64,1142706553976
0.179236 ,Left ,67,7743795940177 ,44,779795536327 ,64,1349474835121
0.2002007 ,Left ,67,7710809250146 ,44,727382421571 ,64,1636447320018
0.2229727 ,Left ,67,7600828295842 ,44,6918514318417 ,64,2065268803152
0.2407411 ,Left ,67,7490026995667 ,44,6583631588115 ,64,259434510767
0.260232 ,Left ,67,7354342990325 ,44,6226426755982 ,64,3048178036702
0.2826548 ,Left ,67,7334253927326 ,44,5850738552574 ,64,3377957248628
0.300742 ,Left ,67,7364888188256 ,44,5402846345815 ,64,350849112308
0.3203164 ,Left ,67,724517371001 ,44,4946059760782 ,64,3583225849538
0.3429163 ,Left ,67,7294611807522 ,44,4584556842734 ,64,3578366568955
0.3607485 ,Left ,67,7441368873793 ,44,431670624097 ,64,3419483017161
0.3802839 ,Left ,67,7674582620201 ,44,4092876455425 ,64,3183609843267
0.39843 ,Left ,67,7902951957763 ,44,3898793426612 ,64,2995554666709
0.4208867 ,Left ,67,8178607485376 ,44,3817120519871 ,64,2847364501557
0.4404803 ,Left ,67,8288641981526 ,44,3883305380317 ,64,2847579175792
0.457959 ,Left ,67,8296100706808 ,44,3930712872429 ,64,2983126165857
0.4807534 ,Left ,67,819620256234 ,44,4066634773962 ,64,3267097790463
0.5001527 ,Left ,67,7999249792917 ,44,4363549002947 ,64,357490194914
0.5185678 ,Left ,67,7670994347042 ,44,4617013902146 ,64,3863068648275
0.5409945 ,Left ,67,7198539541654 ,44,4798311768968 ,64,406756476531
0.5602574 ,Left ,67,6734814871558 ,44,5071956623338 ,64,4268728602877
0.5780093 ,Left ,67,6364064160307 ,44,5424449257062 ,64,4524096881484
0.6010816 ,Left ,67,5956355211608 ,44,5735396759371 ,64,478325409216
0.6208095 ,Left ,67,5520600772984 ,44,6044218930065 ,64,4868007204929
0.6384562 ,Left ,67,5211002862348 ,44,6283814912038 ,64,4853927860603
0.6609786 ,Left ,67,5099845857827 ,44,6644724236245 ,64,4767311358731
0.6807691 ,Left ,67,5028776782347 ,44,7167120506846 ,64,467136128842
0.6985506 ,Left ,67,4775087287916 ,44,7684853293855 ,64,4652679158632
0.7205736 ,Left ,67,4469894142407 ,44,8175503632554 ,64,4719806365533
0.7405231 ,Left ,67,4051092352714 ,44,8673024071435 ,64,4885371424102
0.7581798 ,Left ,67,3740324776003 ,44,9093098632671 ,64,5075897312308
0.7805589 ,Left ,67,341768527212 ,44,9376791473981 ,64,5211987594781
0.8015493 ,Left ,67,3157041174408 ,44,9539262077658 ,64,5159656770663
0.8180575 ,Left ,67,2657091570193 ,44,9538455869281 ,64,5059040690516
0.8407883 ,Left ,67,1522190144469 ,44,9357470565171 ,64,4960827818117
0.8616449 ,Left ,67,1257020965361 ,44,9417647984059 ,64,4796702280406
0.878208 ,Left ,67,0945225663158 ,44,9280257866125 ,64,468096194034
0.9006964 ,Left ,67,1398063799863 ,44,9453676697955 ,64,4354127903318
0.9217423 ,Left ,67,1696015783236 ,44,9722215547551 ,64,3978897457019
0.9458684 ,Left ,67,2147264649503 ,44,9971106595562 ,64,3592056864187
0.9605118 ,Left ,67,2647674402797 ,45,0322701985259 ,64,3292005081368
0.981582 ,Left ,67,2636157387443 ,45,0641471069623 ,64,3040141712671
0.9978533 ,Left ,67,2648267331785 ,45,1080152305613 ,64,2617532895161
1.0207422 ,Left ,67,2408713827814 ,45,132472124725 ,64,2292861648449
1.0415967 ,Left ,67,2168709313746 ,45,1806255179813 ,64,1858633088691
1.058096 ,Left ,67,1895871055269 ,45,2313181978917 ,64,1488657077074
1.0807705 ,Left ,67,1642257700566 ,45,2881896990382 ,64,1053819798756
1.1010976 ,Left ,67,1489233584229 ,45,3219567338868 ,64,0504621673034
1.116818 ,Left ,67,0995295660284 ,45,3064259220817 ,64,0059687279167
1.1399627 ,Left ,66,9985501682348 ,45,2507376131327 ,63,9882348067378
1.1609976 ,Left ,67,0307244063864 ,45,195184169111 ,63,9992960815659
1.1766568 ,Left ,67,041473930909 ,45,1673502245053 ,64,006404144565
1.1999694 ,Left ,67,0586746974229 ,45,1764348778133 ,64,0084887134919
1.2224273 ,Left ,67,0480930889371 ,45,1869691517126 ,63,9969499866223
1.2374401 ,Left ,67,073773279645 ,45,1970437295422 ,63,9820291990249
1.2596653 ,Left ,67,0537100618439 ,45,224412057587 ,63,9842319672268
1.2822167 ,Left ,66,9998913993883 ,45,2817322888184 ,63,9842769911404
1.2974121 ,Left ,66,8854927504026 ,45,3031865452445 ,63,9699264538421
1.319908 ,Left ,66,8636874030715 ,45,2916841333827 ,63,976845691051
1.3423591 ,Left ,66,8644353915772 ,45,2806413037404 ,63,9970943063141
1.3564777 ,Left ,66,9052746320252 ,45,3332394616392 ,64,0281314019079
1.3798723 ,Left ,66,9042786682668 ,45,4203036681787 ,64,0331050877192
1.4024603 ,Left ,66,8950617370905 ,45,4742472216514 ,64,0718210574856
1.4168167 ,Left ,66,873638177553 ,45,5402077312025 ,64,1223648061563
1.4398807 ,Left ,66,8725066997047 ,45,6027017519245 ,64,1901458158496
1.4625774 ,Left ,66,8439608492874 ,45,6792264910079 ,64,2248215165014
1.4766976 ,Left ,66,7930277073001 ,45,7545925200577 ,64,252440500705
1.4998712 ,Left ,66,7715343935741 ,45,8193631512876 ,64,2762166877374
1.5223219 ,Left ,66,7659497452446 ,45,8847178520672 ,64,2976447742226
1.5365834 ,Left ,66,734183176297 ,45,9406917087977 ,64,3120534314771
1.5597372 ,Left ,66,6903556939447 ,45,9786947807552 ,64,328213158238
1.5822507 ,Left ,66,6532967421922 ,46,0041994998493 ,64,3385356824373
1.596728 ,Left ,66,6244246793486 ,46,0220927878542 ,64,3360576887159
1.6200773 ,Left ,66,6050077314944 ,46,032036422571 ,64,3197896666757
1.6424631 ,Left ,66,585997296526 ,46,0251642657997 ,64,3001422302208
1.6636183 ,Left ,66,5658163710312 ,46,0038237990496 ,64,2779891691678
1.6798522 ,Left ,66,5320261634849 ,45,9762823567562 ,64,2506485160221
1.7024391 ,Left ,66,5167176313345 ,45,9538828823237 ,64,2129898265433
1.7232773 ,Left ,66,4366640081781 ,45,9122049620958 ,64,1763706467987
1.7398535 ,Left ,66,4157182490127 ,45,8603695026491 ,64,1619427542686
1.7624424 ,Left ,66,429688676575 ,45,8295927759161 ,64,1685432843955
1.7837047 ,Left ,66,4740320085637 ,45,8514190723235 ,64,1448144800989
1.7998916 ,Left ,66,5388791145511 ,45,882735310482 ,64,1087652889629
1.8224023 ,Left ,66,567427575102 ,45,8705536879586 ,64,0750648005931
1.8435884 ,Left ,66,6106741694028 ,45,8560141033143 ,64,0195902733501
1.8600277 ,Left ,66,6246646552086 ,45,8584552423104 ,63,9320285913067
1.8824422 ,Left ,66,6292514848978 ,45,8656770825939 ,63,8152678568032
1.9034677 ,Left ,66,6420648874095 ,45,8982738764637 ,63,6849352730913
1.9194658 ,Left ,66,6791313621379 ,45,9373217781745 ,63,5438652796156
1.9424915 ,Left ,66,6892911422762 ,45,9819071580081 ,63,3996302934735
1.963414 ,Left ,66,6728302936567 ,46,0305473705518 ,63,2523524634216
1.9792541 ,Left ,66,6595724172943 ,46,0730993538905 ,63,1078453069695
2.0026066 ,Left ,66,6541908885335 ,46,1220164376588 ,62,965805627971
2.0232823 ,Left ,66,6570646670521 ,46,1824964861647 ,62,8364920156324
2.0390204 ,Left ,66,6649826650725 ,46,2391827411559 ,62,7345722076354
2.0625375 ,Left ,66,6662329756484 ,46,2808553846522 ,62,6485478888562
2.0833032 ,Left ,66,6644156962275 ,46,313719945074 ,62,5805972162411
2.0991636 ,Left ,66,6695980584458 ,46,3555318235925 ,62,5235003715109
2.1223679 ,Left ,66,6698180040741 ,46,3918714491759 ,62,482967067615
2.1449683 ,Left ,66,6694792808654 ,46,4087084981066 ,62,4520621616572
2.1598472 ,Left ,66,6687310469892 ,46,408389981237 ,62,4290081195175
2.1825988 ,Left ,66,6670925382854 ,46,3976110080581 ,62,4055265375799
2.2050687 ,Left ,66,6555959605402 ,46,3873367554281 ,62,3811614260221
2.2200062 ,Left ,66,6490449553399 ,46,3798509734302 ,62,3510568052772
2.2424738 ,Left ,66,638020938817 ,46,365661580805 ,62,3264482676278
2.2652318 ,Left ,66,6253381069426 ,46,3512275431027 ,62,302372878531
2.279289 ,Left ,66,5427654533936 ,46,3161710588243 ,62,2785246455615
2.3024503 ,Left ,66,5223399467636 ,46,3089660973139 ,62,2747425777452
2.3313092 ,Left ,66,4561292392513 ,46,2597541411597 ,62,3075586825932
2.3394446 ,Left ,66,4456193408607 ,46,2445435521212 ,62,3460069843879
2.3625328 ,Left ,66,4085528062277 ,46,2030404687237 ,62,4119260600287
2.3850411 ,Left ,66,3685115508673 ,46,0772882634888 ,62,5181677491778
2.4062749 ,Left ,66,3780553661145 ,45,9236863562253 ,62,5737795143564
2.4225988 ,Left ,66,3686992897173 ,45,7630340551297 ,62,6167190487944
2.4449457 ,Left ,66,2903451209341 ,45,5995986181351 ,62,6366900780688
2.4662916 ,Left ,66,2576160457628 ,45,4251800200512 ,62,6464077646543
2.4825781 ,Left ,66,2991346873112 ,45,2480338504985 ,62,6653340917338
2.5050485 ,Left ,66,3588958040817 ,45,0871874314115 ,62,7139507060873
2.5263318 ,Left ,66,3830728880484 ,44,9598146611313 ,62,7957305710456
2.5425791 ,Left ,66,3892053933158 ,44,8760006087508 ,62,8879914187346
2.5655341 ,Left ,66,3831909832918 ,44,8351754808464 ,62,9870038711387
2.5862744 ,Left ,66,3768026205878 ,44,8409358079194 ,63,0713860822671
2.602484 ,Left ,66,3453039562905 ,44,8621328392879 ,63,1493419106029
2.6250374 ,Left ,66,3362907357528 ,44,8960422699538 ,63,2016730508315
2.6461093 ,Left ,66,3220798236436 ,44,9558686801694 ,63,2285714889172
2.6625457 ,Left ,66,3216563432608 ,45,0282662573389 ,63,2425412339016
2.6849978 ,Left ,66,3236519274433 ,45,0937480344934 ,63,2509073976735
2.7062816 ,Left ,66,3049573494666 ,45,1444788076889 ,63,2342529160247
2.7226929 ,Left ,66,2894194306566 ,45,2006731115545 ,63,2051460312419
2.7450886 ,Left ,66,3024238538095 ,45,2637669928292 ,63,1800080572651
2.7662557 ,Left ,66,3135447794448 ,45,3131543817606 ,63,1629113797056
2.7824682 ,Left ,66,311747211953 ,45,3556925631466 ,63,1413522512912
2.8050158 ,Left ,66,3013708458187 ,45,4030173346025 ,63,1188480369499
2.8262241 ,Left ,66,3163578059154 ,45,4583975731946 ,63,0928745600143
2.8424538 ,Left ,66,3112174440519 ,45,5053857301303 ,63,0711130424685
2.8647901 ,Left ,66,3111257661545 ,45,5540740822959 ,63,0454967466924
2.8874746 ,Left ,66,3024237078688 ,45,6008886532075 ,63,0179745908965
2.9024172 ,Left ,66,3048436040753 ,45,6487002974825 ,62,9926495631646
2.9248602 ,Left ,66,3073583910934 ,45,6940199820843 ,62,958022775531
2.9460048 ,Left ,66,2998254390313 ,45,7125278293945 ,62,9211230663393
2.962359 ,Left ,66,3076849275294 ,45,7180653948847 ,62,881869477176
2.9849653 ,Left ,66,3015819037391 ,45,7111908711502 ,62,8474205587579
3.0061858 ,Left ,66,2900229749982 ,45,6881410476828 ,62,8165767662697
3.0224375 ,Left ,66,277860486325 ,45,660752943529 ,62,7936076938505
3.0449791 ,Left ,66,2581797535441 ,45,6361026040538 ,62,7634797021797
3.0673905 ,Left ,66,1523214603412 ,45,5904023446037 ,62,751838350642
3.0820736 ,Left ,66,1231187136311 ,45,533132937247 ,62,7650341385449
3.1053013 ,Left ,66,1388226668605 ,45,4913142035897 ,62,7978452779567
3.1279166 ,Left ,66,1944603659925 ,45,5218017771135 ,62,7887988307012
3.1431 ,Left ,66,2341367944417 ,45,5416315394119 ,62,7623750840665
3.1653303 ,Left ,66,3259222303468 ,45,5453713446973 ,62,7536200585318
3.1879375 ,Left ,66,3656048584554 ,45,53742367859 ,62,7231391492806
3.2025863 ,Left ,66,4170338141549 ,45,5181908524956 ,62,6979758994607
3.2249109 ,Left ,66,4381620951703 ,45,4691574670995 ,62,6791175945873
3.2475243 ,Left ,66,4376017177627 ,45,4222404615404 ,62,6595548377272
3.2617984 ,Left ,66,4551590528358 ,45,3727043488798 ,62,6529655058779
3.2848692 ,Left ,66,4733272852788 ,45,3285276144463 ,62,6570427638576
3.3074469 ,Left ,66,47981287542 ,45,2820431267313 ,62,6815528095157
3.3217343 ,Left ,66,4906909997034 ,45,2371703532266 ,62,7224122176887
3.3449328 ,Left ,66,5123377104191 ,45,1774578775624 ,62,7647915050734
3.3674664 ,Left ,66,5097932319984 ,45,1003702402348 ,62,8106993085216
3.3819594 ,Left ,66,5498517570241 ,45,0145534729438 ,62,8487641336309
3.4049449 ,Left ,66,5746167155488 ,44,9276371995778 ,62,8925490345082
3.4275126 ,Left ,66,5926058822919 ,44,8429745543643 ,62,9347935323133
3.4422303 ,Left ,66,610385662909 ,44,7669083097014 ,62,9735745702689
3.4650205 ,Left ,66,6357561862712 ,44,6993685949347 ,63,0071151734453
3.4879221 ,Left ,66,6554779521203 ,44,6358467841873 ,63,0405267403713
3.501939 ,Left ,66,6734136256991 ,44,5856352534966 ,63,0670999626134
3.5249639 ,Left ,66,6921274155119 ,44,537356358149 ,63,0876443433937
3.5475527 ,Left ,66,7123455409207 ,44,5020770922285 ,63,1045632054251
3.568736 ,Left ,66,7296844082369 ,44,4728861994885 ,63,1219960217318
3.5850681 ,Left ,66,7508312978365 ,44,4479912187356 ,63,1366912433372
3.6074239 ,Left ,66,763675920797 ,44,4305946538909 ,63,1490806857023
3.6287237 ,Left ,66,7678152211936 ,44,42350879494 ,63,1617550267531
3.6449303 ,Left ,66,779449157148 ,44,4175583329746 ,63,1723998361504
3.6679996 ,Left ,66,7829439029088 ,44,42297891877 ,63,1912568666375
3.6887092 ,Left ,66,7815866693478 ,44,4369498653361 ,63,2114366194349
3.7046469 ,Left ,66,78544301666 ,44,4572484171561 ,63,2330154959375
3.7272937 ,Left ,66,7787933662487 ,44,4761046107673 ,63,2582727267238
3.7483239 ,Left ,66,7682727503782 ,44,4927670543948 ,63,2816238715531
3.764996 ,Left ,66,7637485911034 ,44,5116739572285 ,63,304058133923
3.7874051 ,Left ,66,7684060921662 ,44,5264568934787 ,63,3230372449699
3.808306 ,Left ,66,7690877309108 ,44,5400977746147 ,63,3377838606675
3.8248158 ,Left ,66,7736369617167 ,44,548912330254 ,63,3508979511946
3.84747 ,Left ,66,774147565385 ,44,5485278550429 ,63,35853877219
3.8684449 ,Left ,66,7603291124295 ,44,546480789804 ,63,3611686350382
3.8849386 ,Left ,66,7433286125966 ,44,5432389074286 ,63,3580774871899
3.907451 ,Left ,66,728795886564 ,44,5412224482412 ,63,3504288929081
3.9287483 ,Left ,66,7186014628275 ,44,5436346339208 ,63,3406240187138
3.9450226 ,Left ,66,7147415383722 ,44,5505184289382 ,63,3258360367462
3.9674132 ,Left ,66,7128854974819 ,44,5574379162623 ,63,3082340397016
3.9960113 ,Left ,66,719577091299 ,44,5560963973699 ,63,297968098326
4.0049454 ,Left ,66,7350938858795 ,44,5589274107265 ,63,2875306861228
4.0273643 ,Left ,66,7485439198071 ,44,562773888235 ,63,2775980174275
4.0499355 ,Left ,66,7707445839517 ,44,568340765071 ,63,2695158934135
4.0652216 ,Left ,66,7794644877499 ,44,5796908436715 ,63,2632430413918
4.0876859 ,Left ,66,7828456317471 ,44,5913863201716 ,63,2564683195131
4.1099782 ,Left ,66,8013693318194 ,44,608239082702 ,63,2489439466158
4.1249891 ,Left ,66,8234420513005 ,44,620487997066 ,63,2418736308755
4.147511 ,Left ,66,8408484943188 ,44,6346154076633 ,63,2352315321443
4.1699782 ,Left ,66,8469128947604 ,44,6529750399869 ,63,2251755826664
4.1842537 ,Left ,66,8550040970668 ,44,6794344067143 ,63,2136315636466
4.2074447 ,Left ,66,860740436631 ,44,7121644609377 ,63,2032269136767
4.2298595 ,Left ,66,8684130330486 ,44,7459903026686 ,63,1877815972054
4.244355 ,Left ,66,89391507978 ,44,7688986508262 ,63,1766117137122
4.2735625 ,Left ,66,9331215172794 ,44,7778184362594 ,63,172127506865
4.2898931 ,Left ,66,9767148034868 ,44,7684155442281 ,63,1737239815749
4.3043272 ,Left ,67,0293768599217 ,44,7443696501597 ,63,1842713908259
4.3274841 ,Left ,67,0826783463465 ,44,7072582559391 ,63,1954813163868
4.3502203 ,Left ,67,1486852979044 ,44,6691109960667 ,63,2023679606614
4.3644109 ,Left ,67,2330840089734 ,44,6264367119528 ,63,200232768349
4.3876456 ,Left ,67,3259124196455 ,44,5779592263 ,63,1931016351526
4.4099435 ,Left ,67,4142855426188 ,44,5292342467771 ,63,1929985921559
4.431031 ,Left ,67,4810098449312 ,44,4856980448211 ,63,1887815140875
4.4475214 ,Left ,67,5229216349624 ,44,4495114043679 ,63,1801341737634
4.4699095 ,Left ,67,5723103876611 ,44,4192985191414 ,63,1655320069706
4.4908914 ,Left ,67,6308541230399 ,44,3939260880478 ,63,1439105852129
4.5074756 ,Left ,67,687279259434 ,44,3718226795246 ,63,1181533081793
4.5300531 ,Left ,67,7405507567993 ,44,3549196637174 ,63,0973990290533
4.5511198 ,Left ,67,7703648751505 ,44,3352424540904 ,63,0889908777658
4.5675719 ,Left ,67,7837726038592 ,44,3073170236366 ,63,0769526616015
4.5898772 ,Left ,67,8026729670837 ,44,2801309031742 ,63,0631782305878
4.6112039 ,Left ,67,8409024068605 ,44,2526518866763 ,63,0563599368958
4.6275098 ,Left ,67,8385473183442 ,44,2224688065168 ,63,081649099367
4.6499792 ,Left ,67,7922349371494 ,44,1980806142728 ,63,1352476477319
4.6712868 ,Left ,67,7340545298241 ,44,1840735153353 ,63,1916605763501
4.6874403 ,Left ,67,677922192417 ,44,1900080948488 ,63,2273225001004
4.7099192 ,Left ,67,6462203104358 ,44,2201238642586 ,63,2676488091052
4.7311021 ,Left ,67,642948132147 ,44,2638295622251 ,63,3219354518766
4.747535 ,Left ,67,6031959040858 ,44,3235768825947 ,63,383840986504
4.769867 ,Left ,67,5452208768846 ,44,3919991617524 ,63,4406611363487
4.7909821 ,Left ,67,4987134300954 ,44,4562980966757 ,63,4905128297507
4.8074616 ,Left ,67,4721491315299 ,44,5264497140266 ,63,527090037897
4.8298674 ,Left ,67,4357899359682 ,44,6021180955174 ,63,5543258603719
4.8510255 ,Left ,67,3972531710608 ,44,6685020391955 ,63,5845930115823
4.8673489 ,Left ,67,3512927486517 ,44,7152030105193 ,63,6132337587234
4.8900039 ,Left ,67,3101072358338 ,44,7398314218223 ,63,6356373137931
4.9109556 ,Left ,67,2747333401404 ,44,7572971967703 ,63,6411247788628
4.927786 ,Left ,67,2398411711298 ,44,7760004675637 ,63,6448665354428
4.950067 ,Left ,67,1806536096944 ,44,7812045323717 ,63,6411306288273
4.9724601 ,Left ,67,1490418287497 ,44,8026369893425 ,63,6413132979284
4.978071 ,Left ,67,0987216626214 ,44,8094336447081 ,63,6418105519447
4.9929667 ,Left ,67,0713056647942 ,44,8599686208519 ,63,6244569123364
5.01549 ,Left ,67,1023392491166 ,44,9189534851439 ,63,5888418324638
5.0382082 ,Left ,67,1147268333884 ,44,984140868225 ,63,5523638754408
5.0529309 ,Left ,67,1468327671135 ,45,0392496842349 ,63,5154916268177
5.0754993 ,Left ,67,1432480026747 ,45,0922149603687 ,63,47334513404
5.0976727 ,Left ,67,1208985532924 ,45,1669838918185 ,63,4043751236425
5.1126194 ,Left ,67,1052975943994 ,45,2204030127223 ,63,348319948733
5.1353594 ,Left ,67,0900956290773 ,45,2663369799785 ,63,2962818955164
5.157715 ,Left ,67,077285007786 ,45,2869659470627 ,63,2356296772868
5.1727789 ,Left ,67,0346019087711 ,45,2985981797814 ,63,1878971711491
5.1953667 ,Left ,66,9599384730449 ,45,2902945943988 ,63,1281489122022
5.2181845 ,Left ,66,9587618917287 ,45,2731936257064 ,63,1032407905283
5.23272 ,Left ,66,9748603704321 ,45,2334231689316 ,63,1454052376271
5.255414 ,Left ,67,0064784122865 ,45,251672042726 ,63,1823442926657
5.2778356 ,Left ,67,0153951091718 ,45,2993703720911 ,63,1757966912246
5.2929159 ,Left ,66,9952593420598 ,45,3251909881653 ,63,169137739947
5.3152939 ,Left ,67,0127580074539 ,45,3428786204942 ,63,1732888941598
5.3380966 ,Left ,66,9937504001593 ,45,3628635061422 ,63,1714262739146
5.3529338 ,Left ,66,953970749779 ,45,3923969102372 ,63,1572818469119
5.3830418 ,Left ,66,8751428460396 ,45,4056270545096 ,63,1268381247166
5.3980929 ,Left ,66,8630012181288 ,45,3941919341824 ,63,1244577975421
5.4126045 ,Left ,66,8187402312231 ,45,4356919694598 ,63,1467888429633
5.4352134 ,Left ,66,8190825272658 ,45,5311839149084 ,63,1779611431653
5.45803 ,Left ,66,8216646024174 ,45,6413905252119 ,63,1995746679405
5.4731737 ,Left ,66,846800137404 ,45,7132408283079 ,63,2286393462163
5.4957656 ,Left ,66,9061312167906 ,45,7748486302482 ,63,2675968631151
5.5184822 ,Left ,66,8771479441822 ,45,7919742661894 ,63,3321664380871
5.5345619 ,Left ,66,8515734324368 ,45,8313646952652 ,63,3940786835403
5.5556488 ,Left ,66,8165490947325 ,45,8644025014284 ,63,4589530439439
5.5782647 ,Left ,66,7932726351171 ,45,8862506800366 ,63,5088697766183
5.5943405 ,Left ,66,777120283066 ,45,9106799038875 ,63,5479960529189
5.6184578 ,Left ,66,7448069848787 ,45,9396448063902 ,63,5669265804347
5.637926 ,Left ,66,7165815443317 ,45,9544924042027 ,63,5790035965426
5.6605059 ,Left ,66,686804872056 ,45,9585557692992 ,63,5768055547442
5.6755879 ,Left ,66,6621073121668 ,45,9521814571916 ,63,5648408794349
5.6982003 ,Left ,66,6404082131924 ,45,9364875693585 ,63,5456720435236
5.71431 ,Left ,66,6146382063539 ,45,9143527782476 ,63,5329259013816
5.7354572 ,Left ,66,6053691460406 ,45,8858823486081 ,63,5087542655441
5.7582224 ,Left ,66,5755333841009 ,45,8677367474391 ,63,4924614872971
5.7744248 ,Left ,66,5320005020163 ,45,8614371670038 ,63,5115363475902
5.7953841 ,Left ,66,5450037868426 ,45,8484011779376 ,63,5501189435184
5.8180028 ,Left ,66,5822280500865 ,45,8926527618236 ,63,5475241711348
5.8344266 ,Left ,66,6173698515997 ,45,9425685639188 ,63,5279215462728
5.8556417 ,Left ,66,6722684283292 ,45,9460146658153 ,63,5268146550689
5.8782434 ,Left ,66,6980422007621 ,45,9408407221251 ,63,4864394034561
5.8957942 ,Left ,66,7354466562516 ,45,9243309916813 ,63,4290321850257
5.9153993 ,Left ,66,7633740208049 ,45,883338432968 ,63,374399963002
5.9393188 ,Left ,66,7523312519856 ,45,8652826131743 ,63,3041826622487
5.9557779 ,Left ,66,757660606995 ,45,8612615761179 ,63,220492246118
5.9756577 ,Left ,66,7849216172035 ,45,8737839276719 ,63,1362116734277
5.9980267 ,Left ,66,8365559626759 ,45,8879994569832 ,63,0403298755806
6.0158863 ,Left ,66,8567911195876 ,45,9020101638694 ,62,9562145913455
6.035485 ,Left ,66,8429214672541 ,45,9325733635628 ,62,8792752406743
6.0580775 ,Left ,66,8391506193795 ,45,9925858770502 ,62,7970654787041
6.0758787 ,Left ,66,8399569077682 ,46,0625508310756 ,62,7056394167202
6.0956675 ,Left ,66,8654658464171 ,46,1321349633049 ,62,6280925998887
6.1179919 ,Left ,66,8720770592852 ,46,2090326557464 ,62,5446361553031
6.1358566 ,Left ,66,8518686146233 ,46,2874701706493 ,62,4642143448735
6.155655 ,Left ,66,8379039521338 ,46,3589922196379 ,62,3936023982965
6.1782446 ,Left ,66,8257414823367 ,46,4036797025775 ,62,3336428721833
6.1958535 ,Left ,66,8253535246891 ,46,4295142921288 ,62,2799889866434
6.2164481 ,Left ,66,8129254082053 ,46,4511712172568 ,62,2225234292578
6.2331654 ,Left ,66,7843826583607 ,46,4513032637445 ,62,1739850300813
6.263171 ,Left ,66,7834488202349 ,46,4411806808781 ,62,1333658231568
6.2753178 ,Left ,66,7084998469114 ,46,4215179184505 ,62,1082445244437
6.2932178 ,Left ,66,6239893724274 ,46,4126921470411 ,62,1156764749158
6.3155751 ,Left ,66,5159017685552 ,46,3814945901665 ,62,1780835812973
6.3351405 ,Left ,66,5317363072235 ,46,3893022073233 ,62,244266589259
6.3532562 ,Left ,66,5250045674366 ,46,3958174927807 ,62,276481920234
6.3757594 ,Left ,66,587745009157 ,46,2822901674025 ,62,3154886069452
6.3953382 ,Left ,66,660884756643 ,46,1653979419608 ,62,3235886847977
6.4179924 ,Left ,66,6523109245094 ,46,0119763263917 ,62,3173692876678
6.4355462 ,Left ,66,620156166679 ,45,8488427647018 ,62,3062461591542
6.4553234 ,Left ,66,6091906612026 ,45,6992824785167 ,62,2799618757768
6.4778273 ,Left ,66,6354874690015 ,45,5458674575878 ,62,2484788880242
6.4959922 ,Left ,66,6771785745574 ,45,4103466670196 ,62,2325541153602
6.5168679 ,Left ,66,7358379923255 ,45,3178063983797 ,62,2410891173679
6.538083 ,Left ,66,7706267807292 ,45,2444326255587 ,62,2454225905191
6.5559519 ,Left ,66,7714293464876 ,45,2027102959805 ,62,2662047979643
6.5771504 ,Left ,66,7466916535231 ,45,2151396501924 ,62,3117119494444
6.59814 ,Left ,66,7158530987139 ,45,2703939297185 ,62,3636268386546
6.6156806 ,Left ,66,6924264594493 ,45,3340515246085 ,62,3985303701606
6.6368733 ,Left ,66,6759469652316 ,45,3904565635652 ,62,4271078307491
6.6533364 ,Left ,66,6545275058692 ,45,438003037711 ,62,4559045852714
6.6756724 ,Left ,66,6158422950046 ,45,4941383815658 ,62,4663549951074
6.6967293 ,Left ,66,5879305044832 ,45,5516748929084 ,62,4714845262889
6.7131155 ,Left ,66,5675282858502 ,45,609845727833 ,62,4702881173611
6.7357842 ,Left ,66,5352729392243 ,45,6352372496317 ,62,4653085618606
6.756869 ,Left ,66,4343210758028 ,45,6110607234483 ,62,4957032766725
6.7730042 ,Left ,66,3988271720123 ,45,5772119129064 ,62,5396389840416
6.7950146 ,Left ,66,4417862293535 ,45,5550182843858 ,62,5629324950779
6.8175563 ,Left ,66,5187188251007 ,45,5854204503411 ,62,518441032867
6.8386171 ,Left ,66,5815434985115 ,45,5945787113605 ,62,4817116373508
6.8550489 ,Left ,66,7032202927389 ,45,5790043235852 ,62,4649784147295
6.8775696 ,Left ,66,7614965734808 ,45,5496629874844 ,62,4604567957684
6.8919987 ,Left ,66,7747334478236 ,45,5222455194969 ,62,4595001677282
6.9151981 ,Left ,66,7738886023165 ,45,4944026622303 ,62,4674717028642
6.9375672 ,Left ,66,7917886496374 ,45,4664490051463 ,62,4872333619145
6.9519744 ,Left ,66,8177571110273 ,45,4344569031113 ,62,5258977652727
6.9750612 ,Left ,66,8373979671128 ,45,4150970307913 ,62,5837285420831
6.9975073 ,Left ,66,8518391164294 ,45,3873656221535 ,62,6464893306745
7.0119702 ,Left ,66,8491411171795 ,45,3362057347836 ,62,71599541856
7.0351122 ,Left ,66,8589815963394 ,45,2789501635125 ,62,7809522110517
7.0575966 ,Left ,66,8726488154111 ,45,216346479945 ,62,8513958902729
7.0719517 ,Left ,66,8931030281539 ,45,1617395024215 ,62,9138617914153
7.0950168 ,Left ,66,9020191909629 ,45,1112841360348 ,62,9750513851088
7.1175439 ,Left ,66,9250225608648 ,45,0651518485688 ,63,0301511739524
7.1315964 ,Left ,66,9523777311983 ,45,0177626045819 ,63,0801090801243
7.1548855 ,Left ,66,9699703187554 ,44,9647157118469 ,63,1312194428544
7.1774802 ,Left ,66,9759365461417 ,44,9073758849378 ,63,1866623442559
7.191822 ,Left ,66,991804334139 ,44,8548456527796 ,63,2482595809646
7.2147504 ,Left ,67,0107804740945 ,44,8075176311283 ,63,3187831471486
7.2373321 ,Left ,67,0295475301818 ,44,7657533567232 ,63,3949175556607
7.2518068 ,Left ,67,0411966446936 ,44,7311117427141 ,63,4771636123796
7.2750503 ,Left ,67,0357794238612 ,44,7048994286031 ,63,5676555034932
7.2974179 ,Left ,67,0209300150053 ,44,6964331512978 ,63,6539561797652
7.3118574 ,Left ,67,0332861608741 ,44,7080701804818 ,63,7298999332154
7.3350277 ,Left ,67,0570322360435 ,44,7276295809971 ,63,8040694291017
7.357494 ,Left ,67,0497647889786 ,44,7357125094241 ,63,8763763276293
7.3787258 ,Left ,67,0413202427015 ,44,7417256426826 ,63,9424209081486
7.3948423 ,Left ,67,031221910678 ,44,7541820749293 ,63,9957354031185
7.417387 ,Left ,67,0299534448604 ,44,7655916008822 ,64,0386627368025
7.438498 ,Left ,67,0409769176111 ,44,7841422572526 ,64,0687293340064
7.4550358 ,Left ,67,0456813026933 ,44,8023596791622 ,64,0900460607617
7.4774095 ,Left ,67,045685255247 ,44,8159107854326 ,64,1107459996614
7.4986356 ,Left ,67,0532130061253 ,44,8256526703664 ,64,1218546184506
7.5150504 ,Left ,67,056166269355 ,44,8306631831027 ,64,1301739200828
7.5375658 ,Left ,67,068306383574 ,44,8327524185995 ,64,1354910448784
7.5585711 ,Left ,67,0791458261739 ,44,8374202715258 ,64,1422213402639
7.5750534 ,Left ,67,0814240258222 ,44,8419117852278 ,64,1450923212859
7.5974832 ,Left ,67,0938694573079 ,44,8385973585225 ,64,1476717337914
7.618815 ,Left ,67,1242564198631 ,44,8348872271448 ,64,1491790771528
7.6353904 ,Left ,67,1462685985211 ,44,8288877983638 ,64,1515031201076
7.6578034 ,Left ,67,157222986362 ,44,8225681183939 ,64,1521703828485
7.6789021 ,Left ,67,169498698504 ,44,8136618426894 ,64,1514266874552
7.695378 ,Left ,67,1972453916511 ,44,8161464626101 ,64,1534497663026
7.7174769 ,Left ,67,2041763016217 ,44,8232383801858 ,64,1660409855749
7.7387995 ,Left ,67,1936420155491 ,44,8453135382222 ,64,1820792225965
7.7551138 ,Left ,67,1659721376504 ,44,8977125710018 ,64,1966951923548
7.777602 ,Left ,67,1467774444624 ,44,97735112727 ,64,2136150540626
7.800003 ,Left ,67,1338604852821 ,45,0502989255667 ,64,2357075989371
7.8150806 ,Left ,67,1296264137847 ,45,1080092588538 ,64,2644114491663
7.8377247 ,Left ,67,0973551759992 ,45,1728629142887 ,64,2843262467297
7.8600256 ,Left ,67,0533636899845 ,45,2443147517676 ,64,2907202265271
7.8750717 ,Left ,67,0199206291408 ,45,3091837829097 ,64,2972928149716
7.8976104 ,Left ,66,9995684106668 ,45,3612388904681 ,64,3014130239024
7.9197345 ,Left ,66,9670054671854 ,45,3949147273236 ,64,288855669221
7.9349538 ,Left ,66,9168626661237 ,45,4236531316068 ,64,2626687165329
7.9574153 ,Left ,66,8214280049737 ,45,4382747616068 ,64,2333202889984
7.9799776 ,Left ,66,7408657730466 ,45,446762540177 ,64,2319072022499
7.9943675 ,Left ,66,7188253818544 ,45,4621386138274 ,64,2344815901865
8.0175801 ,Left ,66,7342697644682 ,45,513464926871 ,64,1933408505401
8.0401833 ,Left ,66,7492585007787 ,45,5514170552937 ,64,1344698890484
8.0545647 ,Left ,66,7858498960016 ,45,5517807416874 ,64,097773476783
8.0777906 ,Left ,66,8377547917678 ,45,5685528799093 ,64,0462294010613
8.1001888 ,Left ,66,8437151086786 ,45,5825953838137 ,63,9920254144764
8.1145523 ,Left ,66,8358030453915 ,45,5987294979013 ,63,9265426029914
8.1373114 ,Left ,66,8025046164341 ,45,6206108167637 ,63,8661869572323
8.159941 ,Left ,66,7970479350998 ,45,6377172399548 ,63,7965509990817
8.1742809 ,Left ,66,8007301869437 ,45,6361065458515 ,63,7337456762278
8.1973336 ,Left ,66,7723139826667 ,45,6269381668905 ,63,6835854864389
8.2199909 ,Left ,66,6710542081714 ,45,6045526298858 ,63,629791576041
8.2411388 ,Left ,66,6549388710143 ,45,5860170583132 ,63,5998806062404
8.257483 ,Left ,66,6592381893791 ,45,5680060341099 ,63,6064746902289
8.2799216 ,Left ,66,723062104205 ,45,5773227688146 ,63,6119147254856
8.3012347 ,Left ,66,7511931542783 ,45,6085519547801 ,63,5960286973577
8.3174094 ,Left ,66,7710767575511 ,45,6336071446277 ,63,5963191444505
8.3400195 ,Left ,66,7489364585174 ,45,6236157035127 ,63,5957285183075
8.3612195 ,Left ,66,7176615147518 ,45,6131411530171 ,63,604276610756
8.3776671 ,Left ,66,6734090185481 ,45,6180443136089 ,63,6064156143481
8.3999384 ,Left ,66,6010904344432 ,45,6250349233371 ,63,5852874668957
8.4206631 ,Left ,66,542035310149 ,45,6219775007046 ,63,5967237476779
8.4372927 ,Left ,66,5325162258058 ,45,6545291140443 ,63,6254243946689
8.4597058 ,Left ,66,5700161566057 ,45,7222991822834 ,63,6483247032687
8.4809187 ,Left ,66,6031003614666 ,45,8086217142496 ,63,660034595731
8.4973565 ,Left ,66,6617851265654 ,45,8802838748475 ,63,6934254893165
8.519984 ,Left ,66,6402762042675 ,45,9286103692063 ,63,7342036216282
8.5411824 ,Left ,66,6317312316225 ,45,9871048272214 ,63,7798656545491
8.5574578 ,Left ,66,586138165608 ,46,0368353118603 ,63,8074179487123
8.579968 ,Left ,66,5426504504106 ,46,0769868551701 ,63,837967923946
8.6010388 ,Left ,66,5141689837391 ,46,0994468357034 ,63,8612285210341
8.6174612 ,Left ,66,473037093431 ,46,1064195560192 ,63,8768254804799
8.639712 ,Left ,66,4198276926147 ,46,0864478241695 ,63,8842717914711
8.6607858 ,Left ,66,3831844257749 ,46,0498801431713 ,63,8932500867515
8.677515 ,Left ,66,3660594546391 ,45,9850984281376 ,63,8875705020973
8.6998344 ,Left ,66,3176416671604 ,45,9300115538635 ,63,8854442436588
8.7207975 ,Left ,66,2591155044986 ,45,8728338896579 ,63,8912698996772
8.7372808 ,Left ,66,2575403913197 ,45,863840170364 ,63,9046555888464
8.7600917 ,Left ,66,2860175588083 ,45,9282771050903 ,63,8671666721932
8.7825191 ,Left ,66,3460104331005 ,45,9618434345346 ,63,8313930945513
8.797485 ,Left ,66,4001541558728 ,45,9313210293335 ,63,8283036634418
8.8200032 ,Left ,66,4313000650581 ,45,8991256560421 ,63,7950950299587
8.8424321 ,Left ,66,466960252802 ,45,8669445204058 ,63,7549208126552
8.8566663 ,Left ,66,5046122197889 ,45,8253051087926 ,63,7199576125472
8.8799052 ,Left ,66,5339381661777 ,45,8000360258309 ,63,6692482991487
8.9023672 ,Left ,66,5927621307815 ,45,7834314860993 ,63,6193841722665
8.9169189 ,Left ,66,6441647657453 ,45,7825343077915 ,63,5820918546188
8.9401349 ,Left ,66,6706487842131 ,45,7980923028106 ,63,542415210616
8.9625882 ,Left ,66,6824966783318 ,45,8082610085729 ,63,4852009911797
8.9771075 ,Left ,66,7000977900957 ,45,8125527351649 ,63,4125422663227
8.9999476 ,Left ,66,7265972989497 ,45,8280810841979 ,63,3344661627723
9.0225008 ,Left ,66,7348852595238 ,45,8701607228866 ,63,2556849754086
9.0366304 ,Left ,66,725240608023 ,45,932234728456 ,63,1757410432812
9.0599433 ,Left ,66,7173607546041 ,46,0128611662545 ,63,1005767585737
9.0823845 ,Left ,66,714546018933 ,46,0880162424874 ,63,0390742330384
9.0968799 ,Left ,66,6970090699401 ,46,1709754134274 ,62,980028454612
9.1199391 ,Left ,66,6814329405642 ,46,2656195056219 ,62,9204878129451
9.1424474 ,Left ,66,6632527571881 ,46,3644209177332 ,62,8703710246288
9.1568955 ,Left ,66,6317976332772 ,46,4402934290115 ,62,8214714858805
9.1800624 ,Left ,66,6151833111501 ,46,5028513273973 ,62,7677897042572
9.2025225 ,Left ,66,5875250762948 ,46,5589243576356 ,62,7110527259942
9.2170002 ,Left ,66,5524250220831 ,46,6071372819046 ,62,6546134926403
9.240084 ,Left ,66,5108376707952 ,46,6419541506182 ,62,6051167603944
9.2625822 ,Left ,66,4703166680712 ,46,6634283970539 ,62,5612677936567
9.2837405 ,Left ,66,4375993041658 ,46,6692927435313 ,62,5250444363474
9.3001138 ,Left ,66,3762653361673 ,46,6485687154941 ,62,4957603941062
9.3223174 ,Left ,66,3069205507599 ,46,6353626464535 ,62,4794555111538
9.343458 ,Left ,66,2038623011671 ,46,5580843426705 ,62,514914958722
9.3597981 ,Left ,66,1834333099541 ,46,518233162229 ,62,5638542846798
9.3823533 ,Left ,66,1634989187024 ,46,4615058403141 ,62,5911846762184
9.4037308 ,Left ,66,2030110163742 ,46,3421121645829 ,62,6582544958452
9.4200179 ,Left ,66,2897305089497 ,46,2063086362426 ,62,7100307891396
9.4424465 ,Left ,66,2864159807712 ,46,012949172187 ,62,7237501579761
9.4636348 ,Left ,66,3263882205759 ,45,8483746679 ,62,6897516129882
9.4793848 ,Left ,66,3810457649804 ,45,6970574169929 ,62,6690711201497
9.5025325 ,Left ,66,4582322737107 ,45,6064510198138 ,62,6748873107769
9.5237547 ,Left ,66,5151932301264 ,45,5730443600993 ,62,7035829158135
9.5393385 ,Left ,66,5621805464215 ,45,5731743387865 ,62,7368224939103
9.5623867 ,Left ,66,5597849423673 ,45,5782377224042 ,62,7926600711904
9.5836622 ,Left ,66,5246921527758 ,45,5943155248823 ,62,8404000401349
9.5999982 ,Left ,66,5060187689463 ,45,631135104752 ,62,8731984896576
9.622443 ,Left ,66,4923533179247 ,45,6683588949302 ,62,9017535752698
9.6436375 ,Left ,66,4948395945834 ,45,7103858272274 ,62,9241875329952
9.659929 ,Left ,66,4784596107543 ,45,7376471227013 ,62,9391872123464
9.6824559 ,Left ,66,4287872272934 ,45,7544336979359 ,62,9398022790083
9.7049884 ,Left ,66,3825631690225 ,45,7636642080917 ,62,9267827000143
9.7200111 ,Left ,66,3667955043737 ,45,7693698125822 ,62,9027267580732
9.7429575 ,Left ,66,3496760517513 ,45,7737266837044 ,62,8703041257923
9.7654734 ,Left ,66,2549763700661 ,45,7602762723239 ,62,8351422495116
9.780312 ,Left ,66,2199407868638 ,45,7531932232559 ,62,8127767762863
9.8024364 ,Left ,66,2166660518383 ,45,7364862172476 ,62,8185278104824
9.8250077 ,Left ,66,2886365326901 ,45,7672489570801 ,62,7992131157466
9.8393459 ,Left ,66,3438494211344 ,45,8259616061734 ,62,7606634850578
9.8624809 ,Left ,66,3726020191548 ,45,8372008639134 ,62,7547440380253
9.8852261 ,Left ,66,4079653136695 ,45,8244958647805 ,62,7541163796987
9.899316 ,Left ,66,4545317568182 ,45,8032575711079 ,62,7406248429883
9.9224644 ,Left ,66,4902854487889 ,45,7601170969431 ,62,7447002520892
9.9449251 ,Left ,66,5004060569909 ,45,7300689085095 ,62,7478943662911
9.9592326 ,Left ,66,5068597320182 ,45,7028963126076 ,62,7592452110953
9.9824627 ,Left ,66,5171120534182 ,45,6809927740157 ,62,7866623402693
10.0047159 ,Left ,66,537055749508 ,45,6552276895708 ,62,8209226012163
10.0190394 ,Left ,66,5403715567645 ,45,6187858502205 ,62,8575437546469
10.0424628 ,Left ,66,5503268441882 ,45,5756956680503 ,62,904490200542
10.0649141 ,Left ,66,5631681086119 ,45,531069758044 ,62,956533414363
10.0792565 ,Left ,66,5740082126759 ,45,4841261431524 ,63,0040180733633
10.1024645 ,Left ,66,5957792951772 ,45,4377271092255 ,63,0511412674855
10.1249563 ,Left ,66,6314601486045 ,45,390512490881 ,63,0935935779805
10.1392109 ,Left ,66,6540160135075 ,45,3454044812308 ,63,141849894558
10.162375 ,Left ,66,6596590053566 ,45,3050111205723 ,63,1901794136335
10.1850236 ,Left ,66,6790406978935 ,45,2722657842692 ,63,2395967417744
10.2064169 ,Left ,66,6947474539315 ,45,2309150900361 ,63,2887800684817
10.2226028 ,Left ,66,7157891934181 ,45,1862063325596 ,63,3476120392798
10.245132 ,Left ,66,72199614958 ,45,1413275582666 ,63,4173751772134
10.2662266 ,Left ,66,7468041014796 ,45,0967840520354 ,63,487318673446
10.2825515 ,Left ,66,7699669221837 ,45,0457302950775 ,63,5619281232063
10.3049734 ,Left ,66,7919467694182 ,44,9974875941636 ,63,6429634235664
10.3261006 ,Left ,66,8140983365791 ,44,9526766945245 ,63,7342979026672
10.3424307 ,Left ,66,7836627646893 ,44,930501082482 ,63,8209565976648
10.364927 ,Left ,66,7578807043136 ,44,9260783247449 ,63,9076282409494
10.3874018 ,Left ,66,7503248477664 ,44,9230716917417 ,64,0080133102082
10.4087866 ,Left ,66,7478931199608 ,44,9122741379497 ,64,0890671736313
10.4254053 ,Left ,66,7241374849568 ,44,9015383756544 ,64,1488295459395
10.446186 ,Left ,66,7088941572652 ,44,8969721380287 ,64,1919422275505
10.4625912 ,Left ,66,7002831232374 ,44,8913130579345 ,64,2274586497556
10.4850391 ,Left ,66,7050747968745 ,44,8881014208302 ,64,2554641950483
10.5063486 ,Left ,66,7063030442363 ,44,8849224375551 ,64,2752082083731
10.5224731 ,Left ,66,7033735189439 ,44,8869255578277 ,64,2866363673737
10.5450278 ,Left ,66,7213560808249 ,44,8941045078398 ,64,2818115556209
10.5661443 ,Left ,66,7606527378623 ,44,900348849353 ,64,2770677823447
10.5825446 ,Left ,66,7952127257995 ,44,9106664247885 ,64,2680064654828
10.604996 ,Left ,66,8173679976494 ,44,9166181046966 ,64,2578586208592
10.6263471 ,Left ,66,8395968757004 ,44,9235334943899 ,64,2432236463278
10.6425199 ,Left ,66,8726140254296 ,44,9261622385472 ,64,2224401603931
10.6650866 ,Left ,66,9143204540307 ,44,9266649690725 ,64,193624943952
10.6704471 ,Left ,66,9499394674198 ,44,9262054441086 ,64,1632812839557
10.6931041 ,Left ,66,980228373841 ,44,9262759964596 ,64,1323485375605
10.7081446 ,Left ,66,9950631328886 ,44,9182327378029 ,64,1061615450369
10.7306007 ,Left ,67,0156576435727 ,44,9099922709626 ,64,0833293627664
10.7529625 ,Left ,67,0419397910215 ,44,9005819843397 ,64,0683385009649
10.7679401 ,Left ,67,0619386017228 ,44,8904320660967 ,64,0704949157559
10.7904351 ,Left ,67,0693268252102 ,44,876127610894 ,64,0901702228255
10.8129931 ,Left ,67,0762932714041 ,44,8725211685131 ,64,1132112414886
10.8281536 ,Left ,67,0607825386787 ,44,8836068912707 ,64,1462983458012
10.850477 ,Left ,67,0475166927012 ,44,9112191564181 ,64,186004841464
10.8729693 ,Left ,67,0258116786894 ,44,9399318658546 ,64,2361172159267
10.8883067 ,Left ,66,9990180911977 ,44,9681385926967 ,64,2879366144341
10.9105322 ,Left ,66,9577494582866 ,45,0049735654554 ,64,3260144575759
10.9331402 ,Left ,66,9045551293425 ,45,0408170330034 ,64,3541490221135
10.9482461 ,Left ,66,8519299127418 ,45,0736498127799 ,64,3775541416793
10.97033 ,Left ,66,7947020054299 ,45,1091574309519 ,64,3917928492755
10.9929657 ,Left ,66,7674500737418 ,45,141467054351 ,64,3864897057174
11.0080415 ,Left ,66,7061154739894 ,45,1416348967227 ,64,3624330159795
11.0304883 ,Left ,66,6623267533709 ,45,1592326267862 ,64,334383255119
11.053112 ,Left ,66,5846604454787 ,45,1667561130729 ,64,3179765405322
11.0680856 ,Left ,66,5692045554442 ,45,1968376946218 ,64,2891390001396
11.0905215 ,Left ,66,6069906688899 ,45,2350642941874 ,64,2541151500898
11.1129439 ,Left ,66,6356584479444 ,45,2922703592314 ,64,2144335864414
11.128153 ,Left ,66,655953030718 ,45,3438448421204 ,64,1684165168224
11.1505181 ,Left ,66,6681473034542 ,45,3780469213893 ,64,1150083571277
11.1729186 ,Left ,66,6834771919864 ,45,4220387721632 ,64,0383321062127
11.188134 ,Left ,66,7112607229651 ,45,4502622608147 ,63,9679903866035
11.2122399 ,Left ,66,7061990673558 ,45,4791791238016 ,63,8996166669196
11.2331877 ,Left ,66,6878169553964 ,45,4935301607001 ,63,8369532580921
11.2493473 ,Left ,66,682815521481 ,45,4978998150012 ,63,7842353523666
11.2704819 ,Left ,66,6666991708021 ,45,4899215737622 ,63,7418828831366
11.2929936 ,Left ,66,5947268912154 ,45,4747978408898 ,63,6910489527273
11.309373 ,Left ,66,5582088078309 ,45,4670231792145 ,63,6719815235954
11.330256 ,Left ,66,559861293708 ,45,4652900125423 ,63,6895392803357
11.3526286 ,Left ,66,6358696672569 ,45,5002565222518 ,63,7123197480646
11.3690141 ,Left ,66,667943560292 ,45,5552430450454 ,63,6960725747481
11.3900938 ,Left ,66,6644879611929 ,45,5642545566599 ,63,7006244295195
11.4127969 ,Left ,66,6357372658921 ,45,5730695172882 ,63,691294617652
11.4292376 ,Left ,66,6091755110346 ,45,5745204759435 ,63,6832201701783
11.450216 ,Left ,66,5770014037011 ,45,5794030950725 ,63,6791237182088
11.4727824 ,Left ,66,5011770272251 ,45,5787050581394 ,63,651313478126
11.4893461 ,Left ,66,5123741550773 ,45,5669281130368 ,63,6336171741851
11.5101375 ,Left ,66,5115810576295 ,45,5540503968526 ,63,6473168476836
11.5328023 ,Left ,66,55757106746 ,45,6011110105458 ,63,6806336836614
11.5493202 ,Left ,66,5987026423734 ,45,6882974677315 ,63,6751682077853
11.5701566 ,Left ,66,6373526316752 ,45,7600485100427 ,63,6747485270367
11.5926641 ,Left ,66,7058564587293 ,45,8215403297427 ,63,694067700745
11.6111498 ,Left ,66,7006994679077 ,45,8571713037387 ,63,7249898531167
11.6308883 ,Left ,66,6893669748198 ,45,9095348896175 ,63,7516672871897
11.6532989 ,Left ,66,644809491908 ,45,950291174413 ,63,7773877881868
11.6709885 ,Left ,66,6079683523379 ,45,9769885314621 ,63,8044792305607
11.6907285 ,Left ,66,5790318949071 ,46,0066809777299 ,63,8239112633313
11.7132168 ,Left ,66,5466210036758 ,46,0246502828961 ,63,8339627441018
11.7310509 ,Left ,66,4983516400772 ,46,015982424353 ,63,8454280925599
11.7504619 ,Left ,66,4518780989063 ,45,9888977348833 ,63,8500314452408
11.7729275 ,Left ,66,4316543606658 ,45,9506947696358 ,63,8325378529906
11.7908553 ,Left ,66,3725241493806 ,45,9265004419329 ,63,8114332876217
11.8103474 ,Left ,66,2968633489732 ,45,9033748094946 ,63,8123699389378
11.8328381 ,Left ,66,2882704611894 ,45,9236152608144 ,63,8216100465115
11.850609 ,Left ,66,2953884193868 ,46,0007755070692 ,63,7779961820166
11.8703623 ,Left ,66,3409882560874 ,46,0425773442103 ,63,7425716636299
11.8927668 ,Left ,66,4014440563623 ,46,0188358622161 ,63,7330924144251
11.9109461 ,Left ,66,4168866943467 ,46,0052373477162 ,63,6795991648714
11.9303956 ,Left ,66,4641842803384 ,45,9853434609004 ,63,6166122913554
11.9484862 ,Left ,66,4952298542272 ,45,932234605895 ,63,5670110898379
11.9707844 ,Left ,66,4902069655301 ,45,9004127450362 ,63,5062065073583
11.99038 ,Left ,66,5056129510808 ,45,9027422132009 ,63,4224301155367
12.00842 ,Left ,66,5331140853438 ,45,9394070664807 ,63,328107233522
12.0309271 ,Left ,66,5746281054903 ,45,9613431356995 ,63,2303011356797
12.0505117 ,Left ,66,5993610794806 ,45,9687990526088 ,63,1431955800104
12.0682432 ,Left ,66,5945318549306 ,45,9902953390263 ,63,0443704759869
12.0907839 ,Left ,66,6005932141172 ,46,032217519419 ,62,928061140153
12.1102515 ,Left ,66,6052776273491 ,46,0879828670864 ,62,8016029537248
12.1329466 ,Left ,66,6254727723173 ,46,1431741237197 ,62,6798513616957
12.1507882 ,Left ,66,6203700360678 ,46,1938950531711 ,62,5729577746628
12.1703746 ,Left ,66,5926894972093 ,46,2535163350064 ,62,4609912180121
12.1928201 ,Left ,66,5840619985948 ,46,3130582667721 ,62,341620680968
12.2109453 ,Left ,66,5984789049387 ,46,3677275983401 ,62,2404511268063
12.2319923 ,Left ,66,5953753606944 ,46,4056355644043 ,62,1682067398563
12.2528126 ,Left ,66,5689548640652 ,46,4288463105751 ,62,1102606216919
12.2709761 ,Left ,66,5462392538677 ,46,4362421591546 ,62,0643824372702
12.2921304 ,Left ,66,5345261858094 ,46,4330451713996 ,62,0387490932092
12.3081942 ,Left ,66,5304758865393 ,46,4206527988411 ,62,0191305581338
12.3309206 ,Left ,66,4342726318365 ,46,3963759102564 ,62,0099277120758
12.3518565 ,Left ,66,3624812416699 ,46,3588009472639 ,62,0363524039665
12.3683199 ,Left ,66,3253243911027 ,46,3158881722627 ,62,101222340028
12.3910248 ,Left ,66,352148060944 ,46,3164360354719 ,62,1393029057552
12.4118642 ,Left ,66,3229233322127 ,46,2847919131766 ,62,1986214923958
12.4281614 ,Left ,66,3199658505009 ,46,1589402518075 ,62,273582315456
12.4507699 ,Left ,66,3726888251882 ,46,0230892174286 ,62,3152933637578
12.4718729 ,Left ,66,3947232867318 ,45,842555429231 ,62,3345447249394
12.4932978 ,Left ,66,3932417823752 ,45,6669424823706 ,62,3149255353373
12.5113775 ,Left ,66,4024799900355 ,45,4978866018426 ,62,3021283114635
12.5324527 ,Left ,66,4767434308967 ,45,3596626326928 ,62,3035961811418
12.5537626 ,Left ,66,5473400102146 ,45,2596127731 ,62,3353860015314
12.5700551 ,Left ,66,635725266912 ,45,2244573634573 ,62,3777283208439
12.5927804 ,Left ,66,6614317470307 ,45,2033264646566 ,62,4276561252256
12.6137765 ,Left ,66,6435490798391 ,45,2089868726052 ,62,4902492442449
12.630112 ,Left ,66,6230197627268 ,45,2480805003798 ,62,5419377376299
12.6524786 ,Left ,66,6094884141844 ,45,3003350387003 ,62,5840425892621
12.6670925 ,Left ,66,5954310933097 ,45,3653733114687 ,62,6042783837183
12.690107 ,Left ,66,5879652715259 ,45,4272818320963 ,62,6211348879596
12.7125314 ,Left ,66,556150389839 ,45,4784778407903 ,62,6324955599326
12.7270659 ,Left ,66,5119412518373 ,45,5230375815067 ,62,6417011264124
12.7501079 ,Left ,66,4874237639232 ,45,5698518946432 ,62,6385555054518
12.7725198 ,Left ,66,4713715106317 ,45,5993483976926 ,62,6295329662507
12.7869346 ,Left ,66,4642322648272 ,45,6117012998784 ,62,6152041041905
12.8102 ,Left ,66,3837252630869 ,45,5858449439162 ,62,6086112042104
12.8328175 ,Left ,66,3683716329242 ,45,5834370128613 ,62,6135496178177
12.8470186 ,Left ,66,3709037333505 ,45,579509137722 ,62,6292343352313
12.8700663 ,Left ,66,4402576887035 ,45,6167517148232 ,62,6103904640349
12.8925844 ,Left ,66,4585092077065 ,45,6633434911783 ,62,5811197081205
12.9070204 ,Left ,66,4802856285306 ,45,6828938982517 ,62,5785950933351
12.9299382 ,Left ,66,5130349108185 ,45,6683734220562 ,62,5769424938098
12.952348 ,Left ,66,5707089135237 ,45,6483437661067 ,62,5648822471294
12.9666423 ,Left ,66,6182994937847 ,45,5966312769285 ,62,5647538880704
12.9897867 ,Left ,66,6287497526663 ,45,5525442532936 ,62,570010107253
13.012331 ,Left ,66,6360806230875 ,45,515027441863 ,62,5917150320635
13.0338685 ,Left ,66,643662344616 ,45,4924743720147 ,62,6185310669332
13.0504015 ,Left ,66,6768590353777 ,45,4758217283211 ,62,6535091929515
13.0727738 ,Left ,66,7037509645987 ,45,4531448027209 ,62,6927425471267
13.0941467 ,Left ,66,729825180467 ,45,422412719251 ,62,7320890021744
13.110862 ,Left ,66,7473440717506 ,45,3852631105147 ,62,775793101181
13.1325027 ,Left ,66,7671066468323 ,45,345737604471 ,62,8074333098773
13.1533358 ,Left ,66,7909115702954 ,45,3102721896247 ,62,8345719551725
13.1697323 ,Left ,66,8109130744579 ,45,2714561106571 ,62,861994595568
13.199912 ,Left ,66,8325819497078 ,45,2389144788026 ,62,8851562406057
13.2137085 ,Left ,66,8525054941385 ,45,2105751413262 ,62,9026064809192
13.2300917 ,Left ,66,8700491869174 ,45,1809476503976 ,62,9244748987155
13.2526692 ,Left ,66,8899106608794 ,45,1562104408874 ,62,9518369617316
13.2735799 ,Left ,66,9149408480242 ,45,1387982856856 ,62,9785995968516
13.2901294 ,Left ,66,936577424491 ,45,1192599391849 ,63,003958111348
13.3125156 ,Left ,66,9631406641577 ,45,1067198510203 ,63,0260726227484
13.3334737 ,Left ,66,9666404734084 ,45,0966793991717 ,63,0489243142971
13.3498976 ,Left ,66,9683274496794 ,45,0930493896128 ,63,073490628711
13.3724718 ,Left ,66,9650514949777 ,45,091982114166 ,63,0935059905711
13.3935084 ,Left ,66,9661751650649 ,45,089227203593 ,63,115258523395
13.4099539 ,Left ,66,961100949425 ,45,0809125151179 ,63,1439960215288
13.4329471 ,Left ,66,9517499993132 ,45,0737211490439 ,63,1780398337087
13.4539606 ,Left ,66,9430799569022 ,45,0624770168218 ,63,2097641070491
13.4778609 ,Left ,66,9506724401635 ,45,0505390665706 ,63,2459761184226
13.4924899 ,Left ,66,9507391208769 ,45,0390299200479 ,63,2864660519605
13.5150962 ,Left ,66,9434717851166 ,45,0374542918222 ,63,3212209280858
13.5299235 ,Left ,66,9506591016407 ,45,0338654292524 ,63,351333373602
13.5525068 ,Left ,66,9725904855261 ,45,0285290598285 ,63,3794729510964
13.5750675 ,Left ,66,9924998834315 ,45,024165160619 ,63,4081073152829
13.5900418 ,Left ,67,0024310435061 ,45,0119362308592 ,63,4396937625812
13.6124827 ,Left ,67,0037181663401 ,44,9957899316052 ,63,4596343882529
13.6349104 ,Left ,67,0033685420558 ,44,9752547043043 ,63,4773160591707
13.6492886 ,Left ,67,0198156373134 ,44,9549278418604 ,63,483547590289
13.6725281 ,Left ,67,0093453068426 ,44,9240133998086 ,63,4919129035651
13.6949382 ,Left ,67,0345924899465 ,44,9063312893934 ,63,4978829491915
13.7091815 ,Left ,67,0641307617466 ,44,8860366117025 ,63,5242849277424
13.7326621 ,Left ,67,0644987481256 ,44,8588425831134 ,63,5678002642552
13.7552417 ,Left ,67,0544090303405 ,44,8327211395537 ,63,6129005693085
13.7697037 ,Left ,67,0399964551617 ,44,8174528662913 ,63,6553870653534
13.7926183 ,Left ,67,0592589158861 ,44,8072149374078 ,63,6968298335471
13.8151036 ,Left ,67,0729260679324 ,44,8052475059262 ,63,7528816446118
13.8292152 ,Left ,67,0653563412751 ,44,8094768311005 ,63,8122488375105
13.8523056 ,Left ,67,0393085084727 ,44,8247070161349 ,63,8783296075644
13.8748885 ,Left ,67,0214785044009 ,44,8529797532709 ,63,9448121946218
13.8892554 ,Left ,67,0158729561727 ,44,8853191190223 ,63,9954119809329
13.9123583 ,Left ,66,9938946255832 ,44,9216396757788 ,64,041855111543
13.9350503 ,Left ,66,9650633422576 ,44,9575547555557 ,64,0810910146025
13.949243 ,Left ,66,927138884648 ,44,9850807678387 ,64,1123670725669
13.9721598 ,Left ,66,8908182262446 ,45,0086652612033 ,64,1258404779323
13.9948426 ,Left ,66,8594644514824 ,45,0215580263902 ,64,1288480020233
14.015765 ,Left ,66,8280987206896 ,45,0254292968451 ,64,1190255386658
14.0325809 ,Left ,66,7691423782247 ,45,0407107673066 ,64,1063226157626
14.0552043 ,Left ,66,6646267474139 ,45,0587067797155 ,64,095108643344
14.0763649 ,Left ,66,6009838451658 ,45,104854107246 ,64,0879211037088
14.0925599 ,Left ,66,6054706269331 ,45,1558626716286 ,64,0839484811782
14.1149975 ,Left ,66,6385700403104 ,45,2348402931004 ,64,0721772866368
14.1362154 ,Left ,66,6923836941599 ,45,2954944218312 ,64,0562019661288
14.1525496 ,Left ,66,7240470842304 ,45,3141360183476 ,64,0413519178493
14.1750355 ,Left ,66,7567590075063 ,45,324063989704 ,64,0011616590996
14.1961665 ,Left ,66,7633550861149 ,45,3445953173755 ,63,9477460045868
14.2124345 ,Left ,66,7869517968943 ,45,3719845965511 ,63,8868193396262
14.2349431 ,Left ,66,785058286961 ,45,4243781246125 ,63,8152487729411
14.2557611 ,Left ,66,7898941534526 ,45,471691346446 ,63,7477785888237
14.2723462 ,Left ,66,7900462522253 ,45,5123175481575 ,63,6864889297233
14.2949608 ,Left ,66,7793956725965 ,45,5307748002955 ,63,6277345528025
14.3160072 ,Left ,66,734143511028 ,45,5275304078149 ,63,5889308257908
14.3326424 ,Left ,66,6987168745915 ,45,5224795474195 ,63,5689246148183
14.3553974 ,Left ,66,6276558022981 ,45,5091000933832 ,63,5374735341041
14.3763383 ,Left ,66,6023606086334 ,45,5002307144794 ,63,5294013104237
14.392641 ,Left ,66,6297673849565 ,45,4694444788155 ,63,5758487132745
14.4150073 ,Left ,66,6837494855728 ,45,5107370546167 ,63,5914576516646
14.4373952 ,Left ,66,7022735470084 ,45,5965961456656 ,63,5546829100651
14.4525288 ,Left ,66,6573490333529 ,45,6090074530517 ,63,5686094347026
14.4750328 ,Left ,66,6356730044781 ,45,6102929587071 ,63,576844457385
14.4974922 ,Left ,66,6141805762295 ,45,6052976720813 ,63,5867415870021
14.5118268 ,Left ,66,5916787054225 ,45,60759510061 ,63,6057115906903
14.5425543 ,Left ,66,4931490906608 ,45,6170251469161 ,63,6112580733961
14.5575316 ,Left ,66,4689256778992 ,45,6254731629266 ,63,6177544680709
14.5718128 ,Left ,66,4493272817422 ,45,6505398160122 ,63,6513317049502
14.594698 ,Left ,66,4822933069616 ,45,7272127714629 ,63,6909083189215
14.6174355 ,Left ,66,5108735739627 ,45,8374473548773 ,63,6913738455204
14.6317896 ,Left ,66,5438821561661 ,45,9190704978884 ,63,6976443231401
14.654809 ,Left ,66,598332375591 ,45,9953538289549 ,63,7204174108052
14.6776292 ,Left ,66,5944182247123 ,46,0378351768785 ,63,75292081087
14.6919609 ,Left ,66,5824157241239 ,46,0979428730344 ,63,7702170065497
14.7150855 ,Left ,66,5612161186622 ,46,137807906823 ,63,778145909167
14.73758 ,Left ,66,5399462300592 ,46,1638261655778 ,63,7888398562783
14.7519178 ,Left ,66,5106762872698 ,46,1799897593543 ,63,7903819374059
14.7750642 ,Left ,66,4810777730626 ,46,1850736727458 ,63,7836703082257
14.7975888 ,Left ,66,4497254414163 ,46,1687673884528 ,63,7706698087655
14.8119104 ,Left ,66,4261459693015 ,46,1289913379277 ,63,756217824804
14.8350954 ,Left ,66,4048781358696 ,46,0674163631042 ,63,7260764051499
14.8577338 ,Left ,66,3864478018036 ,46,0354129359708 ,63,7064101375004
14.8719276 ,Left ,66,3727620529983 ,45,992705256484 ,63,710592353189
14.8954066 ,Left ,66,4136046850691 ,46,0163447107493 ,63,7157705602362
14.9174798 ,Left ,66,4317675390285 ,46,0743167916135 ,63,6796965954022
14.9387562 ,Left ,66,4615261295723 ,46,0792917058211 ,63,6584275917356
14.9551004 ,Left ,66,55128806293 ,46,0715176036139 ,63,6463234563015
14.9776746 ,Left ,66,5799785763295 ,46,0476109164754 ,63,6070595118239
14.9987353 ,Left ,66,6211196620752 ,46,0126503921521 ,63,5787249696426
15.0150868 ,Left ,66,641751751212 ,45,9761361239377 ,63,5542638551204
15.0376629 ,Left ,66,6298590934889 ,45,977157541898 ,63,5199661385145
15.0590223 ,Left ,66,6434614846212 ,46,011150472653 ,63,4680578720463
15.0750339 ,Left ,66,6860734381467 ,46,037847779089 ,63,4241214107976
15.0976559 ,Left ,66,7029165612983 ,46,0492914977414 ,63,3840064748793
15.1189536 ,Left ,66,6886754848667 ,46,0803814980179 ,63,3222793871592
15.13505 ,Left ,66,6740216462837 ,46,1309561371072 ,63,2405007201642
15.1576395 ,Left ,66,6861648779297 ,46,1962267156507 ,63,1475518940133
15.1790109 ,Left ,66,7034722216542 ,46,2672520006619 ,63,0410086600296
15.1944661 ,Left ,66,692856814907 ,46,3359908840498 ,62,9246336225432
15.2175795 ,Left ,66,6741941107623 ,46,4085820891803 ,62,8124325507716
15.238574 ,Left ,66,6547380378195 ,46,4709607120177 ,62,7049708408259
15.2544808 ,Left ,66,653826492235 ,46,5193196254808 ,62,6031528468864
15.2775641 ,Left ,66,6378533331419 ,46,5505429537539 ,62,5125514159724
15.2988395 ,Left ,66,6014195314749 ,46,5743499363652 ,62,4379906725974
15.3145016 ,Left ,66,5903611289675 ,46,5820421410731 ,62,3707474563866
15.3375668 ,Left ,66,5750777320078 ,46,5651016105595 ,62,3194873207799
15.3589482 ,Left ,66,5595651663157 ,46,5183420036556 ,62,2872786285329
15.3749996 ,Left ,66,4998332989101 ,46,4726774223595 ,62,2952982591818
15.3975689 ,Left ,66,4298762430006 ,46,4040705143461 ,62,3518079130906
15.4199608 ,Left ,66,4202013228943 ,46,3945038736168 ,62,402864239649
15.4350442 ,Left ,66,4058409921109 ,46,3832823926038 ,62,4178667232827
15.4574782 ,Left ,66,4170687699925 ,46,3099034181874 ,62,4798956190783
15.4798839 ,Left ,66,4400473075275 ,46,1995300057921 ,62,5168146533523
15.4945481 ,Left ,66,4251182201636 ,46,052531792771 ,62,5190840191532
15.5174478 ,Left ,66,4438046913811 ,45,902274413855 ,62,5069774651509
15.5399969 ,Left ,66,4605264236151 ,45,7622793866902 ,62,5100764888782
15.5611939 ,Left ,66,4729697433013 ,45,6965808441916 ,62,5346245005636
15.5771899 ,Left ,66,4709909023812 ,45,6731370118958 ,62,5471136060702
15.6003489 ,Left ,66,4966979317932 ,45,691828804403 ,62,5621404150123
15.6214518 ,Left ,66,5071051387272 ,45,6958635780572 ,62,5983678796107
15.6378396 ,Left ,66,5042699819858 ,45,6983050026114 ,62,6325228909391
15.6604019 ,Left ,66,4799972069841 ,45,7112317135433 ,62,6491525037698
15.6746419 ,Left ,66,4727682043883 ,45,7228268310847 ,62,659756023271
15.6978969 ,Left ,66,4619244449325 ,45,7325043353531 ,62,6709657006691
15.7203062 ,Left ,66,4399854802986 ,45,744286499826 ,62,6850958176217
15.7343256 ,Left ,66,4080234111101 ,45,7586656924243 ,62,6941050695409
15.7575557 ,Left ,66,4115684228823 ,45,7775714424289 ,62,6846230080868
15.7799024 ,Left ,66,3190439661636 ,45,7724904285402 ,62,6846968020273
15.8012022 ,Left ,66,327040458251 ,45,7850698884805 ,62,7196034423455
15.8175176 ,Left ,66,3427567647635 ,45,7806251472732 ,62,7619754026045
15.8399989 ,Left ,66,4138315513762 ,45,8192197304835 ,62,7546489932774
15.8543349 ,Left ,66,4295407200454 ,45,8792742002116 ,62,7249504554687
15.877444 ,Left ,66,4460324746114 ,45,8957488790562 ,62,7280831262154
15.9000584 ,Left ,66,4535979928474 ,45,8891360489128 ,62,7255789533799
15.9211434 ,Left ,66,4915522132129 ,45,8868435870996 ,62,7110323600156
15.9375273 ,Left ,66,5226137908247 ,45,8541159024709 ,62,7120215449357
15.9598228 ,Left ,66,5137232485666 ,45,8264292655741 ,62,721523681103
15.9810229 ,Left ,66,5048521789817 ,45,7893338205553 ,62,7387254758567
15.9974262 ,Left ,66,5144660172652 ,45,7677207702081 ,62,7586471712714
16.0200259 ,Left ,66,5225401674342 ,45,7454225370419 ,62,7860818710126
16.0412791 ,Left ,66,5348329346114 ,45,7130940713157 ,62,8207591066256
16.0575277 ,Left ,66,5404235834803 ,45,672675996998 ,62,8635770434173
16.0800159 ,Left ,66,5475909111587 ,45,6300513743073 ,62,9077348822548
16.101028 ,Left ,66,5586867852621 ,45,5896363928919 ,62,954000845957
16.1174515 ,Left ,66,5782820605862 ,45,5529937937473 ,62,9979361496151
16.1397661 ,Left ,66,609559194532 ,45,5218185640949 ,63,0383236718739
16.1610899 ,Left ,66,6226920192789 ,45,494416246716 ,63,0841988349023
16.1774862 ,Left ,66,6300043303887 ,45,4665515587388 ,63,1242628195761
16.2003642 ,Left ,66,6454791478916 ,45,44311833831 ,63,1570345105903
16.2215879 ,Left ,66,6640019863099 ,45,4204990572128 ,63,1929902141085
16.2378877 ,Left ,66,676950109961 ,45,3943942232168 ,63,2298805139347
16.2603891 ,Left ,66,6926895956439 ,45,372156149753 ,63,2631701352526
16.2814938 ,Left ,66,7091325686128 ,45,35752534941 ,63,2937194114109
16.2971266 ,Left ,66,7226401266174 ,45,3520328676888 ,63,3179996642381
16.3204066 ,Left ,66,7487138790412 ,45,3477481877606 ,63,3341895781866
16.342458 ,Left ,66,7719768829089 ,45,3439481259811 ,63,3476255545481
16.3574199 ,Left ,66,794870312209 ,45,3408287157346 ,63,356147347705
16.3800014 ,Left ,66,8059989948007 ,45,332245175315 ,63,3683382720532
16.3856036 ,Left ,66,7998263671695 ,45,3172109176563 ,63,3831863907481
16.408139 ,Left ,66,7928990481264 ,45,2987372496072 ,63,4037594492515
16.4228362 ,Left ,66,8137401611621 ,45,2803902214309 ,63,4196266114998
16.4453866 ,Left ,66,8223773168756 ,45,2553789517708 ,63,4409157899489
16.4681332 ,Left ,66,8350969132841 ,45,2282856274592 ,63,46133698942
16.48261 ,Left ,66,8448142887126 ,45,197393949744 ,63,4875751349346
16.5052721 ,Left ,66,8617304379458 ,45,1698735984192 ,63,5238276866165
16.5278583 ,Left ,66,8564645103871 ,45,1392360654241 ,63,5772437680989
16.5427735 ,Left ,66,8450281931395 ,45,11742451454 ,63,6375526279218
16.5654442 ,Left ,66,8198420783392 ,45,1013680308718 ,63,6990007436777
16.5879474 ,Left ,66,8109257122586 ,45,095086806928 ,63,754720614562
16.6027547 ,Left ,66,8012491440288 ,45,1079179414049 ,63,807490183394
16.6253502 ,Left ,66,7905512275696 ,45,1299514860677 ,63,86267056859
16.6480136 ,Left ,66,7689990183489 ,45,147730926784 ,63,9319346312193
16.6630094 ,Left ,66,7568049890593 ,45,1659201699909 ,64,0035288449759
16.685602 ,Left ,66,7386193837251 ,45,1947260061533 ,64,0608288106825
16.7080307 ,Left ,66,7208791218585 ,45,233058922386 ,64,1078506930418
16.7229742 ,Left ,66,7011603059257 ,45,2745335225455 ,64,1506701687611
16.7454076 ,Left ,66,6941229389692 ,45,3039462762918 ,64,1838622099472
16.768097 ,Left ,66,6730724810302 ,45,3236109287754 ,64,2041861507449
16.7828875 ,Left ,66,6329632835493 ,45,3371936297112 ,64,2140312792233
16.8055092 ,Left ,66,610565729342 ,45,3478756112874 ,64,2088986049142
16.827932 ,Left ,66,5858846128643 ,45,3436845907428 ,64,1745454775674
16.8430738 ,Left ,66,4892790570646 ,45,3335037922339 ,64,1439251322905
16.8656329 ,Left ,66,4460461639782 ,45,2906635219065 ,64,128803527562
16.8880491 ,Left ,66,4683481094696 ,45,2828898313705 ,64,122568441921
16.9044224 ,Left ,66,510450169865 ,45,3427872235835 ,64,0782353834631
16.9254238 ,Left ,66,5385747756178 ,45,4126641421032 ,64,0375131063522
16.9480393 ,Left ,66,5541038887366 ,45,4494681536926 ,64,0201349312446
16.9644769 ,Left ,66,577158806315 ,45,4836062510297 ,63,9916940415953
16.9856344 ,Left ,66,6033580449942 ,45,5299563151385 ,63,9518181451793
17.007823 ,Left ,66,6287231197161 ,45,560901976829 ,63,9141763484299
17.0244001 ,Left ,66,6152381748187 ,45,5941668578755 ,63,8655981315234
17.0454998 ,Left ,66,6133583487618 ,45,6207112368791 ,63,8119016910511
17.0680235 ,Left ,66,6089348223519 ,45,630839319978 ,63,765272257264
17.0858898 ,Left ,66,5804060982412 ,45,624978618482 ,63,7268769562724
17.1055561 ,Left ,66,538057808716 ,45,6124488352154 ,63,6944933233963
17.1279416 ,Left ,66,4761896994895 ,45,6112768787575 ,63,6782108568367
17.1442989 ,Left ,66,4588523789705 ,45,5807781813346 ,63,6962349321887
17.1656256 ,Left ,66,5039237147313 ,45,5922342741534 ,63,7128704651355
17.1881041 ,Left ,66,5255959357298 ,45,6382770796867 ,63,7010561000978
17.2043546 ,Left ,66,4777466599212 ,45,6529507918366 ,63,702870730229
17.2253221 ,Left ,66,4862356664586 ,45,6609908257281 ,63,7054318553626
17.2480261 ,Left ,66,4614365282079 ,45,6505435105064 ,63,7045346333666
17.2661104 ,Left ,66,4554438232267 ,45,6389259695049 ,63,7131978244883
17.285462 ,Left ,66,3802598869574 ,45,6459660940568 ,63,7095526225773
17.30827 ,Left ,66,3753958024012 ,45,6493622453067 ,63,700505668386
17.3258899 ,Left ,66,3659690114106 ,45,6651070646633 ,63,7156511376664
17.3455584 ,Left ,66,401909409698 ,45,7318637606287 ,63,7316003173007
17.3681575 ,Left ,66,4330157731647 ,45,8239391731354 ,63,7275073010435
17.3858588 ,Left ,66,4717611784642 ,45,8871350096969 ,63,7325699008714
17.4055023 ,Left ,66,5388300233826 ,45,9446990113332 ,63,7541994589775
17.4282304 ,Left ,66,5369341420033 ,45,9817025241205 ,63,779025080927
17.4458733 ,Left ,66,5329138259626 ,46,0262176727682 ,63,8069365835055
17.4653927 ,Left ,66,4938967707683 ,46,0704457572754 ,63,8199122104763
17.487978 ,Left ,66,4616290527569 ,46,1035860943194 ,63,8404949641594
17.5058343 ,Left ,66,437110674751 ,46,1302381286143 ,63,8612953787426
17.5254118 ,Left ,66,4011674435275 ,46,148594977869 ,63,8808885782878
17.5481914 ,Left ,66,3630469065877 ,46,1390160470535 ,63,8932140123701
17.5660546 ,Left ,66,3215686653713 ,46,1094486773327 ,63,9025116189541
17.5855838 ,Left ,66,3005529108883 ,46,0714404410681 ,63,9001994858688
17.6081782 ,Left ,66,2532053156213 ,46,0250221866634 ,63,8820160934944
17.625823 ,Left ,66,2526436542211 ,45,9955995556872 ,63,8718827962835
17.6454875 ,Left ,66,2484000713916 ,45,9391210420838 ,63,877939683652
17.6676836 ,Left ,66,287584996404 ,45,9726291266835 ,63,8595921760183
17.6857693 ,Left ,66,3065794445684 ,46,034657014146 ,63,8128615993468
17.7053045 ,Left ,66,3221780354169 ,46,0288091397855 ,63,7964203278657
17.7276071 ,Left ,66,3893840557326 ,46,0189055014047 ,63,7749773874738
17.7457285 ,Left ,66,4279781429025 ,46,0126585930162 ,63,7207377395581
17.7654122 ,Left ,66,4845920643519 ,45,9814278409409 ,63,6816157275654
17.7835642 ,Left ,66,4966354070924 ,45,9730253487529 ,63,6453884593106
17.8060261 ,Left ,66,5012110923363 ,45,9994298037504 ,63,5854916016896
17.8283268 ,Left ,66,5175640275401 ,46,0597144282993 ,63,5124003438051
17.8436088 ,Left ,66,5547455103728 ,46,105626228774 ,63,4295845073705
17.8706185 ,Left ,66,5784334593255 ,46,1366234431585 ,63,347404346873
17.8866548 ,Left ,66,567280014731 ,46,1744168473081 ,63,251664877093
17.9076342 ,Left ,66,5571211590477 ,46,2374188010018 ,63,1293194692525
17.9258355 ,Left ,66,5560538649881 ,46,3074811974328 ,63,0019576756315
17.946851 ,Left ,66,5716088319599 ,46,3701625241299 ,62,8863322705667
17.9678815 ,Left ,66,5576773759896 ,46,4352282408507 ,62,7732028744517
17.9858011 ,Left ,66,5463144328642 ,46,497498032413 ,62,6671033360083
18.0067361 ,Left ,66,5449927006095 ,46,5393317068956 ,62,5793224930769
18.0280767 ,Left ,66,540684209547 ,46,5681756550504 ,62,5066134484518
18.0458009 ,Left ,66,534766694508 ,46,5907296093136 ,62,4380411691669
18.0670218 ,Left ,66,5173494700505 ,46,5915841740026 ,62,37881287575
18.0834266 ,Left ,66,4826375790894 ,46,5717574453911 ,62,3364635698002
18.1063595 ,Left ,66,4076766800351 ,46,5080977932423 ,62,3175565322818
18.1269249 ,Left ,66,3941831388083 ,46,4440189357437 ,62,3292277561999
18.1434127 ,Left ,66,3604553706964 ,46,3571903907277 ,62,3661156267606
18.1661621 ,Left ,66,3694997452699 ,46,3361764962223 ,62,3584421266094
18.1884742 ,Left ,66,3651352599804 ,46,2723255253023 ,62,3885277172044
18.2035964 ,Left ,66,3471650370552 ,46,1677298935533 ,62,4435737579632
18.2261802 ,Left ,66,3501879624869 ,46,0426337439892 ,62,5079589884243
18.2475238 ,Left ,66,365636363271 ,45,8854357605928 ,62,5372547408868
18.2688065 ,Left ,66,3764267122713 ,45,7486719235012 ,62,5446824718678
18.292638 ,Left ,66,3812195973298 ,45,6569156628332 ,62,5600525882777
18.307596 ,Left ,66,3899285885982 ,45,6081298514903 ,62,5908082629478
18.328896 ,Left ,66,404846332285 ,45,5941461480124 ,62,6402152842858
18.345117 ,Left ,66,4059943749112 ,45,6132293865714 ,62,6856306161069
18.3676631 ,Left ,66,4099709117568 ,45,6162488378238 ,62,733654210386
18.3819484 ,Left ,66,4332289991576 ,45,6216360792505 ,62,7714697622993
18.405026 ,Left ,66,4259531046987 ,45,6447112056153 ,62,7906132193223
18.4276849 ,Left ,66,4199445815924 ,45,6662700280347 ,62,806148680268
18.4419306 ,Left ,66,4185098448447 ,45,6926599506171 ,62,8223771043686
18.4726413 ,Left ,66,3976471050796 ,45,7252603489746 ,62,8246212400399
18.4876673 ,Left ,66,3896219683205 ,45,7603628045495 ,62,8172389542621
18.5019865 ,Left ,66,373129900053 ,45,7817137867729 ,62,806158840856
18.525116 ,Left ,66,361185294468 ,45,793674958488 ,62,7959735966901
18.5477439 ,Left ,66,3438213339949 ,45,7978591598324 ,62,7837786657002
18.5619849 ,Left ,66,3399889473978 ,45,7924870342742 ,62,7677786269585
18.5851027 ,Left ,66,3345144289253 ,45,780863519276 ,62,7560394215642
18.608281 ,Left ,66,2847215573739 ,45,751383663689 ,62,7429031402385
18.6220279 ,Left ,66,3000032939406 ,45,7564693418743 ,62,7293062177015
18.6451277 ,Left ,66,2921962594286 ,45,7363852625026 ,62,7458982223467
18.6676577 ,Left ,66,3403822753581 ,45,7641343294812 ,62,748053524774
18.6888738 ,Left ,66,3659951150397 ,45,8159684791504 ,62,7199649853431
18.7051074 ,Left ,66,3878154137845 ,45,8128226616461 ,62,7231205398736
18.7276546 ,Left ,66,4754199441918 ,45,8075480649236 ,62,7326000990874
18.748777 ,Left ,66,5121171649469 ,45,8059592933622 ,62,7258297518085
18.7651799 ,Left ,66,5653193852699 ,45,7916092816773 ,62,7267016465569
18.787656 ,Left ,66,5615392183856 ,45,7694704643552 ,62,7421957011366
18.8087941 ,Left ,66,5446042930274 ,45,7504374334081 ,62,7610485771177
18.8250869 ,Left ,66,5496894697692 ,45,7513728455007 ,62,78223398991
18.8477642 ,Left ,66,5758241156629 ,45,7556838572609 ,62,8204373012962
18.8689471 ,Left ,66,5913636282868 ,45,7477649904321 ,62,8712263265403
18.8851527 ,Left ,66,5953471326184 ,45,7341838888938 ,62,9255932045705
18.9076968 ,Left ,66,587886395363 ,45,7191999785089 ,62,9751861656151
18.9288688 ,Left ,66,6036346074908 ,45,7053407603122 ,63,0208355108619
18.9451227 ,Left ,66,6133691979762 ,45,6911667338017 ,63,0627166880449
18.9675725 ,Left ,66,6212809749715 ,45,6745458848219 ,63,0978709886725
18.9889966 ,Left ,66,6318375927101 ,45,6503047225362 ,63,1300640490807
19.0051556 ,Left ,66,6383687742834 ,45,6190418986483 ,63,15265545845
19.0280813 ,Left ,66,645048627067 ,45,59198377427 ,63,1668433804204
19.0489146 ,Left ,66,6549103168655 ,45,5684973815954 ,63,1732823700664
19.0651291 ,Left ,66,6835752359373 ,45,5402176026049 ,63,1771568764895
19.0874568 ,Left ,66,6952844131275 ,45,5143472341908 ,63,1827671885584
19.1083482 ,Left ,66,6993065340623 ,45,4885815230889 ,63,1898880171654
19.1242005 ,Left ,66,7041166327033 ,45,4614362461265 ,63,2068313720953
19.1475271 ,Left ,66,7190214488846 ,45,4400887740962 ,63,2255176936248
19.1701259 ,Left ,66,7268560610075 ,45,4118649046498 ,63,2522743508419
19.1850698 ,Left ,66,73839605377 ,45,3806858301478 ,63,2939491082338
19.2076574 ,Left ,66,7409474097865 ,45,355542871865 ,63,3344675206268
19.2301059 ,Left ,66,751898405461 ,45,3359800621078 ,63,3773746875986
19.245191 ,Left ,66,7577317276811 ,45,320998164097 ,63,4111781745212
19.2675953 ,Left ,66,7728923170797 ,45,3097463915015 ,63,4410020870645
19.2900967 ,Left ,66,7780603907592 ,45,2970193022959 ,63,4605997530709
19.3044735 ,Left ,66,7688242050698 ,45,2826712442739 ,63,4748495148961
19.3276286 ,Left ,66,7761498624113 ,45,2717129406413 ,63,4829713207607
19.3501147 ,Left ,66,7813744895808 ,45,2551565273441 ,63,4905371540128
19.3645258 ,Left ,66,7818478113441 ,45,2329614999604 ,63,5018289513808
19.3876532 ,Left ,66,7853482108679 ,45,2081564636166 ,63,5205058470351
19.4101185 ,Left ,66,8032577012171 ,45,1816905473184 ,63,5393532975637
19.4242988 ,Left ,66,7972340120059 ,45,1564659838963 ,63,5694720465787
19.4476008 ,Left ,66,8174629208685 ,45,1362077107034 ,63,6079112110348
19.4699332 ,Left ,66,8263112018421 ,45,1035875118 ,63,6589923935733
19.4843298 ,Left ,66,8378060452273 ,45,0766570518281 ,63,7112851854563
19.5074134 ,Left ,66,8270753913482 ,45,0613003739517 ,63,7570572794823
19.535916 ,Left ,66,8101573758427 ,45,0615836723555 ,63,8127617522198
19.544392 ,Left ,66,7874508720927 ,45,0644515573956 ,63,8770296994984
19.5673749 ,Left ,66,7696312171889 ,45,0610384927142 ,63,9360206592894
19.5899718 ,Left ,66,7565123072465 ,45,0653219391381 ,63,9865997233797
19.6044372 ,Left ,66,7494492601824 ,45,0866381759304 ,64,0288488539232
19.6277204 ,Left ,66,7343842179309 ,45,1166633832306 ,64,0662914326102
19.6503156 ,Left ,66,7023468138423 ,45,1496280239866 ,64,105576571235
19.6711259 ,Left ,66,6810892947583 ,45,1836617804984 ,64,1392905589629
19.6875954 ,Left ,66,6710949258921 ,45,2102562995824 ,64,160080077077
19.7100806 ,Left ,66,6505240074494 ,45,2266753163061 ,64,1714607937937
19.7313814 ,Left ,66,6056119823799 ,45,2172071714606 ,64,1789544189588
19.7476487 ,Left ,66,5755027751673 ,45,2151343118227 ,64,1741870649348
19.7700604 ,Left ,66,5317806453754 ,45,2082330733823 ,64,14136184732
19.7912051 ,Left ,66,4931753823765 ,45,2072064681735 ,64,109603024981
19.8076004 ,Left ,66,4856235748345 ,45,1934406688421 ,64,1122895374967
19.8301801 ,Left ,66,5160786880422 ,45,252658063519 ,64,1023576779914
19.8508242 ,Left ,66,5189182237721 ,45,3380913396517 ,64,058485365535
19.867446 ,Left ,66,5718522026945 ,45,388552401488 ,64,0452099726491
19.8899 ,Left ,66,5786781088535 ,45,4122441172187 ,64,0268907953677
19.9111039 ,Left ,66,5926059673912 ,45,42996492985 ,63,9759838143633
19.9273459 ,Left ,66,606323799515 ,45,4602683728888 ,63,9102235280639
19.9499551 ,Left ,66,6058042868247 ,45,4765479997385 ,63,8540985135129
19.971323 ,Left ,66,5738957683556 ,45,5045500748666 ,63,784066945636
19.987532 ,Left ,66,5689288606942 ,45,5244821982352 ,63,7217858984753
20.0100178 ,Left ,66,5704913023619 ,45,528515050749 ,63,6595833862158
20.0313517 ,Left ,66,5595389139242 ,45,5134012253885 ,63,619228090902
20.0477717 ,Left ,66,5267842781071 ,45,4901948906622 ,63,597374893106
20.0700343 ,Left ,66,4488436257547 ,45,4638049090208 ,63,5898286139168
20.0925081 ,Left ,66,4079390150643 ,45,4657517591463 ,63,5629685580632
20.1076304 ,Left ,66,3732743024182 ,45,4867686354062 ,63,5698902183852
20.1296958 ,Left ,66,3936389813823 ,45,5310744477361 ,63,6000197303991
20.1529414 ,Left ,66,4227286588935 ,45,6121138873757 ,63,5996855625847
20.1678439 ,Left ,66,4616358701221 ,45,6659523884787 ,63,5970079114947
20.1899876 ,Left ,66,5303998003079 ,45,6938217384622 ,63,6098056228327
20.2124606 ,Left ,66,5111009986257 ,45,7129127465698 ,63,5996610820963
20.2275721 ,Left ,66,516307310958 ,45,7230258358382 ,63,590144154989
20.2500608 ,Left ,66,5180357792579 ,45,720662702381 ,63,5893208382567
20.2723156 ,Left ,66,5042289402938 ,45,7139466836259 ,63,5837987353806
20.2868699 ,Left ,66,5012267771688 ,45,7087143163946 ,63,5756137113386
20.3099465 ,Left ,66,5157440637485 ,45,7068067885507 ,63,5716953477473
20.332504 ,Left ,66,5333834842949 ,45,7023085617272 ,63,5637129196526
20.3468811 ,Left ,66,5304923114933 ,45,6899367143148 ,63,5615578008705
20.3704812 ,Left ,66,5209740962167 ,45,6781423231676 ,63,5620019927933
20.3925043 ,Left ,66,5224211734692 ,45,670171433109 ,63,5579028329224
20.4068821 ,Left ,66,5285511358227 ,45,6669338643682 ,63,5545124398514
20.4301583 ,Left ,66,5157159490481 ,45,6683351344534 ,63,5509732701983
20.4525008 ,Left ,66,5176446458622 ,45,6725778846688 ,63,5511573560151
20.4669056 ,Left ,66,5194322166443 ,45,7018598393534 ,63,5565420397339
20.490021 ,Left ,66,5021069518442 ,45,7325826696913 ,63,5680154585312
20.5125172 ,Left ,66,4473195320181 ,45,7773406755512 ,63,5867615829058
20.5268616 ,Left ,66,4302480119019 ,45,822662470604 ,63,6135549767265
20.5499818 ,Left ,66,4349130416035 ,45,8499512582586 ,63,644017692935
20.5725299 ,Left ,66,4421959022345 ,45,8779763551431 ,63,6544978081103
20.6012755 ,Left ,66,4040464456229 ,45,9062440331189 ,63,6511754185894
20.6100013 ,Left ,66,377825438397 ,45,9248255875532 ,63,647360035362
20.6325052 ,Left ,66,3846097028447 ,45,9335043246436 ,63,6348038296628
20.6536131 ,Left ,66,3782555230653 ,45,9328437310297 ,63,6261282648716
20.6700513 ,Left ,66,3630620815461 ,45,9314923719437 ,63,613033355271
20.692528 ,Left ,66,3595352344824 ,45,9224487938846 ,63,5949455623046
20.7137966 ,Left ,66,3631308501746 ,45,9026107637897 ,63,5850050417206
20.7300444 ,Left ,66,3752389019917 ,45,8778495132043 ,63,5762095263773
20.7524624 ,Left ,66,3806695403477 ,45,8512195204588 ,63,5604772111217
20.7736234 ,Left ,66,3959381832185 ,45,8265364497898 ,63,5366219745792
20.7899882 ,Left ,66,4116002123438 ,45,8074789193708 ,63,5160275369119
20.8125411 ,Left ,66,4366531242604 ,45,7917995751305 ,63,5006144959541
20.8336504 ,Left ,66,4644285258139 ,45,7706149820347 ,63,5008391434949
20.8496926 ,Left ,66,4741840981692 ,45,7398235272587 ,63,5113705889284
20.8724954 ,Left ,66,4806095812641 ,45,7154527172489 ,63,5148134155089
20.8933795 ,Left ,66,4840838827073 ,45,6959949975356 ,63,5204594529825
20.9098757 ,Left ,66,4996824204269 ,45,6830871334212 ,63,5207905993026
20.9325043 ,Left ,66,5113640062867 ,45,6602124104055 ,63,5182484476841
20.9537657 ,Left ,66,5076734011993 ,45,6386976025241 ,63,5164347603786
20.9700424 ,Left ,66,4814070632387 ,45,6155784924735 ,63,5215957069785
20.9925443 ,Left ,66,4625390946876 ,45,5866591537665 ,63,5220518909102
21.013548 ,Left ,66,4727550040307 ,45,5546449971077 ,63,4755958255447
21.0293276 ,Left ,66,3539800788145 ,45,4622390748969 ,63,4648643139795
21.0525273 ,Left ,66,3675157539795 ,45,377377489284 ,63,4634198106426
21.0749923 ,Left ,66,3925943165482 ,45,3329188939848 ,63,4691586116313
21.0894053 ,Left ,66,4450484631402 ,45,4114765367499 ,63,4205839505776
21.1125355 ,Left ,66,451951548101 ,45,4697573112122 ,63,3980921297776
21.1349809 ,Left ,66,4550331090152 ,45,4799238796939 ,63,4369745700921
21.1498721 ,Left ,66,4453886725475 ,45,5119334783356 ,63,4704237365191
21.1723054 ,Left ,66,4434311437741 ,45,5650038363519 ,63,5186137791573
21.1946976 ,Left ,66,4121970921477 ,45,6081489540434 ,63,5681092811756
21.2092185 ,Left ,66,3780885231358 ,45,6531082935407 ,63,6260503871602
21.2325894 ,Left ,66,3578471626946 ,45,7052329843557 ,63,6709356757551
21.2551422 ,Left ,66,3328817747931 ,45,7505507802397 ,63,6964418976108
21.2695195 ,Left ,66,2978406381639 ,45,7920226685428 ,63,7135352447058
21.2925585 ,Left ,66,2889626907597 ,45,8203017631082 ,63,7370988997265
21.315048 ,Left ,66,2945998289391 ,45,8228920777237 ,63,7520703096617
21.3294381 ,Left ,66,2995029439758 ,45,8508680326484 ,63,7417989287169
21.3525431 ,Left ,66,2837567835024 ,45,8931458995895 ,63,7282084804225
21.3749532 ,Left ,66,2821025782584 ,45,9268313869159 ,63,7097719517667
21.3893019 ,Left ,66,2832092703591 ,45,9372989837265 ,63,6871734572316
21.4125322 ,Left ,66,2885617365854 ,45,9383081813685 ,63,6655845195238
21.4350092 ,Left ,66,2767534107977 ,45,9269289540561 ,63,6502973802555
21.4494863 ,Left ,66,2760887114669 ,45,8954681673802 ,63,6236704644796
21.4800522 ,Left ,66,2014348725149 ,45,8203828042472 ,63,5929460217595
21.4949856 ,Left ,66,175761466751 ,45,7488885428086 ,63,5913997089656
21.5094302 ,Left ,66,2164462339017 ,45,7257006490617 ,63,6000541476959
21.5326185 ,Left ,66,2420657148848 ,45,7920343391551 ,63,5579509517164
21.5551249 ,Left ,66,2807956507278 ,45,8643228698793 ,63,5367861156624
21.5761504 ,Left ,66,2905465437192 ,45,8827274601597 ,63,5372968424873
21.5925157 ,Left ,66,2867800726229 ,45,8810039216014 ,63,4948925122849
21.6151864 ,Left ,66,308544180885 ,45,878449249953 ,63,4304445336081
21.6361298 ,Left ,66,3302473553266 ,45,8528716327022 ,63,3789296181795
21.6526959 ,Left ,66,3308665677789 ,45,8369028147096 ,63,3300278599195
21.6752432 ,Left ,66,3295529174811 ,45,8211081175023 ,63,285940148812
21.6962851 ,Left ,66,3374994049088 ,45,8122404392488 ,63,2541978567917
21.7126259 ,Left ,66,3785426761988 ,45,7990127049298 ,63,2345295409877
21.7351303 ,Left ,66,4139907573932 ,45,7755134317996 ,63,2237315473578
21.7561243 ,Left ,66,4418548348413 ,45,7487963383212 ,63,2185060426074
21.7724927 ,Left ,66,4589428682951 ,45,7290850673633 ,63,2124508375559
21.7950125 ,Left ,66,4982654140257 ,45,715103121182 ,63,199751014555
21.8160238 ,Left ,66,520262643258 ,45,6975962483502 ,63,1828455227545
21.8325464 ,Left ,66,5382204827621 ,45,6831139647498 ,63,1645491037302
21.8551436 ,Left ,66,5485790681593 ,45,6705908582784 ,63,1411615428854
21.876099 ,Left ,66,5477265177322 ,45,668972601225 ,63,1172288488504
21.8926278 ,Left ,66,5649168045372 ,45,6753149953671 ,63,0896382933247
21.9150434 ,Left ,66,5823126674339 ,45,6906469168798 ,63,0612717695607
21.9360992 ,Left ,66,5968133692605 ,45,7183200139223 ,63,0319038820131
21.9525253 ,Left ,66,5951396707779 ,45,7517041516057 ,62,998701010965
21.9751131 ,Left ,66,5956062760494 ,45,7995547687381 ,62,9425609628994
21.9975563 ,Left ,66,6055999672682 ,45,8586076491293 ,62,8683517063121
22.0124852 ,Left ,66,6190441370812 ,45,9158016131343 ,62,7840969434532
22.0350756 ,Left ,66,6070450817324 ,45,9722431904629 ,62,7018175703277
22.05758 ,Left ,66,5686285775956 ,46,0315965263529 ,62,6232027247018
22.0718672 ,Left ,66,5485361193404 ,46,0968385917192 ,62,5347670859763
22.0793032 ,Left ,66,5584121298681 ,46,1624704900113 ,62,4452494253825
22.1003232 ,Left ,66,5740089874417 ,46,2027705242882 ,62,3710991805631
22.1231064 ,Left ,66,5886132921044 ,46,228209858298 ,62,3138087503872
22.1394794 ,Left ,66,5984160400601 ,46,2597775519491 ,62,2618613029882
22.1605162 ,Left ,66,6020334810782 ,46,3027143586123 ,62,2081012293835
22.1830541 ,Left ,66,6062369566011 ,46,3415933714469 ,62,1521428297713
22.1982088 ,Left ,66,6006601954798 ,46,3798766552438 ,62,0976148156473
22.220379 ,Left ,66,5738755372946 ,46,4215688862135 ,62,0448872638168
22.2429584 ,Left ,66,5439043994675 ,46,4488623090012 ,62,0064683686861
22.2578835 ,Left ,66,5383896340692 ,46,4675039477982 ,61,9709577681612
22.2803329 ,Left ,66,5074772836411 ,46,4539521659632 ,61,9375934441645
22.3117424 ,Left ,66,4153371091475 ,46,3682459494535 ,61,945895451575
22.3179597 ,Left ,66,4136719472715 ,46,2627821120438 ,61,9880726537523
22.3406201 ,Left ,66,415121572685 ,46,2007056321784 ,62,0323579592126
22.3630236 ,Left ,66,365823586499 ,46,1827837269137 ,62,0450315923778
22.3779291 ,Left ,66,3047066436334 ,46,1026856619342 ,62,1028031828905
22.4003316 ,Left ,66,33961532972 ,46,0023695743459 ,62,1183067537794
22.4228264 ,Left ,66,3424885369286 ,45,8443229118631 ,62,1051592574242
22.4393652 ,Left ,66,3678373675569 ,45,7057856415761 ,62,0695447653004
22.4605196 ,Left ,66,3860200779955 ,45,5832451629957 ,62,0587879837556
22.4830007 ,Left ,66,4335955080257 ,45,5016166610896 ,62,0730552282867
22.499426 ,Left ,66,4782567454321 ,45,4522361690983 ,62,1086301529625
22.520576 ,Left ,66,5512930347569 ,45,4526294343238 ,62,1400606842054
22.5430135 ,Left ,66,5907072401897 ,45,4577644846165 ,62,194320944328
22.5593776 ,Left ,66,5703357877107 ,45,4863600542361 ,62,2555000294697
22.5802941 ,Left ,66,5356872024082 ,45,5311804593528 ,62,3143078484813
22.6028989 ,Left ,66,5163628816831 ,45,5760062944386 ,62,3489263951287
22.6193602 ,Left ,66,4997190578848 ,45,627637698725 ,62,3619151396896
22.6406001 ,Left ,66,495790746329 ,45,6825336421523 ,62,3605729562252
22.6631175 ,Left ,66,4681429745842 ,45,7206574134192 ,62,3577495938106
22.6794851 ,Left ,66,4532729976458 ,45,7568961297004 ,62,3604618694942
22.7003185 ,Left ,66,426426519104 ,45,7790745997443 ,62,3442013247515
22.7309463 ,Left ,66,4212518651115 ,45,7848390282518 ,62,3468424515351
22.7391101 ,Left ,66,4084087408889 ,45,7433391704217 ,62,3863703296668
22.7603087 ,Left ,66,4425089241165 ,45,7576953650851 ,62,4228715828223
22.7829768 ,Left ,66,4556697406312 ,45,8327370892123 ,62,4211563485926
22.7995146 ,Left ,66,4593156033658 ,45,8780657822291 ,62,4254992495199
22.8207647 ,Left ,66,5177533901863 ,45,9036819700684 ,62,4427960848934
22.8429479 ,Left ,66,5401087621725 ,45,9036589177521 ,62,4379313700095
22.865744 ,Left ,66,5799709265911 ,45,8797830263374 ,62,4419707702936
22.8805298 ,Left ,66,5982588896672 ,45,8564524431641 ,62,4540120669382
22.9029334 ,Left ,66,5884637864003 ,45,8353636884065 ,62,4770336205477
22.9195155 ,Left ,66,5795072108704 ,45,8210025197141 ,62,5111720625151
22.9406415 ,Left ,66,5721963668291 ,45,813910337435 ,62,5595907160629
22.9630356 ,Left ,66,5585225873304 ,45,7991147798691 ,62,61863911366
22.9809233 ,Left ,66,5417608552872 ,45,7759813689191 ,62,6778861826133
23.0006756 ,Left ,66,5380486362419 ,45,7474045245601 ,62,7357653548045
23.0232254 ,Left ,66,5311250957311 ,45,7180645338523 ,62,7927119933585
23.0411754 ,Left ,66,53317238446 ,45,6927601205203 ,62,847962697362
23.0605046 ,Left ,66,5384184140528 ,45,6709739642213 ,62,8956215893831
23.0827667 ,Left ,66,5357468273428 ,45,644062751544 ,62,9346639676176
23.1007679 ,Left ,66,5393317798573 ,45,6173717716316 ,62,9662979029729
23.1204225 ,Left ,66,5435605665924 ,45,591650800003 ,62,9942306889366
23.1427746 ,Left ,66,5586260325078 ,45,5709425848384 ,63,0153969500616
23.1608634 ,Left ,66,5679387161201 ,45,5421431093548 ,63,0319348014919
23.1805241 ,Left ,66,5843808352214 ,45,5112212568918 ,63,0529840945091
23.2028195 ,Left ,66,6026582196373 ,45,4779009462928 ,63,0732315124972
23.2206405 ,Left ,66,6213004953611 ,45,4467425164024 ,63,0895517474291
23.240248 ,Left ,66,6416225039499 ,45,4152236750212 ,63,1005441779693
23.2627887 ,Left ,66,6755878064646 ,45,385831592495 ,63,1092936804073
23.2810005 ,Left ,66,7007427574855 ,45,3633013750725 ,63,1124899390581
23.3006414 ,Left ,66,7238589366695 ,45,3478676860236 ,63,1124346389696
23.3231043 ,Left ,66,7448053077148 ,45,3288586144787 ,63,1072802858225
23.3409758 ,Left ,66,7644102491935 ,45,3102061398554 ,63,0960840710755
23.3606148 ,Left ,66,7796899367716 ,45,2868786679404 ,63,0961428747657
23.3828966 ,Left ,66,7975043871105 ,45,2642412860224 ,63,0987645571161
23.4009529 ,Left ,66,7992106063665 ,45,236310864179 ,63,1146723955364
23.4204859 ,Left ,66,8085358506928 ,45,204452486925 ,63,1422795604436
23.4432275 ,Left ,66,8154793694695 ,45,1683855846932 ,63,1832654143575
23.4609947 ,Left ,66,800373009903 ,45,133332495416 ,63,2328552551511
23.4804567 ,Left ,66,7879098228625 ,45,0998412874123 ,63,2807933103783
23.5032647 ,Left ,66,7962785447046 ,45,0613115813918 ,63,3466312653081
23.5210386 ,Left ,66,7898889268509 ,45,0338403854132 ,63,4300255269171
23.5419133 ,Left ,66,7312005312322 ,45,0235861694094 ,63,5224312694113
23.5585447 ,Left ,66,6619238959187 ,45,0196174163102 ,63,6145322358233
23.5809729 ,Left ,66,6407960980737 ,45,0245369027849 ,63,6925169764344
23.6020308 ,Left ,66,6487508343545 ,45,0335073385219 ,63,7532003167118
23.6185983 ,Left ,66,6361835613739 ,45,0538141099413 ,63,8040339266573
23.6408301 ,Left ,66,6019441510477 ,45,0870868657116 ,63,8486395883316
23.6615185 ,Left ,66,5633037653256 ,45,1295488188383 ,63,8873479099835
23.6781085 ,Left ,66,5475454760964 ,45,1686667884552 ,63,9109949036668
23.7011632 ,Left ,66,5208282567522 ,45,1930151553278 ,63,9335400924282
23.721843 ,Left ,66,4888890691841 ,45,2148172364955 ,63,9388878704949
23.7383978 ,Left ,66,4716513807295 ,45,2373794528577 ,63,9194319858558
23.7607062 ,Left ,66,4049721155841 ,45,2501450876964 ,63,9028739168438
23.7817557 ,Left ,66,3517669263534 ,45,2602473637274 ,63,9040459001105
23.7984031 ,Left ,66,3495010974012 ,45,2946013135655 ,63,9007247805935
23.8209041 ,Left ,66,3989904377224 ,45,3904918274769 ,63,8656115672828
23.8417926 ,Left ,66,4100599846203 ,45,4898926734769 ,63,8229631557008
23.8582083 ,Left ,66,4592207873107 ,45,5437317099386 ,63,7954670722339
23.8809389 ,Left ,66,5473159362546 ,45,5859883315202 ,63,7486679729503
23.9031764 ,Left ,66,5851142275137 ,45,602531907366 ,63,6900438923259
23.9181299 ,Left ,66,6214161308434 ,45,6133553286397 ,63,6407258967813
23.9399849 ,Left ,66,6245630263246 ,45,6062000904355 ,63,6041077549899
23.9625497 ,Left ,66,5758149811398 ,45,6155517524291 ,63,5588084648784
23.9835765 ,Left ,66,5625323088604 ,45,6339537907041 ,63,497559915843
23.9997823 ,Left ,66,5547323927268 ,45,6232926501367 ,63,4472321419992
24.022594 ,Left ,66,5178034245597 ,45,5866616195566 ,63,4055633625269
24.0436086 ,Left ,66,4703376052622 ,45,5659979268354 ,63,3737576439247
24.0600312 ,Left ,66,4522793622371 ,45,5358356371869 ,63,3861991476941
24.0825246 ,Left ,66,4922393923589 ,45,5565086945551 ,63,417354584767
24.0968883 ,Left ,66,5403348043647 ,45,6308985756107 ,63,4086821923126
24.120057 ,Left ,66,5356205495745 ,45,6791563309047 ,63,4079578684182
24.142553 ,Left ,66,578663309918 ,45,7167156492177 ,63,4148234554996
24.1569279 ,Left ,66,5470536254025 ,45,7206207596712 ,63,4156287392025
24.1799034 ,Left ,66,5204744139399 ,45,7296053984328 ,63,4198279324221
24.2024746 ,Left ,66,4691052408317 ,45,7540693396668 ,63,4034444223468
24.2169501 ,Left ,66,4685248117463 ,45,7467844000063 ,63,3632354645619
24.2399391 ,Left ,66,4502711660567 ,45,7161544862098 ,63,3706772457241
24.2622687 ,Left ,66,4700907206822 ,45,7571934780117 ,63,3843351925218
24.2835115 ,Left ,66,5045499879396 ,45,8487184383532 ,63,3782788102853
24.2998203 ,Left ,66,5336544052239 ,45,9383074460757 ,63,3759184109439
24.3223924 ,Left ,66,5582269737012 ,45,9903459088309 ,63,3913944475465
24.3367374 ,Left ,66,5079547384374 ,46,0184106820722 ,63,430251642792
24.3599197 ,Left ,66,4743644772151 ,46,0686521318371 ,63,470283720357
24.3829682 ,Left ,66,457008703999 ,46,1104409170264 ,63,5028184723159
24.4041348 ,Left ,66,4449775766895 ,46,1416338099615 ,63,548208132863
24.4204392 ,Left ,66,4267513327953 ,46,1609347886285 ,63,5993108879347
24.4425977 ,Left ,66,4012082225318 ,46,1652628918211 ,63,6413112142708
24.4638092 ,Left ,66,3695069862248 ,46,1519485680148 ,63,6707430187703
24.4801044 ,Left ,66,3491502655598 ,46,1135886309141 ,63,6887665965515
24.5025053 ,Left ,66,3308517982268 ,46,0545203648096 ,63,6910477832362
24.523628 ,Left ,66,3258789311781 ,45,9957396207126 ,63,6775295713847
24.5401293 ,Left ,66,2618818101127 ,45,9217701832317 ,63,6484182311161
24.5627056 ,Left ,66,2433822842851 ,45,8727411423723 ,63,617888853812
24.5839209 ,Left ,66,2371956818767 ,45,8371159175874 ,63,6191908710998
24.6001623 ,Left ,66,2871465944692 ,45,8946642872689 ,63,6120574523263
24.622849 ,Left ,66,3007382921489 ,45,976331713316 ,63,5872489134665
24.6437337 ,Left ,66,3578779197503 ,45,9613459532607 ,63,5999281926432
24.6600526 ,Left ,66,4529688131235 ,45,9574558805549 ,63,5773680069205
24.682684 ,Left ,66,5150182514328 ,45,9532457876452 ,63,5171501632823
24.703908 ,Left ,66,5819545842646 ,45,9427464920843 ,63,4383334424287
24.7201541 ,Left ,66,6122539491115 ,45,9532846261066 ,63,3458534639367
24.7427128 ,Left ,66,6117673410334 ,45,9995412122486 ,63,2275562091584
24.7638157 ,Left ,66,6409176063394 ,46,0808374371508 ,63,0790630834351
24.7862966 ,Left ,66,689420937365 ,46,142023961119 ,62,9277067901783
24.8026198 ,Left ,66,6990188883159 ,46,1868987113085 ,62,7962025723169
24.8236563 ,Left ,66,6890406968261 ,46,2282536524586 ,62,6785613165767
24.839573 ,Left ,66,6690936106267 ,46,2777141377805 ,62,5615129985944
24.8626544 ,Left ,66,6921257542265 ,46,3396854939176 ,62,4497274473792
24.8852293 ,Left ,66,6944359421925 ,46,4084899893651 ,62,3545923030867
24.8995338 ,Left ,66,6732989265981 ,46,4626515255929 ,62,2738991629528
24.9227551 ,Left ,66,6666303564692 ,46,5033336849828 ,62,2077443292118
24.9452025 ,Left ,66,654369721184 ,46,5464816932423 ,62,1299566854682
24.9595685 ,Left ,66,6304535345042 ,46,5739452526406 ,62,060017857121
24.9825673 ,Left ,66,6086731105347 ,46,5808739676702 ,62,0084934285112
25.0052129 ,Left ,66,5804746740204 ,46,5669287179638 ,61,9755606714425
25.0195295 ,Left ,66,4370647541682 ,46,5163740862328 ,61,9605083537162
25.0426095 ,Left ,66,3607072420066 ,46,4476168117958 ,61,9920243992434
25.0651674 ,Left ,66,3530747530093 ,46,3894497052297 ,62,0589409968472
25.0795155 ,Left ,66,3369567407168 ,46,3957483747665 ,62,092875143484
25.1026981 ,Left ,66,3207660575545 ,46,3715597492665 ,62,1773017924614
25.1253175 ,Left ,66,3076156286483 ,46,2943358397568 ,62,2742253241211
25.139417 ,Left ,66,2776316888434 ,46,1741774289454 ,62,3369288249065
25.1625746 ,Left ,66,2654857690496 ,46,0603422369628 ,62,362943659473
25.1851837 ,Left ,66,2282043738385 ,45,9371473881755 ,62,3694343373725
25.2064993 ,Left ,66,2136064786611 ,45,8274891898597 ,62,3761088402068
25.2226321 ,Left ,66,2330116386133 ,45,7434886785939 ,62,3867480988872
25.2452125 ,Left ,66,2676807391377 ,45,6780536981843 ,62,4063986325878
25.2662416 ,Left ,66,2868162346671 ,45,622214190438 ,62,4440508267918
25.2827606 ,Left ,66,3046978069375 ,45,5864996169134 ,62,4699795756743
25.3050493 ,Left ,66,3597809015522 ,45,5570815580049 ,62,4674518305518
25.3195701 ,Left ,66,3859274073517 ,45,5411000988632 ,62,4541746161336
25.3428389 ,Left ,66,3908269619779 ,45,543027672464 ,62,4709046596848
25.3652049 ,Left ,66,3857914328732 ,45,5517313949624 ,62,4948907244597
25.3863795 ,Left ,66,3971527649751 ,45,5613467624902 ,62,5009154244719
25.4101378 ,Left ,66,4278084940897 ,45,5638641871915 ,62,4929082163676
25.4252905 ,Left ,66,4439690513486 ,45,578680520028 ,62,4816086202063
25.4464012 ,Left ,66,4342136395925 ,45,6189788107895 ,62,4670701282045
25.4623151 ,Left ,66,4186932818219 ,45,660274713574 ,62,4491951099873
25.4849248 ,Left ,66,409611645273 ,45,6937034810778 ,62,4410655564873
25.5059622 ,Left ,66,3915663147172 ,45,718347935845 ,62,4293511132575
25.5223654 ,Left ,66,3748168196132 ,45,728716122622 ,62,425729628928
25.5449524 ,Left ,66,3597014396863 ,45,7303718052361 ,62,4222928453636
25.5659137 ,Left ,66,349877455682 ,45,7215083150334 ,62,4293011954762
25.5824609 ,Left ,66,3278167619781 ,45,7156634333482 ,62,4291415665036
25.6049952 ,Left ,66,269035599605 ,45,713357692368 ,62,4248267027615
25.6259314 ,Left ,66,2778414639922 ,45,7241315419824 ,62,4239368932604
25.6433198 ,Left ,66,3035877617071 ,45,694213548908 ,62,4608968073865
25.6654182 ,Left ,66,3458259960553 ,45,7176939196849 ,62,4748986600654
25.6866516 ,Left ,66,3301568228479 ,45,7900573043857 ,62,4480041029119
25.7027851 ,Left ,66,340538515897 ,45,8054646971929 ,62,4699651967117
25.7254806 ,Left ,66,4185005750895 ,45,8117366851415 ,62,4965909497452
25.7465705 ,Left ,66,4542516571462 ,45,8119237206271 ,62,5027752812514
25.7629965 ,Left ,66,466102960547 ,45,7892953671833 ,62,5200637571377
25.7853787 ,Left ,66,4640507961636 ,45,7547073339226 ,62,5465755889647
25.807573 ,Left ,66,4642421914255 ,45,716146982678 ,62,5793551164397
25.8225366 ,Left ,66,4840793630782 ,45,6878616811521 ,62,6220768891909
25.845051 ,Left ,66,5082795024847 ,45,6635536601943 ,62,6698384916398
25.8675589 ,Left ,66,51541251585 ,45,6249016150333 ,62,723513316795
25.8823438 ,Left ,66,532987028122 ,45,589513972791 ,62,7883043326085
25.9048198 ,Left ,66,5482618779285 ,45,5561932717387 ,62,8535089357393
25.9278804 ,Left ,66,5511965866356 ,45,5270191961886 ,62,9301488506817
25.9422547 ,Left ,66,5576030617647 ,45,4998591552992 ,63,0084163184777
25.9650296 ,Left ,66,5796167707472 ,45,476635586503 ,63,0753636441335
25.9873606 ,Left ,66,5894406405915 ,45,4485865266473 ,63,1433128237815
26.0018924 ,Left ,66,6099520249523 ,45,4222024979938 ,63,2107555793669
26.025082 ,Left ,66,6336699411064 ,45,3939870461598 ,63,2813022340997
26.0479689 ,Left ,66,6534231956483 ,45,3567764194135 ,63,3490175463877
26.0619377 ,Left ,66,6794222349071 ,45,3187240152593 ,63,4136656660913
26.0852999 ,Left ,66,6887500856586 ,45,2685210155873 ,63,4764216214799
26.1075008 ,Left ,66,695033604234 ,45,2112470863608 ,63,5400129235732
26.1219455 ,Left ,66,704407263731 ,45,1489313981705 ,63,6016258141988
26.1450843 ,Left ,66,7185696267958 ,45,0859366933373 ,63,6635076600372
26.1676783 ,Left ,66,7195006750521 ,45,0210694849183 ,63,7285915303642
26.1818386 ,Left ,66,714386735464 ,44,9673936244487 ,63,7987586981359
26.2048053 ,Left ,66,688412769984 ,44,927479491286 ,63,8689343210235
26.2275648 ,Left ,66,6783752234905 ,44,9165778880507 ,63,9305779519985
26.2416795 ,Left ,66,6702256669397 ,44,9147528662485 ,64,0022640377619
26.2650315 ,Left ,66,6587127216009 ,44,9166965395492 ,64,0780539963639
26.28764 ,Left ,66,6519257704524 ,44,9402920164314 ,64,1420782980873
26.3088691 ,Left ,66,6224066647038 ,44,9733696429128 ,64,2029849620019
26.3250376 ,Left ,66,5985776761722 ,45,0189998597648 ,64,263571159338
26.3475632 ,Left ,66,576440210019 ,45,0716613199494 ,64,3144779624234
26.3688507 ,Left ,66,5666033764266 ,45,1303413414831 ,64,3569416750762
26.3851306 ,Left ,66,5447213907373 ,45,1802556781368 ,64,3932491973241
26.4078761 ,Left ,66,5143510533903 ,45,2348500970464 ,64,4096230461494
26.4288734 ,Left ,66,4836221933606 ,45,2929833914033 ,64,4095415772561
26.4450664 ,Left ,66,4515157159003 ,45,3426528524994 ,64,4048843731395
26.4676228 ,Left ,66,419518231467 ,45,377141595692 ,64,3919859790844
26.4885733 ,Left ,66,419083585707 ,45,4053037070056 ,64,3755684861612
26.5049832 ,Left ,66,3828368560439 ,45,409564587808 ,64,3258768472936
26.5273562 ,Left ,66,3405028936931 ,45,4119452989276 ,64,2561189137433
26.5490367 ,Left ,66,3052845969036 ,45,4032941834587 ,64,2339460370332
26.5654894 ,Left ,66,3412918319473 ,45,439933508681 ,64,2133857881895
26.5876918 ,Left ,66,3852900511994 ,45,530362597286 ,64,1646658082976
26.6087295 ,Left ,66,4081689330541 ,45,5998251714448 ,64,1437005580193
26.6250331 ,Left ,66,4352453857777 ,45,6413092331659 ,64,1199613713102
26.6474802 ,Left ,66,4777910329037 ,45,6711929686803 ,64,0742685645428
26.6685772 ,Left ,66,4943054399907 ,45,6870677558788 ,64,0172078502736
26.6850591 ,Left ,66,5070066059186 ,45,6892178883078 ,63,9686671076028
26.7075868 ,Left ,66,4804298150667 ,45,6873535259393 ,63,9145411648102
26.7299813 ,Left ,66,4569009742837 ,45,7040137240293 ,63,8609248699467
26.7451881 ,Left ,66,4588833317484 ,45,7170065612551 ,63,7983168546329
26.7675694 ,Left ,66,4228163531794 ,45,6999141868529 ,63,7512651141638
26.7900347 ,Left ,66,3513169026593 ,45,6605532300663 ,63,6959326055708
26.8050356 ,Left ,66,3399051882088 ,45,6377236451932 ,63,6591537879965
26.8278898 ,Left ,66,3459249580619 ,45,6111409499457 ,63,666785510747
26.8503798 ,Left ,66,4160437433107 ,45,6352749436374 ,63,6779470494476
26.8654273 ,Left ,66,4496810788045 ,45,6940831097979 ,63,6590256792998
26.8879295 ,Left ,66,4328445188965 ,45,7166088785967 ,63,6766702123202
26.910177 ,Left ,66,4104980589822 ,45,7313195924301 ,63,6787353393935
26.9243637 ,Left ,66,3789618581098 ,45,7207356408038 ,63,6869522445702
26.9476038 ,Left ,66,3583088852322 ,45,7079370417974 ,63,7058464930353
26.9698078 ,Left ,66,3057882490943 ,45,7425382623606 ,63,7093895067364
26.9842096 ,Left ,66,2623495870328 ,45,7453409004761 ,63,6821531949776
27.0076277 ,Left ,66,2277044390515 ,45,7584911477806 ,63,710224372205
27.0300672 ,Left ,66,1732991616517 ,45,7999068065995 ,63,7530498554201
27.0445499 ,Left ,66,225150921067 ,45,905605336098 ,63,7498998324434
27.0674526 ,Left ,66,2425937704116 ,46,0191293498683 ,63,7293261998319
27.0899142 ,Left ,66,3141517832894 ,46,0834628441859 ,63,7446714481877
27.1043268 ,Left ,66,2799260298375 ,46,1186267034558 ,63,7633179150944
27.1276785 ,Left ,66,2611567189878 ,46,1600726502162 ,63,782247282179
27.150031 ,Left ,66,2360507341107 ,46,1847756999186 ,63,7863730015625
27.1643123 ,Left ,66,2096504234125 ,46,1982463484786 ,63,7947475728705
27.187279 ,Left ,66,1975461830258 ,46,2034938313076 ,63,8009916066096
27.2098567 ,Left ,66,1849490183143 ,46,1816064346363 ,63,7952073086505
27.2310751 ,Left ,66,164111451818 ,46,1331405341774 ,63,7697112464768
27.2474963 ,Left ,66,0992326811544 ,46,0786532033477 ,63,7533485164848
27.2700734 ,Left ,66,0814194573285 ,46,0337569438077 ,63,7559628484266
27.2911746 ,Left ,66,0986015872408 ,46,0179989619763 ,63,7626688396005
27.307909 ,Left ,66,1303690692388 ,46,0587749663162 ,63,760181314503
27.3303789 ,Left ,66,1490623317393 ,46,1352454505346 ,63,7638132545733
27.3519602 ,Left ,66,2150860201898 ,46,1856168806595 ,63,7431807066524
27.3678855 ,Left ,66,2822662156829 ,46,2236181412627 ,63,7138430056652
27.3902691 ,Left ,66,2955168305639 ,46,2699963065775 ,63,6406307576995
27.4112389 ,Left ,66,3323520035064 ,46,3044368492783 ,63,5522169147261
27.4274646 ,Left ,66,3751163657525 ,46,3113325850748 ,63,4601662710691
27.4503339 ,Left ,66,3978794759767 ,46,316126956863 ,63,3545661907415
27.471221 ,Left ,66,3742801163625 ,46,3286417442713 ,63,2413547221351
27.486869 ,Left ,66,368238703476 ,46,3659852865674 ,63,1089841903102
27.5099996 ,Left ,66,3997691591658 ,46,4082632067358 ,62,9641411635816
27.5310714 ,Left ,66,4426861381285 ,46,4252036794692 ,62,8253246332714
27.5468896 ,Left ,66,4291508044692 ,46,4283239134048 ,62,712425270483
27.5699415 ,Left ,66,416324619548 ,46,4485079835304 ,62,5939251442687
27.5908861 ,Left ,66,4261305006819 ,46,483152062349 ,62,4760457989686
27.6066838 ,Left ,66,448297703694 ,46,516449281109 ,62,3794493972228
27.6301038 ,Left ,66,4375861873154 ,46,5471932529781 ,62,3051031156886
27.6513872 ,Left ,66,4132082702808 ,46,5817047381048 ,62,2333042549395
27.6670332 ,Left ,66,400380217649 ,46,5999780855621 ,62,1771058414304
27.6902034 ,Left ,66,3947506137086 ,46,5919982253295 ,62,1348121887241
27.7126905 ,Left ,66,3883188318898 ,46,5841628893378 ,62,1049722788001
27.727679 ,Left ,66,247519311414 ,46,5415863120736 ,62,1052710626454
27.7500813 ,Left ,66,1875278058916 ,46,5021658151055 ,62,1540385501458
27.7725695 ,Left ,66,1635340791315 ,46,4742478664222 ,62,220923117803
27.7866919 ,Left ,66,1566768406219 ,46,4890008025446 ,62,2451547780735
27.7941838 ,Left ,66,1288007302698 ,46,4539028024088 ,62,3027748169913
27.8153069 ,Left ,66,1455088668009 ,46,3560757143465 ,62,3602593152668
27.8380595 ,Left ,66,1269134717859 ,46,22679793848 ,62,4025962425346
27.8547276 ,Left ,66,1484416415916 ,46,105009135325 ,62,4035723398107
27.8756187 ,Left ,66,1573172069835 ,45,9642458901585 ,62,3909815775679
27.8979801 ,Left ,66,1979610228558 ,45,8516856313378 ,62,3869888376388
27.9144505 ,Left ,66,2366667619992 ,45,7811908491479 ,62,4191687424052
27.9354362 ,Left ,66,2711947456512 ,45,762112350451 ,62,4552454091519
27.9581242 ,Left ,66,3020048066843 ,45,7611783398861 ,62,4881955843204
27.9745454 ,Left ,66,326206921963 ,45,7500027302799 ,62,5425618785835
27.9956597 ,Left ,66,303375359716 ,45,7457425660271 ,62,6034455452322
28.0179041 ,Left ,66,2949689816757 ,45,7606644371843 ,62,6406157026295
28.0329119 ,Left ,66,2742086257774 ,45,7806798254729 ,62,6661097984851
28.0553789 ,Left ,66,2497847691681 ,45,7957900675665 ,62,6894397510722
28.0781345 ,Left ,66,230910050696 ,45,8096140426353 ,62,7044026892239
28.0930729 ,Left ,66,2040023529128 ,45,8150613583351 ,62,7169108746184
28.1155083 ,Left ,66,1755232554798 ,45,8187327356733 ,62,7184946489079
28.1380331 ,Left ,66,1561625951036 ,45,8229801140144 ,62,7110921320339
28.1529221 ,Left ,66,0984429134652 ,45,830686159407 ,62,7089414550882
28.1752326 ,Left ,66,0768738470624 ,45,809924878703 ,62,7208131929914
28.1977426 ,Left ,66,1201014926291 ,45,8222405805495 ,62,7294220586275
28.2128118 ,Left ,66,1575617454199 ,45,8834159540692 ,62,6870393067593
28.2353834 ,Left ,66,1678177770397 ,45,8933182086515 ,62,6783239610632
28.2578961 ,Left ,66,2493799538791 ,45,8948140268474 ,62,6853565239231
28.2746974 ,Left ,66,2763370821054 ,45,8932761432106 ,62,6826440935998
28.2957453 ,Left ,66,3253534908834 ,45,8890330243061 ,62,6857095782172
28.3176826 ,Left ,66,3465129631363 ,45,8740275687784 ,62,6978277366626
28.334124 ,Left ,66,3555085038559 ,45,8583975681311 ,62,7135703263223
28.3551768 ,Left ,66,3574225586467 ,45,8511377850005 ,62,7348128344919
28.3778324 ,Left ,66,3606002163909 ,45,8428277968143 ,62,7662747351089
28.3945334 ,Left ,66,3603415844235 ,45,8306056234256 ,62,8028246294259
28.415219 ,Left ,66,3713362551747 ,45,8142264313984 ,62,8409658160616
28.4378655 ,Left ,66,368118686175 ,45,7949960199668 ,62,8781406883342
28.4619199 ,Left ,66,3885138584242 ,45,7837462693201 ,62,9128564576961
28.475609 ,Left ,66,3963638921877 ,45,7759082539907 ,62,9423269976964
28.4978794 ,Left ,66,4079625423801 ,45,76895479117 ,62,9734398577055
28.5144623 ,Left ,66,4137710080695 ,45,763047820978 ,63,0011613794118
28.5354403 ,Left ,66,4228443606057 ,45,7596534577597 ,63,0234226769011
28.5581249 ,Left ,66,4314439010751 ,45,757870157952 ,63,0385960273991
28.5744091 ,Left ,66,4428802238226 ,45,7574350186196 ,63,0499769885198
28.5956402 ,Left ,66,446394768994 ,45,7643164774569 ,63,059002778449
28.6182012 ,Left ,66,4643386600225 ,45,7762698955103 ,63,067234126071
28.6360803 ,Left ,66,4881612282705 ,45,7846906088492 ,63,0694983009646
28.655208 ,Left ,66,5115859823893 ,45,7861450536657 ,63,0681193029502
28.6777287 ,Left ,66,5237138315954 ,45,7900265912101 ,63,0717061986981
28.6957543 ,Left ,66,5280250079588 ,45,7959891919935 ,63,072290958501
28.7152857 ,Left ,66,5318928168386 ,45,7992479315097 ,63,0720833900941
28.7407968 ,Left ,66,5319864107282 ,45,7982483041824 ,63,0743182668429
28.7556036 ,Left ,66,5388968743605 ,45,8023963150793 ,63,0772693687882
28.775219 ,Left ,66,5342799856643 ,45,8076242109093 ,63,0847687981364
28.7979123 ,Left ,66,5277914975504 ,45,8085989936643 ,63,0920472466886
28.8159968 ,Left ,66,5231836156269 ,45,8138305154597 ,63,0995463204651
28.8353041 ,Left ,66,5207783042384 ,45,813644836848 ,63,1016556592211
28.857724 ,Left ,66,529351435837 ,45,8088370067135 ,63,1027388030377
28.875777 ,Left ,66,5312363238952 ,45,7994012274905 ,63,1078219847474
28.8955641 ,Left ,66,5298503751842 ,45,7858950312942 ,63,115908092045
28.9181983 ,Left ,66,5188188061847 ,45,7658798294274 ,63,1271021467153
28.9358438 ,Left ,66,5230813967412 ,45,7395782247257 ,63,1390640420079
28.9554488 ,Left ,66,5282930560855 ,45,7085431889374 ,63,1536000695112
28.9777875 ,Left ,66,5484010482802 ,45,6760911119483 ,63,1668795720815
28.9958235 ,Left ,66,5570956179851 ,45,6394648577316 ,63,1841411095405
29.0152418 ,Left ,66,5806377761658 ,45,5947808771833 ,63,1991091838891
29.0379175 ,Left ,66,6080187014402 ,45,5448215561075 ,63,2194257024674
29.0561419 ,Left ,66,6350503099287 ,45,4936004306238 ,63,2414674184963
29.0756551 ,Left ,66,6482975048339 ,45,4369823919728 ,63,2719956310355
29.0985015 ,Left ,66,6594664418591 ,45,3823312609157 ,63,3007925278504
29.1160069 ,Left ,66,6690220072166 ,45,3279493504149 ,63,3350547663798
29.1357037 ,Left ,66,6748363636873 ,45,2758747488982 ,63,3729831067797
29.1581652 ,Left ,66,6806961360885 ,45,2318863661084 ,63,4144835449776
29.175847 ,Left ,66,6902816753142 ,45,1867881679693 ,63,4643902199829
29.1956171 ,Left ,66,7038449515073 ,45,1405834483121 ,63,5112286363966
29.217924 ,Left ,66,7038719684041 ,45,0902547124022 ,63,5651667532357
29.2358424 ,Left ,66,6965930740631 ,45,0479310828661 ,63,6201151045671
29.257061 ,Left ,66,6869380514741 ,45,0139804762523 ,63,671652466617
29.2780749 ,Left ,66,6764385147473 ,44,987210441586 ,63,7186979993716
29.2958518 ,Left ,66,6682127592558 ,44,9716423232154 ,63,769565604514
29.316909 ,Left ,66,6535788886658 ,44,9646686726939 ,63,8245763140448
29.3333858 ,Left ,66,6201087909554 ,44,9725240797962 ,63,8742601363961
29.3561021 ,Left ,66,5940670637186 ,44,9832306350292 ,63,9269856351104
29.3769804 ,Left ,66,574299339052 ,45,0022979626398 ,63,9633506924377
29.3934877 ,Left ,66,5551301353335 ,45,0302556211423 ,63,99651070385
29.4159081 ,Left ,66,5568653147581 ,45,0658633362824 ,64,0232283537482
29.436972 ,Left ,66,5517373784064 ,45,1051858056348 ,64,0457287934385
29.4534741 ,Left ,66,5329995340157 ,45,14653564815 ,64,0570583226542
29.4756245 ,Left ,66,5190047014948 ,45,1815096690657 ,64,0630500716036
29.496861 ,Left ,66,5010798726778 ,45,2046583670135 ,64,0731300284512
29.5132782 ,Left ,66,4779534480359 ,45,2369026796429 ,64,0788441669332
29.5356967 ,Left ,66,446036366406 ,45,2636288218733 ,64,0682155728072
29.5568323 ,Left ,66,4434150737063 ,45,2720550892865 ,64,0409607990866
29.5732031 ,Left ,66,4181485866037 ,45,3017850418171 ,64,0140929487249
29.5959185 ,Left ,66,356087971515 ,45,3183851456479 ,64,0253943330727
29.618212 ,Left ,66,3628257751142 ,45,3689089225745 ,64,0394278691327
29.6331138 ,Left ,66,409635795211 ,45,479380600483 ,64,0143607008807
29.6550968 ,Left ,66,4161582319476 ,45,5769416159312 ,63,9986230750452
29.6775115 ,Left ,66,4266167979743 ,45,6207928049885 ,63,9837994615188
29.6987299 ,Left ,66,4396385362261 ,45,6567014057997 ,63,9503215155106
29.7150045 ,Left ,66,4566942034894 ,45,7060250591071 ,63,8927909995948
29.737543 ,Left ,66,4775431864726 ,45,7203085868741 ,63,8514615482693
29.7587101 ,Left ,66,4515248527959 ,45,7308137881157 ,63,8174918245815
29.7752283 ,Left ,66,431585860487 ,45,7354070621731 ,63,7685040405769
29.7976049 ,Left ,66,3848899918958 ,45,7392304958492 ,63,717658728389
29.812032 ,Left ,66,3216046945337 ,45,7108857824786 ,63,6694711512537
29.8351102 ,Left ,66,2680598176941 ,45,6679895599748 ,63,6636466913291
29.8576786 ,Left ,66,2722746409016 ,45,6741710504647 ,63,6776469521657
29.8720893 ,Left ,66,3183997695279 ,45,727515929107 ,63,6726409115834
29.8951268 ,Left ,66,3498805478031 ,45,7649930747795 ,63,6627898622096
29.9175735 ,Left ,66,3914078992361 ,45,7892930329523 ,63,6707084497882
29.9321023 ,Left ,66,3445269749868 ,45,7872297821287 ,63,6735017128152
29.9552001 ,Left ,66,3208656071249 ,45,771791183188 ,63,6958203102147
29.9776898 ,Left ,66,2702305929324 ,45,7708440549324 ,63,7018418951038
29.9919895 ,Left ,66,2405050453503 ,45,7839561238624 ,63,6893787745361
30.0152043 ,Left ,66,2017805970749 ,45,7645386923014 ,63,6872051333746
30.0375816 ,Left ,66,1726976302596 ,45,7429219963238 ,63,7081309820181
30.0588967 ,Left ,66,1887899711005 ,45,7874194754768 ,63,7355400580431
30.0751713 ,Left ,66,2102845958416 ,45,8575145326835 ,63,7437343919505
30.097504 ,Left ,66,2339680319436 ,45,9098851762898 ,63,7636685242156
30.1187232 ,Left ,66,2876684767654 ,45,9740569839257 ,63,7788139188721
30.1351559 ,Left ,66,2685340683668 ,46,0156831693038 ,63,7998436074007
30.1584916 ,Left ,66,2586200048727 ,46,0672236274716 ,63,8152607754425
30.1789089 ,Left ,66,2256576948374 ,46,1110920544846 ,63,817943898452
30.1952483 ,Left ,66,1945913455007 ,46,1350312970773 ,63,833916430824
30.2174885 ,Left ,66,1599020526193 ,46,14184781928 ,63,8400940918741
30.2389112 ,Left ,66,1408366435955 ,46,1309444086001 ,63,8267182937374
30.255239 ,Left ,66,1236641682043 ,46,0992197278848 ,63,7976277668557
30.2776564 ,Left ,66,0923852726998 ,46,0540915128024 ,63,7935140486781
30.2991051 ,Left ,66,0667471883633 ,45,9974075210511 ,63,7940518195483
30.3155905 ,Left ,66,0763383918379 ,45,9911122873216 ,63,7715852175892
30.3376351 ,Left ,66,088811006461 ,46,0375028691314 ,63,7233155843366
30.3597851 ,Left ,66,1186562103279 ,46,0757519831307 ,63,6806180764114
30.3750043 ,Left ,66,208711859095 ,46,110469269997 ,63,621880637306
30.3975386 ,Left ,66,2252737737073 ,46,1369835732402 ,63,5181701826189
30.4184441 ,Left ,66,264734590944 ,46,1773504746966 ,63,390006331986
30.4342895 ,Left ,66,2605148371171 ,46,237170708836 ,63,2410490862435
30.457201 ,Left ,66,2747988721918 ,46,3099552001253 ,63,0794778707444
30.479218 ,Left ,66,3032785567446 ,46,3777233661669 ,62,910121922682
30.4947709 ,Left ,66,3137920629404 ,46,417453027868 ,62,7596620734332
30.5179128 ,Left ,66,2993614784872 ,46,4546884812684 ,62,6197471544504
30.5404068 ,Left ,66,2847208551433 ,46,4939715975547 ,62,4890924150005
30.5545158 ,Left ,66,2837983332311 ,46,5182722771357 ,62,3723618752243
30.5774762 ,Left ,66,2915389675837 ,46,5219176440768 ,62,2811060588393
30.6001018 ,Left ,66,2888609910502 ,46,5060730982636 ,62,2050569870741
30.6145695 ,Left ,66,2700600551136 ,46,4806429329529 ,62,1599863505539
30.637496 ,Left ,66,2158975515423 ,46,4251643913388 ,62,1390130637429
30.6600571 ,Left ,66,1944972455288 ,46,4083567668267 ,62,152690566537
30.6743686 ,Left ,66,1361666057724 ,46,3601303461596 ,62,2001791155393
30.697599 ,Left ,66,1364188032766 ,46,3676012359665 ,62,2438855955636
30.7199174 ,Left ,66,0976598054326 ,46,3325777949584 ,62,2999544596029
30.7346631 ,Left ,66,0573483715178 ,46,2350993346276 ,62,3990925002603
30.7578992 ,Left ,66,0626435553528 ,46,1298397202316 ,62,4494722121911
30.780448 ,Left ,66,0988533573434 ,45,9922916516774 ,62,4745200164948
30.8010222 ,Left ,66,0938782767445 ,45,8569556955601 ,62,4766731617465
30.8172702 ,Left ,66,1052288452982 ,45,7384450242246 ,62,4839856668348
30.8399705 ,Left ,66,1499507306564 ,45,6381468820297 ,62,4998809428041
30.8610184 ,Left ,66,1737193277088 ,45,5677995780743 ,62,5381590892043
30.8775506 ,Left ,66,2135359018597 ,45,5517442251151 ,62,5893337430135
30.8997924 ,Left ,66,2221007273078 ,45,5522721093056 ,62,6278345959764
30.9210024 ,Left ,66,2219090120106 ,45,5505643321162 ,62,6825343158487
30.9375667 ,Left ,66,211483055484 ,45,5615092082793 ,62,7403228023842
30.9605364 ,Left ,66,2085366437461 ,45,5812070257356 ,62,7654710618778
30.9745524 ,Left ,66,2145828558216 ,45,6143216966579 ,62,7808616719224
30.9975382 ,Left ,66,203005619671 ,45,6510240390048 ,62,7905136294781
31.0201457 ,Left ,66,1752684129014 ,45,6855147023579 ,62,788228977222
31.0410757 ,Left ,66,1432894131537 ,45,7050173088046 ,62,7772346727822
31.0574792 ,Left ,66,1398186338976 ,45,720781150397 ,62,7645504536497
31.0800563 ,Left ,66,1317065274812 ,45,7396088414894 ,62,743115336293
31.1009596 ,Left ,66,0571024069603 ,45,7429194143351 ,62,7145293886108
31.1179065 ,Left ,66,0111062217574 ,45,7400801408791 ,62,7137026030327
31.1398816 ,Left ,66,0403825153703 ,45,7291373343448 ,62,7232461549306
31.1611195 ,Left ,66,1085580746642 ,45,7621872033944 ,62,7049274375458
31.177531 ,Left ,66,1605339879311 ,45,8134089308392 ,62,6913825536701
31.1999212 ,Left ,66,1771786035898 ,45,8134629645735 ,62,7057643232749
31.2209743 ,Left ,66,1933863776778 ,45,791527341053 ,62,7211033220231
31.2376112 ,Left ,66,2274745269412 ,45,77945895357 ,62,7261654937751
31.2601442 ,Left ,66,2665909106514 ,45,7296108095561 ,62,7420988745474
31.2823917 ,Left ,66,2727939049204 ,45,6841936075927 ,62,7622307071534
31.2979607 ,Left ,66,2788365196006 ,45,6352371264486 ,62,7954546284319
31.3204797 ,Left ,66,2955565665526 ,45,5994115075844 ,62,8344881493052
31.3409015 ,Left ,66,3150076966942 ,45,5713306848479 ,62,879687459239
31.3573947 ,Left ,66,3229296984751 ,45,5347847331867 ,62,9374952426966
31.3800222 ,Left ,66,3380681857762 ,45,494138011078 ,63,0043935495136
31.4009701 ,Left ,66,3392480357542 ,45,4428018910389 ,63,0698684159491
31.4172615 ,Left ,66,3526380897683 ,45,3994820047342 ,63,1304009326602
31.4397843 ,Left ,66,3660022444361 ,45,3636920744101 ,63,1897598977389
31.4628984 ,Left ,66,3938886555841 ,45,339455339062 ,63,2490991561439
31.4779177 ,Left ,66,4169828570687 ,45,3147281883695 ,63,3129061055415
31.5005031 ,Left ,66,4457553521285 ,45,2917156204109 ,63,3734285120741
31.5224508 ,Left ,66,4768956379719 ,45,2630877934587 ,63,4286723759418
31.537231 ,Left ,66,4929699276916 ,45,2363528089668 ,63,4784604001519
31.5598511 ,Left ,66,5080499680545 ,45,2076612910881 ,63,5247577244817
31.5823667 ,Left ,66,5366216760771 ,45,1829105891466 ,63,5641422284111
31.5976017 ,Left ,66,545451020273 ,45,1602194341253 ,63,605045616957
31.6202326 ,Left ,66,5587590471084 ,45,136600128881 ,63,6433648627731
31.6428478 ,Left ,66,5497458103541 ,45,1025752077757 ,63,6791535094795
31.6570722 ,Left ,66,5439702333513 ,45,0630506963794 ,63,7199455668436
31.6802519 ,Left ,66,5509267726581 ,45,0253874253446 ,63,771531677015
31.7027792 ,Left ,66,5589278687363 ,44,9895062595868 ,63,8268537432581
31.7171022 ,Left ,66,5686894130188 ,44,9550069633334 ,63,8936319974731
31.7403829 ,Left ,66,5603808375829 ,44,9203943230275 ,63,9613267380134
31.7629192 ,Left ,66,5445729886499 ,44,9099836519253 ,64,0220029804048
31.7770129 ,Left ,66,5487658163871 ,44,9177751307022 ,64,0788019276586
31.8001573 ,Left ,66,5501408299591 ,44,9294883292267 ,64,1402221265616
31.8227129 ,Left ,66,5468428864956 ,44,937522345797 ,64,1988467753432
31.8369572 ,Left ,66,5314983786422 ,44,9549882437537 ,64,2510460585623
31.860028 ,Left ,66,5157294995957 ,44,979532903127 ,64,2963539906842
31.8827094 ,Left ,66,5031282914892 ,45,0043744007003 ,64,3282753317041
31.896992 ,Left ,66,5048530724675 ,45,0329943696451 ,64,3514205691347
31.9200986 ,Left ,66,5064645990331 ,45,0636381911707 ,64,3698817869825
31.9427004 ,Left ,66,4893980252493 ,45,1025697331162 ,64,3796984299477
31.9637413 ,Left ,66,4640617049391 ,45,1402543455586 ,64,3880394516231
31.9797705 ,Left ,66,454897729563 ,45,1841043906268 ,64,3967345834096
32.0024495 ,Left ,66,4354564852604 ,45,232140538066 ,64,3977261997572
32.0234538 ,Left ,66,4126571918951 ,45,2737083833092 ,64,3901105779921
32.0397941 ,Left ,66,4029316805404 ,45,3036580011759 ,64,3783465684456
32.0625279 ,Left ,66,3874483308966 ,45,3303418952127 ,64,3559072005201
32.0838841 ,Left ,66,373906303324 ,45,3542561779959 ,64,3167333737065
32.1001701 ,Left ,66,3488765773369 ,45,3752097289322 ,64,2773948319356
32.1227348 ,Left ,66,337654701459 ,45,3736185378822 ,64,2775500090609
32.1439519 ,Left ,66,3249272721999 ,45,3980818119902 ,64,2807710233386
32.1601782 ,Left ,66,3266023957638 ,45,4813996497186 ,64,2460120021215
32.1826188 ,Left ,66,3246040934247 ,45,5559063427392 ,64,232191283589
32.2037679 ,Left ,66,3408450635505 ,45,5793577186215 ,64,2253193602443
32.2201502 ,Left ,66,3868660198742 ,45,5812073956403 ,64,191538779378
32.242766 ,Left ,66,3957297485716 ,45,5779377129949 ,64,1360659071202
32.2639297 ,Left ,66,3810779946949 ,45,5864202181862 ,64,0765106971748
32.2798705 ,Left ,66,3395997916918 ,45,5987981553151 ,64,0202126035432
32.302342 ,Left ,66,3349612699466 ,45,6158879120634 ,63,9692893472593
32.3233409 ,Left ,66,3321891707665 ,45,6302811313327 ,63,9040283640326
32.3398616 ,Left ,66,3088417060412 ,45,6144481291957 ,63,8516780312717
32.3624717 ,Left ,66,2744638796942 ,45,6011859511797 ,63,8045190098059
32.3851481 ,Left ,66,197106844318 ,45,5823834333338 ,63,7595250984425
32.4001169 ,Left ,66,1854941133686 ,45,5709695928389 ,63,7444581282563
32.4224245 ,Left ,66,2059464484091 ,45,5812361248914 ,63,7705469718226
32.4450571 ,Left ,66,2785780014578 ,45,6354762242754 ,63,7710646634215
32.4602132 ,Left ,66,3130430143054 ,45,7158098147738 ,63,747908367316
32.482297 ,Left ,66,2887974506074 ,45,7360421872078 ,63,7553583723398
32.5049581 ,Left ,66,2721634017134 ,45,7481456163625 ,63,7490693819083
32.5200383 ,Left ,66,2553211272435 ,45,7544627088202 ,63,7374296059473
32.5423011 ,Left ,66,228161397007 ,45,744840013374 ,63,7365261520832
32.5650697 ,Left ,66,1885730412165 ,45,7588766203246 ,63,7233540900127
32.5793742 ,Left ,66,1694653541278 ,45,7605405393715 ,63,7089535474578
32.6023271 ,Left ,66,1443368031156 ,45,7604514261985 ,63,7314948710097
32.6250626 ,Left ,66,1496857752906 ,45,8186954066067 ,63,7697959589752
32.6395118 ,Left ,66,1976895197082 ,45,9108113357714 ,63,7771154076615
32.6629291 ,Left ,66,239585964843 ,45,9917819270889 ,63,7865099261333
32.6848569 ,Left ,66,2657637398562 ,46,0447465581559 ,63,8224251453654
32.6991854 ,Left ,66,2126730434787 ,46,0714096249379 ,63,8593722819761
32.7224961 ,Left ,66,1958779861216 ,46,1186223044194 ,63,8917917463874
32.7450581 ,Left ,66,1746458145681 ,46,1542926067031 ,63,907366344233
32.759206 ,Left ,66,1449150107834 ,46,1694876543638 ,63,9236497185795
32.782496 ,Left ,66,1252154498833 ,46,171105445733 ,63,9420256367035
32.8049444 ,Left ,66,1132964253461 ,46,163275326588 ,63,9338888626448
32.8193809 ,Left ,66,0495511839863 ,46,1288457043531 ,63,909583336669
32.8423975 ,Left ,66,0439946572354 ,46,1125915518634 ,63,8981597258966
32.8651839 ,Left ,66,0188018851276 ,46,079254657692 ,63,9103751337555
32.8861354 ,Left ,66,0671968263819 ,46,1015562839211 ,63,9159271153094
32.9024946 ,Left ,66,0979244199558 ,46,1626944434182 ,63,882745580852
32.9249939 ,Left ,66,1135970986774 ,46,1763482777999 ,63,8795624767202
32.9461225 ,Left ,66,2010931718055 ,46,1993713501401 ,63,8398075284986
32.9624839 ,Left ,66,2479430490063 ,46,2041950421908 ,63,7600384865299
32.9850646 ,Left ,66,3142805249247 ,46,2017570023516 ,63,6789165842688
33.0062301 ,Left ,66,3502491728209 ,46,2173347077653 ,63,5827358420572
33.0223369 ,Left ,66,3526117935402 ,46,2629237895154 ,63,4721203457758
33.0450497 ,Left ,66,3855385928063 ,46,3221667083257 ,63,3585138646888
33.0658594 ,Left ,66,4126017005909 ,46,3704530976889 ,63,2360537524822
33.0824632 ,Left ,66,4156856717196 ,46,4020635045768 ,63,1167350137675
33.1048276 ,Left ,66,4010039268084 ,46,4393797764536 ,62,9983973357486
33.1260144 ,Left ,66,3862308831985 ,46,4863046036987 ,62,8881979586562
33.1417907 ,Left ,66,3803519347921 ,46,528713128679 ,62,7821484610322
33.1651467 ,Left ,66,3880743160277 ,46,5680057077195 ,62,6939490114798
33.1860284 ,Left ,66,376242315466 ,46,597317945564 ,62,6180345368041
33.2019208 ,Left ,66,3458917856329 ,46,6126850733951 ,62,5524921347596
33.22553 ,Left ,66,3434966307282 ,46,6098679181296 ,62,5034033738812
33.2467924 ,Left ,66,3210413115851 ,46,583455332814 ,62,4615304918267
33.2628594 ,Left ,66,2574841295281 ,46,5339596428443 ,62,4346732736898
33.2851421 ,Left ,66,2298961010605 ,46,5027679776197 ,62,4444306084042
33.3062549 ,Left ,66,1986173747081 ,46,4495775205764 ,62,4872252746113
33.3225744 ,Left ,66,2145023255619 ,46,4601992938227 ,62,5046670808191
33.3451725 ,Left ,66,2027174199868 ,46,441442865543 ,62,5455580669719
33.3675541 ,Left ,66,1740999191856 ,46,3694152075905 ,62,606516742094
33.3823492 ,Left ,66,1860085932651 ,46,2848743076951 ,62,6487662931441
33.4049103 ,Left ,66,2008746800788 ,46,1552009858348 ,62,6676044373842
33.4279577 ,Left ,66,2039425842255 ,46,0287767119304 ,62,6525804084364
33.4423261 ,Left ,66,2113306881612 ,45,9213337894283 ,62,6398600153534
33.4651696 ,Left ,66,2225810224189 ,45,8484554252928 ,62,658592429025
33.4875611 ,Left ,66,2418137339525 ,45,831408768522 ,62,6866732512427
33.5093157 ,Left ,66,2642956219763 ,45,8337544252725 ,62,7004163695595
33.5109775 ,Left ,66,2677512522379 ,45,815613589897 ,62,7443941369843
33.5304778 ,Left ,66,243760740113 ,45,8055150535855 ,62,7916597576914
33.5529049 ,Left ,66,2053149245487 ,45,813403281855 ,62,8292938470851
33.56976 ,Left ,66,2163980017319 ,45,8367054238049 ,62,8526868789076
33.5904054 ,Left ,66,2189046274213 ,45,8528354295738 ,62,8438196477058
33.6128028 ,Left ,66,1820943872568 ,45,8745455175319 ,62,8462702778475
33.6277832 ,Left ,66,0894675710727 ,45,8740794619981 ,62,8985215542937
33.6502271 ,Left ,66,1034379106876 ,45,9087514269676 ,62,9350919307919
33.6728553 ,Left ,66,1445292806673 ,45,9681521911642 ,62,9252090789821
