timestamp,event,roll,pitch,yaw
0.0238012 ,Left ,67,9682396461049 ,48,7040954576238 ,37,266020792278
0.0238036 ,Left ,67,9682396461049 ,48,7040954576238 ,37,266020792278
0.0469457 ,Left ,67,9685780681175 ,48,7110296060522 ,37,2629640392279
0.0469533 ,Left ,67,9685780681175 ,48,7110296060522 ,37,2629640392279
0.0613156 ,Left ,67,965811420709 ,48,721158300014 ,37,2653791123248
0.0613173 ,Left ,67,965811420709 ,48,721158300014 ,37,2653791123248
0.0840757 ,Left ,67,9620067062817 ,48,7277528130563 ,37,2683070892743
0.0840776 ,Left ,67,9620067062817 ,48,7277528130563 ,37,2683070892743
0.1069727 ,Left ,67,9569052871681 ,48,7372792224607 ,37,2710384439967
0.1069804 ,Left ,67,9569052871681 ,48,7372792224607 ,37,2710384439967
0.122089 ,Left ,67,950173976991 ,48,7388721272964 ,37,2666933058712
0.1221054 ,Left ,67,950173976991 ,48,7388721272964 ,37,2666933058712
0.1519788 ,Left ,67,9419451492065 ,48,7424607857348 ,37,2640830244697
0.1519845 ,Left ,67,9419451492065 ,48,7424607857348 ,37,2640830244697
0.1740976 ,Left ,67,9377166215466 ,48,7380537295605 ,37,2600670088584
0.1741011 ,Left ,67,9377166215466 ,48,7380537295605 ,37,2600670088584
0.1891845 ,Left ,67,9375167832112 ,48,7371211327152 ,37,2620001375922
0.1891875 ,Left ,67,9375167832112 ,48,7371211327152 ,37,2620001375922
0.20383 ,Left ,67,9518309179846 ,48,7326070170176 ,37,2621642415865
0.2038324 ,Left ,67,9518309179846 ,48,7326070170176 ,37,2621642415865
0.2263697 ,Left ,67,9600624906712 ,48,7290175869127 ,37,2647684887435
0.2263716 ,Left ,67,9600624906712 ,48,7290175869127 ,37,2647684887435
0.2415726 ,Left ,67,9680965577668 ,48,7244924620357 ,37,269300317194
0.241575 ,Left ,67,9680965577668 ,48,7244924620357 ,37,269300317194
0.2639336 ,Left ,67,9752312029643 ,48,7224308485185 ,37,2732171766624
0.2639365 ,Left ,67,9752312029643 ,48,7224308485185 ,37,2732171766624
0.2864746 ,Left ,67,9834685131559 ,48,7188357618757 ,37,2758105302437
0.2864777 ,Left ,67,9834685131559 ,48,7188357618757 ,37,2758105302437
0.3016383 ,Left ,67,9779363946371 ,48,7150327741315 ,37,2750466303601
0.3016418 ,Left ,67,9779363946371 ,48,7150327741315 ,37,2750466303601
0.3239799 ,Left ,67,9817450740004 ,48,70843890638 ,37,2721107531776
0.323983 ,Left ,67,9817450740004 ,48,70843890638 ,37,2721107531776
0.3463116 ,Left ,67,9906762107161 ,48,6946563198292 ,37,2629762599908
0.3463134 ,Left ,67,9906762107161 ,48,6946563198292 ,37,2629762599908
0.3615499 ,Left ,67,9889037944063 ,48,6755278492642 ,37,2561349110051
0.3615535 ,Left ,67,9889037944063 ,48,6755278492642 ,37,2561349110051
0.3838132 ,Left ,67,9833936498561 ,48,6602569422205 ,37,2479867614398
0.3838149 ,Left ,67,9833936498561 ,48,6602569422205 ,37,2479867614398
0.4064471 ,Left ,67,9837250988014 ,48,6458619057814 ,37,2435479388778
0.4064498 ,Left ,67,9837250988014 ,48,6458619057814 ,37,2435479388778
0.4216854 ,Left ,67,986332728858 ,48,6371384936857 ,37,2395893505935
0.4216892 ,Left ,67,986332728858 ,48,6371384936857 ,37,2395893505935
0.4443022 ,Left ,67,986332728858 ,48,6371384936857 ,37,2395893505935
0.4443067 ,Left ,67,986332728858 ,48,6371384936857 ,37,2395893505935
0.4665621 ,Left ,67,981336213047 ,48,6365250854647 ,37,2407370301761
0.4665662 ,Left ,67,981336213047 ,48,6365250854647 ,37,2407370301761
0.4815838 ,Left ,67,9730867436261 ,48,635439893033 ,37,2450503073964
0.481588 ,Left ,67,9730867436261 ,48,635439893033 ,37,2450503073964
0.5038565 ,Left ,67,966904598951 ,48,6390956974664 ,37,2517754890981
0.5038582 ,Left ,67,966904598951 ,48,6390956974664 ,37,2517754890981
0.5263208 ,Left ,67,9474257607039 ,48,6484704715722 ,37,2613133391317
0.5263226 ,Left ,67,9474257607039 ,48,6484704715722 ,37,2613133391317
0.5413558 ,Left ,67,9315410167219 ,48,6582587851156 ,37,274938992511
0.5413577 ,Left ,67,9315410167219 ,48,6582587851156 ,37,274938992511
0.5638955 ,Left ,67,9110729422428 ,48,6755986491724 ,37,2923056435167
0.5638976 ,Left ,67,9110729422428 ,48,6755986491724 ,37,2923056435167
0.5865023 ,Left ,67,8913096137433 ,48,6883514868144 ,37,3064837496241
0.5865051 ,Left ,67,8913096137433 ,48,6883514868144 ,37,3064837496241
0.6088611 ,Left ,67,8813859416733 ,48,6963145317299 ,37,3195190318592
0.6088642 ,Left ,67,8813859416733 ,48,6963145317299 ,37,3195190318592
0.624007 ,Left ,67,8709802626139 ,48,6936871093979 ,37,33331274593
0.6240103 ,Left ,67,8709802626139 ,48,6936871093979 ,37,33331274593
0.6463787 ,Left ,67,8662987585481 ,48,6855179927447 ,37,3442938800587
0.6463805 ,Left ,67,8662987585481 ,48,6855179927447 ,37,3442938800587
0.6690562 ,Left ,67,8668451653949 ,48,6714790026977 ,37,3548670819867
0.6690583 ,Left ,67,8668451653949 ,48,6714790026977 ,37,3548670819867
0.6838417 ,Left ,67,8816783070145 ,48,6552056372189 ,37,3621450316184
0.6838437 ,Left ,67,8816783070145 ,48,6552056372189 ,37,3621450316184
0.7065198 ,Left ,67,9016188092702 ,48,636360724089 ,37,356347597699
0.7065262 ,Left ,67,9016188092702 ,48,636360724089 ,37,356347597699
0.7289198 ,Left ,67,9142624001532 ,48,6163325331116 ,37,351979202196
0.728923 ,Left ,67,9142624001532 ,48,6163325331116 ,37,351979202196
0.7442204 ,Left ,67,922984873181 ,48,6015770733641 ,37,3447754712474
0.7442237 ,Left ,67,922984873181 ,48,6015770733641 ,37,3447754712474
0.7738881 ,Left ,67,9351762914464 ,48,5882164866014 ,37,3324662187822
0.7738911 ,Left ,67,9351762914464 ,48,5882164866014 ,37,3324662187822
0.7965211 ,Left ,67,9383474185804 ,48,5747444176305 ,37,325287465101
0.7965244 ,Left ,67,9383474185804 ,48,5747444176305 ,37,325287465101
0.8115456 ,Left ,67,93500645345 ,48,5614679021929 ,37,3153142452154
0.8115476 ,Left ,67,93500645345 ,48,5614679021929 ,37,3153142452154
0.8265435 ,Left ,67,9222078391667 ,48,5449906961079 ,37,3086641671753
0.8265455 ,Left ,67,9222078391667 ,48,5449906961079 ,37,3086641671753
0.849097 ,Left ,67,9081122151319 ,48,5291157026122 ,37,3052698948998
0.8490996 ,Left ,67,9081122151319 ,48,5291157026122 ,37,3052698948998
0.864076 ,Left ,67,8911868438564 ,48,5146320979354 ,37,3011933858199
0.8640797 ,Left ,67,8911868438564 ,48,5146320979354 ,37,3011933858199
0.886864 ,Left ,67,8732628568778 ,48,4989331854707 ,37,2941967701975
0.8868693 ,Left ,67,8732628568778 ,48,4989331854707 ,37,2941967701975
0.9091617 ,Left ,67,8671501557314 ,48,479503350837 ,37,2860855026163
0.9091666 ,Left ,67,8671501557314 ,48,479503350837 ,37,2860855026163
0.9243708 ,Left ,67,8595558030205 ,48,4631727046284 ,37,2705871667221
0.9243763 ,Left ,67,8595558030205 ,48,4631727046284 ,37,2705871667221
0.9465407 ,Left ,67,8424620940622 ,48,4422734833176 ,37,25265706855
0.9465468 ,Left ,67,8424620940622 ,48,4422734833176 ,37,25265706855
0.9690524 ,Left ,67,8296979567055 ,48,4253506879624 ,37,2310246439032
0.9690565 ,Left ,67,8296979567055 ,48,4253506879624 ,37,2310246439032
0.9842182 ,Left ,67,8115068216998 ,48,4022679725519 ,37,2120838507542
0.9842217 ,Left ,67,8115068216998 ,48,4022679725519 ,37,2120838507542
1.0064552 ,Left ,67,7920302960002 ,48,3896025941188 ,37,1904012494605
1.0064589 ,Left ,67,7920302960002 ,48,3896025941188 ,37,1904012494605
1.0288529 ,Left ,67,7291910747591 ,48,3824821828981 ,37,1735230165894
1.0288547 ,Left ,67,7291910747591 ,48,3824821828981 ,37,1735230165894
1.0439044 ,Left ,67,6805538805049 ,48,3944846308641 ,37,1545340970265
1.0439061 ,Left ,67,6805538805049 ,48,3944846308641 ,37,1545340970265
1.0665938 ,Left ,67,5955434776306 ,48,4174497861986 ,37,1340655596504
1.066596 ,Left ,67,5955434776306 ,48,4174497861986 ,37,1340655596504
1.088865 ,Left ,67,4750136367774 ,48,4561396778584 ,37,1023226073521
1.0888669 ,Left ,67,4750136367774 ,48,4561396778584 ,37,1023226073521
1.1041333 ,Left ,67,3269332955747 ,48,5428983827013 ,37,0496003553027
1.1041354 ,Left ,67,3269332955747 ,48,5428983827013 ,37,0496003553027
1.1266135 ,Left ,67,1806158967505 ,48,6342931621607 ,36,9591306039199
1.1266157 ,Left ,67,1806158967505 ,48,6342931621607 ,36,9591306039199
1.1489615 ,Left ,67,0565275209679 ,48,6316864206539 ,36,8799152428796
1.1489641 ,Left ,67,0565275209679 ,48,6316864206539 ,36,8799152428796
1.1637753 ,Left ,67,0012453681939 ,48,5943522206483 ,36,8446237416959
1.1637775 ,Left ,67,0012453681939 ,48,5943522206483 ,36,8446237416959
1.1869694 ,Left ,66,945034598819 ,48,5837411882919 ,36,8209383310417
1.1869769 ,Left ,66,945034598819 ,48,5837411882919 ,36,8209383310417
1.2095404 ,Left ,66,8964411739529 ,48,5527560058633 ,36,7706306859752
1.209548 ,Left ,66,8964411739529 ,48,5527560058633 ,36,7706306859752
1.224265 ,Left ,66,8841838206782 ,48,5005280478466 ,36,6820654803464
1.2242741 ,Left ,66,8841838206782 ,48,5005280478466 ,36,6820654803464
1.2469534 ,Left ,66,8834405199786 ,48,3796730956185 ,36,6145864274094
1.2469593 ,Left ,66,8834405199786 ,48,3796730956185 ,36,6145864274094
1.269516 ,Left ,66,9086746895301 ,48,3552126835535 ,36,6017990165069
1.2695216 ,Left ,66,9086746895301 ,48,3552126835535 ,36,6017990165069
1.2841868 ,Left ,66,8893243045724 ,48,3624453315209 ,36,621902752894
1.2841921 ,Left ,66,8893243045724 ,48,3624453315209 ,36,621902752894
1.3065513 ,Left ,66,9251884971793 ,48,3970767768657 ,36,6267852848106
1.3065548 ,Left ,66,9251884971793 ,48,3970767768657 ,36,6267852848106
1.3292229 ,Left ,66,9677116984666 ,48,4365454882765 ,36,6423583017407
1.3292265 ,Left ,66,9677116984666 ,48,4365454882765 ,36,6423583017407
1.3442681 ,Left ,67,0826790251812 ,48,4541223909097 ,36,6786007806071
1.3442718 ,Left ,67,0826790251812 ,48,4541223909097 ,36,6786007806071
1.3664439 ,Left ,67,1151510841626 ,48,4447661994651 ,36,7142158070737
1.3664459 ,Left ,67,1151510841626 ,48,4447661994651 ,36,7142158070737
1.3888703 ,Left ,67,1217280768669 ,48,4241529820039 ,36,7240538322737
1.3888723 ,Left ,67,1217280768669 ,48,4241529820039 ,36,7240538322737
1.4113845 ,Left ,67,163671451628 ,48,4292022094818 ,36,7312581135583
1.4113869 ,Left ,67,163671451628 ,48,4292022094818 ,36,7312581135583
1.4263734 ,Left ,67,1872073521412 ,48,3977862753868 ,36,7340543732608
1.4263753 ,Left ,67,1872073521412 ,48,3977862753868 ,36,7340543732608
1.4491171 ,Left ,67,185652683354 ,48,3497817148953 ,36,7246586720799
1.4491224 ,Left ,67,185652683354 ,48,3497817148953 ,36,7246586720799
1.4641505 ,Left ,67,2038282477866 ,48,3180371598846 ,36,714136346174
1.4641525 ,Left ,67,2038282477866 ,48,3180371598846 ,36,714136346174
1.4863115 ,Left ,67,1572791180385 ,48,3587433359401 ,36,6925476722407
1.4863133 ,Left ,67,1572791180385 ,48,3587433359401 ,36,6925476722407
1.5088352 ,Left ,67,0928454230286 ,48,4152524266469 ,36,6493239528139
1.508837 ,Left ,67,0928454230286 ,48,4152524266469 ,36,6493239528139
1.5239053 ,Left ,67,0527348668361 ,48,4525967802616 ,36,6037827480609
1.5239073 ,Left ,67,0527348668361 ,48,4525967802616 ,36,6037827480609
1.5469657 ,Left ,67,0772826302892 ,48,4449586235017 ,36,5915061844083
1.5469733 ,Left ,67,0772826302892 ,48,4449586235017 ,36,5915061844083
1.5694599 ,Left ,67,0749228754984 ,48,4489804124422 ,36,6167145177622
1.5694675 ,Left ,67,0749228754984 ,48,4489804124422 ,36,6167145177622
1.5915994 ,Left ,67,1305749894623 ,48,456588238459 ,36,6309830666042
1.5916036 ,Left ,67,1305749894623 ,48,456588238459 ,36,6309830666042
1.60652 ,Left ,67,145967675072 ,48,4412920425223 ,36,6437858003992
1.6065231 ,Left ,67,145967675072 ,48,4412920425223 ,36,6437858003992
1.6287008 ,Left ,67,1743023307912 ,48,3913047271957 ,36,675353947773
1.6287027 ,Left ,67,1743023307912 ,48,3913047271957 ,36,675353947773
1.6513637 ,Left ,67,1703086450123 ,48,4317178864611 ,36,7454227927858
1.6513655 ,Left ,67,1703086450123 ,48,4317178864611 ,36,7454227927858
1.6663704 ,Left ,67,1309817659076 ,48,5133253499128 ,36,797640108073
1.6663725 ,Left ,67,1309817659076 ,48,5133253499128 ,36,797640108073
1.6891903 ,Left ,67,126624308791 ,48,5820816136348 ,36,80419948672
1.6891941 ,Left ,67,126624308791 ,48,5820816136348 ,36,80419948672
1.7112621 ,Left ,67,1075843755204 ,48,620479940022 ,36,78442337859
1.7112639 ,Left ,67,1075843755204 ,48,620479940022 ,36,78442337859
1.7265756 ,Left ,67,0453079882145 ,48,6321422638678 ,36,7296501170128
1.7265776 ,Left ,67,0453079882145 ,48,6321422638678 ,36,7296501170128
1.7490689 ,Left ,67,0061238709394 ,48,5772605448485 ,36,7009900283999
1.7490709 ,Left ,67,0061238709394 ,48,5772605448485 ,36,7009900283999
1.7715297 ,Left ,66,9599409092431 ,48,5030802726675 ,36,677586659001
1.771532 ,Left ,66,9599409092431 ,48,5030802726675 ,36,677586659001
1.7865398 ,Left ,66,8685658239972 ,48,559206710991 ,36,6512776509463
1.7865419 ,Left ,66,8685658239972 ,48,559206710991 ,36,6512776509463
1.8088957 ,Left ,66,8228388681481 ,48,6330510904803 ,36,6238513901666
1.8088979 ,Left ,66,8228388681481 ,48,6330510904803 ,36,6238513901666
1.8317034 ,Left ,66,8760240712989 ,48,7142049986141 ,36,6050999652237
1.8317071 ,Left ,66,8760240712989 ,48,7142049986141 ,36,6050999652237
1.8466972 ,Left ,66,9439967637938 ,48,7649776302708 ,36,5931355523526
1.8467022 ,Left ,66,9439967637938 ,48,7649776302708 ,36,5931355523526
1.8693567 ,Left ,66,9893795690466 ,48,7590580209129 ,36,5979892384255
1.8693619 ,Left ,66,9893795690466 ,48,7590580209129 ,36,5979892384255
1.8914143 ,Left ,67,036892177252 ,48,7172068876968 ,36,6025175256386
1.8914166 ,Left ,67,036892177252 ,48,7172068876968 ,36,6025175256386
1.9063608 ,Left ,67,1123846471719 ,48,6795127128442 ,36,6057574224861
1.9063626 ,Left ,67,1123846471719 ,48,6795127128442 ,36,6057574224861
1.928831 ,Left ,67,145214333449 ,48,6554194877095 ,36,6154092912785
1.9288327 ,Left ,67,145214333449 ,48,6554194877095 ,36,6154092912785
1.9516017 ,Left ,67,1703607051971 ,48,6549288331618 ,36,6221385865418
1.9516044 ,Left ,67,1703607051971 ,48,6549288331618 ,36,6221385865418
1.966437 ,Left ,67,1981887125818 ,48,6776007883099 ,36,6250150907124
1.9664398 ,Left ,67,1981887125818 ,48,6776007883099 ,36,6250150907124
1.9890372 ,Left ,67,2466385954975 ,48,6977721331317 ,36,6126883278776
1.9890403 ,Left ,67,2466385954975 ,48,6977721331317 ,36,6126883278776
2.0119974 ,Left ,67,290458188052 ,48,6995467965452 ,36,5953947723966
2.0120052 ,Left ,67,290458188052 ,48,6995467965452 ,36,5953947723966
2.027005 ,Left ,67,3239396892901 ,48,7123216119209 ,36,563376851003
2.0270129 ,Left ,67,3239396892901 ,48,7123216119209 ,36,563376851003
2.0496651 ,Left ,67,3329006384764 ,48,7297401412782 ,36,5319053684386
2.049673 ,Left ,67,3329006384764 ,48,7297401412782 ,36,5319053684386
2.0721777 ,Left ,67,3512319884775 ,48,7536223430597 ,36,4842176077609
2.0721857 ,Left ,67,3512319884775 ,48,7536223430597 ,36,4842176077609
2.0867334 ,Left ,67,3171201331888 ,48,7547399398179 ,36,4411755748625
2.0867392 ,Left ,67,3171201331888 ,48,7547399398179 ,36,4411755748625
2.1090509 ,Left ,67,2969510608191 ,48,747054850698 ,36,3908512240315
2.1090544 ,Left ,67,2969510608191 ,48,747054850698 ,36,3908512240315
2.1314063 ,Left ,67,2501476451784 ,48,7669706576909 ,36,3361595449214
2.1314092 ,Left ,67,2501476451784 ,48,7669706576909 ,36,3361595449214
2.146447 ,Left ,67,1866792301989 ,48,7890503805406 ,36,268151102161
2.1464489 ,Left ,67,1866792301989 ,48,7890503805406 ,36,268151102161
2.1689703 ,Left ,67,131697030262 ,48,8107279884169 ,36,1971788463591
2.1689722 ,Left ,67,131697030262 ,48,8107279884169 ,36,1971788463591
2.1915415 ,Left ,67,0601069328891 ,48,8336788171385 ,36,1296016252168
2.1915436 ,Left ,67,0601069328891 ,48,8336788171385 ,36,1296016252168
2.2064496 ,Left ,66,9939649315699 ,48,8881107314671 ,36,0668374630978
2.2064519 ,Left ,66,9939649315699 ,48,8881107314671 ,36,0668374630978
2.2289791 ,Left ,66,9140800484861 ,48,926365981115 ,36,0254990170454
2.2289815 ,Left ,66,9140800484861 ,48,926365981115 ,36,0254990170454
2.2514041 ,Left ,66,8592511111165 ,48,9922743623845 ,35,9952217347691
2.251406 ,Left ,66,8592511111165 ,48,9922743623845 ,35,9952217347691
2.2739252 ,Left ,66,8096273324227 ,49,0592985559182 ,35,9785047172948
2.2739277 ,Left ,66,8096273324227 ,49,0592985559182 ,35,9785047172948
2.2891702 ,Left ,66,7946012146389 ,49,0859231418683 ,35,9938493194623
2.2891731 ,Left ,66,7946012146389 ,49,0859231418683 ,35,9938493194623
2.311368 ,Left ,66,786346893292 ,49,0434396512563 ,36,0402506990752
2.31137 ,Left ,66,786346893292 ,49,0434396512563 ,36,0402506990752
2.3267171 ,Left ,66,800653043449 ,48,908356782015 ,36,0863923417678
2.3267201 ,Left ,66,800653043449 ,48,908356782015 ,36,0863923417678
2.3488975 ,Left ,66,8363257727194 ,48,7013889028717 ,36,1121010244204
2.3488996 ,Left ,66,8363257727194 ,48,7013889028717 ,36,1121010244204
2.3716281 ,Left ,66,8957965500813 ,48,4966261468137 ,36,1378628857511
2.371631 ,Left ,66,8957965500813 ,48,4966261468137 ,36,1378628857511
2.3937053 ,Left ,66,9384916838865 ,48,4240009295475 ,36,1689586007566
2.3937072 ,Left ,66,9384916838865 ,48,4240009295475 ,36,1689586007566
2.4088314 ,Left ,66,9902583254384 ,48,3790356294633 ,36,2136260842828
2.4088332 ,Left ,66,9902583254384 ,48,3790356294633 ,36,2136260842828
2.4315864 ,Left ,67,0358216953041 ,48,3168600884606 ,36,2422697025996
2.4315887 ,Left ,67,0358216953041 ,48,3168600884606 ,36,2422697025996
2.4540437 ,Left ,67,0647811215899 ,48,2915036369317 ,36,2592359076192
2.4540473 ,Left ,67,0647811215899 ,48,2915036369317 ,36,2592359076192
2.4690423 ,Left ,67,0565193623379 ,48,3250717312144 ,36,2725464650744
2.4690463 ,Left ,67,0565193623379 ,48,3250717312144 ,36,2725464650744
2.4914887 ,Left ,67,0880959626176 ,48,4142931056644 ,36,2922471621106
2.4914922 ,Left ,67,0880959626176 ,48,4142931056644 ,36,2922471621106
2.5141326 ,Left ,67,1196369437884 ,48,5356529076549 ,36,3267532964664
2.5141364 ,Left ,67,1196369437884 ,48,5356529076549 ,36,3267532964664
2.5292061 ,Left ,67,1290159478297 ,48,6219489593873 ,36,3690495170288
2.5292098 ,Left ,67,1290159478297 ,48,6219489593873 ,36,3690495170288
2.552142 ,Left ,67,120191278581 ,48,6510649581599 ,36,3846079739823
2.55215 ,Left ,67,120191278581 ,48,6510649581599 ,36,3846079739823
2.5740104 ,Left ,67,1032377233817 ,48,6227382161863 ,36,3874040338651
2.5740122 ,Left ,67,1032377233817 ,48,6227382161863 ,36,3874040338651
2.5896963 ,Left ,67,0552822905333 ,48,560247474565 ,36,3766647953456
2.5897043 ,Left ,67,0552822905333 ,48,560247474565 ,36,3766647953456
2.61196 ,Left ,67,082612034907 ,48,4953676188006 ,36,3728639846503
2.6119677 ,Left ,67,082612034907 ,48,4953676188006 ,36,3728639846503
2.6345069 ,Left ,67,0732691553976 ,48,4295524190506 ,36,370122142544
2.6345125 ,Left ,67,0732691553976 ,48,4295524190506 ,36,370122142544
2.6493158 ,Left ,67,0685403864427 ,48,3852574881121 ,36,366728448286
2.6493214 ,Left ,67,0685403864427 ,48,3852574881121 ,36,366728448286
2.671987 ,Left ,67,0792261390763 ,48,3231668703703 ,36,3500111824853
2.6719929 ,Left ,67,0792261390763 ,48,3231668703703 ,36,3500111824853
2.6943249 ,Left ,67,102749326188 ,48,2409747012176 ,36,3314781915371
2.6943305 ,Left ,67,102749326188 ,48,2409747012176 ,36,3314781915371
2.7094464 ,Left ,67,1275108764436 ,48,1732048816565 ,36,3261055465604
2.7094519 ,Left ,67,1275108764436 ,48,1732048816565 ,36,3261055465604
2.7313598 ,Left ,67,1667387969045 ,48,1190237536814 ,36,3315170385421
2.7313618 ,Left ,67,1667387969045 ,48,1190237536814 ,36,3315170385421
2.7541189 ,Left ,67,2014488246778 ,48,0755345534092 ,36,335045007332
2.7541211 ,Left ,67,2014488246778 ,48,0755345534092 ,36,335045007332
2.7694396 ,Left ,67,2095848995974 ,48,0532056558255 ,36,3283616104903
2.7694476 ,Left ,67,2095848995974 ,48,0532056558255 ,36,3283616104903
2.7919989 ,Left ,67,2104891082458 ,48,0331272430491 ,36,3181437881858
2.7920065 ,Left ,67,2104891082458 ,48,0331272430491 ,36,3181437881858
2.8144228 ,Left ,67,2060694982579 ,48,0388096300471 ,36,3231089312674
2.8144889 ,Left ,67,2060694982579 ,48,0388096300471 ,36,3231089312674
2.8297328 ,Left ,67,2071028993791 ,48,0457991137944 ,36,3393362272536
2.8297406 ,Left ,67,2071028993791 ,48,0457991137944 ,36,3393362272536
2.8519485 ,Left ,67,204534765616 ,48,0468438356707 ,36,360495525401
2.851954 ,Left ,67,204534765616 ,48,0468438356707 ,36,360495525401
2.8741972 ,Left ,67,2016041185064 ,48,0400527531032 ,36,3793407641724
2.8742027 ,Left ,67,2016041185064 ,48,0400527531032 ,36,3793407641724
2.889185 ,Left ,67,1803172006305 ,48,0249676610344 ,36,3991040481413
2.8891893 ,Left ,67,1803172006305 ,48,0249676610344 ,36,3991040481413
2.9117236 ,Left ,67,1822997427748 ,48,0058830193857 ,36,4063047577845
2.9117272 ,Left ,67,1822997427748 ,48,0058830193857 ,36,4063047577845
2.9342757 ,Left ,67,1761442118521 ,47,9960840732607 ,36,4096473558884
2.9342792 ,Left ,67,1761442118521 ,47,9960840732607 ,36,4096473558884
2.9487942 ,Left ,67,172248277623 ,47,9738489759194 ,36,4021005739306
2.9487963 ,Left ,67,172248277623 ,47,9738489759194 ,36,4021005739306
2.9715089 ,Left ,67,1816906060824 ,47,9439434010373 ,36,3952070453335
2.9715109 ,Left ,67,1816906060824 ,47,9439434010373 ,36,3952070453335
2.9938141 ,Left ,67,1946605903894 ,47,9237301412734 ,36,3857857590333
2.9938159 ,Left ,67,1946605903894 ,47,9237301412734 ,36,3857857590333
3.0089479 ,Left ,67,1883437438579 ,47,9023428258537 ,36,3844316730072
3.0089502 ,Left ,67,1883437438579 ,47,9023428258537 ,36,3844316730072
3.0314025 ,Left ,67,1844727693461 ,47,8825586736385 ,36,3882206668523
3.0314056 ,Left ,67,1844727693461 ,47,8825586736385 ,36,3882206668523
3.0537557 ,Left ,67,1711503827364 ,47,8713637193377 ,36,3931024392771
3.0537574 ,Left ,67,1711503827364 ,47,8713637193377 ,36,3931024392771
3.0689883 ,Left ,67,1544320254489 ,47,873955989091 ,36,3953451549223
3.0689902 ,Left ,67,1544320254489 ,47,873955989091 ,36,3953451549223
3.0914036 ,Left ,67,1260331446988 ,47,8715326624915 ,36,3959721384001
3.0914057 ,Left ,67,1260331446988 ,47,8715326624915 ,36,3959721384001
3.1141388 ,Left ,67,097658776692 ,47,8561299633355 ,36,3934748789729
3.114142 ,Left ,67,097658776692 ,47,8561299633355 ,36,3934748789729
3.1290618 ,Left ,67,0654537658813 ,47,8397907829835 ,36,3892611411058
3.129065 ,Left ,67,0654537658813 ,47,8397907829835 ,36,3892611411058
3.1515741 ,Left ,67,0181593805105 ,47,8299388744902 ,36,3842950888436
3.1515765 ,Left ,67,0181593805105 ,47,8299388744902 ,36,3842950888436
3.1739344 ,Left ,66,9725907512474 ,47,8273620283743 ,36,3856409738849
3.1739369 ,Left ,66,9725907512474 ,47,8273620283743 ,36,3856409738849
3.1891085 ,Left ,66,9077199071276 ,47,8746203791938 ,36,4016481219518
3.1891112 ,Left ,66,9077199071276 ,47,8746203791938 ,36,4016481219518
3.2115375 ,Left ,66,8338574381105 ,47,9541003711925 ,36,4202590260998
3.2115402 ,Left ,66,8338574381105 ,47,9541003711925 ,36,4202590260998
3.2340628 ,Left ,66,7499909351299 ,48,0387673321076 ,36,4251905570428
3.2340648 ,Left ,66,7499909351299 ,48,0387673321076 ,36,4251905570428
3.2491124 ,Left ,66,6949005338588 ,48,0502510708866 ,36,4204954706948
3.2491144 ,Left ,66,6949005338588 ,48,0502510708866 ,36,4204954706948
3.2641383 ,Left ,66,66163905111 ,48,0641459943224 ,36,4199328090868
3.2641407 ,Left ,66,66163905111 ,48,0641459943224 ,36,4199328090868
3.2866358 ,Left ,66,6499344751413 ,48,1223014718015 ,36,4144981347455
3.2866385 ,Left ,66,6499344751413 ,48,1223014718015 ,36,4144981347455
3.3015588 ,Left ,66,6627999975072 ,48,1701335833394 ,36,3853685222352
3.3015608 ,Left ,66,6627999975072 ,48,1701335833394 ,36,3853685222352
3.3238813 ,Left ,66,686133834265 ,48,1513817764655 ,36,3327417256261
3.3238835 ,Left ,66,686133834265 ,48,1513817764655 ,36,3327417256261
3.3465496 ,Left ,66,7412110983824 ,48,0645007968187 ,36,2924514740222
3.3465557 ,Left ,66,7412110983824 ,48,0645007968187 ,36,2924514740222
3.3838864 ,Left ,66,7964801533768 ,48,0676571824206 ,36,3203992471384
3.3838883 ,Left ,66,7964801533768 ,48,0676571824206 ,36,3203992471384
3.4064778 ,Left ,66,7947743511672 ,48,0893182167433 ,36,3461660027228
3.4064807 ,Left ,66,7947743511672 ,48,0893182167433 ,36,3461660027228
3.4214982 ,Left ,66,8501271786212 ,48,1156864864325 ,36,3466622198257
3.4215004 ,Left ,66,8501271786212 ,48,1156864864325 ,36,3466622198257
3.444119 ,Left ,66,9219562341364 ,48,1377479080311 ,36,3710571064433
3.4441213 ,Left ,66,9219562341364 ,48,1377479080311 ,36,3710571064433
3.4666254 ,Left ,67,0063820997281 ,48,1365052280684 ,36,3993278600044
3.4666278 ,Left ,67,0063820997281 ,48,1365052280684 ,36,3993278600044
3.4815258 ,Left ,67,0381925745247 ,48,1227988124685 ,36,4271471018959
3.4815277 ,Left ,67,0381925745247 ,48,1227988124685 ,36,4271471018959
3.5038342 ,Left ,67,0444184147353 ,48,0840844003672 ,36,4504175326216
3.503836 ,Left ,67,0444184147353 ,48,0840844003672 ,36,4504175326216
3.526599 ,Left ,67,0602765583021 ,48,0257448775769 ,36,4804925920513
3.5266012 ,Left ,67,0602765583021 ,48,0257448775769 ,36,4804925920513
3.5414467 ,Left ,67,0746573806292 ,48,0192345866652 ,36,5060544532414
3.5414494 ,Left ,67,0746573806292 ,48,0192345866652 ,36,5060544532414
3.5637373 ,Left ,67,0357832666352 ,48,0162273529612 ,36,4948783786333
3.5637391 ,Left ,67,0357832666352 ,48,0162273529612 ,36,4948783786333
3.5865887 ,Left ,66,9536623769115 ,48,0479836529554 ,36,4675712950112
3.5865906 ,Left ,66,9536623769115 ,48,0479836529554 ,36,4675712950112
3.6015839 ,Left ,66,907015177728 ,48,0842118471447 ,36,4142804454942
3.6015864 ,Left ,66,907015177728 ,48,0842118471447 ,36,4142804454942
3.6240103 ,Left ,66,8702581452362 ,48,1547791665834 ,36,4077053546136
3.6240136 ,Left ,66,8702581452362 ,48,1547791665834 ,36,4077053546136
3.6466371 ,Left ,66,8679669089957 ,48,2122307194194 ,36,4430551426291
3.6466404 ,Left ,66,8679669089957 ,48,2122307194194 ,36,4430551426291
3.6616907 ,Left ,66,8831423107407 ,48,2436551604157 ,36,4864661811133
3.661694 ,Left ,66,8831423107407 ,48,2436551604157 ,36,4864661811133
3.6838561 ,Left ,66,9467034845998 ,48,273961873411 ,36,4944565576713
3.6838579 ,Left ,66,9467034845998 ,48,273961873411 ,36,4944565576713
3.7063895 ,Left ,66,9640211008682 ,48,2684894229579 ,36,517426687773
3.7063915 ,Left ,66,9640211008682 ,48,2684894229579 ,36,517426687773
3.7215654 ,Left ,66,9237883071785 ,48,2243816279877 ,36,5644545971559
3.7215674 ,Left ,66,9237883071785 ,48,2243816279877 ,36,5644545971559
3.7445811 ,Left ,66,9168007731649 ,48,2514467843515 ,36,6390631972887
3.744589 ,Left ,66,9168007731649 ,48,2514467843515 ,36,6390631972887
3.7671414 ,Left ,66,9142013340584 ,48,3551379352744 ,36,6707405971615
3.7671493 ,Left ,66,9142013340584 ,48,3551379352744 ,36,6707405971615
3.7821166 ,Left ,66,8815095284045 ,48,4207025711663 ,36,6374024166865
3.7821244 ,Left ,66,8815095284045 ,48,4207025711663 ,36,6374024166865
3.8045859 ,Left ,66,8662271303222 ,48,4561663651636 ,36,5853530749744
3.8045936 ,Left ,66,8662271303222 ,48,4561663651636 ,36,5853530749744
3.8266785 ,Left ,66,7750886036993 ,48,4461882255851 ,36,5561534844603
3.8266821 ,Left ,66,7750886036993 ,48,4461882255851 ,36,5561534844603
3.8414683 ,Left ,66,7092482375799 ,48,3993821288574 ,36,5411903157074
3.8414714 ,Left ,66,7092482375799 ,48,3993821288574 ,36,5411903157074
3.864123 ,Left ,66,6412921807832 ,48,3771663653039 ,36,5512809307884
3.8641257 ,Left ,66,6412921807832 ,48,3771663653039 ,36,5512809307884
3.8866351 ,Left ,66,5705015901458 ,48,4613927041197 ,36,5253357230335
3.8866378 ,Left ,66,5705015901458 ,48,4613927041197 ,36,5253357230335
3.9239675 ,Left ,66,6774116116034 ,48,6158133269382 ,36,4696565416477
3.92397 ,Left ,66,6774116116034 ,48,6158133269382 ,36,4696565416477
3.9464873 ,Left ,66,7375548746413 ,48,6129137439724 ,36,4448525117497
3.94649 ,Left ,66,7375548746413 ,48,6129137439724 ,36,4448525117497
3.9840985 ,Left ,66,8159082410071 ,48,4843534871536 ,36,4200167565612
3.9841091 ,Left ,66,8159082410071 ,48,4843534871536 ,36,4200167565612
4.0064687 ,Left ,66,8582244677813 ,48,4296721741041 ,36,4229983929906
4.0064707 ,Left ,66,8582244677813 ,48,4296721741041 ,36,4229983929906
4.0439314 ,Left ,66,9857554178764 ,48,3658963067028 ,36,4252972959879
4.043934 ,Left ,66,9857554178764 ,48,3658963067028 ,36,4252972959879
4.0666022 ,Left ,67,0463760889948 ,48,3521675260034 ,36,4247312832948
4.0666052 ,Left ,67,0463760889948 ,48,3521675260034 ,36,4247312832948
4.1043387 ,Left ,67,1788797476951 ,48,3304128446031 ,36,4035392785405
4.1043425 ,Left ,67,1788797476951 ,48,3304128446031 ,36,4035392785405
4.1266827 ,Left ,67,2318517080632 ,48,3283256190357 ,36,4024512439375
4.1266864 ,Left ,67,2318517080632 ,48,3283256190357 ,36,4024512439375
4.1642643 ,Left ,67,2564409257615 ,48,3259933294207 ,36,3906261333709
4.164268 ,Left ,67,2564409257615 ,48,3259933294207 ,36,3906261333709
4.1867061 ,Left ,67,2472991529218 ,48,3292041531407 ,36,3685053479328
4.1867099 ,Left ,67,2472991529218 ,48,3292041531407 ,36,3685053479328
4.2241236 ,Left ,67,2023650155669 ,48,3460010841915 ,36,3072189483103
4.2241273 ,Left ,67,2023650155669 ,48,3460010841915 ,36,3072189483103
4.2466075 ,Left ,67,1742706320644 ,48,3771112954543 ,36,271404857247
4.2466113 ,Left ,67,1742706320644 ,48,3771112954543 ,36,271404857247
4.2840857 ,Left ,67,1127983497707 ,48,4672238286359 ,36,1887121566024
4.2840879 ,Left ,67,1127983497707 ,48,4672238286359 ,36,1887121566024
4.3070526 ,Left ,67,0839427592855 ,48,4824362493123 ,36,1481141899143
4.3070607 ,Left ,67,0839427592855 ,48,4824362493123 ,36,1481141899143
4.3445376 ,Left ,67,011913484521 ,48,5504131369107 ,36,0768952600361
4.3445452 ,Left ,67,011913484521 ,48,5504131369107 ,36,0768952600361
4.3670176 ,Left ,66,9797839433818 ,48,560269144671 ,36,0388805959973
4.3670252 ,Left ,66,9797839433818 ,48,560269144671 ,36,0388805959973
4.4042837 ,Left ,66,8634368395942 ,48,5326128017783 ,35,9829275314741
4.4042891 ,Left ,66,8634368395942 ,48,5326128017783 ,35,9829275314741
4.4266654 ,Left ,66,811383741344 ,48,528627322513 ,35,9749442870962
4.4266697 ,Left ,66,811383741344 ,48,528627322513 ,35,9749442870962
4.4643615 ,Left ,66,6751862028246 ,48,573408357898 ,35,9708685131806
4.4643658 ,Left ,66,6751862028246 ,48,573408357898 ,35,9708685131806
4.5015631 ,Left ,66,6905415382565 ,48,6744896459127 ,35,9988600151246
4.501565 ,Left ,66,6905415382565 ,48,6744896459127 ,35,9988600151246
4.5238226 ,Left ,66,6857521660373 ,48,7052712725728 ,36,0529072875586
4.5238244 ,Left ,66,6857521660373 ,48,7052712725728 ,36,0529072875586
4.5614177 ,Left ,66,6825650063086 ,48,5614951682352 ,36,0914335202158
4.5614199 ,Left ,66,6825650063086 ,48,5614951682352 ,36,0914335202158
4.5843452 ,Left ,66,7227655342354 ,48,3981583645486 ,36,0773585152147
4.584349 ,Left ,66,7227655342354 ,48,3981583645486 ,36,0773585152147
4.6065179 ,Left ,66,7607163563128 ,48,2641210247267 ,36,0954522040894
4.6065202 ,Left ,66,7607163563128 ,48,2641210247267 ,36,0954522040894
4.6437596 ,Left ,66,8176881915413 ,48,1073948431204 ,36,1273663464646
4.6437615 ,Left ,66,8176881915413 ,48,1073948431204 ,36,1273663464646
4.6665676 ,Left ,66,8825756487296 ,48,0523497530827 ,36,131644957843
4.6665695 ,Left ,66,8825756487296 ,48,0523497530827 ,36,131644957843
4.7039147 ,Left ,66,8478323266338 ,48,0797555560001 ,36,1815974015738
4.7039176 ,Left ,66,8478323266338 ,48,0797555560001 ,36,1815974015738
4.7343105 ,Left ,66,8645227615512 ,48,1895477453411 ,36,2056840539787
4.7343149 ,Left ,66,8645227615512 ,48,1895477453411 ,36,2056840539787
4.7716769 ,Left ,66,9229735888319 ,48,4118889384606 ,36,2671621029385
4.7716814 ,Left ,66,9229735888319 ,48,4118889384606 ,36,2671621029385
4.8015821 ,Left ,66,9059097807648 ,48,4591317265691 ,36,3034518521312
4.8015861 ,Left ,66,9059097807648 ,48,4591317265691 ,36,3034518521312
4.8241364 ,Left ,66,9154762368934 ,48,433854250655 ,36,3195226912412
4.8241423 ,Left ,66,9154762368934 ,48,433854250655 ,36,3195226912412
4.8616141 ,Left ,66,903121113861 ,48,361379112512 ,36,3140363141461
4.8616182 ,Left ,66,903121113861 ,48,361379112512 ,36,3140363141461
4.8843681 ,Left ,66,9273291047995 ,48,3086855604489 ,36,2794444762386
4.8843725 ,Left ,66,9273291047995 ,48,3086855604489 ,36,2794444762386
4.9215584 ,Left ,66,9598637317736 ,48,2060641174164 ,36,2191096378805
4.9215624 ,Left ,66,9598637317736 ,48,2060641174164 ,36,2191096378805
4.9444001 ,Left ,67,006776782701 ,48,1538546760764 ,36,2211696813639
4.9444048 ,Left ,67,006776782701 ,48,1538546760764 ,36,2211696813639
4.9812913 ,Left ,67,0299403883923 ,48,0368679729905 ,36,2353709227268
4.981293 ,Left ,67,0299403883923 ,48,0368679729905 ,36,2353709227268
5.0041651 ,Left ,67,0324611597903 ,48,0041966294006 ,36,2317383602027
5.0041674 ,Left ,67,0324611597903 ,48,0041966294006 ,36,2317383602027
5.0416148 ,Left ,67,062463507209 ,47,9822545279608 ,36,2402153557836
5.0416174 ,Left ,67,062463507209 ,47,9822545279608 ,36,2402153557836
5.0641936 ,Left ,67,0753230929488 ,47,982293975841 ,36,2531521038956
5.0641965 ,Left ,67,0753230929488 ,47,982293975841 ,36,2531521038956
5.1015171 ,Left ,67,0642409481104 ,47,9447697885708 ,36,2754654605993
5.10152 ,Left ,67,0642409481104 ,47,9447697885708 ,36,2754654605993
5.1238334 ,Left ,67,0608691253479 ,47,9314581833148 ,36,2831144047915
5.1238353 ,Left ,67,0608691253479 ,47,9314581833148 ,36,2831144047915
5.1391514 ,Left ,67,0741609804879 ,47,923844714104 ,36,2838293759686
5.1391534 ,Left ,67,0741609804879 ,47,923844714104 ,36,2838293759686
5.1615466 ,Left ,67,0632600786368 ,47,9107566382063 ,36,2769667010973
5.1615488 ,Left ,67,0632600786368 ,47,9107566382063 ,36,2769667010973
5.1766101 ,Left ,67,0669577029655 ,47,8931129339015 ,36,269826354871
5.1766126 ,Left ,67,0669577029655 ,47,8931129339015 ,36,269826354871
5.2066184 ,Left ,67,0669261600411 ,47,8778922636577 ,36,2702790134111
5.2066222 ,Left ,67,0669261600411 ,47,8778922636577 ,36,2702790134111
5.2291783 ,Left ,67,0628638411473 ,47,865480231037 ,36,2713598561261
5.2291819 ,Left ,67,0628638411473 ,47,865480231037 ,36,2713598561261
5.2442233 ,Left ,67,0721354166481 ,47,8606780523693 ,36,2726716923192
5.244227 ,Left ,67,0721354166481 ,47,8606780523693 ,36,2726716923192
5.2590154 ,Left ,67,0702725344436 ,47,8442929527281 ,36,2730317148131
5.2590189 ,Left ,67,0702725344436 ,47,8442929527281 ,36,2730317148131
5.2811393 ,Left ,67,0617254972059 ,47,8223601811616 ,36,2795311267241
5.2811424 ,Left ,67,0617254972059 ,47,8223601811616 ,36,2795311267241
5.2963977 ,Left ,67,0476064171614 ,47,8075508666316 ,36,2849895781667
5.2963995 ,Left ,67,0476064171614 ,47,8075508666316 ,36,2849895781667
5.3191066 ,Left ,67,0327811954571 ,47,8030193720534 ,36,292040032915
5.3191085 ,Left ,67,0327811954571 ,47,8030193720534 ,36,292040032915
5.3414263 ,Left ,67,0322201585791 ,47,8049135422868 ,36,2909881946252
5.3414282 ,Left ,67,0322201585791 ,47,8049135422868 ,36,2909881946252
5.3565339 ,Left ,67,0125848317092 ,47,8018583362904 ,36,2956763306095
5.3565362 ,Left ,67,0125848317092 ,47,8018583362904 ,36,2956763306095
5.3789096 ,Left ,66,9866437547741 ,47,8033628438754 ,36,3052594851941
5.3789117 ,Left ,66,9866437547741 ,47,8033628438754 ,36,3052594851941
5.4014915 ,Left ,66,9658445446554 ,47,8088800407688 ,36,3155696383488
5.4014941 ,Left ,66,9658445446554 ,47,8088800407688 ,36,3155696383488
5.4164092 ,Left ,66,950209335646 ,47,8160206619543 ,36,3226843252703
5.416412 ,Left ,66,950209335646 ,47,8160206619543 ,36,3226843252703
5.4386084 ,Left ,66,9315381459824 ,47,815353185269 ,36,3358212057319
5.4386103 ,Left ,66,9315381459824 ,47,815353185269 ,36,3358212057319
5.4615017 ,Left ,66,9261930160132 ,47,8281148961147 ,36,3404819709356
5.4615037 ,Left ,66,9261930160132 ,47,8281148961147 ,36,3404819709356
5.4764789 ,Left ,66,8850704542401 ,47,8693229818359 ,36,3449320949497
5.4764811 ,Left ,66,8850704542401 ,47,8693229818359 ,36,3449320949497
5.4989201 ,Left ,66,852436682301 ,47,9445547920322 ,36,3475411506067
5.4989218 ,Left ,66,852436682301 ,47,9445547920322 ,36,3475411506067
5.5216406 ,Left ,66,8127127133253 ,48,0173277668715 ,36,345833844043
5.5216433 ,Left ,66,8127127133253 ,48,0173277668715 ,36,345833844043
5.5366804 ,Left ,66,8147826280389 ,48,0301264309966 ,36,3504421694026
5.5366837 ,Left ,66,8147826280389 ,48,0301264309966 ,36,3504421694026
5.5591895 ,Left ,66,8341240842205 ,48,0155195121729 ,36,3426834883837
5.5591928 ,Left ,66,8341240842205 ,48,0155195121729 ,36,3426834883837
5.5814147 ,Left ,66,8650220506234 ,48,0139966193133 ,36,302432383729
5.5814178 ,Left ,66,8650220506234 ,48,0139966193133 ,36,302432383729
5.5961715 ,Left ,66,8922618082057 ,48,0066406326187 ,36,2451375284662
5.5961737 ,Left ,66,8922618082057 ,48,0066406326187 ,36,2451375284662
5.6196179 ,Left ,66,9628181433727 ,47,965157596549 ,36,1893528137657
5.6196258 ,Left ,66,9628181433727 ,47,965157596549 ,36,1893528137657
5.6419277 ,Left ,67,0182602215875 ,47,924861513336 ,36,1634736223446
5.6419591 ,Left ,67,0182602215875 ,47,924861513336 ,36,1634736223446
5.6569764 ,Left ,67,0785285117374 ,47,8599982673548 ,36,1598161453283
5.656982 ,Left ,67,0785285117374 ,47,8599982673548 ,36,1598161453283
5.6790769 ,Left ,67,1065330295616 ,47,7871492256981 ,36,1692841997775
5.6790808 ,Left ,67,1065330295616 ,47,7871492256981 ,36,1692841997775
5.7091251 ,Left ,67,1606135338192 ,47,7524063348026 ,36,1907200749139
5.7091295 ,Left ,67,1606135338192 ,47,7524063348026 ,36,1907200749139
5.7241784 ,Left ,67,2023990259882 ,47,7703917746889 ,36,2219543234559
5.7241828 ,Left ,67,2023990259882 ,47,7703917746889 ,36,2219543234559
5.7541168 ,Left ,67,2501614699252 ,47,8042123605576 ,36,2561624890127
5.7541212 ,Left ,67,2501614699252 ,47,8042123605576 ,36,2561624890127
5.7691271 ,Left ,67,2788529845001 ,47,8110144925051 ,36,2702794203948
5.7691318 ,Left ,67,2788529845001 ,47,8110144925051 ,36,2702794203948
5.7843592 ,Left ,67,2632767533252 ,47,7991204337292 ,36,2755165684424
5.7843636 ,Left ,67,2632767533252 ,47,7991204337292 ,36,2755165684424
5.8065945 ,Left ,67,2458342272218 ,47,8012907437869 ,36,2803561461376
5.8065987 ,Left ,67,2458342272218 ,47,8012907437869 ,36,2803561461376
5.8214994 ,Left ,67,2447561669981 ,47,8166729323335 ,36,2829478587323
5.8215035 ,Left ,67,2447561669981 ,47,8166729323335 ,36,2829478587323
5.8365629 ,Left ,67,2352990499388 ,47,8450716803867 ,36,2841537176306
5.8365671 ,Left ,67,2352990499388 ,47,8450716803867 ,36,2841537176306
5.8591258 ,Left ,67,2257272486951 ,47,8665970777825 ,36,2884662044719
5.8591278 ,Left ,67,2257272486951 ,47,8665970777825 ,36,2884662044719
5.8813598 ,Left ,67,2098496494521 ,47,8926465099399 ,36,2976858210507
5.8813619 ,Left ,67,2098496494521 ,47,8926465099399 ,36,2976858210507
5.8966667 ,Left ,67,2146112179265 ,47,9253390544249 ,36,3016193789783
5.8966686 ,Left ,67,2146112179265 ,47,9253390544249 ,36,3016193789783
5.9186102 ,Left ,67,2078699276694 ,47,943345399579 ,36,3100978204742
5.9186121 ,Left ,67,2078699276694 ,47,943345399579 ,36,3100978204742
5.9415509 ,Left ,67,2085072586547 ,47,9743302716683 ,36,321722724869
5.941553 ,Left ,67,2085072586547 ,47,9743302716683 ,36,321722724869
5.9568691 ,Left ,67,1675085920928 ,48,0471140951448 ,36,3458828458532
5.9568769 ,Left ,67,1675085920928 ,48,0471140951448 ,36,3458828458532
5.97971 ,Left ,67,0943691484069 ,48,1604711398836 ,36,3413479908341
5.979718 ,Left ,67,0943691484069 ,48,1604711398836 ,36,3413479908341
6.0019887 ,Left ,67,0604866504667 ,48,2775496656904 ,36,3012110697592
6.0019962 ,Left ,67,0604866504667 ,48,2775496656904 ,36,3012110697592
6.0169753 ,Left ,67,0251652218865 ,48,2697382113324 ,36,2931016473311
6.0169832 ,Left ,67,0251652218865 ,48,2697382113324 ,36,2931016473311
6.0393574 ,Left ,67,0382030037511 ,48,2718620455021 ,36,2951010003902
6.0393618 ,Left ,67,0382030037511 ,48,2718620455021 ,36,2951010003902
6.0612655 ,Left ,67,0613042127498 ,48,307024126847 ,36,2771924961463
6.0612675 ,Left ,67,0613042127498 ,48,307024126847 ,36,2771924961463
6.0838436 ,Left ,67,0822815420898 ,48,3542349922604 ,36,2476434728862
6.0838454 ,Left ,67,0822815420898 ,48,3542349922604 ,36,2476434728862
6.0995016 ,Left ,67,0670480588547 ,48,375980928843 ,36,2240159341865
6.099509 ,Left ,67,0670480588547 ,48,375980928843 ,36,2240159341865
6.1221634 ,Left ,67,0590111588702 ,48,348306241633 ,36,222027320702
6.1221713 ,Left ,67,0590111588702 ,48,348306241633 ,36,222027320702
6.1371732 ,Left ,67,0350899261909 ,48,3653754884552 ,36,2400982707373
6.1371811 ,Left ,67,0350899261909 ,48,3653754884552 ,36,2400982707373
6.1596134 ,Left ,67,0331000876692 ,48,3964828837428 ,36,23753617104
6.1596209 ,Left ,67,0331000876692 ,48,3964828837428 ,36,23753617104
6.1816293 ,Left ,67,0022354299596 ,48,4305205854613 ,36,2287369515609
6.1816346 ,Left ,67,0022354299596 ,48,4305205854613 ,36,2287369515609
6.2043337 ,Left ,67,0047060857528 ,48,4175476233486 ,36,2176299387719
6.204338 ,Left ,67,0047060857528 ,48,4175476233486 ,36,2176299387719
6.2192022 ,Left ,67,00041253253 ,48,3869571653925 ,36,2544705417399
6.2192065 ,Left ,67,00041253253 ,48,3869571653925 ,36,2544705417399
6.2415409 ,Left ,66,9905618508512 ,48,4241059124893 ,36,2752067456975
6.2415452 ,Left ,66,9905618508512 ,48,4241059124893 ,36,2752067456975
6.2566122 ,Left ,67,0371015462311 ,48,4674064574621 ,36,2793474845723
6.2566158 ,Left ,67,0371015462311 ,48,4674064574621 ,36,2793474845723
6.2788085 ,Left ,67,0896137447249 ,48,4707939293826 ,36,2868751901048
6.2788103 ,Left ,67,0896137447249 ,48,4707939293826 ,36,2868751901048
6.3014468 ,Left ,67,0804151125071 ,48,4250389587685 ,36,3233602714096
6.301449 ,Left ,67,0804151125071 ,48,4250389587685 ,36,3233602714096
6.3238982 ,Left ,67,0612979738005 ,48,4516980870488 ,36,3898321734082
6.3239007 ,Left ,67,0612979738005 ,48,4516980870488 ,36,3898321734082
6.3392452 ,Left ,67,0154967651388 ,48,4850891669684 ,36,4538919874646
6.3392506 ,Left ,67,0154967651388 ,48,4850891669684 ,36,4538919874646
6.3615974 ,Left ,67,0127960336754 ,48,4980011547169 ,36,4821567225357
6.3615998 ,Left ,67,0127960336754 ,48,4980011547169 ,36,4821567225357
6.3839679 ,Left ,67,0085621841216 ,48,5128842070427 ,36,5047259717849
6.3839712 ,Left ,67,0085621841216 ,48,5128842070427 ,36,5047259717849
6.3988005 ,Left ,66,9333099042146 ,48,537307205746 ,36,5206872823182
6.3988025 ,Left ,66,9333099042146 ,48,537307205746 ,36,5206872823182
6.4215773 ,Left ,66,8369830018917 ,48,5118237444396 ,36,5154324974314
6.4215793 ,Left ,66,8369830018917 ,48,5118237444396 ,36,5154324974314
6.4439333 ,Left ,66,7845343663343 ,48,4884227945831 ,36,5077683033697
6.4439356 ,Left ,66,7845343663343 ,48,4884227945831 ,36,5077683033697
6.4591067 ,Left ,66,7382906723653 ,48,5604951327602 ,36,491618271272
6.4591094 ,Left ,66,7382906723653 ,48,5604951327602 ,36,491618271272
6.4815172 ,Left ,66,7446959740389 ,48,6405492158734 ,36,4908348198742
6.4815211 ,Left ,66,7446959740389 ,48,6405492158734 ,36,4908348198742
6.5040001 ,Left ,66,8216428034187 ,48,7092210214736 ,36,4766996678046
6.5040037 ,Left ,66,8216428034187 ,48,7092210214736 ,36,4766996678046
6.5192492 ,Left ,66,8778688784486 ,48,7337396000094 ,36,4547869200832
6.5192529 ,Left ,66,8778688784486 ,48,7337396000094 ,36,4547869200832
6.5414879 ,Left ,66,9101929136717 ,48,7154044273121 ,36,4413598693201
6.5414915 ,Left ,66,9101929136717 ,48,7154044273121 ,36,4413598693201
6.5639541 ,Left ,66,9314963586867 ,48,6516086997257 ,36,4382303298462
6.5639576 ,Left ,66,9314963586867 ,48,6516086997257 ,36,4382303298462
6.5791722 ,Left ,66,9790788382327 ,48,5762619082986 ,36,4394759138829
6.579176 ,Left ,66,9790788382327 ,48,5762619082986 ,36,4394759138829
6.6015736 ,Left ,66,9986122413972 ,48,5337853132237 ,36,4494223472332
6.6015773 ,Left ,66,9986122413972 ,48,5337853132237 ,36,4494223472332
6.6239864 ,Left ,67,0275046414462 ,48,4752322642354 ,36,4539697418189
6.6239899 ,Left ,67,0275046414462 ,48,4752322642354 ,36,4539697418189
6.6391743 ,Left ,67,0591090152606 ,48,4167269096107 ,36,4575379095562
6.639178 ,Left ,67,0591090152606 ,48,4167269096107 ,36,4575379095562
6.6615687 ,Left ,67,1105073689168 ,48,3634115265222 ,36,452922126653
6.6615722 ,Left ,67,1105073689168 ,48,3634115265222 ,36,452922126653
6.6841875 ,Left ,67,1770453919503 ,48,3372682330543 ,36,4451858083785
6.6841912 ,Left ,67,1770453919503 ,48,3372682330543 ,36,4451858083785
6.6992468 ,Left ,67,2060611507972 ,48,3218946841527 ,36,4387138240382
6.6992507 ,Left ,67,2060611507972 ,48,3218946841527 ,36,4387138240382
6.72152 ,Left ,67,2185360295572 ,48,3174160117046 ,36,4294975078424
6.7215235 ,Left ,67,2185360295572 ,48,3174160117046 ,36,4294975078424
6.7442198 ,Left ,67,225426052246 ,48,3237468568433 ,36,4139902347991
6.7442246 ,Left ,67,225426052246 ,48,3237468568433 ,36,4139902347991
6.7591088 ,Left ,67,1930530599694 ,48,3607891364119 ,36,3906402080059
6.7591128 ,Left ,67,1930530599694 ,48,3607891364119 ,36,3906402080059
6.7817258 ,Left ,67,164169892638 ,48,4274112312955 ,36,3423920377706
6.7817295 ,Left ,67,164169892638 ,48,4274112312955 ,36,3423920377706
6.8040676 ,Left ,67,1463114214563 ,48,4981704095034 ,36,2683430767507
6.8040695 ,Left ,67,1463114214563 ,48,4981704095034 ,36,2683430767507
6.8191198 ,Left ,67,1130655879733 ,48,5395858289506 ,36,1859659137644
6.8191218 ,Left ,67,1130655879733 ,48,5395858289506 ,36,1859659137644
6.8413052 ,Left ,67,0729779028132 ,48,5720243074898 ,36,1075433042129
6.8413073 ,Left ,67,0729779028132 ,48,5720243074898 ,36,1075433042129
6.8641004 ,Left ,67,011912256844 ,48,5970787759185 ,36,0361308053876
6.864103 ,Left ,67,011912256844 ,48,5970787759185 ,36,0361308053876
6.8788897 ,Left ,66,989764520865 ,48,6172458419937 ,35,9739666328764
6.8788916 ,Left ,66,989764520865 ,48,6172458419937 ,35,9739666328764
6.9019972 ,Left ,66,9583376916678 ,48,5853326511219 ,35,9129108121395
6.9020049 ,Left ,66,9583376916678 ,48,5853326511219 ,35,9129108121395
6.9244052 ,Left ,66,8941690885896 ,48,5522910305628 ,35,8716325568178
6.9244129 ,Left ,66,8941690885896 ,48,5522910305628 ,35,8716325568178
6.9397341 ,Left ,66,8297940668718 ,48,5869813621324 ,35,8341285749866
6.9397421 ,Left ,66,8297940668718 ,48,5869813621324 ,35,8341285749866
6.9619411 ,Left ,66,770917005338 ,48,6312191504369 ,35,802861876238
6.9619466 ,Left ,66,770917005338 ,48,6312191504369 ,35,802861876238
6.9843671 ,Left ,66,761862822138 ,48,6759281361304 ,35,8002787130467
6.9843742 ,Left ,66,761862822138 ,48,6759281361304 ,35,8002787130467
6.9994891 ,Left ,66,7826393862653 ,48,7093133427327 ,35,8382271303791
6.9994948 ,Left ,66,7826393862653 ,48,7093133427327 ,35,8382271303791
7.021373 ,Left ,66,7856696170823 ,48,6791420618031 ,35,8759921582283
7.0213747 ,Left ,66,7856696170823 ,48,6791420618031 ,35,8759921582283
7.0438985 ,Left ,66,7812350119191 ,48,5924156079856 ,35,9242046627043
7.0439005 ,Left ,66,7812350119191 ,48,5924156079856 ,35,9242046627043
7.0590418 ,Left ,66,7913023026151 ,48,4596344864182 ,35,9671384436799
7.059044 ,Left ,66,7913023026151 ,48,4596344864182 ,35,9671384436799
7.0815327 ,Left ,66,8308906218082 ,48,2936954948545 ,35,9998621926319
7.0815356 ,Left ,66,8308906218082 ,48,2936954948545 ,35,9998621926319
7.1041751 ,Left ,66,8538433668014 ,48,1706048464588 ,36,0336307041878
7.1041791 ,Left ,66,8538433668014 ,48,1706048464588 ,36,0336307041878
7.1264562 ,Left ,66,8709768497078 ,48,127755520654 ,36,0609971140596
7.1264602 ,Left ,66,8709768497078 ,48,127755520654 ,36,0609971140596
7.141633 ,Left ,66,9028603933722 ,48,0894688296659 ,36,0813033488821
7.1416367 ,Left ,66,9028603933722 ,48,0894688296659 ,36,0813033488821
7.1640221 ,Left ,66,8960384600072 ,48,0478762429301 ,36,1049202380691
7.1640255 ,Left ,66,8960384600072 ,48,0478762429301 ,36,1049202380691
7.1866802 ,Left ,66,9062926549965 ,48,0489431705855 ,36,124231752529
7.186684 ,Left ,66,9062926549965 ,48,0489431705855 ,36,124231752529
7.2014814 ,Left ,66,9189538935209 ,48,0986535047568 ,36,1452793682677
7.2014851 ,Left ,66,9189538935209 ,48,0986535047568 ,36,1452793682677
7.2240147 ,Left ,66,9646523890559 ,48,1900050977682 ,36,1833089692742
7.2240182 ,Left ,66,9646523890559 ,48,1900050977682 ,36,1833089692742
7.2467429 ,Left ,66,9922195275122 ,48,2567443948586 ,36,2246981909672
7.2467468 ,Left ,66,9922195275122 ,48,2567443948586 ,36,2246981909672
7.2617053 ,Left ,66,9931454806648 ,48,2904545677306 ,36,2546789009374
7.2617077 ,Left ,66,9931454806648 ,48,2904545677306 ,36,2546789009374
7.2839616 ,Left ,66,9877913623297 ,48,2881354018109 ,36,2672569954804
7.2839635 ,Left ,66,9877913623297 ,48,2881354018109 ,36,2672569954804
7.3139878 ,Left ,66,9602940085904 ,48,251409443781 ,36,2709797972719
7.3139899 ,Left ,66,9602940085904 ,48,251409443781 ,36,2709797972719
7.3289232 ,Left ,67,0023878727285 ,48,229835947224 ,36,2565699738698
7.3289272 ,Left ,67,0023878727285 ,48,229835947224 ,36,2565699738698
7.3664736 ,Left ,67,0273064883964 ,48,1343005414934 ,36,1951889750922
7.3664756 ,Left ,67,0273064883964 ,48,1343005414934 ,36,1951889750922
7.3815405 ,Left ,67,0632053090576 ,48,0728328827016 ,36,1703583038131
7.3815424 ,Left ,67,0632053090576 ,48,0728328827016 ,36,1703583038131
7.403972 ,Left ,67,0947430160711 ,48,0125951306239 ,36,1573447592845
7.4039747 ,Left ,67,0947430160711 ,48,0125951306239 ,36,1573447592845
7.4264861 ,Left ,67,1151675399404 ,47,9608249493328 ,36,1579646071858
7.4264884 ,Left ,67,1151675399404 ,47,9608249493328 ,36,1579646071858
7.4413367 ,Left ,67,1293704580861 ,47,9264091797515 ,36,1589870073055
7.4413386 ,Left ,67,1293704580861 ,47,9264091797515 ,36,1589870073055
7.46393 ,Left ,67,1477920124845 ,47,9182458270007 ,36,1600420958626
7.4639325 ,Left ,67,1477920124845 ,47,9182458270007 ,36,1600420958626
7.4864715 ,Left ,67,1609311712692 ,47,9296397099119 ,36,1626659752824
7.4864746 ,Left ,67,1609311712692 ,47,9296397099119 ,36,1626659752824
7.5012705 ,Left ,67,1715465919807 ,47,9418761522409 ,36,1715601830656
7.5012723 ,Left ,67,1715465919807 ,47,9418761522409 ,36,1715601830656
7.523946 ,Left ,67,1827196220283 ,47,9452303916767 ,36,1772772513102
7.5239483 ,Left ,67,1827196220283 ,47,9452303916767 ,36,1772772513102
7.5464046 ,Left ,67,1754550540546 ,47,9263270191448 ,36,1827769123929
7.546407 ,Left ,67,1754550540546 ,47,9263270191448 ,36,1827769123929
7.5614892 ,Left ,67,151020932349 ,47,8905908254155 ,36,1910442747001
7.5614911 ,Left ,67,151020932349 ,47,8905908254155 ,36,1910442747001
7.5841943 ,Left ,67,1458655602349 ,47,8737222013757 ,36,1946374335997
7.5841972 ,Left ,67,1458655602349 ,47,8737222013757 ,36,1946374335997
7.6066772 ,Left ,67,1275270892343 ,47,8630540981067 ,36,1991583074994
7.6066809 ,Left ,67,1275270892343 ,47,8630540981067 ,36,1991583074994
7.6217062 ,Left ,67,133385849841 ,47,8637859158044 ,36,2025330199394
7.6217102 ,Left ,67,133385849841 ,47,8637859158044 ,36,2025330199394
7.6442475 ,Left ,67,139465562566 ,47,8455460710248 ,36,2039324130977
7.6442512 ,Left ,67,139465562566 ,47,8455460710248 ,36,2039324130977
7.6667415 ,Left ,67,1365583880184 ,47,8164592600245 ,36,2115184730856
7.6667452 ,Left ,67,1365583880184 ,47,8164592600245 ,36,2115184730856
7.6815378 ,Left ,67,1425670332548 ,47,7959629469301 ,36,2164389867394
7.6815414 ,Left ,67,1425670332548 ,47,7959629469301 ,36,2164389867394
7.7040056 ,Left ,67,1371825632695 ,47,7782308831661 ,36,2219976439045
7.7040086 ,Left ,67,1371825632695 ,47,7782308831661 ,36,2219976439045
7.7267111 ,Left ,67,1349280354583 ,47,7775897690785 ,36,2223395990436
7.7267143 ,Left ,67,1349280354583 ,47,7775897690785 ,36,2223395990436
7.7415307 ,Left ,67,1353366889365 ,47,7770621704145 ,36,2219240707028
7.7415338 ,Left ,67,1353366889365 ,47,7770621704145 ,36,2219240707028
7.764006 ,Left ,67,1131819926694 ,47,7713403329771 ,36,2160836377136
7.7640089 ,Left ,67,1131819926694 ,47,7713403329771 ,36,2160836377136
7.7866697 ,Left ,67,1211665176135 ,47,7729836754848 ,36,2046211697685
7.7866729 ,Left ,67,1211665176135 ,47,7729836754848 ,36,2046211697685
7.8015884 ,Left ,67,1039259993931 ,47,7750097091859 ,36,2019059753206
7.8015916 ,Left ,67,1039259993931 ,47,7750097091859 ,36,2019059753206
7.8241449 ,Left ,67,0926955863358 ,47,7763827308369 ,36,2041182677605
7.8241486 ,Left ,67,0926955863358 ,47,7763827308369 ,36,2041182677605
7.8464166 ,Left ,67,0767384256565 ,47,7872089735135 ,36,2137199825902
7.8464187 ,Left ,67,0767384256565 ,47,7872089735135 ,36,2137199825902
7.8613837 ,Left ,67,0425642499096 ,47,8048560783488 ,36,2238510199195
7.8613855 ,Left ,67,0425642499096 ,47,8048560783488 ,36,2238510199195
7.8841018 ,Left ,67,0279144981074 ,47,8269896622513 ,36,2276569148979
7.8841043 ,Left ,67,0279144981074 ,47,8269896622513 ,36,2276569148979
7.9064689 ,Left ,67,0070943363001 ,47,8535176761975 ,36,2288260985468
7.9064721 ,Left ,67,0070943363001 ,47,8535176761975 ,36,2288260985468
7.9216755 ,Left ,66,9675834585201 ,47,8887458949769 ,36,2293063389517
7.9216795 ,Left ,66,9675834585201 ,47,8887458949769 ,36,2293063389517
7.9448851 ,Left ,66,9199162148204 ,47,9603568723101 ,36,2226529531913
7.9448931 ,Left ,66,9199162148204 ,47,9603568723101 ,36,2226529531913
7.9669106 ,Left ,66,8482258381896 ,48,0782434548052 ,36,1976763428829
7.9669182 ,Left ,66,8482258381896 ,48,0782434548052 ,36,1976763428829
7.9897945 ,Left ,66,7939745104358 ,48,1187217587177 ,36,1907902983977
7.9898024 ,Left ,66,7939745104358 ,48,1187217587177 ,36,1907902983977
8.0040184 ,Left ,66,8051258542226 ,48,1103848046175 ,36,2065901597433
8.0040225 ,Left ,66,8051258542226 ,48,1103848046175 ,36,2065901597433
8.0263968 ,Left ,66,8093427294474 ,48,1379974455798 ,36,2047230157551
8.0263996 ,Left ,66,8093427294474 ,48,1379974455798 ,36,2047230157551
8.0490919 ,Left ,66,8266981409877 ,48,18118349246 ,36,1688292491867
8.0490939 ,Left ,66,8266981409877 ,48,18118349246 ,36,1688292491867
8.0641243 ,Left ,66,8932811949688 ,48,19621441565 ,36,1220220645048
8.0641262 ,Left ,66,8932811949688 ,48,19621441565 ,36,1220220645048
8.0866204 ,Left ,66,9814105513697 ,48,1651954892066 ,36,0793389828629
8.0866232 ,Left ,66,9814105513697 ,48,1651954892066 ,36,0793389828629
8.1016689 ,Left ,67,0148569476083 ,48,1189718091631 ,36,084378846897
8.1016719 ,Left ,67,0148569476083 ,48,1189718091631 ,36,084378846897
8.1240508 ,Left ,67,0099767699066 ,48,0701060702574 ,36,105279377995
8.1240541 ,Left ,67,0099767699066 ,48,0701060702574 ,36,105279377995
8.1466802 ,Left ,67,0102192686211 ,48,0675874183085 ,36,1453786049532
8.1466836 ,Left ,67,0102192686211 ,48,0675874183085 ,36,1453786049532
8.1690401 ,Left ,67,015855472809 ,48,1287546971677 ,36,1710093034159
8.1690433 ,Left ,67,015855472809 ,48,1287546971677 ,36,1710093034159
8.183973 ,Left ,66,9945203083801 ,48,2166574991748 ,36,1946933095011
8.183976 ,Left ,66,9945203083801 ,48,2166574991748 ,36,1946933095011
8.2065206 ,Left ,67,0637995065787 ,48,2861489645517 ,36,2096274033753
8.2065238 ,Left ,67,0637995065787 ,48,2861489645517 ,36,2096274033753
8.228952 ,Left ,67,0767038466145 ,48,2946641573732 ,36,2327436749252
8.2289543 ,Left ,67,0767038466145 ,48,2946641573732 ,36,2327436749252
8.244002 ,Left ,67,0778773239962 ,48,2601144269176 ,36,2432220298764
8.2440065 ,Left ,67,0778773239962 ,48,2601144269176 ,36,2432220298764
8.2666179 ,Left ,67,0644172496604 ,48,2336847009662 ,36,248633506272
8.2666203 ,Left ,67,0644172496604 ,48,2336847009662 ,36,248633506272
8.2891949 ,Left ,67,0146893144099 ,48,1995701275973 ,36,2488787709716
8.2891979 ,Left ,67,0146893144099 ,48,1995701275973 ,36,2488787709716
8.304199 ,Left ,67,0206988122855 ,48,1324105597743 ,36,2256163069858
8.3042021 ,Left ,67,0206988122855 ,48,1324105597743 ,36,2256163069858
8.3266099 ,Left ,67,0235943179728 ,48,0778993206429 ,36,2159496562039
8.3266118 ,Left ,67,0235943179728 ,48,0778993206429 ,36,2159496562039
8.3488611 ,Left ,67,0566858589072 ,48,0671604706861 ,36,1984721598634
8.3488632 ,Left ,67,0566858589072 ,48,0671604706861 ,36,1984721598634
8.3639028 ,Left ,67,0333038599987 ,48,0900012885646 ,36,1833719416571
8.3639052 ,Left ,67,0333038599987 ,48,0900012885646 ,36,1833719416571
8.386756 ,Left ,67,0186015614718 ,48,1382543851974 ,36,1783565488669
8.3867598 ,Left ,67,0186015614718 ,48,1382543851974 ,36,1783565488669
8.4089955 ,Left ,67,012218395884 ,48,1658477365137 ,36,2315932821464
8.408999 ,Left ,67,012218395884 ,48,1658477365137 ,36,2315932821464
8.4241432 ,Left ,67,0410294665006 ,48,1955451253973 ,36,2795729043727
8.4241469 ,Left ,67,0410294665006 ,48,1955451253973 ,36,2795729043727
8.4464275 ,Left ,67,0737008588102 ,48,23067056659 ,36,3002329870356
8.446431 ,Left ,67,0737008588102 ,48,23067056659 ,36,3002329870356
8.4690229 ,Left ,67,0979941428165 ,48,2585478787572 ,36,2971320004948
8.4690264 ,Left ,67,0979941428165 ,48,2585478787572 ,36,2971320004948
8.4839582 ,Left ,67,0876614565825 ,48,2447095775743 ,36,3042899584085
8.4839617 ,Left ,67,0876614565825 ,48,2447095775743 ,36,3042899584085
8.5066327 ,Left ,67,0849058434026 ,48,2287632841339 ,36,3518592781992
8.5066365 ,Left ,67,0849058434026 ,48,2287632841339 ,36,3518592781992
8.5289949 ,Left ,67,044992154654 ,48,2697001597671 ,36,3994728604669
8.5289984 ,Left ,67,044992154654 ,48,2697001597671 ,36,3994728604669
8.544325 ,Left ,67,0282596116464 ,48,3184718070626 ,36,4246892787317
8.5443291 ,Left ,67,0282596116464 ,48,3184718070626 ,36,4246892787317
8.5667212 ,Left ,67,0115556167098 ,48,3527638537542 ,36,4410149792017
8.5667253 ,Left ,67,0115556167098 ,48,3527638537542 ,36,4410149792017
8.5892763 ,Left ,66,9917712669537 ,48,4088969662993 ,36,4421063886955
8.5892801 ,Left ,66,9917712669537 ,48,4088969662993 ,36,4421063886955
8.6042808 ,Left ,66,9723708070368 ,48,4565208055229 ,36,4157823041558
8.6042868 ,Left ,66,9723708070368 ,48,4565208055229 ,36,4157823041558
8.6267557 ,Left ,66,9198179987134 ,48,4367517439441 ,36,41049337921
8.6267595 ,Left ,66,9198179987134 ,48,4367517439441 ,36,41049337921
8.6491446 ,Left ,66,8879505046949 ,48,4460191558505 ,36,4357911241892
8.6491484 ,Left ,66,8879505046949 ,48,4460191558505 ,36,4357911241892
8.6640809 ,Left ,66,8671544602693 ,48,5506263969188 ,36,429194967361
8.6640846 ,Left ,66,8671544602693 ,48,5506263969188 ,36,429194967361
8.686573 ,Left ,66,8891192508883 ,48,6669689578364 ,36,4089452639182
8.6865768 ,Left ,66,8891192508883 ,48,6669689578364 ,36,4089452639182
8.7090306 ,Left ,66,9593953972205 ,48,7494986241293 ,36,3879852042786
8.7090342 ,Left ,66,9593953972205 ,48,7494986241293 ,36,3879852042786
8.7240765 ,Left ,67,0110661749001 ,48,7655536441863 ,36,3868078195594
8.7240841 ,Left ,67,0110661749001 ,48,7655536441863 ,36,3868078195594
8.7464619 ,Left ,66,9876207198346 ,48,7691151892187 ,36,3936551398607
8.7464655 ,Left ,66,9876207198346 ,48,7691151892187 ,36,3936551398607
8.7692434 ,Left ,66,9925387313126 ,48,7133525931916 ,36,40766631364
8.7692471 ,Left ,66,9925387313126 ,48,7133525931916 ,36,40766631364
8.7842924 ,Left ,67,0205835270061 ,48,6290917824853 ,36,4144323990946
8.7842963 ,Left ,67,0205835270061 ,48,6290917824853 ,36,4144323990946
8.8065334 ,Left ,67,0662519057134 ,48,5716907050756 ,36,3949231017063
8.8065382 ,Left ,67,0662519057134 ,48,5716907050756 ,36,3949231017063
8.8289322 ,Left ,67,0821905821988 ,48,5278909984637 ,36,3559387289727
8.8289355 ,Left ,67,0821905821988 ,48,5278909984637 ,36,3559387289727
8.8442742 ,Left ,67,1190735584405 ,48,4473241694742 ,36,3148299620632
8.844278 ,Left ,67,1190735584405 ,48,4473241694742 ,36,3148299620632
8.8666515 ,Left ,67,1721420856603 ,48,3667404123832 ,36,2706454638048
8.8666552 ,Left ,67,1721420856603 ,48,3667404123832 ,36,2706454638048
8.8891963 ,Left ,67,2107506017543 ,48,2997346838306 ,36,2366296762715
8.8892 ,Left ,67,2107506017543 ,48,2997346838306 ,36,2366296762715
8.9043327 ,Left ,67,2570065316847 ,48,2577655526755 ,36,2030039234863
8.9043368 ,Left ,67,2570065316847 ,48,2577655526755 ,36,2030039234863
8.9266034 ,Left ,67,2864105743469 ,48,2802647545687 ,36,1776643443303
8.926607 ,Left ,67,2864105743469 ,48,2802647545687 ,36,1776643443303
8.9490244 ,Left ,67,3143578740576 ,48,2977760710316 ,36,1867179998655
8.9490279 ,Left ,67,3143578740576 ,48,2977760710316 ,36,1867179998655
8.9641537 ,Left ,67,3749143171423 ,48,2901948038778 ,36,2015733359932
8.9641574 ,Left ,67,3749143171423 ,48,2901948038778 ,36,2015733359932
8.9867633 ,Left ,67,4134425055627 ,48,2551937958809 ,36,2114857651625
8.9867671 ,Left ,67,4134425055627 ,48,2551937958809 ,36,2114857651625
9.0091507 ,Left ,67,3894422343677 ,48,2291163451017 ,36,225386117528
9.0091544 ,Left ,67,3894422343677 ,48,2291163451017 ,36,225386117528
9.031714 ,Left ,67,3449722414677 ,48,2221784589525 ,36,2431839994623
9.0317177 ,Left ,67,3449722414677 ,48,2221784589525 ,36,2431839994623
9.0393208 ,Left ,67,3271467450785 ,48,1822961453328 ,36,2366185873388
9.0393246 ,Left ,67,3271467450785 ,48,1822961453328 ,36,2366185873388
9.061789 ,Left ,67,3085151135776 ,48,1151946125141 ,36,2207932038705
9.0617928 ,Left ,67,3085151135776 ,48,1151946125141 ,36,2207932038705
9.0767282 ,Left ,67,3080541794745 ,48,0533939441117 ,36,2170106551265
9.0767319 ,Left ,67,3080541794745 ,48,0533939441117 ,36,2170106551265
9.0992728 ,Left ,67,3222693197179 ,47,9941380577285 ,36,2320104466537
9.0992766 ,Left ,67,3222693197179 ,47,9941380577285 ,36,2320104466537
9.1215575 ,Left ,67,3474149286436 ,47,9502894983773 ,36,2650983584076
9.1215611 ,Left ,67,3474149286436 ,47,9502894983773 ,36,2650983584076
9.1367143 ,Left ,67,3943909381428 ,47,9125812558026 ,36,3192036794418
9.1367184 ,Left ,67,3943909381428 ,47,9125812558026 ,36,3192036794418
9.1591766 ,Left ,67,4042039017643 ,47,8821155376676 ,36,37056642472
9.1591826 ,Left ,67,4042039017643 ,47,8821155376676 ,36,37056642472
9.1819673 ,Left ,67,4171910353897 ,47,8488193618301 ,36,409250814516
9.1819751 ,Left ,67,4171910353897 ,47,8488193618301 ,36,409250814516
9.1970237 ,Left ,67,4196186954594 ,47,8089747332146 ,36,4448114855239
9.1970315 ,Left ,67,4196186954594 ,47,8089747332146 ,36,4448114855239
9.2193862 ,Left ,67,4147016270741 ,47,7773810529695 ,36,468397486681
9.2193921 ,Left ,67,4147016270741 ,47,7773810529695 ,36,468397486681
9.2418147 ,Left ,67,3856835272467 ,47,76131162859 ,36,4828996312483
9.2418204 ,Left ,67,3856835272467 ,47,76131162859 ,36,4828996312483
9.2569854 ,Left ,67,3660514923554 ,47,7416689773422 ,36,48208872613
9.2569912 ,Left ,67,3660514923554 ,47,7416689773422 ,36,48208872613
9.2793657 ,Left ,67,31052089488 ,47,692529809113 ,36,4921942078131
9.2793712 ,Left ,67,31052089488 ,47,692529809113 ,36,4921942078131
9.3015133 ,Left ,67,2797887269368 ,47,6551450210598 ,36,5208930062035
9.3015159 ,Left ,67,2797887269368 ,47,6551450210598 ,36,5208930062035
9.3163682 ,Left ,67,2618918492955 ,47,6318986720992 ,36,5564867761308
9.3163704 ,Left ,67,2618918492955 ,47,6318986720992 ,36,5564867761308
9.3392152 ,Left ,67,2743893637741 ,47,6226936827216 ,36,5904894982614
9.3392172 ,Left ,67,2743893637741 ,47,6226936827216 ,36,5904894982614
9.3616393 ,Left ,67,2879807698254 ,47,6275089969853 ,36,6084795823676
9.3616415 ,Left ,67,2879807698254 ,47,6275089969853 ,36,6084795823676
9.3766151 ,Left ,67,2937313931397 ,47,623588484139 ,36,6187674431953
9.3766175 ,Left ,67,2937313931397 ,47,623588484139 ,36,6187674431953
9.3990588 ,Left ,67,3041911592243 ,47,6301390587871 ,36,6290643567409
9.399062 ,Left ,67,3041911592243 ,47,6301390587871 ,36,6290643567409
9.4213065 ,Left ,67,2976955227624 ,47,6514182966394 ,36,6396882592908
9.4213083 ,Left ,67,2976955227624 ,47,6514182966394 ,36,6396882592908
9.436867 ,Left ,67,2900910713968 ,47,6741964456843 ,36,6442181228936
9.4368748 ,Left ,67,2900910713968 ,47,6741964456843 ,36,6442181228936
9.4592361 ,Left ,67,2838590653673 ,47,692925869511 ,36,6286980167107
9.4592403 ,Left ,67,2838590653673 ,47,692925869511 ,36,6286980167107
9.4818262 ,Left ,67,2700597963132 ,47,6941988853675 ,36,6170077248101
9.4818305 ,Left ,67,2700597963132 ,47,6941988853675 ,36,6170077248101
9.4966631 ,Left ,67,2769544346408 ,47,7019209070022 ,36,5999502940858
9.4966675 ,Left ,67,2769544346408 ,47,7019209070022 ,36,5999502940858
9.5193315 ,Left ,67,2579076200285 ,47,7194425974557 ,36,5732704225165
9.5193358 ,Left ,67,2579076200285 ,47,7194425974557 ,36,5732704225165
9.541698 ,Left ,67,2554063134373 ,47,7404220238967 ,36,5578069531523
9.5417024 ,Left ,67,2554063134373 ,47,7404220238967 ,36,5578069531523
9.5791643 ,Left ,67,2696243169979 ,47,8143675248571 ,36,5109571213312
9.5791686 ,Left ,67,2696243169979 ,47,8143675248571 ,36,5109571213312
9.6016177 ,Left ,67,2649145063511 ,47,848820199528 ,36,4751610812021
9.6016219 ,Left ,67,2649145063511 ,47,848820199528 ,36,4751610812021
9.6393769 ,Left ,67,2334875395503 ,47,9800976662547 ,36,3709466193345
9.6393813 ,Left ,67,2334875395503 ,47,9800976662547 ,36,3709466193345
9.661852 ,Left ,67,2016949953502 ,48,0750357214708 ,36,2977945500867
9.6618563 ,Left ,67,2016949953502 ,48,0750357214708 ,36,2977945500867
9.6992225 ,Left ,67,1664921579194 ,48,2423345629925 ,36,171449058564
9.6992273 ,Left ,67,1664921579194 ,48,2423345629925 ,36,171449058564
9.7217656 ,Left ,67,1362574399305 ,48,2937993741355 ,36,1341440369641
9.7217746 ,Left ,67,1362574399305 ,48,2937993741355 ,36,1341440369641
9.7591819 ,Left ,67,0317559358365 ,48,3575219940351 ,36,0716531946375
9.7591862 ,Left ,67,0317559358365 ,48,3575219940351 ,36,0716531946375
9.7816581 ,Left ,66,9802904013618 ,48,3771681532857 ,36,0411883685801
9.7816616 ,Left ,66,9802904013618 ,48,3771681532857 ,36,0411883685801
9.8192457 ,Left ,66,8907020549362 ,48,4738451559239 ,35,9881365521099
9.8192492 ,Left ,66,8907020549362 ,48,4738451559239 ,35,9881365521099
9.8416361 ,Left ,66,9142721938134 ,48,54204804198 ,36,0019526375278
9.84164 ,Left ,66,9142721938134 ,48,54204804198 ,36,0019526375278
9.8795762 ,Left ,66,8852829974862 ,48,5625666370008 ,36,0849746109817
9.8795841 ,Left ,66,8852829974862 ,48,5625666370008 ,36,0849746109817
9.9021638 ,Left ,66,9119362393948 ,48,4571487885565 ,36,1089834334857
9.9021719 ,Left ,66,9119362393948 ,48,4571487885565 ,36,1089834334857
9.939237 ,Left ,66,9819605724211 ,48,1799883534416 ,36,1077837060951
9.9392404 ,Left ,66,9819605724211 ,48,1799883534416 ,36,1077837060951
9.9614819 ,Left ,67,0282665876327 ,48,0890934317126 ,36,1255488578665
9.9614849 ,Left ,67,0282665876327 ,48,0890934317126 ,36,1255488578665
9.9990526 ,Left ,67,1025085027715 ,47,9745979363322 ,36,1461286044322
9.9990556 ,Left ,67,1025085027715 ,47,9745979363322 ,36,1461286044322
10.0216899 ,Left ,67,0970387719236 ,47,9463925339303 ,36,1600879441017
10.0216929 ,Left ,67,0970387719236 ,47,9463925339303 ,36,1600879441017
10.0589791 ,Left ,67,1218011981409 ,48,0004004364778 ,36,2046423742131
10.0589809 ,Left ,67,1218011981409 ,48,0004004364778 ,36,2046423742131
10.0896861 ,Left ,67,1565413999883 ,48,0572451919349 ,36,2452991453715
10.0896943 ,Left ,67,1565413999883 ,48,0572451919349 ,36,2452991453715
10.1422127 ,Left ,67,1541069222795 ,48,0310464102805 ,36,2986855476771
10.1422207 ,Left ,67,1541069222795 ,48,0310464102805 ,36,2986855476771
10.1795131 ,Left ,67,1414231896548 ,47,9330312377672 ,36,2743987450997
10.1795208 ,Left ,67,1414231896548 ,47,9330312377672 ,36,2743987450997
10.2021252 ,Left ,67,1472946204046 ,47,9196817520182 ,36,2617645902051
10.2021332 ,Left ,67,1472946204046 ,47,9196817520182 ,36,2617645902051
10.2392387 ,Left ,67,1714719998321 ,47,8784753954716 ,36,2281904303143
10.2392444 ,Left ,67,1714719998321 ,47,8784753954716 ,36,2281904303143
10.2615143 ,Left ,67,1810371762691 ,47,8360398194312 ,36,2110044183211
10.2615171 ,Left ,67,1810371762691 ,47,8360398194312 ,36,2110044183211
10.2991387 ,Left ,67,2194643926476 ,47,787759154827 ,36,1827105413646
10.2991406 ,Left ,67,2194643926476 ,47,787759154827 ,36,1827105413646
10.3215343 ,Left ,67,2236975058769 ,47,783567532255 ,36,183596294116
10.3215367 ,Left ,67,2236975058769 ,47,783567532255 ,36,183596294116
10.3591017 ,Left ,67,2247793688808 ,47,7633479319059 ,36,2025643619971
10.3591052 ,Left ,67,2247793688808 ,47,7633479319059 ,36,2025643619971
10.3814219 ,Left ,67,2334602913069 ,47,7568987729031 ,36,2152481981477
10.3814239 ,Left ,67,2334602913069 ,47,7568987729031 ,36,2152481981477
10.4189574 ,Left ,67,2059926721288 ,47,7246603321601 ,36,2561029765226
10.4189596 ,Left ,67,2059926721288 ,47,7246603321601 ,36,2561029765226
10.4414734 ,Left ,67,2041649877493 ,47,708041720784 ,36,2783114177942
10.4414765 ,Left ,67,2041649877493 ,47,708041720784 ,36,2783114177942
10.4791734 ,Left ,67,1851789215499 ,47,6720651241673 ,36,3212979776301
10.4791771 ,Left ,67,1851789215499 ,47,6720651241673 ,36,3212979776301
10.5167089 ,Left ,67,1849280737231 ,47,6428717669588 ,36,3497801188872
10.5167126 ,Left ,67,1849280737231 ,47,6428717669588 ,36,3497801188872
10.539152 ,Left ,67,1912659703897 ,47,626531970078 ,36,3619018389391
10.5391541 ,Left ,67,1912659703897 ,47,626531970078 ,36,3619018389391
10.5614821 ,Left ,67,2034002761659 ,47,6144963398443 ,36,3723579694175
10.561484 ,Left ,67,2034002761659 ,47,6144963398443 ,36,3723579694175
10.5991225 ,Left ,67,2080707165068 ,47,5886185369991 ,36,3815596002135
10.5991251 ,Left ,67,2080707165068 ,47,5886185369991 ,36,3815596002135
10.6368567 ,Left ,67,2124551882941 ,47,5585281901592 ,36,383370749725
10.6368613 ,Left ,67,2124551882941 ,47,5585281901592 ,36,383370749725
10.6591978 ,Left ,67,2123966669914 ,47,5493013646543 ,36,3825067419411
10.6592058 ,Left ,67,2123966669914 ,47,5493013646543 ,36,3825067419411
10.6963466 ,Left ,67,2109647792364 ,47,5489192855942 ,36,3729870463375
10.6963484 ,Left ,67,2109647792364 ,47,5489192855942 ,36,3729870463375
10.7191293 ,Left ,67,2007192713072 ,47,5571516705341 ,36,3767767728204
10.7191313 ,Left ,67,2007192713072 ,47,5571516705341 ,36,3767767728204
10.7641775 ,Left ,67,1550322295701 ,47,6174057817031 ,36,3808816595486
10.7641808 ,Left ,67,1550322295701 ,47,6174057817031 ,36,3808816595486
10.7867845 ,Left ,67,1160942744113 ,47,6342492541599 ,36,3776164146255
10.7867896 ,Left ,67,1160942744113 ,47,6342492541599 ,36,3776164146255
10.8169622 ,Left ,67,0225541855156 ,47,7115839009906 ,36,3542837132483
10.8169685 ,Left ,67,0225541855156 ,47,7115839009906 ,36,3542837132483
10.8396814 ,Left ,66,9546554599066 ,47,7797971309373 ,36,340609958506
10.8396879 ,Left ,66,9546554599066 ,47,7797971309373 ,36,340609958506
10.8619501 ,Left ,66,9059297375974 ,47,8670314175126 ,36,3147201779081
10.8619567 ,Left ,66,9059297375974 ,47,8670314175126 ,36,3147201779081
10.8990399 ,Left ,66,8186411606009 ,47,8910918300026 ,36,292184348588
10.8990432 ,Left ,66,8186411606009 ,47,8910918300026 ,36,292184348588
10.9142191 ,Left ,66,8177078743211 ,47,9450822383743 ,36,2665495264665
10.9142223 ,Left ,66,8177078743211 ,47,9450822383743 ,36,2665495264665
10.9365789 ,Left ,66,8721994554566 ,47,9746659582118 ,36,2347817793128
10.9365823 ,Left ,66,8721994554566 ,47,9746659582118 ,36,2347817793128
10.9516636 ,Left ,66,9300271445462 ,47,9590089440456 ,36,1940090224094
10.9516669 ,Left ,66,9300271445462 ,47,9590089440456 ,36,1940090224094
10.9744806 ,Left ,66,9956120930518 ,47,9045790469168 ,36,1439042837266
10.9744881 ,Left ,66,9956120930518 ,47,9045790469168 ,36,1439042837266
10.9969479 ,Left ,67,0439756442971 ,47,8456029163933 ,36,13079908553
10.9969554 ,Left ,67,0439756442971 ,47,8456029163933 ,36,13079908553
11.0118696 ,Left ,67,0778483010673 ,47,8224659944694 ,36,1443425889221
11.0118754 ,Left ,67,0778483010673 ,47,8224659944694 ,36,1443425889221
11.0343032 ,Left ,67,0896699443364 ,47,8353039983525 ,36,1703225193297
11.0343075 ,Left ,67,0896699443364 ,47,8353039983525 ,36,1703225193297
11.0566655 ,Left ,67,101225413506 ,47,8789618549036 ,36,1883515420443
11.056669 ,Left ,67,101225413506 ,47,8789618549036 ,36,1883515420443
11.0717223 ,Left ,67,1243145881408 ,47,9995465701471 ,36,1983868234346
11.0717259 ,Left ,67,1243145881408 ,47,9995465701471 ,36,1983868234346
11.094244 ,Left ,67,1948353017492 ,48,0435691347569 ,36,2241207916577
11.0942477 ,Left ,67,1948353017492 ,48,0435691347569 ,36,2241207916577
11.1164515 ,Left ,67,2490040623441 ,48,0273865288234 ,36,2698255237446
11.1164552 ,Left ,67,2490040623441 ,48,0273865288234 ,36,2698255237446
11.1313013 ,Left ,67,2780879715892 ,48,0019952052023 ,36,3008883348118
11.1313159 ,Left ,67,2780879715892 ,48,0019952052023 ,36,3008883348118
11.1546773 ,Left ,67,2657349036135 ,48,0036406296935 ,36,313449202709
11.1546915 ,Left ,67,2657349036135 ,48,0036406296935 ,36,313449202709
11.1773068 ,Left ,67,2381596227917 ,48,0047331452832 ,36,3134762610433
11.1773146 ,Left ,67,2381596227917 ,48,0047331452832 ,36,3134762610433
11.1917222 ,Left ,67,2343583361394 ,47,9612868075021 ,36,3074499917464
11.1917278 ,Left ,67,2343583361394 ,47,9612868075021 ,36,3074499917464
11.2139661 ,Left ,67,241894624704 ,47,9434000461042 ,36,31837368902
11.2139694 ,Left ,67,241894624704 ,47,9434000461042 ,36,31837368902
11.2364802 ,Left ,67,2202057788647 ,47,9805616044614 ,36,3069401683108
11.2364836 ,Left ,67,2202057788647 ,47,9805616044614 ,36,3069401683108
11.2515174 ,Left ,67,2434452050479 ,48,0309591804205 ,36,2812709850058
11.2515207 ,Left ,67,2434452050479 ,48,0309591804205 ,36,2812709850058
11.2816891 ,Left ,67,256924359328 ,48,0361148411226 ,36,270122052048
11.2816927 ,Left ,67,256924359328 ,48,0361148411226 ,36,270122052048
11.3043763 ,Left ,67,2672349173585 ,47,9864548204863 ,36,2752114281117
11.3043799 ,Left ,67,2672349173585 ,47,9864548204863 ,36,2752114281117
11.3191388 ,Left ,67,2406393241608 ,48,0098019068139 ,36,2985761742101
11.3191423 ,Left ,67,2406393241608 ,48,0098019068139 ,36,2985761742101
11.3340601 ,Left ,67,2301776780082 ,48,0691909083306 ,36,2945714204354
11.3340636 ,Left ,67,2301776780082 ,48,0691909083306 ,36,2945714204354
11.3566806 ,Left ,67,2548690130836 ,48,1048374932545 ,36,2863384148695
11.3566842 ,Left ,67,2548690130836 ,48,1048374932545 ,36,2863384148695
11.3717488 ,Left ,67,2565494702057 ,48,0933088636832 ,36,3057269408128
11.3717524 ,Left ,67,2565494702057 ,48,0933088636832 ,36,3057269408128
11.3940458 ,Left ,67,2609726103214 ,48,0878776509887 ,36,3672480185389
11.3940479 ,Left ,67,2609726103214 ,48,0878776509887 ,36,3672480185389
11.4164285 ,Left ,67,2136619741348 ,48,1186453344197 ,36,4361869808314
11.4164302 ,Left ,67,2136619741348 ,48,1186453344197 ,36,4361869808314
11.4316406 ,Left ,67,2199472957887 ,48,1767805364439 ,36,4970185476366
11.431643 ,Left ,67,2199472957887 ,48,1767805364439 ,36,4970185476366
11.4540146 ,Left ,67,2120115987049 ,48,2091309243599 ,36,5268889736719
11.4540184 ,Left ,67,2120115987049 ,48,2091309243599 ,36,5268889736719
11.4767855 ,Left ,67,1629805141035 ,48,2606648381603 ,36,5497984626925
11.4767906 ,Left ,67,1629805141035 ,48,2606648381603 ,36,5497984626925
11.4918155 ,Left ,67,0854948471877 ,48,3169973404012 ,36,5476634830103
11.4918207 ,Left ,67,0854948471877 ,48,3169973404012 ,36,5476634830103
11.5142317 ,Left ,67,0369267391182 ,48,291607159955 ,36,5304183213487
11.5142367 ,Left ,67,0369267391182 ,48,291607159955 ,36,5304183213487
11.5369364 ,Left ,66,9697481315899 ,48,2642992416228 ,36,5057537316498
11.5369417 ,Left ,66,9697481315899 ,48,2642992416228 ,36,5057537316498
11.5519443 ,Left ,66,8890134719885 ,48,3003882248194 ,36,4748676290894
11.5519494 ,Left ,66,8890134719885 ,48,3003882248194 ,36,4748676290894
11.5742069 ,Left ,66,8669401030616 ,48,3514519773253 ,36,4441526738134
11.5742119 ,Left ,66,8669401030616 ,48,3514519773253 ,36,4441526738134
11.5967411 ,Left ,66,9551775033053 ,48,3906541977377 ,36,4303240323829
11.5967461 ,Left ,66,9551775033053 ,48,3906541977377 ,36,4303240323829
11.6118586 ,Left ,67,0306779092595 ,48,3761491195236 ,36,4148785935033
11.6118638 ,Left ,67,0306779092595 ,48,3761491195236 ,36,4148785935033
11.6345452 ,Left ,67,048797291417 ,48,3211200869175 ,36,4099679752727
11.6345505 ,Left ,67,048797291417 ,48,3211200869175 ,36,4099679752727
11.6568804 ,Left ,67,0965826807236 ,48,2405128606879 ,36,39696510443
11.6568935 ,Left ,67,0965826807236 ,48,2405128606879 ,36,39696510443
11.6718199 ,Left ,67,1158041378142 ,48,1618564931495 ,36,3940774993193
11.6718791 ,Left ,67,1158041378142 ,48,1618564931495 ,36,3940774993193
11.6938618 ,Left ,67,1588816788188 ,48,0941647373678 ,36,3997391721903
11.6938636 ,Left ,67,1588816788188 ,48,0941647373678 ,36,3997391721903
11.7165339 ,Left ,67,1984921829627 ,48,0537019430149 ,36,4059662652184
11.716536 ,Left ,67,1984921829627 ,48,0537019430149 ,36,4059662652184
11.7314279 ,Left ,67,2508671474101 ,48,024120174132 ,36,4170139915761
11.7314298 ,Left ,67,2508671474101 ,48,024120174132 ,36,4170139915761
11.7541345 ,Left ,67,3218647338569 ,47,999101467318 ,36,4319973995793
11.7541368 ,Left ,67,3218647338569 ,47,999101467318 ,36,4319973995793
11.7765575 ,Left ,67,4088062779667 ,47,9821335543841 ,36,4465006449555
11.7765611 ,Left ,67,4088062779667 ,47,9821335543841 ,36,4465006449555
11.791767 ,Left ,67,4473034863801 ,47,969433663914 ,36,4601299982708
11.7917707 ,Left ,67,4473034863801 ,47,969433663914 ,36,4601299982708
11.8143359 ,Left ,67,4733049576383 ,47,9573799087346 ,36,4733658316284
11.8143395 ,Left ,67,4733049576383 ,47,9573799087346 ,36,4733658316284
11.8365531 ,Left ,67,4970571954097 ,47,9506289568557 ,36,4710058576972
11.8365551 ,Left ,67,4970571954097 ,47,9506289568557 ,36,4710058576972
11.8589282 ,Left ,67,487567343457 ,47,9651911916367 ,36,4563044889427
11.8589301 ,Left ,67,487567343457 ,47,9651911916367 ,36,4563044889427
11.8739768 ,Left ,67,4294183984305 ,47,9876888940795 ,36,4209709849927
11.8739795 ,Left ,67,4294183984305 ,47,9876888940795 ,36,4209709849927
11.8967164 ,Left ,67,3939728196625 ,48,023683403091 ,36,3643077677385
11.8967208 ,Left ,67,3939728196625 ,48,023683403091 ,36,3643077677385
11.9121675 ,Left ,67,3592291301105 ,48,0516206064567 ,36,3096341811455
11.9121741 ,Left ,67,3592291301105 ,48,0516206064567 ,36,3096341811455
11.9345098 ,Left ,67,3426417925971 ,48,0763721472091 ,36,2641017152508
11.9345162 ,Left ,67,3426417925971 ,48,0763721472091 ,36,2641017152508
11.9568925 ,Left ,67,3301319163264 ,48,1112085638347 ,36,2209852115751
11.9568989 ,Left ,67,3301319163264 ,48,1112085638347 ,36,2209852115751
11.9793555 ,Left ,67,2930914781738 ,48,1548574805745 ,36,171688541914
11.9793618 ,Left ,67,2930914781738 ,48,1548574805745 ,36,171688541914
11.994701 ,Left ,67,2555929002211 ,48,2001778181656 ,36,1135916854949
11.9947104 ,Left ,67,2555929002211 ,48,2001778181656 ,36,1135916854949
12.0168554 ,Left ,67,2326083590451 ,48,2387251384457 ,36,0660673585821
12.0168618 ,Left ,67,2326083590451 ,48,2387251384457 ,36,0660673585821
12.0391716 ,Left ,67,1856702980095 ,48,2783355831152 ,36,0369115648661
12.0391758 ,Left ,67,1856702980095 ,48,2783355831152 ,36,0369115648661
12.0542556 ,Left ,67,1078367101474 ,48,3207865652962 ,35,9997828416366
12.0542589 ,Left ,67,1078367101474 ,48,3207865652962 ,35,9997828416366
12.0765143 ,Left ,67,0102703243381 ,48,297827591836 ,35,956173527994
12.0765175 ,Left ,67,0102703243381 ,48,297827591836 ,35,956173527994
12.09882 ,Left ,66,9642349318712 ,48,3303644351279 ,35,9195836958808
12.0988217 ,Left ,66,9642349318712 ,48,3303644351279 ,35,9195836958808
12.113952 ,Left ,66,8965631200936 ,48,4340869623847 ,35,893402955009
12.1139541 ,Left ,66,8965631200936 ,48,4340869623847 ,35,893402955009
12.1367357 ,Left ,66,8686218917849 ,48,5010431887397 ,35,9229521381885
12.1367386 ,Left ,66,8686218917849 ,48,5010431887397 ,35,9229521381885
12.1588809 ,Left ,66,8986884980763 ,48,478878669295 ,35,9861464881451
12.1588839 ,Left ,66,8986884980763 ,48,478878669295 ,35,9861464881451
12.1740881 ,Left ,66,9199467038573 ,48,3530990933658 ,36,0363002211139
12.1740913 ,Left ,66,9199467038573 ,48,3530990933658 ,36,0363002211139
12.1964717 ,Left ,66,9896463458047 ,48,1837832095121 ,36,0412370579783
12.1964747 ,Left ,66,9896463458047 ,48,1837832095121 ,36,0412370579783
12.2190752 ,Left ,67,0478311138437 ,48,0126677928211 ,36,0256406039435
12.2190785 ,Left ,67,0478311138437 ,48,0126677928211 ,36,0256406039435
12.2340229 ,Left ,67,0689322967559 ,47,9370271640196 ,36,0311699762317
12.2340264 ,Left ,67,0689322967559 ,47,9370271640196 ,36,0311699762317
12.2566511 ,Left ,67,0985772989705 ,47,9379863342659 ,36,0438474516085
12.2566549 ,Left ,67,0985772989705 ,47,9379863342659 ,36,0438474516085
12.2790344 ,Left ,67,1446957145143 ,47,9124435881417 ,36,0469431318756
12.2790379 ,Left ,67,1446957145143 ,47,9124435881417 ,36,0469431318756
12.2943398 ,Left ,67,1762390956737 ,47,841465099637 ,36,0439671777776
12.2943436 ,Left ,67,1762390956737 ,47,841465099637 ,36,0439671777776
12.31675 ,Left ,67,1608113940003 ,47,7890793396585 ,36,0291638328995
12.3167537 ,Left ,67,1608113940003 ,47,7890793396585 ,36,0291638328995
12.3392913 ,Left ,67,1659578386455 ,47,7882263578489 ,36,0440578159378
12.3392977 ,Left ,67,1659578386455 ,47,7882263578489 ,36,0440578159378
12.353929 ,Left ,67,1968258069211 ,47,8652539647826 ,36,0713446926417
12.3539307 ,Left ,67,1968258069211 ,47,8652539647826 ,36,0713446926417
12.3766256 ,Left ,67,2249456952506 ,47,942567192149 ,36,099854160676
12.3766276 ,Left ,67,2249456952506 ,47,942567192149 ,36,099854160676
12.3988701 ,Left ,67,2352435050504 ,47,9877900196793 ,36,1268546721044
12.3988718 ,Left ,67,2352435050504 ,47,9877900196793 ,36,1268546721044
12.4141239 ,Left ,67,2168693429413 ,47,9922973175457 ,36,13093681069
12.4141264 ,Left ,67,2168693429413 ,47,9922973175457 ,36,13093681069
12.4366974 ,Left ,67,2198677050993 ,47,9744506550878 ,36,1336301292248
12.4367004 ,Left ,67,2198677050993 ,47,9744506550878 ,36,1336301292248
12.458847 ,Left ,67,2007697951754 ,47,9448482299282 ,36,1315701943374
12.4588487 ,Left ,67,2007697951754 ,47,9448482299282 ,36,1315701943374
12.4739238 ,Left ,67,1890724245608 ,47,9410169805526 ,36,1208473739421
12.4739258 ,Left ,67,1890724245608 ,47,9410169805526 ,36,1208473739421
12.4964742 ,Left ,67,1703819022684 ,47,9471988167099 ,36,1088600501429
12.4964766 ,Left ,67,1703819022684 ,47,9471988167099 ,36,1088600501429
12.5193064 ,Left ,67,1543180582287 ,47,949989377561 ,36,1086513143146
12.5193107 ,Left ,67,1543180582287 ,47,949989377561 ,36,1086513143146
12.5345984 ,Left ,67,1615903875505 ,47,9336870498177 ,36,1256133428097
12.5346039 ,Left ,67,1615903875505 ,47,9336870498177 ,36,1256133428097
12.5563975 ,Left ,67,2012946903949 ,47,8775514041981 ,36,1413940429478
12.5563998 ,Left ,67,2012946903949 ,47,8775514041981 ,36,1413940429478
12.5789066 ,Left ,67,2196358695643 ,47,8252072914646 ,36,1493735503488
12.5789085 ,Left ,67,2196358695643 ,47,8252072914646 ,36,1493735503488
12.5941968 ,Left ,67,2061554060856 ,47,7815994865301 ,36,1515329106545
12.5942046 ,Left ,67,2061554060856 ,47,7815994865301 ,36,1515329106545
12.6165778 ,Left ,67,2002049262591 ,47,7624246957373 ,36,1465316427218
12.6165806 ,Left ,67,2002049262591 ,47,7624246957373 ,36,1465316427218
12.6464145 ,Left ,67,2181985114258 ,47,7537851416485 ,36,1424183007326
12.6464165 ,Left ,67,2181985114258 ,47,7537851416485 ,36,1424183007326
12.6615021 ,Left ,67,211986437877 ,47,7278298851007 ,36,1480550637357
12.6615041 ,Left ,67,211986437877 ,47,7278298851007 ,36,1480550637357
12.6839026 ,Left ,67,2117904020589 ,47,7012096137158 ,36,158595759129
12.6839045 ,Left ,67,2117904020589 ,47,7012096137158 ,36,158595759129
12.6989197 ,Left ,67,2011823934152 ,47,6841470116281 ,36,171290190787
12.6989219 ,Left ,67,2011823934152 ,47,6841470116281 ,36,171290190787
12.7140959 ,Left ,67,1862505705674 ,47,673637550175 ,36,1870862213606
12.7140992 ,Left ,67,1862505705674 ,47,673637550175 ,36,1870862213606
12.7371634 ,Left ,67,2013916075635 ,47,6798830403935 ,36,2053778456471
12.7371712 ,Left ,67,2013916075635 ,47,6798830403935 ,36,2053778456471
12.7588964 ,Left ,67,2057352705129 ,47,6799897076352 ,36,2211428445692
12.7588982 ,Left ,67,2057352705129 ,47,6799897076352 ,36,2211428445692
12.7739872 ,Left ,67,2076975480337 ,47,6705410992253 ,36,2219321972766
12.7739897 ,Left ,67,2076975480337 ,47,6705410992253 ,36,2219321972766
12.7964426 ,Left ,67,1955017548219 ,47,6544927607344 ,36,2234941577518
12.7964449 ,Left ,67,1955017548219 ,47,6544927607344 ,36,2234941577518
12.8189232 ,Left ,67,1836007372112 ,47,6485298071824 ,36,2239237278372
12.818925 ,Left ,67,1836007372112 ,47,6485298071824 ,36,2239237278372
12.8339426 ,Left ,67,1836007372112 ,47,6485298071824 ,36,2239237278372
12.8339449 ,Left ,67,1836007372112 ,47,6485298071824 ,36,2239237278372
12.8571912 ,Left ,67,1923909981011 ,47,6502650201689 ,36,2243797947415
12.8571992 ,Left ,67,1923909981011 ,47,6502650201689 ,36,2243797947415
12.8794604 ,Left ,67,203291044432 ,47,6377991292669 ,36,2178148255807
12.8794679 ,Left ,67,203291044432 ,47,6377991292669 ,36,2178148255807
12.902229 ,Left ,67,1836350241929 ,47,6068741588751 ,36,2127292878659
12.902237 ,Left ,67,1836350241929 ,47,6068741588751 ,36,2127292878659
12.9170561 ,Left ,67,1749613494571 ,47,5806709310245 ,36,2117129860982
12.9170639 ,Left ,67,1749613494571 ,47,5806709310245 ,36,2117129860982
12.9392335 ,Left ,67,1727092025963 ,47,5800347652079 ,36,212061984931
12.9392388 ,Left ,67,1727092025963 ,47,5800347652079 ,36,212061984931
12.9618428 ,Left ,67,1723655857627 ,47,5861411006089 ,36,2184422330773
12.9618472 ,Left ,67,1723655857627 ,47,5861411006089 ,36,2184422330773
12.9768999 ,Left ,67,1759739746369 ,47,5954555626965 ,36,2229685432672
12.9769043 ,Left ,67,1759739746369 ,47,5954555626965 ,36,2229685432672
12.9993519 ,Left ,67,1695659613754 ,47,6092021511644 ,36,2288477465901
12.9993566 ,Left ,67,1695659613754 ,47,6092021511644 ,36,2288477465901
13.0218113 ,Left ,67,1668012638127 ,47,6322634210011 ,36,2392303688469
13.0218205 ,Left ,67,1668012638127 ,47,6322634210011 ,36,2392303688469
13.0367881 ,Left ,67,1666800212699 ,47,6578270268439 ,36,2526604294242
13.0367925 ,Left ,67,1666800212699 ,47,6578270268439 ,36,2526604294242
13.0591774 ,Left ,67,1681275325039 ,47,6885988465825 ,36,2540636420017
13.0591816 ,Left ,67,1681275325039 ,47,6885988465825 ,36,2540636420017
13.0817904 ,Left ,67,1525127619252 ,47,7001938319139 ,36,2542942770913
13.0817947 ,Left ,67,1525127619252 ,47,7001938319139 ,36,2542942770913
13.0968701 ,Left ,67,1139956051635 ,47,7163410960283 ,36,2504621938191
13.0968747 ,Left ,67,1139956051635 ,47,7163410960283 ,36,2504621938191
13.1192213 ,Left ,67,0785961192723 ,47,7730247497599 ,36,2361814429503
13.1192244 ,Left ,67,0785961192723 ,47,7730247497599 ,36,2361814429503
13.1416132 ,Left ,67,0116545811126 ,47,8360504713287 ,36,2117685184512
13.1416152 ,Left ,67,0116545811126 ,47,8360504713287 ,36,2117685184512
13.1565591 ,Left ,66,9653510273747 ,47,9056365574522 ,36,1815940850789
13.1565615 ,Left ,66,9653510273747 ,47,9056365574522 ,36,1815940850789
13.1788963 ,Left ,66,9293703946745 ,47,8988667022678 ,36,1601337783918
13.1788983 ,Left ,66,9293703946745 ,47,8988667022678 ,36,1601337783918
13.2014534 ,Left ,66,919597576215 ,47,9183427040372 ,36,1311938713815
13.2014563 ,Left ,66,919597576215 ,47,9183427040372 ,36,1311938713815
13.2168552 ,Left ,66,9152601027573 ,47,9753296776571 ,36,1182539214992
13.2168596 ,Left ,66,9152601027573 ,47,9753296776571 ,36,1182539214992
13.2393644 ,Left ,66,971760800666 ,48,0332265400121 ,36,0905906420121
13.2393688 ,Left ,66,971760800666 ,48,0332265400121 ,36,0905906420121
13.2615482 ,Left ,67,0360125764913 ,48,0509713841274 ,36,0554948322187
13.2615523 ,Left ,67,0360125764913 ,48,0509713841274 ,36,0554948322187
13.276633 ,Left ,67,1170752769576 ,47,9963755964866 ,36,0193828637129
13.276635 ,Left ,67,1170752769576 ,47,9963755964866 ,36,0193828637129
13.2989017 ,Left ,67,1732236447606 ,47,8990310608279 ,36,0117375741871
13.2989035 ,Left ,67,1732236447606 ,47,8990310608279 ,36,0117375741871
13.3214902 ,Left ,67,2162632158455 ,47,8552282940662 ,36,0363525601819
13.3214945 ,Left ,67,2162632158455 ,47,8552282940662 ,36,0363525601819
13.3364497 ,Left ,67,2271708758399 ,47,8629208005416 ,36,0939792482419
13.3364524 ,Left ,67,2271708758399 ,47,8629208005416 ,36,0939792482419
13.3590579 ,Left ,67,220187196954 ,47,908546487552 ,36,1418911913748
13.3590615 ,Left ,67,220187196954 ,47,908546487552 ,36,1418911913748
13.3815727 ,Left ,67,1975097293946 ,48,0190579596607 ,36,1712160331316
13.3815762 ,Left ,67,1975097293946 ,48,0190579596607 ,36,1712160331316
13.396659 ,Left ,67,3017328246192 ,48,1297377468483 ,36,1605947702702
13.3966627 ,Left ,67,3017328246192 ,48,1297377468483 ,36,1605947702702
13.4190015 ,Left ,67,3277981588602 ,48,1507142983915 ,36,1698799777922
13.4190051 ,Left ,67,3277981588602 ,48,1507142983915 ,36,1698799777922
13.4415249 ,Left ,67,3767297094568 ,48,1379659250727 ,36,1677753975608
13.4415284 ,Left ,67,3767297094568 ,48,1379659250727 ,36,1677753975608
13.4563302 ,Left ,67,3393635055533 ,48,1419013947286 ,36,1630011158148
13.4563321 ,Left ,67,3393635055533 ,48,1419013947286 ,36,1630011158148
13.4789969 ,Left ,67,3699426368495 ,48,1760290311514 ,36,1542852467501
13.478999 ,Left ,67,3699426368495 ,48,1760290311514 ,36,1542852467501
13.501663 ,Left ,67,4057701275213 ,48,1412268259469 ,36,1353774892106
13.5016656 ,Left ,67,4057701275213 ,48,1412268259469 ,36,1353774892106
13.5165138 ,Left ,67,4086045365712 ,48,0836748259606 ,36,1305448474578
13.5165167 ,Left ,67,4086045365712 ,48,0836748259606 ,36,1305448474578
13.5393115 ,Left ,67,411304094231 ,48,0616115773178 ,36,118272620481
13.539317 ,Left ,67,411304094231 ,48,0616115773178 ,36,118272620481
13.561751 ,Left ,67,408965713683 ,48,0811243037257 ,36,0966762852677
13.5617548 ,Left ,67,408965713683 ,48,0811243037257 ,36,0966762852677
13.5768629 ,Left ,67,4253236287979 ,48,1274653664297 ,36,0682528114537
13.5768667 ,Left ,67,4253236287979 ,48,1274653664297 ,36,0682528114537
13.5993376 ,Left ,67,4246556728185 ,48,1317563613166 ,36,078570476019
13.5993414 ,Left ,67,4246556728185 ,48,1317563613166 ,36,078570476019
13.6215293 ,Left ,67,4372773126176 ,48,1249673873166 ,36,1170491527934
13.6215328 ,Left ,67,4372773126176 ,48,1249673873166 ,36,1170491527934
13.6367666 ,Left ,67,4507852521711 ,48,1571239110196 ,36,1326765784919
13.6367703 ,Left ,67,4507852521711 ,48,1571239110196 ,36,1326765784919
13.6590937 ,Left ,67,4689304632023 ,48,1964872388245 ,36,1314733641697
13.6590974 ,Left ,67,4689304632023 ,48,1964872388245 ,36,1314733641697
13.681701 ,Left ,67,4870468483672 ,48,210036549853 ,36,1314011942241
13.6817048 ,Left ,67,4870468483672 ,48,210036549853 ,36,1314011942241
13.6967734 ,Left ,67,5127145091106 ,48,2080331633685 ,36,1611788993192
13.6967772 ,Left ,67,5127145091106 ,48,2080331633685 ,36,1611788993192
13.7193138 ,Left ,67,4499435015102 ,48,245276034288 ,36,2129266353013
13.7193175 ,Left ,67,4499435015102 ,48,245276034288 ,36,2129266353013
13.7415691 ,Left ,67,4247140574069 ,48,30261370113 ,36,2645755492754
13.7415728 ,Left ,67,4247140574069 ,48,30261370113 ,36,2645755492754
13.7566093 ,Left ,67,37510962476 ,48,3333756896129 ,36,295104793715
13.7566112 ,Left ,67,37510962476 ,48,3333756896129 ,36,295104793715
13.7789168 ,Left ,67,3435793672255 ,48,3766204338986 ,36,3124748630973
13.7789189 ,Left ,67,3435793672255 ,48,3766204338986 ,36,3124748630973
13.8093222 ,Left ,67,2522838954461 ,48,3790986848519 ,36,3090383425218
13.8093259 ,Left ,67,2522838954461 ,48,3790986848519 ,36,3090383425218
13.8241103 ,Left ,67,2153646983308 ,48,3292697329788 ,36,3148747580907
13.8241139 ,Left ,67,2153646983308 ,48,3292697329788 ,36,3148747580907
13.8466699 ,Left ,67,2061357971827 ,48,3198596884872 ,36,3194505908797
13.8466737 ,Left ,67,2061357971827 ,48,3198596884872 ,36,3194505908797
13.8617756 ,Left ,67,1172138193599 ,48,3588370373195 ,36,3080601923331
13.8617796 ,Left ,67,1172138193599 ,48,3588370373195 ,36,3080601923331
13.8838711 ,Left ,67,1166000052421 ,48,4154373783012 ,36,2936827635452
13.8838728 ,Left ,67,1166000052421 ,48,4154373783012 ,36,2936827635452
13.8988696 ,Left ,67,203453421558 ,48,4682689679052 ,36,2810512443352
13.8988891 ,Left ,67,203453421558 ,48,4682689679052 ,36,2810512443352
13.9214167 ,Left ,67,268656921158 ,48,4731604128388 ,36,2779613283795
13.9214186 ,Left ,67,268656921158 ,48,4731604128388 ,36,2779613283795
13.9441379 ,Left ,67,3081199684304 ,48,4267974323792 ,36,2785547489835
13.9441403 ,Left ,67,3081199684304 ,48,4267974323792 ,36,2785547489835
13.9591902 ,Left ,67,3854716269455 ,48,3388766337979 ,36,2778335615297
13.9591928 ,Left ,67,3854716269455 ,48,3388766337979 ,36,2778335615297
13.9815 ,Left ,67,4187225664618 ,48,2605601003344 ,36,2847268476741
13.9815036 ,Left ,67,4187225664618 ,48,2605601003344 ,36,2847268476741
14.0039919 ,Left ,67,4423504593998 ,48,201876879326 ,36,2920899838691
14.0039954 ,Left ,67,4423504593998 ,48,201876879326 ,36,2920899838691
14.019073 ,Left ,67,480153802567 ,48,1653929304274 ,36,291203000283
14.0190799 ,Left ,67,480153802567 ,48,1653929304274 ,36,291203000283
14.0413207 ,Left ,67,511032380282 ,48,1366690408763 ,36,2850429523929
14.0413225 ,Left ,67,511032380282 ,48,1366690408763 ,36,2850429523929
14.0641289 ,Left ,67,5460168445625 ,48,1346802301273 ,36,2794691525933
14.064131 ,Left ,67,5460168445625 ,48,1346802301273 ,36,2794691525933
14.0791614 ,Left ,67,5674041048662 ,48,1523647815118 ,36,278500132015
14.0791636 ,Left ,67,5674041048662 ,48,1523647815118 ,36,278500132015
14.1016083 ,Left ,67,600730438185 ,48,1667374092667 ,36,2689956734714
14.1016114 ,Left ,67,600730438185 ,48,1667374092667 ,36,2689956734714
14.1239022 ,Left ,67,6035568999826 ,48,1797641965886 ,36,2490527735896
14.1239043 ,Left ,67,6035568999826 ,48,1797641965886 ,36,2490527735896
14.1389623 ,Left ,67,5802044870964 ,48,200090340483 ,36,2152532983503
14.1389663 ,Left ,67,5802044870964 ,48,200090340483 ,36,2152532983503
14.1615339 ,Left ,67,5306021498273 ,48,2313019866009 ,36,1698221501003
14.1615366 ,Left ,67,5306021498273 ,48,2313019866009 ,36,1698221501003
14.1842224 ,Left ,67,4965687546115 ,48,2840054189995 ,36,1127342658945
14.1842257 ,Left ,67,4965687546115 ,48,2840054189995 ,36,1127342658945
14.1992568 ,Left ,67,452677785137 ,48,3243489004714 ,36,0584961011661
14.1992601 ,Left ,67,452677785137 ,48,3243489004714 ,36,0584961011661
14.2214657 ,Left ,67,4253103812399 ,48,3401703765535 ,36,0204707487371
14.221469 ,Left ,67,4253103812399 ,48,3401703765535 ,36,0204707487371
14.2440055 ,Left ,67,3841119701169 ,48,3405282969899 ,35,9947269454417
14.2440072 ,Left ,67,3841119701169 ,48,3405282969899 ,35,9947269454417
14.2589751 ,Left ,67,3383427238814 ,48,3537295135229 ,35,9636507372689
14.2589775 ,Left ,67,3383427238814 ,48,3537295135229 ,35,9636507372689
14.2814648 ,Left ,67,2917750160884 ,48,3949372970764 ,35,9228838977179
14.2814675 ,Left ,67,2917750160884 ,48,3949372970764 ,35,9228838977179
14.3042549 ,Left ,67,2441872658585 ,48,4396874329915 ,35,872072722861
14.3042578 ,Left ,67,2441872658585 ,48,4396874329915 ,35,872072722861
14.3192265 ,Left ,67,1770519158948 ,48,3953630261957 ,35,834807180789
14.3192298 ,Left ,67,1770519158948 ,48,3953630261957 ,35,834807180789
14.3415698 ,Left ,67,1627766717305 ,48,3688432060957 ,35,8059554920719
14.341573 ,Left ,67,1627766717305 ,48,3688432060957 ,35,8059554920719
14.3713226 ,Left ,67,101846620776 ,48,4491105187219 ,35,7786834006562
14.3713252 ,Left ,67,101846620776 ,48,4491105187219 ,35,7786834006562
14.3863244 ,Left ,67,0581913777097 ,48,5243150838191 ,35,781884861733
14.3863264 ,Left ,67,0581913777097 ,48,5243150838191 ,35,781884861733
14.4089042 ,Left ,67,0803457978754 ,48,56115047276 ,35,8094578992666
14.4089062 ,Left ,67,0803457978754 ,48,56115047276 ,35,8094578992666
14.423961 ,Left ,67,0831744608071 ,48,5003783291459 ,35,855670191399
14.423963 ,Left ,67,0831744608071 ,48,5003783291459 ,35,855670191399
14.439028 ,Left ,67,0887660961431 ,48,3760902349261 ,35,8991474632337
14.43903 ,Left ,67,0887660961431 ,48,3760902349261 ,35,8991474632337
14.4613931 ,Left ,67,1334267104579 ,48,2083242218236 ,35,9199067353989
14.4613952 ,Left ,67,1334267104579 ,48,2083242218236 ,35,9199067353989
14.4839208 ,Left ,67,1718982895351 ,48,068817602609 ,35,9395685529468
14.4839228 ,Left ,67,1718982895351 ,48,068817602609 ,35,9395685529468
14.4989445 ,Left ,67,2034798965566 ,48,0092679222211 ,35,9562139503056
14.4989465 ,Left ,67,2034798965566 ,48,0092679222211 ,35,9562139503056
14.5213377 ,Left ,67,240844344283 ,47,9692936691882 ,35,970500419352
14.5213395 ,Left ,67,240844344283 ,47,9692936691882 ,35,970500419352
14.5439413 ,Left ,67,2924680840326 ,47,952383149505 ,35,9670384470732
14.5439457 ,Left ,67,2924680840326 ,47,952383149505 ,35,9670384470732
14.5664878 ,Left ,67,2601832635067 ,47,9265318823882 ,35,9694315973485
14.5664897 ,Left ,67,2601832635067 ,47,9265318823882 ,35,9694315973485
14.5816208 ,Left ,67,2831176817947 ,47,9789488708428 ,35,9843183642433
14.5816258 ,Left ,67,2831176817947 ,47,9789488708428 ,35,9843183642433
14.6041836 ,Left ,67,3016545865478 ,48,0859125988418 ,36,0124393308174
14.6041858 ,Left ,67,3016545865478 ,48,0859125988418 ,36,0124393308174
14.6191879 ,Left ,67,3521440735217 ,48,1859447295805 ,36,0378772897666
14.6191903 ,Left ,67,3521440735217 ,48,1859447295805 ,36,0378772897666
14.6416489 ,Left ,67,3523181325447 ,48,2419997886014 ,36,0727372357633
14.6416526 ,Left ,67,3523181325447 ,48,2419997886014 ,36,0727372357633
14.6643503 ,Left ,67,3502350253746 ,48,2623086633813 ,36,1009254855223
14.6643542 ,Left ,67,3502350253746 ,48,2623086633813 ,36,1009254855223
14.6793525 ,Left ,67,304685217619 ,48,2507660630404 ,36,1212308526794
14.6793562 ,Left ,67,304685217619 ,48,2507660630404 ,36,1212308526794
14.7015817 ,Left ,67,2805137522302 ,48,2273540144835 ,36,1246247628807
14.7015855 ,Left ,67,2805137522302 ,48,2273540144835 ,36,1246247628807
14.7241514 ,Left ,67,2446566365138 ,48,2117883560071 ,36,1293292493409
14.7241551 ,Left ,67,2446566365138 ,48,2117883560071 ,36,1293292493409
14.7391635 ,Left ,67,2422526409559 ,48,2053725580691 ,36,1088774086944
14.7391674 ,Left ,67,2422526409559 ,48,2053725580691 ,36,1088774086944
14.7617636 ,Left ,67,2562927446624 ,48,1827970868636 ,36,0927087155302
14.7617701 ,Left ,67,2562927446624 ,48,1827970868636 ,36,0927087155302
14.7844467 ,Left ,67,2782094362044 ,48,1373744366204 ,36,0942760351653
14.7844504 ,Left ,67,2782094362044 ,48,1373744366204 ,36,0942760351653
14.8141405 ,Left ,67,3488348336734 ,48,0150692072171 ,36,1300645578844
14.8141425 ,Left ,67,3488348336734 ,48,0150692072171 ,36,1300645578844
14.8366432 ,Left ,67,3470595539452 ,47,9728622301259 ,36,131431311477
14.8366454 ,Left ,67,3470595539452 ,47,9728622301259 ,36,131431311477
14.8739748 ,Left ,67,334178133097 ,47,8981846237969 ,36,1187451844437
14.8739768 ,Left ,67,334178133097 ,47,8981846237969 ,36,1187451844437
14.8965023 ,Left ,67,3506155890749 ,47,8694456233058 ,36,1124663994994
14.8965049 ,Left ,67,3506155890749 ,47,8694456233058 ,36,1124663994994
14.9347492 ,Left ,67,3442330878219 ,47,8263467862595 ,36,1073967930127
14.9347574 ,Left ,67,3442330878219 ,47,8263467862595 ,36,1073967930127
14.9570741 ,Left ,67,3441683638081 ,47,8111829245584 ,36,1151998481698
14.9570822 ,Left ,67,3441683638081 ,47,8111829245584 ,36,1151998481698
14.9945712 ,Left ,67,3356280636736 ,47,8017649548865 ,36,1393068699494
14.9945788 ,Left ,67,3356280636736 ,47,8017649548865 ,36,1393068699494
15.0170507 ,Left ,67,3304705257027 ,47,7918092216465 ,36,1472019341577
15.0170589 ,Left ,67,3304705257027 ,47,7918092216465 ,36,1472019341577
15.0317252 ,Left ,67,3169970951269 ,47,7772904056354 ,36,1501063941694
15.0317294 ,Left ,67,3169970951269 ,47,7772904056354 ,36,1501063941694
15.0541225 ,Left ,67,3059438251011 ,47,7620117579738 ,36,1542355647396
15.0541258 ,Left ,67,3059438251011 ,47,7620117579738 ,36,1542355647396
15.076808 ,Left ,67,2957172194878 ,47,7411101858098 ,36,1569755919164
15.0768116 ,Left ,67,2957172194878 ,47,7411101858098 ,36,1569755919164
15.091615 ,Left ,67,2951081673577 ,47,7383849438729 ,36,1555304586537
15.0916249 ,Left ,67,2951081673577 ,47,7383849438729 ,36,1555304586537
15.1141916 ,Left ,67,2951081673577 ,47,7383849438729 ,36,1555304586537
15.1141956 ,Left ,67,2951081673577 ,47,7383849438729 ,36,1555304586537
15.1364919 ,Left ,67,2815010846051 ,47,7252698824476 ,36,1568783515367
15.1364951 ,Left ,67,2815010846051 ,47,7252698824476 ,36,1568783515367
15.1517037 ,Left ,67,2850205445796 ,47,7068622068051 ,36,1589742609436
15.1517072 ,Left ,67,2850205445796 ,47,7068622068051 ,36,1589742609436
15.1741162 ,Left ,67,2849577939462 ,47,6917025715127 ,36,1667622257012
15.1741197 ,Left ,67,2849577939462 ,47,6917025715127 ,36,1667622257012
15.196512 ,Left ,67,2744778638898 ,47,6686029255342 ,36,1805623252565
15.1965139 ,Left ,67,2744778638898 ,47,6686029255342 ,36,1805623252565
15.2116076 ,Left ,67,2757555771009 ,47,6482755290994 ,36,1919225730898
15.2116096 ,Left ,67,2757555771009 ,47,6482755290994 ,36,1919225730898
15.2348202 ,Left ,67,2595304422422 ,47,6359532857335 ,36,1997288180831
15.2348281 ,Left ,67,2595304422422 ,47,6359532857335 ,36,1997288180831
15.2571982 ,Left ,67,2558396919899 ,47,6369462923856 ,36,2089737175382
15.2572062 ,Left ,67,2558396919899 ,47,6369462923856 ,36,2089737175382
15.2945688 ,Left ,67,2284076587443 ,47,6640361533132 ,36,2352931345725
15.2945767 ,Left ,67,2284076587443 ,47,6640361533132 ,36,2352931345725
15.3168787 ,Left ,67,2039372039139 ,47,6970903485532 ,36,2445990525565
15.3168843 ,Left ,67,2039372039139 ,47,6970903485532 ,36,2445990525565
15.3543518 ,Left ,67,1030534982031 ,47,8260579636924 ,36,2458855224458
15.3543562 ,Left ,67,1030534982031 ,47,8260579636924 ,36,2458855224458
15.3766892 ,Left ,67,0399377663454 ,47,9006784618371 ,36,2222771646661
15.3766935 ,Left ,67,0399377663454 ,47,9006784618371 ,36,2222771646661
15.4142085 ,Left ,66,9999700302813 ,47,9634598969681 ,36,2127049288086
15.4142126 ,Left ,66,9999700302813 ,47,9634598969681 ,36,2127049288086
15.444028 ,Left ,67,0197810234117 ,47,9862468293565 ,36,2004630714835
15.4440298 ,Left ,67,0197810234117 ,47,9862468293565 ,36,2004630714835
15.489777 ,Left ,67,1225075182649 ,48,0043321629219 ,36,1011891298322
15.4897852 ,Left ,67,1225075182649 ,48,0043321629219 ,36,1011891298322
15.5042511 ,Left ,67,2286310800737 ,47,9697839489152 ,36,0563507812983
15.5042564 ,Left ,67,2286310800737 ,47,9697839489152 ,36,0563507812983
15.5341994 ,Left ,67,3142540742452 ,47,8928837296379 ,36,0335023164376
15.5342024 ,Left ,67,3142540742452 ,47,8928837296379 ,36,0335023164376
15.556553 ,Left ,67,3425158284087 ,47,8656609086968 ,36,0339541253412
15.5565561 ,Left ,67,3425158284087 ,47,8656609086968 ,36,0339541253412
15.5942123 ,Left ,67,421662006572 ,47,8215775905906 ,36,0331780870623
15.5942154 ,Left ,67,421662006572 ,47,8215775905906 ,36,0331780870623
15.6166515 ,Left ,67,4299433988176 ,47,8031278369506 ,36,0359663150082
15.6166535 ,Left ,67,4299433988176 ,47,8031278369506 ,36,0359663150082
15.6542007 ,Left ,67,4128087131371 ,47,867309489823 ,36,0353899243006
15.6542029 ,Left ,67,4128087131371 ,47,867309489823 ,36,0353899243006
15.6764484 ,Left ,67,4021705958369 ,47,9013425834075 ,36,0455538499516
15.6764505 ,Left ,67,4021705958369 ,47,9013425834075 ,36,0455538499516
15.7217909 ,Left ,67,3928304460353 ,47,8971530056273 ,36,0930876961806
15.7217946 ,Left ,67,3928304460353 ,47,8971530056273 ,36,0930876961806
15.7443565 ,Left ,67,3656071230185 ,47,9206676100497 ,36,1023633654545
15.7443602 ,Left ,67,3656071230185 ,47,9206676100497 ,36,1023633654545
15.7741437 ,Left ,67,3097372513659 ,48,017706241087 ,36,1178206454215
15.774149 ,Left ,67,3097372513659 ,48,017706241087 ,36,1178206454215
15.7967906 ,Left ,67,2465885484153 ,48,1187554331601 ,36,1204287934804
15.7967943 ,Left ,67,2465885484153 ,48,1187554331601 ,36,1204287934804
15.8343031 ,Left ,67,2250953144079 ,48,2333341569014 ,36,1564942662034
15.8343068 ,Left ,67,2250953144079 ,48,2333341569014 ,36,1564942662034
15.8565015 ,Left ,67,2287710999997 ,48,2430053024915 ,36,1908242657713
15.8565051 ,Left ,67,2287710999997 ,48,2430053024915 ,36,1908242657713
15.894121 ,Left ,67,2257777820976 ,48,2422899423597 ,36,2160011160339
15.8941246 ,Left ,67,2257777820976 ,48,2422899423597 ,36,2160011160339
15.9167796 ,Left ,67,2628689499541 ,48,2076515286151 ,36,1996129408973
15.9167833 ,Left ,67,2628689499541 ,48,2076515286151 ,36,1996129408973
15.9542093 ,Left ,67,2866598883643 ,48,1548221437792 ,36,1836830377346
15.9542157 ,Left ,67,2866598883643 ,48,1548221437792 ,36,1836830377346
15.9767665 ,Left ,67,2808038865803 ,48,1646246509013 ,36,1719712182689
15.9767737 ,Left ,67,2808038865803 ,48,1646246509013 ,36,1719712182689
16.014174 ,Left ,67,2371122414244 ,48,1649185457829 ,36,1472299089375
16.0141777 ,Left ,67,2371122414244 ,48,1649185457829 ,36,1472299089375
16.0367559 ,Left ,67,2337784428088 ,48,1327749704625 ,36,2048090062569
16.0367596 ,Left ,67,2337784428088 ,48,1327749704625 ,36,2048090062569
16.0741617 ,Left ,67,2928955456756 ,48,2477230587054 ,36,2737236175649
16.0741676 ,Left ,67,2928955456756 ,48,2477230587054 ,36,2737236175649
16.0966072 ,Left ,67,3235604712189 ,48,2654163726782 ,36,2968265842719
16.0966107 ,Left ,67,3235604712189 ,48,2654163726782 ,36,2968265842719
16.1343669 ,Left ,67,311193729237 ,48,2323158083865 ,36,3911710259924
16.1343706 ,Left ,67,311193729237 ,48,2323158083865 ,36,3911710259924
16.1566961 ,Left ,67,2720359551086 ,48,2743782808252 ,36,4496269945094
16.1567002 ,Left ,67,2720359551086 ,48,2743782808252 ,36,4496269945094
16.1943481 ,Left ,67,2911579071215 ,48,3630075254254 ,36,50320017476
16.1943518 ,Left ,67,2911579071215 ,48,3630075254254 ,36,50320017476
16.2167942 ,Left ,67,2616802254308 ,48,3766656103911 ,36,5136717584169
16.2167979 ,Left ,67,2616802254308 ,48,3766656103911 ,36,5136717584169
16.2622805 ,Left ,67,211242618598 ,48,306487722639 ,36,5454136984935
16.2622884 ,Left ,67,211242618598 ,48,306487722639 ,36,5454136984935
16.2845426 ,Left ,67,168829684216 ,48,2812283765852 ,36,5237904818568
16.2845485 ,Left ,67,168829684216 ,48,2812283765852 ,36,5237904818568
16.3141557 ,Left ,67,0437739049046 ,48,4020820521061 ,36,4583603616228
16.3141598 ,Left ,67,0437739049046 ,48,4020820521061 ,36,4583603616228
16.3368875 ,Left ,67,0896408020832 ,48,5049684511059 ,36,4452487885905
16.3368917 ,Left ,67,0896408020832 ,48,5049684511059 ,36,4452487885905
16.3741687 ,Left ,67,2131076041018 ,48,5676389689491 ,36,4424038321162
16.374173 ,Left ,67,2131076041018 ,48,5676389689491 ,36,4424038321162
16.3968317 ,Left ,67,2663027085072 ,48,5371528751233 ,36,4290815768395
16.3968361 ,Left ,67,2663027085072 ,48,5371528751233 ,36,4290815768395
16.4341696 ,Left ,67,3787833130405 ,48,3956420378519 ,36,4041909443906
16.434178 ,Left ,67,3787833130405 ,48,3956420378519 ,36,4041909443906
16.4567804 ,Left ,67,4185810054358 ,48,3236778166299 ,36,4032190326839
16.4567883 ,Left ,67,4185810054358 ,48,3236778166299 ,36,4032190326839
16.4943737 ,Left ,67,5301662311053 ,48,1988031114061 ,36,4117226826011
16.4943781 ,Left ,67,5301662311053 ,48,1988031114061 ,36,4117226826011
16.5168297 ,Left ,67,5971416246279 ,48,1663254603417 ,36,4208568407782
16.516834 ,Left ,67,5971416246279 ,48,1663254603417 ,36,4208568407782
16.5543489 ,Left ,67,7488011830896 ,48,1101427392939 ,36,4258656067802
16.5543532 ,Left ,67,7488011830896 ,48,1101427392939 ,36,4258656067802
16.5771414 ,Left ,67,792313803722 ,48,0630843286869 ,36,4231428084459
16.5771491 ,Left ,67,792313803722 ,48,0630843286869 ,36,4231428084459
16.6145416 ,Left ,67,7912454383738 ,48,0459434445848 ,36,37782436963
16.6145478 ,Left ,67,7912454383738 ,48,0459434445848 ,36,37782436963
16.6517249 ,Left ,67,7325145457834 ,48,1270524627558 ,36,2884820860484
16.6517284 ,Left ,67,7325145457834 ,48,1270524627558 ,36,2884820860484
16.6665296 ,Left ,67,6855788630304 ,48,1914964954646 ,36,2462117637089
16.6665329 ,Left ,67,6855788630304 ,48,1914964954646 ,36,2462117637089
16.6892928 ,Left ,67,6241277807375 ,48,2483153919873 ,36,2061951384802
16.6892964 ,Left ,67,6241277807375 ,48,2483153919873 ,36,2061951384802
16.7118088 ,Left ,67,571886647019 ,48,2969623500269 ,36,1725814241618
16.7118125 ,Left ,67,571886647019 ,48,2969623500269 ,36,1725814241618
16.7265788 ,Left ,67,5333062211468 ,48,3447922783808 ,36,1362126457181
16.7265822 ,Left ,67,5333062211468 ,48,3447922783808 ,36,1362126457181
16.7490971 ,Left ,67,4830621756443 ,48,3648788677257 ,36,1084701406511
16.7491012 ,Left ,67,4830621756443 ,48,3648788677257 ,36,1084701406511
16.771784 ,Left ,67,4336289996465 ,48,3626999641285 ,36,0887862874581
16.7717881 ,Left ,67,4336289996465 ,48,3626999641285 ,36,0887862874581
16.7865163 ,Left ,67,3794773984087 ,48,326470044719 ,36,0742516355689
16.7865202 ,Left ,67,3794773984087 ,48,326470044719 ,36,0742516355689
16.8089723 ,Left ,67,2997521293332 ,48,3216622815527 ,36,0531347919321
16.8089742 ,Left ,67,2997521293332 ,48,3216622815527 ,36,0531347919321
16.8391617 ,Left ,67,2362298364473 ,48,3729163936196 ,36,0266387572346
16.8391639 ,Left ,67,2362298364473 ,48,3729163936196 ,36,0266387572346
16.8538958 ,Left ,67,1761414315249 ,48,4245439563487 ,35,996531257251
16.8538976 ,Left ,67,1761414315249 ,48,4245439563487 ,35,996531257251
16.8914632 ,Left ,67,1557431372713 ,48,5308212707936 ,35,9817608544845
16.8914659 ,Left ,67,1557431372713 ,48,5308212707936 ,35,9817608544845
16.9066939 ,Left ,67,1424119930886 ,48,5530966694393 ,36,0120478377586
16.9066982 ,Left ,67,1424119930886 ,48,5530966694393 ,36,0120478377586
16.9289814 ,Left ,67,1467855786969 ,48,5086998431961 ,36,0353842620227
16.9289835 ,Left ,67,1467855786969 ,48,5086998431961 ,36,0353842620227
16.9514902 ,Left ,67,1494799478997 ,48,4129532642123 ,36,0351780991627
16.9514921 ,Left ,67,1494799478997 ,48,4129532642123 ,36,0351780991627
16.9664577 ,Left ,67,1839679793969 ,48,2710661928147 ,36,0305341089196
16.9664597 ,Left ,67,1839679793969 ,48,2710661928147 ,36,0305341089196
16.9890532 ,Left ,67,2100489893477 ,48,1066605087289 ,36,026546178923
16.9890559 ,Left ,67,2100489893477 ,48,1066605087289 ,36,026546178923
17.0116773 ,Left ,67,2560241268535 ,47,9949699678164 ,36,0331107842539
17.0116807 ,Left ,67,2560241268535 ,47,9949699678164 ,36,0331107842539
17.0266089 ,Left ,67,2933231277216 ,47,9526000454199 ,36,0507873693948
17.0266121 ,Left ,67,2933231277216 ,47,9526000454199 ,36,0507873693948
17.0492833 ,Left ,67,2891841318052 ,47,9026722509243 ,36,085201720244
17.0492871 ,Left ,67,2891841318052 ,47,9026722509243 ,36,085201720244
17.0715781 ,Left ,67,3315176878769 ,47,8782015368375 ,36,1195197456219
17.0715816 ,Left ,67,3315176878769 ,47,8782015368375 ,36,1195197456219
17.0868012 ,Left ,67,2979173724608 ,47,8967443751941 ,36,1548839199919
17.086805 ,Left ,67,2979173724608 ,47,8967443751941 ,36,1548839199919
17.1091156 ,Left ,67,2763636796654 ,47,9847002729716 ,36,1627742104674
17.1091195 ,Left ,67,2763636796654 ,47,9847002729716 ,36,1627742104674
17.1315659 ,Left ,67,2880704955626 ,48,0835852425871 ,36,1808768437385
17.1315695 ,Left ,67,2880704955626 ,48,0835852425871 ,36,1808768437385
17.1466508 ,Left ,67,3239042587653 ,48,1886758832796 ,36,1849143590175
17.1466549 ,Left ,67,3239042587653 ,48,1886758832796 ,36,1849143590175
17.1693264 ,Left ,67,2976652814324 ,48,2482226946738 ,36,1984938932083
17.1693301 ,Left ,67,2976652814324 ,48,2482226946738 ,36,1984938932083
17.1916429 ,Left ,67,2843426424073 ,48,2689916115644 ,36,2231373270274
17.191652 ,Left ,67,2843426424073 ,48,2689916115644 ,36,2231373270274
17.2064808 ,Left ,67,2564281798888 ,48,248121646183 ,36,2415789924073
17.2064829 ,Left ,67,2564281798888 ,48,248121646183 ,36,2415789924073
17.2290562 ,Left ,67,2913890429994 ,48,2304536495464 ,36,2364131231042
17.2290588 ,Left ,67,2913890429994 ,48,2304536495464 ,36,2364131231042
17.2515749 ,Left ,67,2752465348963 ,48,1824964266764 ,36,229245813706
17.2515778 ,Left ,67,2752465348963 ,48,1824964266764 ,36,229245813706
17.2665489 ,Left ,67,2891337006489 ,48,1493694234147 ,36,2213698423714
17.266552 ,Left ,67,2891337006489 ,48,1493694234147 ,36,2213698423714
17.2891197 ,Left ,67,3232488105247 ,48,163601982536 ,36,2090283463355
17.2891226 ,Left ,67,3232488105247 ,48,163601982536 ,36,2090283463355
17.3116884 ,Left ,67,3564702070565 ,48,1519267637425 ,36,1709521199501
17.3116914 ,Left ,67,3564702070565 ,48,1519267637425 ,36,1709521199501
17.3267291 ,Left ,67,3832937183452 ,48,1144287950173 ,36,1459708970393
17.3267362 ,Left ,67,3832937183452 ,48,1144287950173 ,36,1459708970393
17.3491313 ,Left ,67,4037372521062 ,48,0603871787679 ,36,1497083358242
17.3491333 ,Left ,67,4037372521062 ,48,0603871787679 ,36,1497083358242
17.3714973 ,Left ,67,4442688090923 ,48,020983754394 ,36,1458627243059
17.3715015 ,Left ,67,4442688090923 ,48,020983754394 ,36,1458627243059
17.3866745 ,Left ,67,4397950020962 ,47,9974809641867 ,36,1350790521757
17.3866768 ,Left ,67,4397950020962 ,47,9974809641867 ,36,1350790521757
17.4089425 ,Left ,67,4261874843582 ,47,9750358340023 ,36,1206516322175
17.4089447 ,Left ,67,4261874843582 ,47,9750358340023 ,36,1206516322175
17.4313514 ,Left ,67,4319452903837 ,47,9609361397824 ,36,1098220649873
17.4313532 ,Left ,67,4319452903837 ,47,9609361397824 ,36,1098220649873
17.4465435 ,Left ,67,4622113820676 ,47,9592038290315 ,36,103348081838
17.4465454 ,Left ,67,4622113820676 ,47,9592038290315 ,36,103348081838
17.4689322 ,Left ,67,4488324915758 ,47,9432645657245 ,36,1077832227966
17.4689341 ,Left ,67,4488324915758 ,47,9432645657245 ,36,1077832227966
17.4916032 ,Left ,67,4383932125456 ,47,9223946063587 ,36,1180076948041
17.4916054 ,Left ,67,4383932125456 ,47,9223946063587 ,36,1180076948041
17.5065257 ,Left ,67,4098697354028 ,47,9124678683748 ,36,1363437236036
17.5065282 ,Left ,67,4098697354028 ,47,9124678683748 ,36,1363437236036
17.5295192 ,Left ,67,3910087452094 ,47,9161426193707 ,36,1500724997437
17.5295266 ,Left ,67,3910087452094 ,47,9161426193707 ,36,1500724997437
17.5520276 ,Left ,67,3888644009872 ,47,9094909318228 ,36,1515542298827
17.5520351 ,Left ,67,3888644009872 ,47,9094909318228 ,36,1515542298827
17.5668969 ,Left ,67,3777235950836 ,47,8896115396037 ,36,1552427004192
17.5669013 ,Left ,67,3777235950836 ,47,8896115396037 ,36,1552427004192
17.5893257 ,Left ,67,3781921471485 ,47,8669280376226 ,36,150724435314
17.58933 ,Left ,67,3781921471485 ,47,8669280376226 ,36,150724435314
17.6116784 ,Left ,67,3707141458142 ,47,8460893919427 ,36,1451826259742
17.6116826 ,Left ,67,3707141458142 ,47,8460893919427 ,36,1451826259742
17.6268854 ,Left ,67,3710930739105 ,47,8294109183478 ,36,1395084345805
17.6268897 ,Left ,67,3710930739105 ,47,8294109183478 ,36,1395084345805
17.6492371 ,Left ,67,3735254058563 ,47,8171079368078 ,36,1358927809381
17.6492415 ,Left ,67,3735254058563 ,47,8171079368078 ,36,1358927809381
17.6714094 ,Left ,67,384273695228 ,47,8061132151349 ,36,1277463390446
17.671411 ,Left ,67,384273695228 ,47,8061132151349 ,36,1277463390446
17.6940969 ,Left ,67,3897370865227 ,47,7911621976379 ,36,1263454548745
17.6940988 ,Left ,67,3897370865227 ,47,7911621976379 ,36,1263454548745
17.7089857 ,Left ,67,3914137374621 ,47,7729385296899 ,36,1192505290598
17.7089876 ,Left ,67,3914137374621 ,47,7729385296899 ,36,1192505290598
17.7313987 ,Left ,67,3911672474594 ,47,7720662662816 ,36,1212275283654
17.7314007 ,Left ,67,3911672474594 ,47,7720662662816 ,36,1212275283654
17.7540971 ,Left ,67,3901538429896 ,47,7698787523412 ,36,1201906031205
17.7540992 ,Left ,67,3901538429896 ,47,7698787523412 ,36,1201906031205
17.769 ,Left ,67,3880484924576 ,47,7678291544866 ,36,1220995865027
17.7690021 ,Left ,67,3880484924576 ,47,7678291544866 ,36,1220995865027
17.7914053 ,Left ,67,3851898322757 ,47,7690698153057 ,36,1214359857141
17.7914078 ,Left ,67,3851898322757 ,47,7690698153057 ,36,1214359857141
17.8144539 ,Left ,67,3851898322757 ,47,7690698153057 ,36,1214359857141
17.814459 ,Left ,67,3851898322757 ,47,7690698153057 ,36,1214359857141
17.8295868 ,Left ,67,3751669614343 ,47,7767743012007 ,36,1321832940027
17.8295933 ,Left ,67,3751669614343 ,47,7767743012007 ,36,1321832940027
17.8519385 ,Left ,67,3557180721672 ,47,791609750906 ,36,1457146111746
17.8519461 ,Left ,67,3557180721672 ,47,791609750906 ,36,1457146111746
17.8746277 ,Left ,67,3293628853805 ,47,8104933930547 ,36,1592332383381
17.8746342 ,Left ,67,3293628853805 ,47,8104933930547 ,36,1592332383381
17.8896907 ,Left ,67,2848164003341 ,47,8301853170358 ,36,1745277121741
17.8896972 ,Left ,67,2848164003341 ,47,8301853170358 ,36,1745277121741
17.9189665 ,Left ,67,2387570177383 ,47,8777363705269 ,36,1828624444575
17.9189683 ,Left ,67,2387570177383 ,47,8777363705269 ,36,1828624444575
17.9415616 ,Left ,67,1782838031132 ,47,9789792345622 ,36,1774913083496
17.9415636 ,Left ,67,1782838031132 ,47,9789792345622 ,36,1774913083496
17.956559 ,Left ,67,0976633368422 ,48,1027449058133 ,36,1330274725176
17.956561 ,Left ,67,0976633368422 ,48,1027449058133 ,36,1330274725176
17.9715526 ,Left ,67,0214391696494 ,48,1411895753253 ,36,1055515134086
17.9715545 ,Left ,67,0214391696494 ,48,1411895753253 ,36,1055515134086
17.993995 ,Left ,67,0128755017907 ,48,1333012866539 ,36,0986651666404
17.9939975 ,Left ,67,0128755017907 ,48,1333012866539 ,36,0986651666404
18.0091428 ,Left ,66,9958163456547 ,48,1714787320883 ,36,0857692892633
18.009145 ,Left ,66,9958163456547 ,48,1714787320883 ,36,0857692892633
18.0317537 ,Left ,67,031751380926 ,48,2287285626464 ,36,0399939151349
18.031757 ,Left ,67,031751380926 ,48,2287285626464 ,36,0399939151349
18.0541328 ,Left ,67,0918296036046 ,48,251733817296 ,35,9800629491418
18.0541391 ,Left ,67,0918296036046 ,48,251733817296 ,35,9800629491418
18.0690532 ,Left ,67,1986190739092 ,48,2125845375518 ,35,9180309199351
18.0690564 ,Left ,67,1986190739092 ,48,2125845375518 ,35,9180309199351
18.0915768 ,Left ,67,2321029990919 ,48,1424732831577 ,35,9153587232034
18.0915787 ,Left ,67,2321029990919 ,48,1424732831577 ,35,9153587232034
18.1139633 ,Left ,67,2637522260828 ,48,1189273876281 ,35,9370138543837
18.1139651 ,Left ,67,2637522260828 ,48,1189273876281 ,35,9370138543837
18.1290733 ,Left ,67,2572756737769 ,48,1338393019475 ,35,9707247955787
18.1290759 ,Left ,67,2572756737769 ,48,1338393019475 ,35,9707247955787
18.1517513 ,Left ,67,2898414565348 ,48,167590429691 ,35,9781860692348
18.1517546 ,Left ,67,2898414565348 ,48,167590429691 ,35,9781860692348
18.1740756 ,Left ,67,2784364411348 ,48,240476948975 ,35,9926119799599
18.1740789 ,Left ,67,2784364411348 ,48,240476948975 ,35,9926119799599
18.1891086 ,Left ,67,3454164796722 ,48,2954380571603 ,36,0290993532693
18.1891119 ,Left ,67,3454164796722 ,48,2954380571603 ,36,0290993532693
18.2117412 ,Left ,67,3670485709449 ,48,3080624653908 ,36,0718353706771
18.2117445 ,Left ,67,3670485709449 ,48,3080624653908 ,36,0718353706771
18.2338851 ,Left ,67,4124699276909 ,48,2822430414275 ,36,1000745772986
18.2338869 ,Left ,67,4124699276909 ,48,2822430414275 ,36,1000745772986
18.2489222 ,Left ,67,405712995329 ,48,2554684146369 ,36,1152873147888
18.2489239 ,Left ,67,405712995329 ,48,2554684146369 ,36,1152873147888
18.2715099 ,Left ,67,4223445104159 ,48,2249441083661 ,36,1178944114166
18.27152 ,Left ,67,4223445104159 ,48,2249441083661 ,36,1178944114166
18.2942431 ,Left ,67,4070391439088 ,48,1831002528874 ,36,1438215216906
18.294246 ,Left ,67,4070391439088 ,48,1831002528874 ,36,1438215216906
18.3092217 ,Left ,67,4243360762352 ,48,1858226302539 ,36,16940187758
18.3092249 ,Left ,67,4243360762352 ,48,1858226302539 ,36,16940187758
18.3316187 ,Left ,67,3880658948836 ,48,1859629907609 ,36,1668159629948
18.331622 ,Left ,67,3880658948836 ,48,1859629907609 ,36,1668159629948
18.3541177 ,Left ,67,4080905851325 ,48,1958900346473 ,36,1440602295983
18.354121 ,Left ,67,4080905851325 ,48,1958900346473 ,36,1440602295983
18.3692588 ,Left ,67,4287539319 ,48,1897134044834 ,36,1357371674025
18.3692621 ,Left ,67,4287539319 ,48,1897134044834 ,36,1357371674025
18.3915203 ,Left ,67,4357179535301 ,48,1595871566146 ,36,1739007467893
18.3915237 ,Left ,67,4357179535301 ,48,1595871566146 ,36,1739007467893
18.4142079 ,Left ,67,4581414377941 ,48,1699374619666 ,36,1951110304913
