timestamp,event,roll,pitch,yaw
0.052987 ,Left ,61,5864434511859 ,45,5185584609592 ,74,6198407338243
0.0706737 ,Left ,61,5072083109378 ,45,4847544784835 ,74,6077110234452
0.0935656 ,Left ,61,4763660544795 ,45,444960370772 ,74,5626406511042
0.1135692 ,Left ,61,6083950700078 ,45,3687346356561 ,74,5032928015243
0.1311472 ,Left ,61,8296020814746 ,45,3142476625476 ,74,4430238203352
0.1534579 ,Left ,61,9381774001469 ,45,2976341008921 ,74,3936682735247
0.1729532 ,Left ,61,8814218054376 ,45,2887816668238 ,74,3992602778753
0.1953897 ,Left ,61,826707766642 ,45,301638667567 ,74,4297163953603
0.2132203 ,Left ,61,8848273874846 ,45,3663440744294 ,74,4763305258876
0.232911 ,Left ,61,9908247516625 ,45,4664706279078 ,74,5141971171179
0.2506384 ,Left ,62,0366584862271 ,45,5879378979405 ,74,5499252597492
0.27318 ,Left ,61,9830041399943 ,45,7460452579749 ,74,60141688382
0.2926872 ,Left ,61,9096330710607 ,45,9059077033914 ,74,6266052022759
0.3108809 ,Left ,61,8622060544142 ,46,0283398520147 ,74,5926083295466
0.3333607 ,Left ,61,8192291579113 ,46,1106176340429 ,74,5368496997884
0.3530357 ,Left ,61,7374198126621 ,46,186585732607 ,74,5056521111434
0.37086 ,Left ,61,6477500468008 ,46,2469014689131 ,74,4898753461024
0.3933124 ,Left ,61,6282545511829 ,46,250966952583 ,74,4582729372608
0.4130258 ,Left ,61,6096568082404 ,46,2203891448762 ,74,4419340238062
0.4308068 ,Left ,61,518201185803 ,46,1940557970225 ,74,4564940777982
0.4533301 ,Left ,61,4530139634052 ,46,1644511197679 ,74,46844641224
0.4728592 ,Left ,61,4385676222561 ,46,1319679571166 ,74,4862612965468
0.490579 ,Left ,61,4357269486471 ,46,1080594669507 ,74,4944483053896
0.5132748 ,Left ,61,4392775954511 ,46,0876267394611 ,74,48979745181
0.5329228 ,Left ,61,4160830300334 ,46,0770587531064 ,74,4752596541672
0.550942 ,Left ,61,3906121151852 ,46,0737484286686 ,74,4588182527183
0.57347 ,Left ,61,4021976851786 ,46,0642889835027 ,74,4317790243309
0.5934439 ,Left ,61,4230680991253 ,46,0529967404195 ,74,4005598785215
0.610332 ,Left ,61,4418821221762 ,46,0404709412854 ,74,365390101997
0.6327051 ,Left ,61,4612065873421 ,46,025355906913 ,74,3174991164486
0.6538497 ,Left ,61,4595104705372 ,46,0139533367641 ,74,2685870203757
0.6698555 ,Left ,61,4480086207988 ,46,008922314226 ,74,2279904184858
0.6924952 ,Left ,61,4244908956367 ,46,0316290751082 ,74,1921310133258
0.7134247 ,Left ,61,4160523116332 ,46,035314194354 ,74,1428221362858
0.729793 ,Left ,61,3763702291796 ,46,0255985780529 ,74,1156120031218
0.7524325 ,Left ,61,3040983510822 ,46,0122977539758 ,74,1039225523584
0.7739036 ,Left ,61,2494756880512 ,45,9708078196277 ,74,0895069505986
0.7896527 ,Left ,61,1498044452245 ,45,8836759924764 ,74,077487739413
0.8127961 ,Left ,61,0762455969064 ,45,7851948401255 ,74,0393906296689
0.8337582 ,Left ,61,0153559669259 ,45,7707794132077 ,73,9716975150186
0.8494941 ,Left ,60,96361400714 ,45,8928359873186 ,73,8834829367242
0.873065 ,Left ,61,0589280183925 ,45,9812548009314 ,73,769008637472
0.8932857 ,Left ,61,2248605256328 ,45,9651164692468 ,73,7003898910714
0.9093229 ,Left ,61,2348813654991 ,45,9394703004852 ,73,6365963698318
0.932543 ,Left ,61,0570376567326 ,45,9499773877026 ,73,5890822075863
0.9550247 ,Left ,60,9614044739677 ,45,9542471259769 ,73,493669515886
0.9760396 ,Left ,61,0262967376817 ,45,8914383576191 ,73,3708993614102
0.9929726 ,Left ,60,9857681915988 ,45,7974927377855 ,73,3097222480469
1.0156369 ,Left ,60,843248024535 ,45,7008320833569 ,73,3048856586603
1.029667 ,Left ,60,6212015997499 ,45,6488613824266 ,73,3328643909763
1.0526741 ,Left ,60,6813737634129 ,45,7056794658568 ,73,3222753151862
1.0751424 ,Left ,60,8920755761274 ,45,8683540073621 ,73,3000878661176
1.0895453 ,Left ,61,0768494506306 ,45,9610780393649 ,73,2588357834726
1.1127042 ,Left ,61,1278503123055 ,45,9889454895326 ,73,2445465413147
1.1351721 ,Left ,61,0194436032649 ,46,0430531316427 ,73,2507726482376
1.1494558 ,Left ,60,9965750598688 ,46,0841872481091 ,73,2305157338076
1.1726606 ,Left ,61,0545012223946 ,46,0673240310694 ,73,188670905302
1.1951237 ,Left ,60,9953920438971 ,45,976906720447 ,73,220046281983
1.2095452 ,Left ,60,82044312724 ,45,9273134602194 ,73,2773282074162
1.2326577 ,Left ,60,9407387576528 ,46,0115300460389 ,73,2294678936017
1.2551629 ,Left ,61,1708640054863 ,46,1334416770492 ,73,160826098981
1.2763787 ,Left ,61,2424906756256 ,46,1771110671465 ,73,1123993636603
1.2926924 ,Left ,61,1874612509013 ,46,1893451178339 ,73,1300207755842
1.3150746 ,Left ,61,0448255912807 ,46,2574480160499 ,73,1730047311998
1.336416 ,Left ,61,0993396025268 ,46,3405591832757 ,73,1404505963992
1.3526604 ,Left ,61,146800882827 ,46,3433908631656 ,73,1196255262462
1.3752975 ,Left ,60,9529519650277 ,46,3431673970986 ,73,1474386895773
1.396428 ,Left ,60,6597368261984 ,46,3182831679387 ,73,2015271441795
1.4127141 ,Left ,60,7209444551882 ,46,1973534607357 ,73,1918978107413
1.4353528 ,Left ,60,7871892615106 ,46,238288335953 ,73,1406147109214
1.456427 ,Left ,60,8345646157993 ,46,3074699877581 ,73,1595120142229
1.4726697 ,Left ,60,9404811625544 ,46,3230922734523 ,73,1712321742484
1.4951744 ,Left ,61,0724212550002 ,46,2929247141525 ,73,1825753189828
1.5166015 ,Left ,61,1222573157652 ,46,275176287635 ,73,2175414420399
1.5325551 ,Left ,61,1275079536984 ,46,2721950834018 ,73,2672712522502
1.5550477 ,Left ,61,1743463920152 ,46,2661659509119 ,73,2933570303883
1.5765377 ,Left ,61,2521590897866 ,46,24978929651 ,73,3032043368526
1.5926297 ,Left ,61,2982525455247 ,46,2132939945031 ,73,3004459401264
1.6151377 ,Left ,61,3020595914551 ,46,1915645279797 ,73,2865997011319
1.6363046 ,Left ,61,2910693309397 ,46,1667719939684 ,73,256952881386
1.6526613 ,Left ,61,2701791956274 ,46,1531283532441 ,73,2165802867882
1.6752862 ,Left ,61,2522748382164 ,46,1568300032147 ,73,1729385947165
1.6964621 ,Left ,61,2353060260938 ,46,1719056575838 ,73,1268498673104
1.712896 ,Left ,61,2101156393487 ,46,2098392356833 ,73,0853650898841
1.7351176 ,Left ,61,1575412106958 ,46,271818872903 ,73,0591013810297
1.7563965 ,Left ,61,0788696404086 ,46,3429797337473 ,73,0212215498572
1.7726468 ,Left ,61,0265105295748 ,46,3963807776802 ,72,9756627077417
1.7953207 ,Left ,60,953725139615 ,46,4304538584142 ,72,9379541557264
1.8161988 ,Left ,60,8726374495634 ,46,4734575435957 ,72,8925534301582
1.8319229 ,Left ,60,7493942707034 ,46,5379251841829 ,72,8672109586665
1.8552032 ,Left ,60,7135368672103 ,46,5787498467182 ,72,8393982794199
1.8763683 ,Left ,60,7186865085993 ,46,5898199395963 ,72,8036275788982
1.8920048 ,Left ,60,6534695959753 ,46,6146729464492 ,72,7544635855935
1.9150843 ,Left ,60,5102883217077 ,46,6647212258558 ,72,7135588123199
1.9376715 ,Left ,60,3809871409417 ,46,7222079539218 ,72,6636870865333
1.9590159 ,Left ,60,3027939331616 ,46,7727406916078 ,72,6026373881258
1.9751589 ,Left ,60,2074607180824 ,46,8642848160308 ,72,5601947709308
1.9976496 ,Left ,60,0023547393303 ,46,9533481275532 ,72,5771344659621
2.0190701 ,Left ,60,0022722359498 ,46,9262629495451 ,72,6538833061457
2.0353123 ,Left ,60,1391356147187 ,46,8417030096609 ,72,7258331006999
2.0576776 ,Left ,60,1459428625199 ,46,9314708668338 ,72,7245724645331
2.0782459 ,Left ,60,2953185879056 ,46,8804907923548 ,72,7240461065086
2.0949766 ,Left ,60,4541468146823 ,46,7670664013054 ,72,6559260077833
2.1179839 ,Left ,60,480744595614 ,46,6665834468427 ,72,6125485904182
2.1390924 ,Left ,60,3116233746076 ,46,6690111383484 ,72,6564324091232
2.1554137 ,Left ,60,234246459791 ,46,7624007499213 ,72,6120872525083
2.177585 ,Left ,60,4113264260282 ,46,7072001732016 ,72,5395015948607
2.1987067 ,Left ,60,2680002885304 ,46,5992061294973 ,72,5914286339437
2.2177402 ,Left ,60,1534036949312 ,46,4437364530646 ,72,6418208086835
2.2327477 ,Left ,60,3524566447332 ,46,3409207612155 ,72,6243673223866
2.2515165 ,Left ,60,684045877992 ,46,3531257216459 ,72,5620372806996
2.2738167 ,Left ,60,7723247162535 ,46,2460808297325 ,72,5652282355289
2.2902981 ,Left ,60,848693201712 ,46,0961384131587 ,72,6346483390433
2.3115317 ,Left ,60,9884021055727 ,46,3214601615373 ,72,7299590085888
2.333825 ,Left ,61,0206149661224 ,46,172516493159 ,72,8857424215232
2.3500499 ,Left ,61,1851586086508 ,46,3592575163348 ,73,0196377304213
2.3716123 ,Left ,61,1788882730483 ,46,237988287312 ,73,1877856282881
2.3940605 ,Left ,61,4129484360531 ,46,308129649572 ,73,2795923886773
2.410157 ,Left ,61,5497096461791 ,46,3429581786115 ,73,3446733247315
2.4314213 ,Left ,61,5448196318552 ,46,2850522600073 ,73,3828204286401
2.4540538 ,Left ,61,5512666634187 ,46,2583127766199 ,73,4236755282902
2.4701603 ,Left ,61,5584477882222 ,46,2351282430765 ,73,4423073776057
2.4915287 ,Left ,61,5522962663266 ,46,2233081439905 ,73,4493483327572
2.5070495 ,Left ,61,5682620239061 ,46,2142147284696 ,73,4386875568386
2.5301438 ,Left ,61,5935948403885 ,46,2117591244704 ,73,4056710826278
2.5514739 ,Left ,61,6172977400502 ,46,3803859078038 ,73,3891388064335
2.566707 ,Left ,61,6712818556033 ,46,5668004055634 ,73,3720728435239
2.5898343 ,Left ,61,6994743934779 ,46,521601096075 ,73,3656848901567
2.6110522 ,Left ,61,7018054206845 ,46,5481029706732 ,73,3741567622915
2.6268969 ,Left ,61,720392168592 ,46,5704561883922 ,73,3912198938366
2.6501167 ,Left ,61,7351797269782 ,46,5682565012839 ,73,4002215111884
2.6711229 ,Left ,61,722366204016 ,46,570042864482 ,73,4238433884413
2.6869299 ,Left ,61,7039859171163 ,46,5711745531105 ,73,440121538295
2.7099845 ,Left ,61,7110861835263 ,46,5669415856092 ,73,4496195849311
2.7309724 ,Left ,61,7136492251718 ,46,5714838434738 ,73,4662015187209
2.7468089 ,Left ,61,7136492251718 ,46,5714838434738 ,73,4662015187209
2.7701983 ,Left ,61,7015311472782 ,46,565832046296 ,73,4732140278734
2.7913913 ,Left ,61,6835492108818 ,46,5539375441473 ,73,4799521985652
2.8152247 ,Left ,61,6769784611876 ,46,5460189327972 ,73,4935411673583
2.8301188 ,Left ,61,6863503776099 ,46,5332740640474 ,73,5068993947959
2.8514142 ,Left ,61,7061554451447 ,46,5159462392459 ,73,5301966175475
2.8670214 ,Left ,61,6948331415961 ,46,508278330311 ,73,5606114985285
2.889093 ,Left ,61,6921772562727 ,46,5048751418621 ,73,597272410902
2.9110841 ,Left ,61,7033404843616 ,46,5093667672032 ,73,6250043184323
2.9268763 ,Left ,61,7143799391426 ,46,5220402058401 ,73,6463392579488
2.9493563 ,Left ,61,6956950282391 ,46,5350423460938 ,73,6662114972717
2.9713478 ,Left ,61,6586672443267 ,46,5448194575114 ,73,6833687507398
2.9871242 ,Left ,61,6315942418572 ,46,5497414535945 ,73,6867493162743
3.0098244 ,Left ,61,6116774260857 ,46,5533661645564 ,73,6768994273089
3.0315438 ,Left ,61,5936705771732 ,46,5602507091774 ,73,6625650144262
3.047131 ,Left ,61,569886493526 ,46,5684169795772 ,73,644279213396
3.0694223 ,Left ,61,5441368414455 ,46,5827636684443 ,73,6301756353248
3.0925997 ,Left ,61,5342243509315 ,46,5859932807691 ,73,6138880592748
3.114387 ,Left ,61,5272783019338 ,46,5869262991454 ,73,5948437378939
3.1375829 ,Left ,61,5061686507808 ,46,5793099817579 ,73,5843540488013
3.1602735 ,Left ,61,4685348380413 ,46,5627923801266 ,73,5762338715357
3.1811673 ,Left ,61,4258875530682 ,46,5488625980264 ,73,5735591402724
3.1975786 ,Left ,61,3288024684138 ,46,533751358746 ,73,58109257582
3.2200481 ,Left ,61,2719022124887 ,46,5290889161008 ,73,5691395891467
3.2344183 ,Left ,61,1792336430218 ,46,5071455316172 ,73,5588657193686
3.2574935 ,Left ,61,0729106355485 ,46,466712090703 ,73,5349797424211
3.2800318 ,Left ,61,1093224021395 ,46,3930096394638 ,73,4736170916517
3.3012939 ,Left ,61,1434370014 ,46,4094055071909 ,73,3662408507954
3.3178205 ,Left ,61,2242766626813 ,46,4099163669667 ,73,2826462858959
3.3400259 ,Left ,61,2899657078103 ,46,3837220030538 ,73,2262532650931
3.3611651 ,Left ,61,1833214949679 ,46,372094869948 ,73,1847289679837
3.3775708 ,Left ,61,0810540329083 ,46,4335817628177 ,73,144396969063
3.4000704 ,Left ,61,1025212427494 ,46,5014705759453 ,73,0754025623728
3.420901 ,Left ,61,0976328728885 ,46,4489654205384 ,73,0397511006849
3.4375103 ,Left ,60,8829501009176 ,46,390194856909 ,73,0846895926783
3.4598034 ,Left ,60,8380749376964 ,46,4059995980329 ,73,1053541162551
3.4809394 ,Left ,61,0121301238805 ,46,4360642350085 ,73,0552047119309
3.4974904 ,Left ,61,1859222764254 ,46,3837471965909 ,72,9919782889118
3.5200584 ,Left ,61,0745626066213 ,46,3452271540846 ,72,9777175746617
3.5409909 ,Left ,60,8949223552247 ,46,4081200072363 ,72,9971217396659
3.5575947 ,Left ,60,9001052145207 ,46,5602553225317 ,72,950213119341
3.5799055 ,Left ,60,956230442926 ,46,5519880842874 ,72,9112836338777
3.6012453 ,Left ,60,7209550420052 ,46,526918455482 ,72,9696439744733
3.6167024 ,Left ,60,6017285214996 ,46,5634309403149 ,73,0261043058999
3.6402121 ,Left ,60,8553485293087 ,46,6496955593958 ,72,964890620816
3.6610332 ,Left ,61,037880251683 ,46,6450631797212 ,72,8887427028353
3.6768185 ,Left ,60,9707350217125 ,46,6137132275432 ,72,8627414188603
3.7000735 ,Left ,60,8683453626958 ,46,6502278729254 ,72,9021836404555
3.7211143 ,Left ,60,8398385431732 ,46,7657747065994 ,72,8877678851949
3.7366397 ,Left ,60,9453588348716 ,46,7629240394767 ,72,8728208205342
3.7598677 ,Left ,60,8067501379604 ,46,72925807904 ,72,8934698250096
3.7825008 ,Left ,60,51910999255 ,46,649129653802 ,72,9659946040692
3.7969384 ,Left ,60,5531702325687 ,46,5000978171093 ,72,988624296406
3.8199964 ,Left ,60,7579423183422 ,46,4763172256813 ,72,961089754684
3.842413 ,Left ,60,894902807471 ,46,5750229881476 ,72,9588074829321
3.856847 ,Left ,60,9962233648962 ,46,5932071155956 ,72,9311302112711
3.8799978 ,Left ,61,0973005493764 ,46,5624121549265 ,72,9388063789849
3.9027105 ,Left ,61,1243656399177 ,46,5612837290035 ,72,9759956639916
3.9248035 ,Left ,61,1313499322931 ,46,5728710212823 ,73,0267231872901
3.9399994 ,Left ,61,1915901854329 ,46,5709470757637 ,73,0597813171347
3.9623688 ,Left ,61,2683393126087 ,46,5496241601426 ,73,0739565507654
3.9767984 ,Left ,61,2869932266455 ,46,5415017929754 ,73,0729939568394
3.9999249 ,Left ,61,2856272002143 ,46,5327681039179 ,73,0614976528965
4.0226004 ,Left ,61,2840449119611 ,46,5039649974344 ,73,038571755663
4.0369048 ,Left ,61,2763286501932 ,46,4789169357499 ,73,0124963862087
4.0600072 ,Left ,61,2481037752827 ,46,4690618648202 ,72,9890327180131
4.0826295 ,Left ,61,2127876531154 ,46,4796675752946 ,72,9698083745141
4.0968393 ,Left ,61,1921142803327 ,46,5227839532551 ,72,9399412922783
4.121494 ,Left ,61,1519362687679 ,46,5673725290218 ,72,894863301171
4.1350739 ,Left ,61,078791860428 ,46,6151503143004 ,72,8550575888851
4.1493196 ,Left ,60,993609658884 ,46,6905308289668 ,72,8062674626869
4.1719487 ,Left ,60,9144392278784 ,46,7762167304394 ,72,7562041630288
4.1950857 ,Left ,60,8067040070953 ,46,8766597960462 ,72,7100061721634
4.2091595 ,Left ,60,7016745525546 ,46,983302556011 ,72,6747556093896
4.2316566 ,Left ,60,5665455219698 ,47,0449223135064 ,72,6630357592311
4.2549679 ,Left ,60,4568012761708 ,47,0557654685035 ,72,6430956152146
4.2763987 ,Left ,60,3618879093141 ,47,0158710888566 ,72,6186895058995
4.2925499 ,Left ,60,2699885617387 ,46,9663057507145 ,72,5929916558815
4.3150814 ,Left ,60,2697818674908 ,46,9678141162405 ,72,5570996040625
4.3364052 ,Left ,60,2782059142974 ,46,9598357692654 ,72,5204842146573
4.3518978 ,Left ,60,6029371823973 ,46,85215922341 ,72,4783766017609
4.3750902 ,Left ,60,809291691444 ,46,6179934701737 ,72,4201190632138
4.3960482 ,Left ,60,6957485712203 ,46,5516704543095 ,72,396811964999
4.4118002 ,Left ,60,6920717078594 ,46,654231864359 ,72,3841842389962
4.4349389 ,Left ,60,8176763266122 ,46,5426940374179 ,72,3564413882084
4.4562025 ,Left ,60,8085978736034 ,46,4671258900241 ,72,3736918848839
4.4718866 ,Left ,60,8575454021422 ,46,6239415797275 ,72,3836698258813
4.4854236 ,Left ,60,9837453278886 ,46,5568527725522 ,72,3963088957974
4.5079473 ,Left ,60,92987418647 ,46,4369133535474 ,72,4457151046182
4.5310837 ,Left ,60,8860448723057 ,46,5009908788392 ,72,4938439142312
4.54557 ,Left ,61,0267657991373 ,46,5448080430932 ,72,5033833539296
4.5688665 ,Left ,61,0663577782894 ,46,3601249891686 ,72,5314126046355
4.5909873 ,Left ,60,9496924428647 ,46,4058438619553 ,72,591239463205
4.6055339 ,Left ,60,9356546716437 ,46,3475704567987 ,72,6124768075058
4.6288201 ,Left ,60,972183952847 ,46,3604518866022 ,72,6261116400192
4.651247 ,Left ,60,9835664455086 ,46,3675130986816 ,72,6530609165793
4.6655328 ,Left ,60,9806055962115 ,46,3698262996481 ,72,6843959397506
4.6888021 ,Left ,60,9944532458176 ,46,3729294356375 ,72,7108458058828
4.7113549 ,Left ,61,0198361647565 ,46,3672203213897 ,72,7201923481425
4.7256315 ,Left ,61,0139210779126 ,46,3542247391096 ,72,7183109836854
4.7486883 ,Left ,60,9888079327052 ,46,3432517906368 ,72,7102360507747
4.771149 ,Left ,60,9568373470271 ,46,3436994521576 ,72,6924763843188
4.785444 ,Left ,60,9399642677395 ,46,3456491079609 ,72,6696910745315
4.8079861 ,Left ,60,9305525980757 ,46,3490443715429 ,72,6374256158171
4.8313235 ,Left ,60,9106266976218 ,46,356872609364 ,72,6042989868173
4.845534 ,Left ,60,8774122358589 ,46,3705356315545 ,72,5786720886517
4.8685958 ,Left ,60,8447732893512 ,46,3814883828609 ,72,552506713083
4.8828353 ,Left ,60,7993345980156 ,46,377383892302 ,72,5255812151026
4.9054923 ,Left ,60,7610146639332 ,46,3575639341341 ,72,5016595993276
4.9289118 ,Left ,60,6926912208591 ,46,3484196908155 ,72,4947089872732
4.9513614 ,Left ,60,5310901046121 ,46,4028531746553 ,72,5290773715171
4.9654574 ,Left ,60,4165233830636 ,46,4254614236516 ,72,5052007292386
4.9880687 ,Left ,60,2414693547541 ,46,3603507129266 ,72,5249753550156
5.0106194 ,Left ,60,1725869857549 ,46,2322409949643 ,72,5412471463566
5.0254839 ,Left ,60,2178048240864 ,46,2910555577039 ,72,5321440826698
5.0479217 ,Left ,60,5124989482176 ,46,4098309603312 ,72,5189360770092
5.070743 ,Left ,60,7883406176027 ,46,422725564622 ,72,5043836385705
5.0884376 ,Left ,60,8774844113989 ,46,4130993315979 ,72,5249695526014
5.1079304 ,Left ,60,9215655793786 ,46,4185578316145 ,72,5946943522546
5.1305379 ,Left ,60,9945386225288 ,46,4240284317554 ,72,7076130034643
5.1456041 ,Left ,61,0950315729908 ,46,4207660483782 ,72,8333348603057
5.1679701 ,Left ,61,2227317050929 ,46,402272542926 ,72,9676604505817
5.1904384 ,Left ,61,3295263554579 ,46,3989564485938 ,73,0972263630819
5.205401 ,Left ,61,3872310494147 ,46,3898424229521 ,73,2209999311664
5.2280674 ,Left ,61,4460785136061 ,46,356087646533 ,73,327070811506
5.2506667 ,Left ,61,5122225581805 ,46,3090790443779 ,73,4142330798497
5.2654666 ,Left ,61,539457439021 ,46,281984344657 ,73,4953194724935
5.288053 ,Left ,61,5425325609037 ,46,2700143496187 ,73,5664638326908
5.310492 ,Left ,61,564655212 ,46,2662015513865 ,73,623933937045
5.3268819 ,Left ,61,585075403394 ,46,2544189485048 ,73,6670064266275
5.3477676 ,Left ,61,5792597001753 ,46,2429325737103 ,73,6860491397714
5.3658017 ,Left ,61,5691988509116 ,46,2432679687688 ,73,6926684749811
5.3867862 ,Left ,61,5581514273202 ,46,2612931391614 ,73,7009407650816
5.4080285 ,Left ,61,5481682351537 ,46,2957302401114 ,73,7025124864767
5.4256986 ,Left ,61,5476827241895 ,46,3402824877772 ,73,7031060569176
5.4467799 ,Left ,61,5412056343589 ,46,3851568028989 ,73,7024276393113
5.4676253 ,Left ,61,5283851641464 ,46,4156029714324 ,73,6931100444714
5.4862271 ,Left ,61,5105646458676 ,46,4316099028704 ,73,6697147800689
5.5086265 ,Left ,61,5014814229792 ,46,442369502918 ,73,6528440910144
5.5285586 ,Left ,61,4738661004798 ,46,4737141381494 ,73,6403011117045
5.5461713 ,Left ,61,4367511097301 ,46,52306442043 ,73,6424318833652
5.5685373 ,Left ,61,4464215250609 ,46,5374655263132 ,73,6400347964303
5.5883083 ,Left ,61,4638014690656 ,46,5397538283678 ,73,6302085041471
5.6060233 ,Left ,61,4336654221753 ,46,5335063964427 ,73,6387201629418
5.6285259 ,Left ,61,3899724352524 ,46,5331772687819 ,73,6545525927331
5.648107 ,Left ,61,3562363108128 ,46,5466236414697 ,73,6707055306571
5.6660169 ,Left ,61,3632190554074 ,46,5519339318746 ,73,6798499942033
5.6885867 ,Left ,61,3743668877035 ,46,5409097922027 ,73,6941256421826
5.7082684 ,Left ,61,3636330665074 ,46,5338253209234 ,73,7131030716448
5.7260305 ,Left ,61,3704283922267 ,46,5253854901667 ,73,7241474220885
5.7484954 ,Left ,61,4122555468152 ,46,5112774143204 ,73,7185363457743
5.7680093 ,Left ,61,4294432512936 ,46,5171627174161 ,73,7185277984365
5.7859823 ,Left ,61,4250424008055 ,46,546626677143 ,73,7228899785464
5.8085077 ,Left ,61,4196255901418 ,46,5832492541698 ,73,7201847839705
5.8277372 ,Left ,61,4273248047546 ,46,6181748257598 ,73,7056034559788
5.8458337 ,Left ,61,4292746628371 ,46,6416316956994 ,73,6863283715285
5.8686928 ,Left ,61,4104913309163 ,46,6692864398539 ,73,663194935911
5.8879125 ,Left ,61,3880158368256 ,46,6978348586638 ,73,6335731198344
5.9058435 ,Left ,61,3705333571289 ,46,7064010949641 ,73,6023745144914
5.9287434 ,Left ,61,3370529748328 ,46,7063706825707 ,73,5736576667371
5.9480367 ,Left ,61,2923822717737 ,46,6908144137862 ,73,5436273666957
5.9660176 ,Left ,61,2380064262054 ,46,6660259128485 ,73,5206574674268
5.9885763 ,Left ,61,1537734806608 ,46,6489301853029 ,73,5133560344628
6.0081866 ,Left ,61,0746292397632 ,46,6622943650972 ,73,5102626544473
6.0260298 ,Left ,61,0584848899526 ,46,6458749159007 ,73,4786194949121
6.0485976 ,Left ,60,9259604926214 ,46,5705753903286 ,73,4628592662542
6.0682887 ,Left ,60,7827975408238 ,46,4841547169591 ,73,4287704403004
6.0860234 ,Left ,60,8522117767442 ,46,4197925342539 ,73,3457156104599
6.1085494 ,Left ,60,9654292720067 ,46,4339182857487 ,73,2089381284749
6.1278569 ,Left ,61,0530894918415 ,46,4167803078903 ,73,1366243641933
6.1460972 ,Left ,61,0168728333141 ,46,4202462667605 ,73,0749771561587
6.1684227 ,Left ,60,8608282384455 ,46,471036684292 ,73,0095960126631
6.1880867 ,Left ,60,8803144773388 ,46,5420641588474 ,72,9039904615754
6.2058572 ,Left ,60,9190320855151 ,46,5135852601709 ,72,8245202632361
6.2284095 ,Left ,60,8493859250442 ,46,405342949088 ,72,815429958247
6.2477797 ,Left ,60,6092331031227 ,46,2915169713169 ,72,8753563446948
6.2658565 ,Left ,60,6585596306989 ,46,246674022752 ,72,8592363880914
6.2883511 ,Left ,60,8730800795694 ,46,2851899898968 ,72,7941743860104
6.3094847 ,Left ,61,0194933210386 ,46,2901466147852 ,72,7335604278885
6.3260688 ,Left ,60,9862824531701 ,46,2545207691705 ,72,7058982398534
6.3476694 ,Left ,60,8855929893778 ,46,2996985533649 ,72,7234703398761
6.3690028 ,Left ,60,8324180845932 ,46,4319230836321 ,72,7165927592552
6.3915253 ,Left ,60,9426162567587 ,46,4650245325992 ,72,6711175182459
6.4074966 ,Left ,60,7567694601374 ,46,4748155028628 ,72,692968944869
6.4287218 ,Left ,60,6274290162289 ,46,4219531503178 ,72,7132340103699
6.4445223 ,Left ,60,7841609461178 ,46,4572488677125 ,72,6512465656985
6.4676921 ,Left ,60,9487656187592 ,46,5563844935998 ,72,5866676796446
6.4888524 ,Left ,60,9542955636706 ,46,6139260142319 ,72,5414258193472
6.5045773 ,Left ,60,9587931102472 ,46,6349495664781 ,72,4776118021514
6.5277042 ,Left ,60,9498324013799 ,46,608295937195 ,72,4318049486458
6.5487861 ,Left ,60,8708793475218 ,46,5904259828189 ,72,4221488738992
6.565184 ,Left ,60,7942185838914 ,46,603104412448 ,72,4355503209032
6.5876081 ,Left ,60,7796026544967 ,46,6378923775997 ,72,4560621773292
6.6102224 ,Left ,60,823488847307 ,46,6721015851925 ,72,474229299603
6.6253587 ,Left ,60,881514878008 ,46,6765768948201 ,72,4929134652288
6.6477095 ,Left ,60,9260404994554 ,46,6652380359212 ,72,5356340929035
6.6701751 ,Left ,60,9599088118212 ,46,657763278677 ,72,6197496689279
6.6845282 ,Left ,61,0216261196302 ,46,656597879501 ,72,7289269188809
6.7076856 ,Left ,61,1303607489131 ,46,6662442474861 ,72,8492601054424
6.7300752 ,Left ,61,2607489306797 ,46,6827376460293 ,72,972005347128
6.7445451 ,Left ,61,3860823594173 ,46,6907162499309 ,73,0723502183854
6.7677497 ,Left ,61,4568845102981 ,46,6829114507269 ,73,144662455067
6.7901491 ,Left ,61,4501530722845 ,46,6798386602156 ,73,1885031947041
6.8114799 ,Left ,61,3923454496203 ,46,66907441778 ,73,1918202938759
6.8278028 ,Left ,61,3408782995491 ,46,660893834929 ,73,1512820779282
6.8501743 ,Left ,61,3098787244187 ,46,6602857018167 ,73,0947908993894
6.8713989 ,Left ,61,2694633243629 ,46,6890961642953 ,73,0361933370733
6.8876626 ,Left ,61,2230484156538 ,46,7043902157757 ,72,9753427397312
6.913711 ,Left ,61,1811799515396 ,46,7181582675416 ,72,9267781164926
6.9264321 ,Left ,61,1465162142184 ,46,7500490191427 ,72,8794959571619
6.9470387 ,Left ,61,135971573597 ,46,7626266777769 ,72,8350689600488
6.9682971 ,Left ,61,1980924681463 ,46,8993200787305 ,72,777425648284
6.9845848 ,Left ,61,1399307795208 ,47,0982445874031 ,72,7315019968782
7.006953 ,Left ,61,1756263673792 ,46,9523135891717 ,72,6657448806594
7.0282654 ,Left ,61,0005460022564 ,47,0871593593745 ,72,656888618245
7.044553 ,Left ,60,9620863918306 ,46,9125027239611 ,72,620939061264
7.0669495 ,Left ,60,9152173871825 ,47,1503151530906 ,72,5884793347771
7.0881715 ,Left ,60,7956839983065 ,46,8827154619674 ,72,5938102657076
7.1043305 ,Left ,60,8598859295318 ,46,6673862206136 ,72,5761430409434
7.1268662 ,Left ,60,9514999700701 ,46,5378173439739 ,72,5651789905202
7.1479218 ,Left ,61,0199772825758 ,46,5836286423188 ,72,5721462610296
7.164505 ,Left ,61,2732202472488 ,46,5982350452791 ,72,5706374144997
7.1869707 ,Left ,61,4603643152816 ,46,5894347585344 ,72,5637471059988
7.2078709 ,Left ,61,504812243674 ,46,5786954715166 ,72,5733651924151
7.2243434 ,Left ,61,4781359610377 ,46,5595839549879 ,72,5902882173593
7.2469388 ,Left ,61,5679846815728 ,46,5414466612113 ,72,5879452124148
7.2681098 ,Left ,61,6961271848416 ,46,4502363064263 ,72,5725195066942
7.2843325 ,Left ,61,7319763070476 ,46,4055716879854 ,72,5557644440644
7.3069602 ,Left ,61,7064232603603 ,46,4488047950708 ,72,5343111371651
7.3281577 ,Left ,61,643417079868 ,46,4944800196141 ,72,5023552588047
7.3438772 ,Left ,61,5845293090477 ,46,5321974067383 ,72,4548251582428
7.3661218 ,Left ,61,5217807110006 ,46,5871145276051 ,72,4003902127464
7.3887332 ,Left ,61,446230337574 ,46,6611544965303 ,72,3433933095073
7.4037386 ,Left ,61,3385570492371 ,46,7257688930595 ,72,2881812521654
7.42624 ,Left ,61,2356020210031 ,46,7906856394193 ,72,2259879979553
7.4486277 ,Left ,61,1290625786449 ,46,8411290837822 ,72,1480331093208
7.463648 ,Left ,61,0274688730142 ,46,8793814568014 ,72,0709642847737
7.4862497 ,Left ,60,9319557629905 ,46,9268583778868 ,72,0121117563497
7.5087056 ,Left ,60,804431898286 ,46,9580982610193 ,71,9673897006907
7.5235612 ,Left ,60,6730420793044 ,46,9434516565791 ,71,9482634960216
7.5460937 ,Left ,60,5207298059657 ,46,8437797519904 ,71,9496285050264
7.5681641 ,Left ,60,4560463434295 ,46,7492649209969 ,71,9867206853731
7.5836554 ,Left ,60,4446477996399 ,46,7939610600974 ,72,0405247163769
7.6060707 ,Left ,60,5545521597407 ,46,8781271492465 ,72,0811380794487
7.628748 ,Left ,60,7718616344235 ,46,8054039224843 ,72,0677472185871
7.6437308 ,Left ,60,8388340760508 ,46,6515387545616 ,72,0189242178657
7.6660401 ,Left ,60,8000538696559 ,46,6150959660962 ,72,0153385418406
7.6887426 ,Left ,60,6164493934514 ,46,6787534813719 ,72,0448351159952
7.7049223 ,Left ,60,6921499504567 ,46,8060384921298 ,71,983143697553
7.7262542 ,Left ,60,7932252017605 ,46,7903866897561 ,71,9431840825742
7.7486592 ,Left ,60,628200074939 ,46,7076959730845 ,71,9524863406059
7.7636913 ,Left ,60,5646547734093 ,46,5909150368648 ,72,0174538476996
7.7862806 ,Left ,60,6663285235545 ,46,6023312759267 ,72,0087810334862
7.8100506 ,Left ,60,9401485313612 ,46,650224599027 ,71,9883244971084
7.8324636 ,Left ,61,1779237612724 ,46,6392513796835 ,71,98263076506
7.8537982 ,Left ,61,3323622570761 ,46,5915443705864 ,72,0116758184894
7.8701162 ,Left ,61,335824657356 ,46,5620939636598 ,72,1046707849772
7.8925153 ,Left ,61,3000979813545 ,46,5702449747052 ,72,2373567904402
7.9136555 ,Left ,61,333366218483 ,46,584378189053 ,72,3783515874068
7.9300504 ,Left ,61,4389376639046 ,46,5759726542375 ,72,5180221566127
7.9525668 ,Left ,61,5351870085085 ,46,5533834055706 ,72,6641588438661
7.9741595 ,Left ,61,5574202746508 ,46,5348842226421 ,72,8187447543056
7.9908476 ,Left ,61,5612274896679 ,46,505330027474 ,72,9579867099851
8.0128291 ,Left ,61,6026382255397 ,46,459507046557 ,73,058494876868
8.0335152 ,Left ,61,6295861410603 ,46,4254964544059 ,73,1508037124509
8.0498705 ,Left ,61,6096819205372 ,46,4184596626904 ,73,2402673596159
8.0725577 ,Left ,61,600434092648 ,46,4240336621504 ,73,3157312444871
8.0936834 ,Left ,61,6043670246769 ,46,4392202234986 ,73,3855928653858
8.1099466 ,Left ,61,6206437617835 ,46,4554163996631 ,73,4412548678493
8.1330264 ,Left ,61,63993062024 ,46,4741688588474 ,73,4867095164903
8.1538066 ,Left ,61,6327752300665 ,46,5058409198474 ,73,5207090368961
8.1703495 ,Left ,61,6207737701061 ,46,5509266410343 ,73,5339929044233
8.192869 ,Left ,61,6158395319091 ,46,5950600937513 ,73,5310505940907
8.2137276 ,Left ,61,6212662861846 ,46,6287749228205 ,73,512954504454
8.2294905 ,Left ,61,6101296962468 ,46,6519347669927 ,73,490616761614
8.2526479 ,Left ,61,5770821076837 ,46,6801659198328 ,73,478892468303
8.2752134 ,Left ,61,549243249081 ,46,7211379195236 ,73,4666140474192
8.2910529 ,Left ,61,5472527680306 ,46,7537763730986 ,73,4582770464904
8.3051143 ,Left ,61,538746990957 ,46,7769041962781 ,73,4570374849633
8.3260103 ,Left ,61,5251141093114 ,46,7797275965554 ,73,4516671616783
8.3418969 ,Left ,61,5073423412569 ,46,7782989620839 ,73,4555064882142
8.3648563 ,Left ,61,4844184628496 ,46,7892664050161 ,73,4647396522866
8.3861422 ,Left ,61,4733842313424 ,46,8062127437633 ,73,4756462706798
8.408874 ,Left ,61,4873761609471 ,46,8167866722716 ,73,4823802932149
8.4250828 ,Left ,61,5103608936114 ,46,810404951727 ,73,4804118417033
8.4462951 ,Left ,61,5107893988083 ,46,8077938175886 ,73,4797214895866
8.4618919 ,Left ,61,4891754187076 ,46,8109390503738 ,73,4868761019143
8.485021 ,Left ,61,4977522331962 ,46,8139353319658 ,73,4869998976238
8.5062875 ,Left ,61,5235776270507 ,46,8163609016068 ,73,4767475664922
8.5219666 ,Left ,61,5299151600844 ,46,8104960657773 ,73,4649132731058
8.5445212 ,Left ,61,5300207544345 ,46,8068483959116 ,73,4433790408591
8.5661962 ,Left ,61,5284088385753 ,46,8165468665148 ,73,4137469863932
8.5818864 ,Left ,61,5410526281036 ,46,8266617508477 ,73,3704797495384
8.6045438 ,Left ,61,5437790557451 ,46,835380039834 ,73,3272351564523
8.6262185 ,Left ,61,5245788473421 ,46,8369815744509 ,73,2909202060764
8.6418995 ,Left ,61,4851240003188 ,46,8353637098199 ,73,26611829675
8.6644964 ,Left ,61,4304370709421 ,46,81885608567 ,73,2564731953487
8.6893439 ,Left ,61,3946875974774 ,46,8042082214877 ,73,2463597516593
8.7019123 ,Left ,61,32681179246 ,46,7896546818469 ,73,234439150982
8.7244963 ,Left ,61,2494302596084 ,46,7807413760297 ,73,2221623611896
8.7473546 ,Left ,61,1469016199892 ,46,781832006385 ,73,1984049497522
8.7618977 ,Left ,61,014561134169 ,46,7567454365399 ,73,1323248800433
8.784468 ,Left ,60,9679142220541 ,46,7056275743604 ,73,0991033386581
8.807536 ,Left ,60,9780969793828 ,46,742654806751 ,73,0370890501851
8.8220022 ,Left ,61,0927205549944 ,46,7345381298133 ,72,9802674971635
8.8444583 ,Left ,61,1786101499666 ,46,7197599237222 ,72,9094970572492
8.8678786 ,Left ,61,0789910544743 ,46,7116004656704 ,72,8535876244089
8.8819131 ,Left ,60,9386006738699 ,46,7700617084917 ,72,7880769024551
8.9045096 ,Left ,60,9882989292245 ,46,8243280809954 ,72,697811279624
8.9276262 ,Left ,60,9928113409362 ,46,7659944499828 ,72,6342741476184
8.9418445 ,Left ,60,8170529157343 ,46,6550842398412 ,72,6373983828399
8.9658222 ,Left ,60,6902199878731 ,46,5768777628599 ,72,6755058295425
8.9873868 ,Left ,60,7890053008716 ,46,6224504426994 ,72,6510797461063
9.009424 ,Left ,60,9768118194065 ,46,7128286200567 ,72,5990191005457
9.0249172 ,Left ,61,0372651737617 ,46,6039175802132 ,72,5587616599068
9.047893 ,Left ,61,1185848970506 ,46,5197383418792 ,72,5296132345824
9.0689024 ,Left ,61,0209704442541 ,46,4345586113146 ,72,5425927695725
9.0845484 ,Left ,60,9331908634336 ,46,476343479718 ,72,5362021007714
9.107662 ,Left ,60,9265977425134 ,46,5755280460033 ,72,5223638849115
9.1287687 ,Left ,60,8785440349127 ,46,5894342731128 ,72,5615289719089
9.1445806 ,Left ,60,8701291825198 ,46,4909655871577 ,72,5840168497687
9.1676646 ,Left ,60,9757828056638 ,46,6295202493983 ,72,5671636362037
9.196307 ,Left ,61,1558949863387 ,46,6804333020036 ,72,5064887449878
9.2128119 ,Left ,61,038345298847 ,46,4891816311097 ,72,4988600623823
9.2353858 ,Left ,60,8655221220198 ,46,6609510593212 ,72,5614363951392
9.2562776 ,Left ,60,9550143853233 ,46,8685785342924 ,72,5393555427113
9.2726308 ,Left ,61,0536499056162 ,46,7612381675035 ,72,5160270493246
9.2953797 ,Left ,60,7903350347914 ,46,8462389944278 ,72,5545071314916
9.3163312 ,Left ,60,5172601610616 ,46,7419678831483 ,72,5720189065739
9.3388639 ,Left ,60,4316520983089 ,46,6588111767003 ,72,5954334526688
9.3553123 ,Left ,60,571427018639 ,46,5808839199798 ,72,5854348801705
9.3763893 ,Left ,60,5933575321309 ,46,6517514326567 ,72,5914086325612
9.3921045 ,Left ,60,6382918229482 ,46,7056693766625 ,72,6287146211963
9.4150855 ,Left ,60,7698748132776 ,46,6676502539599 ,72,6170135605917
9.4361095 ,Left ,60,8629160116048 ,46,6269982377511 ,72,6335490366832
9.4516895 ,Left ,60,882416688683 ,46,6072149305786 ,72,6718226291643
9.4750357 ,Left ,60,8975312466925 ,46,6124108965316 ,72,6962129445321
9.497462 ,Left ,60,9501595300178 ,46,6280202492708 ,72,6944856667203
9.5126012 ,Left ,60,9939257941586 ,46,6388571188352 ,72,6840209947833
9.5351034 ,Left ,61,0101719334705 ,46,6586426507628 ,72,6674379321156
9.5578286 ,Left ,61,0020773573442 ,46,6685204178771 ,72,6429587238423
9.5725941 ,Left ,61,0133666752852 ,46,6733322007268 ,72,6098806519645
9.5950491 ,Left ,61,0133572285813 ,46,6757047637265 ,72,5737608533683
9.6173632 ,Left ,61,0036407358357 ,46,6938894227933 ,72,534421795481
9.6317638 ,Left ,60,970821781411 ,46,7096798671658 ,72,4896330961915
9.6548648 ,Left ,60,9409916418642 ,46,7379334148856 ,72,4350118678962
9.6775669 ,Left ,60,8982986404774 ,46,7774858561324 ,72,3670319843608
9.6922445 ,Left ,60,854578007038 ,46,8252115930686 ,72,2874224985384
9.7155352 ,Left ,60,7921423354947 ,46,8852447065328 ,72,202210881709
9.7374268 ,Left ,60,7076398039564 ,46,9344840189014 ,72,1183498344716
9.7586627 ,Left ,60,6484663804926 ,46,9741767243302 ,72,0180703387537
9.7750631 ,Left ,60,5893587600693 ,46,9965455858823 ,71,9190096805352
9.7973845 ,Left ,60,5134721108703 ,47,0067454452611 ,71,838561086294
9.8188188 ,Left ,60,4432797856669 ,47,0215206324577 ,71,7663520918606
9.8350589 ,Left ,60,4377202141316 ,47,0111182257801 ,71,6942797299102
9.8572376 ,Left ,60,3926139743197 ,47,0011191688862 ,71,6397569035521
9.8785073 ,Left ,60,2900123740136 ,47,0316217607364 ,71,5993243919596
9.895024 ,Left ,60,1747308109412 ,47,1048021060484 ,71,5681999051142
9.917619 ,Left ,60,0833056106165 ,47,156589686394 ,71,5383573450678
9.9385995 ,Left ,59,9788292452582 ,47,1040920718247 ,71,5630998559448
9.9550376 ,Left ,59,9623317759938 ,46,9984929445137 ,71,6251350670045
9.9776067 ,Left ,60,0130529106502 ,46,9923615866531 ,71,651104168858
9.9986448 ,Left ,60,2642485664918 ,47,0359052815051 ,71,6337086273251
10.0151536 ,Left ,60,4986449933932 ,46,9321260616967 ,71,6133335088214
10.0376807 ,Left ,60,5228745247773 ,46,8199634849825 ,71,6065430624933
10.0589298 ,Left ,60,4370210911253 ,46,7773948245348 ,71,6669733178938
10.0750974 ,Left ,60,2914853028935 ,46,8446439365225 ,71,7270120858868
10.09767 ,Left ,60,4020283640122 ,46,9244489686113 ,71,7134864024657
10.1184721 ,Left ,60,5063139466272 ,46,8317110241568 ,71,7487569429183
10.135087 ,Left ,60,3512811681311 ,46,6370792201563 ,71,8340730685522
10.1574225 ,Left ,60,2756305701929 ,46,4059094414869 ,71,9029123713296
10.1787168 ,Left ,60,3943757864486 ,46,2967933869441 ,71,9203042871738
10.1952251 ,Left ,60,5842440637635 ,46,3542643112009 ,71,9175798622981
10.2005002 ,Left ,60,7846542164897 ,46,3877352051282 ,71,9400091029686
10.2231073 ,Left ,60,9415298418404 ,46,3890736579638 ,71,9860615308524
10.2453749 ,Left ,61,005467695283 ,46,4168812771268 ,72,0561179092693
10.2602909 ,Left ,61,057838543128 ,46,4417094270526 ,72,1487693040569
10.2829772 ,Left ,61,1152307431474 ,46,4647288836259 ,72,2424553380035
10.3054045 ,Left ,61,2037917193296 ,46,4783345039849 ,72,3574121460132
10.3205896 ,Left ,61,3364833338267 ,46,4957199514735 ,72,4752623021258
10.3436174 ,Left ,61,4494116403894 ,46,5131555742459 ,72,5731593727223
10.3654223 ,Left ,61,510356335108 ,46,5178254913075 ,72,6623753852918
10.3803812 ,Left ,61,5224387486734 ,46,5124099044997 ,72,7495108052257
10.4029307 ,Left ,61,5229099540402 ,46,5231391224158 ,72,8246052517362
10.4254594 ,Left ,61,5446149700942 ,46,544759956801 ,72,8877821464931
10.4404818 ,Left ,61,5717934514237 ,46,5739059251281 ,72,9460234124334
10.4631447 ,Left ,61,5683485390657 ,46,5933859840319 ,73,0058277395471
10.4854787 ,Left ,61,5651845219313 ,46,6069426745552 ,73,0524962105441
10.5006558 ,Left ,61,5708334825715 ,46,6085081329244 ,73,083322073705
10.5231568 ,Left ,61,5844873122612 ,46,6068747317183 ,73,1092322835096
10.5455143 ,Left ,61,5810275322334 ,46,6127721789283 ,73,1333325787091
10.5606478 ,Left ,61,5657846150676 ,46,6338417828045 ,73,1504925694963
10.582991 ,Left ,61,5663735784882 ,46,6610204074666 ,73,1615715646927
10.605218 ,Left ,61,562166757025 ,46,6812383517382 ,73,1665760048459
10.6202549 ,Left ,61,5450366242036 ,46,7084480269836 ,73,1763071607597
10.6429954 ,Left ,61,5346457294562 ,46,7308558682692 ,73,1833406391821
10.666208 ,Left ,61,5365132547266 ,46,7416755269833 ,73,1869639461388
10.6804751 ,Left ,61,5176156149056 ,46,7534587540247 ,73,1858888182753
10.7032113 ,Left ,61,4317377154089 ,46,7880589582014 ,73,1955919515321
10.7264217 ,Left ,61,5340658117918 ,46,7111195936556 ,73,1570248757562
10.740741 ,Left ,61,445068107162 ,46,5391912015877 ,73,1521459159856
10.7632793 ,Left ,61,5010344430057 ,46,7450008612094 ,73,1243427157576
10.7782207 ,Left ,61,405754153129 ,46,5919498062009 ,73,1321128665197
10.8007731 ,Left ,61,5118028063674 ,46,7114034648051 ,73,0996217076294
10.8232446 ,Left ,61,3622922884731 ,46,6648697348607 ,73,1170080742175
10.8382853 ,Left ,61,4530578103241 ,46,7951531662493 ,73,0901221709444
10.8607296 ,Left ,61,4821597314932 ,46,8524296390452 ,73,0738116251802
10.8827367 ,Left ,61,4928248117477 ,46,8537547349114 ,73,0422668566364
10.8978724 ,Left ,61,4821015052266 ,46,8679823125447 ,73,0065581302769
10.9204646 ,Left ,61,4661688392515 ,46,877410704137 ,72,9652440849687
10.943021 ,Left ,61,4357281858665 ,46,8855083613661 ,72,9288193150694
10.9580674 ,Left ,61,3796703977498 ,46,913036742781 ,72,9179391218521
10.9805015 ,Left ,61,3759336758697 ,47,0956430729135 ,72,9203255803394
11.0031699 ,Left ,61,225299454152 ,47,1534395819401 ,72,9269189076039
11.0181611 ,Left ,61,254728712499 ,47,017853119008 ,72,8994262811816
11.0408165 ,Left ,61,1190753033816 ,46,9439013958076 ,72,8974533315219
11.0628513 ,Left ,60,9098622822982 ,46,8902461432082 ,72,8834622357496
11.0862125 ,Left ,60,8389836095255 ,46,818917063816 ,72,828336335857
11.1006895 ,Left ,60,8601768745656 ,46,8436641235058 ,72,7349330568507
11.1231208 ,Left ,60,9223838916579 ,46,9224923660558 ,72,6461488958981
11.1463549 ,Left ,61,0170235193634 ,46,9246813218548 ,72,5800168768269
11.1604972 ,Left ,61,0949544270011 ,46,9074603685613 ,72,5386291192851
11.1828812 ,Left ,61,0497588610776 ,46,8490273659257 ,72,5063498310331
11.2061405 ,Left ,60,9463523228554 ,46,8472492537321 ,72,5033579181282
11.2285105 ,Left ,60,9163618019057 ,46,9047255170269 ,72,4654095221293
11.2427644 ,Left ,60,9456710230595 ,46,895452267987 ,72,4157276472899
11.265894 ,Left ,60,8969467571722 ,46,7872756085846 ,72,3890926438925
11.2803246 ,Left ,60,68460475583 ,46,6567514969336 ,72,4198391187132
11.3028153 ,Left ,60,6850020350955 ,46,6492473945315 ,72,4543454530186
11.3261245 ,Left ,60,8302806046355 ,46,7014462582796 ,72,4414843997345
11.3409503 ,Left ,60,972078877525 ,46,7019361583885 ,72,4060937048007
11.3634584 ,Left ,60,9301911489529 ,46,6643217654779 ,72,3954573359094
11.3864493 ,Left ,60,8300851744736 ,46,7272092842238 ,72,417623033785
11.4006392 ,Left ,60,7630441041262 ,46,9002824095668 ,72,4067773627911
11.4233227 ,Left ,60,8259407307398 ,46,9369725038281 ,72,3602004672678
11.4459071 ,Left ,60,6790385212461 ,46,8972988081622 ,72,3775362853146
11.4602765 ,Left ,60,5133292374684 ,46,9139115399365 ,72,4267103384062
11.4829902 ,Left ,60,5925704359532 ,47,0363313531145 ,72,4062827549871
11.5074355 ,Left ,60,7827918639972 ,47,1128357334863 ,72,3309418368566
11.5203498 ,Left ,60,797826717043 ,47,1317860940361 ,72,2616720348629
11.5427693 ,Left ,60,753276678273 ,47,1278202712027 ,72,1845873294078
11.5731165 ,Left ,60,6689624287985 ,47,1048701069826 ,72,1219972388427
11.5835095 ,Left ,60,5597651168878 ,47,1505838814701 ,72,0793770588359
11.603331 ,Left ,60,4544029876591 ,47,2239915566156 ,72,0207994315573
11.6258066 ,Left ,60,4559077013234 ,47,2897341389463 ,71,9515941105021
11.6434949 ,Left ,60,5134445214316 ,47,3049242624272 ,71,9044846158392
11.6632836 ,Left ,60,5624811052841 ,47,2773082139491 ,71,8656330956193
11.6809485 ,Left ,60,5503624238426 ,47,253792105784 ,71,8456688181678
11.7034958 ,Left ,60,546068118039 ,47,2545144258319 ,71,8477988344678
11.7230971 ,Left ,60,5962962647732 ,47,2545593223901 ,71,8797916246121
11.745684 ,Left ,60,6768522911755 ,47,2411732709835 ,71,9389776471972
11.763646 ,Left ,60,772596252129 ,47,2159402105777 ,72,0093528523603
11.7831422 ,Left ,60,8599958578315 ,47,1685586239436 ,72,1107509024866
11.8009245 ,Left ,60,910670289089 ,47,1296166176903 ,72,2518193738044
11.8237984 ,Left ,60,9621180325442 ,47,1051535642018 ,72,4037083248327
11.8430686 ,Left ,61,0439832630278 ,47,0785646956936 ,72,5571710781919
11.8609442 ,Left ,61,158302986322 ,47,0528089410698 ,72,6968876691617
11.883984 ,Left ,61,2496916594805 ,47,0152497486102 ,72,826207673512
11.9033317 ,Left ,61,300190570322 ,46,9903899382683 ,72,9506089295002
11.920959 ,Left ,61,3129404240042 ,46,9816405237061 ,73,0599264354869
11.9436038 ,Left ,61,3394405738054 ,46,9805769987411 ,73,1493576086683
11.9645984 ,Left ,61,37543897312 ,46,9769439099516 ,73,2146523288112
11.9808928 ,Left ,61,388425348552 ,46,974870340729 ,73,2519638218239
12.0035507 ,Left ,61,3689901482564 ,46,9731309755173 ,73,272580783207
12.0245871 ,Left ,61,3210187501411 ,46,9737785926519 ,73,2754696350519
12.0410119 ,Left ,61,2928586300229 ,46,9858808437632 ,73,2576596938692
12.0634175 ,Left ,61,2855364526591 ,46,9851626886771 ,73,2066596690437
12.0838171 ,Left ,61,2554039794443 ,46,9921023811228 ,73,1525433889442
12.1001141 ,Left ,61,1923057066295 ,47,0180278810822 ,73,093333230209
12.1226654 ,Left ,61,1535352063854 ,47,0462047291452 ,73,0179030324685
12.1439899 ,Left ,61,12138063961 ,47,0648393770385 ,72,9217201207405
12.1662227 ,Left ,61,0595310847469 ,47,0735696602203 ,72,8303409396143
12.1826717 ,Left ,60,9405118842139 ,47,1005712335516 ,72,7657271555561
12.2039601 ,Left ,60,783337906938 ,47,1711444756319 ,72,7111726442314
12.2195205 ,Left ,60,7362878319815 ,47,2400801798484 ,72,599691386634
12.242438 ,Left ,60,6791629377202 ,47,2444151479109 ,72,5269556018979
12.2635172 ,Left ,60,5286974352664 ,47,1416775682262 ,72,5026557342687
12.2792493 ,Left ,60,4647449488793 ,47,0042282799448 ,72,5135987268548
12.3022872 ,Left ,60,4881980928062 ,47,0410710890079 ,72,5031763232312
12.3248212 ,Left ,60,7104629641774 ,47,1644232487455 ,72,4944664995245
12.3391767 ,Left ,61,0091266011246 ,47,1482396505862 ,72,4518142909568
12.3622817 ,Left ,61,1610689196713 ,47,083842243856 ,72,4333266916592
12.3848089 ,Left ,61,1126548219217 ,47,0553110238568 ,72,4617744437638
12.3991996 ,Left ,61,0409036996237 ,47,0470599034265 ,72,4995467613992
12.4223301 ,Left ,61,0716173564146 ,47,0368422500814 ,72,5118398677321
12.4511748 ,Left ,61,1504707433736 ,47,0070749779097 ,72,4982642664481
12.4592964 ,Left ,61,1741979803988 ,46,9864539869515 ,72,4806390386068
12.4823619 ,Left ,61,1250478461909 ,46,9878168613789 ,72,4700723915812
12.5050651 ,Left ,61,0883988131532 ,46,983547782949 ,72,4354272033646
12.5195028 ,Left ,61,0651219493001 ,46,9715666748275 ,72,3875695861226
12.5426372 ,Left ,61,0075741959465 ,46,9761580560321 ,72,3372103093881
12.5725454 ,Left ,60,915547243035 ,47,0121794298167 ,72,2887503991476
12.5795529 ,Left ,60,8555523942051 ,47,063084624596 ,72,2265352058189
12.6027219 ,Left ,60,8158815830475 ,47,1137911495949 ,72,1549520118112
12.6251889 ,Left ,60,7245129913022 ,47,1701512514958 ,72,0910572429282
12.6460935 ,Left ,60,639125204745 ,47,2262251917092 ,72,014917236675
12.6625635 ,Left ,60,5351493939379 ,47,281580652874 ,71,9433807685074
12.6854351 ,Left ,60,3809181393598 ,47,3647702299348 ,71,8863361135615
12.7067357 ,Left ,60,2293899109224 ,47,4251570131592 ,71,8349329472924
12.72316 ,Left ,60,113129181673 ,47,3734140574416 ,71,8148103392717
12.7454044 ,Left ,60,0330665635431 ,47,2623654515429 ,71,8518510848497
12.7663575 ,Left ,60,0275815501909 ,47,1598453508137 ,71,9056531417206
12.7827337 ,Left ,60,2860837754625 ,47,2797532934249 ,71,9344812201946
12.8051622 ,Left ,60,6804148460608 ,47,2161326372856 ,71,9353415411556
12.8264542 ,Left ,60,7925752018274 ,46,9772008685574 ,71,8849803680899
12.8487514 ,Left ,60,6067610800457 ,46,9272609661725 ,71,9308358321656
12.8652736 ,Left ,60,4004089374999 ,47,1689836808355 ,72,0170102271117
12.886474 ,Left ,60,6409485127533 ,47,2727838214447 ,71,9597527351327
12.9027297 ,Left ,60,7536981670073 ,47,1232584238406 ,71,9239548496448
12.9252535 ,Left ,60,5427433521743 ,47,1021320625692 ,71,9718695866832
12.9466132 ,Left ,60,5597466233999 ,46,8358138121589 ,72,0016669492198
12.9626492 ,Left ,60,5310085237539 ,46,6902543933368 ,72,0263584909037
12.9858794 ,Left ,60,8058468952067 ,46,894024031933 ,72,0133031579393
13.0065126 ,Left ,61,0998215812947 ,46,8044158761655 ,71,9642433698836
13.0221121 ,Left ,61,058597337063 ,46,7027649705475 ,72,0184228343867
13.0452312 ,Left ,60,9459077994093 ,46,691674129797 ,72,1124055398935
13.0661685 ,Left ,60,9841832044264 ,46,7148728345809 ,72,2075820910748
13.0825752 ,Left ,61,1065763587155 ,46,7502557290896 ,72,3046580355772
13.105371 ,Left ,61,1906487116491 ,46,7719116682861 ,72,4160558229316
13.1262759 ,Left ,61,2477477805182 ,46,7733813384785 ,72,5419704357541
13.1420723 ,Left ,61,2916157437574 ,46,7494304602215 ,72,6525768681634
13.165196 ,Left ,61,3391658716659 ,46,7072261022104 ,72,7449801366386
13.1859744 ,Left ,61,3456407602172 ,46,6568540700393 ,72,8261421108926
13.2018148 ,Left ,61,356337143641 ,46,6073499662804 ,72,8973975040021
13.2249073 ,Left ,61,3720642042034 ,46,5713589379085 ,72,9768695523032
13.2474732 ,Left ,61,4005905469036 ,46,5512230259222 ,73,0526648221119
13.2623248 ,Left ,61,4446008380667 ,46,5349649846636 ,73,1159948714224
13.2849144 ,Left ,61,4784753488455 ,46,5182423943207 ,73,1625891125966
13.3076026 ,Left ,61,4906205148891 ,46,5032559247867 ,73,19594104377
13.322684 ,Left ,61,5042438189263 ,46,5003194432691 ,73,2157914291921
13.3453451 ,Left ,61,5307248747894 ,46,5059944905851 ,73,2208423793696
13.3677438 ,Left ,61,5663341417324 ,46,5271163138438 ,73,21798066939
13.3826518 ,Left ,61,585551313101 ,46,5512680724333 ,73,2093308169782
13.4053524 ,Left ,61,5958270743023 ,46,5732985308478 ,73,1949914681343
13.4277565 ,Left ,61,5952669238793 ,46,5886197310484 ,73,1732599589951
13.4419856 ,Left ,61,588624601904 ,46,6146360670761 ,73,1590279980046
13.4651357 ,Left ,61,5824190738135 ,46,6501307472098 ,73,1477163207632
13.4873244 ,Left ,61,5676807518246 ,46,6825211774137 ,73,1363510866681
13.5016767 ,Left ,61,546459233353 ,46,7131650657115 ,73,12874576748
13.5250805 ,Left ,61,5256733467593 ,46,7412365062068 ,73,1320581421269
13.5474284 ,Left ,61,5095375553438 ,46,769370792063 ,73,1307690678508
13.5618346 ,Left ,61,4913773344257 ,46,7977354356281 ,73,1204118077744
13.5848842 ,Left ,61,4697732018746 ,46,8051104746357 ,73,1115780684042
13.6076105 ,Left ,61,4507220228941 ,46,8050014448659 ,73,1039847228648
13.6219789 ,Left ,61,4397148489847 ,46,8229832556839 ,73,0894394978785
13.6450537 ,Left ,61,4365761235149 ,46,8469460442527 ,73,0727314623987
13.6678215 ,Left ,61,4184932376043 ,46,8735245486842 ,73,0561013285468
13.6819012 ,Left ,61,3900703391553 ,46,8982250236467 ,73,0393506355696
13.7050462 ,Left ,61,3690180577684 ,46,9256303021585 ,73,0194701655669
13.7275901 ,Left ,61,3624306600081 ,46,948368816326 ,72,9931082563426
13.748699 ,Left ,61,3425350997658 ,46,9593305598556 ,72,9658145372526
13.7648719 ,Left ,61,306861775473 ,46,9551538580114 ,72,9388760915095
13.7874955 ,Left ,61,2481144472426 ,46,9408496920695 ,72,9122543919544
13.8091381 ,Left ,61,1592343309881 ,46,9297932878467 ,72,9026367356358
13.8255845 ,Left ,61,0618321594674 ,46,9282145076758 ,72,8941314235557
13.8480546 ,Left ,61,0343678319908 ,46,911360595859 ,72,8489483294865
13.8692037 ,Left ,60,9414379665646 ,46,8681906460606 ,72,8160870570399
13.8851889 ,Left ,60,7740312010056 ,46,8364620469525 ,72,8107167300057
13.9075238 ,Left ,60,8108994556897 ,46,741369605461 ,72,7699201267809
13.9286895 ,Left ,60,8343795709286 ,46,7809273047743 ,72,6669043926102
13.9448993 ,Left ,60,9019769439656 ,46,8608381871461 ,72,5849628910085
13.9674307 ,Left ,60,9577902697059 ,46,8493028717851 ,72,5232499854379
13.9887837 ,Left ,60,935840669952 ,46,835966587511 ,72,4866852844063
14.0052362 ,Left ,60,8052154196402 ,46,867849065867 ,72,4849651906733
14.0277328 ,Left ,60,7801663696899 ,46,9568449278587 ,72,4624060239331
14.0490402 ,Left ,60,7998826642388 ,46,9553667987263 ,72,401817781335
14.0645206 ,Left ,60,740409616221 ,46,8549177583139 ,72,3728471958211
14.0877998 ,Left ,60,5476186634415 ,46,7488063258324 ,72,4118589890821
14.1089813 ,Left ,60,5363940620453 ,46,751871728819 ,72,427228790167
14.1245922 ,Left ,60,697785845315 ,46,7776759084582 ,72,3990323112962
14.1476648 ,Left ,60,8200352783433 ,46,7290975836188 ,72,3600507678845
14.1690357 ,Left ,60,7905642954134 ,46,7086793241622 ,72,3681119718308
14.1846081 ,Left ,60,6246148713719 ,46,7925119911821 ,72,4051509993336
14.2077257 ,Left ,60,6549928050657 ,46,892610154819 ,72,3881200607907
14.2363744 ,Left ,60,7181908990482 ,46,8491538713688 ,72,3695415630722
14.2445858 ,Left ,60,5280591337214 ,46,8247363874788 ,72,4281741254277
14.2677092 ,Left ,60,4376773864862 ,46,9604735871871 ,72,4518867400952
14.2903124 ,Left ,60,6454584477721 ,47,0699824382484 ,72,4181243992475
14.3045667 ,Left ,60,777153170981 ,47,082971639604 ,72,3825892695706
14.3277224 ,Left ,60,7410620108215 ,47,0569301000043 ,72,3676525457924
14.3502265 ,Left ,60,7167226272954 ,47,0044740488138 ,72,3674599072043
14.3646064 ,Left ,60,7023203530294 ,46,979676710812 ,72,3854592732608
14.3876104 ,Left ,60,7321234497788 ,46,9976293084654 ,72,4022232504975
14.4108034 ,Left ,60,7814046728621 ,47,0233239167192 ,72,428120265115
14.4245331 ,Left ,60,8277691540253 ,47,0351106902216 ,72,4552719624538
14.4477625 ,Left ,60,8564654030406 ,47,0336638753485 ,72,4638229139186
14.4703186 ,Left ,60,8619248517131 ,47,0228116102728 ,72,4535262413755
14.4846107 ,Left ,60,8377754085857 ,47,00368290224 ,72,4289705615794
14.5077611 ,Left ,60,8041652503808 ,46,9840778377143 ,72,3744344521658
14.5302002 ,Left ,60,7538036667681 ,46,9598381847942 ,72,3097825486452
14.5512365 ,Left ,60,6626549784649 ,46,9843963519105 ,72,2673151735886
14.5677463 ,Left ,60,5630732151755 ,47,0659719192735 ,72,2223910718158
14.5901533 ,Left ,60,4803900698403 ,47,1199262980933 ,72,1929023886142
14.6109004 ,Left ,60,3861395917193 ,47,0457244137346 ,72,2093617402023
14.6275807 ,Left ,60,4301667921074 ,46,8441012369946 ,72,2140841787151
14.6498569 ,Left ,60,4348498309711 ,46,8449498156746 ,72,234610643155
14.6711929 ,Left ,60,5789251735263 ,46,9764712875759 ,72,2426919377921
14.6873908 ,Left ,60,8282098322291 ,46,9989505931465 ,72,2165234297817
14.7101462 ,Left ,60,951910028577 ,46,9429889891481 ,72,2181389401299
14.7310915 ,Left ,60,9219722866977 ,46,9171878064474 ,72,2574745551922
14.7476068 ,Left ,60,8830941059104 ,46,9066971719181 ,72,2994252588724
14.7700055 ,Left ,60,9333487193713 ,46,8822467656487 ,72,3169881128358
14.7914273 ,Left ,61,0114017545711 ,46,8475631051631 ,72,3207526217153
14.8070848 ,Left ,61,0332223706327 ,46,8221871895674 ,72,3377646785294
14.8301798 ,Left ,61,0098547758073 ,46,789230699911 ,72,35713163687
14.852726 ,Left ,61,0151255664855 ,46,737014148421 ,72,3631086010438
14.8670382 ,Left ,61,0285132348336 ,46,6961313106987 ,72,362781691548
14.8900621 ,Left ,61,0239063126295 ,46,69028941746 ,72,3630156896048
14.9109815 ,Left ,61,0152703164995 ,46,7051444834748 ,72,3569595651393
14.9274134 ,Left ,61,0106226231339 ,46,7330480955403 ,72,344198830053
14.9502084 ,Left ,60,9903494722363 ,46,7680993541079 ,72,3218251152722
14.9712391 ,Left ,60,9665803652342 ,46,8037222396198 ,72,2933467480437
14.9878314 ,Left ,60,925981344066 ,46,8436237260665 ,72,2486440496485
15.0100894 ,Left ,60,8987492092322 ,46,8888214412016 ,72,1916664399787
15.0389606 ,Left ,60,8492704124948 ,46,9368435993204 ,72,1228014604433
15.0470199 ,Left ,60,7854917376569 ,46,9876847765474 ,72,0409806286833
15.0701513 ,Left ,60,7024863992404 ,47,04439095412 ,71,9601766770028
15.0911878 ,Left ,60,6098586798404 ,47,1065578151768 ,71,8629188944668
15.1137477 ,Left ,60,5280733665322 ,47,1647945885938 ,71,7645768196008
15.1299171 ,Left ,60,4212974498062 ,47,2413656440321 ,71,683366725542
15.1524315 ,Left ,60,3122251302372 ,47,3312698120261 ,71,6166570457129
15.1733962 ,Left ,60,1927741142723 ,47,3814975604518 ,71,5590859020882
15.1900742 ,Left ,60,1131698499577 ,47,3382065268517 ,71,532633010141
15.2124411 ,Left ,59,9958952381967 ,47,2078935638992 ,71,5444092441699
15.233317 ,Left ,59,9912983401429 ,47,086841714867 ,71,5742912721682
15.2499291 ,Left ,59,9602827807401 ,47,1399837913316 ,71,5878873866415
15.2725033 ,Left ,60,1601011222052 ,47,2121401202815 ,71,5993050118136
15.2870005 ,Left ,60,3495125739426 ,47,1772034560622 ,71,6033407107091
15.3177761 ,Left ,60,4233552588587 ,47,0691048178396 ,71,6013604564926
15.332697 ,Left ,60,3933525826552 ,47,0176545801604 ,71,6469887999495
15.3536088 ,Left ,60,2675875219186 ,47,0721353201914 ,71,7308966298277
15.3699274 ,Left ,60,3194979037973 ,47,1802762189533 ,71,7341677902909
15.3925621 ,Left ,60,4450308907791 ,47,1071320721497 ,71,7436090754984
15.4143066 ,Left ,60,3169396639206 ,46,9061487294069 ,71,7913733305542
15.4303752 ,Left ,60,2313626565726 ,46,6826377748081 ,71,8468645953179
15.4530059 ,Left ,60,3110825682292 ,46,628218197176 ,71,8633175485738
15.4741292 ,Left ,60,6157030153538 ,46,7109525174808 ,71,8710655386485
15.4905174 ,Left ,60,8687806686813 ,46,72076831624 ,71,8970537312181
15.5130511 ,Left ,61,0101210234796 ,46,6762854987058 ,71,9677947148649
15.5338266 ,Left ,61,0525760632731 ,46,6724191809688 ,72,069885600949
15.5501294 ,Left ,61,0654125364726 ,46,6959354814125 ,72,2021149829812
15.5725651 ,Left ,61,1323059370943 ,46,7266568003395 ,72,3201787502801
15.5935458 ,Left ,61,2526585873208 ,46,740429306961 ,72,4458047358735
15.6100428 ,Left ,61,3749679763126 ,46,7334184871977 ,72,5642843255016
15.6385557 ,Left ,61,4209208058876 ,46,7194258089834 ,72,6701576648116
15.653634 ,Left ,61,4105400189425 ,46,7047853439358 ,72,7662336777225
15.6699685 ,Left ,61,4361039026551 ,46,6945344874129 ,72,8406689897253
15.6925536 ,Left ,61,4651946079426 ,46,6918631835969 ,72,8897042195294
15.7133685 ,Left ,61,4807610494665 ,46,6946090154706 ,72,9344495586635
15.7299584 ,Left ,61,4628001596141 ,46,7062547276359 ,72,9739529409935
15.7525053 ,Left ,61,4526211075784 ,46,7170145182943 ,73,000628393597
15.7737104 ,Left ,61,4547886686856 ,46,7224020194582 ,73,0142538572581
15.790131 ,Left ,61,4709053330265 ,46,7247098108715 ,73,0129949522357
15.8126384 ,Left ,61,4667804380045 ,46,7265590462516 ,73,0125231662238
15.8337324 ,Left ,61,4557176025187 ,46,73837209125 ,73,0076447545588
15.8501256 ,Left ,61,4522913560263 ,46,7584436360868 ,72,9926449214761
15.8723319 ,Left ,61,4588196269248 ,46,7812801566033 ,72,9721623603398
15.8936887 ,Left ,61,4561070835487 ,46,7996912326874 ,72,954007005824
15.9100993 ,Left ,61,4503923524095 ,46,8144490793678 ,72,9369714115
15.9152869 ,Left ,61,4479745103161 ,46,8155560568603 ,72,9223491842781
15.937883 ,Left ,61,457769978448 ,46,814348048291 ,72,9070656127901
15.9606729 ,Left ,61,4666970056433 ,46,8078718660969 ,72,8843425290581
15.9756267 ,Left ,61,4659141643017 ,46,8112840224402 ,72,8679395611137
15.9980705 ,Left ,61,4517018177242 ,46,822850175283 ,72,8508741882643
16.0205675 ,Left ,61,4344967851798 ,46,8366030878172 ,72,8365979306806
16.035618 ,Left ,61,4221481579622 ,46,8497946195498 ,72,8204463379255
16.0581484 ,Left ,61,4157875031062 ,46,8569634385505 ,72,8039621131092
16.0805311 ,Left ,61,4053178392756 ,46,8584798878134 ,72,7905466420484
16.095503 ,Left ,61,3805507330357 ,46,8564321907553 ,72,789856783727
16.1178554 ,Left ,61,3576537736432 ,46,8531154699197 ,72,7892333569884
16.1406478 ,Left ,61,3593879026223 ,46,8523430480923 ,72,7751508671692
16.155319 ,Left ,61,3662314186854 ,46,8490636485782 ,72,7558255424361
16.1778994 ,Left ,61,3448356211678 ,46,8559488283645 ,72,7357946987008
16.2003538 ,Left ,61,3326697721667 ,46,867531787946 ,72,7022781233906
16.2153403 ,Left ,61,3146846988897 ,46,8729288474663 ,72,6656316268564
16.2380631 ,Left ,61,2809815526237 ,46,8721996605755 ,72,6321763500986
16.2606794 ,Left ,61,2098765471737 ,46,8696713339606 ,72,6153784737814
16.2752386 ,Left ,61,1292343908844 ,46,8725626226149 ,72,5982365874704
16.2977326 ,Left ,61,0595884723138 ,46,8729990937713 ,72,5886665103657
16.3202865 ,Left ,61,0031272143687 ,46,8688764621286 ,72,5780010088716
16.3353872 ,Left ,60,919994621399 ,46,8808778955896 ,72,5634647666269
16.358506 ,Left ,60,7562986254329 ,46,8776815177567 ,72,5476133241087
16.3809882 ,Left ,60,6517652003908 ,46,8314046099011 ,72,5022463301685
16.3959572 ,Left ,60,6202026242029 ,46,8457086424466 ,72,4521596258676
16.4183536 ,Left ,60,6546099885209 ,46,9359654243957 ,72,3859356736099
16.4406393 ,Left ,60,7749330313033 ,46,9155698703383 ,72,3213244380498
16.4557126 ,Left ,60,8332480209076 ,46,9026834728653 ,72,2907283444649
16.4783629 ,Left ,60,6979091656802 ,46,9116847100309 ,72,2738742067526
16.5008863 ,Left ,60,6181611375085 ,46,9747772390051 ,72,2528355365527
16.5156336 ,Left ,60,6636859419026 ,46,9928425695316 ,72,2115317319478
16.5383779 ,Left ,60,6588197073906 ,46,891212208809 ,72,1770890999389
16.5609063 ,Left ,60,4513846577223 ,46,7739643564204 ,72,2079748708391
16.5757294 ,Left ,60,3430497520504 ,46,7639580162731 ,72,2515125869841
16.5977813 ,Left ,60,5128253125138 ,46,8192442156006 ,72,2316998577773
16.6202853 ,Left ,60,7338844329374 ,46,7865594274399 ,72,1799486357758
16.6382375 ,Left ,60,7693553084831 ,46,6732323170036 ,72,1420400870986
16.658573 ,Left ,60,6459095498484 ,46,6542599941178 ,72,1743262584652
16.681045 ,Left ,60,5227757249387 ,46,7529559856581 ,72,2076905736045
16.6971728 ,Left ,60,6057757638295 ,46,8282851167909 ,72,1717140227011
16.7183454 ,Left ,60,5974510460193 ,46,7876560279639 ,72,173013317753
16.7405665 ,Left ,60,3908973404788 ,46,7690659491037 ,72,2313654880296
16.7569391 ,Left ,60,3548815337951 ,46,875349709938 ,72,2494939044742
16.7781614 ,Left ,60,5658873304716 ,46,9605129599929 ,72,2440509561222
16.8007824 ,Left ,60,6865961768293 ,46,9820892093019 ,72,2437978341847
16.8169603 ,Left ,60,6674497321138 ,46,9433503048512 ,72,2541873608676
16.8381569 ,Left ,60,6389211638274 ,46,9036528943245 ,72,2625804065303
16.8606912 ,Left ,60,6176062882674 ,46,8856745807267 ,72,2728695279808
16.8769838 ,Left ,60,6186475575276 ,46,9036526526051 ,72,2724214959293
16.8981244 ,Left ,60,6087898125234 ,46,947528694595 ,72,262959494568
16.9159082 ,Left ,60,5765406977131 ,46,9789793914834 ,72,2345667070944
16.9369898 ,Left ,60,5174330222712 ,46,99046213588 ,72,1954873987606
16.9581774 ,Left ,60,4149743270706 ,47,0117783416548 ,72,1617394479954
16.980577 ,Left ,60,3137451798047 ,47,0493149498985 ,72,1329110890213
16.9969872 ,Left ,60,2542494768825 ,47,0634006684659 ,72,1060213867798
17.0178748 ,Left ,60,2073571059728 ,47,0567754440357 ,72,062394245664
17.0404671 ,Left ,60,2443021947531 ,47,0451321295671 ,72,0608573393815
17.0585208 ,Left ,60,230865074289 ,47,181233190568 ,72,0667906672103
17.0781908 ,Left ,60,4423808094835 ,47,2684408114157 ,72,0525833812313
17.1006864 ,Left ,60,6864740876761 ,47,2155398220233 ,71,9941044919674
17.1184185 ,Left ,60,7527208770535 ,47,1537551758628 ,71,9461606661729
17.1378978 ,Left ,60,6590697002176 ,47,1340243383482 ,71,9297689539466
17.1606114 ,Left ,60,6301626077961 ,47,1158299784366 ,71,9134258390481
17.1786555 ,Left ,60,7142612919054 ,47,0897575123409 ,71,8900350553926
17.1981504 ,Left ,60,8002686095392 ,47,0615765243161 ,71,8718548816215
17.2159856 ,Left ,60,8496172036194 ,47,0233838967987 ,71,8599883377264
17.2391652 ,Left ,60,8832923389496 ,46,9486040005507 ,71,8482299411171
17.2610125 ,Left ,60,882707538546 ,46,8779103787312 ,71,8555631886877
17.2759913 ,Left ,60,8672665897739 ,46,8441842084581 ,71,8733256361796
17.2985948 ,Left ,60,8840607529843 ,46,8291886659239 ,71,8806615087597
17.3182643 ,Left ,60,8962180884658 ,46,8476810259 ,71,893852369043
17.3360613 ,Left ,60,8764788152605 ,46,8711446189869 ,71,9075870058398
17.3585766 ,Left ,60,8556091565591 ,46,8802214389698 ,71,9171081234167
17.3780393 ,Left ,60,8255052103453 ,46,8897181384855 ,71,9220332970969
17.3960487 ,Left ,60,8031906555092 ,46,9011370396501 ,71,9153223895964
17.4185878 ,Left ,60,7838100035685 ,46,9128049604352 ,71,8816426345294
17.4383121 ,Left ,60,7405747468818 ,46,9225732023561 ,71,8318272626448
17.4608809 ,Left ,60,6634885219382 ,46,9432651403106 ,71,7732025225603
17.4785991 ,Left ,60,5586824867514 ,46,9922961515185 ,71,720187042322
17.4982314 ,Left ,60,4489359022706 ,47,060786757428 ,71,6581698229378
17.516065 ,Left ,60,3258790067632 ,47,141233217088 ,71,5864689920654
17.5385668 ,Left ,60,2291034097554 ,47,2085185836604 ,71,5192452537928
17.5583639 ,Left ,60,1041586649314 ,47,2327348198325 ,71,4840188388592
17.575985 ,Left ,59,9670941855375 ,47,1752013505359 ,71,4824014721119
17.5985764 ,Left ,59,8402419667721 ,47,1001999823909 ,71,5114086843727
17.6182813 ,Left ,59,8198224273759 ,47,1468978928092 ,71,5681947661764
17.6359878 ,Left ,59,94829254662 ,47,2821246661687 ,71,6117083384808
17.6586258 ,Left ,60,2117306437333 ,47,238318686372 ,71,634697111115
17.6795746 ,Left ,60,3267735645159 ,47,1023856268002 ,71,611417926841
17.7008098 ,Left ,60,2531422694121 ,47,0320890030445 ,71,6197824319625
17.7185381 ,Left ,60,053880665052 ,47,0737455135743 ,71,681933052858
17.7390895 ,Left ,60,0970773874774 ,47,2104952552959 ,71,6306660052215
17.7556809 ,Left ,60,266226510529 ,47,1562867549186 ,71,5659169186406
17.7773919 ,Left ,60,2127593687372 ,46,9703779120889 ,71,5611465391934
17.7985506 ,Left ,60,0305203950318 ,46,7925136855906 ,71,6387560084509
17.8214325 ,Left ,60,0528584881743 ,46,8121970839347 ,71,6611066222818
17.8377753 ,Left ,60,4109133673 ,46,8801374169701 ,71,6269671735736
17.8590789 ,Left ,60,7147101181479 ,46,8707248231816 ,71,5849469848754
17.8814856 ,Left ,60,8091960980542 ,46,7928725362796 ,71,5865291920141
17.8978983 ,Left ,60,745405006876 ,46,7910070998005 ,71,6479678996902
17.9189643 ,Left ,60,72369934045 ,46,8059801661491 ,71,7165741157267
17.9344355 ,Left ,60,8506453635376 ,46,8265105301692 ,71,7631049168565
17.9577128 ,Left ,60,9699355904982 ,46,839257173522 ,71,82611636724
17.9800854 ,Left ,61,0290889297306 ,46,8503777950692 ,71,9103533201929
18.001447 ,Left ,61,0620271717048 ,46,8557797657189 ,71,9962656403499
18.0175963 ,Left ,61,1124677164504 ,46,8340506446681 ,72,0699951923965
18.0400176 ,Left ,61,1527855130638 ,46,8143655926191 ,72,1396940799862
18.0542641 ,Left ,61,1717969814335 ,46,7977211551401 ,72,2144207103531
18.0774822 ,Left ,61,1796030199504 ,46,7811778721044 ,72,2897763501976
18.0999715 ,Left ,61,1930548309409 ,46,7754574724735 ,72,3612801117248
18.1151317 ,Left ,61,2157999889045 ,46,7671785110093 ,72,4201441959477
18.1379972 ,Left ,61,2229374722561 ,46,7542145956615 ,72,4772133488331
18.1604364 ,Left ,61,2081893316999 ,46,7473042167702 ,72,5398551924292
18.1747966 ,Left ,61,1996923865406 ,46,7457619934458 ,72,5970240420911
18.1979288 ,Left ,61,2000272050149 ,46,7556522726667 ,72,6510127186115
18.2204557 ,Left ,61,1969570236471 ,46,7703321654233 ,72,7085355783607
18.2346733 ,Left ,61,206935449493 ,46,7900808400665 ,72,7534400951105
18.25799 ,Left ,61,2087279406982 ,46,8034543190414 ,72,7861808413367
18.2803849 ,Left ,61,2093261127097 ,46,8107594852178 ,72,8112180697412
18.3016468 ,Left ,61,2051177837351 ,46,8186121726129 ,72,8381926350426
18.317926 ,Left ,61,2056877226609 ,46,8321895747944 ,72,8651018485483
18.3404599 ,Left ,61,2144016266683 ,46,834496278808 ,72,8934208940332
18.3617212 ,Left ,61,2210646069415 ,46,8402676428588 ,72,9138014866974
18.3779106 ,Left ,61,232880648073 ,46,8401349544806 ,72,9279047151942
18.4036204 ,Left ,61,2337089616152 ,46,8487904397969 ,72,9363428073912
18.4163309 ,Left ,61,2283669092723 ,46,8625228857564 ,72,9476479591723
18.4370232 ,Left ,61,2400277851392 ,46,8598960608674 ,72,9467648716711
18.4583162 ,Left ,61,2270004667739 ,47,014147304916 ,72,9402577684358
18.4745635 ,Left ,61,127371560565 ,47,1873113583429 ,72,9420205154811
18.49701 ,Left ,61,2476169855946 ,47,1497455185143 ,72,902700521969
18.5182656 ,Left ,61,1354209766627 ,47,2390709850248 ,72,8938926985077
18.534538 ,Left ,61,2305755855612 ,47,1155134037296 ,72,8486173283498
18.556985 ,Left ,61,1711970801501 ,47,3231689140297 ,72,8227863999504
18.5782468 ,Left ,61,156858107103 ,47,121776811721 ,72,7905386899712
18.5944958 ,Left ,61,2387148669498 ,47,1016237261406 ,72,7413720362397
18.6170017 ,Left ,61,2081348212583 ,47,0709076932175 ,72,6996294271453
18.6379045 ,Left ,61,1614217976984 ,47,0427400267487 ,72,6748650414491
18.6542288 ,Left ,61,1118564951336 ,47,0137457433802 ,72,6522458741201
18.6768628 ,Left ,61,0153639399735 ,47,015934936496 ,72,6424916103458
18.6978909 ,Left ,60,9131312107007 ,47,026829240097 ,72,608890185074
18.7143453 ,Left ,60,8251978908274 ,46,9417243112219 ,72,563062918452
18.7367809 ,Left ,60,8941462342382 ,46,7199928824785 ,72,4849950995896
18.7579517 ,Left ,60,8912075232807 ,46,5198905465662 ,72,384453880534
18.7737084 ,Left ,60,8698489438446 ,46,5385445336075 ,72,2954875626821
18.7963756 ,Left ,60,9178991001135 ,46,5412479922139 ,72,2299941227969
18.8201009 ,Left ,60,9576330743411 ,46,5697128106033 ,72,1841288252614
18.8338047 ,Left ,60,8416878098018 ,46,5929653876793 ,72,1509661573689
18.8562884 ,Left ,60,7675935331871 ,46,6791618343244 ,72,121109962984
18.8788842 ,Left ,60,7137671401097 ,46,680418636007 ,72,0527421166956
18.8935555 ,Left ,60,666897473264 ,46,5908630977814 ,72,0169311628438
18.9161393 ,Left ,60,5210072248745 ,46,587781150998 ,72,0501683878532
18.9386773 ,Left ,60,5478558939223 ,46,7141796032927 ,72,0413848516898
18.9539438 ,Left ,60,8072110586871 ,46,74270324965 ,72,0018537871997
18.9761369 ,Left ,60,9684930498354 ,46,6702277427328 ,71,949578235697
18.9986958 ,Left ,60,8901340357483 ,46,5858924296041 ,71,9274884717045
19.013337 ,Left ,60,7418296285813 ,46,6071870255959 ,71,9605936239707
19.0361557 ,Left ,60,7006518228466 ,46,7286142783879 ,71,9387239616933
19.0585746 ,Left ,60,8232426452955 ,46,7136330825221 ,71,9056299461446
19.0734094 ,Left ,60,6590812408679 ,46,6575252778058 ,71,9364895870989
19.0959318 ,Left ,60,477665581093 ,46,7354243606204 ,71,970533267104
19.1188138 ,Left ,60,5869446589046 ,46,860852214356 ,71,9364510536306
19.134433 ,Left ,60,7794733207338 ,46,9135209699739 ,71,8837946137633
19.156306 ,Left ,60,8022167209475 ,46,9063225200985 ,71,8614485012302
19.1784903 ,Left ,60,7829490774182 ,46,8710114984936 ,71,8394444141343
19.1943876 ,Left ,60,7632364205165 ,46,8206647209223 ,71,8326684542628
19.2160897 ,Left ,60,7509264404072 ,46,8091866995035 ,71,832530143534
19.2386466 ,Left ,60,7131317845815 ,46,8461883178468 ,71,8382680390422
19.2550745 ,Left ,60,6685338536594 ,46,8979250291401 ,71,846713664593
19.2777587 ,Left ,60,7158263794708 ,46,8981459760486 ,71,8339656976203
19.2999779 ,Left ,60,7714935881873 ,46,8528925846052 ,71,8129099836855
19.3225971 ,Left ,60,7552756231786 ,46,8328309442268 ,71,8124557184547
19.3368267 ,Left ,60,722950546747 ,46,8286390857266 ,71,8188618320285
19.3601128 ,Left ,60,7156157335502 ,46,8109518764406 ,71,8125319662647
19.3825268 ,Left ,60,708014564353 ,46,792370992058 ,71,8086643983432
19.4036056 ,Left ,60,6537471973303 ,46,7731743273144 ,71,8207153703785
19.4202477 ,Left ,60,5700546862552 ,46,760787755942 ,71,8375254111137
19.4426438 ,Left ,60,5464732817065 ,46,7552026760643 ,71,8398147049868
19.4637642 ,Left ,60,4715532804771 ,46,7451561158441 ,71,8646336565596
19.4800999 ,Left ,60,3942873503165 ,46,7065451598813 ,71,8515932327091
19.5028319 ,Left ,60,4594730818434 ,46,6727147135407 ,71,8323627790063
19.5236444 ,Left ,60,4717154591618 ,46,8154048148187 ,71,809336746568
19.5402595 ,Left ,60,6232221559436 ,46,9259988234841 ,71,8073056262423
19.5626294 ,Left ,60,8258368854335 ,46,9440661666926 ,71,7859229226479
19.5838597 ,Left ,60,8912903574405 ,46,9213248827496 ,71,7786793084765
19.606341 ,Left ,60,830239491214 ,46,9177114022821 ,71,7903298171318
19.6226496 ,Left ,60,7930320668867 ,46,9292268781544 ,71,8055010351802
19.6451156 ,Left ,60,8537620790041 ,46,9427665937681 ,71,8075713223336
19.6594481 ,Left ,60,9350408281218 ,46,9309306865445 ,71,8067375579571
19.6825332 ,Left ,60,9537471265816 ,46,9147319482496 ,71,8141085512177
19.7051221 ,Left ,60,9449592511462 ,46,8742133415775 ,71,8228157605487
19.7194705 ,Left ,60,9508116033165 ,46,8295059762762 ,71,825040099729
19.7426591 ,Left ,60,959854538551 ,46,7858438448961 ,71,8116293038067
19.765063 ,Left ,60,9591714979882 ,46,7563579633049 ,71,7892649291043
19.7801039 ,Left ,60,9360274161377 ,46,7506645457192 ,71,7638755266301
19.8029948 ,Left ,60,8890463934252 ,46,7745181951882 ,71,73662030593
19.8254776 ,Left ,60,8227892275197 ,46,8074829538432 ,71,6974264835004
19.840123 ,Left ,60,7675599071728 ,46,8496142962644 ,71,6492533013739
19.862397 ,Left ,60,6940969851762 ,46,8900414934376 ,71,5973413909188
19.885075 ,Left ,60,5970628461487 ,46,9360309042661 ,71,5400608037823
19.9059371 ,Left ,60,5073189678144 ,46,99335530098 ,71,4712840449697
19.9225605 ,Left ,60,4334383465409 ,47,0466993992931 ,71,3857542415491
19.945088 ,Left ,60,3429143235671 ,47,0957769186787 ,71,3127768182061
19.9595115 ,Left ,60,203626782343 ,47,1729793327633 ,71,2496230395674
19.9825803 ,Left ,60,0760127995736 ,47,2185214397524 ,71,2046655111306
20.0051137 ,Left ,59,9623774960889 ,47,1658999238682 ,71,1847151005327
20.0260124 ,Left ,59,8674756778871 ,47,0813420820559 ,71,2165749298814
20.0427066 ,Left ,59,8958370474347 ,47,0479531942136 ,71,2529445478658
20.0649029 ,Left ,60,0806070309338 ,47,1006641968111 ,71,2493375880004
20.0863125 ,Left ,60,3112925144229 ,47,0232194040439 ,71,2417485452581
20.1025911 ,Left ,60,3247313350992 ,46,9274090968954 ,71,2049646124736
20.1250962 ,Left ,60,244844500825 ,46,9108745430176 ,71,2354790775963
20.146194 ,Left ,60,0939682870013 ,47,0277707745815 ,71,2834323386402
20.1625709 ,Left ,60,2461598136074 ,47,1607179578692 ,71,2405010194978
20.1850329 ,Left ,60,3401729917098 ,47,0683426220483 ,71,2375077155659
20.2063102 ,Left ,60,1488842307968 ,46,9341778761326 ,71,2925194899969
20.22262 ,Left ,60,1140519021446 ,46,762057982442 ,71,3393149709358
20.2451122 ,Left ,60,3182730414048 ,46,7064346576312 ,71,285755601731
20.2662354 ,Left ,60,5766896138861 ,46,7118204857128 ,71,2228658211694
20.2824692 ,Left ,60,7333738970041 ,46,6524715508454 ,71,187847635562
20.3051989 ,Left ,60,791803148164 ,46,5742457918184 ,71,2145153613686
20.3264655 ,Left ,60,7857266232604 ,46,543927063135 ,71,2839036338364
20.3426426 ,Left ,60,822087173691 ,46,5318581925841 ,71,35787909309
20.3650695 ,Left ,60,9150653108519 ,46,5176216549761 ,71,4361339427276
20.386297 ,Left ,61,0298016882406 ,46,487329574803 ,71,5173198356906
20.4027078 ,Left ,61,1167295992237 ,46,4534115966766 ,71,6094487530095
20.4251351 ,Left ,61,1544586815015 ,46,4193116718816 ,71,703804303801
20.4464346 ,Left ,61,1891173461369 ,46,3914628010601 ,71,7970763148873
20.4627529 ,Left ,61,2267927635234 ,46,361912009395 ,71,8851497028323
20.4849643 ,Left ,61,2598832775527 ,46,3429871623518 ,71,9757568002421
20.5061054 ,Left ,61,3016508560596 ,46,2912848024236 ,72,0591710508428
20.5226074 ,Left ,61,2290823434784 ,46,2561200038085 ,72,1645392975759
20.5451357 ,Left ,61,1579985081324 ,46,1623354337654 ,72,2687555653058
20.5662479 ,Left ,61,0467002175391 ,46,1951498699431 ,72,3721379828813
20.5824307 ,Left ,61,0471165225895 ,46,350359470151 ,72,4483321325905
20.6050737 ,Left ,61,1680852100333 ,46,3513373756442 ,72,4957448428397
20.6259791 ,Left ,61,1351799596852 ,46,2239352129165 ,72,5678312730785
20.6425465 ,Left ,61,0672805431398 ,46,3605239621017 ,72,6312126535568
20.6648626 ,Left ,61,1815908171978 ,46,3398991067659 ,72,6491116418235
20.686143 ,Left ,61,09521439001 ,46,2317206181793 ,72,7045943355057
20.7024896 ,Left ,61,0215832691633 ,46,382696849518 ,72,7475726248383
20.7252579 ,Left ,61,1431706903758 ,46,3781771314104 ,72,7459277272419
20.7463418 ,Left ,61,1023727735043 ,46,2706065975452 ,72,7738240515463
20.7626331 ,Left ,61,0277092260462 ,46,4243844626278 ,72,7972963846489
20.7851956 ,Left ,61,1388086763402 ,46,4377386255885 ,72,7814882118783
20.8079113 ,Left ,61,1228950166676 ,46,4683521999567 ,72,7980206431281
20.822665 ,Left ,61,1362675113767 ,46,4845262424651 ,72,7825034786875
20.8527453 ,Left ,61,1509576291551 ,46,5049823026762 ,72,7684913578803
20.8679256 ,Left ,61,1467336478058 ,46,5254198641239 ,72,7476102484971
20.8825069 ,Left ,61,1397583212818 ,46,5522966065655 ,72,7137189945217
20.9051917 ,Left ,61,1352528824868 ,46,5784049033455 ,72,6688432553777
20.9277093 ,Left ,61,1196290724788 ,46,6059123632207 ,72,6192530873774
20.9431016 ,Left ,61,0932041591468 ,46,6282752041338 ,72,5660484764499
20.9651485 ,Left ,61,0689698309133 ,46,6370988670184 ,72,5096527279896
20.9878964 ,Left ,61,0364299327703 ,46,6380208083633 ,72,4579282073112
21.0019402 ,Left ,61,0032151068172 ,46,6376016793849 ,72,4086443955504
21.0252516 ,Left ,60,9587285288115 ,46,6342143608995 ,72,3704354040598
21.0475862 ,Left ,60,9239136724615 ,46,6294159405161 ,72,342396142721
21.061949 ,Left ,60,8912572847568 ,46,6327451407066 ,72,3198949312955
21.0851695 ,Left ,60,8209680000677 ,46,6717670171949 ,72,3248956789559
21.1075471 ,Left ,60,7551948983791 ,46,7572756662861 ,72,3379167960009
21.1219565 ,Left ,60,6818334466717 ,46,7866456067607 ,72,3368357894963
21.1450779 ,Left ,60,6471971495504 ,46,7199325531342 ,72,3454582360929
21.1676507 ,Left ,60,5718515626128 ,46,7917580967619 ,72,3526677021697
21.1883787 ,Left ,60,6613306726094 ,46,9006926234673 ,72,3442227357466
21.2051624 ,Left ,60,8550516864411 ,46,8502685860436 ,72,283349127554
21.2277166 ,Left ,60,8553252603985 ,46,8150137620447 ,72,2233435462028
21.2489808 ,Left ,60,7087889602426 ,46,8228705003043 ,72,1821589699504
21.2654307 ,Left ,60,6405402796749 ,46,8724610611177 ,72,1073557537974
21.2876812 ,Left ,60,7051180525827 ,46,9366583968926 ,71,9995613582435
21.3089646 ,Left ,60,7285289571093 ,46,8909044519329 ,71,9143061212968
21.3252466 ,Left ,60,5121271631892 ,46,7771772924785 ,71,9136538962011
21.3477616 ,Left ,60,3775450483309 ,46,6700295427872 ,71,9545390640964
21.368854 ,Left ,60,4807802299402 ,46,6628710820224 ,71,9188694490684
21.3852977 ,Left ,60,6484283647419 ,46,7343434895276 ,71,886240237217
21.4078725 ,Left ,60,6934852115122 ,46,7538518119768 ,71,8669295474506
21.4287922 ,Left ,60,6888600285174 ,46,7111875629007 ,71,848961112269
21.4452477 ,Left ,60,6260825920998 ,46,7537148594802 ,71,8597535789584
21.46771 ,Left ,60,5934726016656 ,46,8570763872033 ,71,8706729351227
21.4892557 ,Left ,60,6217419402684 ,46,8342802360782 ,71,8698717549853
21.5055724 ,Left ,60,5496990463851 ,46,7979389928078 ,71,9069477469283
21.527991 ,Left ,60,5026726464322 ,46,806731624107 ,71,9417484559892
21.5491248 ,Left ,60,5947111838393 ,46,8567791408328 ,71,9368249875396
21.5655709 ,Left ,60,6611614116604 ,46,8864622744867 ,71,9136545094041
21.5879829 ,Left ,60,6444155736486 ,46,8633030685948 ,71,9095976537185
21.6087576 ,Left ,60,5483330147509 ,46,9346246460551 ,71,9381466934835
21.6251656 ,Left ,60,5698363844475 ,47,0287768604886 ,71,9378192341993
21.6477148 ,Left ,60,6502979107929 ,46,9962722687492 ,71,9226138947217
21.6534378 ,Left ,60,4976905912851 ,46,8860521089487 ,71,9235651341963
21.6758038 ,Left ,60,377891202936 ,46,7747432402356 ,71,9268655610439
21.6922009 ,Left ,60,4296108744755 ,46,7749623528597 ,71,9088293308511
21.713519 ,Left ,60,5101882824864 ,46,8551951786643 ,71,9038877627871
21.7357872 ,Left ,60,5821918692047 ,46,8687067014361 ,71,9211743285274
21.7521013 ,Left ,60,6300747687258 ,46,8200428522352 ,71,9309026637013
21.7733766 ,Left ,60,6173572036892 ,46,7702446362691 ,71,9618028072849
21.7957715 ,Left ,60,6164498162207 ,46,7425545298527 ,72,0038345249577
21.8122014 ,Left ,60,6657975090569 ,46,7111652699643 ,72,0325149560931
21.8333992 ,Left ,60,7433067266273 ,46,6822668926565 ,72,0395116381273
21.8556663 ,Left ,60,7628994146981 ,46,6628521693663 ,72,0379040125312
21.8718765 ,Left ,60,7676968600775 ,46,6499695982711 ,72,0298241385299
21.8930509 ,Left ,60,7920641440496 ,46,6258447280807 ,72,0001020642482
21.9154114 ,Left ,60,8072278431487 ,46,5978423853077 ,71,9649125532342
21.9316611 ,Left ,60,8063606128528 ,46,5917359850044 ,71,929717115598
21.9530438 ,Left ,60,7948357037363 ,46,6051640074497 ,71,8980386552273
21.9755028 ,Left ,60,78180765195 ,46,6362050508054 ,71,8570733740648
21.9968477 ,Left ,60,7699942240714 ,46,6722978401459 ,71,8012602063822
22.0134228 ,Left ,60,7238975592338 ,46,7096944063226 ,71,747803710623
22.0296487 ,Left ,60,7628994146981 ,46,6628521693663 ,72,0379040125312
22.046615 ,Left ,60,7238975592338 ,46,7096944063226 ,71,747803710623
22.0527103 ,Left ,60,6788455812615 ,46,7716898836723 ,71,6822503307912
22.055697 ,Left ,60,6817986441741 ,46,953376753824 ,71,5989491560586
22.0731751 ,Left ,60,7340019400141 ,47,0538732400592 ,71,4846885981311
22.0962977 ,Left ,60,5225102302578 ,46,9856798140903 ,71,4096509312058
22.1105199 ,Left ,60,5145104069865 ,47,1477323061085 ,71,2937411224847
22.13285 ,Left ,60,2767311425547 ,47,2057248681387 ,71,2177715073071
22.156109 ,Left ,60,3283181404159 ,47,2471188306854 ,71,1020998076538
22.1709108 ,Left ,60,0675755523507 ,47,3363391480617 ,71,0480917939233
22.1934034 ,Left ,59,9865216367414 ,47,3426943141365 ,71,0118432240013
22.2162846 ,Left ,59,838825903222 ,47,2808531308561 ,71,0131619588537
22.2305906 ,Left ,59,8457371846303 ,47,2264842999205 ,71,0346904828108
22.2533168 ,Left ,59,9284479075208 ,47,3244731871944 ,71,0475729870851
22.2761907 ,Left ,60,1519306903736 ,47,3441877106548 ,71,0544968078108
22.2907584 ,Left ,60,3560819679533 ,47,2254377486271 ,71,0370536595003
22.3133818 ,Left ,60,4578149396243 ,47,1677930826581 ,71,0313265389235
22.3365014 ,Left ,60,3861455130029 ,46,9271592318658 ,71,0785606864965
22.3508971 ,Left ,60,1857865039738 ,46,8566655871051 ,71,1495877351406
22.3733242 ,Left ,60,3525705885863 ,46,8558424084292 ,71,1074465115316
22.3965466 ,Left ,60,4149586456699 ,46,7346765699888 ,71,1205674478969
22.4106877 ,Left ,60,3524071652189 ,46,5501746849011 ,71,1264956519273
22.4330885 ,Left ,60,247403508435 ,46,3996675490317 ,71,1768871854418
22.4564467 ,Left ,60,2863911767663 ,46,3831935451895 ,71,1787242102123
22.4709323 ,Left ,60,528314129807 ,46,4378038102329 ,71,1768034850797
22.4931446 ,Left ,60,7749082427428 ,46,4328892526305 ,71,1809763482855
22.5163734 ,Left ,60,9100759833529 ,46,3547015508432 ,71,1933329060126
22.5307533 ,Left ,60,9265734700926 ,46,3184142512678 ,71,2600569031175
22.5621411 ,Left ,60,9619068593059 ,46,3108702108673 ,71,3407001993746
22.5764741 ,Left ,61,0485978904581 ,46,3212384505064 ,71,42756468885
22.5908719 ,Left ,61,1651909487078 ,46,3375337393693 ,71,5138903737246
22.6134025 ,Left ,61,2674352747839 ,46,3437141874296 ,71,6066204016126
22.6365446 ,Left ,61,3179988359079 ,46,3469270094655 ,71,6977861020348
22.6506445 ,Left ,61,3769305062075 ,46,3406451632497 ,71,782707309806
22.6734196 ,Left ,61,4292934660226 ,46,3306181416529 ,71,8628150176626
22.6962799 ,Left ,61,4521916079193 ,46,3226143871694 ,71,9380613681778
22.7105975 ,Left ,61,4676748593511 ,46,3233036240712 ,72,0116879434389
22.7328519 ,Left ,61,4685750154256 ,46,3377008352689 ,72,0695626090865
22.7493268 ,Left ,61,4838229014125 ,46,3533308907744 ,72,1224022684015
22.7703899 ,Left ,61,4896419123534 ,46,3535100023104 ,72,1632158662152
22.7928646 ,Left ,61,4783789190256 ,46,3596012195195 ,72,1937490398368
22.8094103 ,Left ,61,4677286599807 ,46,3676221746418 ,72,2193284730273
22.8305745 ,Left ,61,4618395513497 ,46,3944539811505 ,72,2343879171785
22.8531771 ,Left ,61,4559832352053 ,46,4258186635394 ,72,245120701713
22.8693879 ,Left ,61,4515000620645 ,46,4585461075563 ,72,2565590296046
22.8934237 ,Left ,61,4443387329232 ,46,4914429214746 ,72,2674974311449
22.9136024 ,Left ,61,4356057463257 ,46,5265430210812 ,72,275918609912
22.9313194 ,Left ,61,4364612023778 ,46,5597376537846 ,72,2830342298821
22.9537952 ,Left ,61,4250944398042 ,46,5950036678001 ,72,2909686452639
22.9736081 ,Left ,61,4175707140639 ,46,6305006244203 ,72,3026306773802
22.9914626 ,Left ,61,4218459407821 ,46,6608802562532 ,72,3097216119679
23.0135397 ,Left ,61,4221499760233 ,46,6871530578634 ,72,3147456792264
23.0331023 ,Left ,61,4184326628378 ,46,7077137840171 ,72,3228532073246
23.0512344 ,Left ,61,4141572730553 ,46,7281618583124 ,72,327994874178
23.073459 ,Left ,61,4061503291346 ,46,7454637177028 ,72,3285517497934
23.0932618 ,Left ,61,4020142078667 ,46,7589576292126 ,72,3231854176589
23.1111602 ,Left ,61,400576797246 ,46,7706646058171 ,72,3235335998691
23.133574 ,Left ,61,3880473609248 ,46,7808309511316 ,72,3181463609521
23.1532405 ,Left ,61,3905080492656 ,46,7774466350848 ,72,3035952609201
23.1712215 ,Left ,61,3861576738927 ,46,7775650244827 ,72,2829626464584
23.1934392 ,Left ,61,3685400798248 ,46,7854231102713 ,72,2504692297256
23.2128498 ,Left ,61,3389595721322 ,46,7946334828241 ,72,221452660082
23.2308222 ,Left ,61,2978333967836 ,46,8002807093397 ,72,191741933788
23.2533172 ,Left ,61,2562864658077 ,46,7982887420134 ,72,1625988841725
23.2730849 ,Left ,61,2105512915972 ,46,7850702772637 ,72,1433878098813
23.2910191 ,Left ,61,1561670710074 ,46,7715737854687 ,72,1364061193041
23.3134864 ,Left ,61,0920842191011 ,46,7601799383202 ,72,1421015493767
23.3345975 ,Left ,61,0256399611423 ,46,7526488981607 ,72,1485446360942
23.3510311 ,Left ,60,9955635064642 ,46,7464833969368 ,72,1490135918852
23.3738192 ,Left ,60,8806843635429 ,46,7256847048614 ,72,1617935495002
23.3948695 ,Left ,60,7698941464885 ,46,7021020427179 ,72,1361595752706
23.4113795 ,Left ,60,7631066831852 ,46,6683220921896 ,72,100615261611
23.4336118 ,Left ,60,7705570817833 ,46,7385640567868 ,72,0296285583982
23.4545034 ,Left ,60,8524989537559 ,46,796941291304 ,71,9510701586168
23.4711459 ,Left ,60,9514538892746 ,46,7710361480335 ,71,8858919650266
23.4936165 ,Left ,60,9520040141942 ,46,7734250407647 ,71,8369123304031
23.5136368 ,Left ,60,8282267976675 ,46,7851512534884 ,71,818774713049
23.5363932 ,Left ,60,8003754607613 ,46,8599606351461 ,71,7764880565025
23.5527619 ,Left ,60,8250500722995 ,46,8488760670859 ,71,7231768079291
23.5738489 ,Left ,60,8054714883661 ,46,7345145113856 ,71,6957735245495
23.5963275 ,Left ,60,5770380313112 ,46,6614050945245 ,71,7572048801219
23.6125554 ,Left ,60,5237987494901 ,46,733040343701 ,71,7830779501958
23.6351681 ,Left ,60,7589127489553 ,46,774876644791 ,71,7447963654384
23.6494009 ,Left ,60,8820037845915 ,46,7380108071712 ,71,7085027877663
23.6725861 ,Left ,60,7981749740789 ,46,6651553562491 ,71,702713489505
23.6950982 ,Left ,60,6852150814996 ,46,6712434637714 ,71,7355934470783
23.7161027 ,Left ,60,5867645927308 ,46,7950623973866 ,71,7647205316377
23.7325095 ,Left ,60,6517035354785 ,46,8067175872773 ,71,7552324136116
23.7553367 ,Left ,60,5709771887392 ,46,7920507476056 ,71,8104042401963
23.7697612 ,Left ,60,4517134287938 ,46,9091338166586 ,71,8716947182688
23.7930156 ,Left ,60,6078982615869 ,47,0041125172458 ,71,8697943212701
23.815388 ,Left ,60,7562380903611 ,46,9649509758429 ,71,8357535294815
23.8295917 ,Left ,60,6678917185896 ,46,9290797173125 ,71,8414400769596
23.8527305 ,Left ,60,5972649756094 ,46,9415916693057 ,71,8917408591419
23.8754046 ,Left ,60,5892013560282 ,46,9913799335012 ,71,9120313737837
23.8896959 ,Left ,60,6707309509996 ,46,9731150355947 ,71,9257488771669
23.9128518 ,Left ,60,5484748711813 ,46,8886567998207 ,71,9476869767572
23.9353023 ,Left ,60,375372869232 ,46,7844400154828 ,71,9316007079537
23.9562937 ,Left ,60,3577937867467 ,46,761512287661 ,71,9362323107381
23.9726079 ,Left ,60,4533050759804 ,46,8603455402937 ,71,9303182253903
23.9950921 ,Left ,60,6491060256109 ,46,9144687514364 ,71,9465961515265
24.0159247 ,Left ,60,8204994830242 ,46,8835190213498 ,71,9220633591347
24.0321963 ,Left ,60,8806331667695 ,46,7984425585553 ,71,9183694356658
24.0555925 ,Left ,60,8281318674904 ,46,737155006436 ,71,9324542748206
24.0767761 ,Left ,60,8233597655277 ,46,7054636364141 ,71,9255591372444
24.0929772 ,Left ,60,8975350969166 ,46,7129881805332 ,71,8644844868938
24.1153558 ,Left ,60,9871267457365 ,46,65235975656 ,71,779164804173
24.1300949 ,Left ,61,1010582916978 ,46,7209416702158 ,71,6856827450443
24.1526485 ,Left ,61,2111511957808 ,46,7101110731424 ,71,5747020042724
24.1751811 ,Left ,61,2126753228246 ,46,5825408392219 ,71,4909557077645
24.1963017 ,Left ,61,0396268017007 ,46,5900650758257 ,71,4465175814917
24.2126223 ,Left ,61,0085485050852 ,46,7659692673017 ,71,3787834009154
24.2352006 ,Left ,61,0387896995932 ,46,6935318052223 ,71,303507381343
24.2563783 ,Left ,60,8921682558667 ,46,6976240076044 ,71,2586186676571
24.2725705 ,Left ,60,8922700797025 ,46,8549264655062 ,71,1892758434447
24.2951857 ,Left ,60,8911740121641 ,46,757829624728 ,71,1316727669096
24.3162871 ,Left ,60,701405926308 ,46,8474909013023 ,71,0929740546176
24.33248 ,Left ,60,7232727638942 ,47,0368589018437 ,71,0078236316959
24.3551115 ,Left ,60,7000519672038 ,46,9783825297749 ,70,933281206064
24.3762376 ,Left ,60,4330731293284 ,47,0746604758807 ,70,8997471527537
24.3926093 ,Left ,60,2001083755329 ,47,0967533835705 ,70,8553241261371
24.4150494 ,Left ,60,0998332359667 ,47,1102420120198 ,70,8130830632791
24.4359627 ,Left ,60,0044189740948 ,47,0766644093901 ,70,8046775873572
24.4523034 ,Left ,59,9546574219006 ,47,0139377737986 ,70,8387630330426
24.4753933 ,Left ,60,0058243701012 ,47,061243947339 ,70,8537270054408
24.5040828 ,Left ,60,2226302820668 ,47,1305502741541 ,70,8388486879174
24.5121226 ,Left ,60,4180203046851 ,47,0526727358956 ,70,8005871847499
24.5354342 ,Left ,60,4624323391637 ,46,9235290945738 ,70,7885249513167
24.5566538 ,Left ,60,3945961097652 ,46,8950276435798 ,70,8602082385981
24.5722288 ,Left ,60,2482324225224 ,46,9462230159946 ,70,9028380390212
24.5952929 ,Left ,60,4353979121292 ,46,9532681671997 ,70,8427671014303
24.6177964 ,Left ,60,5117315859424 ,46,817795372927 ,70,8239686637349
24.632093 ,Left ,60,3974074735035 ,46,6570691578672 ,70,8476746349942
24.6551639 ,Left ,60,2643778744146 ,46,4997300182263 ,70,8930090792567
24.6776533 ,Left ,60,3004648827649 ,46,482752333422 ,70,8968592624941
24.6919873 ,Left ,60,4970857591625 ,46,5103006544559 ,70,8727430635563
24.7151279 ,Left ,60,7416584614925 ,46,4405657104888 ,70,8473380537344
24.7376611 ,Left ,60,8472050641129 ,46,3556650266984 ,70,8763533369983
24.7519972 ,Left ,60,82040468462 ,46,3247200825371 ,70,9554525315856
24.7752023 ,Left ,60,8443849283656 ,46,3203545228182 ,71,0395275636528
24.7975646 ,Left ,60,9662698869529 ,46,3457606543495 ,71,1158889367936
24.8186688 ,Left ,61,0815083181212 ,46,3567826319201 ,71,196283483614
24.8351748 ,Left ,61,1380151194105 ,46,367518942041 ,71,2971089090529
24.8575766 ,Left ,61,1935292842054 ,46,3703968577414 ,71,3932605106551
24.8785326 ,Left ,61,243771517217 ,46,3736780528757 ,71,4862867023816
24.8950992 ,Left ,61,3079586847817 ,46,3710660127422 ,71,5750179045458
24.9173927 ,Left ,61,3289860023664 ,46,3633969367992 ,71,6713366046728
24.9387247 ,Left ,61,3316538940998 ,46,3629799624063 ,71,7746640696272
24.9551163 ,Left ,61,333913930708 ,46,3696948283668 ,71,8720203340891
24.9774721 ,Left ,61,3455958959405 ,46,370944769206 ,71,9531341655313
24.9920197 ,Left ,61,3569088893839 ,46,3713155595066 ,72,0228217425982
25.0151502 ,Left ,61,3568529090194 ,46,3748256733362 ,72,0913256753729
25.0377136 ,Left ,61,3578652999401 ,46,3827628161674 ,72,1473298408199
25.0519841 ,Left ,61,3602649007189 ,46,4010893629401 ,72,1954029795629
25.0751288 ,Left ,61,354515223308 ,46,4362169846788 ,72,2325477282288
25.1036836 ,Left ,61,3518594953442 ,46,4643522697737 ,72,2570586126724
25.1189635 ,Left ,61,3597315279875 ,46,4905182656047 ,72,2719282649638
25.1351922 ,Left ,61,3572665705822 ,46,5202446368252 ,72,2913104057249
25.1577766 ,Left ,61,3498191439895 ,46,560783671062 ,72,3099909095831
25.1789781 ,Left ,61,3536953607713 ,46,6004167209203 ,72,3195369663437
25.1951192 ,Left ,61,3773743108061 ,46,6266387231023 ,72,3153620676864
25.2177758 ,Left ,61,390221429019 ,46,6434048772732 ,72,3089761290257
25.238746 ,Left ,61,3784483692472 ,46,6575577710922 ,72,3049377591649
25.2551986 ,Left ,61,3666370186093 ,46,6701026404428 ,72,3060743606764
25.2776047 ,Left ,61,3669765753429 ,46,6952488630863 ,72,3022722863839
25.2985514 ,Left ,61,3692718354421 ,46,7162300812382 ,72,2976842479718
25.3151792 ,Left ,61,3677957441589 ,46,7324527762154 ,72,2937037829289
25.3379134 ,Left ,61,3655619692998 ,46,7401770327445 ,72,2926851749696
25.3590699 ,Left ,61,3627180525301 ,46,753429329088 ,72,2931779074102
25.3813837 ,Left ,61,3534423454371 ,46,7664342980838 ,72,2921699145855
25.3977631 ,Left ,61,3436504489448 ,46,7764010963261 ,72,2873364557204
25.4190807 ,Left ,61,3364604750065 ,46,7847720322646 ,72,2854523433153
25.4352188 ,Left ,61,3139277434452 ,46,7994118015309 ,72,2820238863553
25.4577331 ,Left ,61,2968443333916 ,46,8064534281939 ,72,2803644504126
25.4790273 ,Left ,61,2764674120447 ,46,8146939733184 ,72,2839773688245
25.4952884 ,Left ,61,2591417166809 ,46,8207900619531 ,72,2847986979759
25.5177526 ,Left ,61,2591417166809 ,46,8207900619531 ,72,2847986979759
25.5402066 ,Left ,61,2585871562384 ,46,8210729254366 ,72,2679185991618
25.5553201 ,Left ,61,2626756703451 ,46,8203566908607 ,72,237725472
25.5777747 ,Left ,61,2430073087276 ,46,8154274406467 ,72,2040061094873
25.6004003 ,Left ,61,202041755461 ,46,8180212610547 ,72,1735633447745
25.6151159 ,Left ,61,1341798845069 ,46,8383313622956 ,72,1566817925365
25.6376412 ,Left ,61,0665796337611 ,46,8692927612165 ,72,151402543882
25.6598745 ,Left ,61,0243808733374 ,46,908370998363 ,72,1426364444831
25.6751409 ,Left ,60,9840871321392 ,46,9121561355249 ,72,1213800034138
25.6975033 ,Left ,60,8351742598104 ,46,8547979133906 ,72,1134872057025
25.7201602 ,Left ,60,6827693201966 ,46,746455543646 ,72,0868436302185
25.7347171 ,Left ,60,6542949782395 ,46,6738427693324 ,72,0313005318784
25.7579523 ,Left ,60,712341053219 ,46,7331317911306 ,71,9366960245621
25.7800579 ,Left ,60,8023392112075 ,46,7751542272176 ,71,8689126530462
25.8012495 ,Left ,60,8221655890251 ,46,8053072360777 ,71,8453170017968
25.8173655 ,Left ,60,7151482545626 ,46,8267413532963 ,71,8305108591817
25.8401861 ,Left ,60,6019709129249 ,46,9238239193836 ,71,8054086610945
25.8613266 ,Left ,60,6293059169901 ,46,9689652378189 ,71,716237560648
25.8777142 ,Left ,60,652963700907 ,46,8618535814653 ,71,628274628828
25.9001744 ,Left ,60,4705592138841 ,46,7262947340759 ,71,6238861218604
25.921275 ,Left ,60,2915535558045 ,46,700048759292 ,71,6704244744323
25.9374427 ,Left ,60,3955895006021 ,46,7657645366425 ,71,6538804235391
25.9601903 ,Left ,60,6340700681547 ,46,79973479917 ,71,6159126507514
25.9814507 ,Left ,60,720740189829 ,46,7634641548451 ,71,5754404044565
25.9977972 ,Left ,60,6624375422788 ,46,7689481520386 ,71,590853194575
26.0203561 ,Left ,60,465432756712 ,46,8501841696617 ,71,639617573688
26.0415368 ,Left ,60,4996144569278 ,46,948855370309 ,71,6344451225394
26.0579454 ,Left ,60,5925682058375 ,46,9169012955031 ,71,6403224427611
26.079937 ,Left ,60,4318938060841 ,46,9400945403016 ,71,7177880534836
26.1011306 ,Left ,60,4130170802613 ,47,0846161202934 ,71,7422796743856
26.1175128 ,Left ,60,6395465539602 ,47,1258002864375 ,71,6991271871679
26.1399748 ,Left ,60,6823026307442 ,47,0684196983363 ,71,6777254789032
26.1610567 ,Left ,60,5438842032096 ,47,0431449491354 ,71,6876229234742
26.1774377 ,Left ,60,4055778790976 ,47,0923983950608 ,71,7267049220115
26.2001073 ,Left ,60,4876770265802 ,47,0986596166675 ,71,7167488832484
26.2213025 ,Left ,60,5378392232778 ,47,0275495716426 ,71,706756161196
26.2374544 ,Left ,60,3006841273052 ,46,9637644124396 ,71,7326851677666
26.2599541 ,Left ,60,2547531953331 ,46,8412009305795 ,71,7659898107392
26.2809276 ,Left ,60,3291994382624 ,46,8668055746644 ,71,7476975781821
26.2976137 ,Left ,60,426116129761 ,46,9497491097882 ,71,7792487068046
26.3208516 ,Left ,60,5424533238377 ,46,9201439699729 ,71,7821252848689
26.3409844 ,Left ,60,6344421696111 ,46,8270992003919 ,71,7795912800949
26.3570087 ,Left ,60,6236335489301 ,46,7569202831989 ,71,8024636717131
26.3801546 ,Left ,60,6136305004912 ,46,7062271019826 ,71,8199316143591
26.4014611 ,Left ,60,6493102616026 ,46,6688159658186 ,71,805316385057
26.4179184 ,Left ,60,699093601191 ,46,6673757950353 ,71,7812239540649
26.446498 ,Left ,60,7168938001287 ,46,6869384198823 ,71,7485582050582
26.461408 ,Left ,60,7391672822106 ,46,7184524097861 ,71,703604412022
26.4779092 ,Left ,60,7349589948697 ,46,7465378924766 ,71,6501203222525
26.5002081 ,Left ,60,7175533130466 ,46,7787313561785 ,71,5955287370316
26.5226349 ,Left ,60,689748777334 ,46,8326158646774 ,71,5396873536331
26.5376219 ,Left ,60,6210178549203 ,46,8978132259059 ,71,4795651195923
26.5601322 ,Left ,60,543479248485 ,46,9535307557423 ,71,4237496928335
26.5827563 ,Left ,60,456885425329 ,47,0082530766878 ,71,3525668888068
26.6054434 ,Left ,60,349991804889 ,47,0621733984217 ,71,2590938688077
26.6138723 ,Left ,60,2660008016618 ,47,1402820787368 ,71,168915578456
26.6337707 ,Left ,60,1769678023553 ,47,2369993496788 ,71,0751199946884
26.6495349 ,Left ,59,9946364500888 ,47,14900487959 ,71,0100302032464
26.672042 ,Left ,59,9406479723929 ,46,9584032274114 ,70,965613866701
26.6937712 ,Left ,59,7530369257432 ,46,9459448212606 ,70,9651106831372
26.7094508 ,Left ,59,7934040915811 ,46,7942975142387 ,70,9417197576869
26.7319414 ,Left ,59,6685756761107 ,46,9590828454784 ,71,0059537198296
26.7550926 ,Left ,59,7888858867583 ,46,868667042191 ,71,0470809552533
26.7695054 ,Left ,59,9785739693567 ,47,0573975646593 ,71,0634249786865
26.7924197 ,Left ,60,079767904022 ,46,9786310314903 ,71,0409420673668
26.8153472 ,Left ,60,1257101251273 ,46,8947798543204 ,71,0453017201688
26.829946 ,Left ,60,0880281291116 ,46,8596188987619 ,71,0942817311917
26.8521719 ,Left ,59,9921801321138 ,46,8586755487791 ,71,1348439241064
26.8752793 ,Left ,60,1177177198165 ,46,8571454381743 ,71,1065701277206
26.8896702 ,Left ,60,1866884124791 ,46,7480501888252 ,71,0572885598134
26.9121748 ,Left ,60,1122294824083 ,46,6171221079861 ,71,049687118215
26.9352493 ,Left ,59,8484968335919 ,46,6689626483264 ,71,1323645578744
26.9496145 ,Left ,59,8190028445369 ,46,9172814570006 ,71,1890730712003
26.972198 ,Left ,60,1301980090199 ,47,0363673114811 ,71,2059658175279
26.9966742 ,Left ,60,3708085023301 ,47,0098653310932 ,71,2406352942851
27.0163461 ,Left ,60,4523813434031 ,46,9018411871229 ,71,2769939333946
27.032177 ,Left ,60,4338807031319 ,46,8527970448595 ,71,3441512776929
27.0552067 ,Left ,60,4583611820189 ,46,850508047498 ,71,4156022931135
27.0764099 ,Left ,60,5611843066883 ,46,8660711324661 ,71,4817033387128
27.0919396 ,Left ,60,6741179120857 ,46,9009180347552 ,71,5474395946548
27.1151263 ,Left ,60,7311624520494 ,46,9284271560575 ,71,6315119441145
27.1363817 ,Left ,60,7614889389321 ,46,9408296385372 ,71,7092502100319
27.1520362 ,Left ,60,8137501270681 ,46,9394630874522 ,71,7712459874861
27.1751444 ,Left ,60,8643162052753 ,46,9237985451593 ,71,8263333673
27.1893196 ,Left ,60,8886744693125 ,46,9091935172801 ,71,8822345506237
27.2118924 ,Left ,60,8956632034134 ,46,8993830499891 ,71,9442935367258
27.235315 ,Left ,60,9151796697346 ,46,895200491246 ,72,0024279494667
27.256122 ,Left ,60,9485873242828 ,46,8886227110345 ,72,0433998646113
27.2720734 ,Left ,60,9917479095863 ,46,8797613116589 ,72,0719897763977
27.295521 ,Left ,60,9944208980878 ,46,8704270231496 ,72,0948989514041
27.324379 ,Left ,60,9830327678798 ,46,8716706906283 ,72,1151698189413
27.3321727 ,Left ,60,9842743524081 ,46,8844736834407 ,72,1246275367809
27.3552547 ,Left ,61,0075630315177 ,46,8952687841028 ,72,1270013331315
27.3765411 ,Left ,61,0239305342928 ,46,9011367979232 ,72,1293115146501
27.3913434 ,Left ,61,0270528711203 ,46,9054330172106 ,72,1395955183663
27.4056158 ,Left ,61,0288923514115 ,46,9111369055676 ,72,1527558201165
27.428449 ,Left ,61,0350113035947 ,46,9234481383938 ,72,1603700526996
27.4515412 ,Left ,61,0543333500233 ,46,9285108862054 ,72,1659265764387
27.4656986 ,Left ,61,0804233272059 ,46,9289489880001 ,72,1688113671717
27.4883581 ,Left ,61,0830657041946 ,46,9373966670844 ,72,1746186667284
27.5106708 ,Left ,61,0778627848258 ,46,9601586040631 ,72,1801156617269
27.5253136 ,Left ,61,0742655180375 ,46,9852206435883 ,72,1838545366689
27.5478825 ,Left ,61,0695867218884 ,47,0082742002338 ,72,1895894831976
27.5705415 ,Left ,61,0690470901436 ,47,0210383662369 ,72,1903965166135
27.5854409 ,Left ,61,0773405217453 ,47,0171731365915 ,72,1910841259804
27.608085 ,Left ,61,0803642650236 ,47,0108951684445 ,72,1787170449656
27.6305165 ,Left ,61,0751504906695 ,47,0112297542251 ,72,1526448098579
27.6451796 ,Left ,61,0627027994577 ,47,0089386839141 ,72,1159361286081
27.6677819 ,Left ,61,0377573425717 ,47,004135331805 ,72,0702975680231
27.6904008 ,Left ,60,9943203805541 ,46,9950084067959 ,72,0307798329311
27.7057269 ,Left ,60,9249354239179 ,46,9934029883453 ,72,01031292979
27.7281842 ,Left ,60,8469000388488 ,47,0090382654824 ,71,9987426393067
27.7507125 ,Left ,60,7849068367393 ,47,0099615318603 ,71,9891329629355
27.7655975 ,Left ,60,7569571935847 ,46,9682771269967 ,71,9773380911474
27.7881668 ,Left ,60,7273751193983 ,46,8890216214571 ,71,9741434083439
27.8103174 ,Left ,60,6000369812052 ,46,8381367397691 ,71,9852183154752
27.8253873 ,Left ,60,4579449729888 ,46,8094374180371 ,71,969952655599
27.8478383 ,Left ,60,4129501700536 ,46,8484190243137 ,71,941690425595
27.8706674 ,Left ,60,4546501067571 ,46,9720244719259 ,71,8782365544993
27.8855353 ,Left ,60,6310178226039 ,47,0162870028526 ,71,8118112995227
27.9081309 ,Left ,60,7504998804009 ,46,9953008025834 ,71,7937369530821
27.9304798 ,Left ,60,6903099617419 ,46,9886207149947 ,71,7663238872408
27.945621 ,Left ,60,5321132836912 ,46,9923566367646 ,71,7533598311727
27.968199 ,Left ,60,5401833577594 ,47,0243788116373 ,71,6899192703613
27.9903969 ,Left ,60,6168292534846 ,46,9787633722357 ,71,6237403431896
28.0070673 ,Left ,60,5886392002891 ,46,8809968551089 ,71,5969862837955
28.0277901 ,Left ,60,3624976076696 ,46,7884620073873 ,71,6267424126098
28.0505083 ,Left ,60,2413334987668 ,46,7813231281573 ,71,6526679941225
28.0670952 ,Left ,60,2909174676108 ,46,840372269363 ,71,6358586793771
28.0880673 ,Left ,60,4062565483965 ,46,8790989219602 ,71,6204356710683
28.1120263 ,Left ,60,4643072150866 ,46,8288011899032 ,71,6064495247861
28.1270142 ,Left ,60,442339402137 ,46,7404807790347 ,71,5845599701489
28.1480636 ,Left ,60,2625371505185 ,46,7663772741526 ,71,6226146238648
28.1704265 ,Left ,60,2291293303065 ,46,8510299016497 ,71,6386643509478
28.1883066 ,Left ,60,3068808402014 ,46,8091536655828 ,71,6359332759426
28.2080002 ,Left ,60,282884213219 ,46,8293948028745 ,71,6860508788484
28.2306611 ,Left ,60,2083663982962 ,46,9731885765756 ,71,737542147868
28.2471046 ,Left ,60,3771260129041 ,47,0439214873658 ,71,7245761671164
28.2682042 ,Left ,60,4793731775928 ,47,0255707871525 ,71,6950963433607
28.2908196 ,Left ,60,372373622659 ,46,9880347888184 ,71,7196269776853
28.3070253 ,Left ,60,2242435537299 ,47,0598668211642 ,71,7551095956753
28.3284683 ,Left ,60,2833297401683 ,47,0861804943851 ,71,7265926718871
28.3507071 ,Left ,60,3238681475516 ,47,0042789788866 ,71,712224338416
28.3671021 ,Left ,60,1156247346189 ,46,8994680188071 ,71,7320001737623
28.3884412 ,Left ,59,8890677161896 ,46,7770030969192 ,71,7445533767801
28.4108861 ,Left ,59,9597695779052 ,46,7383969196273 ,71,719414666865
28.4286582 ,Left ,60,0954047555139 ,46,8446636511891 ,71,6792486268089
28.4481614 ,Left ,60,2490369273799 ,46,9499619437305 ,71,6734818573972
28.4703282 ,Left ,60,4095287943665 ,46,9521799980929 ,71,6486900801262
28.488093 ,Left ,60,4741226100724 ,46,891471129825 ,71,6414059325487
28.5077712 ,Left ,60,4375844824107 ,46,8488665126331 ,71,6561272344755
28.5338541 ,Left ,60,4222100210019 ,46,8275205578192 ,71,6503714170286
28.5487668 ,Left ,60,4760748611635 ,46,8034483894428 ,71,6155350416242
28.56833 ,Left ,60,5318097617181 ,46,7839207446856 ,71,5575446439958
28.5861912 ,Left ,60,521798622526 ,46,7841197383803 ,71,5012973037256
28.6088551 ,Left ,60,4897413942592 ,46,78125618936 ,71,4404806564229
28.6277857 ,Left ,60,4828667072957 ,46,7887574544282 ,71,3817395849948
28.6457483 ,Left ,60,4715051412365 ,46,8152535724856 ,71,3244210179744
28.6684996 ,Left ,60,4300009979012 ,46,8632956924444 ,71,2896427515639
28.6880008 ,Left ,60,337451366676 ,46,9041766985592 ,71,2575328887501
28.7060737 ,Left ,60,2986381045161 ,47,0629550703962 ,71,2073519456469
28.7284734 ,Left ,60,1220344482329 ,47,2186861658072 ,71,1619550722156
28.7484605 ,Left ,60,0332206733447 ,47,4424708146184 ,71,0996001483913
28.7712031 ,Left ,60,0718893482005 ,47,5372867915872 ,71,0262111656071
28.7888506 ,Left ,60,0070777949721 ,47,4354405907201 ,70,9659772948778
28.8080336 ,Left ,59,772965257473 ,47,4320987118851 ,70,9384622961204
28.8303341 ,Left ,59,7203514868721 ,47,4802288625104 ,70,9103478092209
28.8482412 ,Left ,59,6603576412879 ,47,2586413264119 ,70,9125770304167
28.86808 ,Left ,59,4744608636837 ,47,369652157413 ,70,9662879055353
28.890632 ,Left ,59,6855639442257 ,47,5717810508752 ,70,9914783236346
28.9076629 ,Left ,59,9718059509927 ,47,3872771006982 ,71,0052414170922
28.9301703 ,Left ,59,9899068758234 ,47,2719249355247 ,70,9910990180831
28.9512474 ,Left ,60,0186163059586 ,47,2276794148938 ,70,9683824455038
28.9684525 ,Left ,60,0054743858408 ,47,0346218650508 ,71,0087319623996
28.9894586 ,Left ,59,9835917607215 ,47,1307722963364 ,71,027378128852
29.0114705 ,Left ,60,1893482196446 ,47,0821915977104 ,70,9985972058624
29.0308273 ,Left ,60,2590981264265 ,46,9296440740713 ,70,9802177599401
29.0481194 ,Left ,60,172728040496 ,46,7514772076279 ,71,0049732628246
29.0707335 ,Left ,60,1339378200717 ,46,8029291242767 ,71,01753970551
29.0857042 ,Left ,60,4001760565989 ,46,7603792352237 ,70,9934084637841
29.1081054 ,Left ,60,6312348391827 ,46,5628278288623 ,70,9917948408024
29.1307665 ,Left ,60,8459185963814 ,46,7222421153068 ,71,0024454268893
29.1457752 ,Left ,60,9468388812066 ,46,4058040761981 ,71,0505268854441
29.1684033 ,Left ,61,0427995217575 ,46,5524933024902 ,71,1003875961907
29.190977 ,Left ,60,9999747108173 ,46,4032550633791 ,71,1952318098368
29.205843 ,Left ,61,1947372682009 ,46,5866659823914 ,71,2499332685642
29.2284231 ,Left ,61,3943740207925 ,46,6557617683418 ,71,3251868441489
29.2446213 ,Left ,61,4669081023359 ,46,7117463380605 ,71,4281124266143
29.2656026 ,Left ,61,512791776701 ,46,7242865615136 ,71,5240479309761
29.2878104 ,Left ,61,5431958278834 ,46,7195753006758 ,71,6203602251737
29.304357 ,Left ,61,5681697229601 ,46,7153792456114 ,71,715926205086
29.3253944 ,Left ,61,5773876176622 ,46,7130168941141 ,71,8202259400953
29.347871 ,Left ,61,6728420699645 ,46,7495468339618 ,71,9053117399417
29.3643859 ,Left ,61,5580648442136 ,46,7009078855443 ,72,0221507340227
29.386945 ,Left ,61,5229096216694 ,46,5713452213464 ,72,101988580498
29.4084265 ,Left ,61,5508937841692 ,46,5840693175048 ,72,1709902095459
29.4246368 ,Left ,61,5364298863246 ,46,5737626951191 ,72,2212288392796
29.4540741 ,Left ,61,5243776083195 ,46,5929190321343 ,72,2610698746687
29.468462 ,Left ,61,5211919446278 ,46,6169143042345 ,72,2845043970071
29.4846168 ,Left ,61,5115775264773 ,46,6452106364887 ,72,302142814489
29.5070621 ,Left ,61,4861925462351 ,46,6674719285099 ,72,3201653573309
29.5284503 ,Left ,61,462818891477 ,46,6928372879129 ,72,3366959739757
29.5446512 ,Left ,61,4396702671147 ,46,732248925216 ,72,3517954632443
29.5671254 ,Left ,61,4191621601372 ,46,7563384685063 ,72,3600671646183
29.5881032 ,Left ,61,4046819891618 ,46,7645674991518 ,72,3649526149364
29.6046052 ,Left ,61,3731210601693 ,46,7753849600433 ,72,3724575160334
29.6271447 ,Left ,61,3524897384614 ,46,7843350722239 ,72,3733592225742
29.6481349 ,Left ,61,3481246086959 ,46,7968733977613 ,72,3704610078829
29.664571 ,Left ,61,3415514762518 ,46,8114896013536 ,72,3620574945098
29.6871497 ,Left ,61,3352328151911 ,46,8214007941548 ,72,3466925898342
29.7083572 ,Left ,61,319684076929 ,46,8386583125466 ,72,3258476590568
29.7246215 ,Left ,61,2948626559895 ,46,8661442867914 ,72,300403244953
29.7470464 ,Left ,61,2692823373657 ,46,8855140430518 ,72,2640187545666
29.7677862 ,Left ,61,2486090902692 ,46,9002566653721 ,72,2162143136436
29.7845102 ,Left ,61,2099711105767 ,46,9095575209261 ,72,1713766540891
29.8069318 ,Left ,61,1581461597249 ,46,9126756550845 ,72,1388102834639
29.8278162 ,Left ,61,0975547572534 ,46,9116380628065 ,72,1200279568205
29.8445031 ,Left ,61,0360051140188 ,46,899571238275 ,72,1119595277133
29.8670924 ,Left ,60,9851255917988 ,46,8875086525313 ,72,1034125306299
29.8877845 ,Left ,60,9409368470923 ,46,8766147002307 ,72,0939805857635
29.9044509 ,Left ,60,8894894288628 ,46,8729103488593 ,72,0879764008522
29.927681 ,Left ,60,7814541693165 ,46,8312634387795 ,72,0795577595102
29.9502425 ,Left ,60,7266366848887 ,46,7367600462042 ,72,0399848563327
29.9713959 ,Left ,60,6712293230923 ,46,7557900693221 ,72,0013316799872
29.9877796 ,Left ,60,6733369902402 ,46,8931855237269 ,71,9481800711001
30.0101754 ,Left ,60,8059028467556 ,46,9264261853051 ,71,8678145946751
30.0315065 ,Left ,60,8821310486897 ,46,9104675228788 ,71,8040495687384
30.0478427 ,Left ,60,8002182139424 ,46,8924086538529 ,71,7415427968712
30.0702247 ,Left ,60,663316207126 ,46,9053202575177 ,71,7023925166544
30.0915672 ,Left ,60,6169735703634 ,46,9729812367295 ,71,6194797991276
30.1071249 ,Left ,60,6650427858748 ,46,9652725829105 ,71,5174102864275
30.130141 ,Left ,60,6482076565537 ,46,8835101963845 ,71,4807078345044
30.151454 ,Left ,60,4096622579901 ,46,8108057075547 ,71,5158304763815
30.1671782 ,Left ,60,3486355678303 ,46,8514993860457 ,71,542946040296
30.1903341 ,Left ,60,5510063744441 ,46,9256264356964 ,71,5260168611982
30.21136 ,Left ,60,7237145084264 ,46,941090817289 ,71,4971844053091
30.2270931 ,Left ,60,6891460588878 ,46,8926603184484 ,71,4879984820869
30.2500821 ,Left ,60,563815755027 ,46,905900974298 ,71,517549767504
30.2727553 ,Left ,60,4781308598727 ,47,0127114751889 ,71,5390283016687
30.2870744 ,Left ,60,5462492756857 ,47,0384036401835 ,71,5180945322814
30.3101481 ,Left ,60,5175826463068 ,46,9719429598346 ,71,5434549270595
30.332619 ,Left ,60,2975718006233 ,46,9296187016613 ,71,6251645517323
30.3470246 ,Left ,60,3260543839995 ,47,0078780423298 ,71,6483547884416
30.3763714 ,Left ,60,5648489106239 ,47,0717228163358 ,71,6068769998563
30.3929042 ,Left ,60,6125965481159 ,47,0580026712225 ,71,5577537099935
30.4070133 ,Left ,60,5131916038704 ,47,0071150528538 ,71,5603972622253
30.4301349 ,Left ,60,3925771265471 ,47,0873129956667 ,71,6060228187025
30.4526999 ,Left ,60,4140615722946 ,47,1410148370211 ,71,594769550971
30.4738782 ,Left ,60,5257807112863 ,47,0607149820081 ,71,5747754685468
30.4900173 ,Left ,60,3343089942944 ,46,8876406576658 ,71,5770826373174
30.5127657 ,Left ,60,1696766563727 ,46,7069584514087 ,71,5942897370412
30.5337705 ,Left ,60,2147468733083 ,46,7184153392034 ,71,5503989722793
30.5500207 ,Left ,60,3291003016791 ,46,8461224019591 ,71,5327062528542
30.572745 ,Left ,60,4399828713803 ,46,8792320289993 ,71,5204492934383
30.5938543 ,Left ,60,5214878442363 ,46,8657378864598 ,71,5042977647747
30.6100757 ,Left ,60,5152197401637 ,46,8205110690001 ,71,5154958532446
30.6326185 ,Left ,60,488786327047 ,46,7924301754124 ,71,5085130966522
30.6469871 ,Left ,60,5042598568707 ,46,7703160639404 ,71,4944635194227
30.6701584 ,Left ,60,5592201206317 ,46,7572634367761 ,71,4626946172969
30.6926459 ,Left ,60,5688260703783 ,46,7569402621894 ,71,4262556486138
30.7136043 ,Left ,60,547301040657 ,46,7694827773598 ,71,3877727172544
30.7299898 ,Left ,60,5146682873718 ,46,7929213107988 ,71,34496999282
30.7527407 ,Left ,60,5055846146846 ,46,8236965627958 ,71,294911411101
30.7752256 ,Left ,60,4974591910137 ,46,8616669975325 ,71,2497700247674
30.789921 ,Left ,60,4597358247402 ,46,9012043605718 ,71,1998342788824
30.8124814 ,Left ,60,4315110722039 ,46,942758137658 ,71,1470314270527
30.8351782 ,Left ,60,377539295392 ,46,9899676172037 ,71,0913702980886
30.8502731 ,Left ,60,3233013881092 ,47,0328053075083 ,71,0213363720696
30.8727668 ,Left ,60,271203383549 ,47,0793177551018 ,70,945075184298
30.8954074 ,Left ,60,175009764123 ,47,1364377692478 ,70,8749886124838
30.9096364 ,Left ,60,0733589502711 ,47,1603343106491 ,70,8087520629982
30.9328074 ,Left ,59,9985156831592 ,47,1408910639713 ,70,7624763733083
30.9551963 ,Left ,59,8907723652235 ,47,089235355617 ,70,7449608637254
30.9701726 ,Left ,59,9198919639581 ,47,0415571017463 ,70,7532931449933
30.9929214 ,Left ,59,9870365679927 ,47,1387562827742 ,70,7360793487953
31.0153788 ,Left ,60,2496905659283 ,47,216930758191 ,70,7397705900666
31.0365111 ,Left ,60,483042186027 ,47,1517255461582 ,70,7170331690944
31.052739 ,Left ,60,5394403035821 ,47,034643585311 ,70,7047067320595
31.0752776 ,Left ,60,4603800023781 ,46,9442751498162 ,70,7301160835707
31.0966061 ,Left ,60,3557798202182 ,46,9391673527397 ,70,7803550062914
31.1190208 ,Left ,60,3734801888148 ,47,0113628880943 ,70,7683900785441
31.1352147 ,Left ,60,4315451529255 ,46,9156435838659 ,70,7813289806878
31.1635816 ,Left ,60,4933232768889 ,46,7024822787649 ,70,8003131089982
31.1723855 ,Left ,60,4914682149509 ,46,4185817960025 ,70,8128636068404
31.1937099 ,Left ,60,4553482848152 ,46,22185463868 ,70,8231835334388
31.2093725 ,Left ,60,5034182278963 ,46,326292306981 ,70,8172675082167
31.2327278 ,Left ,60,7576511000057 ,46,4944654377701 ,70,7973278111579
31.2551631 ,Left ,60,9677406300857 ,46,3613629299372 ,70,7787453274277
31.2695048 ,Left ,60,8626007184589 ,46,3713103251204 ,70,8481273176453
31.292755 ,Left ,60,9270100404964 ,46,4788856994434 ,70,8805123886786
31.3151111 ,Left ,61,0070564650212 ,46,356945419171 ,70,9357562119473
31.3294969 ,Left ,60,9682458730709 ,46,4330765497057 ,71,0236864436017
31.3526817 ,Left ,61,1192173913231 ,46,561785118913 ,71,0923451514277
31.3751404 ,Left ,61,2030478858391 ,46,4191542626316 ,71,1783806821076
31.3895286 ,Left ,61,1093794216882 ,46,4425244277076 ,71,3023004195799
31.4124065 ,Left ,61,1198537626932 ,46,5130967761972 ,71,4039049929772
31.4348924 ,Left ,61,1501352816607 ,46,5179518258103 ,71,4878656961648
31.4562693 ,Left ,61,1654183580338 ,46,5035896855289 ,71,5694123678551
31.4725201 ,Left ,61,1596837311022 ,46,4966692065289 ,71,6548038462622
31.4949835 ,Left ,61,1483580353802 ,46,5040261114877 ,71,723964692945
31.5094708 ,Left ,61,1433879827115 ,46,5073084545442 ,71,7849769465631
31.5326181 ,Left ,61,1420583206927 ,46,5177240591174 ,71,8349169413854
31.5552856 ,Left ,61,134280608873 ,46,5351977973819 ,71,8800465383195
31.5694134 ,Left ,61,1331896510776 ,46,5707287016967 ,71,926140119187
31.5926805 ,Left ,61,132789714201 ,46,6030352527329 ,71,9603426305612
31.6149622 ,Left ,61,120020841763 ,46,640826219269 ,71,9936404327184
31.6294912 ,Left ,61,1029227394291 ,46,6742945444966 ,72,0220526857809
31.652539 ,Left ,61,0962596094369 ,46,6997805984231 ,72,0503333222576
31.674987 ,Left ,61,0997307028579 ,46,7099410869261 ,72,0678788160314
31.6892027 ,Left ,61,0977084409492 ,46,7108446871219 ,72,0816696451774
31.7124602 ,Left ,61,0907894626526 ,46,72115076051 ,72,0887634123413
31.7351483 ,Left ,61,0906976860726 ,46,7268530349332 ,72,0931486424352
31.7564961 ,Left ,61,1011508454618 ,46,7344134971049 ,72,0863203911959
31.7727132 ,Left ,61,0985101676069 ,46,7530305777043 ,72,0799918636638
31.7952146 ,Left ,61,0965391708857 ,46,7721508850392 ,72,0627539227294
31.8161822 ,Left ,61,0795007858661 ,46,7912084959897 ,72,0396566609932
31.8327542 ,Left ,61,0436872308144 ,46,8081610684182 ,72,0149021416791
31.855277 ,Left ,61,0016097615787 ,46,8102073560853 ,71,9902778600858
31.8765189 ,Left ,60,9544832972907 ,46,7948116327257 ,71,9707966495633
31.8927112 ,Left ,60,9029329165998 ,46,7689831400859 ,71,9560285799599
31.9151817 ,Left ,60,8541227323094 ,46,7245442181713 ,71,9478572878579
31.9364239 ,Left ,60,7934038172692 ,46,6950748444607 ,71,9583863991462
31.9529054 ,Left ,60,704017952312 ,46,7066105887693 ,71,9914883616263
31.9752225 ,Left ,60,5839892262189 ,46,6923744748024 ,72,003680742246
31.996246 ,Left ,60,5388116278168 ,46,6238917260432 ,71,9855037424779
32.0127426 ,Left ,60,4693204192632 ,46,6645015532199 ,71,9696108942646
32.0413601 ,Left ,60,4782207452894 ,46,7985951645967 ,71,9488222085502
32.0563899 ,Left ,60,6164880823642 ,46,8337266994882 ,71,8879830352741
32.0721456 ,Left ,60,7148454223503 ,46,8155175809126 ,71,846674075533
32.0952054 ,Left ,60,6116396393984 ,46,8115966860949 ,71,8122611435749
32.1163842 ,Left ,60,4345972004977 ,46,8582688684948 ,71,7782873223456
32.1401223 ,Left ,60,4580037942047 ,46,9257664740034 ,71,6859301616952
32.1550895 ,Left ,60,5134943347542 ,46,8502202099045 ,71,588421613596
32.1774044 ,Left ,60,3905958058772 ,46,7232348481548 ,71,5708333085521
32.191998 ,Left ,60,1957514478132 ,46,659727514676 ,71,632906558066
32.2149963 ,Left ,60,2289951275734 ,46,7030006472022 ,71,6251012006184
32.2377969 ,Left ,60,4482161686937 ,46,7464636574318 ,71,5762282651085
32.2521843 ,Left ,60,5388612325777 ,46,7152668178079 ,71,5348742000785
32.2751893 ,Left ,60,4883443171863 ,46,7121403375008 ,71,5414058100246
32.2976918 ,Left ,60,3297981260564 ,46,7880693673057 ,71,5664597397668
32.3121536 ,Left ,60,3541991093209 ,46,8714067484288 ,71,5465050202158
32.3351781 ,Left ,60,4189648767185 ,46,8239717940518 ,71,5263068258225
32.357882 ,Left ,60,2612595989027 ,46,810736616041 ,71,5849229020876
32.3790744 ,Left ,60,1804962087907 ,46,9695709831395 ,71,6283622581016
32.3953158 ,Left ,60,4109925507501 ,47,0552256116373 ,71,5952096094717
32.4176998 ,Left ,60,5634242656315 ,47,0262417713091 ,71,5451164273427
32.4387254 ,Left ,60,4813941720816 ,46,9548953813029 ,71,523954881026
32.4551355 ,Left ,60,344671193185 ,46,9956307425926 ,71,5507126107298
32.4775905 ,Left ,60,3054129006644 ,47,0420843765607 ,71,5344011176087
32.4987067 ,Left ,60,4421380206993 ,46,9823118607791 ,71,488856989601
32.5150057 ,Left ,60,3314007483789 ,46,8622338824252 ,71,4885544297658
32.5375837 ,Left ,60,1304182297237 ,46,7645204018184 ,71,5100391983114
32.5586771 ,Left ,60,1671597802641 ,46,7478853732204 ,71,4985371908759
32.575116 ,Left ,60,2892849983401 ,46,8262027649473 ,71,4717679060644
32.5975444 ,Left ,60,426706830792 ,46,8679854562931 ,71,466138158552
32.6184874 ,Left ,60,5327894953332 ,46,8145977823568 ,71,4435451268586
32.6351221 ,Left ,60,5498384454967 ,46,743119978425 ,71,4272307061751
32.6575211 ,Left ,60,5033181373891 ,46,6886024239161 ,71,4207927295404
32.6789085 ,Left ,60,5063651046392 ,46,6566228559954 ,71,3938357874154
32.6951424 ,Left ,60,5335142765207 ,46,6624254209841 ,71,3374755931145
32.7180659 ,Left ,60,531520036511 ,46,6945887777776 ,71,2727735801586
32.7406105 ,Left ,60,4684665463603 ,46,7448029777018 ,71,2158462653202
32.7580589 ,Left ,60,3844952973032 ,46,8100691719417 ,71,1705320940561
32.7726989 ,Left ,60,3142333670351 ,46,8658343780083 ,71,1062329272988
32.7911027 ,Left ,60,2446872729025 ,46,9095114767306 ,71,0339621480721
32.8069214 ,Left ,60,0486897297815 ,46,9449946275194 ,70,9900141776171
32.8300304 ,Left ,60,0605748264448 ,47,063885467836 ,70,9004735230512
32.8514727 ,Left ,60,0268805497585 ,46,903332857209 ,70,8348585199331
32.8671862 ,Left ,59,8879079393172 ,47,1222916600243 ,70,8031505126534
32.8901483 ,Left ,59,7550347655378 ,46,8873552506877 ,70,7974585937687
32.9111095 ,Left ,59,6882599828943 ,47,0319735201012 ,70,7865073939486
32.9269879 ,Left ,59,5963659898979 ,46,8534457453808 ,70,8268130780845
32.9502087 ,Left ,59,6532077544476 ,47,1314467967462 ,70,8610649488864
32.9711434 ,Left ,59,8412041839999 ,47,1791042038051 ,70,9027660877023
32.9869867 ,Left ,60,0627408198122 ,47,0759429263626 ,70,8906797425155
33.0099518 ,Left ,60,1431348596316 ,46,9264354888878 ,70,8724970759554
33.0311383 ,Left ,60,0931993191799 ,46,8244906779643 ,70,8914265848381
33.0469542 ,Left ,60,0281519702656 ,46,8456075304688 ,70,9530705160139
33.0701399 ,Left ,60,0646997666956 ,46,9113528615751 ,70,9518279205659
33.0909754 ,Left ,60,2055576341415 ,46,9555633124416 ,70,9568621232625
33.1068008 ,Left ,60,1247693623615 ,46,6694167561539 ,70,9765688014207
33.1208591 ,Left ,60,0003266528027 ,46,4303796665852 ,71,0026897063165
33.1531368 ,Left ,59,9562768133752 ,46,4847784217367 ,71,022986507664
33.1666836 ,Left ,60,1568602291884 ,46,5745445090528 ,71,0108985739264
33.1809121 ,Left ,60,4292010943171 ,46,6018381726752 ,71,0069518682689
33.2036024 ,Left ,60,5950405301147 ,46,5484306945152 ,71,0171246988536
33.226547 ,Left ,60,5795668036551 ,46,4855817434595 ,71,0678484127534
33.2407451 ,Left ,60,5737327061862 ,46,4516196393096 ,71,1417184771892
33.2635093 ,Left ,60,6513606927082 ,46,4517125333247 ,71,2006516988597
33.2865302 ,Left ,60,7541366332334 ,46,4605386067764 ,71,2693433030304
33.3006801 ,Left ,60,8323521623087 ,46,4749047198245 ,71,357701473108
33.3233764 ,Left ,60,8745179111576 ,46,4805618663549 ,71,4487138503395
33.3460936 ,Left ,60,9133706457593 ,46,4876981670275 ,71,5401624401226
33.360625 ,Left ,60,9504823900392 ,46,4979822489018 ,71,6240770185374
33.3830793 ,Left ,60,9925164896261 ,46,5016139498332 ,71,6992681891106
33.4061944 ,Left ,61,0057568825964 ,46,4982624489585 ,71,7699408284131
33.4204994 ,Left ,61,0038836592899 ,46,4841445081836 ,71,8349369337194
33.4430992 ,Left ,61,0064194401286 ,46,4738151469294 ,71,8909394838342
33.4663076 ,Left ,61,0200502984439 ,46,463276271204 ,71,9350780651556
33.4806763 ,Left ,61,0394796536897 ,46,4645379024824 ,71,9726171284142
33.5030835 ,Left ,61,0478494740941 ,46,4742026497902 ,72,0047909818325
33.5264629 ,Left ,61,0510639315609 ,46,4879240852848 ,72,034426014043
33.5406681 ,Left ,61,0509060689307 ,46,5066183683071 ,72,0563368808705
33.5632888 ,Left ,61,0594606833434 ,46,5223522575898 ,72,0764250058748
33.5861525 ,Left ,61,0703123140681 ,46,5348449953419 ,72,0932803609116
33.6005618 ,Left ,61,0848320704653 ,46,5470510630182 ,72,102382732342
33.6229047 ,Left ,61,0878868877951 ,46,5573758039028 ,72,1031134477203
