timestamp,event,roll,pitch,yaw
0.0128574 ,Left ,62,0738043759179 ,48,226890936718 ,41,8081592244864
0.0357308 ,Left ,62,1278748011888 ,48,2363817615783 ,41,8293627286826
0.0566333 ,Left ,62,1725281766082 ,48,2390466771598 ,41,855639919743
0.0732765 ,Left ,62,2053503093629 ,48,2399233586409 ,41,8787322495886
0.0957517 ,Left ,62,2186866654548 ,48,2448540552675 ,41,8958060817525
0.1166658 ,Left ,62,2125957950228 ,48,2479108399533 ,41,9132774773616
0.1330931 ,Left ,62,2039084603537 ,48,2535220936503 ,41,9319952197588
0.1561705 ,Left ,62,1871414829347 ,48,2652319541974 ,41,9481996626842
0.1772456 ,Left ,62,1647401694351 ,48,2751594440987 ,41,9643833948268
0.1935211 ,Left ,62,1432373050214 ,48,2818564748681 ,41,9791797429452
0.2160986 ,Left ,62,1245515887032 ,48,2777143878431 ,41,9954902303158
0.2385375 ,Left ,62,1152975878066 ,48,2729352230799 ,42,007892950487
0.2533536 ,Left ,62,1036654047318 ,48,2642108489326 ,42,0167568776569
0.2758864 ,Left ,62,0862548711744 ,48,2582022863141 ,42,0278232891803
0.2981933 ,Left ,62,068262614632 ,48,2523447446176 ,42,0432739038914
0.3133918 ,Left ,62,055757708953 ,48,2447364210873 ,42,0549455323009
0.3358808 ,Left ,62,0485203074789 ,48,2325274727533 ,42,0662302766498
0.3582916 ,Left ,62,0435796337666 ,48,2191068042897 ,42,0808007139876
0.3724709 ,Left ,62,0296100025225 ,48,2127609092946 ,42,0996598904727
0.395722 ,Left ,62,0118168278413 ,48,2126773773735 ,42,1174357290816
0.4179667 ,Left ,62,0014284015378 ,48,2121792874349 ,42,1296025595511
0.4330035 ,Left ,61,9869148421003 ,48,2099336842646 ,42,1438355886843
0.4558335 ,Left ,61,9858227282517 ,48,2064572127921 ,42,1575675406598
0.478113 ,Left ,61,9902035090664 ,48,2062339337988 ,42,1717779853668
0.4927179 ,Left ,61,9933148569853 ,48,2007192715835 ,42,1884058783716
0.5157015 ,Left ,61,9998835835691 ,48,1936773494457 ,42,1995578965666
0.5382543 ,Left ,61,9980298119959 ,48,1885429253274 ,42,2063536850365
0.5526446 ,Left ,61,9907518329804 ,48,1912815470847 ,42,2064892935456
0.5757751 ,Left ,61,9937904603352 ,48,2033186246421 ,42,1937461664627
0.5980841 ,Left ,62,0002190710312 ,48,2226645814034 ,42,1748133308165
0.6126617 ,Left ,61,9928236846135 ,48,2419136490915 ,42,1602488065823
0.6359229 ,Left ,61,9819655863323 ,48,2576302735375 ,42,1468833505136
0.6582318 ,Left ,61,9621178328415 ,48,2753784410244 ,42,1334895817028
0.6726158 ,Left ,61,9418092657854 ,48,2955462286837 ,42,1189607565314
0.695824 ,Left ,61,9223036540859 ,48,3262950028586 ,42,1065479908405
0.7182802 ,Left ,61,9133084712992 ,48,3482478232809 ,42,0995106340851
0.7395538 ,Left ,61,9034401715648 ,48,3691258413253 ,42,0967058967898
0.7554004 ,Left ,61,8989469486801 ,48,3881203490422 ,42,0941644943665
0.7786833 ,Left ,61,8952338991107 ,48,4066244074084 ,42,1000064934891
0.7997058 ,Left ,61,8903455575455 ,48,4299436185618 ,42,116740490642
0.8161517 ,Left ,61,8864521520347 ,48,450565033132 ,42,1342039857167
0.8385274 ,Left ,61,8881232342848 ,48,4678020929923 ,42,1514739220954
0.8598902 ,Left ,61,8906357530482 ,48,4817574977492 ,42,1674303709019
0.8761486 ,Left ,61,8889460802669 ,48,4955610558606 ,42,1818876054961
0.8986323 ,Left ,61,8848339374843 ,48,5054236689146 ,42,192820385444
0.9197175 ,Left ,61,8766106607512 ,48,5107642280156 ,42,196096423955
0.9356405 ,Left ,61,8766106607512 ,48,5107642280156 ,42,196096423955
0.9582245 ,Left ,61,8736089272058 ,48,4959960502084 ,42,1992114266034
0.9794787 ,Left ,61,8787624376623 ,48,4736234605346 ,42,204515353138
0.9957561 ,Left ,61,8888048650996 ,48,4407991156017 ,42,2112424709073
1.018265 ,Left ,61,9037068172601 ,48,40415731709 ,42,2200447291986
1.0392866 ,Left ,61,9333779743655 ,48,367739838992 ,42,2309210342677
1.0554871 ,Left ,61,967371641892 ,48,3315286429395 ,42,2391559995753
1.0782001 ,Left ,62,0048172239182 ,48,2986928285951 ,42,2500780019355
1.099267 ,Left ,62,0287206853398 ,48,2753767711144 ,42,2585729819838
1.1157154 ,Left ,62,0505802571443 ,48,2582990331944 ,42,2589177057378
1.1386499 ,Left ,62,0615661765318 ,48,250908864465 ,42,256348648457
1.160951 ,Left ,62,0682469545248 ,48,2610589761804 ,42,2509044964225
1.1760117 ,Left ,62,0673820185699 ,48,2909384333394 ,42,24610826775
1.1984096 ,Left ,62,0530452554938 ,48,3397464030878 ,42,2403241511764
1.2211803 ,Left ,62,0262652736016 ,48,3970971572642 ,42,2162081686624
1.2360546 ,Left ,61,986094009885 ,48,4644679314817 ,42,1915706878661
1.2580039 ,Left ,61,9471298600983 ,48,5480467787165 ,42,1710799387373
1.2811321 ,Left ,61,8888540873425 ,48,6362514671344 ,42,159055276872
1.2954726 ,Left ,61,8312456281533 ,48,7136826107471 ,42,1636628518318
1.318643 ,Left ,61,7625247401545 ,48,7942421695826 ,42,1813975117875
1.3411695 ,Left ,61,6938986326682 ,48,8631546928364 ,42,2069466390613
1.3554473 ,Left ,61,6422824969868 ,48,9130198173899 ,42,2376465867699
1.3786655 ,Left ,61,5865096866356 ,48,9259908902514 ,42,2646854543284
1.4010548 ,Left ,61,5330434241442 ,48,8974054343796 ,42,3073726381879
1.4152641 ,Left ,61,5103881676463 ,48,8524419025712 ,42,3570172650468
1.4379294 ,Left ,61,517194554882 ,48,79603144407 ,42,4024449875542
1.4611467 ,Left ,61,5728342321002 ,48,7133666314406 ,42,4334508766055
1.475509 ,Left ,61,6437840643463 ,48,6283444485085 ,42,4464349311651
1.4986212 ,Left ,61,7953713468011 ,48,5871213631756 ,42,4008202175807
1.5208909 ,Left ,61,9255273456227 ,48,5648145689154 ,42,3223678321207
1.5415708 ,Left ,62,0225323154554 ,48,5562648922284 ,42,2450095117764
1.5580948 ,Left ,62,1202580323274 ,48,5412038892211 ,42,1753985540398
1.5806922 ,Left ,62,2017080576909 ,48,5059975131649 ,42,1252490143401
1.6018043 ,Left ,62,2268852580077 ,48,4689337173498 ,42,0804036520699
1.6180598 ,Left ,62,1892016012236 ,48,4650145160586 ,42,0671244212876
1.6406495 ,Left ,62,1007127427732 ,48,4622220073396 ,42,087852182458
1.6620574 ,Left ,62,0436136401476 ,48,4357849256723 ,42,1156197798263
1.6783986 ,Left ,61,9967482309924 ,48,3916016242253 ,42,1347617422137
1.7008831 ,Left ,61,9801626642999 ,48,3594979522981 ,42,1177415844708
1.7219355 ,Left ,62,0378377961987 ,48,3579825167735 ,42,110403628671
1.7380599 ,Left ,62,1134467074361 ,48,3790078564769 ,42,0689412292016
1.7611137 ,Left ,62,1701671925665 ,48,3769540721183 ,42,0250288692007
1.7821629 ,Left ,62,2290662006282 ,48,3968988356132 ,42,0264315646765
1.7986656 ,Left ,62,2493868287518 ,48,444046543461 ,41,9912291207279
1.8212851 ,Left ,62,1933669356979 ,48,4734009309573 ,41,9535741374834
1.842358 ,Left ,62,1497762396127 ,48,4750965797287 ,41,9673715566734
1.8586449 ,Left ,62,1804637609088 ,48,4697125906202 ,42,0165312168551
1.8808079 ,Left ,62,1810296121324 ,48,5060339589979 ,42,0465491724082
1.9018562 ,Left ,62,0763154505187 ,48,5417097383425 ,42,0637248462878
1.9181855 ,Left ,62,0101699766744 ,48,5879513671089 ,42,1222515772942
1.9482261 ,Left ,61,9766969317111 ,48,68372130695 ,42,1785742138699
1.9617655 ,Left ,61,9411211648208 ,48,7877336527914 ,42,2190942491737
1.9782751 ,Left ,61,8409291362154 ,48,826837629524 ,42,2352618842461
2.0006074 ,Left ,61,7084549685093 ,48,7996629846383 ,42,3041124189604
2.0217149 ,Left ,61,5479760449851 ,48,743284994067 ,42,4014534370787
2.0375292 ,Left ,61,4680729734131 ,48,659164866485 ,42,4414756100829
2.0607912 ,Left ,61,456011840493 ,48,6022992808361 ,42,4020350321607
2.0818191 ,Left ,61,4186558768346 ,48,6027410318332 ,42,3006699733357
2.0976615 ,Left ,61,3656979554298 ,48,6510875694624 ,42,2218403046313
2.1208617 ,Left ,61,399631183237 ,48,6956884653038 ,42,181183004652
2.1432112 ,Left ,61,4948417850298 ,48,727109478796 ,42,1399993581002
2.1576584 ,Left ,61,557765461469 ,48,7699068202862 ,42,0646990862347
2.1807262 ,Left ,61,5604266567589 ,48,828339125689 ,41,9777638075909
2.2034455 ,Left ,61,5340211895711 ,48,8813184188474 ,41,9056637756024
2.2259229 ,Left ,61,4731470240116 ,48,9136518968047 ,41,8469648648591
2.2405616 ,Left ,61,360050383784 ,48,9512996371602 ,41,8142644866216
2.2638543 ,Left ,61,2000994394118 ,48,9553089453647 ,41,8044343659666
2.2780353 ,Left ,61,0257017900808 ,48,8437466954512 ,41,7899891170139
2.300719 ,Left ,60,8847757497116 ,48,6850635875073 ,41,7736885428976
2.3232897 ,Left ,60,7512628214159 ,48,6005022680736 ,41,7100920752169
2.3442187 ,Left ,60,6578160783833 ,48,5935447457035 ,41,6162983249262
2.360832 ,Left ,60,6962583728484 ,48,5779941605379 ,41,5842636554974
2.383231 ,Left ,60,8549008607004 ,48,5098052265526 ,41,6074607493945
2.4043994 ,Left ,61,0380745722829 ,48,4329783316546 ,41,5974242425016
2.4207688 ,Left ,61,1509274222873 ,48,3409174540302 ,41,5611409095591
2.4431891 ,Left ,61,1892409956449 ,48,1902609853188 ,41,5686277054636
2.4646472 ,Left ,61,246073616295 ,48,0129252174415 ,41,603000612264
2.4811533 ,Left ,61,3091108496993 ,47,8545996942596 ,41,6300547991256
2.5041797 ,Left ,61,3493646866377 ,47,7551571046869 ,41,6146693172655
2.5246177 ,Left ,61,3950573967248 ,47,7057842896033 ,41,583273118853
2.5411617 ,Left ,61,4113464007382 ,47,6887591940899 ,41,5930021747311
2.5638276 ,Left ,61,4685939515425 ,47,6722885421392 ,41,6237314524292
2.5847667 ,Left ,61,4939650854489 ,47,7175033755515 ,41,647838176634
2.6011552 ,Left ,61,4732430797164 ,47,8046106591225 ,41,6449551273023
2.6233023 ,Left ,61,4847880076479 ,47,8730610366894 ,41,6613091021799
2.6446569 ,Left ,61,5143420406291 ,47,9118738983145 ,41,6994267146029
2.6609485 ,Left ,61,5315405243174 ,47,9351540039361 ,41,7485914940987
2.6833796 ,Left ,61,5932660709988 ,47,9518757024417 ,41,7857997552212
2.7044846 ,Left ,61,6483857726946 ,47,9522428963201 ,41,8025219960776
2.7209164 ,Left ,61,6770561894008 ,47,9477060439447 ,41,8046373489977
2.7434237 ,Left ,61,6746590323769 ,47,9746332025134 ,41,8243497616013
2.7645863 ,Left ,61,677454033638 ,48,0280597694197 ,41,8580681682399
2.7810013 ,Left ,61,6766452516149 ,48,0785427946509 ,41,9082222572518
2.8031892 ,Left ,61,6697616159719 ,48,0720873660988 ,41,9624503286987
2.824089 ,Left ,61,7386382336186 ,48,0283912500857 ,42,0239086600634
2.8408706 ,Left ,61,7665683587735 ,48,033350929962 ,42,0685195644658
2.8633334 ,Left ,61,7288200266199 ,48,0810480966612 ,42,0743595251979
2.8844751 ,Left ,61,724374733087 ,48,1367246798753 ,42,0607689171729
2.9011402 ,Left ,61,7746248149995 ,48,1579876158747 ,42,042295026181
2.9236357 ,Left ,61,8183822345312 ,48,1589988658715 ,42,0208711667145
2.9446715 ,Left ,61,8162616168825 ,48,1560543897397 ,41,9985867948356
2.9610823 ,Left ,61,8179188035725 ,48,1626521248699 ,41,992230623118
2.9836037 ,Left ,61,8333567876989 ,48,1771024554257 ,42,0042496616614
3.0046533 ,Left ,61,8343911543618 ,48,1880998903728 ,42,0172454417901
3.0209815 ,Left ,61,8287317144711 ,48,2071404132825 ,42,0362913963827
3.0435357 ,Left ,61,8012494171376 ,48,2337220461477 ,42,0535200395679
3.0659967 ,Left ,61,7849387280168 ,48,2646278806407 ,42,0639991539284
3.0810076 ,Left ,61,7574206441896 ,48,2864309198115 ,42,0640933751283
3.1033536 ,Left ,61,7511768198139 ,48,3076385207579 ,42,0670593721831
3.1259597 ,Left ,61,7261963439062 ,48,3276695767975 ,42,0551718945831
3.141107 ,Left ,61,6997723650439 ,48,3417507284259 ,42,0476690417898
3.1635444 ,Left ,61,6925198196292 ,48,3643095281209 ,42,0405614546593
3.1860582 ,Left ,61,6840633886016 ,48,3939133733021 ,42,0428377795158
3.2003018 ,Left ,61,7167897873976 ,48,4508606287144 ,42,0498255627145
3.2236199 ,Left ,61,7057053030179 ,48,5051741449144 ,42,0536768265592
3.2461328 ,Left ,61,6972342432197 ,48,5618836791118 ,42,0645022768108
3.2604188 ,Left ,61,7162555015282 ,48,6393664552576 ,42,0708903159269
3.2835408 ,Left ,61,7076267556376 ,48,7183397965717 ,42,0731981991526
3.3061576 ,Left ,61,687616627757 ,48,7777398313771 ,42,0865195274956
3.320334 ,Left ,61,6627228016392 ,48,8210546074211 ,42,1218563895793
3.3435584 ,Left ,61,6365310881612 ,48,862875318019 ,42,1716129553414
3.3660438 ,Left ,61,5805437808518 ,48,8610214491646 ,42,2444343980078
3.3804215 ,Left ,61,5871838900511 ,48,797284616869 ,42,3042446803607
3.4033531 ,Left ,61,5987166722058 ,48,7171131425565 ,42,341979046088
3.4259407 ,Left ,61,6525246247392 ,48,6664666715966 ,42,3726352398771
3.4401574 ,Left ,61,6872707654393 ,48,6716639192733 ,42,3742515434433
3.4632612 ,Left ,61,7490254597974 ,48,6986497107376 ,42,3401861648855
3.4860621 ,Left ,61,8320149568868 ,48,7073555516506 ,42,3109869465615
3.5004164 ,Left ,61,9342545512884 ,48,7127627478883 ,42,2905279743893
3.5235734 ,Left ,62,0232217510739 ,48,7019031142862 ,42,271803154856
3.5461407 ,Left ,62,0652516995185 ,48,6488972356105 ,42,2551519640965
3.5668929 ,Left ,62,0956490831337 ,48,5773795998564 ,42,2345761148462
3.5831321 ,Left ,62,025639364999 ,48,5215682228465 ,42,2132725834598
3.6056269 ,Left ,61,9762148057531 ,48,4864018518382 ,42,1740661052165
3.6271343 ,Left ,61,9834241957394 ,48,4338355431435 ,42,1344745777381
3.6436001 ,Left ,62,0277864206688 ,48,3992720047604 ,42,1159403687947
3.6658083 ,Left ,62,0112455634354 ,48,3971836845409 ,42,1004382466873
3.6870828 ,Left ,61,9569693608147 ,48,406999574339 ,42,0867714554763
3.7033926 ,Left ,62,0156299434069 ,48,4157643799274 ,42,0944800852699
3.7258087 ,Left ,62,1272642901693 ,48,4357649076829 ,42,0880635544228
3.7467746 ,Left ,62,176880094015 ,48,4620142351693 ,42,0677932812918
3.7631731 ,Left ,62,1601815393166 ,48,4887666835609 ,42,0446941557906
3.7857291 ,Left ,62,1898508090147 ,48,5393087280623 ,42,0437666356204
3.8068501 ,Left ,62,2171816074144 ,48,654511960246 ,42,0550199206205
3.8231163 ,Left ,62,2424195035786 ,48,8101130961688 ,42,05105635027
3.8458518 ,Left ,62,1941022956267 ,48,9408704646381 ,42,0532935798353
3.8669164 ,Left ,62,1233625574316 ,49,0048728892628 ,42,1168943288554
3.8830667 ,Left ,62,0729535120972 ,49,0164108025834 ,42,2163520495873
3.9058522 ,Left ,61,993851393605 ,49,0009720289879 ,42,3085806544391
3.9266982 ,Left ,61,8668519873003 ,48,9838822417911 ,42,3479350008741
3.9425738 ,Left ,61,7243246770045 ,48,9608336676254 ,42,3547383718799
3.9661529 ,Left ,61,5923539230756 ,48,9239951495976 ,42,3761966722694
3.9886377 ,Left ,61,5637227331021 ,48,8426740375703 ,42,3933085705993
4.0030269 ,Left ,61,6339306454503 ,48,7714975661052 ,42,3564083819719
4.0257721 ,Left ,61,5993126319513 ,48,7583180874001 ,42,2555511888795
4.0482561 ,Left ,61,4929445905409 ,48,7809885034582 ,42,1609077468155
4.0624356 ,Left ,61,4832094515283 ,48,7996185094075 ,42,1160353030313
4.085814 ,Left ,61,5828660025164 ,48,8070701203116 ,42,1077438934287
4.1082601 ,Left ,61,6418190177118 ,48,8311412643814 ,42,0985866960862
4.1225137 ,Left ,61,623554973515 ,48,859040595655 ,42,0820510486907
4.1459709 ,Left ,61,5709850240706 ,48,8804838085926 ,42,0651667493797
4.1683083 ,Left ,61,5260853947647 ,48,9100035697106 ,42,0546178724223
4.1828023 ,Left ,61,4850996776819 ,48,9450096019422 ,42,0500111358727
4.2058576 ,Left ,61,4428118141769 ,48,9806375549898 ,42,0411633715699
4.228237 ,Left ,61,3699450041463 ,49,0050715425804 ,42,0255504596132
4.2426905 ,Left ,61,3034502686604 ,49,0058112634379 ,42,0086789870815
4.2656216 ,Left ,61,2184119394665 ,48,950050770043 ,42,0049608482194
4.2882178 ,Left ,61,1156644470379 ,48,8294619117252 ,42,0134449829739
4.3095147 ,Left ,61,0609117303054 ,48,6957997106261 ,42,0390975197584
4.3259934 ,Left ,61,0230794941729 ,48,6060166931284 ,42,0427087891534
4.3482992 ,Left ,61,0005768778127 ,48,5614326587433 ,42,0144873495535
4.3693495 ,Left ,61,0788955950416 ,48,4871911254456 ,41,9931206528272
4.3858058 ,Left ,61,2068060080196 ,48,3260099035897 ,41,9885902082229
4.4082833 ,Left ,61,3523277728552 ,48,1429775936272 ,41,9948348791395
4.42961 ,Left ,61,4451307668399 ,48,0042202939942 ,41,990487902651
4.4458502 ,Left ,61,4921764632422 ,47,9430218246871 ,41,9633480028197
4.4684138 ,Left ,61,5092767482384 ,47,8818404910494 ,41,9109831506993
4.4893363 ,Left ,61,5348258579958 ,47,8213459724505 ,41,9384606840859
4.5057961 ,Left ,61,606237866621 ,47,7729423616944 ,42,0400252812253
4.5283367 ,Left ,61,6770386856738 ,47,8120410024335 ,42,1015559268545
4.5494284 ,Left ,61,7090004561729 ,47,9218413483091 ,42,0994982947416
4.5658111 ,Left ,61,7283184219057 ,48,0107243037221 ,42,0933344067321
4.5883709 ,Left ,61,7460368125793 ,48,0398822485664 ,42,1193235465316
4.6095117 ,Left ,61,7489349174612 ,48,0528761506657 ,42,1732674900041
4.6258322 ,Left ,61,7601402688329 ,48,0607565662953 ,42,2110071531947
4.6481164 ,Left ,61,7508506809625 ,48,0637957304384 ,42,2501243148556
4.6693016 ,Left ,61,7147116215995 ,48,0582730959203 ,42,3005015864421
4.6856537 ,Left ,61,6970771658178 ,48,0547959425074 ,42,3638756132595
4.7083685 ,Left ,61,6984222790382 ,48,0655663931179 ,42,4340874438971
4.7296717 ,Left ,61,7172590852845 ,48,0993157475028 ,42,4637304942168
4.7459046 ,Left ,61,7145872098353 ,48,1256817997494 ,42,4619449487451
4.7683436 ,Left ,61,716341500242 ,48,1285080082442 ,42,4605981327688
4.7896792 ,Left ,61,7275927071499 ,48,1290078334444 ,42,4548951944603
4.8059164 ,Left ,61,7357860077282 ,48,1449994729778 ,42,4449799334962
4.8284806 ,Left ,61,7466542576507 ,48,1618419294051 ,42,441583698662
4.8494847 ,Left ,61,74882706776 ,48,1738778604743 ,42,4502211223106
4.8659647 ,Left ,61,7300367443566 ,48,1799130377343 ,42,464065268701
4.8881096 ,Left ,61,7286392870308 ,48,1928808219309 ,42,4800524143899
4.9093151 ,Left ,61,7154080334164 ,48,2081406844177 ,42,4838792120591
4.9258338 ,Left ,61,718133706693 ,48,2420434548706 ,42,4926440751135
4.9483794 ,Left ,61,7042190617739 ,48,2820678282626 ,42,4871051298963
4.9709357 ,Left ,61,6957132622161 ,48,3170632832958 ,42,4979214571748
4.9860604 ,Left ,61,7033595038934 ,48,372925452975 ,42,5082027163781
5.0084534 ,Left ,61,6952705987071 ,48,4306259216153 ,42,5214274038296
5.0311535 ,Left ,61,6834979362474 ,48,4901686759855 ,42,5402869933383
5.0461835 ,Left ,61,6717820619941 ,48,5408580819091 ,42,56388973638
5.0685608 ,Left ,61,6515441643432 ,48,5780616644584 ,42,5961841677177
5.0907966 ,Left ,61,6327717835654 ,48,599824812476 ,42,6307349546841
5.1049921 ,Left ,61,6173452007675 ,48,5992565144288 ,42,6687144261773
5.1282859 ,Left ,61,6031615952074 ,48,5684743026032 ,42,7034025211035
5.1507863 ,Left ,61,6071767619193 ,48,5308449690453 ,42,7265473252767
5.1650436 ,Left ,61,635882240218 ,48,4808337098007 ,42,7498103328738
5.188224 ,Left ,61,6621616817406 ,48,4275029851543 ,42,7805444655454
5.2108482 ,Left ,61,7644398936107 ,48,4139671735556 ,42,7888063549858
5.2247277 ,Left ,61,8608233064191 ,48,4402376751348 ,42,7519143950789
5.2481775 ,Left ,61,9295042050802 ,48,45644014807 ,42,6910977261024
5.2705075 ,Left ,61,9880571427829 ,48,4429131979317 ,42,6475401232769
5.2852524 ,Left ,62,026184887132 ,48,4298746254792 ,42,6132997038877
5.3087786 ,Left ,62,0472511605563 ,48,4136431475179 ,42,5714608608987
5.3311834 ,Left ,62,0313480549558 ,48,3998495595043 ,42,5424625279354
5.3454413 ,Left ,61,9654980273982 ,48,3872640827088 ,42,5318625431698
5.3685785 ,Left ,61,9277304726638 ,48,3793037040862 ,42,5255728125147
5.3909203 ,Left ,61,9268497880519 ,48,3583866502687 ,42,5237340804695
5.4051264 ,Left ,61,9740146795511 ,48,34191657202 ,42,5250507527857
5.4284038 ,Left ,62,0120712131224 ,48,3589239435097 ,42,5135167020796
5.4508569 ,Left ,61,957781515192 ,48,3689954310389 ,42,4849127471577
5.4717989 ,Left ,61,9746916162185 ,48,3584808287182 ,42,4889883494612
5.4889967 ,Left ,62,0263833289512 ,48,365374892416 ,42,5055629945093
5.511195 ,Left ,62,0375766553607 ,48,3697062492108 ,42,4949576017447
5.5324669 ,Left ,62,0028432003465 ,48,3550261108271 ,42,4920958588886
5.5482009 ,Left ,62,0316021472208 ,48,3215821508655 ,42,5040608049555
5.5711374 ,Left ,62,0786646232561 ,48,3120127844101 ,42,5340344094052
5.5923143 ,Left ,62,1243506854657 ,48,352499786474 ,42,5610232129652
5.6086648 ,Left ,62,0719235812527 ,48,4174886350619 ,42,5866241039917
5.6307634 ,Left ,62,0243552117961 ,48,4949950374312 ,42,6613939632531
5.6520859 ,Left ,62,0001496871641 ,48,5995076895301 ,42,7112211962159
5.6684203 ,Left ,61,9475296391408 ,48,6744560901342 ,42,7230011027058
5.6907746 ,Left ,61,8587047311715 ,48,6977496463432 ,42,7526417750258
5.7123212 ,Left ,61,6905011114498 ,48,6913396154405 ,42,8144663092338
5.7281496 ,Left ,61,5831803655303 ,48,6801166999693 ,42,841015566998
5.7511531 ,Left ,61,543528564358 ,48,7260208734903 ,42,7809213275094
5.7720092 ,Left ,61,4483877845047 ,48,780038501679 ,42,6713127371773
5.7878 ,Left ,61,3347993281975 ,48,8316533668482 ,42,5776041120725
5.8110931 ,Left ,61,3035465205449 ,48,8644261410317 ,42,5217654926438
5.8321271 ,Left ,61,3381166613158 ,48,8943674677209 ,42,4905604410024
5.8478015 ,Left ,61,3256496282744 ,48,9192726690498 ,42,4376951118743
5.870972 ,Left ,61,3001341826878 ,48,9189445140867 ,42,40451832663
5.893562 ,Left ,61,3034148833744 ,48,9112847398701 ,42,3927817847069
5.8987574 ,Left ,61,2610772096525 ,48,9244105341269 ,42,3646486963258
5.9140431 ,Left ,61,1776953926096 ,48,9470228732031 ,42,3197303338729
5.9364263 ,Left ,61,1065064661811 ,48,9411140920918 ,42,3070809813736
5.9591262 ,Left ,61,0383538841311 ,48,8622812589959 ,42,3521849246326
5.9752527 ,Left ,61,0285621241465 ,48,7129849810585 ,42,4168751713917
5.9961536 ,Left ,61,0266339271168 ,48,5959652549758 ,42,433296866505
6.0184007 ,Left ,61,037856104611 ,48,5151836397709 ,42,37853151702
6.0333867 ,Left ,61,0758512305447 ,48,4194043728003 ,42,3292748249236
6.0567965 ,Left ,61,1556303987166 ,48,2428107143897 ,42,3216087806642
6.0790594 ,Left ,61,2676149499851 ,48,0502550135641 ,42,325488039327
6.0952448 ,Left ,61,3790088486342 ,47,8710578981142 ,42,3009450202379
6.1163851 ,Left ,61,4621211371435 ,47,7499149295691 ,42,2807732003237
6.138892 ,Left ,61,5052534653132 ,47,6836352672234 ,42,2455209977968
6.1552474 ,Left ,61,5539914919595 ,47,6642960278528 ,42,2276769249797
6.1765685 ,Left ,61,6467453972939 ,47,6785009110912 ,42,2626060699297
6.1988838 ,Left ,61,7710961097354 ,47,7244472044095 ,42,324460948532
6.2152848 ,Left ,61,8659000504588 ,47,8256190429787 ,42,3753280206556
6.23661 ,Left ,61,8812016518398 ,47,9526986886947 ,42,3987972542212
6.258759 ,Left ,61,8890161603527 ,48,0413063786779 ,42,4034479911378
6.2753607 ,Left ,61,8862168824651 ,48,0776915974331 ,42,4143195017738
6.2966564 ,Left ,61,8610466974203 ,48,0899695178606 ,42,4466085327948
6.3189969 ,Left ,61,8293546001969 ,48,1354809159331 ,42,4911755690321
6.3352902 ,Left ,61,7897117399325 ,48,1808880805483 ,42,519615574732
6.3559446 ,Left ,61,7402336757167 ,48,2131222439493 ,42,5824056654523
6.3786469 ,Left ,61,6951025286584 ,48,2320448441307 ,42,6838650475789
6.395013 ,Left ,61,6957451621882 ,48,2423543678679 ,42,8072477253568
6.4162535 ,Left ,61,7067736426662 ,48,2597310226197 ,42,8934617179062
6.4387598 ,Left ,61,6982217579374 ,48,2758789360358 ,42,8967381381037
6.456373 ,Left ,61,6517770194079 ,48,2749891129298 ,42,879591417727
6.4760349 ,Left ,61,6011810131607 ,48,2871446315589 ,42,887112492548
6.4986526 ,Left ,61,6132920292828 ,48,2995811966885 ,42,883979009902
6.5155829 ,Left ,61,6458493464024 ,48,3032165453347 ,42,8743831132469
6.536807 ,Left ,61,6514817262572 ,48,3004167277277 ,42,8683093478982
6.5592335 ,Left ,61,6247850778548 ,48,290838249316 ,42,8788885289587
6.5753896 ,Left ,61,6101884312727 ,48,2877326301165 ,42,8967656904561
6.5964219 ,Left ,61,6207742983763 ,48,2986341524644 ,42,9080812241607
6.6190642 ,Left ,61,6224169397618 ,48,3111761259138 ,42,9042944766279
6.6350012 ,Left ,61,6127088838891 ,48,3309034964139 ,42,9091034226712
6.6560953 ,Left ,61,5940196965604 ,48,368598954484 ,42,9009065577676
6.678638 ,Left ,61,5542982997257 ,48,4080456990379 ,42,8877101218189
6.6950127 ,Left ,61,5269212056094 ,48,4545813223043 ,42,879781142067
6.716281 ,Left ,61,5611986657528 ,48,5062629958669 ,42,8932446464019
6.7387104 ,Left ,61,5413070921956 ,48,5468462620446 ,42,9221860254472
6.7568007 ,Left ,61,574831690828 ,48,6086373699887 ,42,941823430601
6.7763357 ,Left ,61,5533856282425 ,48,668694165876 ,42,9466433335828
6.7988861 ,Left ,61,537435726763 ,48,7312135540208 ,42,953774517317
6.8167187 ,Left ,61,5640100677709 ,48,7973920007535 ,42,9568484251969
6.8368302 ,Left ,61,5519822684288 ,48,8304289322333 ,42,9712404062615
6.8591891 ,Left ,61,5460111676895 ,48,8112467986517 ,42,9899245414144
6.8770186 ,Left ,61,5517776079591 ,48,7413552540546 ,43,0258998220201
6.8968078 ,Left ,61,5588060764659 ,48,6625454374067 ,43,0647414788853
6.9190989 ,Left ,61,5483207910348 ,48,5733495434169 ,43,0972059497049
6.9366444 ,Left ,61,5720847038108 ,48,5059842926157 ,43,135827372135
6.9563633 ,Left ,61,6420154100719 ,48,4877864730353 ,43,136619211241
6.9787996 ,Left ,61,7255967967727 ,48,5016168096705 ,43,0757241672796
7.0013984 ,Left ,61,8219041834752 ,48,4974067963054 ,43,0144878457755
7.016421 ,Left ,61,9266414503505 ,48,469756192166 ,42,9808926561311
7.038987 ,Left ,61,9644735260713 ,48,462844726599 ,42,9515550297579
7.0615765 ,Left ,61,9577297335993 ,48,4555027554338 ,42,921689178189
7.076578 ,Left ,61,9404410396563 ,48,4583499438532 ,42,9167519195017
7.0989049 ,Left ,61,9204844212206 ,48,4773100459363 ,42,918631741062
7.1168148 ,Left ,61,8703226235196 ,48,5019398279068 ,42,9159981463416
7.1364907 ,Left ,61,798107235186 ,48,4842575960058 ,42,9124219309585
7.1589454 ,Left ,61,7696143679817 ,48,3700198759796 ,42,9368422310106
7.1768412 ,Left ,61,7996330095894 ,48,2861336979233 ,42,9758971233343
7.196013 ,Left ,61,7955264961293 ,48,2965761798259 ,42,9571820700124
7.2184895 ,Left ,61,7336788094865 ,48,3446852153272 ,42,9040258869362
7.2365395 ,Left ,61,7729593333209 ,48,3805806579293 ,42,8937349524204
7.257648 ,Left ,61,8480593581429 ,48,4057871908352 ,42,8912830943665
7.2787482 ,Left ,61,8748605957543 ,48,4318882818787 ,42,8660956990002
7.2967549 ,Left ,61,8317504414178 ,48,4448696199664 ,42,8472990130593
7.3163643 ,Left ,61,8291131584385 ,48,4244426677499 ,42,8715186859394
7.3389006 ,Left ,61,8759255171761 ,48,3869223615268 ,42,9225741556312
7.3567766 ,Left ,61,89753215053 ,48,3702747345129 ,42,9661449201056
7.3765534 ,Left ,61,8311055965023 ,48,3913450127349 ,43,0391831731859
7.3989811 ,Left ,61,7879972823783 ,48,4955721332224 ,43,0970163977086
7.4170058 ,Left ,61,7579323604565 ,48,6152684088294 ,43,1270566239213
7.4378025 ,Left ,61,7234110282493 ,48,6606452422247 ,43,1472322682726
7.4587405 ,Left ,61,6170100213096 ,48,6358582367776 ,43,1954646337188
7.4813817 ,Left ,61,4861943557643 ,48,6212287343007 ,43,2506809037056
7.4977916 ,Left ,61,4373298298958 ,48,6363559634387 ,43,2582835151842
7.5188507 ,Left ,61,3838418769966 ,48,6755616428371 ,43,1868079235421
7.5414122 ,Left ,61,3124897093742 ,48,7145872414641 ,43,0916941689206
7.557804 ,Left ,61,26691138302 ,48,7491385723395 ,43,0171146408691
7.5789611 ,Left ,61,3067023615745 ,48,7645527847749 ,42,9696123102826
7.6027408 ,Left ,61,3509254326549 ,48,7867767841845 ,42,9151695345834
7.6177076 ,Left ,61,3415581941202 ,48,8042413859481 ,42,8509777223544
7.6386263 ,Left ,61,3573801976779 ,48,795755906782 ,42,8076428623024
7.6613498 ,Left ,61,3873983017211 ,48,7832587141772 ,42,7779695263964
7.6776385 ,Left ,61,3804050284601 ,48,7990727951837 ,42,7359444870837
7.6987991 ,Left ,61,3440815766539 ,48,8428325230442 ,42,6828791794216
7.7213275 ,Left ,61,2787771647046 ,48,8501938269523 ,42,6639589145693
7.7392869 ,Left ,61,2330208293936 ,48,7933189855025 ,42,6862476578678
7.7588749 ,Left ,61,2358203782781 ,48,7049294624818 ,42,7374090329507
7.781521 ,Left ,61,2452249573967 ,48,6239072764954 ,42,7543957028228
7.7995134 ,Left ,61,2759100719317 ,48,5495659288843 ,42,7244676955097
7.8193323 ,Left ,61,3498161322102 ,48,4507710326896 ,42,6877380846686
7.841403 ,Left ,61,4786152216272 ,48,313176538065 ,42,6828460074353
7.8593654 ,Left ,61,6209943306817 ,48,166121455042 ,42,6921517145041
7.8788652 ,Left ,61,707250854117 ,48,0331390726552 ,42,6990759199451
7.901355 ,Left ,61,7865397169196 ,47,942347647794 ,42,6934531074115
7.9193607 ,Left ,61,9162911133918 ,47,8886190863642 ,42,6899048246176
7.9386348 ,Left ,62,0194001479269 ,47,9073147278013 ,42,7091335821608
7.9617999 ,Left ,62,0887539339926 ,47,9676219693172 ,42,7015285022153
7.9794863 ,Left ,62,169222351225 ,48,0559549243583 ,42,7405187702404
7.9993015 ,Left ,62,2298919718686 ,48,1292827006933 ,42,7959877494841
8.0216137 ,Left ,62,2481634843552 ,48,1906752500355 ,42,8423493147419
8.0392435 ,Left ,62,232329772469 ,48,2528692978042 ,42,8897033514407
8.0591097 ,Left ,62,2216733038828 ,48,2801960519776 ,42,9304570150569
8.0815521 ,Left ,62,1944210015836 ,48,2737901094802 ,42,9660397180479
8.0992426 ,Left ,62,181314034733 ,48,2663927370011 ,42,9948482325785
8.1191164 ,Left ,62,1666213549758 ,48,2547885473547 ,43,0155417106023
8.1412573 ,Left ,62,1376840628367 ,48,2317013356446 ,43,0445694037913
8.159105 ,Left ,62,1169827771255 ,48,2298290268428 ,43,1043596780365
8.179324 ,Left ,62,1126220965205 ,48,2833940280913 ,43,1803143195308
8.2015706 ,Left ,62,1232934555004 ,48,3343344375751 ,43,2317154496712
8.2193831 ,Left ,62,1696261594917 ,48,3423000026717 ,43,2841198224351
8.2391463 ,Left ,62,2115877358671 ,48,3496919422441 ,43,3240784765087
8.2613312 ,Left ,62,1799527779553 ,48,3762529423121 ,43,3393101648892
8.2791388 ,Left ,62,1795665288956 ,48,4196784563151 ,43,344526479992
8.2984318 ,Left ,62,2183815434154 ,48,4361000895236 ,43,348070757717
8.3210098 ,Left ,62,2692299004596 ,48,4381454820133 ,43,3464148831424
8.339197 ,Left ,62,2864044776707 ,48,4284932085288 ,43,3465090503766
8.3601883 ,Left ,62,3039799032242 ,48,4140227071906 ,43,3530302941195
8.3813296 ,Left ,62,299514183021 ,48,4083485233205 ,43,3770596220318
8.3990821 ,Left ,62,3115305909485 ,48,4208478343076 ,43,4104963091778
8.4200591 ,Left ,62,3564048597775 ,48,4589400340783 ,43,4396686918223
8.4414029 ,Left ,62,3655478734554 ,48,4942346258287 ,43,4573667265407
8.4594721 ,Left ,62,3721070857663 ,48,5340133601756 ,43,468842668842
8.4806536 ,Left ,62,3676605562548 ,48,578957547394 ,43,4732557453345
8.5016388 ,Left ,62,3576178570512 ,48,6259686466262 ,43,4855928157499
8.5194894 ,Left ,62,356200194296 ,48,6843120733718 ,43,4950838402746
8.5404779 ,Left ,62,3213613282149 ,48,7325505126037 ,43,5022416740003
8.5615146 ,Left ,62,2831792608031 ,48,7930583098333 ,43,5106674329751
8.5792646 ,Left ,62,2463461135661 ,48,8687613741473 ,43,5184924921825
8.6003321 ,Left ,62,2095908537129 ,48,9301512040362 ,43,5351729987526
8.621521 ,Left ,62,1737946207748 ,48,9730169426617 ,43,5610777528823
8.6392657 ,Left ,62,1580151645186 ,49,0052998986545 ,43,6015819127828
8.6603336 ,Left ,62,1328986174435 ,49,0305944811924 ,43,6445012906498
8.6814902 ,Left ,62,0911995055079 ,49,0406889580335 ,43,6916507602818
8.6992802 ,Left ,62,0712792131361 ,49,0188222063766 ,43,7595354169396
8.7217297 ,Left ,62,073777766884 ,48,9591544343942 ,43,8309120164718
8.7410082 ,Left ,62,1033307712516 ,48,8536517094329 ,43,8955292854315
8.7591272 ,Left ,62,1808347110374 ,48,7802016720489 ,43,9481683671624
8.7814337 ,Left ,62,2363930723916 ,48,764592510007 ,43,920379071194
8.8012982 ,Left ,62,3209386453732 ,48,7562815614355 ,43,8132602650249
8.8192209 ,Left ,62,4278227603475 ,48,7074783305685 ,43,7052664340813
8.8415106 ,Left ,62,5183409692177 ,48,6324646859736 ,43,6240103655111
8.8613519 ,Left ,62,5547512915206 ,48,5547210337726 ,43,5606404306654
8.8792267 ,Left ,62,5304129817068 ,48,496981810886 ,43,5008807581571
8.9015479 ,Left ,62,4720918191803 ,48,4472394565002 ,43,4427804559955
8.9209968 ,Left ,62,4654230058742 ,48,4071559333567 ,43,4202340151562
8.9391132 ,Left ,62,5195272238185 ,48,3814754610391 ,43,4406716565276
8.9618443 ,Left ,62,5234909982189 ,48,4057454788617 ,43,435343011454
8.9812699 ,Left ,62,4836401000965 ,48,425958653477 ,43,4257834244333
8.9991448 ,Left ,62,4983250630482 ,48,4327036750768 ,43,4480708923547
9.0216454 ,Left ,62,5453663564025 ,48,4561512344152 ,43,4751131538896
9.0414438 ,Left ,62,5693083525386 ,48,4916104408159 ,43,4741922970143
9.0591071 ,Left ,62,5214361742117 ,48,4952611330333 ,43,4585039483904
9.0816644 ,Left ,62,4823337783197 ,48,4730705907276 ,43,4843257209657
9.1011668 ,Left ,62,5447514602472 ,48,4967384681342 ,43,5395346450186
9.1193553 ,Left ,62,5676706035854 ,48,5761596394077 ,43,5723577710141
9.141313 ,Left ,62,4995531929082 ,48,6678690476413 ,43,592092610732
9.1609714 ,Left ,62,4429585270505 ,48,7380677660614 ,43,6478781327375
9.1790755 ,Left ,62,4096446672765 ,48,8219239255812 ,43,7019394818258
9.2013909 ,Left ,62,3759257846512 ,48,8920115240247 ,43,6986961919425
9.2208878 ,Left ,62,2806496441527 ,48,9141721308685 ,43,7060942289656
9.2391568 ,Left ,62,1476470716722 ,48,8924325526783 ,43,7358803633133
9.2615615 ,Left ,62,0456353839146 ,48,8514170806348 ,43,7373061822584
9.2825368 ,Left ,62,0147817738087 ,48,8341640425421 ,43,6850553935113
9.2990947 ,Left ,61,9673584497185 ,48,843135583094 ,43,6005883105685
9.3222571 ,Left ,61,8815864264325 ,48,8692144247479 ,43,5190165928406
9.3423956 ,Left ,61,8702738750514 ,48,8827514306931 ,43,4660188842497
9.3589608 ,Left ,61,9344262763951 ,48,8684340977158 ,43,4357931510769
9.3817514 ,Left ,61,9410039240646 ,48,8688277090866 ,43,3777751900965
9.4030222 ,Left ,61,9227500628657 ,48,8792770002179 ,43,3138692093907
9.4193245 ,Left ,61,9310179579027 ,48,8788489335615 ,43,2636952990628
9.4418278 ,Left ,61,9509175072223 ,48,8866199824765 ,43,2260144835547
9.4624118 ,Left ,61,9299596948679 ,48,9065426276771 ,43,2024001811459
9.4785787 ,Left ,61,8827320865901 ,48,936998299673 ,43,1989147629905
9.5010108 ,Left ,61,8531327755314 ,48,9680818903422 ,43,1912803496849
9.5220749 ,Left ,61,8470266539138 ,48,9877278781904 ,43,1698876842703
9.5383929 ,Left ,61,8311330777863 ,48,9884040814512 ,43,1380624232684
9.5610285 ,Left ,61,7848105091259 ,48,9786112528899 ,43,0991122140893
9.5821994 ,Left ,61,7443188312412 ,48,9821708461838 ,43,0562844488502
9.5983553 ,Left ,61,7033828696416 ,48,9687951030902 ,43,0344736552996
9.6210746 ,Left ,61,6801147325786 ,48,9090272655192 ,43,0265947556632
9.6435162 ,Left ,61,6546978886358 ,48,839147973526 ,43,017466629082
9.658652 ,Left ,61,6118936735867 ,48,7939423700715 ,43,004962085909
9.6810074 ,Left ,61,5658672311036 ,48,7682055709072 ,42,9794020492255
9.703371 ,Left ,61,573793749377 ,48,7610997524655 ,42,9629420202689
9.7246899 ,Left ,61,5941779115601 ,48,7275615260161 ,42,9494714469913
9.74099 ,Left ,61,6031834964298 ,48,6798067343955 ,42,96805466436
9.7634755 ,Left ,61,5828879316115 ,48,6358997735587 ,43,0108501157131
9.7778781 ,Left ,61,5749728075608 ,48,5789796914201 ,43,078921256116
9.8009739 ,Left ,61,6714867651832 ,48,4755559291111 ,43,1449219427102
9.8233777 ,Left ,61,7753010864069 ,48,309132875507 ,43,2033327692414
9.8447114 ,Left ,61,8232645097302 ,48,1623499882963 ,43,2593977788239
9.8611634 ,Left ,61,8566664414426 ,48,0679936981702 ,43,2869402970923
9.8832762 ,Left ,61,9346121459784 ,48,0088358806658 ,43,300724977092
9.904481 ,Left ,62,0024920407823 ,47,9954269183847 ,43,2959413180976
9.9209653 ,Left ,62,0249632502659 ,48,0301006203381 ,43,2897498688023
9.9435001 ,Left ,62,0480487094448 ,48,1053070729004 ,43,3299487003469
9.9645727 ,Left ,62,0904922406957 ,48,1911765194382 ,43,3846098148495
9.9809293 ,Left ,62,1087099427658 ,48,2617935683376 ,43,459921783611
10.0034301 ,Left ,62,1358648701651 ,48,2985289647087 ,43,543693745251
10.0178047 ,Left ,62,1749697112379 ,48,346402387958 ,43,6156716600538
10.0407788 ,Left ,62,1713404937523 ,48,4314238049946 ,43,6276952126793
10.0638183 ,Left ,62,1512103488446 ,48,5008404675866 ,43,6160954913373
10.078028 ,Left ,62,1299195149273 ,48,5594809226085 ,43,6150668845577
10.1006632 ,Left ,62,0973387748727 ,48,5878205334112 ,43,6371516814063
10.1233066 ,Left ,62,0737362967828 ,48,6135668683467 ,43,680290665082
10.1442203 ,Left ,62,0516973169485 ,48,6385308537879 ,43,7272367271304
10.1608833 ,Left ,62,055029870653 ,48,6493048383909 ,43,7714650568037
10.1831694 ,Left ,62,0619179327677 ,48,6561520755258 ,43,773377773519
10.2043545 ,Left ,62,060792257463 ,48,6439459511439 ,43,7665535928197
10.2214779 ,Left ,62,0438779761314 ,48,6493369705431 ,43,755911347243
10.2434479 ,Left ,62,0208981532911 ,48,673848991305 ,43,7471933472818
10.2643304 ,Left ,62,0421800567538 ,48,6918554002621 ,43,7286878897498
10.2820298 ,Left ,62,0520360531814 ,48,6715658682929 ,43,7192578045372
10.3031681 ,Left ,62,0534075380741 ,48,6406362147723 ,43,727841106016
10.3241644 ,Left ,62,0324273161699 ,48,6247193774375 ,43,7366961872003
10.3406803 ,Left ,62,0282663119505 ,48,6276410305765 ,43,748982091589
10.3632345 ,Left ,62,0503504680892 ,48,6225381349696 ,43,7506330291927
10.3842978 ,Left ,62,0429708726257 ,48,6151778270464 ,43,7549107650097
10.4010592 ,Left ,62,0287555510906 ,48,6167449688753 ,43,7657132893755
10.4234914 ,Left ,62,0196481581025 ,48,6321145324459 ,43,777331565605
10.444591 ,Left ,62,03439873212 ,48,6783989727213 ,43,7816165743703
10.4612691 ,Left ,62,0436567204975 ,48,7323744566431 ,43,7723617935564
10.4837469 ,Left ,62,0314100376267 ,48,7797131119863 ,43,771692027115
10.5051185 ,Left ,62,0161403648651 ,48,8286921446114 ,43,7762251386796
10.5208498 ,Left ,61,9883145735923 ,48,8852243206388 ,43,7830697949003
10.5494474 ,Left ,61,9457676203737 ,48,9347510555383 ,43,8054876645285
10.5642342 ,Left ,61,9244588154361 ,48,9737028109652 ,43,8488216719359
10.5807385 ,Left ,61,8989055021084 ,48,9991993228821 ,43,8978593813503
10.6033043 ,Left ,61,8868196564225 ,49,0022851542214 ,43,9449482282059
10.6259285 ,Left ,61,8796862159433 ,48,9859686242309 ,43,9837531802221
10.6410164 ,Left ,61,8522473219615 ,48,9291986347346 ,44,0128762830668
10.6632372 ,Left ,61,8719837063282 ,48,8471101607443 ,44,0418019298757
10.6861853 ,Left ,61,8924843913995 ,48,766810331323 ,44,060599788752
10.7011723 ,Left ,61,9311407543013 ,48,7121705214345 ,44,0809855155933
10.7237234 ,Left ,62,0316792793365 ,48,7416854629922 ,44,0771143921834
10.7460167 ,Left ,62,1319255230083 ,48,7723806477273 ,44,0377353493599
10.7603466 ,Left ,62,2128454737213 ,48,7744048824941 ,44,014411978427
10.7833288 ,Left ,62,275670415592 ,48,7674429537035 ,43,9959023949305
10.806045 ,Left ,62,3392074561128 ,48,7703372446123 ,43,9577340561075
10.8202889 ,Left ,62,3479568712184 ,48,7651899337506 ,43,9310225091258
10.8434697 ,Left ,62,3369029115877 ,48,7332980349652 ,43,9361688203771
10.865916 ,Left ,62,3449878744033 ,48,7150654901086 ,43,9532640319486
10.8803154 ,Left ,62,3322409861667 ,48,7053599075317 ,43,95079671237
10.9035094 ,Left ,62,312007645417 ,48,7081932307017 ,43,9352473411045
10.9259428 ,Left ,62,2841319433076 ,48,7243864673113 ,43,9089821482455
10.9403301 ,Left ,62,277321008822 ,48,7185012322849 ,43,8881355892044
10.9635252 ,Left ,62,2559086235535 ,48,7014291165852 ,43,8836366964472
10.9859631 ,Left ,62,2332077697362 ,48,6934089334475 ,43,8724507795728
11.0003512 ,Left ,62,2318808415043 ,48,7363875423222 ,43,881650746084
11.0233453 ,Left ,62,2429138789579 ,48,7574826408316 ,43,8933532405746
11.0461068 ,Left ,62,2602957454441 ,48,7510279152542 ,43,9055553208755
11.0603178 ,Left ,62,2661122593191 ,48,7487017990395 ,43,8933846543246
11.0834332 ,Left ,62,291308870003 ,48,7459671865579 ,43,8678669638667
11.106118 ,Left ,62,3311665863738 ,48,7526912456132 ,43,8425057730381
11.1273109 ,Left ,62,3098127471737 ,48,7344780772973 ,43,8033855734493
11.1433989 ,Left ,62,2887543110173 ,48,6901188597159 ,43,7918155085417
11.1657943 ,Left ,62,287495606188 ,48,6548536223587 ,43,8265381408195
11.1871373 ,Left ,62,332183455167 ,48,6407501106699 ,43,8706421174775
11.2033007 ,Left ,62,3444147204405 ,48,6390695142745 ,43,8961606935748
11.2258826 ,Left ,62,3060125483 ,48,6361145983095 ,43,918796744513
11.2466872 ,Left ,62,2696028064963 ,48,6640339975493 ,43,9944211023203
11.2633668 ,Left ,62,2518295075556 ,48,7489426667849 ,44,0527155233706
11.2857329 ,Left ,62,2096234761141 ,48,8333338914853 ,44,0857655943687
11.3071142 ,Left ,62,1682036266164 ,48,8643628957204 ,44,1137388064722
11.3232249 ,Left ,62,0939894173613 ,48,8240039253246 ,44,1671296210389
11.3458408 ,Left ,62,022640615791 ,48,7853593119114 ,44,2123933953214
11.3669284 ,Left ,61,987897353502 ,48,8137377360677 ,44,185320757235
11.383286 ,Left ,61,9365381948528 ,48,857255886407 ,44,0937773226705
11.4058712 ,Left ,61,8814012109881 ,48,8774882919666 ,44,0167571745297
11.4271589 ,Left ,61,8900146954524 ,48,8868742461529 ,43,9581113555668
11.4426556 ,Left ,61,9046681076212 ,48,8938175912086 ,43,9083545015169
11.4655153 ,Left ,61,8873430451882 ,48,9229175234199 ,43,8792713957838
11.4866364 ,Left ,61,8553392146001 ,48,9615131530884 ,43,8812825516142
11.5036482 ,Left ,61,836845754948 ,48,9869429525534 ,43,9060499077473
11.5258404 ,Left ,61,8013564587072 ,49,0003945939126 ,43,9151310588821
11.548661 ,Left ,61,7488446659805 ,49,0085513960364 ,43,8963171712266
11.5636375 ,Left ,61,6814375775123 ,48,9829755113353 ,43,8638133606259
11.5861839 ,Left ,61,5628551978579 ,48,8777785850527 ,43,831651418046
11.608671 ,Left ,61,4345740092073 ,48,7601560815744 ,43,8217905272282
11.6229845 ,Left ,61,3014665689611 ,48,6599304030753 ,43,7862686979587
11.6458047 ,Left ,61,2231884158344 ,48,5929503570656 ,43,7321507434149
11.6682863 ,Left ,61,2661094509801 ,48,511329240745 ,43,6625538837418
11.6827354 ,Left ,61,3627658807235 ,48,3986555944337 ,43,6248311803297
11.7059863 ,Left ,61,5172658578172 ,48,2926020745281 ,43,6254999089125
11.7282527 ,Left ,61,6686602736297 ,48,2101869100909 ,43,6411730535938
11.7494148 ,Left ,61,7887943764193 ,48,1566479458347 ,43,6418687460643
11.7656088 ,Left ,61,8824350830906 ,48,1220732795848 ,43,6194381626774
11.7887509 ,Left ,61,9624742911032 ,48,1371737311303 ,43,6293941291784
11.8100789 ,Left ,62,0145301368216 ,48,1638880009758 ,43,6564000076756
11.8262367 ,Left ,62,0744206847612 ,48,2093329572745 ,43,7049814044664
11.8486555 ,Left ,62,0749728473991 ,48,2626074844716 ,43,7394163529636
11.8630748 ,Left ,62,0624193535369 ,48,3148545978977 ,43,7644582010423
11.8860895 ,Left ,62,0434298724384 ,48,341940417238 ,43,7971808855458
11.9086246 ,Left ,62,0817886765791 ,48,3546709663333 ,43,8419672874686
11.9230223 ,Left ,62,076004066103 ,48,3387044677718 ,43,8638494592604
11.9461637 ,Left ,62,0820764849325 ,48,3042182988468 ,43,8894328525236
11.9680869 ,Left ,62,107471492245 ,48,3059141090662 ,43,9228425041896
11.9826799 ,Left ,62,0980804999839 ,48,3381101119507 ,43,9245013676081
12.0057159 ,Left ,62,0671235167552 ,48,372046812236 ,43,9443970485805
12.0283444 ,Left ,62,0435896934045 ,48,4121695893755 ,44,0125330540054
12.049381 ,Left ,62,033029266092 ,48,4815287847699 ,44,1204070985007
12.0659208 ,Left ,62,0841014542218 ,48,5386221065861 ,44,181932465612
12.0885381 ,Left ,62,0809206612771 ,48,4870874932953 ,44,2039345953673
12.1096703 ,Left ,62,0953709365264 ,48,398619720518 ,44,2170531815423
12.125941 ,Left ,62,0497091501218 ,48,3763413883069 ,44,1945342711527
12.1484909 ,Left ,62,0456325308972 ,48,4114911402638 ,44,1520255189866
12.1697252 ,Left ,62,0990316036096 ,48,4231166153396 ,44,1289662768971
12.1859884 ,Left ,62,1389263779954 ,48,3966559389238 ,44,1259277445196
12.2159792 ,Left ,62,1363308237579 ,48,3577798535588 ,44,1422361334875
12.2296975 ,Left ,62,1430910815972 ,48,3468848810183 ,44,1730593317038
12.2459498 ,Left ,62,1574448973781 ,48,3478310255733 ,44,1928663454198
12.2684484 ,Left ,62,1917873060641 ,48,3794701032198 ,44,207866555219
12.2897097 ,Left ,62,2260206721768 ,48,4233162150519 ,44,219535690075
12.306066 ,Left ,62,2421616662244 ,48,4757223476471 ,44,2243457260035
12.328438 ,Left ,62,2220724233391 ,48,5315875920008 ,44,2264035147618
12.3494664 ,Left ,62,1892324046904 ,48,5854292003628 ,44,2332642765489
12.3658659 ,Left ,62,1465611435552 ,48,6425128103864 ,44,2487472731305
12.3884381 ,Left ,62,119142339948 ,48,6895739194822 ,44,2753487539686
12.4097399 ,Left ,62,0883493327795 ,48,7272290334898 ,44,3132036754976
12.4256609 ,Left ,62,0716035504925 ,48,7571609025921 ,44,354728911703
12.4481097 ,Left ,62,0356735332559 ,48,7659826504004 ,44,4152314571259
12.4697066 ,Left ,61,9945068533663 ,48,7504629222132 ,44,470646247519
12.486232 ,Left ,61,9971463357433 ,48,7116851275886 ,44,5161128363096
12.5087281 ,Left ,62,0446597882563 ,48,6991491762647 ,44,5461829309352
12.5311508 ,Left ,62,1066968676658 ,48,7158701824677 ,44,5333804570874
12.5461931 ,Left ,62,1982164347453 ,48,7304675702948 ,44,5059391603578
12.568678 ,Left ,62,3071060491786 ,48,7117748303653 ,44,4735170877206
12.5909804 ,Left ,62,3966505955108 ,48,6732709248049 ,44,4240556255293
12.6052401 ,Left ,62,426314856845 ,48,6400422173767 ,44,3535101362723
12.6285043 ,Left ,62,416777913438 ,48,6141815434946 ,44,2969526275768
12.6510492 ,Left ,62,3520319285994 ,48,6041568656724 ,44,2642990349387
12.665332 ,Left ,62,3109111039465 ,48,6211677929637 ,44,2421131480811
12.6884843 ,Left ,62,3087588496609 ,48,6421030505419 ,44,2425309547014
12.7110445 ,Left ,62,3242353224274 ,48,6386334445711 ,44,2626602636104
12.7253915 ,Left ,62,2905181234465 ,48,6291182051314 ,44,2775023328357
12.7484412 ,Left ,62,2559647296671 ,48,6223271032059 ,44,2915564993112
12.771497 ,Left ,62,2761179291864 ,48,6125741469399 ,44,302102812816
12.7854025 ,Left ,62,3262495511642 ,48,6173404697218 ,44,3003939727806
12.8085244 ,Left ,62,3266384013688 ,48,6121577736889 ,44,2705081692056
12.8308573 ,Left ,62,3134346555652 ,48,6014035145864 ,44,2548891650183
12.8452964 ,Left ,62,3397136714478 ,48,6109725688004 ,44,2685271283434
12.8685067 ,Left ,62,3890639762261 ,48,6263207161925 ,44,3096387622083
12.8910269 ,Left ,62,4209486212703 ,48,6512865488069 ,44,3610046084891
12.9052288 ,Left ,62,3617132130749 ,48,6929388413577 ,44,4149968667749
12.9285713 ,Left ,62,2693119256136 ,48,7529338927792 ,44,4734787568406
12.9511323 ,Left ,62,2243666318717 ,48,8034472691739 ,44,5054852092298
12.9722926 ,Left ,62,2107714751321 ,48,8265142143472 ,44,5162621256528
12.9884843 ,Left ,62,1486546646242 ,48,7837234805384 ,44,5352426931748
13.0110153 ,Left ,61,9848424824051 ,48,7471471543839 ,44,5846838168077
13.0322491 ,Left ,61,8660558299415 ,48,6974423266391 ,44,5986599286825
13.048489 ,Left ,61,8934029218334 ,48,6906269139622 ,44,5508027251569
13.0711137 ,Left ,61,8704998009218 ,48,7185233597931 ,44,4628234928974
13.091595 ,Left ,61,7749398894056 ,48,7836351179249 ,44,3910734665285
13.108783 ,Left ,61,7648827457739 ,48,8379280992648 ,44,3670297209136
13.131276 ,Left ,61,8453382736854 ,48,870081649722 ,44,3459038508521
13.1524451 ,Left ,61,8773018118757 ,48,919521310606 ,44,2923357791444
13.168092 ,Left ,61,8290077331367 ,48,944743636386 ,44,2437942182874
13.1912998 ,Left ,61,7960712936004 ,48,941010936693 ,44,2395014955738
13.2125063 ,Left ,61,7540019926786 ,48,9263741817641 ,44,2254071743094
13.2284749 ,Left ,61,6574253942571 ,48,9257553290805 ,44,1782668395806
13.2507202 ,Left ,61,5340536727713 ,48,9181802832502 ,44,1016466940072
13.2720907 ,Left ,61,4477192383802 ,48,8604744633559 ,44,0506851797106
13.2882975 ,Left ,61,3818611338308 ,48,7632557636019 ,44,041887317949
13.3109801 ,Left ,61,3484786172327 ,48,6724654603441 ,44,0363400067327
13.331925 ,Left ,61,3395024225098 ,48,6182419897975 ,43,9894735333779
13.3483913 ,Left ,61,3803429942934 ,48,5639183761981 ,43,93661716744
13.3708245 ,Left ,61,4800602257364 ,48,473523274611 ,43,9302773943123
13.3920035 ,Left ,61,6145194264277 ,48,3690392984967 ,43,9599031942898
13.4074866 ,Left ,61,7329954227541 ,48,3049353832608 ,43,9812340136831
13.4307146 ,Left ,61,8183863922153 ,48,2659111760886 ,43,9590161735053
13.4534151 ,Left ,61,8893404868386 ,48,228199148402 ,43,9325714452706
13.4676629 ,Left ,61,9189538134224 ,48,209717690151 ,43,9446798757565
13.4907418 ,Left ,61,9417936410407 ,48,2044377840035 ,43,9903957942587
13.513546 ,Left ,62,0177017689194 ,48,2626809669289 ,44,0613564696647
13.5283138 ,Left ,62,05670369015 ,48,3300161487669 ,44,1133227197898
13.5508978 ,Left ,62,0673120323873 ,48,3872323778799 ,44,1692738283458
13.573372 ,Left ,62,0586244917879 ,48,4249756833879 ,44,2322254623929
13.5877114 ,Left ,62,0241287311142 ,48,453763298831 ,44,275657873319
13.6108103 ,Left ,61,9732385228704 ,48,456234870503 ,44,3081493324306
13.6333473 ,Left ,61,9383195556031 ,48,4901567644596 ,44,3492114334968
13.6475122 ,Left ,61,9172722990253 ,48,5324230985363 ,44,385528263377
13.6708281 ,Left ,61,8984584580869 ,48,5499238643592 ,44,4264485429792
13.693354 ,Left ,61,9092309645486 ,48,5637900251203 ,44,4941882394397
13.7076225 ,Left ,61,8901380560739 ,48,5871373156684 ,44,569030193491
13.7307454 ,Left ,61,857347959016 ,48,6039768813564 ,44,6448748123457
13.7533377 ,Left ,61,8835485104396 ,48,5699966094399 ,44,6939549254986
13.7678686 ,Left ,61,9516884783354 ,48,5851764579113 ,44,7199925127143
13.7908148 ,Left ,61,9183501323959 ,48,6227116735985 ,44,6921334128788
13.8133601 ,Left ,61,8997538910558 ,48,6225456335557 ,44,6517882058709
13.8277029 ,Left ,61,9299322459743 ,48,5858903978665 ,44,6276195749403
13.8507727 ,Left ,61,9591673704433 ,48,5782515563017 ,44,587454648264
13.879358 ,Left ,61,9611100142856 ,48,5977106489693 ,44,5379101114417
13.8874193 ,Left ,61,9317078658019 ,48,5838997637707 ,44,5059774805263
13.9111909 ,Left ,61,9450584983223 ,48,546476888951 ,44,5043875205674
13.9337605 ,Left ,61,9750784861135 ,48,5340346762982 ,44,5043897679208
13.9546989 ,Left ,61,9848130302415 ,48,5414970627855 ,44,4999049948351
13.9710923 ,Left ,61,9786538909709 ,48,5434243510607 ,44,4929853288034
13.9934388 ,Left ,61,9864917077653 ,48,5382013918019 ,44,4878987345448
14.0146072 ,Left ,61,9910373505385 ,48,5440150960528 ,44,4749161249341
14.0309417 ,Left ,62,0047342259954 ,48,5561229616481 ,44,465480432814
14.0535091 ,Left ,62,0028642131338 ,48,5717118975389 ,44,4571000176972
14.0748358 ,Left ,61,9956763482874 ,48,5818857732818 ,44,4662339740966
14.0911426 ,Left ,61,993338862879 ,48,6152446028461 ,44,4672251632361
14.1135755 ,Left ,61,9865061442704 ,48,6634137754975 ,44,4661253247939
14.1345594 ,Left ,61,9753048716748 ,48,7269882585901 ,44,4739104056409
14.1572309 ,Left ,61,9923897216768 ,48,7883688275018 ,44,4648422635679
14.1734219 ,Left ,61,9749369245283 ,48,8113195722988 ,44,4865521317038
14.1947093 ,Left ,61,9966831014847 ,48,8334903624804 ,44,5206898355681
14.2110203 ,Left ,61,979256429178 ,48,8573684714083 ,44,5447365461145
14.2333887 ,Left ,61,9667727202288 ,48,8646558212216 ,44,5701164299843
14.2545347 ,Left ,61,9733878068785 ,48,8495454010634 ,44,5951060295494
14.2709952 ,Left ,61,9802916899758 ,48,8104037165132 ,44,5998296787092
14.2935274 ,Left ,61,9864919584547 ,48,7485218319885 ,44,5871580174943
14.3144405 ,Left ,62,0044403696643 ,48,6800800514746 ,44,5788908196167
14.3309712 ,Left ,62,0065090537554 ,48,6200303763211 ,44,5862370737923
14.3534404 ,Left ,62,0748136472164 ,48,6131403797049 ,44,5927862021192
14.376017 ,Left ,62,1284623701487 ,48,5972755519951 ,44,539999880916
14.3909836 ,Left ,62,1891296117155 ,48,5347965770955 ,44,5012531628111
14.413541 ,Left ,62,310080639896 ,48,4794395009626 ,44,5045514867824
14.4359829 ,Left ,62,4035739161619 ,48,4525088531845 ,44,5120078780409
14.4571813 ,Left ,62,446867470096 ,48,4419478462815 ,44,5066022656655
14.4735203 ,Left ,62,4618086396996 ,48,4386153014136 ,44,4736790443872
14.4961054 ,Left ,62,4615546910077 ,48,4421668441114 ,44,4538689133894
14.5103698 ,Left ,62,4369571129207 ,48,4759169987506 ,44,4454087546981
14.5333882 ,Left ,62,4091625887034 ,48,5292829019174 ,44,4094182557794
14.5561025 ,Left ,62,3079660839279 ,48,5475873873803 ,44,3715697117571
14.570311 ,Left ,62,2355709613751 ,48,4730436679103 ,44,3897494194791
14.5935417 ,Left ,62,2204774684634 ,48,3697399840857 ,44,4551890140377
14.6159541 ,Left ,62,2049509688734 ,48,3386614262347 ,44,4740691101947
14.6303832 ,Left ,62,1885762132624 ,48,3846984738051 ,44,4482616703311
14.6534627 ,Left ,62,2120050729186 ,48,4311371107949 ,44,4262535684871
14.6761086 ,Left ,62,2781805381723 ,48,4500606965051 ,44,4431665710702
14.690296 ,Left ,62,3200613637737 ,48,4360825738172 ,44,4726698362416
14.7134568 ,Left ,62,2839263329378 ,48,4195473729536 ,44,4998995246128
14.7360124 ,Left ,62,2877259750928 ,48,4126477077553 ,44,5136147372474
14.7502638 ,Left ,62,2677242504869 ,48,4155504704118 ,44,519252871828
14.7734576 ,Left ,62,2178942071845 ,48,4342692708784 ,44,5499156544932
14.7960065 ,Left ,62,2472261096628 ,48,4031723055498 ,44,6185737912589
14.8103182 ,Left ,62,2960657679725 ,48,3542909047825 ,44,6625202839627
14.8334114 ,Left ,62,3072502383594 ,48,3418430094991 ,44,6602499051444
14.8558568 ,Left ,62,220155374291 ,48,3616720135271 ,44,664068786822
14.8768963 ,Left ,62,1792503259841 ,48,4373177243481 ,44,7275093528336
14.8933404 ,Left ,62,1518929775147 ,48,5632228027237 ,44,7650571307213
14.9157196 ,Left ,62,1014567511517 ,48,6759202827101 ,44,7846824919679
14.9369118 ,Left ,62,0360391581658 ,48,7154797333928 ,44,8160690282104
14.9533237 ,Left ,61,8796313119624 ,48,7480822026158 ,44,9024097560027
14.975857 ,Left ,61,738108315736 ,48,7194767437319 ,44,9561142503294
14.9970775 ,Left ,61,7428543327999 ,48,6570272262358 ,44,9943476794821
15.0137582 ,Left ,61,7616896749157 ,48,6323173406883 ,44,955331563383
15.0362179 ,Left ,61,688613269634 ,48,6795487665027 ,44,8698227887316
15.0574629 ,Left ,61,6248028433001 ,48,7428133555662 ,44,8063274966057
15.0737494 ,Left ,61,6998551140712 ,48,7778251043189 ,44,7763852761296
15.0962689 ,Left ,61,7706967308857 ,48,7869141425506 ,44,747424611205
15.117285 ,Left ,61,7882230115177 ,48,803180898099 ,44,7119612778824
15.1337587 ,Left ,61,7834555257209 ,48,8202445010316 ,44,6875006647569
15.1558588 ,Left ,61,7779992115141 ,48,8431297573065 ,44,6760624122125
15.1766704 ,Left ,61,7419097700484 ,48,8851001002569 ,44,6455057155983
15.1933386 ,Left ,61,6773798081999 ,48,9245290285205 ,44,5871725802621
15.2155675 ,Left ,61,5864381430054 ,48,9284198188256 ,44,5387906942331
15.2365327 ,Left ,61,4903422416587 ,48,8528543266664 ,44,5467093743492
15.2531305 ,Left ,61,4489929332742 ,48,7225027019993 ,44,6125481346378
15.2762958 ,Left ,61,3894559240518 ,48,5895096974279 ,44,633336750454
15.2975206 ,Left ,61,3697364015852 ,48,5074393805547 ,44,5895757380563
15.3127649 ,Left ,61,4322149080575 ,48,4102752158748 ,44,5349547661535
15.3359897 ,Left ,61,5666831325425 ,48,2676241276499 ,44,5188817406463
15.3583 ,Left ,61,7137802773837 ,48,1343936727665 ,44,5266951921093
15.3726612 ,Left ,61,8560475265785 ,48,0544510296098 ,44,5296094336654
15.3957402 ,Left ,61,9490627197679 ,48,0411766196779 ,44,5503200463747
15.4183046 ,Left ,62,0208237211153 ,48,0156682988893 ,44,5561164519031
15.4326012 ,Left ,62,1213463504782 ,47,9833357539836 ,44,595448820775
15.4557745 ,Left ,62,2149789669824 ,47,9560330240243 ,44,6502608778098
15.4783531 ,Left ,62,2492695816577 ,48,0005305956047 ,44,6959299406784
15.492577 ,Left ,62,2397054884742 ,48,1137212488349 ,44,7312793588884
15.5156293 ,Left ,62,2228942629558 ,48,2000284019544 ,44,7710414278702
15.5382855 ,Left ,62,2025232605071 ,48,2264164027468 ,44,8267953985152
15.5529682 ,Left ,62,1730687079455 ,48,2284470915815 ,44,8756404512991
15.5762623 ,Left ,62,1439858547785 ,48,2603464492501 ,44,9091429436244
15.5988504 ,Left ,62,0712695921247 ,48,2903293372801 ,44,92566108197
15.6126325 ,Left ,62,0394931526065 ,48,3332767263512 ,44,9468450621072
15.6358097 ,Left ,62,0176215583092 ,48,3821887252198 ,44,9711625710147
15.6583445 ,Left ,61,9828542430346 ,48,4202956191691 ,45,0136455885687
15.6723494 ,Left ,61,9997623358794 ,48,4312455446545 ,45,0731399419661
15.6958684 ,Left ,62,0033718512653 ,48,4168105661194 ,45,100722577371
15.7184046 ,Left ,62,0164286430732 ,48,418322095821 ,45,1125803624045
15.7396301 ,Left ,61,9907144567489 ,48,4458310223732 ,45,1096333597473
15.7556996 ,Left ,61,9768966134301 ,48,4810735020593 ,45,1062238626573
15.7782189 ,Left ,62,0124866269917 ,48,5146878357793 ,45,092693255418
15.7926394 ,Left ,62,0316964502637 ,48,5001596466994 ,45,0552060951487
15.8156497 ,Left ,62,028646705061 ,48,4780645784946 ,45,0233635007275
15.8384621 ,Left ,62,0195898038777 ,48,4771426759978 ,44,9902394560119
15.8597542 ,Left ,61,9831833168921 ,48,4707492559484 ,44,9663644704997
15.8759786 ,Left ,61,984184665865 ,48,460997767986 ,44,9749542169276
15.8984979 ,Left ,61,99737957338 ,48,4779311596624 ,45,0183401509806
15.9196309 ,Left ,61,9583208698489 ,48,5203889586028 ,45,0585850600783
15.9358658 ,Left ,61,9266354170718 ,48,5577492029615 ,45,0938684191194
15.9583966 ,Left ,61,9649640678109 ,48,5883037485667 ,45,0999365803931
15.9797222 ,Left ,61,9631680466353 ,48,5747616808564 ,45,1009860215762
15.9958697 ,Left ,61,9758025957407 ,48,5472180158614 ,45,1055057681883
16.0183503 ,Left ,61,9914884294417 ,48,5287337873494 ,45,1090257899481
16.0396032 ,Left ,61,9914884294417 ,48,5287337873494 ,45,1090257899481
16.0558641 ,Left ,62,0063561751934 ,48,5476745503709 ,45,1150955128625
16.0783608 ,Left ,62,0349726880767 ,48,5732354861288 ,45,1413686717906
16.100993 ,Left ,62,0820181006569 ,48,612694964043 ,45,1755170663463
16.1161071 ,Left ,62,1164813470665 ,48,6688380316677 ,45,2010073317039
16.1387766 ,Left ,62,1462437282385 ,48,7377546804839 ,45,2090840219516
16.1599086 ,Left ,62,180438954273 ,48,8117299343426 ,45,2062409710747
16.1759718 ,Left ,62,2035553899744 ,48,8847544225106 ,45,1955840113869
16.1984635 ,Left ,62,2056227072631 ,48,9431139669934 ,45,1832134963348
16.2194876 ,Left ,62,1868492425157 ,48,9929652867374 ,45,1799496333892
16.235338 ,Left ,62,1458657313192 ,49,0447171606297 ,45,1898713561822
16.2583863 ,Left ,62,1156351664148 ,49,094644809407 ,45,1980354515152
16.2809428 ,Left ,62,0657880547997 ,49,1202171163539 ,45,2168713852799
16.2959444 ,Left ,62,0409499145197 ,49,0959777819837 ,45,2537247345312
16.3184485 ,Left ,62,0529685605895 ,49,0559398296118 ,45,3063572973339
16.3409268 ,Left ,62,0133467051639 ,49,0206305365105 ,45,3441787411963
16.35595 ,Left ,61,9605361286557 ,49,0062462316048 ,45,3684947514759
16.3784366 ,Left ,61,9256966149952 ,48,9711001373808 ,45,3976295166428
16.4008229 ,Left ,61,9531111815654 ,48,8934978396671 ,45,4380581419703
16.4152386 ,Left ,62,0168190817737 ,48,8549794458047 ,45,4546992591127
16.4384226 ,Left ,62,1082271839072 ,48,8635408239213 ,45,4095519305466
16.4609783 ,Left ,62,2080348149076 ,48,8355475413115 ,45,363365819877
16.4820519 ,Left ,62,3260178198258 ,48,7878173756124 ,45,3196094368007
16.4984585 ,Left ,62,4334307625681 ,48,7771123546459 ,45,2558385835154
16.5209859 ,Left ,62,4578554802707 ,48,7798929326691 ,45,1993522447988
16.542163 ,Left ,62,4400059426539 ,48,7921196606782 ,45,1892347678675
16.5584646 ,Left ,62,4100919491123 ,48,8314435084265 ,45,2086258209343
16.5808956 ,Left ,62,3747356388586 ,48,8548195424472 ,45,2281271578829
16.5952588 ,Left ,62,3420239778655 ,48,8278606646311 ,45,2625377988209
16.6184783 ,Left ,62,313528352825 ,48,7843392824737 ,45,2771196991112
16.6409109 ,Left ,62,2652937218973 ,48,7605837907774 ,45,2932366782533
16.6553257 ,Left ,62,2772373271569 ,48,7533601898421 ,45,2891370264738
16.6784124 ,Left ,62,3375601859157 ,48,7521429095256 ,45,2805090659453
16.7009044 ,Left ,62,3793874462942 ,48,7590401797571 ,45,2558141473792
16.7219406 ,Left ,62,3956457807136 ,48,7485563266769 ,45,2350530904118
16.7383884 ,Left ,62,4570953011519 ,48,687275277993 ,45,2329281580577
16.7609212 ,Left ,62,4800881525732 ,48,6690775697538 ,45,2271283490205
16.7820384 ,Left ,62,4514694464522 ,48,6668672155286 ,45,1974045040536
16.7981594 ,Left ,62,4185637919364 ,48,69875774198 ,45,1971385976775
16.8207598 ,Left ,62,4438416065648 ,48,7115183326613 ,45,2210318914799
16.8416929 ,Left ,62,4423459591505 ,48,7106926837857 ,45,258999854539
16.8484656 ,Left ,62,4383478730135 ,48,7205819209977 ,45,3017389104374
16.8636588 ,Left ,62,3822530397125 ,48,7454860384209 ,45,3326003341223
16.8863576 ,Left ,62,3515928214567 ,48,7941383517123 ,45,3917751566612
16.9087485 ,Left ,62,3229201551635 ,48,8784357254324 ,45,4207682741941
16.9234822 ,Left ,62,2622930815048 ,48,9547442380062 ,45,4175596117234
16.9462815 ,Left ,62,1851234158218 ,48,9829468751866 ,45,4275911953484
16.9691576 ,Left ,62,0321597097478 ,48,9627068231191 ,45,4711901440728
16.9840545 ,Left ,61,9577232183839 ,48,8723433138548 ,45,5155954412641
17.0067411 ,Left ,61,9675460731331 ,48,8258324250272 ,45,5129411267282
17.02935 ,Left ,61,9322426759502 ,48,8666264009488 ,45,439732332394
17.0441956 ,Left ,61,8322174954562 ,48,9587320990536 ,45,3589792220578
17.0664011 ,Left ,61,8161813141671 ,49,0276818459599 ,45,3222539706238
17.0890477 ,Left ,61,8851971766922 ,49,0509278545541 ,45,3085252027622
17.103951 ,Left ,61,9124726284756 ,49,055492233838 ,45,2742957005775
17.1264956 ,Left ,61,8932374920911 ,49,0731538847299 ,45,2218452226421
17.1488642 ,Left ,61,8771991153709 ,49,0884440218325 ,45,1870795089076
17.1640421 ,Left ,61,8423817578006 ,49,1009262224262 ,45,1529061689019
17.1866835 ,Left ,61,7758969358471 ,49,1217817892336 ,45,1016651009813
17.2091111 ,Left ,61,6969947291722 ,49,1364877572673 ,45,0384747431227
17.2237901 ,Left ,61,5910077373687 ,49,0754556137951 ,44,9969000384648
17.2466355 ,Left ,61,5402436414924 ,48,9342736515796 ,45,0102954142486
17.269147 ,Left ,61,4864907158265 ,48,7959937464995 ,45,0045205815699
17.2842626 ,Left ,61,453413270803 ,48,7018642093979 ,44,9549589319574
17.3066152 ,Left ,61,4818164209994 ,48,6148270453938 ,44,9103313362866
17.329158 ,Left ,61,5823093578424 ,48,5008968055109 ,44,9041678700899
17.3439818 ,Left ,61,7388073930648 ,48,366329863607 ,44,926832598768
17.3664407 ,Left ,61,8753310241525 ,48,2373111947012 ,44,9485122189016
17.3888723 ,Left ,61,9997213619755 ,48,1363301917149 ,44,9458335384604
17.4038926 ,Left ,62,1168505738811 ,48,0828205564274 ,44,9329631935426
17.4266882 ,Left ,62,2062589469604 ,48,0914101802162 ,44,931757424607
17.4489213 ,Left ,62,2869887600925 ,48,1425316657867 ,44,9386565645666
17.4640616 ,Left ,62,3746822168752 ,48,234571198966 ,44,96835586861
17.4865488 ,Left ,62,4507728282279 ,48,3394290183527 ,45,0095074997192
17.5091104 ,Left ,62,4707871468714 ,48,4111581712054 ,45,0393693940624
17.5239881 ,Left ,62,4239860127559 ,48,4609760851903 ,45,0910635367988
17.5462218 ,Left ,62,3994103546039 ,48,4820736452766 ,45,1300970859994
17.5688624 ,Left ,62,382895752658 ,48,4806790894725 ,45,1652994260241
17.5839193 ,Left ,62,3757837575619 ,48,4661049397167 ,45,1939623200827
17.6064967 ,Left ,62,3768847974528 ,48,4751746072681 ,45,2252198725368
17.6287481 ,Left ,62,3689292367338 ,48,4958328679044 ,45,2664514583637
17.6435167 ,Left ,62,3759096203405 ,48,5293107684524 ,45,3071457988337
17.666102 ,Left ,62,3622428143155 ,48,5651111556689 ,45,3615528963447
17.688725 ,Left ,62,3398867399219 ,48,5923127531269 ,45,4343840131235
17.7036679 ,Left ,62,3371773909581 ,48,5898261237307 ,45,5035282980329
17.7263432 ,Left ,62,3927217489164 ,48,5816029056198 ,45,5516257278342
17.7486581 ,Left ,62,3858371042902 ,48,6037345212408 ,45,5678005836107
17.7636297 ,Left ,62,3449680806251 ,48,6238178892311 ,45,5591589361256
17.7864364 ,Left ,62,3683280468343 ,48,6237193370437 ,45,5397950007826
17.8093571 ,Left ,62,4264230817705 ,48,6126954401693 ,45,5060385808895
17.8254751 ,Left ,62,4557128435789 ,48,609957454969 ,45,4743217645502
17.8466819 ,Left ,62,4309850390111 ,48,5931210669219 ,45,4507981694457
17.8691353 ,Left ,62,4233036400665 ,48,5575440482967 ,45,4409370885131
17.8853961 ,Left ,62,4474543105075 ,48,5243054374303 ,45,441535310226
17.9066097 ,Left ,62,4606298569783 ,48,5233578259404 ,45,4376468104793
17.9289871 ,Left ,62,4551176628898 ,48,5547252012324 ,45,4216554959431
17.9453208 ,Left ,62,4488897846881 ,48,5903821898187 ,45,4054007513532
17.9664033 ,Left ,62,451648472412 ,48,6166980714646 ,45,3991365532631
17.9890311 ,Left ,62,4424706099095 ,48,6392655310809 ,45,4136958433779
18.0053601 ,Left ,62,4159326464164 ,48,6558712267328 ,45,4381844592508
18.0263876 ,Left ,62,392470947769 ,48,6878528262939 ,45,451721997821
18.0491568 ,Left ,62,3713897581881 ,48,7425359626198 ,45,4468552764551
18.065352 ,Left ,62,3492661410576 ,48,8041819283714 ,45,4448166893
18.0866841 ,Left ,62,3343510216176 ,48,865248803971 ,45,4312507741003
18.1090449 ,Left ,62,3029598721965 ,48,9059892144678 ,45,4255816902857
18.1268441 ,Left ,62,2875944031754 ,48,9613032947165 ,45,4306261460939
18.1467112 ,Left ,62,2582697259365 ,49,0188204242961 ,45,442077613416
18.1691672 ,Left ,62,2326522362718 ,49,0713061208005 ,45,4721164160869
18.1867818 ,Left ,62,2501627212116 ,49,1179273937498 ,45,5044421441857
18.2066741 ,Left ,62,2515476214819 ,49,1713673255985 ,45,540967941463
18.2291258 ,Left ,62,2277498810229 ,49,2153359867158 ,45,571384576065
18.2468485 ,Left ,62,2174057270937 ,49,2416181503307 ,45,5977242800915
18.2665373 ,Left ,62,210140807196 ,49,2645680717499 ,45,6223672904445
18.2890658 ,Left ,62,2074313731112 ,49,2682256333276 ,45,6494305375394
18.3068454 ,Left ,62,1989444163125 ,49,2342013843125 ,45,6890377280777
18.3265305 ,Left ,62,2097071524526 ,49,1566462253682 ,45,7221468035329
18.3488859 ,Left ,62,2377319235474 ,49,0697259614935 ,45,7414692471476
18.3668717 ,Left ,62,2350181940037 ,48,9686416947918 ,45,744895007006
18.3864496 ,Left ,62,2681626863475 ,48,8532619944646 ,45,7306885331664
18.4090522 ,Left ,62,3343555291759 ,48,737257215995 ,45,7064461526262
18.4268923 ,Left ,62,3864883055104 ,48,6381357240234 ,45,6984266253634
18.4467102 ,Left ,62,4042999152309 ,48,5637696651541 ,45,735680858289
18.4685504 ,Left ,62,4879786410258 ,48,5309015352107 ,45,7770125622485
18.486677 ,Left ,62,5887414430813 ,48,5376297991717 ,45,7780925860359
18.5062506 ,Left ,62,6142073123014 ,48,5464803421525 ,45,743195999307
18.5293713 ,Left ,62,6321768344252 ,48,5569953804326 ,45,6970055003241
18.5515857 ,Left ,62,6635286761137 ,48,5632800727422 ,45,6497693920707
18.5666917 ,Left ,62,6538741914407 ,48,55267134592 ,45,5952719295238
18.5893116 ,Left ,62,6017092397487 ,48,5246923643784 ,45,5655204200405
18.6070646 ,Left ,62,5572120402736 ,48,5209938357152 ,45,5345874176537
18.6263121 ,Left ,62,4726818209942 ,48,5311061259442 ,45,5158823509201
18.6487807 ,Left ,62,4612965716954 ,48,5426230732928 ,45,5007806721937
18.666447 ,Left ,62,5271660238952 ,48,5508159611513 ,45,5312184093941
18.6861721 ,Left ,62,6057560012118 ,48,5261755167023 ,45,5678036596559
18.7085549 ,Left ,62,6124167678142 ,48,4911548282723 ,45,5565306424256
18.7265707 ,Left ,62,6127165203594 ,48,4539956245859 ,45,5280396894642
18.7462608 ,Left ,62,6589882095237 ,48,433464728836 ,45,5078821270609
18.768764 ,Left ,62,6928992394527 ,48,4522426888165 ,45,4782392791912
18.7866546 ,Left ,62,6830109181415 ,48,4515875223025 ,45,4514220876145
18.8077102 ,Left ,62,6624700211768 ,48,4352888839293 ,45,4530379363401
18.8302166 ,Left ,62,6862519142623 ,48,4167273862861 ,45,4744463660134
18.846676 ,Left ,62,7198295690301 ,48,4199891234523 ,45,5167442001612
18.8676301 ,Left ,62,7041089997899 ,48,4568440306333 ,45,542798231487
18.8889539 ,Left ,62,6566677200912 ,48,5015917971706 ,45,5647644390199
18.9068415 ,Left ,62,6080366365305 ,48,5949786272841 ,45,6243119303781
18.9276743 ,Left ,62,5435614094481 ,48,7151676828896 ,45,6601759773286
18.9488446 ,Left ,62,4518025096302 ,48,7892016514769 ,45,65551004648
18.9794289 ,Left ,62,3567558460876 ,48,8085253793133 ,45,6681948455236
18.98767 ,Left ,62,216528508241 ,48,8446728722084 ,45,7360041582415
19.0089222 ,Left ,62,1493041778058 ,48,8184499611891 ,45,7715987079918
19.0313689 ,Left ,62,1727817241642 ,48,7868281597918 ,45,7776506093825
19.047841 ,Left ,62,1471959317816 ,48,8011430293413 ,45,7078079579477
19.0690839 ,Left ,62,0454642101304 ,48,8551972470689 ,45,6250209833503
19.0915841 ,Left ,62,0388712583183 ,48,8982031346558 ,45,556430866942
19.1094274 ,Left ,62,1097492331624 ,48,9049740258383 ,45,5084166207242
19.1291146 ,Left ,62,1547902134327 ,48,9167111226744 ,45,4562956731179
19.1515233 ,Left ,62,1198861550047 ,48,9305343699439 ,45,4207544377363
19.1693877 ,Left ,62,0991667269592 ,48,918823402088 ,45,4116310478455
19.1889831 ,Left ,62,0660522061661 ,48,8884010109326 ,45,4129311722776
19.2068418 ,Left ,62,0016181562071 ,48,8465166537596 ,45,4063289742134
19.2292797 ,Left ,61,9540312384414 ,48,7806492006184 ,45,4182374350249
19.2485511 ,Left ,61,8807043050907 ,48,6507801745215 ,45,4557843248842
19.2671059 ,Left ,61,8328160335601 ,48,5193955930554 ,45,4906414997756
19.2894953 ,Left ,61,8437427189088 ,48,4573252333653 ,45,4628139307928
19.3090811 ,Left ,61,9046366236547 ,48,4051025171946 ,45,3871879245005
19.331245 ,Left ,62,0383602906305 ,48,2795667538296 ,45,339001519539
19.3490398 ,Left ,62,1969568818044 ,48,1136605847853 ,45,3249423612268
19.3687477 ,Left ,62,3391757635995 ,47,9788519220672 ,45,3176511515853
19.3913556 ,Left ,62,4441030530527 ,47,9190796845822 ,45,3112877726023
19.4093325 ,Left ,62,5451763570487 ,47,8773964677564 ,45,3233179758174
19.4293336 ,Left ,62,665038044866 ,47,8064794235168 ,45,3796229598032
19.451852 ,Left ,62,8003339036621 ,47,7630105665519 ,45,4602590773261
19.4692895 ,Left ,62,9161605382576 ,47,8255443532779 ,45,5172072108317
19.4888881 ,Left ,63,0025990490412 ,47,9557802647919 ,45,5527417736683
19.511369 ,Left ,63,0536702523609 ,48,0504907376716 ,45,6010075596779
19.5292308 ,Left ,63,0553966075936 ,48,0808963990815 ,45,6355576585091
19.5485825 ,Left ,63,0364178380639 ,48,0992579432181 ,45,6587611756605
19.5713856 ,Left ,62,988995458604 ,48,1178728494981 ,45,657613892124
19.5888284 ,Left ,62,9353309054923 ,48,140750924608 ,45,6654132076494
19.6087376 ,Left ,62,8690675913803 ,48,1587548581743 ,45,676738335919
19.6266337 ,Left ,62,8437822512705 ,48,153311248468 ,45,7028254377804
19.6490034 ,Left ,62,8047735517278 ,48,1510775854679 ,45,7489098699577
19.6691915 ,Left ,62,7618535780754 ,48,1503039726524 ,45,8108751219955
19.6869876 ,Left ,62,7625874267543 ,48,1647942791773 ,45,8744367054894
19.70942 ,Left ,62,7605702011148 ,48,2010475796574 ,45,9199817103009
19.7306572 ,Left ,62,7133909138073 ,48,2663919019947 ,45,9510347026706
19.7470461 ,Left ,62,7232699626373 ,48,3548609967555 ,45,9559510024393
19.7694676 ,Left ,62,7121919419727 ,48,4071369843681 ,45,9413065650993
19.7904412 ,Left ,62,6878966686406 ,48,4240152291577 ,45,9297607720848
19.8068607 ,Left ,62,6555323097346 ,48,434522715089 ,45,9376044092432
19.8293773 ,Left ,62,6268540683676 ,48,4480674018044 ,45,9696276142417
19.8502617 ,Left ,62,5811299834983 ,48,4558988962159 ,46,0156849424062
19.8715859 ,Left ,62,550583569745 ,48,4706991025584 ,46,06524693535
19.889247 ,Left ,62,539231052797 ,48,4989933355209 ,46,076140670352
19.9103561 ,Left ,62,5139564492108 ,48,5084479419823 ,46,0784092309922
19.931506 ,Left ,62,5145966768866 ,48,5090030769736 ,46,0764001533351
19.9494161 ,Left ,62,5388580766533 ,48,5157017135003 ,46,0768533249069
19.9704506 ,Left ,62,5585189288681 ,48,5260141497803 ,46,0729668505351
19.9916763 ,Left ,62,5500067234916 ,48,5385173150006 ,46,0811258804486
20.0093743 ,Left ,62,562777908334 ,48,5540054199146 ,46,1033278718561
20.0317199 ,Left ,62,5561426378524 ,48,568934591664 ,46,1230187407526
20.0513225 ,Left ,62,5432592911573 ,48,5707360891227 ,46,1461585840531
20.0694034 ,Left ,62,5345995840683 ,48,5738231542098 ,46,1673137741342
20.0918172 ,Left ,62,5495377749736 ,48,580910139865 ,46,1794437426742
20.1114767 ,Left ,62,5738170509097 ,48,6017024212665 ,46,1816885357138
20.1294298 ,Left ,62,5905936183648 ,48,628949076327 ,46,1661827374124
20.1518193 ,Left ,62,6149891486373 ,48,6584797722659 ,46,1572979824128
20.171416 ,Left ,62,6329976901793 ,48,6872982419366 ,46,1487463565113
20.1894189 ,Left ,62,6485730099371 ,48,7192014596486 ,46,1375259232387
20.2119222 ,Left ,62,6479505239215 ,48,7637202182549 ,46,1225282737891
20.2315107 ,Left ,62,6426271119529 ,48,7978342600494 ,46,1056463618677
20.2493156 ,Left ,62,6453451512739 ,48,8221219027577 ,46,0838949556004
20.2719111 ,Left ,62,6452653419937 ,48,8419883755343 ,46,0562261643709
20.2913952 ,Left ,62,6338870548599 ,48,8672353084654 ,46,0234011749258
20.3093105 ,Left ,62,6211635948361 ,48,892486161861 ,46,005525487194
20.3318332 ,Left ,62,6243221919054 ,48,9141880575956 ,46,0101325159853
20.35138 ,Left ,62,6093683956662 ,48,9337169761963 ,46,0260677269955
20.3693473 ,Left ,62,5942968867166 ,48,9526796937588 ,46,0480562675127
20.3917727 ,Left ,62,5642452694747 ,48,9803216036204 ,46,0813022924531
20.4116254 ,Left ,62,5204110294919 ,49,0035512229256 ,46,1370207073924
20.4286761 ,Left ,62,5195353076535 ,49,0047540773958 ,46,2052189855108
20.4511293 ,Left ,62,5295900157895 ,48,9876146427792 ,46,2649714879037
20.4720727 ,Left ,62,5196709595315 ,48,9490483679732 ,46,3152809625558
20.4886512 ,Left ,62,5236910014357 ,48,8903755433699 ,46,3560233318374
20.5111413 ,Left ,62,5331557457114 ,48,8163181824003 ,46,383443974743
20.5323194 ,Left ,62,5182414492979 ,48,7730152748209 ,46,3813293749721
20.5483473 ,Left ,62,4817120394967 ,48,710912777846 ,46,3585603285867
20.5710262 ,Left ,62,5180562161513 ,48,6140500146142 ,46,3549812648723
20.5923038 ,Left ,62,5895373666826 ,48,588819700436 ,46,3505187605568
20.6085423 ,Left ,62,6292053018037 ,48,6363001448051 ,46,2864640629865
20.6310339 ,Left ,62,6542330449755 ,48,6662737771432 ,46,2460180945555
20.6520616 ,Left ,62,7180404424448 ,48,6660449452821 ,46,2464109818604
20.6686655 ,Left ,62,7951531756544 ,48,6866457317136 ,46,2311725610861
20.6910553 ,Left ,62,7788344044457 ,48,6861039942475 ,46,1985013571435
20.712066 ,Left ,62,7414514078291 ,48,7004372155518 ,46,1952811157179
20.7285682 ,Left ,62,6654934467316 ,48,7515021513534 ,46,202732963925
20.7510063 ,Left ,62,6094951725744 ,48,8005551034594 ,46,2135560322886
20.7720421 ,Left ,62,5879753890536 ,48,8086272874999 ,46,1786226059826
20.7881547 ,Left ,62,6451351730442 ,48,7693306996612 ,46,1696658640044
20.8106036 ,Left ,62,6679857766756 ,48,704366598824 ,46,1782425081152
20.8318284 ,Left ,62,6988536981596 ,48,6469833352856 ,46,1807102708545
20.8481762 ,Left ,62,7202266592636 ,48,613355826227 ,46,1389068661319
20.8706214 ,Left ,62,7365526134448 ,48,585457057964 ,46,1020419242875
20.8918899 ,Left ,62,7797723023356 ,48,5954070634052 ,46,0745902895434
20.9084032 ,Left ,62,7925543156113 ,48,6051185645504 ,46,039270123657
20.9308958 ,Left ,62,7622449885041 ,48,601689207959 ,46,0088440915155
20.9521646 ,Left ,62,7656886662496 ,48,6055181698233 ,46,0314141266316
20.9684013 ,Left ,62,7895742275336 ,48,6151686617386 ,46,0757579208515
20.9909035 ,Left ,62,8148214311421 ,48,6370007924049 ,46,0954160663888
21.0134992 ,Left ,62,7397772525837 ,48,6589148436792 ,46,0906984824375
21.0282433 ,Left ,62,6540863663311 ,48,701545355586 ,46,1253213898996
21.0509111 ,Left ,62,592056018506 ,48,7895484325494 ,46,1638456080523
21.0733856 ,Left ,62,5223319749612 ,48,8856964763408 ,46,1552555319797
21.0886496 ,Left ,62,4321918161836 ,48,8908019241133 ,46,1396365526785
21.1108665 ,Left ,62,2768966621647 ,48,8766902812397 ,46,1491017018978
21.1333059 ,Left ,62,1572444937995 ,48,8411645557545 ,46,1742794165287
21.1479512 ,Left ,62,1703610850329 ,48,7590648005517 ,46,2030051107439
21.1709185 ,Left ,62,1879915623359 ,48,7422881880649 ,46,1441249839973
21.1933559 ,Left ,62,076177581139 ,48,7934417122564 ,46,0167086159161
21.2144966 ,Left ,62,0315963911721 ,48,8337348184596 ,45,9336219994025
21.2309251 ,Left ,62,1160392737869 ,48,820400268093 ,45,9060604189341
21.2534204 ,Left ,62,1780449624245 ,48,8386255447815 ,45,8890006822424
21.2745382 ,Left ,62,1390394934476 ,48,8822136511194 ,45,8531765057725
21.290887 ,Left ,62,0912231080164 ,48,8953458547625 ,45,8267677786386
21.3135452 ,Left ,62,0739635339079 ,48,8534839585044 ,45,8262174956081
21.3276795 ,Left ,62,0455362112923 ,48,8179792070924 ,45,8270744657716
21.3508358 ,Left ,61,9416834472616 ,48,7938528225738 ,45,8035937349621
21.3734755 ,Left ,61,8333072638676 ,48,7232841663998 ,45,7897342695443
21.3881174 ,Left ,61,8018686567197 ,48,5741872312284 ,45,8052905299137
21.4113297 ,Left ,61,7737429884561 ,48,4346677274178 ,45,8140340964958
21.4339782 ,Left ,61,7705969884107 ,48,3883134374069 ,45,7688431747138
21.4480666 ,Left ,61,8045822917218 ,48,3338751550155 ,45,7228991803465
21.4709056 ,Left ,61,9191157092573 ,48,2132569685558 ,45,7300647489353
21.4933504 ,Left ,62,062317701115 ,48,113441334172 ,45,7603549181755
21.5144252 ,Left ,62,1658549941526 ,48,0574381336222 ,45,7595852705044
21.5308796 ,Left ,62,2724934450274 ,47,9829645878965 ,45,7250361397557
21.5533826 ,Left ,62,3887479508917 ,47,9271175286456 ,45,7472258246139
21.5744025 ,Left ,62,4418329696657 ,47,8855410649934 ,45,7847987365713
21.5908615 ,Left ,62,4907208007591 ,47,9341894300759 ,45,8247751466423
21.6133234 ,Left ,62,550478003429 ,48,0244272872105 ,45,8600668942109
21.6345138 ,Left ,62,5833958967916 ,48,1161603268464 ,45,8781168814154
21.6507648 ,Left ,62,5808370142972 ,48,1889340409516 ,45,9134682483841
21.6733966 ,Left ,62,5420088475986 ,48,2242382034873 ,45,9474769465691
21.6945528 ,Left ,62,5268224380324 ,48,2362797502581 ,45,9923206692525
21.7108815 ,Left ,62,4927051831714 ,48,2425265270006 ,46,0049696996906
21.7333436 ,Left ,62,4623233042242 ,48,267048215544 ,45,999428187074
21.7541605 ,Left ,62,4421902685365 ,48,303098958111 ,45,9996999050575
21.7706544 ,Left ,62,4388528132229 ,48,3512766065876 ,46,0011586121713
21.7931881 ,Left ,62,4319142614331 ,48,406496173527 ,46,0354298974254
21.8144234 ,Left ,62,4220515844842 ,48,4453711131451 ,46,1202686758491
21.830881 ,Left ,62,4114138589076 ,48,4337094759071 ,46,2200554611307
21.8533447 ,Left ,62,4975101620499 ,48,4488954620404 ,46,2919710122301
21.8744787 ,Left ,62,470524423233 ,48,4613054965846 ,46,3124601420015
21.8906586 ,Left ,62,4252140029786 ,48,4406076398378 ,46,3314213849774
21.9133848 ,Left ,62,4449354421441 ,48,4326468371929 ,46,3557942569774
21.9357713 ,Left ,62,5067965418759 ,48,4379468539232 ,46,3626273007129
21.9509907 ,Left ,62,5028420603361 ,48,4319538185297 ,46,3498945572708
21.9734734 ,Left ,62,4789918486636 ,48,4124093637776 ,46,3356089932972
21.9958638 ,Left ,62,4743940876564 ,48,3776188432436 ,46,325716965688
22.0111153 ,Left ,62,5100621770814 ,48,3391680279294 ,46,318744629228
22.0333052 ,Left ,62,5451308605039 ,48,3272242247981 ,46,3038404122091
22.0558475 ,Left ,62,5438344548551 ,48,3320382493152 ,46,2869699113679
22.0709533 ,Left ,62,5446719018407 ,48,3534280137372 ,46,2874546657686
22.0936496 ,Left ,62,5745390791346 ,48,3974952300168 ,46,2903265964929
22.1159055 ,Left ,62,6029621102838 ,48,455837181715 ,46,2846568860181
22.1301736 ,Left ,62,6027483884146 ,48,5056473469176 ,46,282429605175
22.153657 ,Left ,62,591287652085 ,48,553964578636 ,46,2911944768286
22.1759176 ,Left ,62,5905067365772 ,48,6175190124718 ,46,2969161941492
22.190142 ,Left ,62,5582337291543 ,48,6846880687785 ,46,2963800804437
22.2135237 ,Left ,62,5132642292886 ,48,7506175520444 ,46,300492687924
22.2359861 ,Left ,62,459927940521 ,48,8006538047232 ,46,3260051096772
22.2502163 ,Left ,62,4080172951568 ,48,8438515593066 ,46,3736755890398
22.2734447 ,Left ,62,3803655191041 ,48,89541123098 ,46,4226292007358
22.2959008 ,Left ,62,336745665853 ,48,903645038404 ,46,4590088056053
22.310109 ,Left ,62,3157994900958 ,48,8606518386017 ,46,5189985256087
22.3334299 ,Left ,62,2951211206006 ,48,8161351823265 ,46,5824989312358
22.355918 ,Left ,62,2992111999254 ,48,7972101735238 ,46,6144308368608
22.370214 ,Left ,62,3333598735787 ,48,811860260691 ,46,5860695898875
22.3936496 ,Left ,62,4167796294984 ,48,8092194717929 ,46,5233157017403
22.4158206 ,Left ,62,5224478737012 ,48,7793190995873 ,46,4703206652649
22.4371529 ,Left ,62,6130961861102 ,48,7459978753247 ,46,4232017307364
22.4534973 ,Left ,62,6809385776666 ,48,6985835594186 ,46,3738630085057
22.4758416 ,Left ,62,7160011325189 ,48,6319520714573 ,46,3381429393109
22.497236 ,Left ,62,7296518288622 ,48,6020227543999 ,46,3262321254407
22.5136789 ,Left ,62,6639846473767 ,48,6296787928105 ,46,3313349567411
22.5359363 ,Left ,62,6380838298438 ,48,6793970555177 ,46,3335681172633
22.557105 ,Left ,62,6552822555846 ,48,6826174672153 ,46,3249235359643
22.5734143 ,Left ,62,7241995401973 ,48,6645830565866 ,46,3386003566682
22.5958539 ,Left ,62,7458813309981 ,48,6848671422816 ,46,3304166375831
22.6169365 ,Left ,62,6867689749412 ,48,6982610119268 ,46,3096118774801
22.6333494 ,Left ,62,7120707939822 ,48,6898776822085 ,46,32076240524
22.6562414 ,Left ,62,7855127501635 ,48,7102056207002 ,46,324956109747
22.6776274 ,Left ,62,766193821528 ,48,7281378847299 ,46,2983093627747
22.6937873 ,Left ,62,7270027000005 ,48,7257057466568 ,46,2689166091769
22.7159384 ,Left ,62,7098419226813 ,48,6765289218282 ,46,2707533922957
22.7372045 ,Left ,62,786355087221 ,48,6157157226783 ,46,3119866822568
22.7532832 ,Left ,62,8625377471468 ,48,6459593750887 ,46,3434224125593
22.7759788 ,Left ,62,8092859221106 ,48,7097191512562 ,46,3672115131564
22.7973671 ,Left ,62,7073379964708 ,48,7922951894604 ,46,4156485495002
22.8134379 ,Left ,62,6715532516553 ,48,8907095634791 ,46,4413350527767
22.8357873 ,Left ,62,6264112769495 ,48,9682412404547 ,46,4332735466407
22.8570691 ,Left ,62,5501298697784 ,48,9564276609783 ,46,4280024864894
22.8725676 ,Left ,62,3534214138377 ,48,9255100219395 ,46,4772659464778
22.895835 ,Left ,62,2167305180927 ,48,8707660358589 ,46,5331300612865
22.9184091 ,Left ,62,2197903274381 ,48,8601595387262 ,46,5390813904923
22.9327133 ,Left ,62,1861028830664 ,48,8981579661849 ,46,4519423648266
22.9560134 ,Left ,62,0889936761461 ,48,9540994337584 ,46,3664681701647
22.9786371 ,Left ,62,0778651267113 ,48,992353732639 ,46,336467263687
22.9927946 ,Left ,62,1410469182903 ,49,022456199325 ,46,3142259951028
23.0159094 ,Left ,62,1765775129656 ,49,0359494539821 ,46,2684911083186
23.0384219 ,Left ,62,1589328034742 ,49,054943904238 ,46,2165054081126
23.0527988 ,Left ,62,1420133784179 ,49,0802873051854 ,46,1795337696689
23.0757291 ,Left ,62,1002829309694 ,49,0922585552591 ,46,122361023426
23.0983316 ,Left ,62,0290957788251 ,49,0946660695559 ,46,0635138849824
23.1128325 ,Left ,61,9662717852022 ,49,0566276146545 ,46,0407141984767
23.1359239 ,Left ,61,9023761370082 ,48,9664920672511 ,46,0478992739513
23.1582549 ,Left ,61,8432971313521 ,48,8793080264006 ,46,0708206635198
23.1730917 ,Left ,61,7964970349822 ,48,8201656662084 ,46,0473771198553
23.1962822 ,Left ,61,8219726023607 ,48,7969259566758 ,46,0108315466778
23.2187516 ,Left ,61,8704839326185 ,48,7649281522293 ,45,9876723577367
23.2328711 ,Left ,61,9676566129746 ,48,7327458393727 ,45,989317264364
23.2560812 ,Left ,62,0333240509158 ,48,6811220320766 ,45,994287578952
23.2785712 ,Left ,62,0955294652658 ,48,6084233462901 ,46,0245269997534
23.2996456 ,Left ,62,1476882828108 ,48,4950007547986 ,46,0683815468592
23.3163437 ,Left ,62,2004674873191 ,48,4052874806702 ,46,1109751899461
23.3384292 ,Left ,62,250367037961 ,48,3385023751307 ,46,1102265946252
23.3595774 ,Left ,62,3308403339134 ,48,2352537867465 ,46,0868015937742
23.3759164 ,Left ,62,443387176589 ,48,1190429791186 ,46,102433000593
23.3984396 ,Left ,62,5631386494957 ,48,0552342804347 ,46,1364369922747
23.4197321 ,Left ,62,5679146466025 ,48,0796720618076 ,46,1398674101782
23.435973 ,Left ,62,5478196114883 ,48,1511699889275 ,46,132025114458
23.4586668 ,Left ,62,5796755766462 ,48,2100705599209 ,46,1471366700626
23.4797177 ,Left ,62,5649574799956 ,48,2385214770019 ,46,1882372473238
23.4958653 ,Left ,62,5829364324865 ,48,256079445463 ,46,2742429832135
23.5180186 ,Left ,62,5931991921932 ,48,2672304845762 ,46,326574328025
23.5395005 ,Left ,62,6051938810915 ,48,2450364715694 ,46,362535965109
23.5559129 ,Left ,62,614574930148 ,48,2433765820622 ,46,3947597272443
23.578187 ,Left ,62,6040090849685 ,48,29344241552 ,46,4148856823416
23.5999285 ,Left ,62,5620350543772 ,48,3888182074088 ,46,4275833379712
23.6165615 ,Left ,62,5022520758046 ,48,4738701725801 ,46,4499816643845
23.6388621 ,Left ,62,4724879551067 ,48,5556388250944 ,46,4974760699946
23.6601639 ,Left ,62,4582791897697 ,48,6116765269182 ,46,5284570853402
23.6762806 ,Left ,62,4524180812991 ,48,5569743052655 ,46,5568569772789
23.6992016 ,Left ,62,4717295521889 ,48,4666737965641 ,46,5850431493183
23.7201068 ,Left ,62,4356588274556 ,48,4267751492061 ,46,5759778380818
23.7362245 ,Left ,62,4011649350886 ,48,4356160833861 ,46,5470114792399
23.7587913 ,Left ,62,4240458865619 ,48,4294522060467 ,46,5359741862443
23.7797289 ,Left ,62,4679509018033 ,48,4121195370194 ,46,5203715190551
23.7958523 ,Left ,62,4686154813552 ,48,3759946368075 ,46,5158031144977
23.8184587 ,Left ,62,4570623341348 ,48,3313141403508 ,46,523598939702
23.8408021 ,Left ,62,473107300588 ,48,3025615857002 ,46,5459498080744
23.8558952 ,Left ,62,5020549604963 ,48,2981275332002 ,46,5623588913406
23.8784193 ,Left ,62,5217197175329 ,48,3043003469308 ,46,5672558703649
23.9008876 ,Left ,62,5283385425301 ,48,3300596697015 ,46,573198414975
23.9158307 ,Left ,62,5222320827145 ,48,3594246366531 ,46,5776454917343
23.9385885 ,Left ,62,52066694542 ,48,3833238145521 ,46,5814950731977
23.9606886 ,Left ,62,513238670095 ,48,4064137033551 ,46,585531806588
23.9749526 ,Left ,62,5284878007968 ,48,466221808687 ,46,5880555628021
23.99824 ,Left ,62,5371160509608 ,48,5566057871031 ,46,5765661867191
24.0208643 ,Left ,62,5266367852123 ,48,633224500184 ,46,5842691620308
24.035333 ,Left ,62,5155443850577 ,48,7001445341797 ,46,5942016471498
24.0585423 ,Left ,62,4796017368211 ,48,7482294595306 ,46,6194695263687
24.0811789 ,Left ,62,4501339613575 ,48,788628200854 ,46,6428718050353
24.0953222 ,Left ,62,390910151916 ,48,8117877250507 ,46,6826375773366
24.1185128 ,Left ,62,3341810028387 ,48,8077572016763 ,46,7423975421561
24.1410658 ,Left ,62,3012888746948 ,48,7780579694398 ,46,8297178235294
24.155358 ,Left ,62,2725236899512 ,48,7453724420924 ,46,8944116346857
24.1785009 ,Left ,62,2204165570172 ,48,7214288228365 ,46,9224332102469
24.201153 ,Left ,62,2247034045864 ,48,6961602164189 ,46,9286452333098
24.2154214 ,Left ,62,2727815854335 ,48,692508963688 ,46,9106774983983
24.2386959 ,Left ,62,3467533586078 ,48,7009636839844 ,46,8681672973186
24.2610463 ,Left ,62,4112981203006 ,48,6794209723163 ,46,8349941013655
24.2752562 ,Left ,62,5175729221057 ,48,6470730683964 ,46,8169337224836
24.2984411 ,Left ,62,6100251467287 ,48,6411666572456 ,46,78758360589
24.3210872 ,Left ,62,6442592801011 ,48,6463825745679 ,46,7720934983658
24.3421149 ,Left ,62,6519866606228 ,48,6763440099729 ,46,7629622368759
24.3584878 ,Left ,62,6472872435383 ,48,7082192854251 ,46,7514298608126
24.3810066 ,Left ,62,5963853828522 ,48,7105700258535 ,46,7249338665996
24.4023536 ,Left ,62,5535516382225 ,48,6469038369497 ,46,7166226726103
24.418648 ,Left ,62,5268052216257 ,48,5379406028989 ,46,7387538440534
24.4409285 ,Left ,62,5595275231337 ,48,4837986280461 ,46,753259478552
24.462148 ,Left ,62,555108351597 ,48,5178581933449 ,46,7362455801928
24.4785028 ,Left ,62,5112824696235 ,48,5656088392632 ,46,7094526507139
24.5009457 ,Left ,62,5534986277965 ,48,5633847303787 ,46,7132552446089
24.5221472 ,Left ,62,5809141765944 ,48,5708339559491 ,46,7266671699778
24.5384128 ,Left ,62,5781712384084 ,48,5997786249345 ,46,6967807244323
24.560895 ,Left ,62,5437250537461 ,48,6151031952412 ,46,6576041677936
24.5820601 ,Left ,62,511022844909 ,48,6237250502154 ,46,6556184249464
24.5984742 ,Left ,62,5643341409536 ,48,6120917109501 ,46,6946928689025
24.6210119 ,Left ,62,5913319044446 ,48,6134183175738 ,46,7436829547388
24.6421351 ,Left ,62,5334366088697 ,48,6285538070663 ,46,7824739073848
24.6586365 ,Left ,62,4718886764533 ,48,6778695869208 ,46,8715540786623
24.6809531 ,Left ,62,4417189537184 ,48,7726846410094 ,46,9239849489991
24.7022095 ,Left ,62,4037159425138 ,48,8524820869073 ,46,9178006797811
24.7184225 ,Left ,62,3559195272186 ,48,8362554574336 ,46,9062988224146
24.7406794 ,Left ,62,2232530306133 ,48,8090610804932 ,46,9515586283138
24.7619627 ,Left ,62,1185149717387 ,48,7720591707753 ,46,9971276877905
24.7775521 ,Left ,62,1558454976944 ,48,7396629247248 ,46,9958713579729
24.8013485 ,Left ,62,162799739868 ,48,7527842603945 ,46,9165549929086
24.8237163 ,Left ,62,074839099096 ,48,8135348758231 ,46,8197438827813
24.838085 ,Left ,62,0425456666722 ,48,8807126402254 ,46,7546659769744
24.8612293 ,Left ,62,0773640393882 ,48,9248038116788 ,46,725625244515
24.8837662 ,Left ,62,122092477362 ,48,9745868795596 ,46,7002578689864
24.897752 ,Left ,62,0820623938244 ,48,9971214863854 ,46,6660230108831
24.921072 ,Left ,62,0491604280268 ,48,9780051295146 ,46,6586735044068
24.9436056 ,Left ,62,0094814385412 ,48,9547028831226 ,46,66074068806
24.9578039 ,Left ,61,9218953988925 ,48,9328627075035 ,46,6313348664485
24.9809647 ,Left ,61,835390834149 ,48,8848266963058 ,46,6042700854441
25.0036105 ,Left ,61,7751839709976 ,48,7984116097877 ,46,6232501309099
25.0176603 ,Left ,61,7410522914602 ,48,6747621376546 ,46,6362985227706
25.0408855 ,Left ,61,739036699244 ,48,5892175561689 ,46,6344766459659
25.0634717 ,Left ,61,7754440382293 ,48,5071434092738 ,46,5991918665465
25.0847284 ,Left ,61,8546617386215 ,48,3783968495224 ,46,574850472592
25.1009494 ,Left ,61,9832608260097 ,48,2301244552287 ,46,5727894126166
25.1235313 ,Left ,62,1401444719105 ,48,1555458299744 ,46,5712237815174
25.1445436 ,Left ,62,2392302639134 ,48,1291014459848 ,46,541914150932
25.1609031 ,Left ,62,3484325090438 ,48,1223786104746 ,46,5553033711096
25.1834449 ,Left ,62,4350114149469 ,48,1062162517724 ,46,6135212100686
25.2045129 ,Left ,62,5045388120961 ,48,1232200878282 ,46,678958263274
25.2209854 ,Left ,62,5586132105941 ,48,2278870114273 ,46,7196438075383
25.2434231 ,Left ,62,5935340742978 ,48,3494967789413 ,46,7252509369492
25.2644768 ,Left ,62,5823129841702 ,48,4228127466431 ,46,7508637432242
25.280953 ,Left ,62,534715570114 ,48,435762405434 ,46,7923675297004
25.3034196 ,Left ,62,5231123968203 ,48,466397886347 ,46,8295159745189
25.3244745 ,Left ,62,4591071364288 ,48,4570068939099 ,46,8291955561626
25.3409054 ,Left ,62,4268222681525 ,48,4529482498123 ,46,8430497469543
25.3632649 ,Left ,62,405037139504 ,48,4824620985185 ,46,8551441788163
25.3841996 ,Left ,62,3573803845452 ,48,5357629406434 ,46,8708065865829
25.4006851 ,Left ,62,3237460601157 ,48,5989133205851 ,46,9375705815293
25.4234329 ,Left ,62,3320395385809 ,48,6434173017678 ,47,0542054651285
25.4445671 ,Left ,62,3726744760373 ,48,6225208763178 ,47,128683245666
25.4608276 ,Left ,62,4269273927914 ,48,5629338329276 ,47,1649500129588
25.4834858 ,Left ,62,4166042125691 ,48,54803260881 ,47,15330502304
25.5043496 ,Left ,62,3243539178365 ,48,561249059307 ,47,130528981184
25.5208068 ,Left ,62,331484050051 ,48,5819198221367 ,47,1173984867586
25.5434484 ,Left ,62,4050323673938 ,48,5860118280902 ,47,1151906300168
25.5643538 ,Left ,62,4077090722838 ,48,5504028966134 ,47,1044380822473
25.5807638 ,Left ,62,3925608941342 ,48,5029039955477 ,47,0986757111886
25.6034847 ,Left ,62,4009568999503 ,48,4819579787114 ,47,0998365255875
25.6245512 ,Left ,62,4162623796881 ,48,4804520427205 ,47,0957996862671
25.6409257 ,Left ,62,4386774997619 ,48,4956832641346 ,47,0833537241122
25.6634668 ,Left ,62,4711798917788 ,48,5131302658151 ,47,0773036513079
25.6842258 ,Left ,62,4764658454842 ,48,5215958524504 ,47,0782763388007
25.7006786 ,Left ,62,4745938994174 ,48,5437976602143 ,47,0961265549963
25.7237683 ,Left ,62,4831827186574 ,48,5740288852004 ,47,1017000391721
25.746239 ,Left ,62,481687398229 ,48,5831905778961 ,47,1098535219169
25.7612628 ,Left ,62,4965948905191 ,48,5939798517011 ,47,1173622709946
25.7837217 ,Left ,62,514873387346 ,48,6234778363512 ,47,1155247071063
25.8061695 ,Left ,62,4956808853705 ,48,6677775394995 ,47,112340487675
25.8209619 ,Left ,62,5050575855956 ,48,7176274316545 ,47,1113090673785
25.8434196 ,Left ,62,5074078378374 ,48,7592981627177 ,47,1032061266922
25.8658605 ,Left ,62,5086703316115 ,48,8043224860558 ,47,1071265703469
25.8802344 ,Left ,62,4831848653153 ,48,8618095295872 ,47,1118836657118
25.9035322 ,Left ,62,4490689172687 ,48,9220766459135 ,47,118292898529
25.9258481 ,Left ,62,3975565030163 ,48,9574757837322 ,47,1407750496105
25.9403339 ,Left ,62,353607899636 ,48,9616739334741 ,47,1897921389407
25.9634941 ,Left ,62,3207669473332 ,48,9513766438846 ,47,2509874343798
25.9858353 ,Left ,62,2985878609453 ,48,9220131788529 ,47,3140969134525
26.0068898 ,Left ,62,2594084307598 ,48,9063027679049 ,47,3566142393113
26.0234983 ,Left ,62,258461232587 ,48,8735879623853 ,47,3853913659716
26.0459431 ,Left ,62,3091351677397 ,48,8512392224209 ,47,4127246416258
26.0602131 ,Left ,62,3958055587924 ,48,8470941103962 ,47,4113272147425
26.0834385 ,Left ,62,4777987245116 ,48,8266787756596 ,47,3865586689959
26.1059321 ,Left ,62,5669699281362 ,48,7667513388 ,47,3719946553137
26.127215 ,Left ,62,6451035924764 ,48,7113925820411 ,47,3598007802211
26.1434759 ,Left ,62,6863012308215 ,48,6443251210695 ,47,349413548213
26.1658856 ,Left ,62,7160727767506 ,48,5998718332858 ,47,3281925810568
26.1871975 ,Left ,62,6572763361435 ,48,5777217635048 ,47,2960131252168
26.2034781 ,Left ,62,6256965351691 ,48,5701113831759 ,47,2530769224165
26.2258784 ,Left ,62,6769908919229 ,48,5552372026815 ,47,2108981411436
26.2469476 ,Left ,62,7159944415457 ,48,5569952613639 ,47,1978554297588
26.2634689 ,Left ,62,7262346983058 ,48,5862624264772 ,47,1904259052735
26.2859335 ,Left ,62,6856295305606 ,48,5895918397498 ,47,1909229385957
26.3071789 ,Left ,62,7031357575195 ,48,5778537951609 ,47,2268099864585
26.3233769 ,Left ,62,7458472510346 ,48,5875477942489 ,47,2359273571892
26.3459498 ,Left ,62,7406610953876 ,48,5991104517801 ,47,2328105793708
26.3672444 ,Left ,62,6598254194554 ,48,5781252395558 ,47,2346859066566
26.3834271 ,Left ,62,6623642327737 ,48,500240402015 ,47,2585651824746
26.405881 ,Left ,62,7585571980587 ,48,4838390096537 ,47,2879860091366
26.4269881 ,Left ,62,7721439476555 ,48,5405388287465 ,47,3068556577672
26.4434469 ,Left ,62,6809854133378 ,48,6108605589806 ,47,3525554294484
26.4657252 ,Left ,62,6701588671838 ,48,6720109051037 ,47,4173295419605
26.4869938 ,Left ,62,6604172559622 ,48,72747706464 ,47,4711117992126
26.5036385 ,Left ,62,651562411269 ,48,7752195659666 ,47,5024839783057
26.5260957 ,Left ,62,5817286600129 ,48,8005163364444 ,47,5328446027932
26.5472965 ,Left ,62,4193111095119 ,48,8352802589777 ,47,5733039887076
26.5625434 ,Left ,62,2963765559057 ,48,87354480993 ,47,5741239384282
26.5857367 ,Left ,62,2812122402634 ,48,9192852675288 ,47,5160314157364
26.6067786 ,Left ,62,2749646210624 ,48,9890004363149 ,47,4419069359209
26.6229277 ,Left ,62,1531231536615 ,49,094880096216 ,47,3559568327999
26.6457737 ,Left ,62,0248404160999 ,49,1892512728248 ,47,2798956078
26.6684103 ,Left ,61,9627927795732 ,49,2438569780609 ,47,2465610889809
26.6827334 ,Left ,61,9267739277702 ,49,2219559653288 ,47,225275598256
26.7059016 ,Left ,61,877743558428 ,49,1552296968873 ,47,2040356163849
26.7285143 ,Left ,61,8153288004324 ,49,0855871257455 ,47,1763866793654
26.7434051 ,Left ,61,7396434271173 ,49,0475670035896 ,47,1454797516853
26.7657975 ,Left ,61,7019429108855 ,49,0438031611534 ,47,1151594159178
26.7885514 ,Left ,61,7279443572651 ,49,0409528024914 ,47,1060861669119
26.8033077 ,Left ,61,767979642299 ,49,0017735447107 ,47,09657917163
26.825877 ,Left ,61,8400847086189 ,48,9272214617822 ,47,1084894083954
26.8482686 ,Left ,61,9118564832658 ,48,8705206699389 ,47,1230019106182
26.8627888 ,Left ,61,9469633739123 ,48,8591851598034 ,47,1160193208821
26.8857772 ,Left ,61,9459592805591 ,48,8749537392557 ,47,1076728043809
26.908833 ,Left ,61,9666827349078 ,48,8803422300481 ,47,1083009737887
26.9231126 ,Left ,61,9812929555271 ,48,8713390308074 ,47,1183833307403
26.9463764 ,Left ,61,9801568582928 ,48,8563921780231 ,47,1292705181165
26.9686444 ,Left ,61,9735756168528 ,48,8461461866462 ,47,1487208700712
26.9827265 ,Left ,61,9661502924083 ,48,8334770458044 ,47,1798653656973
27.006036 ,Left ,62,0172597821408 ,48,8236847864442 ,47,2142140422399
27.0286827 ,Left ,62,1145745883172 ,48,8072715597655 ,47,2258045308813
27.0428899 ,Left ,62,2180053002142 ,48,7738630270044 ,47,2383410777573
27.0660387 ,Left ,62,2741570083096 ,48,7399314002185 ,47,264511123242
27.0886234 ,Left ,62,3254581560426 ,48,7109111122703 ,47,2929681854767
27.1029637 ,Left ,62,4023714028153 ,48,6875771405987 ,47,3112266358564
27.1333122 ,Left ,62,4727710755043 ,48,661980783458 ,47,3289748587301
27.1484388 ,Left ,62,5255638536661 ,48,6445092312354 ,47,3492672996505
27.1692112 ,Left ,62,5716972931905 ,48,6534854231087 ,47,3705761301802
27.1859127 ,Left ,62,5888789762523 ,48,6877905977489 ,47,3773418869991
27.2084375 ,Left ,62,5905605326374 ,48,6947730388036 ,47,3759207712402
27.2294934 ,Left ,62,5677925380957 ,48,7323171194656 ,47,3786017002763
27.2458772 ,Left ,62,537700442031 ,48,8028733817887 ,47,3723785775443
27.2684508 ,Left ,62,4843866606919 ,48,8910293189259 ,47,3496279234163
27.2892824 ,Left ,62,4040188739308 ,48,9697967107611 ,47,3392384122185
27.3057783 ,Left ,62,3145122723521 ,49,0381728593872 ,47,3164003453568
27.3284666 ,Left ,62,2364032413922 ,49,1023673633114 ,47,2845011594509
27.3495097 ,Left ,62,1392738971603 ,49,1547486527894 ,47,2507447115101
27.3658202 ,Left ,62,0432254960647 ,49,1790306273582 ,47,2348686839889
27.3885807 ,Left ,61,9537833815848 ,49,138737551067 ,47,2556981307202
27.4100901 ,Left ,61,8757724544439 ,49,0192654688151 ,47,2783505613483
27.426336 ,Left ,61,8091210355482 ,48,9390640484436 ,47,2721176252842
27.4487096 ,Left ,61,7663680925085 ,48,904944191753 ,47,2386993355208
27.4694367 ,Left ,61,7988482766208 ,48,8472821966232 ,47,2201746856286
27.485289 ,Left ,61,8842052251535 ,48,7154877041769 ,47,2354621232233
27.5084896 ,Left ,62,0098348151584 ,48,5500630612896 ,47,2187046464832
27.5297384 ,Left ,62,1301487486465 ,48,388993297261 ,47,1628370165208
27.5452369 ,Left ,62,2541340745512 ,48,2788902195259 ,47,111266753811
27.568494 ,Left ,62,3470452579936 ,48,2137531454044 ,47,0527503292572
27.5897282 ,Left ,62,4230349047512 ,48,1715838940206 ,47,034396594081
27.6052008 ,Left ,62,4662638783062 ,48,1690063889507 ,47,0481675650332
27.6285145 ,Left ,62,5021375264172 ,48,2417334956557 ,47,0730602406565
27.6508256 ,Left ,62,5019220947107 ,48,3699404859112 ,47,1013812108358
27.6659324 ,Left ,62,515280281526 ,48,484489402338 ,47,1185719365201
27.6885102 ,Left ,62,4884769033343 ,48,5323383095745 ,47,1471526735999
27.7110785 ,Left ,62,5234613970334 ,48,5378903503802 ,47,2014381634693
27.7249729 ,Left ,62,5086886763405 ,48,5497262021453 ,47,2371405149921
27.7480843 ,Left ,62,4899900264091 ,48,5512651037237 ,47,2561839811159
27.770924 ,Left ,62,5213091154013 ,48,5591358659745 ,47,2780267528916
27.7855808 ,Left ,62,5143750445518 ,48,561600660394 ,47,3070468830174
27.8088117 ,Left ,62,4879229472673 ,48,5745098757047 ,47,3588328340804
27.8143401 ,Left ,62,480676769198 ,48,6155295602624 ,47,4228808738041
27.8368596 ,Left ,62,4753185126153 ,48,6400288878201 ,47,4651008146133
27.8529736 ,Left ,62,4575551061517 ,48,572486373178 ,47,4826314441659
27.8740798 ,Left ,62,5249615717094 ,48,5171351616976 ,47,4985553289493
27.8965455 ,Left ,62,5008883652002 ,48,511779558354 ,47,4876841602033
27.9128783 ,Left ,62,4676279607996 ,48,5235627829485 ,47,4952244838709
27.9338334 ,Left ,62,4987668094681 ,48,5190648669039 ,47,5056513482134
27.9563497 ,Left ,62,5017885803098 ,48,5015669037742 ,47,5128725441804
27.9727929 ,Left ,62,4673110545534 ,48,477028197245 ,47,5264741877493
27.9936767 ,Left ,62,4602646842287 ,48,464339267019 ,47,5512634681321
28.0162782 ,Left ,62,4492457136361 ,48,45605044215 ,47,5697712347307
28.0326487 ,Left ,62,4414601188542 ,48,435746557857 ,47,5872466406811
28.053554 ,Left ,62,4275931240434 ,48,4250191777671 ,47,5860173294072
28.0762555 ,Left ,62,4228012340184 ,48,4210340902999 ,47,5742221339526
28.0930359 ,Left ,62,4209016238193 ,48,4276738616815 ,47,558169281805
28.1142686 ,Left ,62,4282020648125 ,48,444496567134 ,47,5540232614502
28.136687 ,Left ,62,4437054971914 ,48,4945185894619 ,47,5419399377571
28.1530666 ,Left ,62,4517743649995 ,48,5596445206512 ,47,513574493263
28.1741489 ,Left ,62,4401607562647 ,48,609783190017 ,47,4973442961895
28.1966716 ,Left ,62,4316716293249 ,48,6449327910366 ,47,5083464146192
28.2129739 ,Left ,62,4093885369422 ,48,6745723454126 ,47,5412275778701
28.2338784 ,Left ,62,3806490675134 ,48,670274660679 ,47,5941846071291
28.256785 ,Left ,62,3675643801928 ,48,6442118224155 ,47,6664635068594
28.2728401 ,Left ,62,3046166580955 ,48,6373573635316 ,47,7270896941618
28.2941336 ,Left ,62,2389732837353 ,48,6677677818017 ,47,7840887047199
28.3165384 ,Left ,62,2095012251769 ,48,681612618903 ,47,8295599194646
28.3329262 ,Left ,62,2817166205247 ,48,6950075473562 ,47,8678651285738
28.35405 ,Left ,62,3620560224638 ,48,7357913420188 ,47,834988518058
28.3767079 ,Left ,62,423783030345 ,48,7798319220977 ,47,7711374776016
28.3930162 ,Left ,62,4918887232985 ,48,7902184462005 ,47,7139896650655
28.4139848 ,Left ,62,5792858835757 ,48,7783972765242 ,47,6524674757516
28.4365391 ,Left ,62,6011525693806 ,48,7518154534492 ,47,5870137813271
28.4528207 ,Left ,62,6017815410337 ,48,7413315827158 ,47,5614548407752
28.4737627 ,Left ,62,5683174781075 ,48,7540406694296 ,47,5459523466278
28.496486 ,Left ,62,4870360415701 ,48,7697117672415 ,47,5371867487927
28.5128227 ,Left ,62,467731996911 ,48,7587915928239 ,47,5297892794199
28.5339092 ,Left ,62,5072041006077 ,48,7071054726472 ,47,5433887706382
28.5565562 ,Left ,62,5205197245816 ,48,6923895067842 ,47,5552517332193
28.5742704 ,Left ,62,5088882980913 ,48,7060582782169 ,47,5512619428413
28.5938986 ,Left ,62,4871845980341 ,48,7185977129612 ,47,5433013056739
28.6163283 ,Left ,62,5515785944371 ,48,7186594558107 ,47,5576557578691
28.634153 ,Left ,62,5829781108172 ,48,7312438881748 ,47,5775465208421
28.6538963 ,Left ,62,579926266754 ,48,7485827329517 ,47,5660526456819
28.6765044 ,Left ,62,5389537426244 ,48,7312764825155 ,47,5406415679843
28.6942798 ,Left ,62,5295139114201 ,48,7119902834186 ,47,5501346094795
28.7137615 ,Left ,62,5728639603547 ,48,7423804939358 ,47,5850537303686
28.7363122 ,Left ,62,6163652277354 ,48,8393018246288 ,47,6227401869828
28.7539691 ,Left ,62,5348806341423 ,48,9433007859246 ,47,6611361049436
28.7736325 ,Left ,62,4429204241665 ,49,0134937305657 ,47,723413228144
28.7963142 ,Left ,62,3896044863447 ,49,055988651717 ,47,7820128604279
28.8140318 ,Left ,62,3668493769239 ,49,0557077166101 ,47,8105722629229
28.8336453 ,Left ,62,3264276782553 ,49,0011096151758 ,47,8515314448007
28.8565759 ,Left ,62,2059600637277 ,48,9295577948149 ,47,8610774425289
28.8790516 ,Left ,62,1171344739177 ,48,9426645076186 ,47,8214046898644
28.893947 ,Left ,62,102003526906 ,49,0258501610359 ,47,7425278518727
28.916524 ,Left ,62,0411846639495 ,49,0962475112941 ,47,6505499677133
28.9390691 ,Left ,61,9708944117037 ,49,1279229443943 ,47,5855104207266
28.953847 ,Left ,61,9538813421985 ,49,13149136001 ,47,5418743329347
28.976407 ,Left ,62,0134209353043 ,49,1257078634895 ,47,5025840280615
28.9988822 ,Left ,62,0319310738751 ,49,1598864393807 ,47,4564408706723
29.0140774 ,Left ,61,9744498376292 ,49,1809976282322 ,47,403213558922
29.0364098 ,Left ,61,9437685374727 ,49,1413946487706 ,47,3809487089989
29.0587101 ,Left ,61,9347063020903 ,49,0902225444562 ,47,3654510496978
29.0750817 ,Left ,61,8922985422335 ,49,0754715303184 ,47,3308226381575
29.09628 ,Left ,61,8128554432393 ,49,0763374353008 ,47,2921753690815
29.1187399 ,Left ,61,7609189230194 ,49,0380371937061 ,47,2784012712064
29.133658 ,Left ,61,7102394195315 ,48,9580678166015 ,47,3132395488045
29.1559044 ,Left ,61,7200578399949 ,48,8493941727483 ,47,3581175895165
29.1786213 ,Left ,61,7681840924508 ,48,7397907985648 ,47,3852343711489
29.1950856 ,Left ,61,8370518141356 ,48,6502589229457 ,47,3681225877264
29.2160967 ,Left ,61,8985472626687 ,48,5366259350361 ,47,3416318146418
29.2387994 ,Left ,61,9876318851915 ,48,3799824111842 ,47,343379524192
29.2553303 ,Left ,62,1208451480503 ,48,2378568013464 ,47,3566166722124
29.2768338 ,Left ,62,2180050163826 ,48,1591967935179 ,47,3516485618099
29.2991717 ,Left ,62,300108881796 ,48,0981422200424 ,47,3106266878095
29.3155574 ,Left ,62,4055315019354 ,48,0464653280817 ,47,3024226566838
29.3367556 ,Left ,62,5116925212819 ,48,0391401270271 ,47,3207627283626
29.3592281 ,Left ,62,613310349146 ,48,0784647943499 ,47,3423593479114
29.375264 ,Left ,62,6849291918226 ,48,1749015268261 ,47,3659333927799
29.396672 ,Left ,62,7215775661647 ,48,2754251984955 ,47,3842463330824
29.4189974 ,Left ,62,6930428043737 ,48,3423257554421 ,47,4130896194738
29.4353068 ,Left ,62,6769490098409 ,48,3676386330371 ,47,4674844300584
29.4563944 ,Left ,62,6398579400698 ,48,3521451129999 ,47,5042182388559
29.4785603 ,Left ,62,5836932378342 ,48,3255312790125 ,47,5505426238122
29.496777 ,Left ,62,551997345118 ,48,3257330312617 ,47,5765196930359
29.516126 ,Left ,62,5291668654959 ,48,3600097302904 ,47,5780167758827
29.538731 ,Left ,62,4800640770454 ,48,4030034287869 ,47,5852516318351
29.556782 ,Left ,62,4737293582223 ,48,4612412822634 ,47,6226593911294
29.5764087 ,Left ,62,459124010023 ,48,4848362773983 ,47,671545405864
29.5988538 ,Left ,62,4625085837383 ,48,4417928318607 ,47,7355550237293
29.6166271 ,Left ,62,4892850822887 ,48,3822062468757 ,47,8118882233926
29.6364473 ,Left ,62,4907054405538 ,48,3898173730804 ,47,8655205580993
29.6585507 ,Left ,62,4610180431414 ,48,4433103225345 ,47,8605811609133
29.6767378 ,Left ,62,4669115791753 ,48,4545878750537 ,47,8542876228489
29.6960726 ,Left ,62,485581601887 ,48,4350551015367 ,47,8573791500553
29.7186849 ,Left ,62,485581601887 ,48,4350551015367 ,47,8573791500553
29.7367253 ,Left ,62,4927600287471 ,48,4501612541807 ,47,8525766198225
29.7567092 ,Left ,62,4859256267845 ,48,4305307139407 ,47,8533514515787
29.7793576 ,Left ,62,4862185543678 ,48,3978632676429 ,47,8607971107083
29.7970009 ,Left ,62,4833312021246 ,48,3732344243598 ,47,8739507272521
29.8167079 ,Left ,62,4757423849346 ,48,3680116285079 ,47,8913213623272
29.8392535 ,Left ,62,4658329707844 ,48,384212046296 ,47,8967423107134
29.8569097 ,Left ,62,4631049308936 ,48,3884700533501 ,47,8966089071222
29.8762658 ,Left ,62,4997764958932 ,48,3991807113489 ,47,9003225769144
29.898747 ,Left ,62,5399484786691 ,48,4197780795979 ,47,9058287952479
29.9168437 ,Left ,62,5707854836501 ,48,4500580753327 ,47,9077138807717
29.9364019 ,Left ,62,6091333308184 ,48,4662019135674 ,47,9137019527516
29.958724 ,Left ,62,646449462135 ,48,4732634580389 ,47,9159752531398
29.9768645 ,Left ,62,6644077669923 ,48,4865097726574 ,47,9117679333417
29.9961217 ,Left ,62,6789198108891 ,48,524233029951 ,47,8991891233062
30.0185938 ,Left ,62,677618170929 ,48,5741531808915 ,47,8908505719918
30.0366552 ,Left ,62,6987736805209 ,48,6553555824965 ,47,8814830913706
30.0564386 ,Left ,62,6963564059035 ,48,7403320311245 ,47,8754076776584
30.079012 ,Left ,62,6873493445707 ,48,8145686762506 ,47,8842034690117
30.0969358 ,Left ,62,6459476865824 ,48,8707275191335 ,47,9063442490704
30.1177931 ,Left ,62,6043986429238 ,48,9064079591637 ,47,9429415111851
30.1390282 ,Left ,62,5312542553077 ,48,9236112599522 ,47,9840951116871
30.1567201 ,Left ,62,4864604278208 ,48,911912188565 ,48,0429999148914
30.1777556 ,Left ,62,430641911748 ,48,8707270436183 ,48,1113670693433
30.1986083 ,Left ,62,407567407028 ,48,8127445989603 ,48,1834870883609
30.2164474 ,Left ,62,3769331285945 ,48,7667970104322 ,48,2568530914278
30.2376501 ,Left ,62,3406353775698 ,48,7556296356905 ,48,3070210568415
30.2588618 ,Left ,62,3691310469119 ,48,7711901219845 ,48,3074836048355
30.2768531 ,Left ,62,4552333955066 ,48,7840271003764 ,48,263402596767
30.2977162 ,Left ,62,5430399428922 ,48,7805058916812 ,48,2039120268971
30.3186525 ,Left ,62,6497549790653 ,48,7631333757596 ,48,1393405593572
30.3367761 ,Left ,62,7046852160174 ,48,7424449652792 ,48,0679594763087
30.3576319 ,Left ,62,7204636982165 ,48,6951748323298 ,48,0109577842532
30.3786203 ,Left ,62,7215346156028 ,48,658117886334 ,47,9782537099096
30.3967301 ,Left ,62,7116797009381 ,48,6340648862931 ,47,9687327882004
30.4183925 ,Left ,62,6653144744893 ,48,6205111249664 ,47,9810162073313
30.4394589 ,Left ,62,6573905072433 ,48,6075193969173 ,47,9908654746695
30.4569801 ,Left ,62,7007992720027 ,48,5782252452809 ,48,0049640035372
30.4792825 ,Left ,62,7318859135473 ,48,5634864113446 ,48,0028322560919
30.4989297 ,Left ,62,7092674769316 ,48,5582299997775 ,47,9979921295331
30.5169049 ,Left ,62,6983791597232 ,48,5626690328292 ,47,9964286928279
30.5393645 ,Left ,62,7686881494897 ,48,5877977952429 ,48,0147742196945
30.5590216 ,Left ,62,7718286393094 ,48,6207807197797 ,47,9969143263121
30.576966 ,Left ,62,7676538754827 ,48,6325019388421 ,47,9789435274769
30.599199 ,Left ,62,7430926457276 ,48,6222253365325 ,47,9805149084017
30.619069 ,Left ,62,7754093307258 ,48,619241583967 ,48,0108116340614
30.6369732 ,Left ,62,7718239098096 ,48,6546588119582 ,48,0472972036501
30.6592432 ,Left ,62,6829680691081 ,48,6999583362482 ,48,0915169642176
30.6787677 ,Left ,62,6047696352209 ,48,7708398611015 ,48,1770604644316
30.696622 ,Left ,62,5412914896165 ,48,8788066142367 ,48,2260916951724
30.7192632 ,Left ,62,4640173343143 ,48,9648871423081 ,48,2241698103514
30.7388963 ,Left ,62,3988154818086 ,48,9562614107056 ,48,2284413361693
30.7569814 ,Left ,62,267207420948 ,48,9141314820527 ,48,2668700018949
30.7795592 ,Left ,62,1567728849344 ,48,8632117565857 ,48,2462373725405
30.8063804 ,Left ,62,1109516953303 ,48,8666728834047 ,48,1643587289105
30.8169823 ,Left ,62,0412694220414 ,48,8824484246316 ,48,0428225209015
30.839375 ,Left ,61,9390341073932 ,48,9153203975563 ,47,9573222327423
30.8587814 ,Left ,61,8892722893802 ,48,9424339543594 ,47,9186744112957
30.8767463 ,Left ,61,9186664396421 ,48,9732641026307 ,47,9082083388939
30.8990208 ,Left ,61,9590341705547 ,48,9572909959792 ,47,8848811367377
30.920052 ,Left ,61,9549530024951 ,48,9406544084737 ,47,8680753184546
30.936829 ,Left ,61,9330708436361 ,48,9386736468299 ,47,8539484155512
30.9592102 ,Left ,61,9211506881146 ,48,9560038948687 ,47,8238443700632
30.9789222 ,Left ,61,8972577742395 ,48,9935006775429 ,47,7835944126717
30.9969075 ,Left ,61,8549964791383 ,49,0192034525133 ,47,7543690927111
31.0192023 ,Left ,61,8059749093713 ,49,0215926138295 ,47,7351665767996
31.0402466 ,Left ,61,7401013190685 ,48,9914170907458 ,47,7272838361407
31.0567792 ,Left ,61,6882071587541 ,48,9129602701433 ,47,7605296254086
31.0791579 ,Left ,61,6777960447792 ,48,8089829550114 ,47,7960897456163
31.1003281 ,Left ,61,6966902861592 ,48,7284497958073 ,47,7741188257585
31.1165918 ,Left ,61,7161124717519 ,48,6830730681081 ,47,6988630992389
31.1390815 ,Left ,61,7481216343709 ,48,6209788984955 ,47,6474121156146
31.1602439 ,Left ,61,808940878841 ,48,5016937528611 ,47,6506281959686
31.1813758 ,Left ,61,9084687596514 ,48,3543048531058 ,47,6768214515629
31.1991786 ,Left ,62,0280515719883 ,48,2244047763543 ,47,6969354969114
31.2202715 ,Left ,62,1464758417403 ,48,1185927926895 ,47,7028434959452
31.2415037 ,Left ,62,2443745728597 ,48,0397430488295 ,47,7271559001926
31.2592656 ,Left ,62,3268405795187 ,48,0146762646449 ,47,7724877195542
31.2803586 ,Left ,62,3831255316874 ,48,0051904189946 ,47,78659075974
31.3014424 ,Left ,62,4669562056328 ,48,0332433882257 ,47,8095986436478
31.3193067 ,Left ,62,5315507401595 ,48,1193078361044 ,47,8440107653819
31.3404441 ,Left ,62,5449786590084 ,48,219766794441 ,47,8786240630683
31.3564441 ,Left ,62,5386528541299 ,48,3050497491401 ,47,9380310486077
31.3784422 ,Left ,62,57187671609 ,48,3616856035485 ,47,9886554442582
31.4009464 ,Left ,62,5427126212802 ,48,3738794239834 ,48,027655761101
31.4219428 ,Left ,62,5373558469808 ,48,3944548344642 ,48,0746081313283
31.4384393 ,Left ,62,5253779333631 ,48,4411373849263 ,48,1034497495958
31.460705 ,Left ,62,4923518572948 ,48,5004714715831 ,48,120058629356
31.4818411 ,Left ,62,4571396451073 ,48,5585094519021 ,48,1655928615536
31.4983369 ,Left ,62,4648011029446 ,48,6246680781877 ,48,2261968934427
31.5209092 ,Left ,62,4513520775514 ,48,6620890733872 ,48,293100554614
31.5418066 ,Left ,62,4440183503006 ,48,6642605708692 ,48,3744340116542
31.5582671 ,Left ,62,4476439275523 ,48,6525769342487 ,48,4598375085952
31.5808615 ,Left ,62,3956113395641 ,48,6077455632348 ,48,5034930016659
31.6020665 ,Left ,62,3879351030839 ,48,5588979693903 ,48,5090926635981
31.6184254 ,Left ,62,3957705101094 ,48,5478029132749 ,48,49559941182
31.640845 ,Left ,62,3673150676629 ,48,5701125737744 ,48,4855818627734
31.6552271 ,Left ,62,3678657093576 ,48,6082114649606 ,48,4696771064373
31.678502 ,Left ,62,3832577705361 ,48,6049967901141 ,48,4631756054054
31.7012121 ,Left ,62,3872945552989 ,48,5820691131932 ,48,457684541971
31.7153675 ,Left ,62,3801753324926 ,48,5733397806874 ,48,4524676033074
31.7388053 ,Left ,62,3773730300429 ,48,5761567820688 ,48,4558948133769
31.7612134 ,Left ,62,3541192623726 ,48,5713126930141 ,48,465925798132
31.7753826 ,Left ,62,3596018441774 ,48,5740681740777 ,48,4751084213159
31.7985371 ,Left ,62,3361655636922 ,48,5722854027307 ,48,4779727467427
31.8210887 ,Left ,62,3165002372753 ,48,5665702694971 ,48,4958051130417
31.8353225 ,Left ,62,3359997952406 ,48,5920122832712 ,48,4965876095089
31.8585713 ,Left ,62,3597599551846 ,48,6296771265226 ,48,4832345388921
31.8810481 ,Left ,62,3931223111694 ,48,680872038161 ,48,4685960842977
31.9022879 ,Left ,62,4008241129794 ,48,7309621967165 ,48,4551119533544
31.9184577 ,Left ,62,3732857282417 ,48,7671837916595 ,48,4569393566257
31.9408434 ,Left ,62,3422969674426 ,48,8134229815493 ,48,4650949371237
31.962102 ,Left ,62,3240912007986 ,48,8772772883625 ,48,4565538411848
31.9783675 ,Left ,62,2856229443561 ,48,9249104208022 ,48,4549979940831
32.0008787 ,Left ,62,2418444401045 ,48,9729853346862 ,48,4726614432867
32.021863 ,Left ,62,1975685564238 ,49,0322891573225 ,48,488441992508
32.0381248 ,Left ,62,1640515565067 ,49,0895910241361 ,48,5048123273171
32.060956 ,Left ,62,1416819483693 ,49,0989956236591 ,48,5264171741862
32.0819683 ,Left ,62,1187425642098 ,49,0654458371365 ,48,5663941717765
32.0983989 ,Left ,62,1131883942269 ,48,9750261796706 ,48,6036867607098
32.1213078 ,Left ,62,097023704164 ,48,8547721064104 ,48,6463521079325
32.1423527 ,Left ,62,1664530216185 ,48,7525777722799 ,48,6706185002163
32.1586806 ,Left ,62,2663027155794 ,48,7382841421681 ,48,6655049786052
32.1811103 ,Left ,62,3535708416319 ,48,7846438528226 ,48,6396645157423
32.202062 ,Left ,62,4317327149651 ,48,8130680349251 ,48,6323076799833
32.2186744 ,Left ,62,5231699158568 ,48,8016437877349 ,48,6351669992081
32.2413176 ,Left ,62,5823677002256 ,48,7693829121461 ,48,6204674710638
32.2620637 ,Left ,62,592234445355 ,48,7020178063276 ,48,6001320149955
32.2785083 ,Left ,62,5808519170062 ,48,6463306862694 ,48,5964421779427
32.3008115 ,Left ,62,5063020580205 ,48,6236148335795 ,48,5957273306447
32.3238113 ,Left ,62,4749705161156 ,48,607572129405 ,48,5762741426472
32.338719 ,Left ,62,5089464498829 ,48,5886472007725 ,48,5578636523724
32.361288 ,Left ,62,5444397526056 ,48,5253480779178 ,48,5650294714968
32.3838099 ,Left ,62,5976973184417 ,48,4927719196295 ,48,5858320012563
32.3987589 ,Left ,62,6151469152493 ,48,5062311951345 ,48,5903080201714
32.4211967 ,Left ,62,6248734605208 ,48,5191550217016 ,48,5951303627922
32.4434545 ,Left ,62,6656655929811 ,48,5389585109626 ,48,6261335421469
32.4584462 ,Left ,62,6751664611007 ,48,585153005108 ,48,632377773785
32.4810127 ,Left ,62,6244484553875 ,48,6270926959863 ,48,6299926897756
32.5034729 ,Left ,62,6142393930255 ,48,6230543464446 ,48,6289223573177
32.5180375 ,Left ,62,6477540709274 ,48,5682924964277 ,48,6459598539401
32.54122 ,Left ,62,7072585532461 ,48,5595776050219 ,48,684986676241
32.5634846 ,Left ,62,6562955837672 ,48,6161587503752 ,48,7035839731565
32.5844451 ,Left ,62,5477675957982 ,48,6910438267991 ,48,7561438478492
32.600977 ,Left ,62,4975464359666 ,48,8116026996006 ,48,8238286466687
32.6236939 ,Left ,62,4297297697733 ,48,9471377911348 ,48,8643985160628
32.6446843 ,Left ,62,3515580024227 ,49,0197245315507 ,48,8369456491277
32.6609137 ,Left ,62,248064379093 ,49,028238073061 ,48,8409267772861
32.6833726 ,Left ,62,1110578918629 ,48,9304429758989 ,48,8728193136099
32.7043907 ,Left ,62,0758977503112 ,48,7663613454636 ,48,8989094937537
32.7209323 ,Left ,62,1253340954017 ,48,6578316853595 ,48,8631926625959
32.7435181 ,Left ,62,0825630977805 ,48,6660981371122 ,48,7663421479319
32.7645478 ,Left ,61,9929606281694 ,48,7266368504309 ,48,6930043252319
32.7809724 ,Left ,62,021694014044 ,48,7616503242526 ,48,6697643033367
32.8035229 ,Left ,62,0726513709957 ,48,766637754358 ,48,65008410038
32.8245461 ,Left ,62,116237120943 ,48,7731557345637 ,48,6104694329043
32.8409595 ,Left ,62,1105856122787 ,48,8049722371152 ,48,5670043384208
32.8634274 ,Left ,62,0795346406963 ,48,8496383731363 ,48,5154172371849
32.8844789 ,Left ,62,0332283860231 ,48,8782742935123 ,48,4498361152742
32.901059 ,Left ,61,9777817174146 ,48,9045884407898 ,48,3942740941881
32.9234672 ,Left ,61,8990574679956 ,48,9348505294313 ,48,3519512717456
32.9445258 ,Left ,61,7850755330706 ,48,937356497183 ,48,3339978724175
32.9609696 ,Left ,61,6916567321568 ,48,8488729573803 ,48,3485968651285
32.9834139 ,Left ,61,6548602845382 ,48,6847561286279 ,48,3812136891697
33.0047195 ,Left ,61,6679302603948 ,48,5683634568171 ,48,3646936233042
33.0207481 ,Left ,61,6814569680353 ,48,5241396623667 ,48,2737762205675
33.0431082 ,Left ,61,7244359202203 ,48,4585404456543 ,48,2037032687648
33.0642352 ,Left ,61,8922261076939 ,48,3511321133476 ,48,1892379448733
33.0807215 ,Left ,62,0746508530511 ,48,2598542513052 ,48,1977378688547
33.103912 ,Left ,62,2055962012899 ,48,2370137528966 ,48,2034842441618
33.1248453 ,Left ,62,3189337674877 ,48,2425914296277 ,48,1780135480135
33.140633 ,Left ,62,4212691419691 ,48,2212355627934 ,48,1821709082459
33.1638975 ,Left ,62,5203850485026 ,48,1813536971786 ,48,2461474766185
33.1851191 ,Left ,62,6140209809279 ,48,1944534641084 ,48,3285524341155
33.2004113 ,Left ,62,6451212223051 ,48,2838915139411 ,48,3596284314508
33.2235063 ,Left ,62,6357834037018 ,48,3911078284945 ,48,3759493892573
33.2445246 ,Left ,62,6170270827934 ,48,4406641174668 ,48,4129079247819
33.260361 ,Left ,62,6171496211354 ,48,4445846176882 ,48,4693917747774
33.2832677 ,Left ,62,5953090879461 ,48,4528541275323 ,48,5038901999921
33.3059322 ,Left ,62,5797022511261 ,48,4817297424929 ,48,5149238672269
33.3208837 ,Left ,62,5837678308112 ,48,5282918506669 ,48,5046641331375
33.343501 ,Left ,62,5648174502376 ,48,5819933962137 ,48,5115034897844
33.3657305 ,Left ,62,5469707933648 ,48,6454377530379 ,48,5707644039423
33.3808333 ,Left ,62,5393308079147 ,48,6653903394563 ,48,6700988133368
33.4033045 ,Left ,62,5744224181929 ,48,6203895988744 ,48,7650949786627
33.4259255 ,Left ,62,6006884850258 ,48,5654333404721 ,48,8374597036305
33.4402191 ,Left ,62,5853154451707 ,48,5654940625973 ,48,8468372049931
33.4635018 ,Left ,62,5515356352955 ,48,5918409771338 ,48,8177080190804
33.4860461 ,Left ,62,5677592145602 ,48,6127891180056 ,48,808642006304
33.5002932 ,Left ,62,5849680102002 ,48,6115873717373 ,48,8071359344726
33.5233268 ,Left ,62,5748399484183 ,48,6050596414463 ,48,8071158400262
33.5460563 ,Left ,62,5811466205609 ,48,5984889401977 ,48,8081795157325
33.5602572 ,Left ,62,5720842264099 ,48,5917889543203 ,48,7932927289307
33.5833577 ,Left ,62,5686969064078 ,48,5811255058953 ,48,7932697142119
33.6059258 ,Left ,62,5738011708534 ,48,5964732089906 ,48,7972650678997
33.6202802 ,Left ,62,5672520824272 ,48,6414163467171 ,48,7953804261135
33.6434896 ,Left ,62,5560518752281 ,48,6981483402864 ,48,790237696091
33.6659616 ,Left ,62,5517321102379 ,48,7396209345066 ,48,7867197807784
33.6804841 ,Left ,62,5426993421355 ,48,7596049110504 ,48,778708520737
