timestamp,event,roll,pitch,yaw
0.0640551 ,Left ,65,1722809363557 ,47,978326532508 ,75,6357073839919
0.0867793 ,Left ,65,1580818583619 ,47,9803595805639 ,75,6426017620852
0.1017765 ,Left ,65,1441633585414 ,47,9774868609548 ,75,6472371262206
0.1242582 ,Left ,65,1378617524995 ,47,9734052162409 ,75,6427511124949
0.1544412 ,Left ,65,1370844479946 ,47,966712047255 ,75,6356110402835
0.1694636 ,Left ,65,1201783163152 ,47,9578646162413 ,75,6332070417105
0.1918313 ,Left ,65,100388588315 ,47,9514677345285 ,75,633356481526
0.2066805 ,Left ,65,0754490477455 ,47,9440339200999 ,75,6313487986755
0.2217628 ,Left ,65,0754530185647 ,47,93110659318 ,75,6320923631033
0.2445324 ,Left ,65,0741177706614 ,47,9163149677583 ,75,6342838809928
0.2746531 ,Left ,65,0741177706614 ,47,9163149677583 ,75,6342838809928
0.304663 ,Left ,65,0635238904548 ,47,9115503592238 ,75,6364121664105
0.3271745 ,Left ,65,0635238904548 ,47,9115503592238 ,75,6364121664105
0.3644684 ,Left ,65,0666136949419 ,47,8979262416013 ,75,6383005357109
0.3870288 ,Left ,65,0476546819335 ,47,8823579227202 ,75,6390415519715
0.424467 ,Left ,65,03330749751 ,47,8457040412437 ,75,6345748598163
0.4469482 ,Left ,65,0383166064408 ,47,832043254359 ,75,6338725823131
0.4997892 ,Left ,65,0395576927762 ,47,8276609018926 ,75,639101751872
0.5221457 ,Left ,65,0469076204387 ,47,8298306741979 ,75,6498585050488
0.544445 ,Left ,65,0608101696099 ,47,8097905694481 ,75,6540599192307
0.5749508 ,Left ,65,066914103809 ,47,7949701756802 ,75,6508421222859
0.6125292 ,Left ,65,0719847200023 ,47,7675935950457 ,75,6598261945686
0.6277182 ,Left ,65,0812839272694 ,47,757553538301 ,75,6599027077303
0.6645475 ,Left ,65,1047348526556 ,47,739198175222 ,75,6596589619293
0.6872134 ,Left ,65,1137299633982 ,47,7340755210228 ,75,6619600809886
0.7322835 ,Left ,65,1282271687561 ,47,7300485301467 ,75,6600963805004
0.784741 ,Left ,65,1388104881675 ,47,724810204211 ,75,666094930379
0.8074177 ,Left ,65,1428909619086 ,47,7208904620851 ,75,6761773513023
0.8448098 ,Left ,65,1617168686298 ,47,7025346573662 ,75,6799989408911
0.8674809 ,Left ,65,1683882915412 ,47,6853391150634 ,75,6693408215547
0.9047835 ,Left ,65,1721911946773 ,47,6640752304289 ,75,6414970875848
0.9272398 ,Left ,65,1467546584769 ,47,6567005518211 ,75,632188704283
0.964588 ,Left ,64,9987873078526 ,47,7457941257386 ,75,6506535168749
0.9871775 ,Left ,64,9072140260055 ,47,7675885653014 ,75,6236306311153
1.0248539 ,Left ,64,7427277929094 ,47,6649024392952 ,75,6123973594255
1.0472564 ,Left ,64,5762602128646 ,47,7119765376206 ,75,6540171234601
1.0848288 ,Left ,64,4169592305589 ,47,9306506007886 ,75,7142922786793
1.107232 ,Left ,64,498912704494 ,47,9859953269769 ,75,6888765696344
1.1446661 ,Left ,64,5215018054355 ,47,9533311994498 ,75,5591148574512
1.1673751 ,Left ,64,3854926524387 ,47,9067336505111 ,75,5290502740832
1.2048711 ,Left ,64,2291706315548 ,47,8649032572133 ,75,5790517074986
1.2272627 ,Left ,64,2742844788443 ,47,933440343401 ,75,59961041818
1.2721953 ,Left ,64,5206023805321 ,47,9446707802005 ,75,548545295488
1.3247666 ,Left ,64,3914705922842 ,47,7513469463946 ,75,5351444380145
1.347432 ,Left ,64,3178197868329 ,47,6751735170623 ,75,5542815578148
1.3845668 ,Left ,64,4397578805328 ,47,7867831948095 ,75,5821074122406
1.4071941 ,Left ,64,5137006434692 ,47,9874832956816 ,75,5771940566498
1.4448767 ,Left ,64,684648201173 ,48,1253465052009 ,75,540161368485
1.4672208 ,Left ,64,6987686912748 ,48,0943314684653 ,75,5425169049206
1.5048612 ,Left ,64,564075772466 ,48,1378818703513 ,75,5507131266586
1.5348822 ,Left ,64,5100864958208 ,48,0939581147275 ,75,5673250000301
1.5872574 ,Left ,64,3329808650438 ,48,0615882817168 ,75,5911136497655
1.6245226 ,Left ,64,30456837801 ,48,2964061119629 ,75,6675191957748
1.6471936 ,Left ,64,4569409484622 ,48,363841514134 ,75,6368231370791
1.684541 ,Left ,64,6764221847399 ,48,3163041631552 ,75,5328636079701
1.7074255 ,Left ,64,5938252148002 ,48,3008888734337 ,75,4934760789337
1.7445423 ,Left ,64,5076310499497 ,48,2210788901212 ,75,4301519743963
1.767453 ,Left ,64,5618875277053 ,48,1629935348165 ,75,4067941835208
1.8124066 ,Left ,64,5628505019199 ,48,1229195352194 ,75,4081626879745
1.8347613 ,Left ,64,5149799581917 ,48,1260234220036 ,75,4011000244368
1.8646804 ,Left ,64,4742854189791 ,48,1138878359946 ,75,3673468586119
1.8871955 ,Left ,64,3582892263793 ,48,0678435384275 ,75,3776792820685
1.9322962 ,Left ,64,3317580193183 ,48,0306440769926 ,75,4747161226311
1.9546763 ,Left ,64,3532453456215 ,48,0116077332821 ,75,4596152313994
2.0075462 ,Left ,64,3893905770034 ,47,705024612822 ,75,4567152182761
2.0523924 ,Left ,64,4333325299085 ,47,6031343436905 ,75,4943174270461
2.0742653 ,Left ,64,4850568420138 ,47,5038493458911 ,75,5136976411286
2.0893711 ,Left ,64,5028674105379 ,47,5111491554359 ,75,5440740056972
2.1266248 ,Left ,64,6130098161369 ,47,6263023410669 ,75,4875086431775
2.1494388 ,Left ,64,7499364710451 ,47,609486265595 ,75,4482274868586
2.1868306 ,Left ,64,741997913684 ,47,5812767424843 ,75,4160553330624
2.2095179 ,Left ,64,6693905467753 ,47,6136641822524 ,75,4040999828175
2.2471124 ,Left ,64,7522307488615 ,47,5970958113481 ,75,3816455980939
2.2923475 ,Left ,64,7826415247205 ,47,5117559785124 ,75,3909658657402
2.3520944 ,Left ,64,7815277795939 ,47,4629726146964 ,75,4274658538316
2.4045107 ,Left ,64,8027106435768 ,47,4866863964133 ,75,4276612584762
2.4344135 ,Left ,64,7657641996787 ,47,485427175261 ,75,4206182648949
2.4720401 ,Left ,64,7009931980122 ,47,4752110105942 ,75,4228877085832
2.547146 ,Left ,64,6075550213817 ,47,502492135482 ,75,4707733363801
2.5917427 ,Left ,64,4155915818161 ,47,4464238855459 ,75,4463269412116
2.6142837 ,Left ,64,3192347774416 ,47,3488769835041 ,75,4411522512883
2.6368868 ,Left ,64,18410452097 ,47,3264568648267 ,75,4744606530937
2.6749272 ,Left ,63,7385761479656 ,47,560887141071 ,75,4527735390801
2.6899139 ,Left ,63,7497862105812 ,47,6520186668331 ,75,391754989253
2.7040553 ,Left ,63,8241503861397 ,47,7233880288686 ,75,3715963683327
2.7193071 ,Left ,63,8791437945342 ,47,8077009875831 ,75,3875500279211
2.7418031 ,Left ,63,9035191928581 ,47,8452507140122 ,75,3914526160111
2.7642652 ,Left ,63,9362465176468 ,47,815305781828 ,75,4436118966997
2.7795289 ,Left ,64,0105892506859 ,47,6926470095864 ,75,479584267178
2.8023714 ,Left ,64,1275183493086 ,47,5669874066101 ,75,5006249780933
2.8247075 ,Left ,64,107127687215 ,47,5065380211215 ,75,4861929718577
2.839934 ,Left ,64,0300892019289 ,47,4842102052455 ,75,457507437864
2.8624373 ,Left ,63,8876542478293 ,47,438204879972 ,75,4301496132971
2.8850231 ,Left ,63,9257253385554 ,47,4765541807797 ,75,3495909391673
2.9000056 ,Left ,63,9867838788972 ,47,6326635402326 ,75,3806615718675
2.9223612 ,Left ,63,9852197728897 ,47,8060801737197 ,75,4161688102554
2.9449657 ,Left ,64,0974524681102 ,47,9296129217276 ,75,4333921263479
2.9594922 ,Left ,64,2684990463287 ,47,9391302494379 ,75,4295326488089
2.989391 ,Left ,64,3183319233921 ,47,930068200469 ,75,4475181364678
3.0117807 ,Left ,64,2474182419839 ,47,9566899086498 ,75,478497681206
3.0345117 ,Left ,64,1082342634418 ,47,9732718011141 ,75,5010866424459
3.0493863 ,Left ,64,0262967091546 ,47,9572192159389 ,75,5346187390752
3.0720006 ,Left ,63,9747995119593 ,47,9112061270312 ,75,5033373961093
3.0868018 ,Left ,63,9153229091412 ,47,9091038732376 ,75,4890720784181
3.1017636 ,Left ,63,9273184466701 ,47,8802984714926 ,75,5269248498479
3.124398 ,Left ,63,890989307263 ,47,9370154449 ,75,5061794506528
3.1397003 ,Left ,63,9996904764912 ,48,0147081733481 ,75,4393724409816
3.1626831 ,Left ,64,1291937977445 ,48,0335593216919 ,75,385753804062
3.1848637 ,Left ,64,2115437080734 ,48,0401803625174 ,75,3549215306709
3.2073807 ,Left ,64,1869976833075 ,48,0314332082722 ,75,3339654822786
3.2295733 ,Left ,64,1002038769358 ,48,0292212624309 ,75,3077022482428
3.2672799 ,Left ,64,1002569798803 ,48,0239751017825 ,75,2325073001171
3.2898947 ,Left ,64,1489556619437 ,47,992021682309 ,75,2149957746429
3.3200781 ,Left ,64,0860234083174 ,47,9476081140973 ,75,1659143703281
3.3426947 ,Left ,64,0110529358138 ,47,8999783311355 ,75,1173768991642
3.3724085 ,Left ,63,8638373658545 ,47,8155189774537 ,75,1501484687369
3.3946064 ,Left ,63,8763883751942 ,47,8086776069725 ,75,1743689962551
3.409802 ,Left ,63,9355091072204 ,47,8049002537537 ,75,1282369283989
3.4247338 ,Left ,64,0398021001117 ,47,6744643261664 ,75,0641419013311
3.447348 ,Left ,64,1622872766535 ,47,5525301398849 ,75,0740176855044
3.4624118 ,Left ,64,0454710746623 ,47,5682376987625 ,75,1369049990873
3.4842251 ,Left ,63,9355884363889 ,47,6313339203411 ,75,1391367514364
3.5070116 ,Left ,64,0916802803772 ,47,5907816424055 ,75,1017804512833
3.5217962 ,Left ,64,1682290637047 ,47,4771187031335 ,75,1251590922732
3.544344 ,Left ,64,2146381568594 ,47,4463142136365 ,75,173161006565
3.567585 ,Left ,64,1935403368426 ,47,4773453037396 ,75,2155142115398
3.5825739 ,Left ,64,2084361338848 ,47,5348862517681 ,75,2036292864601
3.6050429 ,Left ,64,3231705042667 ,47,5313278233176 ,75,1585397467479
3.6268397 ,Left ,64,3844426419709 ,47,4754373753692 ,75,1419931267362
3.6420124 ,Left ,64,363330676832 ,47,4683297557541 ,75,161925277294
3.6643701 ,Left ,64,2794848097991 ,47,510523841747 ,75,1954258480433
3.6870344 ,Left ,64,254189513746 ,47,5368328992286 ,75,2239032012947
3.709403 ,Left ,64,3355098675617 ,47,5108355987392 ,75,2510375031919
3.7694583 ,Left ,64,4221609852713 ,47,4045344441411 ,75,3374487082461
3.80712 ,Left ,64,6010091761715 ,47,3440221262636 ,75,3181673917365
3.8295202 ,Left ,64,7241001712715 ,47,4070051923188 ,75,2896363169328
3.8673818 ,Left ,64,6183770736194 ,47,3783933913937 ,75,2923508835448
3.8893429 ,Left ,64,6721019171029 ,47,3395746878447 ,75,2762446645479
3.9269257 ,Left ,64,6381317322412 ,47,4608359706327 ,75,2784991871523
3.9493743 ,Left ,64,6792696363005 ,47,5184067846909 ,75,2827534154937
3.9866744 ,Left ,64,6103427487808 ,47,4882738786078 ,75,3133472338175
4.0168782 ,Left ,64,5656686287934 ,47,4806254909144 ,75,325326268116
4.0544309 ,Left ,64,2752027449099 ,47,3565530517669 ,75,3349933025658
4.0693671 ,Left ,64,1898528674934 ,47,3968742426877 ,75,3704801570894
4.1067599 ,Left ,63,8835263396011 ,48,0247862620272 ,75,3964481641397
4.1293301 ,Left ,63,9753170351304 ,48,1227354061138 ,75,3910644375306
4.1671972 ,Left ,64,050978613926 ,48,0249367108927 ,75,3507568060509
4.1893452 ,Left ,63,9570958427936 ,47,9546251461093 ,75,3067106063867
4.2277307 ,Left ,63,706574715949 ,47,8985602339578 ,75,3208617898177
4.2498593 ,Left ,63,8162069163872 ,47,9887204669919 ,75,3400710416613
4.2950618 ,Left ,64,1247187909987 ,48,0044461830731 ,75,3051965179878
4.3099815 ,Left ,64,2070607743383 ,47,9325686752852 ,75,2908145960726
4.3472655 ,Left ,64,0205451040729 ,47,9146521125111 ,75,2760782007576
4.3695372 ,Left ,63,8844060587049 ,47,8366457791964 ,75,299740178354
4.4070997 ,Left ,63,980885242016 ,47,8288847551763 ,75,283840336761
4.4296248 ,Left ,63,9878362358259 ,47,9231587106547 ,75,2906921589664
4.4672633 ,Left ,64,2077086532577 ,47,9633744135915 ,75,2856575221184
4.4895265 ,Left ,64,2403629611248 ,47,9376479169989 ,75,3111969807969
4.5267299 ,Left ,63,9700808018421 ,47,9970172081596 ,75,3837873581437
4.5497849 ,Left ,63,9233433804098 ,47,9589081537144 ,75,4400082691077
4.595112 ,Left ,63,8854363678668 ,47,8332531777154 ,75,4230411829146
4.609902 ,Left ,63,8216258330058 ,47,8224166787769 ,75,4490111843247
4.6323928 ,Left ,63,7473437813002 ,47,9204621389056 ,75,4254302599312
4.6479518 ,Left ,63,8014925441396 ,48,0170257754277 ,75,3934341448936
4.6698424 ,Left ,63,9884614686094 ,48,0297815714905 ,75,37056832607
4.6845742 ,Left ,64,0852118801794 ,48,0382372923408 ,75,3466575760067
4.7141402 ,Left ,64,0833043852675 ,48,0568677899969 ,75,3279056695722
4.7370119 ,Left ,64,003965362553 ,48,0930352361383 ,75,3153058021544
4.7594909 ,Left ,63,9939367081137 ,48,1228008424267 ,75,2950196070013
4.7745269 ,Left ,64,0691401748785 ,48,1464107711147 ,75,2745064034466
4.7972052 ,Left ,64,1413151037217 ,48,1531256087082 ,75,2360629698823
4.8119581 ,Left ,64,1240725972237 ,48,1413349959632 ,75,1950203072939
4.8269971 ,Left ,64,0189501121157 ,48,1345299069875 ,75,1718680383795
4.84946 ,Left ,63,9443584118657 ,48,1371296737878 ,75,116090468584
4.8717787 ,Left ,63,9770956931857 ,48,117145618163 ,75,0558366825635
4.8942033 ,Left ,63,9241375694935 ,47,9977109291703 ,75,0584839408522
4.9245289 ,Left ,63,8522535666664 ,47,8765068056298 ,75,2394366293715
4.9475011 ,Left ,63,8638192604401 ,47,8425170704272 ,75,2589348278085
4.9699468 ,Left ,64,0325581978531 ,47,7026232087259 ,75,2215594786947
4.9922681 ,Left ,64,1404456370441 ,47,556984283916 ,75,2388945541502
5.0143647 ,Left ,64,0728460540314 ,47,579601935097 ,75,2965747081464
5.0445233 ,Left ,64,1721491167602 ,47,5894614493212 ,75,2812115063323
5.0744242 ,Left ,64,2464511349104 ,47,4817876282716 ,75,2844506384314
5.1125833 ,Left ,64,1979333974679 ,47,4588524174202 ,75,3311952967182
5.1278686 ,Left ,64,1368192190366 ,47,5309580391923 ,75,36106821182
5.1646895 ,Left ,64,2199606113194 ,47,6347665095243 ,75,3146521380229
5.1872205 ,Left ,64,1858860652318 ,47,5964645435595 ,75,2965999124595
5.2167792 ,Left ,64,1794927221875 ,47,5788286426641 ,75,3088413244383
5.2393789 ,Left ,64,220067963618 ,47,5581609040791 ,75,340492265524
5.2544299 ,Left ,64,2189459499525 ,47,521040817633 ,75,3665394683665
5.2693075 ,Left ,64,2783762229123 ,47,4640401988262 ,75,3938468536317
5.292248 ,Left ,64,3503251322503 ,47,3975366926514 ,75,4196587383754
5.3223098 ,Left ,64,3536653332111 ,47,3397639703991 ,75,4299189866845
5.3446686 ,Left ,64,3595625409347 ,47,28909716246 ,75,4369391617357
5.3822691 ,Left ,64,3814667069306 ,47,2541191425807 ,75,4283444630929
5.4120981 ,Left ,64,3816274258641 ,47,2651944914923 ,75,417173312322
5.4422847 ,Left ,64,4125178166817 ,47,2770455195784 ,75,4155333285402
5.5018131 ,Left ,64,3948773388046 ,47,273717912453 ,75,4200087851917
5.5247154 ,Left ,64,3779284991296 ,47,2925754531052 ,75,4335199363076
5.5476704 ,Left ,64,3418262633055 ,47,3617839414094 ,75,4626776833186
5.5698614 ,Left ,64,3291172094826 ,47,3724527091069 ,75,4678781671157
5.6069848 ,Left ,64,2926238954488 ,47,3759857399259 ,75,4572685074496
5.6220091 ,Left ,64,2293032643082 ,47,3658649825648 ,75,432108737975
5.6520589 ,Left ,64,1095688348815 ,47,3307500188685 ,75,3868434311617
5.6823276 ,Left ,63,8725149930591 ,47,1105092964682 ,75,3436976641999
5.7123563 ,Left ,63,668228235703 ,47,1501275247621 ,75,3736874355721
5.7273743 ,Left ,63,501846286703 ,47,315054445119 ,75,3898851545885
5.7418064 ,Left ,63,5378850570468 ,47,4228852170362 ,75,37840179046
5.7644171 ,Left ,63,6655075454913 ,47,4814153807473 ,75,3565767719607
5.7794774 ,Left ,63,655997094254 ,47,5188617196271 ,75,3483758898208
5.7945326 ,Left ,63,5563264398277 ,47,516246956186 ,75,3203015228818
5.824603 ,Left ,63,5542376491214 ,47,498252790899 ,75,3215212123889
5.8393935 ,Left ,63,5547953381198 ,47,4651928020498 ,75,3439880504729
5.8545569 ,Left ,63,5763543167154 ,47,5364967391494 ,75,3740865002599
5.8695752 ,Left ,63,7661507095378 ,47,5053702882018 ,75,3400750234085
5.8921594 ,Left ,63,7159686899057 ,47,3849758076739 ,75,3233925531001
5.921933 ,Left ,63,8263150515509 ,47,1992200318532 ,75,2826341009815
5.9442555 ,Left ,63,8008767407514 ,47,2735227192644 ,75,2855237035604
5.9818008 ,Left ,63,6487969876156 ,47,358768463121 ,75,3020762504031
6.0122827 ,Left ,63,8144389063385 ,47,2745031336432 ,75,3485508449824
6.0498662 ,Left ,64,2708477784054 ,47,509491807589 ,75,3354064155322
6.0650108 ,Left ,64,2668275775194 ,47,7178674764698 ,75,3377376332668
6.0949721 ,Left ,63,8381024527587 ,47,8997954328298 ,75,3825338209483
6.1173093 ,Left ,63,7003969705659 ,47,7747569209831 ,75,4362463974303
6.1474888 ,Left ,63,5426980794531 ,47,5957807357902 ,75,3996766022405
6.1700194 ,Left ,63,5293750178982 ,47,609775176443 ,75,4569169145466
6.199791 ,Left ,63,5379453305872 ,47,6892461073823 ,75,4406199911495
6.2146557 ,Left ,63,5928594306397 ,47,7989341452674 ,75,4076476965438
6.244688 ,Left ,63,7646296291203 ,47,8451662235787 ,75,3863860740224
6.2821264 ,Left ,63,8384585694272 ,47,8952155873733 ,75,3493271387725
6.2972744 ,Left ,63,7685505564921 ,47,9220300734529 ,75,3211858517086
6.3276932 ,Left ,63,7458583490079 ,47,9391459145201 ,75,2932008007326
6.3501763 ,Left ,63,7766227278344 ,47,9458935518837 ,75,2746095087934
6.3722625 ,Left ,63,8601582031013 ,47,9459389900645 ,75,2556185110879
6.3872717 ,Left ,63,822065044462 ,47,9833483054745 ,75,2395102718299
6.4099212 ,Left ,63,7744940582432 ,48,0014051323687 ,75,2175102480872
6.4323728 ,Left ,63,7561309486939 ,47,99353001881 ,75,2002164627599
6.4472643 ,Left ,63,7596900439114 ,47,9625385863028 ,75,1706100753214
6.4846804 ,Left ,63,7475800252626 ,47,9166386136847 ,75,124442316248
6.5147192 ,Left ,63,7186003188717 ,47,8346985103394 ,75,0479421020237
6.5447676 ,Left ,63,5327680164402 ,47,6621633119691 ,75,0553115890895
6.5599039 ,Left ,63,5520947337279 ,47,674403079278 ,75,0492457407009
6.5746935 ,Left ,63,6901648628165 ,47,6061135414881 ,74,9923443697126
6.5897235 ,Left ,63,8328845974718 ,47,4631979264689 ,74,9666448895566
6.6122457 ,Left ,63,8418050759136 ,47,3994120071078 ,74,9984621704771
6.6347975 ,Left ,63,6502478285922 ,47,4312792331342 ,75,0398063009811
6.6574048 ,Left ,63,6482485194867 ,47,4321103654698 ,75,0326627243225
6.6798311 ,Left ,63,8167878698029 ,47,344839583641 ,75,0332283667276
6.7098397 ,Left ,63,8224657417175 ,47,3038511771044 ,75,1272630682088
6.7322251 ,Left ,63,815394870873 ,47,3515904917627 ,75,1559815142489
6.7624158 ,Left ,63,8953327749016 ,47,4199140679874 ,75,1358329980648
6.7772381 ,Left ,63,9927632579956 ,47,4436651133577 ,75,1056227591014
6.7992914 ,Left ,64,00306094809 ,47,4402594856591 ,75,0925617813279
6.8144372 ,Left ,63,9798489131832 ,47,4259045748582 ,75,0866708327668
6.8300723 ,Left ,64,0011174323696 ,47,4100371804478 ,75,0922424586155
6.8526666 ,Left ,64,0084802509848 ,47,4019933291735 ,75,1144865072269
6.8748992 ,Left ,63,9922030576652 ,47,3864592861779 ,75,1364295851482
6.8894652 ,Left ,64,0270031831533 ,47,3491940664934 ,75,157767975321
6.9193027 ,Left ,64,073718688333 ,47,3027403042168 ,75,1837520600641
6.9417923 ,Left ,64,1035109251426 ,47,2599761168811 ,75,2137150213807
6.9571646 ,Left ,64,1255179244476 ,47,224582871458 ,75,2374822652191
6.9722357 ,Left ,64,138114870001 ,47,2180377358473 ,75,2529582738619
6.9947144 ,Left ,64,13246698964 ,47,2281096090735 ,75,261155653632
7.0096177 ,Left ,64,1267354271193 ,47,2467857499704 ,75,2634165061664
7.032253 ,Left ,64,1301906063352 ,47,2515604726692 ,75,2600996520013
7.0545853 ,Left ,64,1317872048775 ,47,2527529707872 ,75,2610755218168
7.0693634 ,Left ,64,1143855744964 ,47,250569701554 ,75,2630799396929
7.0919633 ,Left ,64,1125724399794 ,47,259206538531 ,75,268627365869
7.1143995 ,Left ,64,0809069618623 ,47,2682614929658 ,75,2784860409544
7.1293352 ,Left ,64,0408122419669 ,47,2533505982323 ,75,2881746630575
7.1526104 ,Left ,64,010982261751 ,47,2130100476919 ,75,2921907709123
7.1749704 ,Left ,63,9398405613937 ,47,1766872426693 ,75,3032012058104
7.1900805 ,Left ,63,8343978739787 ,47,1239240622147 ,75,3106660063711
7.2126796 ,Left ,63,6358529202853 ,47,0585831641457 ,75,3260350413995
7.2347022 ,Left ,63,5389695026377 ,47,0567790631333 ,75,3451239062857
7.2573196 ,Left ,63,331712312032 ,47,1293261286825 ,75,3182709967657
7.2722413 ,Left ,63,219350157297 ,47,2781421402681 ,75,2486014977855
7.3019256 ,Left ,63,255744637281 ,47,4444802841834 ,75,2480425942766
7.3244175 ,Left ,63,3620073001463 ,47,6223116330667 ,75,2747811676743
7.3394364 ,Left ,63,4817875300538 ,47,7313174026384 ,75,3202660404472
7.3842751 ,Left ,63,5949967991574 ,47,5685481998329 ,75,3782066237633
7.3992149 ,Left ,63,5872208575372 ,47,4537760693434 ,75,3589211400387
7.4368254 ,Left ,63,4153123895342 ,47,3271264202294 ,75,2749414202976
7.452116 ,Left ,63,4311673797559 ,47,2828808164596 ,75,1944128202687
7.4826917 ,Left ,63,4864135378016 ,47,3756388138608 ,75,2005408828495
7.5050241 ,Left ,63,5017878501719 ,47,5751320908611 ,75,2391384111799
7.5200673 ,Left ,63,612219738365 ,47,7193124863898 ,75,251409884723
7.5350154 ,Left ,63,8161471125072 ,47,7185494286233 ,75,2648268977486
7.5575234 ,Left ,63,9667558913062 ,47,6925725908955 ,75,2785245935535
7.5721616 ,Left ,63,9568535023653 ,47,6928743397978 ,75,284371904941
7.5944798 ,Left ,63,8915949122621 ,47,7042844620991 ,75,3058874063312
7.6243574 ,Left ,63,859057982351 ,47,7040703362935 ,75,3500790318386
7.6470514 ,Left ,63,7902241936865 ,47,6780898165078 ,75,3710693158205
7.6692703 ,Left ,63,7696721598708 ,47,6570660551221 ,75,3194490565724
7.6993814 ,Left ,63,7118833456757 ,47,7562014860695 ,75,3796934346494
7.7144685 ,Left ,63,7772495907884 ,47,8507590952597 ,75,3497207221634
7.7370178 ,Left ,63,9213297146795 ,47,8806961515056 ,75,3180449645418
7.7518505 ,Left ,64,0656788604381 ,47,8766430789462 ,75,3015610813319
7.7746383 ,Left ,64,0500691162647 ,47,862339027895 ,75,2918628182973
7.7968602 ,Left ,63,9798525040617 ,47,853144914954 ,75,2680298851603
7.8118966 ,Left ,63,9115966746893 ,47,8383421625185 ,75,2548161734972
7.8341532 ,Left ,63,9381819403355 ,47,8335641244265 ,75,2390641949487
7.8571099 ,Left ,64,0267211278488 ,47,8147648305726 ,75,2239674574775
7.871745 ,Left ,64,1171760391896 ,47,80370511749 ,75,2167406289559
7.8942935 ,Left ,64,1366998920444 ,47,81468103617 ,75,2139904065945
7.9169484 ,Left ,64,1063167736179 ,47,8539234640567 ,75,1983442098807
7.9319918 ,Left ,64,0913973205278 ,47,8953817453054 ,75,1687006789004
7.9547504 ,Left ,64,0805573550382 ,47,9304008984878 ,75,1344711644145
7.9770693 ,Left ,64,0912970893746 ,47,9500253681836 ,75,1059838518562
7.9921774 ,Left ,64,0663647466801 ,47,9606928358189 ,75,081253092635
8.0145418 ,Left ,64,0301282318825 ,47,9716918490793 ,75,0514345749565
8.0370573 ,Left ,63,9850129371529 ,47,9648089722535 ,75,0202619051364
8.0520812 ,Left ,63,8512446568676 ,47,8874435880317 ,75,0359465129178
8.0743963 ,Left ,63,8522360212756 ,47,8262710197792 ,75,0959655489276
8.0967745 ,Left ,63,8431410417314 ,47,8208273137116 ,75,1405378631984
8.1118616 ,Left ,63,7975422904363 ,47,8105588747832 ,75,1238188920753
8.1344363 ,Left ,63,8281529500239 ,47,7007303029637 ,75,0762462580274
8.1569392 ,Left ,63,8850304318126 ,47,5836068643872 ,75,102256106114
8.1796492 ,Left ,63,7607263959106 ,47,5873465385725 ,75,1606867887377
8.2018451 ,Left ,63,724620841868 ,47,6207783841229 ,75,1596674536484
8.2243089 ,Left ,63,8685052470557 ,47,5432412116291 ,75,1303332014748
8.2545205 ,Left ,63,9284286701351 ,47,3616213934452 ,75,2215098932862
8.2771004 ,Left ,63,9055605641789 ,47,3755597155035 ,75,2559669828651
8.2995936 ,Left ,63,9591184621382 ,47,4191311344496 ,75,2317393886689
8.314153 ,Left ,64,0822317266226 ,47,4045296371766 ,75,1869752588602
8.3369061 ,Left ,64,1551463251873 ,47,3500301167771 ,75,1566450712099
8.366983 ,Left ,64,1573273116306 ,47,3303010605494 ,75,1559688367724
8.3819847 ,Left ,64,1093247774263 ,47,3385669382437 ,75,1588169969808
8.4046424 ,Left ,64,1076202468697 ,47,343497352899 ,75,166008275154
8.4272982 ,Left ,64,1661898721625 ,47,3221099905984 ,75,1818993191564
8.4424055 ,Left ,64,2503049012486 ,47,2788847254479 ,75,1962784368171
8.472356 ,Left ,64,2975750134294 ,47,2400291365049 ,75,2190777530346
8.4873617 ,Left ,64,2906894409628 ,47,2101751660567 ,75,2364490125596
8.5022869 ,Left ,64,2903234537399 ,47,1862853096621 ,75,2551811973014
8.5170005 ,Left ,64,3045713330561 ,47,1759005686455 ,75,2759697142737
8.5393774 ,Left ,64,3142544250785 ,47,1797109937192 ,75,2819644124563
8.5545448 ,Left ,64,3134022987896 ,47,2031537492538 ,75,2846144731168
8.5768454 ,Left ,64,3120895365088 ,47,2365199582407 ,75,2850120986336
8.5995859 ,Left ,64,2921066531819 ,47,2575318347156 ,75,2786823105205
8.6145408 ,Left ,64,2844117584959 ,47,2735253667703 ,75,2753730032794
8.6370172 ,Left ,64,2680463473349 ,47,2879609655209 ,75,2779745632599
8.6594654 ,Left ,64,2277483251031 ,47,2938675213681 ,75,2827104494653
8.6746544 ,Left ,64,1770224010348 ,47,2863363589298 ,75,2874569185936
8.6970229 ,Left ,64,1270123654405 ,47,271896895538 ,75,295582344926
8.7194834 ,Left ,64,0181190487206 ,47,2302168447166 ,75,2982623874591
8.7422797 ,Left ,63,9197341872004 ,47,1051218546569 ,75,2990489730689
8.764696 ,Left ,63,8646259110446 ,47,0177447373731 ,75,3200273711355
8.7945668 ,Left ,63,5764154710748 ,47,205438964421 ,75,3296953825919
8.8171696 ,Left ,63,5570902373334 ,47,3505966980748 ,75,3165756032492
8.8392352 ,Left ,63,711689545972 ,47,4403718071872 ,75,2988314474681
8.8543747 ,Left ,63,7551632782038 ,47,4847859713982 ,75,2863838150918
8.8768101 ,Left ,63,6678104559621 ,47,5020839483187 ,75,2545732214925
8.8992464 ,Left ,63,5326814943143 ,47,503970719588 ,75,2364448006995
8.9145342 ,Left ,63,4696757432575 ,47,5031383884182 ,75,271286331864
8.9445273 ,Left ,63,5202247739683 ,47,542732742476 ,75,3288533805935
8.9672567 ,Left ,63,6273025457521 ,47,5812194004816 ,75,3394619034289
8.9823529 ,Left ,63,7437393474682 ,47,5169384952449 ,75,3262838576744
8.9972644 ,Left ,63,8278670437029 ,47,4478120114333 ,75,3073666422126
9.0192681 ,Left ,63,717077856083 ,47,4052679841339 ,75,3221605819764
9.0344981 ,Left ,63,5699875915121 ,47,3149212869987 ,75,3528818094604
9.0570721 ,Left ,63,6110955070365 ,47,2760904032231 ,75,3477094344359
9.0793104 ,Left ,63,7446706047829 ,47,3604073244949 ,75,3540351086153
9.1018712 ,Left ,63,8585833408877 ,47,4784728952728 ,75,3291848300181
9.1167829 ,Left ,63,9509621517314 ,47,5487514055569 ,75,3094754184774
9.1392982 ,Left ,64,0036443265853 ,47,5358581399604 ,75,3067208985159
9.1621146 ,Left ,64,003870762209 ,47,5388655579836 ,75,3076910484951
9.177122 ,Left ,63,9167645697852 ,47,5815803666615 ,75,3307305708393
9.1997703 ,Left ,63,8129072887463 ,47,625429746284 ,75,3718100663175
9.2221966 ,Left ,63,7826499448316 ,47,5976248835072 ,75,4215646117627
9.2373206 ,Left ,63,8048564134916 ,47,5621484257245 ,75,4167710211411
9.2597366 ,Left ,63,8347259665782 ,47,5595263713539 ,75,4412389852711
9.2747319 ,Left ,63,7967000754307 ,47,5832606603273 ,75,4602385324341
9.297378 ,Left ,63,7762677696503 ,47,6883348359341 ,75,4424668057796
9.3191676 ,Left ,63,8605829553703 ,47,7493628867375 ,75,4101134732171
9.3420833 ,Left ,63,9791932427496 ,47,7511880073251 ,75,3846347288071
9.3570786 ,Left ,63,9936305904962 ,47,7404673025659 ,75,3544312914035
9.3792811 ,Left ,63,8955082958561 ,47,7453764552661 ,75,3212345822251
9.402037 ,Left ,63,7958954453412 ,47,7421362518824 ,75,2880566041974
9.4170262 ,Left ,63,8115215025764 ,47,729572579421 ,75,2418860755719
9.4395309 ,Left ,63,8487071388237 ,47,6985377889761 ,75,2164572862024
9.4619338 ,Left ,63,8476900405648 ,47,6818812959077 ,75,1934981646763
9.4769441 ,Left ,63,859606700656 ,47,6698512955717 ,75,1676569100325
9.4993874 ,Left ,63,703280499203 ,47,6259195849716 ,75,2034899622557
9.5218446 ,Left ,63,6968000857474 ,47,6085813902438 ,75,2543375432117
9.5373257 ,Left ,63,714799614606 ,47,6080107570914 ,75,2611711482901
9.5600436 ,Left ,63,7641912369484 ,47,5359860761453 ,75,2115995102261
9.5822012 ,Left ,63,8192589929933 ,47,4005056432974 ,75,1611263037972
9.5975383 ,Left ,63,8150239277258 ,47,3838959382183 ,75,1845186692454
9.6201021 ,Left ,63,74394192727 ,47,4381999545368 ,75,2185812973609
9.6422346 ,Left ,63,8570013346214 ,47,4447954913663 ,75,206539414385
9.6570419 ,Left ,63,9411864072542 ,47,3582025317902 ,75,2378924243986
9.6872859 ,Left ,63,9610963950766 ,47,3025959402944 ,75,3075489422074
9.7093286 ,Left ,63,9695316747925 ,47,2964808395223 ,75,3434424187836
9.7319839 ,Left ,64,0389388432417 ,47,3044291048627 ,75,3050693858865
9.7544341 ,Left ,64,1134192596021 ,47,2834796917585 ,75,2498083815067
9.7695194 ,Left ,64,1667197917826 ,47,2488737739816 ,75,2229719788845
9.784827 ,Left ,64,1652856023039 ,47,2608192274302 ,75,2367598298279
9.7999815 ,Left ,64,1142905621224 ,47,307499857336 ,75,2471404005193
9.8224909 ,Left ,64,117718633977 ,47,3532758891269 ,75,2283764790931
9.8376997 ,Left ,64,1792427597556 ,47,3669421703275 ,75,2119103131157
9.860139 ,Left ,64,2363335812818 ,47,366551450727 ,75,203720585016
9.8824806 ,Left ,64,2461150228619 ,47,3565963361047 ,75,1975118890466
9.8975855 ,Left ,64,2294939349432 ,47,3535751621618 ,75,1957488404979
9.9198579 ,Left ,64,2086053157109 ,47,3541733446864 ,75,1903693136407
9.9423534 ,Left ,64,199365666002 ,47,358517780124 ,75,1883674132444
9.9571115 ,Left ,64,184090583873 ,47,3695926496067 ,75,1863439479306
9.9795262 ,Left ,64,1653504703359 ,47,3862842796971 ,75,1853124520738
10.002088 ,Left ,64,1512312179453 ,47,3882593343336 ,75,1927822574755
10.0171797 ,Left ,64,1305722125921 ,47,3744746910071 ,75,2074371742181
10.0393439 ,Left ,64,1138943589409 ,47,344552788941 ,75,2172164416407
10.0617798 ,Left ,64,0638604852206 ,47,2957981908006 ,75,2313846313509
10.0767775 ,Left ,64,0173093682215 ,47,2292115132977 ,75,2436864582824
10.0994779 ,Left ,63,9553509601164 ,47,1786836527159 ,75,2652014655533
10.1221937 ,Left ,63,8821379184248 ,47,1175936618008 ,75,2696816989539
10.1371395 ,Left ,63,9167562043051 ,47,1057333766085 ,75,2980852639164
10.1595875 ,Left ,63,9678415356022 ,47,2047099901189 ,75,3254206797943
10.1744583 ,Left ,63,8497254178727 ,47,3369892713833 ,75,3173398999814
10.211829 ,Left ,63,9474059600103 ,47,4600775049387 ,75,2881371596679
10.234394 ,Left ,64,0576286456778 ,47,4481572380391 ,75,2903846237852
10.2718244 ,Left ,63,8217480274335 ,47,4782819621411 ,75,3331967871622
10.2943924 ,Left ,63,7055402302819 ,47,4629769383813 ,75,2894642675465
10.3325288 ,Left ,63,8409958964605 ,47,4460154681765 ,75,3596333958106
10.3550488 ,Left ,63,836909490361 ,47,5141603065468 ,75,3662262501812
10.3999266 ,Left ,63,9369577224406 ,47,4781009956211 ,75,3420266555189
10.4223495 ,Left ,63,9534533428362 ,47,495158440208 ,75,3397307428631
10.4526868 ,Left ,63,8383835550013 ,47,5196613918621 ,75,3405496445711
10.4748544 ,Left ,63,8957523306809 ,47,4969150749307 ,75,3195511859621
10.5195737 ,Left ,63,9664715131791 ,47,3558162531228 ,75,3210355202622
10.542238 ,Left ,63,9553907877573 ,47,3671820112582 ,75,304862594306
10.5720552 ,Left ,63,9297460647701 ,47,4585521485546 ,75,3187182894682
10.5945567 ,Left ,63,88537492 ,47,4929452839818 ,75,3969484330225
10.6320947 ,Left ,63,7367931697525 ,47,5863630202787 ,75,3380540746854
10.6546764 ,Left ,63,7624375694776 ,47,6443531440878 ,75,3875069726519
10.6923331 ,Left ,63,8545345113623 ,47,8745639067782 ,75,324998005754
10.714747 ,Left ,63,9160942811257 ,47,8859455465902 ,75,3081541775247
10.75939 ,Left ,63,8277384067375 ,47,8926433996432 ,75,2773351506339
10.7817607 ,Left ,63,7935815962981 ,47,8851014095255 ,75,2441794313937
10.8119616 ,Left ,63,8552199018522 ,47,9117637396309 ,75,1986052008125
10.8343655 ,Left ,63,880379793315 ,47,8947760871662 ,75,1866586123791
10.872132 ,Left ,63,7946947569674 ,47,8471827278801 ,75,172322942695
10.8947476 ,Left ,63,7887329037978 ,47,8367391323855 ,75,1529474421948
10.93199 ,Left ,63,7475833289154 ,47,7369825879711 ,75,1523855245362
10.9545241 ,Left ,63,6958105388767 ,47,6899845624205 ,75,2196620245619
10.9920661 ,Left ,63,6800768298695 ,47,5616245721194 ,75,229125959038
11.0144064 ,Left ,63,735742545842 ,47,4268996328284 ,75,2108785343877
11.0517793 ,Left ,63,6105138938486 ,47,4583157762619 ,75,2463580434029
11.0744877 ,Left ,63,732585748128 ,47,4647429076701 ,75,2180998390615
11.0969722 ,Left ,63,8480345939863 ,47,3874835965618 ,75,2337874774443
11.1119884 ,Left ,63,844240785979 ,47,3868197552527 ,75,3123381745953
11.1424719 ,Left ,63,8242370863111 ,47,4534689385452 ,75,3780731084211
11.1650259 ,Left ,63,8825662658459 ,47,5185233394564 ,75,3807430898117
11.1793588 ,Left ,64,023268474716 ,47,5250475517612 ,75,3492892330754
11.1943683 ,Left ,64,0904094085423 ,47,4960547107591 ,75,3206414111707
11.21669 ,Left ,64,080869801291 ,47,4793104749707 ,75,3158942623568
11.2318155 ,Left ,64,0750159469178 ,47,5047972813763 ,75,3238349835389
11.2543375 ,Left ,64,0312291479111 ,47,5507384683731 ,75,3210696079819
11.2921777 ,Left ,64,1194911762443 ,47,5810732861979 ,75,3354893340055
11.3225742 ,Left ,64,1646244647304 ,47,5636846956626 ,75,3477385558795
11.3525606 ,Left ,64,1191829298923 ,47,5144222354774 ,75,3594836088012
11.3825557 ,Left ,64,1125252426394 ,47,5134110083961 ,75,3689731227452
11.4196464 ,Left ,64,1056816178116 ,47,5393992487114 ,75,3733083035281
11.4418413 ,Left ,64,106482833024 ,47,549977079507 ,75,3721008110472
11.4718115 ,Left ,64,0525106941733 ,47,5143141988789 ,75,3537011927099
11.4943554 ,Left ,64,0285951132586 ,47,4948088144806 ,75,3518849305467
11.5317701 ,Left ,63,90503590126 ,47,475478685384 ,75,3021977599008
11.5545355 ,Left ,63,8402298979764 ,47,3837593910815 ,75,270957855685
11.5846539 ,Left ,63,7626650907957 ,47,2306177701802 ,75,2914586475517
11.6298988 ,Left ,63,5611430859739 ,47,3307874219427 ,75,3619351622464
11.6450505 ,Left ,63,4620597147855 ,47,4630303839151 ,75,3478459445591
11.6750857 ,Left ,63,7038028045605 ,47,502873068655 ,75,3262083697075
11.6975144 ,Left ,63,6932525414818 ,47,4754338928381 ,75,3143645448854
11.734942 ,Left ,63,5359693454123 ,47,5030460668244 ,75,4463199135662
11.7575984 ,Left ,63,6479062248053 ,47,5281351053714 ,75,4540569153012
11.8026624 ,Left ,63,9062752330738 ,47,4336511493579 ,75,40114711462
11.8250064 ,Left ,63,8915900404436 ,47,4600134884865 ,75,3700246560748
11.8549644 ,Left ,63,6759402731308 ,47,4014419542867 ,75,3485340763316
11.8776625 ,Left ,63,7611119079188 ,47,4299373683986 ,75,3528573342749
11.9148891 ,Left ,63,8626040771927 ,47,55614014725 ,75,355248862218
11.9374711 ,Left ,63,9694171425043 ,47,5458050001329 ,75,3763460317846
11.9748768 ,Left ,63,9507733725342 ,47,6137403347191 ,75,4248217859586
11.9974019 ,Left ,63,8502939748044 ,47,6557490865859 ,75,4705612847964
12.03483 ,Left ,63,7120066113368 ,47,6287225938347 ,75,4432049909937
12.0649673 ,Left ,63,7684268748656 ,47,640241060941 ,75,4583677786825
12.1026975 ,Left ,63,6467897781543 ,47,8660923801875 ,75,4248319558176
12.1174603 ,Left ,63,7790357017123 ,47,8943306040889 ,75,4061928904814
12.1626394 ,Left ,63,796150732026 ,47,8912457915917 ,75,3488291282307
12.2150054 ,Left ,63,8303350414567 ,47,9190520568628 ,75,2572580054836
12.2375942 ,Left ,63,872932434564 ,47,8936868996434 ,75,2395194116815
12.2824028 ,Left ,63,7933649375701 ,47,8955458694006 ,75,225906478367
12.297428 ,Left ,63,7640992883824 ,47,8829234460428 ,75,2089012105683
12.3349361 ,Left ,63,7850977658115 ,47,7566039056574 ,75,1724891657412
12.35735 ,Left ,63,6774616180157 ,47,671015628841 ,75,1827850670385
12.4024981 ,Left ,63,6492457391549 ,47,4980293592349 ,75,2422897236748
12.4249848 ,Left ,63,703548166882 ,47,3430979988961 ,75,2478438385107
12.4777054 ,Left ,63,7036491340331 ,47,3815000847119 ,75,3650035775767
12.5146314 ,Left ,63,7829747866192 ,47,2178669878693 ,75,3427518984569
12.536942 ,Left ,63,6845215233824 ,47,255694006365 ,75,3598642072014
12.5744022 ,Left ,63,8604883143412 ,47,3442227033975 ,75,3178574853303
12.6043214 ,Left ,63,9627478538886 ,47,2949267656846 ,75,2759915852999
12.6569478 ,Left ,63,8062789676952 ,47,3419634202702 ,75,3080342398578
12.694548 ,Left ,64,0281308206138 ,47,337813403879 ,75,3362251490963
12.7169055 ,Left ,64,087952125407 ,47,3219127341164 ,75,3415720040882
12.7625429 ,Left ,63,967693677529 ,47,3320391535427 ,75,3284240343372
12.7850409 ,Left ,63,9874801152876 ,47,3283921519398 ,75,3155423808501
12.8150948 ,Left ,64,0467384912456 ,47,35631534826 ,75,2812186035774
12.8374147 ,Left ,64,0073186224347 ,47,384039576942 ,75,272560550389
12.8746799 ,Left ,63,953130408134 ,47,3903049010217 ,75,2653163736712
12.9047743 ,Left ,63,9568292756822 ,47,371125775254 ,75,2594924149235
12.9423118 ,Left ,63,9126289586442 ,47,3099844389705 ,75,2488304439402
12.9571531 ,Left ,63,8368967666557 ,47,2653213425107 ,75,2291012469739
12.9946101 ,Left ,63,599457738486 ,47,0893089159939 ,75,1927151721945
13.0243233 ,Left ,63,5210348673755 ,47,1064606384154 ,75,2167294670286
13.0768304 ,Left ,63,2960894713165 ,47,4867497953232 ,75,1756523054983
13.1143146 ,Left ,63,3936146888001 ,47,6005322738071 ,75,2030732127968
13.1368027 ,Left ,63,3350727075126 ,47,6234703688669 ,75,2270350263331
13.1742337 ,Left ,63,4454357410851 ,47,3963709122784 ,75,25257018953
13.1969299 ,Left ,63,5587448814705 ,47,3147347209663 ,75,2276490808498
13.234702 ,Left ,63,3452405610392 ,47,3054249511443 ,75,18273362133
13.2574009 ,Left ,63,3853476982599 ,47,2838584840953 ,75,1297488573068
13.2944072 ,Left ,63,5246376759803 ,47,4862957958026 ,75,1975093032974
13.317183 ,Left ,63,65802465726 ,47,5162876492072 ,75,2021032230102
13.3546778 ,Left ,63,8774656734299 ,47,5430073185328 ,75,2383499085559
13.3778514 ,Left ,63,7826540452198 ,47,6284981256297 ,75,2751951791107
13.4222781 ,Left ,63,5701026756782 ,47,6445448488031 ,75,3437995196425
13.4446534 ,Left ,63,5429369096392 ,47,6427597876314 ,75,3357828434376
13.4973551 ,Left ,63,5617469301088 ,47,851720034649 ,75,3618035565676
13.5347333 ,Left ,63,7746435820469 ,47,8639479297686 ,75,3188893366196
13.5572632 ,Left ,63,7655701367698 ,47,8674719775566 ,75,2883585412773
13.5945645 ,Left ,63,6624023022702 ,47,9024369644828 ,75,2122005557243
13.6172589 ,Left ,63,7479315498054 ,47,8912267707068 ,75,180052944595
13.6546039 ,Left ,63,8075247388341 ,47,8443530299507 ,75,1417132306996
13.6772726 ,Left ,63,7336239401121 ,47,8277562970824 ,75,117341918646
13.6923082 ,Left ,63,683936478887 ,47,7933396031953 ,75,0802627467671
13.7072965 ,Left ,63,6038741290714 ,47,7142485785763 ,75,0947049418028
13.7369593 ,Left ,63,5925449308186 ,47,6372251766728 ,75,1822542729395
13.7673226 ,Left ,63,5794309681552 ,47,6217242859897 ,75,2596572756525
13.7896967 ,Left ,63,6126538972071 ,47,5685810735392 ,75,2644824484573
13.8046424 ,Left ,63,6815591260158 ,47,4227135205396 ,75,2447890755982
13.8196101 ,Left ,63,6429769320553 ,47,3555977854542 ,75,2795383453706
13.8572106 ,Left ,63,631250075168 ,47,3494671393884 ,75,2978329572121
13.8796786 ,Left ,63,7176309189538 ,47,2696137139298 ,75,3430624545831
13.9096102 ,Left ,63,7592356720202 ,47,3531448291236 ,75,4242050811763
13.9320675 ,Left ,63,8407083084496 ,47,4320045220364 ,75,3860892763907
13.9543412 ,Left ,63,9813879782835 ,47,4343590007686 ,75,3332923316292
13.969446 ,Left ,64,0341673602423 ,47,4034243895069 ,75,2975347529431
13.9921211 ,Left ,64,0016548760441 ,47,3825584650662 ,75,2857200288886
14.0223714 ,Left ,63,9789328387216 ,47,3936777855305 ,75,2807497761249
14.0373386 ,Left ,63,9758805410144 ,47,4048598750865 ,75,2613121524351
14.0743204 ,Left ,64,0456986868443 ,47,4028587218182 ,75,2416979743862
14.0893881 ,Left ,64,0725936945712 ,47,3737100214316 ,75,2470028972493
14.112073 ,Left ,64,079448140862 ,47,3398354022173 ,75,2460788128301
14.1342133 ,Left ,64,070064257355 ,47,3126430147766 ,75,2438154011668
14.150134 ,Left ,64,071693064597 ,47,2981501435389 ,75,2290695110811
14.1798416 ,Left ,64,0775254291115 ,47,2959648230017 ,75,2175677397676
14.2025934 ,Left ,64,0619755920692 ,47,3230204922706 ,75,2063512128526
14.2175702 ,Left ,64,027467226594 ,47,3444094513894 ,75,1941600326537
14.2326688 ,Left ,64,0234308572856 ,47,3636350690145 ,75,1911829226108
14.2545225 ,Left ,63,9983204438586 ,47,345792673739 ,75,1896098315838
14.2695249 ,Left ,63,9737204220755 ,47,3076474616685 ,75,1927857397042
14.2923027 ,Left ,63,9546197442364 ,47,2733186203948 ,75,1999727259074
14.3145326 ,Left ,63,8860582341791 ,47,249794506833 ,75,2078538555801
14.3375582 ,Left ,63,7788679887869 ,47,1701486009555 ,75,2137019865319
14.3595852 ,Left ,63,6496270404459 ,47,0124094843328 ,75,2272801004106
14.3818181 ,Left ,63,6699160484033 ,46,9669454508148 ,75,2503192368255
14.4049059 ,Left ,63,509972074944 ,47,0580629886265 ,75,2580383595913
14.4199654 ,Left ,63,3826159125431 ,47,239652570575 ,75,2483496171736
14.4427777 ,Left ,63,4631231383575 ,47,403208073382 ,75,2557418636324
14.4577498 ,Left ,63,5372154451069 ,47,5045929525722 ,75,2383477683719
14.4726649 ,Left ,63,5430683987221 ,47,5739262712229 ,75,2109596326799
14.4948802 ,Left ,63,4160501585246 ,47,6034743651065 ,75,2446072183853
14.5102039 ,Left ,63,3375772819527 ,47,6288271536483 ,75,3241320984752
14.5398593 ,Left ,63,4074393362038 ,47,6076039482108 ,75,3879452464068
14.5624777 ,Left ,63,4980228257215 ,47,510324806552 ,75,396265291983
14.5771757 ,Left ,63,5726964991006 ,47,3970058436867 ,75,3885804601718
14.5924686 ,Left ,63,5068403775805 ,47,3856090113169 ,75,3804877270894
14.614933 ,Left ,63,3688574959106 ,47,3851705290566 ,75,3865194819178
14.629836 ,Left ,63,3852831371721 ,47,3753661766938 ,75,3321950069837
14.6525473 ,Left ,63,4811781919767 ,47,455060915506 ,75,3365465781207
14.6746456 ,Left ,63,5677929428347 ,47,5601487448502 ,75,3636769257232
14.6898472 ,Left ,63,6277140763871 ,47,6557001764655 ,75,3559944106612
14.7123128 ,Left ,63,7276517988718 ,47,6396303135057 ,75,3457183369565
14.7347725 ,Left ,63,7772455223973 ,47,6180375232821 ,75,3576465107451
14.757537 ,Left ,63,7193215532508 ,47,6493158954805 ,75,3940477726578
14.7725264 ,Left ,63,6177353203196 ,47,6836462931236 ,75,4324792926499
14.7949388 ,Left ,63,608024943507 ,47,709987579613 ,75,4742290828251
14.8173581 ,Left ,63,5040437867689 ,47,7142381548284 ,75,4267073666253
14.8323553 ,Left ,63,428343597364 ,47,7595465550302 ,75,4138804788289
14.854917 ,Left ,63,3690049317301 ,47,7953185804667 ,75,4576423090681
14.8773042 ,Left ,63,3374947019477 ,47,9089335479284 ,75,4258944579066
14.8921926 ,Left ,63,4156727326255 ,47,9974085323013 ,75,3791019775813
14.9147396 ,Left ,63,5538777917925 ,48,0127569473681 ,75,3632156024426
14.9374911 ,Left ,63,5970666296468 ,47,9954878768754 ,75,358168916199
14.9524527 ,Left ,63,5376191094255 ,47,9904472269279 ,75,3410825361613
14.974699 ,Left ,63,4335109326563 ,47,9962076629355 ,75,3102978671449
14.9975196 ,Left ,63,4272793503048 ,47,9932706421617 ,75,2789161819608
15.0125483 ,Left ,63,5382957452265 ,47,9627302376594 ,75,2582235907345
15.0347037 ,Left ,63,6006396110655 ,47,9260172719618 ,75,2407480862304
15.0572425 ,Left ,63,5559511184268 ,47,9166803550955 ,75,2314302544068
15.0725757 ,Left ,63,4649045787582 ,47,9212461087156 ,75,2120473762874
15.094936 ,Left ,63,470395113685 ,47,862591983282 ,75,1942547957487
15.1242847 ,Left ,63,4032751694493 ,47,7856437859131 ,75,2374489296196
15.1395099 ,Left ,63,3933576730873 ,47,7331053238006 ,75,2916710009664
15.1620646 ,Left ,63,3458933502225 ,47,7145573367302 ,75,3228108248319
15.1768565 ,Left ,63,399826103473 ,47,6120626891194 ,75,3013234977305
15.1920124 ,Left ,63,4733803667873 ,47,4715035986234 ,75,3143780493001
15.2145691 ,Left ,63,3846111297298 ,47,4388325706008 ,75,3590763735128
15.2373611 ,Left ,63,3891071935827 ,47,447915195156 ,75,3548722006908
15.2523256 ,Left ,63,5347799526661 ,47,3713075415174 ,75,3191727505836
15.2745828 ,Left ,63,5747653506004 ,47,2878698814598 ,75,3382007870467
15.2969972 ,Left ,63,601364849066 ,47,2935423102406 ,75,3666241502215
15.3121185 ,Left ,63,6069139592177 ,47,3462051233261 ,75,3731831030631
15.3346938 ,Left ,63,7044677397576 ,47,3463545907645 ,75,3453836497329
15.3573065 ,Left ,63,8359149618335 ,47,3073414260196 ,75,318685097107
15.3717297 ,Left ,63,8741698794162 ,47,2849698239301 ,75,3193206740337
15.3943645 ,Left ,63,8108040914419 ,47,3223637772906 ,75,3371571446431
15.4169384 ,Left ,63,7643139852969 ,47,3755821948305 ,75,3326386566922
15.4319156 ,Left ,63,8122163594463 ,47,4096903770514 ,75,333329247157
15.4546198 ,Left ,63,9038012464214 ,47,4008870910725 ,75,3291375244416
15.4771324 ,Left ,63,9702995199309 ,47,3835340157608 ,75,323858496658
15.4924985 ,Left ,63,9452788004445 ,47,3663236304052 ,75,313456233562
15.5227463 ,Left ,63,9124709446462 ,47,3522853595845 ,75,3073835738032
15.5447261 ,Left ,63,9123723307965 ,47,3559768872573 ,75,3057202311983
15.5598056 ,Left ,63,9285504834929 ,47,3762239954205 ,75,3104728090117
15.5742218 ,Left ,63,9508637385484 ,47,3957721523857 ,75,3083806569244
15.596871 ,Left ,63,9613335979818 ,47,4092082629918 ,75,3083177441528
15.6120477 ,Left ,63,9369232914544 ,47,4179564820129 ,75,3050081862446
15.6345912 ,Left ,63,9025357427388 ,47,4186135008975 ,75,2974785908545
15.6572225 ,Left ,63,8987213617976 ,47,4067944120801 ,75,2942500607997
15.6794244 ,Left ,63,9060415721989 ,47,3739357805121 ,75,2845745573887
15.7018415 ,Left ,63,8712818733918 ,47,3314594720716 ,75,2820622950505
15.7395537 ,Left ,63,785155164462 ,47,16552473313 ,75,2655739900842
15.754848 ,Left ,63,6724761833563 ,47,0553895595932 ,75,255934271221
15.777643 ,Left ,63,5725552093691 ,46,9869986323113 ,75,2518825146564
15.8150005 ,Left ,63,4373412452324 ,46,9821976372651 ,75,2532663644638
15.8300955 ,Left ,63,2639158150644 ,47,044271265079 ,75,258709205483
15.85969 ,Left ,63,2336158252543 ,47,2980967262753 ,75,2577601586238
15.8747473 ,Left ,63,2498767680581 ,47,3929398306624 ,75,2295126103881
15.8968471 ,Left ,63,2516657259764 ,47,480914165273 ,75,2475970745378
15.9193139 ,Left ,63,1981854411926 ,47,5788511961085 ,75,266764963115
15.9344192 ,Left ,63,2362926158424 ,47,6781423120546 ,75,3067191641674
15.9570524 ,Left ,63,3025269951002 ,47,65500452349 ,75,3674658739694
15.9797065 ,Left ,63,331534076795 ,47,5920435231424 ,75,3964069132584
15.9948255 ,Left ,63,3447604449416 ,47,5377830465222 ,75,4027795065348
16.0169824 ,Left ,63,3134203039127 ,47,5243789935412 ,75,3983041063779
16.0469194 ,Left ,63,2657009701285 ,47,5158034131971 ,75,4203707001253
16.0617928 ,Left ,63,2889781110899 ,47,5103478552799 ,75,3806376081073
16.0995196 ,Left ,63,3971347026429 ,47,6925046433508 ,75,381639434715
16.114627 ,Left ,63,4671588767052 ,47,8533567248589 ,75,3966306418343
16.14459 ,Left ,63,6119800590156 ,47,894505136996 ,75,4154932602616
16.1670195 ,Left ,63,7263841366607 ,47,8532828906021 ,75,4341968929947
16.1819673 ,Left ,63,742306222712 ,47,8057255764829 ,75,4374599935111
16.1970266 ,Left ,63,5918356068198 ,47,8269015677444 ,75,4122027145355
16.2268634 ,Left ,63,5293832994952 ,47,8601337221015 ,75,361785446799
16.2419962 ,Left ,63,6372777989462 ,47,8452406613293 ,75,3308578605153
16.2645118 ,Left ,63,7122128604936 ,47,7992949890947 ,75,3428910272342
16.3095324 ,Left ,63,3795707658556 ,47,7254317337774 ,75,3400496637853
16.3319625 ,Left ,63,2717134270959 ,47,6763484600765 ,75,3698264847006
16.3468405 ,Left ,63,3436894552605 ,47,666433855722 ,75,4259089156041
16.3618632 ,Left ,63,3967083413034 ,47,747209666064 ,75,3902293448425
16.3768979 ,Left ,63,4389212289139 ,47,8847202538388 ,75,3253589121055
16.4073101 ,Left ,63,6080584572886 ,47,9308829621918 ,75,2928130960305
16.4225451 ,Left ,63,6864058739858 ,47,9131954358514 ,75,2742493586863
16.4448799 ,Left ,63,6537527502496 ,47,8951964474959 ,75,2471411277111
16.4598768 ,Left ,63,5790022860994 ,47,9034593267731 ,75,2131667638696
16.4749387 ,Left ,63,5397358064235 ,47,9171041073411 ,75,1749154272696
16.4973049 ,Left ,63,6025611822832 ,47,9317546423709 ,75,1620738001825
16.5198855 ,Left ,63,6808661498179 ,47,9224223529129 ,75,1464816263263
16.5347965 ,Left ,63,7391016417817 ,47,9103076261421 ,75,1344527174689
16.5573613 ,Left ,63,7111722381834 ,47,8996794017128 ,75,1309117500504
16.5797027 ,Left ,63,6359206514263 ,47,8996882535752 ,75,1311415627595
16.5949256 ,Left ,63,6097740900684 ,47,8855815012515 ,75,1092103274532
16.6175164 ,Left ,63,6449838097918 ,47,8504052330282 ,75,0747309403172
16.6397839 ,Left ,63,6538375494384 ,47,8112466102456 ,75,0311096884694
16.6547481 ,Left ,63,598137188625 ,47,7110885801532 ,75,0095179957104
16.6775156 ,Left ,63,5176583037015 ,47,6120220338546 ,75,0330918220727
16.6998614 ,Left ,63,491169992672 ,47,5773949293361 ,75,0782904765706
16.7149575 ,Left ,63,4777356973715 ,47,5133950428352 ,75,0799207425923
16.7375006 ,Left ,63,5393548548181 ,47,4046506524367 ,75,0744722019374
16.7598023 ,Left ,63,5519654583357 ,47,3675686407814 ,75,1218448234543
16.774751 ,Left ,63,4028836300412 ,47,4081251799622 ,75,1772002805788
16.7975464 ,Left ,63,4649906458422 ,47,4333124793312 ,75,1576808788433
16.8194707 ,Left ,63,5871277152728 ,47,3527764172815 ,75,1205727200998
16.842093 ,Left ,63,5679386421656 ,47,2870019914485 ,75,1605828528253
16.8641938 ,Left ,63,5943946126397 ,47,2740155150812 ,75,2134048307525
16.8871424 ,Left ,63,6259139698194 ,47,3038878691275 ,75,2084487197916
16.9171344 ,Left ,63,7325577141641 ,47,3228678605731 ,75,1563923265012
16.9394631 ,Left ,63,7646248833706 ,47,3117837765565 ,75,1614227151102
16.9618615 ,Left ,63,7654269140998 ,47,3260163051097 ,75,1831831659689
16.9771553 ,Left ,63,748144231951 ,47,3603805133301 ,75,1960578908458
16.9994382 ,Left ,63,7466891906212 ,47,3998719367158 ,75,2113926532063
17.0296382 ,Left ,63,7979243220708 ,47,3937256201949 ,75,2199381449753
17.044629 ,Left ,63,8616751744695 ,47,3660332939553 ,75,2345524754909
17.0674514 ,Left ,63,8825881120224 ,47,3477423539888 ,75,2454185021812
17.0823094 ,Left ,63,8440824995134 ,47,3517767442535 ,75,2505175399278
17.0973664 ,Left ,63,8291822551011 ,47,3687518424122 ,75,2576883664793
17.119689 ,Left ,63,8625213879075 ,47,394252280683 ,75,2524000551901
17.1496532 ,Left ,63,8781479630576 ,47,4141722888072 ,75,2410635424036
17.1648795 ,Left ,63,8574885128011 ,47,4244174957466 ,75,2272985929521
17.1951574 ,Left ,63,8298410224494 ,47,4210613017638 ,75,2146351490322
17.2100027 ,Left ,63,7852968016884 ,47,3988911434948 ,75,2071880058192
17.2248971 ,Left ,63,7780997951694 ,47,3768498039493 ,75,1894245819692
17.2548724 ,Left ,63,7158669493899 ,47,3277980154623 ,75,1578224867832
17.2698511 ,Left ,63,6703274098467 ,47,2317307203315 ,75,1190092944278
17.2846382 ,Left ,63,5586795400525 ,47,1385733300993 ,75,1224145404408
17.2997719 ,Left ,63,4185555804695 ,47,1331291680321 ,75,1685254490642
17.3224317 ,Left ,63,1770140066006 ,47,211655779973 ,75,1892242354083
17.3374825 ,Left ,63,08351520723 ,47,3551203290466 ,75,1564291198797
17.3673279 ,Left ,63,2261453064568 ,47,4924839884969 ,75,1665297888636
17.3899734 ,Left ,63,3481784134424 ,47,599637756132 ,75,2099041924798
17.4125535 ,Left ,63,4481820133411 ,47,6334267242188 ,75,2249081202538
17.4275852 ,Left ,63,4805613283716 ,47,5362251459593 ,75,237580938547
17.4496801 ,Left ,63,4453938357059 ,47,3860291014067 ,75,2550712566432
17.4647543 ,Left ,63,3974465961577 ,47,365127534724 ,75,2351256325231
17.4798985 ,Left ,63,3029277071905 ,47,3695788245554 ,75,1909317861702
17.5023779 ,Left ,63,3331647894982 ,47,3201641094078 ,75,1365929620684
17.517526 ,Left ,63,4723750052764 ,47,3425744229178 ,75,1445566602683
17.5398401 ,Left ,63,4823596862141 ,47,4811775018437 ,75,1670913725936
17.5624884 ,Left ,63,4502386375188 ,47,6460598914081 ,75,1737735880213
17.5849248 ,Left ,63,6296659686467 ,47,6890903145403 ,75,1674594249478
17.5998505 ,Left ,63,7555021178759 ,47,6565846310324 ,75,2243214335139
17.6225197 ,Left ,63,7698176770403 ,47,6795118615447 ,75,287263068153
17.6446484 ,Left ,63,5968073057891 ,47,7287322033391 ,75,3376242872338
17.6598715 ,Left ,63,5260378340723 ,47,7315097927246 ,75,3824357144751
17.6823426 ,Left ,63,4708149215293 ,47,6838620170324 ,75,3666979902907
17.7048196 ,Left ,63,4853357248623 ,47,6646321377201 ,75,3336465784942
17.7198363 ,Left ,63,4696343866989 ,47,6754163452578 ,75,337918544064
17.7421437 ,Left ,63,3603361612157 ,47,7722184697859 ,75,3219813460394
17.7649252 ,Left ,63,3750809118425 ,47,8629907997306 ,75,3001187013009
17.7799939 ,Left ,63,5463155115074 ,47,8838624696279 ,75,2742619490253
17.802217 ,Left ,63,6327489282137 ,47,8825924112446 ,75,2581041132126
17.8248622 ,Left ,63,6137533086067 ,47,9023824191107 ,75,2394242037225
17.8397888 ,Left ,63,5474093440349 ,47,9218668226328 ,75,2206309805135
17.8625003 ,Left ,63,56155856696 ,47,9280569247012 ,75,1938790300661
17.8848801 ,Left ,63,6485829078298 ,47,9100025027112 ,75,1596108093884
17.8997964 ,Left ,63,688156835678 ,47,8791184642671 ,75,1254518474485
17.9296642 ,Left ,63,6379880857944 ,47,8754087169478 ,75,1037314189491
17.9518054 ,Left ,63,5518345673947 ,47,8867430209238 ,75,0866511081759
17.9671234 ,Left ,63,5581266183123 ,47,8669531646876 ,75,0586756034441
17.9819557 ,Left ,63,4894234051712 ,47,7784199596387 ,75,0779193943606
18.0043917 ,Left ,63,5105345408015 ,47,6986565407916 ,75,1362733326258
18.0195381 ,Left ,63,4857518299634 ,47,675664446553 ,75,1800185783135
18.0422239 ,Left ,63,4571498642923 ,47,6134776984203 ,75,1793008601955
18.0650932 ,Left ,63,5127304077644 ,47,4670711430657 ,75,160358281624
18.0800639 ,Left ,63,5042644187097 ,47,36480533531 ,75,2096060494888
18.1023428 ,Left ,63,392716393553 ,47,36495224876 ,75,26437454527
18.1246743 ,Left ,63,482600533297 ,47,3598221660988 ,75,2401928480413
18.1395771 ,Left ,63,519939418599 ,47,293444012757 ,75,2487324123707
18.1695704 ,Left ,63,5943666600472 ,47,2736789219848 ,75,2954162516418
18.1920192 ,Left ,63,6102194300022 ,47,3446643804413 ,75,3133025902278
18.2068908 ,Left ,63,6541795523457 ,47,4144158572005 ,75,2848481212031
18.2294315 ,Left ,63,7492589634543 ,47,401930476441 ,75,2444459940062
18.2446151 ,Left ,63,820547562591 ,47,3590209489244 ,75,2213951712621
18.2595612 ,Left ,63,8036201873942 ,47,3506149748344 ,75,2242215042322
18.2895347 ,Left ,63,7548110558688 ,47,3904897558946 ,75,2078185755819
18.3119902 ,Left ,63,768468608857 ,47,4312840387766 ,75,194252924667
18.3271131 ,Left ,63,8429715058284 ,47,4358885766608 ,75,1941827942425
18.3498667 ,Left ,63,9137100492711 ,47,3963139449176 ,75,200718795788
18.3648701 ,Left ,63,9390685960881 ,47,3672123069118 ,75,2024222341142
18.3797678 ,Left ,63,873867039407 ,47,3521411920646 ,75,2050662291652
18.4024791 ,Left ,63,8468912230648 ,47,3496632559838 ,75,1996694036943
18.424674 ,Left ,63,8996298132129 ,47,3418137053793 ,75,192224460345
18.439716 ,Left ,63,9417685384888 ,47,3437849925561 ,75,1812188786381
18.4622707 ,Left ,63,9154038895445 ,47,357435567421 ,75,1763347730381
18.4848134 ,Left ,63,8652151602693 ,47,3612572224787 ,75,1765378339311
18.5071764 ,Left ,63,821547941254 ,47,3429446782568 ,75,1772931424601
18.5224604 ,Left ,63,8137646127357 ,47,2998304857834 ,75,1794220238914
18.5448064 ,Left ,63,818824459832 ,47,2850213235463 ,75,1818287772852
18.5823397 ,Left ,63,7559778566724 ,47,2549839729278 ,75,1802626817887
18.5974126 ,Left ,63,662005587091 ,47,1675751298912 ,75,1825130191198
18.6274273 ,Left ,63,4803095967625 ,46,9707820981698 ,75,2205099192603
18.6424514 ,Left ,63,3542583303139 ,47,0840654712016 ,75,230800643525
18.664792 ,Left ,63,2631203487184 ,47,2978557466612 ,75,2278388403079
18.6870675 ,Left ,63,3176074208814 ,47,456814294544 ,75,2288073985324
18.7021342 ,Left ,63,4956227388158 ,47,4993570954994 ,75,2104417932411
18.7319427 ,Left ,63,6486190165209 ,47,4683358806432 ,75,2209849478015
18.7544219 ,Left ,63,5612493389263 ,47,4423866053178 ,75,2428633239615
18.7694972 ,Left ,63,2872681992272 ,47,4085773773116 ,75,2115852870327
18.7847745 ,Left ,63,2683025018029 ,47,429729521286 ,75,1716438013535
18.8068484 ,Left ,63,357081075615 ,47,4952857075122 ,75,2053893937003
18.8221494 ,Left ,63,4203188366122 ,47,6359230709448 ,75,1957478334551
18.8445554 ,Left ,63,5076427209255 ,47,6930150278409 ,75,182987114652
18.8675008 ,Left ,63,5819011226399 ,47,6214533953338 ,75,1876617306016
18.8823697 ,Left ,63,5866651629021 ,47,5756532367041 ,75,197178852293
18.9047762 ,Left ,63,3855429629385 ,47,609053197661 ,75,1844379032547
18.927345 ,Left ,63,2644998788587 ,47,5782933568152 ,75,1792911204933
18.9424466 ,Left ,63,3875796254134 ,47,5249062786946 ,75,1498241266542
18.9647762 ,Left ,63,4868463731223 ,47,5726942836042 ,75,1755681553227
18.9873083 ,Left ,63,5224982615592 ,47,6263431107449 ,75,1602882096958
19.0024769 ,Left ,63,4906229215605 ,47,6229140861319 ,75,168097864206
19.0248552 ,Left ,63,5719512942825 ,47,60774930581 ,75,1816339676083
19.0476368 ,Left ,63,5657908858694 ,47,6593475156248 ,75,2247453667881
19.0622863 ,Left ,63,4799123419864 ,47,7407037575387 ,75,2759741034846
19.0849233 ,Left ,63,4334364282075 ,47,7739038314695 ,75,3270702468866
19.1075525 ,Left ,63,4082007976735 ,47,7740307654656 ,75,2951146230444
19.1224339 ,Left ,63,5254670277569 ,47,7870769056552 ,75,3030315905372
19.1448049 ,Left ,63,4998261796999 ,47,8143290990132 ,75,3190055194272
19.1674561 ,Left ,63,45564546498 ,47,9305247929884 ,75,2901314315987
19.1823628 ,Left ,63,5415602152218 ,47,9926831580483 ,75,2684364591253
19.2047973 ,Left ,63,6039008729287 ,48,0103166476636 ,75,2541689992214
19.234659 ,Left ,63,6170259080403 ,48,0187797537056 ,75,2346989971928
19.2493269 ,Left ,63,5513946211603 ,48,0197206084221 ,75,2176056661635
19.2719407 ,Left ,63,5285721394018 ,48,0379042838214 ,75,1933843811145
19.2870533 ,Left ,63,5969348436948 ,48,0700721445153 ,75,16602089105
19.3022953 ,Left ,63,6936948383554 ,48,0899004822444 ,75,1476048995835
19.3248266 ,Left ,63,7225968771049 ,48,1072346967069 ,75,1296361138446
19.3472208 ,Left ,63,7122979688099 ,48,1192649670426 ,75,1208506980925
19.3623284 ,Left ,63,6748171520386 ,48,1300418663166 ,75,1097500875679
19.384675 ,Left ,63,6455026503787 ,48,1300858065678 ,75,0915081541181
19.4071514 ,Left ,63,6457650156999 ,48,1193216879432 ,75,0653917671224
19.4223581 ,Left ,63,6301852681378 ,48,0930346389584 ,75,0386482870608
19.4522645 ,Left ,63,6184944595167 ,48,0521368517726 ,74,9956953320688
19.4673179 ,Left ,63,5647747615818 ,47,9420519319265 ,74,988662955801
19.4970038 ,Left ,63,4506280140146 ,47,8135567488021 ,75,032743494958
19.5122556 ,Left ,63,3591645743467 ,47,6912340044768 ,75,1050971011487
19.5272452 ,Left ,63,2205395783765 ,47,6035322945712 ,75,1124589568489
19.5721537 ,Left ,63,2180832127113 ,47,4372257946982 ,75,1683633080911
19.5870236 ,Left ,63,2037720709099 ,47,5530901583147 ,75,2185113784719
19.6246992 ,Left ,63,351491738042 ,47,3795212847761 ,75,2255961199729
19.6398378 ,Left ,63,4623298006274 ,47,4199056571326 ,75,2426661312286
19.6619202 ,Left ,63,4618159023117 ,47,4575652184191 ,75,272799833828
19.6917374 ,Left ,63,5050858987135 ,47,4786882049629 ,75,247620048679
19.7071144 ,Left ,63,613296349895 ,47,4765503380299 ,75,2068089429377
19.7446507 ,Left ,63,6863913122628 ,47,4365351432629 ,75,1820370955561
19.7597145 ,Left ,63,6596782109667 ,47,4643582259381 ,75,1793660834421
19.7822146 ,Left ,63,6997441290831 ,47,62536079696 ,75,1803012475117
19.8047063 ,Left ,63,8610208768541 ,47,6777497933659 ,75,159204487267
19.819869 ,Left ,63,8342785152941 ,47,763526973456 ,75,182921422275
19.8571728 ,Left ,63,8419861588062 ,47,7677886770986 ,75,2065248813897
19.8794732 ,Left ,63,8250493214203 ,47,7593813998293 ,75,2090061488566
19.9244059 ,Left ,63,8226027710116 ,47,7798434714247 ,75,1910994792534
19.9394824 ,Left ,63,8241420625032 ,47,789567969396 ,75,1862579439769
19.9698057 ,Left ,63,7953835016884 ,47,7890461735846 ,75,1867167107194
19.9921347 ,Left ,63,7725581778067 ,47,7866511264567 ,75,1829996545124
20.0076528 ,Left ,63,7556851785813 ,47,7484146219457 ,75,1824847495375
20.0295305 ,Left ,63,7090383130355 ,47,6990220223607 ,75,1751906363933
20.052207 ,Left ,63,6761904697393 ,47,6555904882467 ,75,163564371113
20.0673618 ,Left ,63,5781798817406 ,47,6019010221915 ,75,1408247063713
20.0898056 ,Left ,63,4288449359773 ,47,4889429165766 ,75,1145591705018
20.1196511 ,Left ,63,4238900609318 ,47,4065389275495 ,75,1376568529617
20.1423103 ,Left ,63,2705669318563 ,47,4122627731371 ,75,1661338531966
20.1573169 ,Left ,63,0684311241056 ,47,5006263464585 ,75,1166837326633
20.1870472 ,Left ,63,2793902660716 ,47,6206399996966 ,75,0415310077824
20.2018075 ,Left ,63,3212142342959 ,47,6709947730745 ,75,0515200933829
20.2244181 ,Left ,63,2391202321982 ,47,696041334706 ,75,0484246728349
20.2471423 ,Left ,63,2185926781507 ,47,7446660405562 ,75,0869765466714
20.2697153 ,Left ,63,2946774645566 ,47,7529178798723 ,75,1571707997818
20.3075104 ,Left ,63,5458599437416 ,47,668114960549 ,75,160425469205
20.3298133 ,Left ,63,6130103420641 ,47,585922539261 ,75,1263604423291
20.3597075 ,Left ,63,5478782183048 ,47,5457429582654 ,75,1197684284415
20.3748648 ,Left ,63,4555862968748 ,47,5422624332603 ,75,1260835045371
20.3973 ,Left ,63,3534492427958 ,47,4966139603159 ,75,0945026057807
20.4196958 ,Left ,63,4505686702995 ,47,5212780020728 ,75,0785522324584
20.4346364 ,Left ,63,5211288377698 ,47,6011278950436 ,75,1337855289945
20.4873142 ,Left ,63,6448749946033 ,47,7505112860769 ,75,1604185068073
20.5021495 ,Left ,63,7134989474909 ,47,7441979381536 ,75,182359328813
20.5320477 ,Left ,63,6429309946891 ,47,8544533435835 ,75,2450306722695
20.5472388 ,Left ,63,6303003213418 ,47,876287739066 ,75,267600454556
20.5696202 ,Left ,63,5326044663903 ,47,8625034369926 ,75,2631428669571
20.5848506 ,Left ,63,4763995013177 ,47,8128832724268 ,75,2176306870895
20.6074028 ,Left ,63,4517498696673 ,47,7870813358578 ,75,2764239834452
20.6297376 ,Left ,63,389619286203 ,47,8390369137584 ,75,2874727587934
20.6521204 ,Left ,63,4081286548696 ,47,978699266444 ,75,2527723556053
20.6673977 ,Left ,63,5403876151681 ,48,0537787634185 ,75,2363049705991
20.6897867 ,Left ,63,7000106010595 ,48,0832175917832 ,75,2390307209484
20.7121872 ,Left ,63,7163278384204 ,48,0931556275504 ,75,2465237341409
20.7274195 ,Left ,63,6100140306153 ,48,1341000702404 ,75,2377939599332
20.7498508 ,Left ,63,5476964835379 ,48,181879826573 ,75,2192914657003
20.7720949 ,Left ,63,5874824924881 ,48,1874140904881 ,75,1965828767931
20.787409 ,Left ,63,6744392091882 ,48,1515114275244 ,75,1621042498957
20.809722 ,Left ,63,6870216242823 ,48,1228807272253 ,75,1339216542111
20.8397652 ,Left ,63,6067224083834 ,48,1105265565296 ,75,0983588944922
20.8549031 ,Left ,63,539762280599 ,48,0979483827851 ,75,0567593102277
20.8768808 ,Left ,63,5224079456655 ,48,0658681512039 ,75,0087650626974
20.8918308 ,Left ,63,5686488850293 ,48,0018351674918 ,74,9736688546199
20.9069206 ,Left ,63,3975015626853 ,47,8850954278073 ,75,0086335486519
20.9297069 ,Left ,63,3376047532767 ,47,8050416388784 ,75,0845718045932
20.9526306 ,Left ,63,2932602488682 ,47,7862879676296 ,75,1473354758577
20.9679092 ,Left ,63,3721832674381 ,47,730581621284 ,75,1569540395269
20.9899456 ,Left ,63,4545220492638 ,47,5800681151249 ,75,1464580317098
21.0126447 ,Left ,63,442543390306 ,47,503118939663 ,75,1940972961503
21.0276516 ,Left ,63,3468734213256 ,47,5399481779783 ,75,2246706807491
21.0574797 ,Left ,63,4070030095285 ,47,524819018172 ,75,1919748619742
21.0801558 ,Left ,63,4666129080552 ,47,4213341703125 ,75,1849871670714
21.0948762 ,Left ,63,4993883372465 ,47,3814407044799 ,75,2106875244556
21.1173028 ,Left ,63,5478727431025 ,47,3995040653129 ,75,2148793659972
21.1318595 ,Left ,63,6328595479431 ,47,3826297445498 ,75,1845612836221
21.16192 ,Left ,63,7381362693546 ,47,2975048031889 ,75,155017824844
21.184522 ,Left ,63,7269658930197 ,47,2874035104102 ,75,1687035463693
21.214559 ,Left ,63,7188956984099 ,47,3082809426444 ,75,1832468191168
21.2372518 ,Left ,63,7655435105888 ,47,3119574773189 ,75,187277135831
21.2595172 ,Left ,63,8411126790365 ,47,2953712019387 ,75,1952976967783
21.2745274 ,Left ,63,8765792555378 ,47,2725353145736 ,75,2063825538143
21.3046509 ,Left ,63,8362273372011 ,47,2674584067788 ,75,2139967286482
21.3272187 ,Left ,63,797297397559 ,47,2862084539399 ,75,2125127410994
21.341957 ,Left ,63,8062731016089 ,47,3222392895915 ,75,2074283843424
21.3571073 ,Left ,63,8204427735957 ,47,3676555600759 ,75,1993598255651
21.3796013 ,Left ,63,8224040863912 ,47,4167955135037 ,75,1911150614062
21.3948486 ,Left ,63,7919270262157 ,47,44986473457 ,75,1821952725855
21.4250083 ,Left ,63,7573821521706 ,47,466887273787 ,75,1717832734824
21.4474328 ,Left ,63,7158727462972 ,47,4495622762101 ,75,1672827981946
21.477369 ,Left ,63,6799281635605 ,47,4220600137513 ,75,1547815270989
21.4922745 ,Left ,63,6462292313495 ,47,3789370850235 ,75,1314863360633
21.5299203 ,Left ,63,5646531240705 ,47,1646895243952 ,75,0775918752114
21.5449765 ,Left ,63,420392057785 ,46,9885267835676 ,75,1062248931484
21.5819445 ,Left ,62,9793243359293 ,46,8860573070515 ,75,1877520679374
21.5970619 ,Left ,62,9176387688163 ,47,1662228227794 ,75,1473793441737
21.6198713 ,Left ,63,0384907328413 ,47,205322627601 ,75,1638769324734
21.6425968 ,Left ,63,3862706535253 ,47,239321388699 ,75,1674293264178
21.6575322 ,Left ,63,4906587115907 ,47,3815825438395 ,75,1634124544825
21.6801808 ,Left ,63,3654958131005 ,47,3727193438898 ,75,1813116475974
21.7029453 ,Left ,63,2499077382322 ,47,1968733525813 ,75,204767776933
21.7178056 ,Left ,63,1764697695065 ,47,0030071504236 ,75,1953896403521
21.7401036 ,Left ,63,2799657964031 ,46,9415354957517 ,75,1893059315629
21.7624587 ,Left ,63,4868576549862 ,47,117786061457 ,75,1887700869254
21.7773076 ,Left ,63,6037333464472 ,47,500306514016 ,75,1618374318217
21.7999915 ,Left ,63,7535015875534 ,47,8448949203147 ,75,1543861367444
21.8225554 ,Left ,63,8687976407942 ,48,0318999453495 ,75,1813128895533
21.8375708 ,Left ,63,8931852553677 ,48,1661801856801 ,75,2291591214255
21.8597774 ,Left ,63,8638609118262 ,48,1244452178476 ,75,2303957744775
21.8824283 ,Left ,63,6783828632824 ,48,1278706269303 ,75,2666638983624
21.8975085 ,Left ,63,741551221607 ,48,081553236394 ,75,3122077496059
21.9277015 ,Left ,63,6920164746001 ,47,9978053533402 ,75,2852452572565
21.9499847 ,Left ,63,6584340244258 ,47,9614254961313 ,75,2784996954016
21.9572295 ,Left ,63,5930056280542 ,47,9533528410646 ,75,3304884362341
21.9799187 ,Left ,63,5554233180581 ,48,0482842571785 ,75,3246824634369
22.0024824 ,Left ,63,6345216185583 ,48,1241174429279 ,75,2909473596951
22.0175606 ,Left ,63,7686932555447 ,48,1086855612504 ,75,2811721817604
22.0399067 ,Left ,63,8349053471408 ,48,0803181549682 ,75,2753026928917
22.0622976 ,Left ,63,7889095710486 ,48,0775950818792 ,75,2548997743965
22.07722 ,Left ,63,7075297093389 ,48,0702306636642 ,75,2210044165282
22.0999808 ,Left ,63,726412759612 ,48,0622680336908 ,75,1878401422389
22.1225031 ,Left ,63,8156699231298 ,48,0288507090682 ,75,1517693606207
22.1449451 ,Left ,63,8758134976372 ,47,9965295453385 ,75,1257946594351
22.1823987 ,Left ,63,7230789482588 ,48,0055403649299 ,75,0910821756363
22.2050246 ,Left ,63,6844532407242 ,47,9971963759614 ,75,0782929384111
22.2425403 ,Left ,63,5919523008488 ,47,8710461725586 ,75,1867299105212
22.2647223 ,Left ,63,596453732702 ,47,8429540125033 ,75,1903436627657
22.3020965 ,Left ,63,6855520624609 ,47,6342884620609 ,75,1933575280985
22.3245954 ,Left ,63,555068171039 ,47,6667999252733 ,75,2263780129194
22.3628663 ,Left ,63,7736130622911 ,47,6790029717188 ,75,1742832593464
22.3851215 ,Left ,63,7902026518961 ,47,5930837236259 ,75,1877888954528
22.4295186 ,Left ,63,7661943606201 ,47,5913258603321 ,75,2500156328594
22.4819708 ,Left ,63,97330666789 ,47,5245459534661 ,75,1844923579471
22.5046597 ,Left ,63,9460032949226 ,47,5093452307521 ,75,1863793551453
22.5422793 ,Left ,63,9154378213699 ,47,5181531485738 ,75,1676585042268
22.5647156 ,Left ,63,9608402926601 ,47,5266206266818 ,75,1644914784623
22.6022096 ,Left ,64,0497798074089 ,47,4915355765567 ,75,1578614965128
22.639723 ,Left ,64,0080030344932 ,47,4895605600043 ,75,1462403111944
22.6847512 ,Left ,63,9558618406002 ,47,4996889367797 ,75,1258481212454
22.7225254 ,Left ,63,9295848245901 ,47,4950033179546 ,75,1352928757433
22.7446949 ,Left ,63,8839181993958 ,47,4664168503117 ,75,1406061548337
22.7822642 ,Left ,63,7843898716988 ,47,4103419241961 ,75,1602755007477
22.8048886 ,Left ,63,6712549808694 ,47,3750127569872 ,75,1649142512203
22.8423569 ,Left ,63,6059658003694 ,47,1840477887175 ,75,1835432597029
22.8648978 ,Left ,63,539378350176 ,47,1995329338316 ,75,2172960842569
22.9024565 ,Left ,63,3362212727463 ,47,3701410817624 ,75,1940955199156
22.9249209 ,Left ,63,5205656221398 ,47,3629604822256 ,75,1831985254779
22.962528 ,Left ,63,5932608127316 ,47,3939581828603 ,75,2238448791733
22.9849512 ,Left ,63,3856441372048 ,47,4103081572901 ,75,1840160353665
23.0224916 ,Left ,63,4976893870723 ,47,3235148296322 ,75,1944862247093
23.0445881 ,Left ,63,5566175417666 ,47,348497733058 ,75,2237947239386
23.0819494 ,Left ,63,6729831024728 ,47,4024061372133 ,75,2431471497786
23.1046563 ,Left ,63,6929508037432 ,47,4168869543954 ,75,2404852290903
23.1346095 ,Left ,63,5698283018078 ,47,4907816673041 ,75,252262844952
23.1723513 ,Left ,63,4551507197785 ,47,494461228629 ,75,2084418564933
23.1873577 ,Left ,63,5134724040993 ,47,5036087590208 ,75,1967505635866
23.2243922 ,Left ,63,5225482066696 ,47,5285083804533 ,75,1878163321923
23.2698201 ,Left ,63,6745087917094 ,47,5021744699679 ,75,1524102227938
23.2848158 ,Left ,63,6136473789857 ,47,5572558220702 ,75,1690359824777
23.3219098 ,Left ,63,5113684583125 ,47,6230435939064 ,75,2994411170799
23.3443809 ,Left ,63,5639069714365 ,47,5875021205036 ,75,3000552357441
23.3820726 ,Left ,63,4771075399617 ,47,5947687496582 ,75,3414174077592
23.4046627 ,Left ,63,3756011667209 ,47,7304672165481 ,75,3249580378153
23.4272623 ,Left ,63,4581178633745 ,47,8066539676694 ,75,2896841251601
23.4723841 ,Left ,63,6430273980812 ,47,7828273039231 ,75,2227744878202
23.4945003 ,Left ,63,5761222894929 ,47,7951844866542 ,75,1975812268922
23.524556 ,Left ,63,5241225013145 ,47,8144868723342 ,75,1369042173087
23.5620044 ,Left ,63,6700906473128 ,47,7709846694601 ,75,0938982392675
23.5920944 ,Left ,63,5949155624253 ,47,7830621132065 ,75,1030037088236
23.6527325 ,Left ,63,5020319366655 ,47,6982727239134 ,75,1236204542979
23.7126552 ,Left ,63,4450369566374 ,47,5359049459003 ,75,1638338127109
23.7800088 ,Left ,63,472509690362 ,47,4650700601126 ,75,232226447052
23.795025 ,Left ,63,5733130124626 ,47,462994953733 ,75,2204875325513
23.8249989 ,Left ,63,5932716025876 ,47,4368486940918 ,75,2819084400238
23.847707 ,Left ,63,6027088094606 ,47,483628912212 ,75,28153001548
23.8919482 ,Left ,63,7883485540213 ,47,4134427815914 ,75,2175398271444
23.9218685 ,Left ,63,7976930967156 ,47,3463690204322 ,75,2043108108321
23.9667111 ,Left ,63,792940885922 ,47,3094307248795 ,75,1906420371982
24.0045842 ,Left ,63,9212140208033 ,47,3094356569553 ,75,1848002133683
24.0271555 ,Left ,63,9388076987585 ,47,2810256862169 ,75,1809873313738
24.0724592 ,Left ,63,886321462196 ,47,245695374584 ,75,1711692532839
24.0949775 ,Left ,63,8628776895697 ,47,2642576660145 ,75,1692133581104
24.147628 ,Left ,63,8741219291416 ,47,296235043249 ,75,1642354748426
24.1921407 ,Left ,63,7702340592542 ,47,2777585110317 ,75,1981397301398
24.2150963 ,Left ,63,7164042174064 ,47,2934225966452 ,75,1988781037165
24.2448582 ,Left ,63,7080948047162 ,47,1009985502235 ,75,1466504689315
24.2751172 ,Left ,63,6565897913307 ,46,9671799780968 ,75,1653054362834
24.3128143 ,Left ,63,3451221928732 ,47,0700201916454 ,75,2190907368057
24.3278887 ,Left ,63,1867686653606 ,47,2426999650376 ,75,2071792245154
24.3647528 ,Left ,63,3610232253273 ,47,4112223831063 ,75,1338770248835
24.3872912 ,Left ,63,3920174239236 ,47,4266848107399 ,75,1329550443363
24.425016 ,Left ,63,3477570957592 ,47,4398619745335 ,75,1962172932259
24.4474882 ,Left ,63,4196379650691 ,47,3837960520836 ,75,2598415758323
24.4850298 ,Left ,63,6069552322993 ,47,2659515030335 ,75,2339943489739
24.5076437 ,Left ,63,6456199830625 ,47,2794605226727 ,75,2003786145303
24.5449812 ,Left ,63,4657877276741 ,47,3167230554531 ,75,2525347285128
24.5674707 ,Left ,63,4911731829034 ,47,3738221797635 ,75,2175118614169
24.6048942 ,Left ,63,6040083554573 ,47,6128795088262 ,75,2566448915175
24.6272995 ,Left ,63,6929810680461 ,47,6581556048063 ,75,222058465145
24.6648776 ,Left ,63,790178555936 ,47,599797277811 ,75,2254234854261
24.6873985 ,Left ,63,6379244214198 ,47,6765240472208 ,75,2508722572199
24.7172058 ,Left ,63,4638831470309 ,47,6787893954841 ,75,2674566996571
24.7400352 ,Left ,63,4125803330081 ,47,6779316105964 ,75,2276665711659
24.7625561 ,Left ,63,4127787770446 ,47,698057627696 ,75,2797847661723
24.7774339 ,Left ,63,3738125182617 ,47,7831722734373 ,75,2880587819401
24.7998865 ,Left ,63,4299194800584 ,47,8897314086382 ,75,2513889231362
24.8299399 ,Left ,63,5686287075364 ,47,9242107962958 ,75,2206886685753
24.8447687 ,Left ,63,6248037758397 ,47,9206381887082 ,75,1980339576801
24.8673162 ,Left ,63,6079989584283 ,47,9112851880907 ,75,1721715243719
24.8977999 ,Left ,63,4600768647269 ,47,9131169740758 ,75,1035413552093
24.9200252 ,Left ,63,5526891678264 ,47,8752371471501 ,75,063227605094
24.942564 ,Left ,63,5718134963668 ,47,8180988407087 ,75,051232871641
24.9576425 ,Left ,63,4993842708206 ,47,8076234131446 ,75,052711152885
24.9798153 ,Left ,63,4515361700807 ,47,7762294552185 ,75,0430231813927
25.0025297 ,Left ,63,3342504727447 ,47,6723115551229 ,75,0818914131833
25.0173829 ,Left ,63,3754200581918 ,47,5801398533995 ,75,1285703369903
25.0397652 ,Left ,63,3922563543196 ,47,5314813295429 ,75,1447488998523
25.0625441 ,Left ,63,4368536762747 ,47,4408150855457 ,75,1305891668111
25.0775072 ,Left ,63,4675757154171 ,47,3111941057671 ,75,1652315557717
25.0998933 ,Left ,63,3515142987487 ,47,2829011520519 ,75,2590937507825
25.1222968 ,Left ,63,3373882954277 ,47,3308578984344 ,75,2683431853477
25.1448682 ,Left ,63,3801557200846 ,47,3680734448171 ,75,2481788289718
25.1599393 ,Left ,63,4515749317795 ,47,3927716867344 ,75,2695778824285
25.1824375 ,Left ,63,4678391181943 ,47,4908403809375 ,75,3065769012523
25.2048486 ,Left ,63,5315729476124 ,47,5346740625481 ,75,282577003106
25.2194191 ,Left ,63,6457021406684 ,47,4976803438135 ,75,2501829787314
25.2420634 ,Left ,63,6740812324082 ,47,4622919922776 ,75,2286943996444
25.2571195 ,Left ,63,6404217181558 ,47,4333146418254 ,75,2260450842982
25.2796324 ,Left ,63,6640892148507 ,47,3749572194859 ,75,2350639706625
25.3019069 ,Left ,63,6982103954584 ,47,3300351482487 ,75,2438154243112
25.3171178 ,Left ,63,7070029914551 ,47,3423009693581 ,75,2425695554481
25.3396085 ,Left ,63,7122508822722 ,47,3639240903 ,75,224537684434
25.3622813 ,Left ,63,7683286480866 ,47,3807818699232 ,75,2186159965008
25.3844051 ,Left ,63,817375805268 ,47,377369104116 ,75,2147021994416
25.3996614 ,Left ,63,8516254453962 ,47,3665717681857 ,75,2083612610812
25.4220979 ,Left ,63,845683584139 ,47,3677684468421 ,75,2064175305091
25.4446807 ,Left ,63,8141413284506 ,47,3805721141285 ,75,1986337128252
25.4595806 ,Left ,63,7834382974623 ,47,4002775430573 ,75,1911381318921
25.4819588 ,Left ,63,7885885481505 ,47,4073881766752 ,75,1861256191925
25.5045155 ,Left ,63,804464373374 ,47,4088240841438 ,75,1902851055096
25.5196226 ,Left ,63,8108903734219 ,47,3843517350003 ,75,2048393591102
25.5422857 ,Left ,63,7992827028241 ,47,337196718225 ,75,2076670122757
25.564786 ,Left ,63,7730606585907 ,47,2911630487189 ,75,2110541590479
25.5799743 ,Left ,63,7228062986739 ,47,2512307785552 ,75,2105639550298
25.60247 ,Left ,63,6797114685644 ,47,2218983841434 ,75,1847988505234
25.6244659 ,Left ,63,6124992939141 ,47,1710832729139 ,75,1522703973454
25.6394136 ,Left ,63,571812619199 ,47,0427031058388 ,75,135628556707
25.6622108 ,Left ,63,5659425813241 ,46,9519689817236 ,75,1854931495033
25.6847438 ,Left ,63,4612808549427 ,47,0107917266104 ,75,2312778024914
25.7000444 ,Left ,63,2837722466403 ,47,1589973159704 ,75,2288588285212
25.7224595 ,Left ,63,322694465062 ,47,2808347201186 ,75,222192322379
25.7449089 ,Left ,63,5524688046694 ,47,3227652640284 ,75,2151532285928
25.7601053 ,Left ,63,6747403171567 ,47,3456233644664 ,75,2248573753011
25.7822409 ,Left ,63,5538074495846 ,47,3613856262668 ,75,2560522814532
25.8043624 ,Left ,63,4083307716089 ,47,3349287282115 ,75,2116879252568
25.8195575 ,Left ,63,4191273190465 ,47,3273527714517 ,75,193971243096
25.8421037 ,Left ,63,4515360345933 ,47,3146805914868 ,75,26203551391
25.8645736 ,Left ,63,5117148158159 ,47,336576661264 ,75,2778514829646
25.8874291 ,Left ,63,5732709806439 ,47,3010635034419 ,75,2758762133732
25.9100097 ,Left ,63,6840550789959 ,47,2894907311843 ,75,247864439066
25.9325748 ,Left ,63,5370711151034 ,47,3304209673878 ,75,253270543517
25.9475329 ,Left ,63,4151843388785 ,47,3203362309527 ,75,2596927672977
25.9624192 ,Left ,63,4350534540788 ,47,3187038901392 ,75,2252532156219
25.9848905 ,Left ,63,5274500478814 ,47,3434468475176 ,75,2515467778289
26.0071453 ,Left ,63,5462781273101 ,47,405341289758 ,75,2603343811068
26.0224343 ,Left ,63,6035902805296 ,47,4118497667878 ,75,2601581501732
26.0446701 ,Left ,63,6648058249313 ,47,3673753262158 ,75,2482728829995
26.0598091 ,Left ,63,660775687299 ,47,3720694653831 ,75,2580950777174
26.0822919 ,Left ,63,5484040861564 ,47,4296829058035 ,75,2992830708464
26.1043164 ,Left ,63,5026606703226 ,47,4921055373094 ,75,3432135704895
26.1270649 ,Left ,63,4663085206759 ,47,5118705002032 ,75,336463026228
26.1423678 ,Left ,63,483111080794 ,47,5168076541608 ,75,2941727446688
26.1648858 ,Left ,63,4786344854953 ,47,5325378637657 ,75,3461808557314
26.1876479 ,Left ,63,3901765083999 ,47,6251780510562 ,75,3468360395309
26.202655 ,Left ,63,4634495712105 ,47,7342977344049 ,75,2983877051456
26.22519 ,Left ,63,6237912714672 ,47,7378556036143 ,75,2568833508752
26.2479543 ,Left ,63,6707219716921 ,47,7240250209629 ,75,2359670619624
26.2696655 ,Left ,63,6251022969417 ,47,7491371101358 ,75,2084414173247
26.2923828 ,Left ,63,5189795084644 ,47,7864012378663 ,75,1712764276747
26.3146327 ,Left ,63,486121270514 ,47,8176416948714 ,75,1356924836967
26.3295898 ,Left ,63,5789066625286 ,47,8102429580195 ,75,1042739698557
26.3444951 ,Left ,63,6423323912357 ,47,7747459041466 ,75,0779243226772
26.3669886 ,Left ,63,5934234287381 ,47,762024812004 ,75,0659417949214
26.3902041 ,Left ,63,5060854772566 ,47,7720827919277 ,75,0570646346474
26.4124553 ,Left ,63,5437692732562 ,47,7585539434653 ,75,0286998758559
26.4427306 ,Left ,63,5190708524827 ,47,4979238263201 ,75,0646213340508
26.4650999 ,Left ,63,4371652799397 ,47,4401466834816 ,75,1332113493752
26.4875799 ,Left ,63,4134481995209 ,47,4078946942932 ,75,1561036224859
26.5026117 ,Left ,63,5094156486853 ,47,2971756345712 ,75,13824506387
26.5250693 ,Left ,63,5779325741245 ,47,1947720805275 ,75,173388594257
26.5474996 ,Left ,63,4760342958797 ,47,2393538929714 ,75,2363837462562
26.5627239 ,Left ,63,4897373503622 ,47,3208340705934 ,75,2218546055855
26.584854 ,Left ,63,6184218682634 ,47,2782823306038 ,75,1988514961936
26.6071255 ,Left ,63,6569139252169 ,47,2005932755904 ,75,2222687284592
26.6219387 ,Left ,63,6749205620592 ,47,1744644188006 ,75,2221367985332
26.6445532 ,Left ,63,6766214925322 ,47,1664853580029 ,75,1819437509415
26.6671537 ,Left ,63,7148466214901 ,47,1506083441473 ,75,1334557704655
26.6823269 ,Left ,63,7651323823629 ,47,1202093444834 ,75,1125533101611
26.7049512 ,Left ,63,7580898359998 ,47,1035759098184 ,75,1129727937782
26.7279156 ,Left ,63,7504471846536 ,47,120567129233 ,75,1229329152251
26.7426996 ,Left ,63,7363547074872 ,47,1590146671487 ,75,1260764404465
26.7651473 ,Left ,63,7741070005897 ,47,2083257793772 ,75,1280003404265
26.7875476 ,Left ,63,8308314017856 ,47,2311292184649 ,75,1247176351997
26.8027326 ,Left ,63,8692569268032 ,47,2382791992486 ,75,1232661219532
26.8250122 ,Left ,63,8600433438722 ,47,2529536247886 ,75,1189439101415
26.8478493 ,Left ,63,8167861627726 ,47,2580796012826 ,75,1170236855488
26.8624388 ,Left ,63,8101100412614 ,47,2790239519822 ,75,1191417799548
26.8850825 ,Left ,63,8144496913031 ,47,2992264226684 ,75,1188808283213
26.9073397 ,Left ,63,8358264561367 ,47,311246432885 ,75,1260977150713
26.922334 ,Left ,63,8255926202702 ,47,3214122540688 ,75,1385117940982
26.944642 ,Left ,63,8227377271668 ,47,3230870054543 ,75,1509539310876
26.9673116 ,Left ,63,8345332130907 ,47,3212853595198 ,75,1770681624192
26.9822616 ,Left ,63,8283364329938 ,47,3096633742159 ,75,1988597540869
27.0043765 ,Left ,63,8393358075192 ,47,3087979734895 ,75,2125541974726
27.0270292 ,Left ,63,8847226774843 ,47,3093192117809 ,75,2210819908785
27.0421319 ,Left ,63,9087979505004 ,47,2964659209223 ,75,2259750396745
27.0719743 ,Left ,63,9206798388026 ,47,2891794618975 ,75,234169948745
27.0945438 ,Left ,63,9233454486723 ,47,2892669350499 ,75,2325273041262
27.1098625 ,Left ,63,9069437014505 ,47,292913180481 ,75,2302849096131
27.1247752 ,Left ,63,914138779918 ,47,2991132130317 ,75,2324929381653
27.1473876 ,Left ,63,9378044953071 ,47,3036375209711 ,75,2244525381596
27.1697464 ,Left ,63,9704596630466 ,47,2857405102813 ,75,2080116105144
27.1848292 ,Left ,63,9850702482767 ,47,2683136036655 ,75,2008497540921
27.1998477 ,Left ,63,9607324479736 ,47,2781702986874 ,75,1949925643161
27.2236586 ,Left ,63,9549472040702 ,47,2903064996092 ,75,1818285758503
27.244809 ,Left ,64,0038217421741 ,47,329376197247 ,75,1499982700571
27.2598963 ,Left ,64,1653765739689 ,47,4078713813222 ,75,1175580870669
27.2824975 ,Left ,64,3258534075252 ,47,5410033043934 ,75,0968182171545
27.3044173 ,Left ,64,3202364723183 ,47,3857239202622 ,75,1058134091743
27.3194409 ,Left ,64,1493404024219 ,47,2412759582747 ,75,1451571610051
27.3497788 ,Left ,64,2277386658343 ,47,4411614178941 ,75,1253915026476
27.3724709 ,Left ,64,1883448218548 ,47,2874968810667 ,75,1189562763453
27.3876331 ,Left ,64,0573559313325 ,47,2237418329967 ,75,1198459317466
27.4098598 ,Left ,63,9035702878117 ,47,2111362733209 ,75,1261801102554
27.4321877 ,Left ,63,872875746947 ,47,1938395845769 ,75,100833677149
27.4474393 ,Left ,63,7923849003628 ,47,1302694309541 ,75,1561362094262
27.469801 ,Left ,63,8374535275706 ,47,1931099135585 ,75,246104538657
27.4925148 ,Left ,63,7795676754858 ,47,2628473549295 ,75,2595811940606
27.5075826 ,Left ,63,730744720297 ,47,2820370659256 ,75,248059664882
27.5224498 ,Left ,63,7102560611382 ,47,1101143372901 ,75,2592441854794
27.5449392 ,Left ,63,6612352118844 ,47,1781181764146 ,75,2915794369475
27.5599676 ,Left ,63,493043566267 ,47,0619689321161 ,75,2784023836844
27.5821939 ,Left ,63,3555708256219 ,47,0881731850014 ,75,1978741901641
27.6122745 ,Left ,63,3460575822874 ,47,0455521220875 ,75,1691422173125
27.6346357 ,Left ,63,4810021381839 ,47,0656242814302 ,75,2621982071481
27.6573634 ,Left ,63,5520664332285 ,47,1458344984557 ,75,300678233992
27.6798303 ,Left ,63,5887053856516 ,47,2272092451111 ,75,3043365414328
27.7024251 ,Left ,63,6656159456781 ,47,242779055807 ,75,2892876921567
27.7246346 ,Left ,63,6066875341935 ,47,2788808747542 ,75,2645961658461
27.7396774 ,Left ,63,4447119436649 ,47,2142063045651 ,75,2213225101825
27.7621682 ,Left ,63,4746474408111 ,47,199420925166 ,75,1895629886339
27.7846118 ,Left ,63,5026211396499 ,47,2491902355698 ,75,2218388145996
27.7995087 ,Left ,63,5476405785246 ,47,3124107337419 ,75,1970948291584
27.8220863 ,Left ,63,6088785945632 ,47,3131748170824 ,75,1895542151935
27.8445747 ,Left ,63,7048365212083 ,47,2981070728648 ,75,1897816645502
27.8596944 ,Left ,63,6820404263837 ,47,3530070355669 ,75,224346018618
27.8895055 ,Left ,63,5246995404443 ,47,4428528188125 ,75,2695337907832
27.9122728 ,Left ,63,3996433715509 ,47,5009891581548 ,75,2998512252886
27.9271771 ,Left ,63,4442386029403 ,47,4984925501705 ,75,2910424346809
27.9421982 ,Left ,63,5237024538456 ,47,4839737739284 ,75,3292856095745
27.9648002 ,Left ,63,4893427231969 ,47,4973716676568 ,75,3278838974248
27.9796279 ,Left ,63,4684956961972 ,47,5891387755644 ,75,2785925744342
28.0021194 ,Left ,63,5761152613685 ,47,6248065626756 ,75,2436015035234
28.0245254 ,Left ,63,6478636909805 ,47,6228548482637 ,75,2147933881132
28.0393999 ,Left ,63,6490509347899 ,47,6159938232008 ,75,1720111038341
28.0620596 ,Left ,63,5655552574095 ,47,6191200375049 ,75,1365324475003
28.0849557 ,Left ,63,5180529899267 ,47,6440626490444 ,75,0959255505214
28.1077133 ,Left ,63,553263697514 ,47,651513123705 ,75,0627314245406
28.1377201 ,Left ,63,565448166976 ,47,6253125923624 ,75,0569853642463
28.1601122 ,Left ,63,5483217218577 ,47,6144837477982 ,75,04906860746
28.1825987 ,Left ,63,4139322487859 ,47,5628926868164 ,75,0865931975021
28.1968063 ,Left ,63,3669848407318 ,47,5091298668558 ,75,1703398955857
28.2344775 ,Left ,63,3608341856181 ,47,4789543093245 ,75,2416146608298
28.2571553 ,Left ,63,4718347849976 ,47,3853043096296 ,75,2110755044544
28.287483 ,Left ,63,3640216600341 ,47,3360701260556 ,75,2332249097907
28.3099435 ,Left ,63,3973639168649 ,47,3978097476259 ,75,2062809935491
28.3323373 ,Left ,63,5153025517697 ,47,370772580295 ,75,2224091668434
28.3473334 ,Left ,63,5914474903763 ,47,3083389253064 ,75,2790580047683
28.3694613 ,Left ,63,6119545024032 ,47,322618525516 ,75,3182512179996
28.3918516 ,Left ,63,6182061379534 ,47,3437508414052 ,75,2875943228807
28.4068851 ,Left ,63,6973242044929 ,47,3212621456168 ,75,2400113694307
28.4374575 ,Left ,63,7436452440498 ,47,2433867402763 ,75,2189374843252
28.4671897 ,Left ,63,748271182244 ,47,1976868204328 ,75,2189354202221
28.4822032 ,Left ,63,7289465602675 ,47,1970339028632 ,75,2202051168621
28.5119538 ,Left ,63,7439460028449 ,47,2561375487792 ,75,1951388171704
28.5272596 ,Left ,63,8299850826962 ,47,2445655017463 ,75,1926770148698
28.5494401 ,Left ,63,8587894921526 ,47,2280069068706 ,75,1948902078508
28.5719741 ,Left ,63,832257419456 ,47,2211316139256 ,75,1939284839723
28.5872916 ,Left ,63,7788732139098 ,47,2158633842803 ,75,1933197729163
28.6095716 ,Left ,63,7850282548069 ,47,2225319761006 ,75,1918341118206
28.6321887 ,Left ,63,8180856294436 ,47,2420873402949 ,75,1931562626618
28.6471734 ,Left ,63,8063424106503 ,47,2656544760384 ,75,1916803435291
28.6695124 ,Left ,63,7738341120492 ,47,2885166124475 ,75,1878057266539
28.6845157 ,Left ,63,7078944647704 ,47,3042012545056 ,75,1899833158618
28.7070672 ,Left ,63,6763867286843 ,47,3150893284254 ,75,1787630391386
28.722717 ,Left ,63,676490577148 ,47,2840125034067 ,75,1540336376074
28.7450937 ,Left ,63,6237840277654 ,47,2078792329519 ,75,126453681529
28.7679202 ,Left ,63,5396643442626 ,47,1000018766205 ,75,1162994695782
28.7827549 ,Left ,63,4616623596152 ,47,0802808992812 ,75,1302850727711
28.8052676 ,Left ,63,2806324759258 ,47,1624496512696 ,75,1434923887266
28.8274504 ,Left ,63,0962895014235 ,47,3254873420615 ,75,1191647131912
28.8421216 ,Left ,63,0766711672694 ,47,4370349019635 ,75,058743512188
28.8647686 ,Left ,63,1820913136219 ,47,550275035823 ,75,011972891782
28.8873137 ,Left ,63,1889875677929 ,47,6412034546349 ,75,0119067397004
28.9097862 ,Left ,63,1034089803136 ,47,7171035700314 ,75,0698581901079
28.9318765 ,Left ,63,0803415629308 ,47,771492058453 ,75,1189644695591
28.9621355 ,Left ,63,3026716293476 ,47,7266649588577 ,75,1655631585777
28.9921707 ,Left ,63,3514631019995 ,47,6501622796559 ,75,1676399744425
29.014539 ,Left ,63,4055071932579 ,47,6389434282743 ,75,1501820784862
29.0372276 ,Left ,63,2908838658097 ,47,6318871612654 ,75,1560484493856
29.0674133 ,Left ,63,3115276239239 ,47,6673095917464 ,75,1493304732075
29.0902156 ,Left ,63,37831844188 ,47,7712706373863 ,75,1874689186666
29.1050086 ,Left ,63,4433911145648 ,47,8893404580895 ,75,1844196025767
29.1278656 ,Left ,63,6016071901482 ,47,8688489264892 ,75,1772880528419
29.1500332 ,Left ,63,703739479501 ,47,7902191930763 ,75,1908857973047
29.1652269 ,Left ,63,6704042378446 ,47,7557547507284 ,75,210397646735
29.1875047 ,Left ,63,5498978989287 ,47,7835326882279 ,75,216585557364
29.2176809 ,Left ,63,5143841225316 ,47,815877853871 ,75,2341889677794
29.2325609 ,Left ,63,577269946553 ,47,8070699754674 ,75,2717730016344
29.2548901 ,Left ,63,5294909963735 ,47,7777582504763 ,75,2192945596269
29.2850895 ,Left ,63,374233146104 ,47,8035636109989 ,75,3081384617895
29.3080602 ,Left ,63,3354888328457 ,47,8195313150314 ,75,311875411497
29.3300641 ,Left ,63,3809926794106 ,47,9290714164514 ,75,3033089308581
29.3451627 ,Left ,63,4921141632697 ,47,7480315767434 ,75,2800951876747
29.3678814 ,Left ,63,6517132983518 ,47,6615882913514 ,75,2286576720697
29.3900606 ,Left ,63,7160615889876 ,47,7077594246063 ,75,1784568948474
29.4050414 ,Left ,63,7329220184381 ,47,8300029089077 ,75,1333097158607
29.4279029 ,Left ,63,8221300892081 ,47,9851602493839 ,75,0923205174862
29.449953 ,Left ,63,9758196979703 ,48,1201210321466 ,75,0532603721391
29.4647296 ,Left ,64,0798852032516 ,48,2770601499592 ,75,023846721683
29.4872906 ,Left ,64,1006772116758 ,48,4693220822728 ,75,0097479106922
29.509718 ,Left ,64,0663030435233 ,48,6671733942617 ,74,9976545043159
29.5248879 ,Left ,64,1259753212417 ,48,8427988761002 ,74,9810974504353
29.5471893 ,Left ,64,2066934828847 ,48,9833850910763 ,74,9657931399467
29.577748 ,Left ,64,2744342542775 ,49,0851214060118 ,74,9725601744902
29.6000788 ,Left ,64,2160572449909 ,49,1392800165836 ,75,0169741990879
29.6373215 ,Left ,64,1914417105509 ,49,0213172258 ,75,0938002932494
29.6596971 ,Left ,64,2206473982491 ,48,8803771789162 ,75,087099514848
29.6896361 ,Left ,64,0994078993354 ,48,8212310634781 ,75,1921141087725
29.7123693 ,Left ,64,1432662403832 ,48,8357163760681 ,75,1875183903704
29.7347071 ,Left ,64,2363911873998 ,48,7426866731575 ,75,1665045034077
29.7497114 ,Left ,64,2467532976807 ,48,6491739295655 ,75,2046685343109
29.7722221 ,Left ,64,2061246538545 ,48,6371195701795 ,75,2462312273067
29.7946592 ,Left ,64,2268699937454 ,48,6568200417537 ,75,2202977676119
29.8094418 ,Left ,64,3206592417244 ,48,6248672048938 ,75,1734199498714
29.8470489 ,Left ,64,379650511972 ,48,5614537333745 ,75,1403437240434
29.8695129 ,Left ,64,3508714137995 ,48,5016689785868 ,75,1196073743733
29.8920343 ,Left ,64,3205390023901 ,48,4376545711127 ,75,1118689729969
29.9148448 ,Left ,64,3386824718569 ,48,403580731527 ,75,0955976120535
29.9296587 ,Left ,64,3982196980942 ,48,3651596028759 ,75,0831753456636
29.9523289 ,Left ,64,4191552758156 ,48,3201879654637 ,75,0760293426937
29.9745004 ,Left ,64,4344027360859 ,48,2858721373944 ,75,0957728970118
29.9895816 ,Left ,64,4152819358355 ,48,2404387703999 ,75,0987392722059
30.0122253 ,Left ,64,4184221609965 ,48,1862225857129 ,75,1009965592335
30.034674 ,Left ,64,4205046816171 ,48,160384711521 ,75,10013740315
30.0496327 ,Left ,64,3748218858791 ,48,1635129299286 ,75,0969282298695
30.072039 ,Left ,64,3329054223279 ,48,1790371763125 ,75,0950292910364
30.1020571 ,Left ,64,3297214186198 ,48,1772411536956 ,75,0990906188142
30.1246 ,Left ,64,3391791534104 ,48,1618650881455 ,75,1057222932122
30.1397299 ,Left ,64,3301456734753 ,48,1398277715386 ,75,1141319451484
30.1843117 ,Left ,64,2275913554326 ,48,0706423108345 ,75,1183244492334
30.1996948 ,Left ,64,2086258749718 ,48,0290746424445 ,75,0984216251507
30.2220973 ,Left ,64,1932584229092 ,47,928262263394 ,75,0708703206304
30.2599784 ,Left ,64,0878436499287 ,47,7097297313361 ,75,1019094709526
30.2978289 ,Left ,63,7842193057702 ,47,8420712705395 ,75,1059764725561
30.3127585 ,Left ,63,8064637912669 ,47,9500494017829 ,75,1093507073148
30.3418643 ,Left ,63,907060337594 ,48,0417712876115 ,75,113953340327
30.3644342 ,Left ,63,8382789320178 ,48,0694950471789 ,75,0930263696453
30.3796741 ,Left ,63,7194038941182 ,48,0516329122588 ,75,0303996764249
30.3946381 ,Left ,63,6277448129838 ,48,078058905358 ,75,0846257510952
30.4172796 ,Left ,63,5695008666252 ,48,1499923773617 ,75,1461891984521
30.4321222 ,Left ,63,687334056415 ,48,2087699374797 ,75,1816348343767
30.454881 ,Left ,63,8260213160568 ,48,1695715987692 ,75,1889520581062
30.4776852 ,Left ,63,9001326008502 ,48,0674192197478 ,75,2000529112733
30.4927401 ,Left ,63,8721918845874 ,48,0134722131474 ,75,2036628910764
30.5148807 ,Left ,63,6303195530163 ,48,0247430034643 ,75,2142573852216
30.5375587 ,Left ,63,5860021788077 ,48,0161287598074 ,75,2269321688831
30.5521163 ,Left ,63,6137527435321 ,47,9463948058305 ,75,1915471372392
30.574511 ,Left ,63,745616177485 ,47,9302242648937 ,75,223430850995
30.5972041 ,Left ,63,7554852553356 ,47,9728029342726 ,75,2641284346626
30.611983 ,Left ,63,7496191768517 ,48,0460218228271 ,75,2601939377522
30.6423477 ,Left ,63,840620863114 ,48,0063505673221 ,75,250516343426
30.6724525 ,Left ,63,9233094284895 ,47,9360848475509 ,75,2717938949618
30.687501 ,Left ,63,9041372914103 ,47,9378693831044 ,75,2895405779904
30.7021204 ,Left ,63,7964202366228 ,47,9433061784255 ,75,2754575184185
30.7168708 ,Left ,63,7676073104534 ,47,9510066765474 ,75,3010734814398
30.732029 ,Left ,63,6931905830566 ,47,9584933940592 ,75,3236841332245
30.7545055 ,Left ,63,7198292683016 ,47,9517932002472 ,75,2374207908136
30.7772067 ,Left ,63,7611881990044 ,47,9551489622686 ,75,252904747496
30.7922813 ,Left ,63,7102358110015 ,48,043832471196 ,75,2616408567167
30.8147193 ,Left ,63,7209538173154 ,48,2028971176521 ,75,2310658281538
30.837429 ,Left ,63,8724865927491 ,48,2338215537083 ,75,2042116801269
30.8599295 ,Left ,63,9587738813123 ,48,1967295091764 ,75,1852316691604
30.8745997 ,Left ,63,944792089532 ,48,1590116392566 ,75,1537171553898
30.897298 ,Left ,63,8509690774488 ,48,1278613133556 ,75,1101398744367
30.9197439 ,Left ,63,8115466892807 ,48,1074004560039 ,75,0574241616513
30.942555 ,Left ,63,8539779170872 ,48,0992405063835 ,75,0063495439933
30.9648733 ,Left ,63,9349396544258 ,48,0796791092451 ,74,962973803008
30.9800064 ,Left ,63,9901440645885 ,48,0778633662753 ,74,9351470652282
30.9949852 ,Left ,63,9735405285523 ,48,0832001528306 ,74,9274776794067
31.025101 ,Left ,63,8974601797725 ,48,0921692030171 ,74,9333386413245
31.0476812 ,Left ,63,8912223392879 ,48,094649642412 ,74,9348932999369
31.0700283 ,Left ,63,9064429836242 ,48,0861057371039 ,74,9317777474588
31.0850026 ,Left ,63,9002517700056 ,47,9754874778689 ,74,964218318808
31.1077307 ,Left ,63,8810702657031 ,47,856008145649 ,75,0323680567701
31.1294916 ,Left ,63,8673115987823 ,47,7988748824861 ,75,0848095696332
31.1446765 ,Left ,63,8343863224628 ,47,8242677982959 ,75,087989400585
31.1747126 ,Left ,63,9616553648873 ,47,695972071157 ,75,0597253594697
31.1971661 ,Left ,63,9881708553507 ,47,6335629336985 ,75,0767914770754
31.2346706 ,Left ,63,981804511615 ,47,6055325805676 ,75,1222908396949
31.2494741 ,Left ,63,9842589051999 ,47,6067094908351 ,75,1713595152959
31.2946458 ,Left ,64,1971111371217 ,47,5090327488726 ,75,2009937264884
31.3172089 ,Left ,64,1864923278217 ,47,4756668618912 ,75,1953928837188
31.3400665 ,Left ,64,1221048965657 ,47,4662353817877 ,75,1939037819204
31.3624694 ,Left ,64,0942559841025 ,47,4581114723155 ,75,1851774554863
31.3848773 ,Left ,64,1119951819641 ,47,4382297474092 ,75,1842115034017
31.4299111 ,Left ,64,1833433045193 ,47,3875124434457 ,75,1870627963552
31.4675375 ,Left ,64,1606880536759 ,47,3434923023621 ,75,2012822566907
31.4972313 ,Left ,64,1189862346649 ,47,2292738802903 ,75,2177620778754
31.549647 ,Left ,63,9388800117523 ,47,0757644241074 ,75,2692885245348
31.5723137 ,Left ,63,878089020444 ,47,0233761730082 ,75,2989632075967
31.5949077 ,Left ,63,9600560261629 ,47,2331128592073 ,75,2981948786021
31.6098499 ,Left ,63,9784802326961 ,47,2341641374846 ,75,2934853867825
31.6322996 ,Left ,64,061116973362 ,47,2836775110761 ,75,2702239118961
31.6547779 ,Left ,64,0464210970786 ,47,2995259884166 ,75,2576780353008
31.6770585 ,Left ,64,0374464619433 ,47,3117628458334 ,75,2523757409282
31.699437 ,Left ,64,0215597712328 ,47,3352612515064 ,75,2490265200562
31.7373214 ,Left ,64,0577383982581 ,47,3710371760967 ,75,2562020633638
31.7598178 ,Left ,64,203804506959 ,47,4869050504385 ,75,239645342733
31.7979693 ,Left ,64,1612306119186 ,47,2723460156687 ,75,2298222856651
31.8128683 ,Left ,64,2013836250672 ,47,3786402957594 ,75,2134032001795
31.8278567 ,Left ,64,1893035210301 ,47,371587403183 ,75,2017881023055
31.8650336 ,Left ,64,2301278043833 ,47,3803886826102 ,75,216561421318
31.8800198 ,Left ,64,2335923876417 ,47,3698606147692 ,75,2198052997408
31.9026472 ,Left ,64,2301039459919 ,47,3705780700557 ,75,2250415401559
31.9325037 ,Left ,64,2064917070255 ,47,3794213940833 ,75,2314866012947
31.9475329 ,Left ,64,1763301733162 ,47,3982140406317 ,75,2363041072433
31.9627267 ,Left ,64,1839322084244 ,47,4217911122772 ,75,2430415973692
31.9926707 ,Left ,64,2217705726443 ,47,4387734657408 ,75,2463752774707
32.0151008 ,Left ,64,2172659090108 ,47,4449069668353 ,75,2437400123185
32.037761 ,Left ,64,178291874248 ,47,4508409312077 ,75,2431526621445
32.0674497 ,Left ,64,1351448428077 ,47,4385823357563 ,75,2388260135842
32.0899871 ,Left ,64,1225011918734 ,47,4243122447214 ,75,2278795013985
32.1349147 ,Left ,63,9665264255252 ,47,3012778873191 ,75,2066312344599
32.1574397 ,Left ,64,0504699724314 ,47,359565955279 ,75,2358402696146
32.1800021 ,Left ,63,9878236549302 ,47,4622919922776 ,75,2415379304707
32.209496 ,Left ,63,8617363102149 ,47,5348783306852 ,75,212445309571
32.2244564 ,Left ,63,932509187137 ,47,5299737419549 ,75,1955268681175
32.2473469 ,Left ,63,9888836889353 ,47,5140079745147 ,75,1864880375384
32.262123 ,Left ,63,9394797787104 ,47,5358013727275 ,75,1906079532243
32.2771241 ,Left ,63,7721163477515 ,47,596206421945 ,75,2290279023725
32.2998401 ,Left ,63,6724949743856 ,47,6140430252395 ,75,2118117095
32.3225502 ,Left ,63,7496535683314 ,47,5473358743091 ,75,1785344796123
32.3599097 ,Left ,63,8708507274419 ,47,4554463540811 ,75,2608988164623
32.3824429 ,Left ,63,7892586657763 ,47,4520680400221 ,75,2329734313401
32.3898216 ,Left ,63,880908633513 ,47,4411731905296 ,75,2117451220178
32.4123441 ,Left ,63,9540240051542 ,47,4848996833198 ,75,1732898506554
32.4574324 ,Left ,63,8688686533413 ,47,5733850814658 ,75,1963826621468
32.4796249 ,Left ,63,9324342604383 ,47,5398512094898 ,75,1709777788791
32.5097044 ,Left ,63,9737756083563 ,47,4605696975909 ,75,1651374317698
32.5322497 ,Left ,63,9705597795586 ,47,4740642879655 ,75,1628349403371
32.5775242 ,Left ,64,0075714578838 ,47,4971583191711 ,75,2035825838367
32.5999995 ,Left ,63,9336549110622 ,47,4944905243397 ,75,2548950966618
32.637173 ,Left ,63,8684123118869 ,47,4763020000083 ,75,31964959078
32.6595162 ,Left ,63,8906804270069 ,47,4147330839897 ,75,332724937793
32.6973344 ,Left ,63,7763433127241 ,47,3791707653522 ,75,3295655192165
32.719951 ,Left ,63,654524080264 ,47,4277679273576 ,75,2994418889917
32.7350338 ,Left ,63,6515312909694 ,47,5675135125789 ,75,3085585078807
32.7501146 ,Left ,63,7044674002145 ,47,7322308332979 ,75,3444993878924
32.7801617 ,Left ,63,7543718499062 ,47,8975430932734 ,75,3622537964273
32.8026344 ,Left ,63,8874804790707 ,47,9551355709679 ,75,3502538217219
32.8324517 ,Left ,63,9407223018315 ,47,9222238213936 ,75,2863277142793
32.8549416 ,Left ,63,8587832694122 ,47,8927694862214 ,75,2681772849685
32.8772411 ,Left ,63,7677398982595 ,47,8603421689425 ,75,2578646239729
32.9075476 ,Left ,63,7469922615457 ,47,8448500421226 ,75,2304811741393
32.9298281 ,Left ,63,8061825947466 ,47,8268106005201 ,75,1967743135372
32.9373814 ,Left ,63,8542742077822 ,47,810290483257 ,75,1627526629109
32.9524144 ,Left ,63,82142753196 ,47,8052777193247 ,75,1565828120759
32.9745987 ,Left ,63,7525428271725 ,47,8129301980325 ,75,15392505441
33.0120273 ,Left ,63,6406124823718 ,47,7060238143613 ,75,1755438576532
33.0345396 ,Left ,63,604462557996 ,47,6643499685227 ,75,2297771725401
33.0494311 ,Left ,63,5330500414568 ,47,694421658619 ,75,2665539920289
33.0721734 ,Left ,63,5588176933835 ,47,6527672067456 ,75,2634504432858
33.0950553 ,Left ,63,6029915524282 ,47,5114443444069 ,75,2510386920557
33.1320476 ,Left ,63,4631458864355 ,47,5126190895238 ,75,278427025513
33.1544587 ,Left ,63,5448779280357 ,47,4784469572085 ,75,253018186695
33.1923407 ,Left ,63,7408380607109 ,47,2704761114569 ,75,3589030752646
33.2151842 ,Left ,63,7886568224659 ,47,2648791684664 ,75,3726364674649
33.2594608 ,Left ,63,8771604989927 ,47,2137240225268 ,75,3085738832006
33.2744431 ,Left ,63,9499720131432 ,47,1653247271406 ,75,2933764869476
33.3274344 ,Left ,63,9097356004603 ,47,2195527788445 ,75,2792772607774
33.3430733 ,Left ,63,9361738032691 ,47,2771167588038 ,75,2709876748452
33.3729256 ,Left ,64,0466534407133 ,47,2817272154973 ,75,2633361819603
33.3949681 ,Left ,64,0534292145682 ,47,2619392706364 ,75,2584966724659
33.4327074 ,Left ,63,9920774902104 ,47,2479237807502 ,75,2531796957943
33.4624845 ,Left ,64,017942377617 ,47,2630735020236 ,75,2473946914686
33.5144735 ,Left ,64,0337306370413 ,47,3407028014453 ,75,2496527032795
33.5521218 ,Left ,64,0757397197408 ,47,4582583646136 ,75,2477608341763
33.5749361 ,Left ,63,9103083236999 ,47,3667991070288 ,75,2737512251921
33.6275095 ,Left ,64,0791910732049 ,46,9874913576126 ,75,2173066186168
33.6499768 ,Left ,64,0618984064958 ,46,9355162455666 ,75,1771118042153
33.6800499 ,Left ,64,0773167969277 ,47,0418628491441 ,75,1319475349525
33.7025814 ,Left ,64,0760871276963 ,47,277532400078 ,75,1267872273909
33.732573 ,Left ,64,4057773977199 ,47,7671939691846 ,75,1160148362035
33.7547068 ,Left ,64,593128057858 ,47,9002431683449 ,75,1286206294923
33.7998842 ,Left ,64,5926073007599 ,48,0281940825257 ,75,1024290044542
33.8227704 ,Left ,64,6571823038827 ,48,0075778724272 ,75,0587787506849
33.859833 ,Left ,64,7147696096226 ,47,8924116823115 ,75,1541085294457
33.8900273 ,Left ,64,7440783337963 ,47,8658413467723 ,75,1365879699324
33.9198408 ,Left ,64,7640718190257 ,47,8072297938896 ,75,1417469367819
33.9349049 ,Left ,64,6534372826539 ,47,8331890254035 ,75,2219769006788
33.94981 ,Left ,64,4991450388434 ,47,8357152353001 ,75,2505162056351
33.9725478 ,Left ,64,5932411984368 ,47,8624917105871 ,75,2142620835643
34.0100456 ,Left ,64,5925960841218 ,47,9752410942688 ,75,2285476318771
34.0250976 ,Left ,64,5566644114108 ,48,1003786730412 ,75,2137363430964
34.0698717 ,Left ,64,7909367560055 ,48,0354474978318 ,75,2278155066339
34.1000936 ,Left ,64,6094313645398 ,48,0348608064131 ,75,2307473978491
34.1227166 ,Left ,64,5308184784502 ,47,9965995872227 ,75,2201475807167
34.1374442 ,Left ,64,379339016803 ,47,7906915344528 ,75,2351275920857
34.1524716 ,Left ,64,6435105226075 ,47,9040096787214 ,75,2039888052649
34.1751589 ,Left ,64,833421344872 ,47,8344967201963 ,75,1983595482631
34.18974 ,Left ,64,8324702987952 ,47,7346974777902 ,75,2275331535705
34.2126763 ,Left ,64,769878429836 ,47,6759123075688 ,75,2499072022649
34.2424594 ,Left ,64,7207207538496 ,47,6923511320752 ,75,2609589001486
34.2650501 ,Left ,64,6894137264316 ,47,7283287247169 ,75,2531162336659
34.3099849 ,Left ,64,7668067224537 ,47,8145574991681 ,75,258769094607
34.3476859 ,Left ,64,5954183670499 ,48,0333774569097 ,75,2876144725959
34.36979 ,Left ,64,5147101458584 ,48,0865771748267 ,75,3067803806046
34.3848151 ,Left ,64,4344747095224 ,48,155149725072 ,75,3199255894188
34.3997516 ,Left ,64,3911492566272 ,48,1924159599756 ,75,2594948429904
34.4227848 ,Left ,64,4462400181346 ,48,1824664680433 ,75,2986602439883
34.4374946 ,Left ,64,4197722389809 ,48,2177221394909 ,75,3502061297067
34.460062 ,Left ,64,3841967867923 ,48,3540601015744 ,75,3497210167589
34.4825584 ,Left ,64,3881120965796 ,48,4461460475283 ,75,3324671437759
34.5199596 ,Left ,64,5081226941559 ,48,4010311207535 ,75,3007280849071
34.5425484 ,Left ,64,4546843049632 ,48,3760295623115 ,75,2744026620039
34.5727397 ,Left ,64,3106045631184 ,48,3536788463406 ,75,2155305681087
34.5949995 ,Left ,64,3309878529027 ,48,3426470685764 ,75,1877519202344
34.6101226 ,Left ,64,3824400266501 ,48,3176249295596 ,75,1686766857902
34.6319178 ,Left ,64,4001183609133 ,48,2977600900378 ,75,1614188507664
34.6622466 ,Left ,64,3589675378236 ,48,2770841248175 ,75,1654897897092
34.6996603 ,Left ,64,3135698075504 ,48,3016535578644 ,75,1495965571496
34.7145533 ,Left ,64,3380067141687 ,48,2907928086829 ,75,1301973832235
34.760293 ,Left ,64,2543897804461 ,48,3049958457335 ,75,1151648633106
34.7750421 ,Left ,64,1816499304872 ,48,3271135722099 ,75,0706479615032
34.8203135 ,Left ,64,0107117759777 ,48,1250292403231 ,75,0795249346198
34.8426943 ,Left ,63,948677111912 ,48,0690487536376 ,75,1771509302162
34.8796059 ,Left ,63,9468656938183 ,47,9026754805774 ,75,198393605792
34.9020834 ,Left ,63,9748362285497 ,47,8022495796009 ,75,2287043579697
34.9545392 ,Left ,64,0621343622201 ,47,7665659657173 ,75,1682399467782
34.9928759 ,Left ,64,0168885799566 ,47,5979089093527 ,75,2482269001199
35.0144407 ,Left ,64,0451151882117 ,47,6388904339774 ,75,2388895408853
35.0523042 ,Left ,64,2341301199065 ,47,6343394203202 ,75,1769419747409
35.0824593 ,Left ,64,2480902070214 ,47,5990051843147 ,75,1740393117348
35.1425683 ,Left ,64,160627008166 ,47,6573269055197 ,75,1741891849833
35.1947228 ,Left ,64,3092742373054 ,47,6069897741547 ,75,1937877597739
35.2393963 ,Left ,64,2044506862885 ,47,5972902405799 ,75,2029405490808
35.2695169 ,Left ,64,214225557915 ,47,59954863978 ,75,1981573200559
35.3076947 ,Left ,64,192248792019 ,47,5853582602019 ,75,195402442639
35.3595701 ,Left ,64,0235131041843 ,47,5478918410583 ,75,2178811258525
35.3894865 ,Left ,64,0255446549142 ,47,4800774396244 ,75,2196747982245
35.4197018 ,Left ,63,8663176547639 ,47,260115492437 ,75,2200506601187
35.4576707 ,Left ,63,7776420194751 ,47,2886113055168 ,75,253028172698
35.5025924 ,Left ,63,7201304504784 ,47,4898767045526 ,75,2104436151141
35.5248592 ,Left ,63,8380604184821 ,47,5304603107588 ,75,2042761868641
35.5775756 ,Left ,63,5492312348159 ,47,5240842023777 ,75,2346953111986
35.6225698 ,Left ,63,6524034162424 ,47,4748866535918 ,75,2693842567651
35.6449225 ,Left ,63,6883152014294 ,47,5047751917958 ,75,2829531821954
35.7048831 ,Left ,63,7798319288427 ,47,4888180426364 ,75,3292717129127
35.7499485 ,Left ,63,577520157465 ,47,5377519631521 ,75,4448403313758
35.7649328 ,Left ,63,6119649904836 ,47,5159278935232 ,75,4122219212299
35.7875046 ,Left ,63,6457311899707 ,47,7222659458432 ,75,4500927707576
35.8099593 ,Left ,63,6796787369267 ,47,8672077853104 ,75,4325742491596
35.8324043 ,Left ,63,7849620839952 ,47,8753981882644 ,75,413706947646
35.8476143 ,Left ,63,8115518784969 ,47,8723612222703 ,75,4238454617249
35.8699509 ,Left ,63,7475648086451 ,47,884182374811 ,75,4239651191458
35.8999596 ,Left ,63,6369395920934 ,47,856656721661 ,75,4168771637389
35.9150113 ,Left ,63,6050823587914 ,47,8316452898708 ,75,3941304899296
35.9373491 ,Left ,63,6691595278176 ,47,8312524706533 ,75,3663866296651
35.9599226 ,Left ,63,7556919681059 ,47,8003235194504 ,75,3457661550127
35.9750092 ,Left ,63,7863868223528 ,47,7406454224426 ,75,3375819340732
35.9973236 ,Left ,63,7887370838184 ,47,6952008221638 ,75,3483491506111
36.0126855 ,Left ,63,7845663535321 ,47,6871636180099 ,75,3657679193879
36.0274174 ,Left ,63,7133257893258 ,47,7196817330478 ,75,3971378549663
36.0498659 ,Left ,63,6779225953581 ,47,7462944418812 ,75,3681149378642
36.0796649 ,Left ,63,6392937100423 ,47,7036692836447 ,75,2874478604741
36.0946185 ,Left ,63,5921107580472 ,47,6360129958859 ,75,3335857602456
36.1245746 ,Left ,63,6596603340575 ,47,6307325943064 ,75,3179570334432
36.1397657 ,Left ,63,6636593577483 ,47,8890514314013 ,75,286450014296
36.1546649 ,Left ,63,7018330607616 ,48,0949299549361 ,75,2600893843798
36.1770398 ,Left ,63,729276767717 ,48,2106974177017 ,75,2469932937035
36.199573 ,Left ,63,6375372425192 ,48,2995491158283 ,75,2385863021285
36.2146056 ,Left ,63,4172715087267 ,48,3897384698557 ,75,2305895856851
36.2371867 ,Left ,63,2348312286828 ,48,5052988474083 ,75,2331834412633
36.2596683 ,Left ,63,2386595515835 ,48,6327254558957 ,75,206068454382
36.2974581 ,Left ,63,3578107043656 ,48,8953194665385 ,75,157531095628
36.3196905 ,Left ,63,2881050198342 ,49,1018051125855 ,75,1593686481255
36.3421607 ,Left ,63,2834982831352 ,49,3064044718266 ,75,1796666150039
36.3571603 ,Left ,63,4821393130348 ,49,360570801689 ,75,1732300882642
36.3796021 ,Left ,63,5790901881666 ,49,2236750481679 ,75,1929755125847
36.394583 ,Left ,63,6430437123951 ,49,1871139403178 ,75,1566396098006
36.4096864 ,Left ,63,5624943230812 ,49,1986128096428 ,75,1288804838953
36.4325977 ,Left ,63,5636830981856 ,49,2294358092492 ,75,1305751401879
36.4548777 ,Left ,63,6359037850212 ,49,2475852774094 ,75,127543312967
36.4849125 ,Left ,63,696783931381 ,49,2517224945607 ,75,1102060435595
36.5148511 ,Left ,63,6865645745711 ,49,1771525489536 ,75,0695993173113
36.5447969 ,Left ,63,6539378788686 ,49,1117476641163 ,75,0607878344543
36.5597849 ,Left ,63,6401392195992 ,49,0272562993485 ,75,0548165666171
36.5747245 ,Left ,63,654662153006 ,48,9284831653094 ,75,0616821787606
36.5974786 ,Left ,63,6444616618116 ,48,8606819162935 ,75,0744872743729
36.6200152 ,Left ,63,6070723508665 ,48,8475794248454 ,75,0682538125368
36.634774 ,Left ,63,5047982693547 ,48,8431013417285 ,75,062645352724
36.6649505 ,Left ,63,5248424458553 ,48,7954488553081 ,75,1214873545318
36.6799686 ,Left ,63,5665918742823 ,48,8164136658074 ,75,154897591613
36.6947245 ,Left ,63,5874117585507 ,48,8562413110647 ,75,1528911276656
36.7174446 ,Left ,63,6553371723364 ,48,8235687358248 ,75,121952232083
36.7399739 ,Left ,63,7393480571305 ,48,7321860290103 ,75,1003251339817
36.7699042 ,Left ,63,7006135412155 ,48,6182803168001 ,75,0969240763375
36.7996969 ,Left ,63,7440164378087 ,48,580240705814 ,75,1211570857508
36.8223676 ,Left ,63,7202771892923 ,48,5792933981589 ,75,1477512943031
36.8521926 ,Left ,63,7252637955633 ,48,5434174445361 ,75,178527039227
36.8675594 ,Left ,63,8153904682992 ,48,4489633747073 ,75,2049036447508
36.9048167 ,Left ,63,8981074390683 ,48,3457669302287 ,75,2473427945456
36.9274625 ,Left ,63,6569785283688 ,48,2855182606451 ,75,2442728564828
36.9571717 ,Left ,63,7194491074551 ,48,2178514899991 ,75,1989436184823
36.9797979 ,Left ,63,7892096730889 ,48,2255996565112 ,75,2193200811904
37.0094893 ,Left ,63,7939251330229 ,48,2162869852822 ,75,2012452294104
37.0394598 ,Left ,63,806392266335 ,48,1695978597815 ,75,1869540268147
37.0696523 ,Left ,63,8000691115363 ,48,1172206103454 ,75,2007406057795
37.0847479 ,Left ,63,8035851764317 ,48,1087271200646 ,75,2297173183983
37.1294983 ,Left ,63,8598051716873 ,48,1671677399906 ,75,2592064510008
37.1445459 ,Left ,63,885579544126 ,48,1659015730401 ,75,285595893468
37.1747029 ,Left ,63,9297538551556 ,48,129052132244 ,75,3074090541978
37.197445 ,Left ,63,8907337340672 ,48,040593658431 ,75,3458659255433
37.2276931 ,Left ,63,8963205264803 ,48,0041062736389 ,75,3648263520629
37.2425907 ,Left ,63,9199297036953 ,47,9572269875447 ,75,3770161063429
37.2577793 ,Left ,63,9641375890977 ,47,9113443941453 ,75,3746091564399
37.2869427 ,Left ,63,9938852924086 ,47,8906231252015 ,75,3751120638183
37.3022701 ,Left ,63,9924290508244 ,47,8869239054485 ,75,3730792594467
37.3170369 ,Left ,63,9693056814296 ,47,9007356395953 ,75,3751713135962
37.3397971 ,Left ,63,9887089289855 ,47,9055714875103 ,75,3791789523735
37.3620793 ,Left ,63,9878832961666 ,47,8870050162772 ,75,3772541740861
37.3773712 ,Left ,64,0131553171062 ,47,8758772424105 ,75,3808817782315
37.4074685 ,Left ,64,0176648799386 ,47,8796053996237 ,75,3901631893387
37.4224287 ,Left ,63,9770938982215 ,47,8937987496704 ,75,3949820883664
37.4373334 ,Left ,63,9785573438791 ,47,9018380405857 ,75,4016397679568
37.4526207 ,Left ,63,9853424773498 ,47,8922217144375 ,75,4105705597738
37.4749151 ,Left ,63,9753486174555 ,47,8816545740101 ,75,427412225755
37.4898571 ,Left ,63,9481409275695 ,47,8825323535136 ,75,4510492963131
37.5123409 ,Left ,63,9406217330076 ,47,8869000985724 ,75,4750539892713
37.5350163 ,Left ,63,9580978110797 ,47,8655873214714 ,75,47045684765
37.5650997 ,Left ,63,9846314683767 ,47,8521093145773 ,75,460507892678
37.5800735 ,Left ,63,9578469600679 ,47,8455422414411 ,75,4586717954656
37.6024044 ,Left ,63,9216213728646 ,47,8568901842161 ,75,4510170851745
37.6249555 ,Left ,63,8785729061917 ,47,8845070645327 ,75,4698643853744
37.6398763 ,Left ,63,8286208252188 ,47,9311209438176 ,75,4863975647604
37.6849384 ,Left ,63,7844552174232 ,47,8343302370802 ,75,482698764754
37.69967 ,Left ,63,9132543838941 ,47,825463439381 ,75,4922467668925
37.7448739 ,Left ,63,5582843495408 ,47,9659929279298 ,75,4821397477707
37.7676072 ,Left ,63,6604870088538 ,47,9647664103723 ,75,4644266123461
37.7899224 ,Left ,63,7930782954008 ,47,9461525492885 ,75,4333983634878
37.8050607 ,Left ,63,7396742716629 ,47,9369068636166 ,75,397165789542
37.8199985 ,Left ,63,5993532558067 ,47,922133286129 ,75,3392895216599
37.8426315 ,Left ,63,4873635234942 ,47,8610426529234 ,75,2792204023779
37.8649928 ,Left ,63,4969113389189 ,47,7347577326618 ,75,2549722436157
37.8798201 ,Left ,63,6103697287807 ,47,545741038207 ,75,2771829934079
37.8949899 ,Left ,63,710242054652 ,47,4917423332864 ,75,3466465432046
37.9172374 ,Left ,63,6615081975284 ,47,4958034196362 ,75,3416681439259
37.9325755 ,Left ,63,7722397179449 ,47,5358264559273 ,75,3099664605711
37.9550841 ,Left ,63,8634651480774 ,47,5778184112775 ,75,2881835429316
37.9775692 ,Left ,63,8906607684673 ,47,6662522588722 ,75,28998431171
37.9925131 ,Left ,63,8336165578398 ,47,7248005002714 ,75,2685626488095
38.0225176 ,Left ,63,7848698386127 ,47,7422265682428 ,75,2457352741715
38.0599941 ,Left ,63,831210875087 ,47,6849733479128 ,75,2382672805559
38.0748255 ,Left ,63,8786295961421 ,47,5912788396314 ,75,2455451498313
38.0900059 ,Left ,63,8633396495345 ,47,4986926892942 ,75,2594438730059
38.1128207 ,Left ,63,772712526881 ,47,4087992092019 ,75,2694901298368
38.1349986 ,Left ,63,7639329496674 ,47,3721179118986 ,75,2771393674758
38.1574384 ,Left ,63,792169177399 ,47,3526665186937 ,75,2935517894539
38.179789 ,Left ,63,7648799776134 ,47,3661850143968 ,75,3261654813338
38.2020222 ,Left ,63,7161273820045 ,47,4288704952914 ,75,346901556974
38.2396344 ,Left ,63,5497820437063 ,47,5061730685225 ,75,3296933959477
38.262116 ,Left ,63,6025142743454 ,47,5253156939826 ,75,4121945537776
38.2845861 ,Left ,63,6739295843089 ,47,6095841283871 ,75,4295233970716
38.2997644 ,Left ,63,6858711927619 ,47,6999864085176 ,75,4257956871636
38.3222757 ,Left ,63,7298610809845 ,47,71107336344 ,75,4199301350369
38.3376068 ,Left ,63,7310689894926 ,47,7032664321499 ,75,4268621772425
38.3601621 ,Left ,63,6566603177135 ,47,7398160306244 ,75,4483519593568
38.3750062 ,Left ,63,509270671958 ,47,7815184218559 ,75,4485563434868
38.4046519 ,Left ,63,5036275342567 ,47,7949060020365 ,75,4551073520277
38.4270333 ,Left ,63,5894255280723 ,47,7919494256616 ,75,486049277533
38.4420722 ,Left ,63,5596248180256 ,47,829967001762 ,75,5337829255164
38.4572244 ,Left ,63,4308171270264 ,47,8596335439045 ,75,5395757205212
38.4796961 ,Left ,63,4550643653576 ,47,8807150544333 ,75,6147301737246
38.4947741 ,Left ,63,5256170689009 ,47,9442635057975 ,75,6630244622149
38.5175354 ,Left ,63,5562845026495 ,48,063654883952 ,75,606146180296
38.5396962 ,Left ,63,6289358967809 ,48,1654972614054 ,75,5578136752402
38.5546827 ,Left ,63,6914280722965 ,48,2129617436967 ,75,515132684951
38.5775243 ,Left ,63,6873864979987 ,48,2318044240718 ,75,4675843191016
38.5999232 ,Left ,63,5984601721502 ,48,2150608816617 ,75,4324097495581
38.6150411 ,Left ,63,5393601839716 ,48,1984841068582 ,75,384836603411
38.6372386 ,Left ,63,5844853549503 ,48,1752445774959 ,75,331763464982
38.6600039 ,Left ,63,6128900123999 ,48,1385516799644 ,75,2941016458062
38.6749446 ,Left ,63,6366185574407 ,48,1101808344578 ,75,2771313935544
38.7049188 ,Left ,63,5930473484452 ,48,1103993739027 ,75,2776168836951
38.727722 ,Left ,63,544222941707 ,48,0982079072803 ,75,2427427245352
38.7425751 ,Left ,63,513431596638 ,47,9744327231062 ,75,2372466560694
38.7876545 ,Left ,63,5337972290273 ,47,7456677587258 ,75,3501386550062
38.802509 ,Left ,63,5431157102908 ,47,6726424860814 ,75,331232976581
38.8397932 ,Left ,63,5774409637299 ,47,5329354864951 ,75,2749595568005
38.8549949 ,Left ,63,6678585057415 ,47,4210689915969 ,75,2862660212779
38.8771906 ,Left ,63,5964665770098 ,47,4521727807872 ,75,3144882785328
38.9146845 ,Left ,63,7366924983206 ,47,4930039963469 ,75,2752235971065
38.9299847 ,Left ,63,768268476954 ,47,4221419576633 ,75,3430097154992
38.9522396 ,Left ,63,7933816741507 ,47,4440520380485 ,75,4198181831926
38.9671882 ,Left ,63,8042038638393 ,47,4780996746964 ,75,4310622622656
38.982124 ,Left ,63,8913300073568 ,47,4917071534548 ,75,3989358731647
39.0122441 ,Left ,63,9717677288485 ,47,4557283754941 ,75,3730972487026
39.0270864 ,Left ,63,9581200717502 ,47,41929346511 ,75,3685379465656
39.0422281 ,Left ,63,9114665272811 ,47,4218483049675 ,75,3731880508645
39.0646232 ,Left ,63,9037924290441 ,47,4451705193272 ,75,3664960228678
39.0870222 ,Left ,63,9257821201044 ,47,4807314023194 ,75,3703203151407
39.1172618 ,Left ,63,982589670405 ,47,4945965411227 ,75,3803329833088
39.1324961 ,Left ,64,0624217747614 ,47,4750841980602 ,75,3965511109562
39.1700081 ,Left ,64,0916214629466 ,47,4245053249968 ,75,4137999910301
39.1923705 ,Left ,64,0582707928045 ,47,3635776012833 ,75,4299187204808
39.2299944 ,Left ,64,0576597968365 ,47,3829319305075 ,75,4117038726638
39.2448325 ,Left ,64,074955235139 ,47,3881147403647 ,75,4018515747638
39.2823447 ,Left ,64,0939026620793 ,47,3810166275835 ,75,4032041193375
39.297666 ,Left ,64,0554265349344 ,47,3947819429483 ,75,4156523284586
39.3202194 ,Left ,64,005275664392 ,47,414727796885 ,75,4313142420552
39.3350671 ,Left ,64,0117410353952 ,47,4308997067818 ,75,4376005155791
39.3500068 ,Left ,64,0425449894129 ,47,4298467807519 ,75,4370269425441
39.3668561 ,Left ,64,0639274960606 ,47,4252992689931 ,75,4377820607074
39.3798095 ,Left ,64,0425045622811 ,47,3808579588746 ,75,4496873692588
39.4023336 ,Left ,64,1762881708866 ,47,3949346995526 ,75,4344451123597
39.4321431 ,Left ,64,2713502246595 ,47,5703963097856 ,75,4155765929208
39.4545625 ,Left ,64,2160929419611 ,47,391668227408 ,75,4145711222203
39.4696791 ,Left ,64,1723134436212 ,47,3987827400544 ,75,4082864836665
39.4847174 ,Left ,64,3018573694063 ,47,49865763196 ,75,373350265901
39.5147611 ,Left ,64,1135532200712 ,47,3163907070245 ,75,3855256648279
39.5295005 ,Left ,64,1215679936314 ,47,5457997199754 ,75,3573723137839
39.5520197 ,Left ,64,1132415924092 ,47,5638026385897 ,75,2942120002542
39.559525 ,Left ,64,089455439673 ,47,5215755621312 ,75,2411831107346
39.574723 ,Left ,64,1504135064859 ,47,4799947033112 ,75,2815270925629
39.5973919 ,Left ,64,172897865832 ,47,5442243008273 ,75,3687685488133
39.6200335 ,Left ,64,0487824170963 ,47,6577306469809 ,75,3982385335449
39.6427151 ,Left ,63,9012471268286 ,47,6953128669099 ,75,4115281290594
39.687645 ,Left ,63,9929009694892 ,47,9533989938879 ,75,4006360070035
39.7100884 ,Left ,63,8844221672 ,48,0722653539451 ,75,403348133538
39.7322157 ,Left ,63,6719451906606 ,48,1158209483737 ,75,3254054296681
39.7548529 ,Left ,63,7025099812631 ,48,0530682625505 ,75,3185901574609
39.777491 ,Left ,63,7586634923854 ,48,0425224746218 ,75,432483676066
39.7922897 ,Left ,63,7708014208888 ,48,0957240710019 ,75,4438158644802
39.8372257 ,Left ,63,782859421269 ,48,1058489026962 ,75,418133923633
39.859942 ,Left ,63,8981060019978 ,48,0347260223436 ,75,4067032682411
39.8747722 ,Left ,63,880219262334 ,48,018207684823 ,75,3824549165673
39.8974588 ,Left ,63,7288484545203 ,48,0644859835351 ,75,4132440246477
39.9121614 ,Left ,63,6754389032786 ,48,0118950377804 ,75,4072279093349
39.93476 ,Left ,63,7524235431475 ,47,9530405318675 ,75,4030251087962
39.9569757 ,Left ,63,6999302413288 ,47,9545532871106 ,75,4703082698986
39.9719833 ,Left ,63,6593167061737 ,48,0505129599931 ,75,4698274851682
40.0019967 ,Left ,63,8097544755641 ,48,1054339021136 ,75,4742748233776
40.0247663 ,Left ,63,951814190042 ,48,0690688225448 ,75,4787452279185
40.039833 ,Left ,63,9291552594796 ,48,0582236362916 ,75,474167993196
40.0552729 ,Left ,63,8209949560598 ,48,0644806077463 ,75,4657332403318
40.0776217 ,Left ,63,8027632996968 ,48,0667551439079 ,75,4772409087588
40.1000818 ,Left ,63,8564400383812 ,48,0660745791357 ,75,522375883218
40.1301541 ,Left ,63,8463985226573 ,48,0496008858747 ,75,5460611234867
40.1601064 ,Left ,63,8274070944697 ,47,9782974836009 ,75,51820316015
40.1823242 ,Left ,63,8401333935541 ,47,9419038943577 ,75,5467501745378
40.2046487 ,Left ,63,7405919519691 ,47,9711457471836 ,75,5259080828827
