timestamp,event,roll,pitch,yaw
0.0315455 ,Left ,66,8082079466999 ,44,0444035275973 ,77,280747514439
0.046495 ,Left ,66,7955028403945 ,44,055988998052 ,77,2832294633125
0.0691439 ,Left ,66,7689326849106 ,44,0738524049951 ,77,2834915848853
0.0915059 ,Left ,66,7558412416293 ,44,0970022824067 ,77,274617072214
0.1066703 ,Left ,66,7505614936269 ,44,1292071978817 ,77,2605775472856
0.1290045 ,Left ,66,7498832046598 ,44,1693225188597 ,77,244879387909
0.151631 ,Left ,66,7462811767067 ,44,2164162890601 ,77,2231088050987
0.1663733 ,Left ,66,7304239669683 ,44,2700630357048 ,77,1936617249893
0.1897143 ,Left ,66,7126467004019 ,44,3271301965293 ,77,153166289018
0.2122037 ,Left ,66,6947561176021 ,44,3821792472134 ,77,0953964974203
0.2271082 ,Left ,66,6657633379967 ,44,4300654950324 ,77,0252328472733
0.2497638 ,Left ,66,6423904379714 ,44,4661220011504 ,76,9470574932221
0.2718227 ,Left ,66,6241884021699 ,44,4890437250186 ,76,8704401971078
0.2943726 ,Left ,66,6070234158114 ,44,5044919092343 ,76,7975843833851
0.3091001 ,Left ,66,6048619881496 ,44,5143734922435 ,76,7281571213457
0.3316566 ,Left ,66,6252614300596 ,44,5126749941314 ,76,6686391799828
0.354278 ,Left ,66,6604931518353 ,44,5072209903362 ,76,61615207996
0.3692737 ,Left ,66,6843681002343 ,44,4983282062641 ,76,578755462005
0.3915148 ,Left ,66,7111164867943 ,44,4905323633358 ,76,551603910403
0.4216906 ,Left ,66,7491916272469 ,44,4875135607212 ,76,5359223667123
0.4368602 ,Left ,66,7974513733724 ,44,4832139913284 ,76,5206871571492
0.4593181 ,Left ,66,8393440815446 ,44,4793365304102 ,76,5141184541395
0.4741011 ,Left ,66,8630151381249 ,44,482153406725 ,76,5166231369739
0.4893693 ,Left ,66,8823785350225 ,44,489975059539 ,76,5295803633022
0.5117771 ,Left ,66,9062816961084 ,44,493756544701 ,76,5519843580335
0.5343609 ,Left ,66,9275941268236 ,44,4974959875844 ,76,5840277744493
0.5493065 ,Left ,66,9334304669479 ,44,4994578458917 ,76,6192734926939
0.5718343 ,Left ,66,9383515592965 ,44,4969682648471 ,76,6551894774164
0.5943686 ,Left ,66,9426906441321 ,44,4924096979858 ,76,6941752668056
0.6093458 ,Left ,66,9343810206119 ,44,4822042175303 ,76,7285462352202
0.6315192 ,Left ,66,93951301481 ,44,4756756205616 ,76,7516977942011
0.6542875 ,Left ,66,927382401431 ,44,4676382790539 ,76,7606557349517
0.6692752 ,Left ,66,9137819029777 ,44,4661035865404 ,76,7675712023726
0.6916619 ,Left ,66,9023628057828 ,44,46701875809 ,76,7659404779076
0.7142783 ,Left ,66,9023820178953 ,44,4700455244315 ,76,7668610580616
0.7288909 ,Left ,66,9002146931684 ,44,4799225906914 ,76,7631596173328
0.7513088 ,Left ,66,903682269276 ,44,4919207389737 ,76,7585552441981
0.7740752 ,Left ,66,9037030431106 ,44,4949470549212 ,76,7594782150572
0.7890306 ,Left ,66,9037030431106 ,44,4949470549212 ,76,7594782150572
0.8116496 ,Left ,66,891252918231 ,44,4998867308498 ,76,7547114236237
0.8343315 ,Left ,66,892599258281 ,44,4963657936388 ,76,74299394087
0.8492143 ,Left ,66,8945889635553 ,44,4979106494642 ,76,7291692677976
0.8717666 ,Left ,66,890170864902 ,44,4974114162491 ,76,7149275190053
0.8943979 ,Left ,66,8859498793086 ,44,5014071405081 ,76,6987450122911
0.9092514 ,Left ,66,8841883092577 ,44,5063539075428 ,76,6849113522105
0.9314143 ,Left ,66,8924391601254 ,44,5114906308397 ,76,6753403649527
0.9540459 ,Left ,66,8919926641973 ,44,5109299371766 ,76,6754899443104
0.9690231 ,Left ,66,9009405993812 ,44,5085213936758 ,76,6829199380196
0.9914723 ,Left ,66,908067543259 ,44,506037741316 ,76,7012847759796
1.0141313 ,Left ,66,9123477013282 ,44,5074963211685 ,76,7274857975047
1.0289225 ,Left ,66,9089625449295 ,44,5142922288879 ,76,7565244086253
1.0516495 ,Left ,66,9076264320192 ,44,5127570164171 ,76,7930835929694
1.0741091 ,Left ,66,9043935634464 ,44,5141206304288 ,76,8268621919714
1.0894238 ,Left ,66,8910075371974 ,44,5090406622852 ,76,8557678251111
1.1118751 ,Left ,66,8796570639124 ,44,5079620485094 ,76,8799438303976
1.1343461 ,Left ,66,8719534870786 ,44,5058528794269 ,76,8985631601243
1.1489645 ,Left ,66,8653723040937 ,44,5057635355377 ,76,9221864234142
1.1716419 ,Left ,66,8547339734714 ,44,5061580838487 ,76,9515789807596
1.1939602 ,Left ,66,8488676801773 ,44,5075250512437 ,76,9804104679699
1.2165173 ,Left ,66,8462481086032 ,44,509469328362 ,77,0141920537941
1.2315848 ,Left ,66,8526375183721 ,44,513350067045 ,77,0387547568977
1.2543336 ,Left ,66,8570188261057 ,44,5140663285754 ,77,0587082266055
1.2769035 ,Left ,66,8710667260333 ,44,5125007435182 ,77,0804916983164
1.2916815 ,Left ,66,8729627745601 ,44,5038325797337 ,77,1019052094363
1.3143564 ,Left ,66,8657352178212 ,44,5002007985355 ,77,1316839353421
1.3368347 ,Left ,66,8559529198919 ,44,4935751608132 ,77,1703085647745
1.3518395 ,Left ,66,8406313864728 ,44,4934360026901 ,77,2276883594124
1.3742238 ,Left ,66,8121757067221 ,44,4967119004878 ,77,2889804259427
1.3968281 ,Left ,66,7756630900462 ,44,511722466146 ,77,3535463475005
1.4117366 ,Left ,66,7225325638159 ,44,5304222929116 ,77,4154496618655
1.4343543 ,Left ,66,6772873950962 ,44,5568105868614 ,77,4753205395074
1.4569012 ,Left ,66,6349523453454 ,44,5691745540841 ,77,5207095008784
1.4718315 ,Left ,66,6077694874401 ,44,571583722051 ,77,5726800255988
1.4937096 ,Left ,66,5713944433474 ,44,5755241049978 ,77,6257285709349
1.516398 ,Left ,66,5084294345039 ,44,5856897199481 ,77,6889462468264
1.5314077 ,Left ,66,4453841963585 ,44,5969082778051 ,77,7495692286034
1.5539545 ,Left ,66,393020866942 ,44,59516436965 ,77,7944217831845
1.5765489 ,Left ,66,3192446151232 ,44,5808979291906 ,77,835752920549
1.591606 ,Left ,66,2092080011603 ,44,5546073120831 ,77,897086611414
1.6141059 ,Left ,66,1128129258438 ,44,5061125931497 ,77,9685876371523
1.6368183 ,Left ,65,9891411410055 ,44,5263649460227 ,78,0308989121712
1.6517894 ,Left ,65,8852051799644 ,44,5984686455215 ,78,0891679256328
1.6741473 ,Left ,65,8090961480156 ,44,7139049029989 ,78,1545212759298
1.6963461 ,Left ,65,7805374083907 ,44,8202129912316 ,78,2310960616568
1.7191889 ,Left ,65,7628702351698 ,44,8544099492934 ,78,3130589826726
1.7339069 ,Left ,65,7452505310911 ,44,8286011329761 ,78,3689816693421
1.7566148 ,Left ,65,7342679897011 ,44,8012861040021 ,78,3765490716955
1.7790469 ,Left ,65,7245085903635 ,44,7769625103815 ,78,3581214275504
1.7942839 ,Left ,65,7560043558096 ,44,7628743696917 ,78,3184737100722
1.8167232 ,Left ,65,8019390233244 ,44,7536168516483 ,78,2649925180483
1.8318787 ,Left ,65,845582749037 ,44,7449935247133 ,78,2061300336458
1.8544771 ,Left ,65,8984298178239 ,44,7330308949851 ,78,1357091614619
1.8770374 ,Left ,65,9473975410929 ,44,7135782693637 ,78,0754724924728
1.8918845 ,Left ,65,9905665377112 ,44,6845454102608 ,78,0332084958112
1.9145195 ,Left ,66,0115747058288 ,44,6381164503416 ,78,0188267484213
1.9367768 ,Left ,66,0195997793276 ,44,5852815344281 ,78,0309794115028
1.951978 ,Left ,66,0155798618911 ,44,5105494174351 ,78,063877992709
1.9743819 ,Left ,66,0122613011639 ,44,4321995110308 ,78,0919838817381
1.9962493 ,Left ,65,9886802488606 ,44,3472145822529 ,78,1203354278989
2.0115992 ,Left ,65,9468818255098 ,44,2717841304831 ,78,1454390968431
2.0340292 ,Left ,65,920579825051 ,44,2062348149504 ,78,1542051072434
2.0572049 ,Left ,65,8604560175903 ,44,1040512916671 ,78,1418983252442
2.0721503 ,Left ,65,8408745599251 ,44,0782581292906 ,78,1216745261037
2.0943637 ,Left ,65,8507448868442 ,44,114798036022 ,78,0989030111035
2.1167296 ,Left ,65,8909186675931 ,44,1718391037997 ,78,1061076202283
2.1393967 ,Left ,65,8956299079646 ,44,2151197146548 ,78,1322442807711
2.154109 ,Left ,65,8678214189238 ,44,261237649537 ,78,1583867913131
2.1767663 ,Left ,65,8120372856816 ,44,2880921607921 ,78,1780644319566
2.1994525 ,Left ,65,8065168028562 ,44,3419857256419 ,78,1895435784187
2.214509 ,Left ,65,7887972011092 ,44,3617707244698 ,78,184310496715
2.236769 ,Left ,65,7931198800481 ,44,2870925100368 ,78,1753053592772
2.2592705 ,Left ,65,7384824628185 ,44,1322082755343 ,78,186688821988
2.2741897 ,Left ,65,6571017245402 ,44,1122246803585 ,78,1805544822734
2.2967151 ,Left ,65,6797785582602 ,44,2066883363307 ,78,1780042849718
2.3190552 ,Left ,65,8156137056447 ,44,3280647572206 ,78,1869273914205
2.3342777 ,Left ,65,9159166379732 ,44,4318205812345 ,78,2157977065842
2.3567245 ,Left ,65,8468204441472 ,44,5085220237069 ,78,2335148003368
2.371814 ,Left ,65,7344403542863 ,44,6123668418417 ,78,2536528166375
2.3866263 ,Left ,65,6782282769176 ,44,7288199655677 ,78,2501981494113
2.4091586 ,Left ,65,663151065802 ,44,7876879477305 ,78,2447528625617
2.4314639 ,Left ,65,5957349123696 ,44,7590821853127 ,78,2754520194009
2.4471147 ,Left ,65,532998801001 ,44,6791154364974 ,78,326611807297
2.4697244 ,Left ,65,4758724987496 ,44,6235487336243 ,78,3677228157492
2.5070079 ,Left ,65,395084743423 ,44,5512103000163 ,78,4429826072045
2.5294405 ,Left ,65,3592034537014 ,44,5408029024646 ,78,4757991010814
2.5665546 ,Left ,65,3243004133409 ,44,5137577768743 ,78,4466868013724
2.5892033 ,Left ,65,3559230161079 ,44,5586034366864 ,78,4119914062064
2.6265066 ,Left ,65,4495154154456 ,44,5448187706466 ,78,4331634975563
2.6489992 ,Left ,65,5268495238709 ,44,4858461783898 ,78,4502272218272
2.6867297 ,Left ,65,5918333050963 ,44,4460199963395 ,78,4204232014705
2.7093256 ,Left ,65,6381528356854 ,44,4634681996211 ,78,3903735124649
2.7469639 ,Left ,65,7771272981708 ,44,5411778748378 ,78,3073371184169
2.7693972 ,Left ,65,7889058079683 ,44,5710778905647 ,78,2737354841504
2.8071989 ,Left ,65,7742738392876 ,44,6180848370416 ,78,2544509952004
2.8297185 ,Left ,65,7615125969117 ,44,6563780901963 ,78,2296228149313
2.8670977 ,Left ,65,7171038675659 ,44,7886736698812 ,78,1393809804172
2.8894328 ,Left ,65,6858920442951 ,44,8687819310347 ,78,0849337388427
2.9117666 ,Left ,65,6401980622177 ,44,9603255274743 ,78,012833859395
2.9269198 ,Left ,65,575302157738 ,45,0428352903884 ,77,9395737117264
2.9493723 ,Left ,65,5220894665419 ,45,1091147590819 ,77,8596256420472
2.9717281 ,Left ,65,4665708179812 ,45,1425723171939 ,77,7856187150538
2.9865589 ,Left ,65,419150513441 ,45,1461982549751 ,77,7306182753541
3.0092278 ,Left ,65,3766494307801 ,45,1029230962745 ,77,6993900980076
3.0319298 ,Left ,65,3235699126824 ,45,0391887633082 ,77,6954914506869
3.0471412 ,Left ,65,2563942102059 ,44,9240158973522 ,77,6903700312724
3.0696867 ,Left ,65,2726576420173 ,44,8249900761961 ,77,6974186009447
3.1071933 ,Left ,65,2427643490323 ,44,9088022046147 ,77,7154535278199
3.128935 ,Left ,65,2560098991268 ,44,9288593901413 ,77,7608508600662
3.1667192 ,Left ,65,4031470591626 ,44,7813703675004 ,77,8471476908612
3.1892941 ,Left ,65,443134887547 ,44,6925498061986 ,77,8671748654662
3.2271468 ,Left ,65,4912818124055 ,44,6231346061466 ,77,8783807407704
3.2498133 ,Left ,65,5605872996943 ,44,5763721033323 ,77,8977938291739
3.2872332 ,Left ,65,6296302399426 ,44,4167257160164 ,77,9742809612078
3.3097868 ,Left ,65,6112180298366 ,44,3333621131053 ,78,0026485732163
3.3471126 ,Left ,65,6917825866158 ,44,1548623078085 ,77,9846810613874
3.3693034 ,Left ,65,7044181044849 ,44,1157490455962 ,77,950107594024
3.4067227 ,Left ,65,7132777223143 ,44,2878809100679 ,77,9127308289241
3.4292832 ,Left ,65,7392155207574 ,44,3495345480846 ,77,9210226704746
3.474251 ,Left ,65,7615894591038 ,44,3574020728681 ,77,9594773177404
3.4967969 ,Left ,65,7655355472646 ,44,374361623454 ,77,9641813543961
3.5497181 ,Left ,65,7777722421329 ,44,3563615572666 ,77,9475883039902
3.5872373 ,Left ,65,76646882652 ,44,3512510448041 ,77,9084922354669
3.6097165 ,Left ,65,7824449197213 ,44,3561549431999 ,77,8898710673306
3.6468911 ,Left ,65,8323694842445 ,44,331978783207 ,77,8762238313458
3.6692625 ,Left ,65,8634269589408 ,44,3173163278438 ,77,8718262928302
3.7066096 ,Left ,65,8772482025019 ,44,3258678871536 ,77,8628220193955
3.7292471 ,Left ,65,902512910342 ,44,3432615996553 ,77,8547407509285
3.7665349 ,Left ,65,9475969675046 ,44,3775166727133 ,77,8370155951304
3.7896894 ,Left ,65,9589173978948 ,44,3851523961656 ,77,8257557137993
3.8264567 ,Left ,65,995075514962 ,44,3996833624271 ,77,7712175207652
3.8489911 ,Left ,66,0123633771974 ,44,3984804036663 ,77,7400116485809
3.8865275 ,Left ,66,0453220367307 ,44,38654197747 ,77,6741857102235
3.9094768 ,Left ,66,0591115645355 ,44,3819372465301 ,77,6441829378499
3.9470267 ,Left ,66,0971832642337 ,44,3794103751134 ,77,5736143359293
3.969508 ,Left ,66,1183014226898 ,44,3801972027393 ,77,537711983056
4.0068502 ,Left ,66,1468040150776 ,44,3842787200125 ,77,4565390526146
4.0294787 ,Left ,66,1690746748443 ,44,376496991281 ,77,4055839420079
4.0670257 ,Left ,66,2054156219079 ,44,3516791149657 ,77,2862598818488
4.0893359 ,Left ,66,215648290125 ,44,3428868227173 ,77,2291683950389
4.1267854 ,Left ,66,2506290870042 ,44,3150447355649 ,77,1355279837401
4.1493331 ,Left ,66,274328808143 ,44,3042160512107 ,77,1084804023148
4.1870316 ,Left ,66,3123892922486 ,44,2870372898229 ,77,0860376700252
4.2093855 ,Left ,66,3221749598353 ,44,2865006621194 ,77,0835558553308
4.2244624 ,Left ,66,3252141877327 ,44,2810613031012 ,77,0867404389816
4.2393164 ,Left ,66,3262372708475 ,44,2801134223538 ,77,0908295680657
4.2620349 ,Left ,66,322312147571 ,44,2737095095953 ,77,0977633294256
4.2839201 ,Left ,66,3113440706653 ,44,2763542449835 ,77,1081879083225
4.2989404 ,Left ,66,3011261224282 ,44,2789596722521 ,77,1199518104997
4.3216698 ,Left ,66,2875093180436 ,44,2841282480836 ,77,1344238987519
4.3439186 ,Left ,66,2688774309408 ,44,293436656917 ,77,1597437365314
4.3590163 ,Left ,66,2410807199093 ,44,3018461457652 ,77,1918605827321
4.3816787 ,Left ,66,2081645682752 ,44,3230122427708 ,77,2375067364646
4.4044873 ,Left ,66,1726242338321 ,44,349973511376 ,77,2947616587167
4.4195508 ,Left ,66,1320345832634 ,44,384394217121 ,77,3544442234507
4.4417962 ,Left ,66,0965420653634 ,44,4175198213194 ,77,4191407637852
4.4641916 ,Left ,66,0479668977185 ,44,4379103242506 ,77,4877910881211
4.479569 ,Left ,65,9978869884975 ,44,4537014834183 ,77,5642729872837
4.502006 ,Left ,65,9429735974552 ,44,4735356510264 ,77,6368821457677
4.5242937 ,Left ,65,881600854538 ,44,5066056795908 ,77,7109820789044
4.5391813 ,Left ,65,8235040024505 ,44,5596598049288 ,77,759262725329
4.5616256 ,Left ,65,7640033151352 ,44,5727122593449 ,77,7719185522935
4.583973 ,Left ,65,7117458997133 ,44,5051192208806 ,77,8089939557206
4.5993206 ,Left ,65,647107659067 ,44,4650939243552 ,77,8476541734135
4.6216882 ,Left ,65,5733002621066 ,44,5383811193945 ,77,8627062142983
4.6441958 ,Left ,65,5401784474497 ,44,6633437862943 ,77,8986846904372
4.6664592 ,Left ,65,579565121119 ,44,7735819948474 ,77,9569248557644
4.6815714 ,Left ,65,6176048082529 ,44,8241188664604 ,78,019365956202
4.7042783 ,Left ,65,6262802594488 ,44,8043495155963 ,78,0522982346393
4.7267956 ,Left ,65,627998893228 ,44,7778889589426 ,78,0663223037404
4.7417143 ,Left ,65,665097257693 ,44,7827082998109 ,78,0579954833495
4.7643011 ,Left ,65,7111407002545 ,44,7877336588466 ,78,0370781072336
4.7791267 ,Left ,65,7409733207808 ,44,7926003226479 ,78,015662779851
4.8014448 ,Left ,65,7712216799901 ,44,8074559158173 ,77,9938669803552
4.8240098 ,Left ,65,7927364917235 ,44,8266741358543 ,77,9673387062317
4.8391835 ,Left ,65,8065643114233 ,44,8399643139958 ,77,9480335799837
4.8615892 ,Left ,65,8090956923675 ,44,8419928447305 ,77,926553327567
4.8840741 ,Left ,65,7992136879605 ,44,8194363078584 ,77,9094872810963
4.8992542 ,Left ,65,7868061170672 ,44,7725430879567 ,77,907705986293
4.9218996 ,Left ,65,7605093676167 ,44,7048114814764 ,77,8990252962412
4.9441219 ,Left ,65,7075441296137 ,44,551456279254 ,77,9149236960016
4.9667269 ,Left ,65,7151815384134 ,44,3216784381952 ,77,9490852312347
4.9816688 ,Left ,65,7465503990749 ,44,1798586448784 ,77,938075945717
5.004286 ,Left ,65,7063764089814 ,44,1901540809872 ,77,8976787153538
5.0270695 ,Left ,65,6958745418004 ,44,2517023542869 ,77,8901605603211
5.0417103 ,Left ,65,7382955335679 ,44,3095209251252 ,77,8938622348983
5.0644699 ,Left ,65,7499770208052 ,44,3512424454189 ,77,9149172563276
5.0869353 ,Left ,65,6851936560205 ,44,3756954349962 ,77,9294339936834
5.101779 ,Left ,65,6483486864638 ,44,4128860520709 ,77,9362798231939
5.1242314 ,Left ,65,63263854282 ,44,4381619837114 ,77,9365198087486
5.1466451 ,Left ,65,6048181565626 ,44,4061243022121 ,77,914679940201
5.1616797 ,Left ,65,5702452768452 ,44,2767930756823 ,77,8930709580618
5.1844344 ,Left ,65,5223022679145 ,44,165696793254 ,77,8848919340413
5.206769 ,Left ,65,4764546864682 ,44,1986181174496 ,77,8772754913778
5.2218898 ,Left ,65,5721007483004 ,44,2986246148285 ,77,9051394132656
5.2444535 ,Left ,65,6675232424864 ,44,4127816173636 ,77,96540515318
5.2666002 ,Left ,65,6451136127471 ,44,5335050446512 ,78,0324914383245
5.2819536 ,Left ,65,5395231734415 ,44,6597836493303 ,78,0982884970399
5.3044416 ,Left ,65,4945008945839 ,44,8085133270037 ,78,1404969987336
5.3268791 ,Left ,65,4802167065539 ,44,931868034684 ,78,1735577812174
5.3417584 ,Left ,65,4380081123006 ,44,9852047394466 ,78,2020627008497
5.3643539 ,Left ,65,3825396248212 ,44,9633625381936 ,78,2232237492092
5.3867845 ,Left ,65,3386998449352 ,44,9239790585699 ,78,2277739520046
5.4018756 ,Left ,65,3249485137395 ,44,8987282425142 ,78,2035273295838
5.4241299 ,Left ,65,3275037294962 ,44,8818378581103 ,78,1602864598056
5.4467885 ,Left ,65,3230617979325 ,44,87253541981 ,78,1151692766426
5.4617709 ,Left ,65,2990342142028 ,44,8595529716034 ,78,0709328642609
5.4844838 ,Left ,65,2932901876063 ,44,801843865354 ,78,0349909307813
5.5067796 ,Left ,65,280465690555 ,44,7043603263856 ,78,0133717720288
5.5218952 ,Left ,65,2742392167232 ,44,6386129875204 ,77,99481846138
5.5441286 ,Left ,65,2900831284823 ,44,6485599274037 ,77,9862863073121
5.5666627 ,Left ,65,3599522048173 ,44,6834979758433 ,77,9915166303449
5.5817299 ,Left ,65,4387407252296 ,44,677150475749 ,78,0077704701467
5.6044089 ,Left ,65,4907033743101 ,44,6599303299455 ,78,0284465575121
5.6269387 ,Left ,65,5056519451675 ,44,6358131102529 ,78,0322445800054
5.6418507 ,Left ,65,5524901438543 ,44,6299180277614 ,78,0307744793919
5.6644379 ,Left ,65,6184221520501 ,44,6499059854478 ,78,0111578515235
5.6867344 ,Left ,65,6520190985558 ,44,6745287230359 ,77,9868352777719
5.7018703 ,Left ,65,6628119652374 ,44,7067612085464 ,77,9684593799263
5.7244585 ,Left ,65,662579433156 ,44,753087214909 ,77,9549791257103
5.7465789 ,Left ,65,6493200233257 ,44,8094691952485 ,77,9524138269438
5.7617522 ,Left ,65,621119639235 ,44,8737762664001 ,77,9466587572615
5.7844307 ,Left ,65,5996143812682 ,44,9407794950028 ,77,932509278301
5.8068586 ,Left ,65,5621507991207 ,45,0195838902306 ,77,8967194429789
5.8218785 ,Left ,65,5205200628658 ,45,0995635569455 ,77,8501742367152
5.8444389 ,Left ,65,4841703420375 ,45,1707277421062 ,77,7897472455471
5.8666587 ,Left ,65,4355796426004 ,45,2369946344243 ,77,731723766519
5.8819304 ,Left ,65,3910393934339 ,45,296460027616 ,77,6746492801756
5.9041468 ,Left ,65,3504805997778 ,45,3588794384972 ,77,6250164789522
5.9268579 ,Left ,65,3042931071676 ,45,412598467051 ,77,5843952240214
5.949065 ,Left ,65,2529438061024 ,45,4488429947088 ,77,5525555692675
5.9640263 ,Left ,65,1957967885593 ,45,4505412152139 ,77,5243034024581
5.9867936 ,Left ,65,1525327406462 ,45,4153896477689 ,77,5001576044896
6.0090069 ,Left ,65,1047242604465 ,45,3411091085647 ,77,4859267949212
6.0241232 ,Left ,65,0594697441916 ,45,2183158817659 ,77,481244687088
6.0466406 ,Left ,65,0770502962274 ,45,1129198772827 ,77,4776862884833
6.0691857 ,Left ,65,0861797842336 ,45,0908941567044 ,77,4814979067099
6.0839592 ,Left ,65,1258047192258 ,45,0977241758493 ,77,5072132013236
6.1066268 ,Left ,65,1826307191274 ,45,0728674725914 ,77,5455841807186
6.1293543 ,Left ,65,2644740549573 ,45,0101176534814 ,77,581455894209
6.1443679 ,Left ,65,2982412384626 ,44,939564596889 ,77,61482009233
6.1668991 ,Left ,65,355946657119 ,44,8709560001568 ,77,6527083585432
6.189343 ,Left ,65,392770300054 ,44,8237736066739 ,77,6953619821455
6.2043925 ,Left ,65,4430080603604 ,44,8004606551289 ,77,7364095411837
6.2266221 ,Left ,65,4921455958859 ,44,7983166488566 ,77,7767437218886
6.2493444 ,Left ,65,5150719963605 ,44,7853693963632 ,77,8143363646372
6.2644429 ,Left ,65,525361832256 ,44,7591350672489 ,77,8367641784615
6.2866009 ,Left ,65,5294368890796 ,44,6830606696021 ,77,8387163704174
6.3091797 ,Left ,65,5199466440025 ,44,5424447997961 ,77,8255331062586
6.3241383 ,Left ,65,5404540653776 ,44,4046396097613 ,77,8094476300642
6.3466395 ,Left ,65,5719017432549 ,44,3495703381148 ,77,7819545316761
6.3690538 ,Left ,65,5501728520374 ,44,445048863464 ,77,7616875091265
6.3841944 ,Left ,65,5407741812897 ,44,5400905973631 ,77,7884087760717
6.4067418 ,Left ,65,559833829093 ,44,6070368787832 ,77,8384109173913
6.4292178 ,Left ,65,5729374977061 ,44,6337070576001 ,77,8897830605755
6.4444573 ,Left ,65,5972799372125 ,44,6481315821857 ,77,9240404577134
6.4668724 ,Left ,65,589434097508 ,44,6701562484907 ,77,9239443659497
6.4893416 ,Left ,65,6084368014536 ,44,6758651025304 ,77,909313745839
6.5043542 ,Left ,65,6316047457633 ,44,6778520867541 ,77,8820785585631
6.5268747 ,Left ,65,6402178229924 ,44,6772855514532 ,77,8478852470188
6.5491237 ,Left ,65,6698464445052 ,44,6684961379243 ,77,813647982999
6.564053 ,Left ,65,7222878090213 ,44,652555277275 ,77,7802830756118
6.5865853 ,Left ,65,7628293045804 ,44,6383412245493 ,77,7497507822716
6.6092919 ,Left ,65,7919045160709 ,44,6280093818983 ,77,7255211234811
6.6242985 ,Left ,65,808414772484 ,44,6243385189039 ,77,706131316384
6.6468841 ,Left ,65,8258614002131 ,44,6199991800915 ,77,697614506512
6.6693035 ,Left ,65,8365368440664 ,44,6183651431517 ,77,6993165370284
6.6918622 ,Left ,65,8403685928606 ,44,6283730713377 ,77,7054124963206
6.7140155 ,Left ,65,8349464031363 ,44,6401205326236 ,77,7193760695814
6.7516824 ,Left ,65,8614489413707 ,44,657573085226 ,77,7582894825166
6.7667902 ,Left ,65,863637506973 ,44,6647417705347 ,77,7748794501275
6.7889492 ,Left ,65,856414839704 ,44,6666590477198 ,77,7863909335266
6.8041624 ,Left ,65,8580344675513 ,44,6715716014776 ,77,7853768561341
6.8268366 ,Left ,65,8753515933896 ,44,671099026853 ,77,7749482591844
6.8492963 ,Left ,65,8872198032087 ,44,6718677742122 ,77,7513664714049
6.8718205 ,Left ,65,8995148150192 ,44,6588742943448 ,77,7241799037903
6.8866361 ,Left ,65,9116507001962 ,44,6395853152347 ,77,6887324467855
6.9095706 ,Left ,65,9295825148629 ,44,6151381239735 ,77,6465493922799
6.9321939 ,Left ,65,955093650749 ,44,588204287457 ,77,6023220100804
6.9472451 ,Left ,65,9921102212869 ,44,5547138028387 ,77,5577612929207
6.9698684 ,Left ,66,0339094805778 ,44,5244870350516 ,77,5067976578619
6.9918734 ,Left ,66,0730173317164 ,44,4979029612398 ,77,4499428260797
7.0072223 ,Left ,66,1114518572026 ,44,4807180718253 ,77,3849305473825
7.0293439 ,Left ,66,141985034282 ,44,4729199964265 ,77,31283356612
7.0518169 ,Left ,66,172799203329 ,44,4682358461675 ,77,2416775517292
7.0669534 ,Left ,66,1919101755231 ,44,4672493137367 ,77,1769412611683
7.089368 ,Left ,66,2118842107668 ,44,4662471193922 ,77,113675676077
7.1118031 ,Left ,66,2281218920613 ,44,4672894212147 ,77,0534018804841
7.1267145 ,Left ,66,2449200288323 ,44,4631353279249 ,77,0060639102672
7.14903 ,Left ,66,2576561501375 ,44,4561366171002 ,76,9719177525175
7.1716817 ,Left ,66,2674830200749 ,44,4518231259863 ,76,9484892556077
7.186702 ,Left ,66,2828002014522 ,44,4377714944389 ,76,9352919527953
7.2092671 ,Left ,66,2956995074597 ,44,4223019506033 ,76,9279956188691
7.2317614 ,Left ,66,2937879856762 ,44,408807229275 ,76,9248962102447
7.2465003 ,Left ,66,2900707417692 ,44,4038453952747 ,76,9288207865931
7.2691987 ,Left ,66,2750139366993 ,44,4039825650367 ,76,9441294105622
7.2914403 ,Left ,66,2516451965292 ,44,4091950736309 ,76,9691537444527
7.3067254 ,Left ,66,2110524625747 ,44,4203818388978 ,76,9995011458099
7.3293637 ,Left ,66,1733652225116 ,44,4420581030887 ,77,0493573266817
7.3516645 ,Left ,66,1378970322382 ,44,4722750757478 ,77,1058920923952
7.3668945 ,Left ,66,0955933800082 ,44,5060769314333 ,77,1857148167757
7.3893327 ,Left ,66,0327448526922 ,44,5463207723215 ,77,2849893566639
7.4117212 ,Left ,65,955449558025 ,44,5953787933806 ,77,3876535407188
7.426807 ,Left ,65,868781088742 ,44,6435849705501 ,77,4810101373657
7.4491818 ,Left ,65,7850685846163 ,44,6937904141427 ,77,5600832670631
7.4718686 ,Left ,65,6880982135515 ,44,7402182954513 ,77,6214606209247
7.4870364 ,Left ,65,5896400004989 ,44,76485899401 ,77,6715624751337
7.5092522 ,Left ,65,5150260584898 ,44,7061330544112 ,77,6961942034386
7.5319144 ,Left ,65,4533754660376 ,44,591156533101 ,77,7228807549332
7.5471561 ,Left ,65,4197724726657 ,44,5543379371713 ,77,7153108516122
7.5695995 ,Left ,65,3685877049956 ,44,616276380953 ,77,6855033913149
7.591937 ,Left ,65,3920216061104 ,44,7042116550108 ,77,6866327026664
7.614388 ,Left ,65,4647597253174 ,44,7407978476736 ,77,7260505256923
7.6295108 ,Left ,65,488087592489 ,44,7212832722128 ,77,7729079096454
7.6520104 ,Left ,65,5113241022303 ,44,6728629959732 ,77,8057900310663
7.6742924 ,Left ,65,5223593241784 ,44,6537728548079 ,77,8200641383993
7.6893675 ,Left ,65,5664960796633 ,44,6696441091771 ,77,8221376072988
7.7120828 ,Left ,65,61737077714 ,44,6827067045504 ,77,8140919537274
7.7270621 ,Left ,65,6563362334837 ,44,673907534955 ,77,8049132125713
7.7495148 ,Left ,65,68595288004 ,44,6744243971707 ,77,8007405895236
7.7720918 ,Left ,65,6937775354739 ,44,6923898022296 ,77,7883124086877
7.7945477 ,Left ,65,6884229261081 ,44,7239903980908 ,77,7781097425436
7.8095703 ,Left ,65,6917884531902 ,44,7604382997865 ,77,7658566627808
7.8319559 ,Left ,65,696213043404 ,44,7779920496362 ,77,7554166629069
7.8545563 ,Left ,65,6745594129896 ,44,7408553888036 ,77,7494477735796
7.869004 ,Left ,65,637501099752 ,44,6403508249272 ,77,7663991283488
7.8915388 ,Left ,65,5769949585237 ,44,4378916453561 ,77,8005047220385
7.9141485 ,Left ,65,6062928458305 ,44,2672577443118 ,77,8022227172906
7.9289635 ,Left ,65,6178830173068 ,44,2679693480457 ,77,7616903037756
7.9514973 ,Left ,65,5963208562717 ,44,3568425570365 ,77,7508037100249
7.9740884 ,Left ,65,6439100448284 ,44,4384427955904 ,77,7617881301997
7.9893279 ,Left ,65,6762649034115 ,44,4852972622283 ,77,7955364495452
8.0118133 ,Left ,65,6266549926636 ,44,4990500043224 ,77,80296862956
8.0341608 ,Left ,65,5695134572269 ,44,4943168258754 ,77,8023179612852
8.0493191 ,Left ,65,5231961308496 ,44,4485205390312 ,77,7692439246947
8.0718485 ,Left ,65,4692463625526 ,44,351240674957 ,77,7378582046362
8.0942638 ,Left ,65,3919118390997 ,44,2389227159936 ,77,7113867793342
8.1018842 ,Left ,65,3161039575115 ,44,2219435336076 ,77,6870806058811
8.1241206 ,Left ,65,2932366121816 ,44,2944514804913 ,77,6969393300093
8.1466648 ,Left ,65,3530761831957 ,44,3417609543715 ,77,7551469048258
8.1616853 ,Left ,65,3662675128311 ,44,3946048884305 ,77,8378394696072
8.1844447 ,Left ,65,3122689484259 ,44,4689704970034 ,77,918956478711
8.2219487 ,Left ,65,1735656356733 ,44,6801092454752 ,78,0008567595293
8.2444358 ,Left ,65,1585205744679 ,44,7839606509572 ,78,0054959300332
8.282009 ,Left ,65,1033144533488 ,44,8675353283094 ,77,9802559640098
8.3042255 ,Left ,65,074583883082 ,44,8455966001016 ,77,9928662347885
8.3415214 ,Left ,65,0577686830451 ,44,8409782149391 ,78,0625780648088
8.3642149 ,Left ,65,057529234855 ,44,8621414669549 ,78,0933423918289
8.4018403 ,Left ,65,0064462516114 ,44,8665184934019 ,78,0961859138709
8.4243228 ,Left ,64,9981909864435 ,44,7769687736162 ,78,0578872118509
8.4619565 ,Left ,64,9728437158052 ,44,6199755498237 ,78,0220492699641
8.4842857 ,Left ,64,9715938922448 ,44,6533051199787 ,78,0211600141206
8.5219866 ,Left ,65,1184935548424 ,44,6756894734827 ,78,0794868353784
8.5440204 ,Left ,65,1732709008363 ,44,668507814907 ,78,0974805089167
8.5891443 ,Left ,65,2597439565819 ,44,7335704149807 ,78,0831994019439
8.6117548 ,Left ,65,2966224300013 ,44,8070418077416 ,78,0586424841823
8.6416218 ,Left ,65,3000796108293 ,44,92912098085 ,78,0026576252773
8.6642461 ,Left ,65,2874019670045 ,44,9878457338685 ,77,9636639907715
8.7017967 ,Left ,65,2660971711302 ,45,1357245198693 ,77,8502016134714
8.7242726 ,Left ,65,2522594684427 ,45,195612272668 ,77,7841810448263
8.7614757 ,Left ,65,2104834783282 ,45,2863470555874 ,77,6340501974559
8.7838187 ,Left ,65,1670043239704 ,45,3261418007854 ,77,5641275332489
8.8216519 ,Left ,65,06744151035 ,45,3436127623014 ,77,4797738141974
8.8439877 ,Left ,65,0124090729224 ,45,2555502663083 ,77,4614026951028
8.8816588 ,Left ,64,9774143414357 ,44,9384733846378 ,77,4567592768945
8.9043616 ,Left ,64,9654676564909 ,44,9713138435987 ,77,4512912318326
8.9418554 ,Left ,65,0504726355333 ,45,0243145806201 ,77,5186011459499
8.96426 ,Left ,65,112735590418 ,44,9594622675371 ,77,5670941866609
9.001828 ,Left ,65,2049429867666 ,44,800975983322 ,77,6282580131501
9.0244122 ,Left ,65,2586730393021 ,44,7821624601124 ,77,6441803706114
9.0620462 ,Left ,65,352972518996 ,44,7246522942175 ,77,6817420486659
9.0845064 ,Left ,65,3558720983448 ,44,6810839531895 ,77,6864318544323
9.1070196 ,Left ,65,3429849488242 ,44,622080480671 ,77,6895510337973
9.1220129 ,Left ,65,3276013973302 ,44,5106175836291 ,77,6770581250639
9.1445105 ,Left ,65,3524476271961 ,44,3634164400072 ,77,6533866892937
9.1895607 ,Left ,65,4280661011633 ,44,2941527596738 ,77,5849579183371
9.2119608 ,Left ,65,4503883129315 ,44,4021321260881 ,77,5759453214274
9.2644207 ,Left ,65,5569961525954 ,44,542736154707 ,77,7001629977111
9.3019596 ,Left ,65,5996354319432 ,44,5569081356507 ,77,7038680966449
9.3243946 ,Left ,65,6266586542957 ,44,5571221128948 ,77,687744166362
9.3621673 ,Left ,65,6594291642607 ,44,5558396186625 ,77,6338575015243
9.3845261 ,Left ,65,7045142293853 ,44,554042126402 ,77,5976382982514
9.4220244 ,Left ,65,7799782661089 ,44,5252512330972 ,77,5634339155317
9.444594 ,Left ,65,7915729487702 ,44,5145386642795 ,77,5582984215678
9.4819999 ,Left ,65,8143544854152 ,44,5183099880324 ,77,555897814887
9.5044415 ,Left ,65,8205760325361 ,44,5241610471152 ,77,5541070257859
9.5416349 ,Left ,65,8328637319524 ,44,5325418808439 ,77,5508757655266
9.5641953 ,Left ,65,8417638479124 ,44,5372296779893 ,77,5420627166228
9.6017785 ,Left ,65,8387276977213 ,44,5465473901449 ,77,5368388256365
9.6239931 ,Left ,65,8465268345218 ,44,5468436282639 ,77,5288365109067
9.6618685 ,Left ,65,8687919967107 ,44,5492974316071 ,77,4912838122681
9.6842562 ,Left ,65,8878044267831 ,44,547447177445 ,77,4576143834148
9.7216949 ,Left ,65,9109686080891 ,44,5512548633973 ,77,366638261806
9.7440205 ,Left ,65,923583879944 ,44,5488344031622 ,77,3069168867728
9.7817484 ,Left ,65,946991251976 ,44,5474435264628 ,77,18336367302
9.8045773 ,Left ,65,958582991082 ,44,5418337541205 ,77,113805293927
9.8418227 ,Left ,65,9922874598141 ,44,5353116761885 ,76,9839007339001
9.8642297 ,Left ,66,0089891150368 ,44,5281229988097 ,76,9277819528079
9.9018685 ,Left ,66,04544770876 ,44,5147546090948 ,76,8340689384074
9.9242692 ,Left ,66,0625140047326 ,44,5030825048677 ,76,7962595548812
9.9617389 ,Left ,66,0950103124608 ,44,4747021175702 ,76,7363971507863
9.9769999 ,Left ,66,0957477270216 ,44,4662739844521 ,76,7189611335319
9.9993108 ,Left ,66,090940930152 ,44,4664355528458 ,76,7088976270023
10.0144393 ,Left ,66,0850491386025 ,44,4671553511056 ,76,7029004339285
10.036982 ,Left ,66,0707786203747 ,44,4806054772549 ,76,7119855165116
10.059377 ,Left ,66,0431419777708 ,44,5033118637875 ,76,7413722189304
10.0742712 ,Left ,66,0070715355701 ,44,5424186104974 ,76,7919970935897
10.0969687 ,Left ,65,9510376908436 ,44,5811268880784 ,76,8560616688824
10.1193079 ,Left ,65,8926360242854 ,44,6161123379531 ,76,9237508918773
10.1342749 ,Left ,65,8314568757292 ,44,6452513897987 ,76,9915097405921
10.1568523 ,Left ,65,7731918413564 ,44,6717335613708 ,77,063472692162
10.1793827 ,Left ,65,7182316645755 ,44,6844925684264 ,77,1360736585368
10.1944044 ,Left ,65,6390485743534 ,44,6842820790896 ,77,2061943485328
10.2170058 ,Left ,65,5248389768504 ,44,6562885428023 ,77,2647813996349
10.2393384 ,Left ,65,461316756828 ,44,6285202302648 ,77,3031108632335
10.2544413 ,Left ,65,4504401054105 ,44,5491180369802 ,77,3106900867044
10.2767643 ,Left ,65,4145258140498 ,44,5086311449619 ,77,312522251461
10.2993906 ,Left ,65,393352976281 ,44,546859239568 ,77,3006434654051
10.314448 ,Left ,65,4187207904804 ,44,5831133719571 ,77,3187717048033
10.336533 ,Left ,65,4885137841747 ,44,5883588726092 ,77,3550124241219
10.3589588 ,Left ,65,5453758786912 ,44,5666483496546 ,77,3832189837893
10.3739125 ,Left ,65,5515292006993 ,44,5440244393385 ,77,4039311068489
10.3965803 ,Left ,65,5548301035701 ,44,5566898778067 ,77,4107773498982
10.4193278 ,Left ,65,5884939728017 ,44,6067612801525 ,77,4039738832376
10.4344461 ,Left ,65,6350896360671 ,44,6829370331836 ,77,3912181775757
10.4568878 ,Left ,65,6838935634574 ,44,7504218950372 ,77,373370274076
10.4816948 ,Left ,65,7083949210383 ,44,7778005237314 ,77,357402740001
10.4941388 ,Left ,65,6844806867812 ,44,7595365670056 ,77,3608227598415
10.5169873 ,Left ,65,6425677095081 ,44,6926366473352 ,77,3830905094294
10.539438 ,Left ,65,612919733403 ,44,6022948892964 ,77,4175405960688
10.5544935 ,Left ,65,6169864092852 ,44,4890739798329 ,77,4437637966024
10.5769887 ,Left ,65,6453361432243 ,44,3267203549802 ,77,4511189119249
10.5993069 ,Left ,65,67552136174 ,44,2141835426586 ,77,4333294960295
10.6218614 ,Left ,65,6208590707032 ,44,2317876596247 ,77,405661705415
10.6367345 ,Left ,65,6268747347038 ,44,3049588113326 ,77,3966244134648
10.6592816 ,Left ,65,7006649101932 ,44,3606329605375 ,77,4027668142825
10.6817966 ,Left ,65,7196040579589 ,44,4070840521242 ,77,4217057413199
10.6967714 ,Left ,65,638003855503 ,44,4380838608945 ,77,4388862345105
10.719865 ,Left ,65,5954698230449 ,44,4734886134022 ,77,4537113116726
10.7421207 ,Left ,65,5755924861171 ,44,4581399309952 ,77,4431271427321
10.7574532 ,Left ,65,5511297912096 ,44,3548947529153 ,77,4423719906921
10.7798315 ,Left ,65,4978342437267 ,44,1986074562969 ,77,4337760716053
10.8023635 ,Left ,65,4209236348506 ,44,1739711281173 ,77,3840957712159
10.8173976 ,Left ,65,4436575960177 ,44,244508358381 ,77,3437696700486
10.8394882 ,Left ,65,517624384802 ,44,3301961017124 ,77,3404989143438
10.8619451 ,Left ,65,517566602869 ,44,4446435453919 ,77,3588662300037
10.8767873 ,Left ,65,4156560180842 ,44,5449726242748 ,77,3979143062129
10.8992814 ,Left ,65,3353006844068 ,44,6665705250026 ,77,4342164691093
10.9215487 ,Left ,65,3007518054783 ,44,7674666060734 ,77,4960839573004
10.9367824 ,Left ,65,2532961817525 ,44,8134177668658 ,77,5724275672855
10.9592602 ,Left ,65,2064881919896 ,44,7952972952944 ,77,6453746289343
10.9819197 ,Left ,65,1644770360892 ,44,7645953679923 ,77,690144241517
10.9971829 ,Left ,65,1336537930476 ,44,751942196367 ,77,7054672835451
11.0195687 ,Left ,65,1220963604087 ,44,7636632676625 ,77,6995080764861
11.0419434 ,Left ,65,1183612882614 ,44,7712855449954 ,77,6808191762786
11.0568631 ,Left ,65,1013114044151 ,44,7496721287894 ,77,6532573436565
11.0792018 ,Left ,65,0784928740849 ,44,7014988513361 ,77,6330747727954
11.1018817 ,Left ,65,0713436970162 ,44,6042710093125 ,77,6185835999816
11.1170051 ,Left ,65,0760232099584 ,44,4867543838735 ,77,5997392456949
11.1395987 ,Left ,65,0685074476946 ,44,4724352348751 ,77,5724196237947
11.1619181 ,Left ,65,0785615848957 ,44,5327883409317 ,77,552162977514
11.1845418 ,Left ,65,1442268060049 ,44,5691560563675 ,77,5810019766496
11.2069057 ,Left ,65,2091557484736 ,44,5593042447112 ,77,6287231298487
11.237109 ,Left ,65,2807612969316 ,44,5308900466698 ,77,6804606031737
11.2593888 ,Left ,65,3126026666827 ,44,5575763706024 ,77,6787642004658
11.281999 ,Left ,65,3465448904092 ,44,5933526055819 ,77,6821113849578
11.297056 ,Left ,65,3736810979693 ,44,6285105537318 ,77,6811613889465
11.3195665 ,Left ,65,3792263054989 ,44,6521407860637 ,77,6883357252755
11.3418268 ,Left ,65,3836334409796 ,44,6697021159282 ,77,6926803057992
11.3568315 ,Left ,65,3839042056032 ,44,6780573332451 ,77,7034632729052
11.3793361 ,Left ,65,3887327635102 ,44,6928668006517 ,77,7151837879938
11.402052 ,Left ,65,3758870651849 ,44,7258253244454 ,77,7165705532707
11.4170107 ,Left ,65,3522488648716 ,44,7829190939335 ,77,6988397973985
11.4395223 ,Left ,65,3259517345004 ,44,8631558946418 ,77,6651468169458
11.4620933 ,Left ,65,3105699144341 ,44,9587620898153 ,77,6233124687069
11.477018 ,Left ,65,2922004255623 ,45,0492751993726 ,77,5723780510708
11.4992084 ,Left ,65,2571054633494 ,45,1283687788851 ,77,5230854605965
11.5218437 ,Left ,65,2208445408574 ,45,1813937625401 ,77,4732661459379
11.5368584 ,Left ,65,187510809505 ,45,233844624414 ,77,4230909626822
11.5592416 ,Left ,65,1513637866979 ,45,2719948196994 ,77,3785792073412
11.5817828 ,Left ,65,1040206074049 ,45,299888217948 ,77,3508288321781
11.6044229 ,Left ,65,0586048965374 ,45,2989356899574 ,77,3208558706338
11.6191142 ,Left ,65,0260379604802 ,45,2589678791628 ,77,2902610060621
11.641533 ,Left ,64,9894091194909 ,45,1269224491855 ,77,269384211257
11.6642418 ,Left ,64,9930488413161 ,44,9520806309208 ,77,2670048350567
11.6794386 ,Left ,65,0176682421104 ,44,9035621642519 ,77,2356120462852
11.7017137 ,Left ,65,0437942226145 ,44,9207330142077 ,77,21648825675
11.7241723 ,Left ,65,1480025396517 ,44,9247817630156 ,77,2297957070851
11.739444 ,Left ,65,2598699205249 ,44,8642129370441 ,77,2535048668771
11.7619031 ,Left ,65,3388562204781 ,44,802300335823 ,77,2729987652147
11.7844827 ,Left ,65,356023083011 ,44,7540110047496 ,77,3018899553513
11.7993561 ,Left ,65,4185492660569 ,44,7351879342566 ,77,3285207335392
11.8219568 ,Left ,65,4806931238034 ,44,7193480804086 ,77,3617437827779
11.8444723 ,Left ,65,5524351065261 ,44,700768366936 ,77,4049693066017
11.8592912 ,Left ,65,5672835447232 ,44,6809733660161 ,77,4512010565251
11.8818493 ,Left ,65,5534202372244 ,44,6621684066909 ,77,4836974034981
11.9044622 ,Left ,65,53811042666 ,44,6154016037855 ,77,4967603032781
11.9191903 ,Left ,65,5299114547617 ,44,5198052004799 ,77,4958871995147
11.9415671 ,Left ,65,5334833544731 ,44,3911798257023 ,77,4820199476995
11.9644201 ,Left ,65,5301533249051 ,44,2945865943041 ,77,4609635755601
11.9792892 ,Left ,65,5022743776744 ,44,3601874050452 ,77,4242983844706
12.0017993 ,Left ,65,4780288233669 ,44,4817570047833 ,77,4219142532422
12.0241027 ,Left ,65,5005770029162 ,44,5842445126989 ,77,4586129401235
12.0390501 ,Left ,65,5306047181179 ,44,6251211267351 ,77,5043077438109
12.0617813 ,Left ,65,5298522035943 ,44,6424158653233 ,77,5450639924905
12.0843859 ,Left ,65,5055076579013 ,44,6624798350018 ,77,5477093453628
12.0993576 ,Left ,65,520851238683 ,44,6596481451582 ,77,5392158878481
12.1218613 ,Left ,65,5464568756938 ,44,6597162112523 ,77,5137359640872
12.1442414 ,Left ,65,5523230476883 ,44,6561105778241 ,77,4808093456928
12.1593229 ,Left ,65,5732598523879 ,44,6453099300663 ,77,4416302971289
12.1817181 ,Left ,65,602532634154 ,44,6281518922058 ,77,4037303048045
12.2042329 ,Left ,65,6470677234111 ,44,6121861903368 ,77,370350624946
12.2193232 ,Left ,65,6927580839217 ,44,6023391505039 ,77,3398962499558
12.2416388 ,Left ,65,7262993958702 ,44,5996025442355 ,77,3140705012861
12.264399 ,Left ,65,7581121481381 ,44,6060693843892 ,77,2936696310325
12.2793811 ,Left ,65,7608469128307 ,44,6309587764556 ,77,2783536716308
12.3018484 ,Left ,65,7667677866821 ,44,66346621993 ,77,2667338352941
12.3241792 ,Left ,65,7735795170643 ,44,6851368330053 ,77,259574907049
12.3389848 ,Left ,65,771042976292 ,44,7031861231022 ,77,2650699812975
12.361428 ,Left ,65,7646529169801 ,44,7202510963921 ,77,2726487401583
12.3840341 ,Left ,65,7594508187174 ,44,7256335835653 ,77,2873567048125
12.4067536 ,Left ,65,752687581362 ,44,7277304005969 ,77,3067998930433
12.4219045 ,Left ,65,7458195718428 ,44,7320743380448 ,77,3205849277165
12.4443165 ,Left ,65,7325196685567 ,44,7383094702687 ,77,3322445154111
12.4593435 ,Left ,65,7308292021654 ,44,7372652622612 ,77,331314522271
12.4818148 ,Left ,65,7271668862912 ,44,7357303127793 ,77,3278890789997
12.5042235 ,Left ,65,7295134087079 ,44,7284835311068 ,77,3193379288148
12.5191714 ,Left ,65,7326505002089 ,44,7192695673515 ,77,3095698826595
12.5415211 ,Left ,65,7308664602731 ,44,7115959650226 ,77,3015480495621
12.564177 ,Left ,65,7336929957842 ,44,6979607497323 ,77,2939295371272
12.5869325 ,Left ,65,7364863003393 ,44,6721245226574 ,77,2923363592974
12.6019552 ,Left ,65,7356131516626 ,44,6536153527994 ,77,2887619994123
12.6246152 ,Left ,65,7386706891135 ,44,6482857115596 ,77,2770653172911
12.6466229 ,Left ,65,7401962108549 ,44,6518667173801 ,77,264091057814
12.6615466 ,Left ,65,7478331803832 ,44,654717855432 ,77,2422869864926
12.6841879 ,Left ,65,7627730114889 ,44,6520882835746 ,77,2176738022188
12.7067372 ,Left ,65,7793559723147 ,44,6511351895951 ,77,1846032959043
12.7217088 ,Left ,65,8000090953508 ,44,6473015105387 ,77,1514152626391
12.7443977 ,Left ,65,8164532140479 ,44,6452943528351 ,77,1131491162356
12.7671963 ,Left ,65,8391115583093 ,44,6423275467831 ,77,0742955996647
12.7819888 ,Left ,65,85953096512 ,44,6413752534767 ,77,0340572292829
12.8047344 ,Left ,65,8922470433411 ,44,6354904423322 ,76,9917895671892
12.8269053 ,Left ,65,9174686281053 ,44,6286991829196 ,76,9519893196627
12.8416941 ,Left ,65,9491348925354 ,44,6223977138105 ,76,9086874765714
12.8643015 ,Left ,65,9803210689414 ,44,6126007951535 ,76,8647601832572
12.8865927 ,Left ,66,0039104521823 ,44,6034854000614 ,76,8270330417879
12.9015986 ,Left ,66,0166121860183 ,44,59096623783 ,76,7979516112315
12.9244388 ,Left ,66,0251559938786 ,44,5776379060534 ,76,7775440120709
12.9468466 ,Left ,66,0344517613188 ,44,5643215987804 ,76,7584089787664
12.9619303 ,Left ,66,0345959986483 ,44,5546693687836 ,76,750536648943
12.9841972 ,Left ,66,0270651338305 ,44,5490034758237 ,76,7483871644958
13.0067205 ,Left ,66,0055255172555 ,44,549866831672 ,76,7563646320947
13.0218938 ,Left ,65,9797637742216 ,44,5552363087674 ,76,7682154448589
13.0441256 ,Left ,65,9519005668025 ,44,5617715855936 ,76,7882086183294
13.0665262 ,Left ,65,9183749090243 ,44,572527422257 ,76,8176288059658
13.0816609 ,Left ,65,8740600220356 ,44,5929100290637 ,76,8563227872162
13.1040555 ,Left ,65,8224960919932 ,44,6135030314887 ,76,9026775833107
13.1264283 ,Left ,65,7691704186942 ,44,6384189969202 ,76,958045810218
13.1422941 ,Left ,65,7194298213639 ,44,6655765475147 ,77,0153002766914
13.1649474 ,Left ,65,6624715984963 ,44,6839291275986 ,77,0630573360043
13.1872027 ,Left ,65,6131177810722 ,44,6999570664803 ,77,1088426896681
13.2021457 ,Left ,65,5590422620332 ,44,7021194152002 ,77,1550298999383
13.2242731 ,Left ,65,4974364903209 ,44,6933296136455 ,77,2123860541749
13.2468745 ,Left ,65,4599332027559 ,44,6537575316699 ,77,2623821765701
13.2618997 ,Left ,65,4239996869719 ,44,6145606251617 ,77,2840181826451
13.2844243 ,Left ,65,3875293846521 ,44,5853011576072 ,77,3040513906782
13.3068629 ,Left ,65,3386155597932 ,44,6219780455654 ,77,3088468436679
13.3222515 ,Left ,65,3386075277602 ,44,6773902474033 ,77,3368399715065
13.3440623 ,Left ,65,3875752243704 ,44,7306232276472 ,77,3921113597784
13.3665321 ,Left ,65,4303956405903 ,44,7431834255301 ,77,4557090154469
13.3817248 ,Left ,65,4694909219171 ,44,7353679755426 ,77,4991561068111
13.4048554 ,Left ,65,4836555585371 ,44,7139179482266 ,77,5254620272408
13.4271024 ,Left ,65,5012783233868 ,44,7210400921605 ,77,5434263200989
13.4420256 ,Left ,65,5670828782457 ,44,7516763665547 ,77,5318478021396
13.4645676 ,Left ,65,6280089044934 ,44,7910680705682 ,77,5128549073825
13.4870485 ,Left ,65,676855751452 ,44,8323100058522 ,77,5036193006881
13.5095148 ,Left ,65,6943868882355 ,44,8719794910619 ,77,5043517704779
13.5244594 ,Left ,65,6977493420536 ,44,9047083860621 ,77,508314629032
13.5470808 ,Left ,65,7111908714422 ,44,9406152134006 ,77,5171633508252
13.5692165 ,Left ,65,7117845950829 ,44,967909027412 ,77,5210193135561
13.5844752 ,Left ,65,6897968959245 ,44,9768020193678 ,77,5169299067905
13.606966 ,Left ,65,663117805776 ,44,9491457594589 ,77,5151525667189
13.6371221 ,Left ,65,6422246390629 ,44,8961131164903 ,77,509957263186
13.6520204 ,Left ,65,6011971706933 ,44,8440835815823 ,77,4926404578555
13.6745787 ,Left ,65,5891007350254 ,44,7571380432475 ,77,4719712433849
13.6893738 ,Left ,65,5965322312981 ,44,5890690267034 ,77,4698477308181
13.704409 ,Left ,65,6469023497429 ,44,4521796769217 ,77,4610779335152
13.7267846 ,Left ,65,5941376417615 ,44,4754738600533 ,77,4385758065554
13.7490024 ,Left ,65,5948302010338 ,44,5658481140196 ,77,4456114939593
13.7642094 ,Left ,65,6729676765885 ,44,6321927653477 ,77,4722992702086
13.7865175 ,Left ,65,7056928487493 ,44,6809328215032 ,77,5114229383526
13.8092777 ,Left ,65,6250604186062 ,44,7042894409377 ,77,5319716021597
13.8240819 ,Left ,65,5621878841044 ,44,7300239871624 ,77,5511602142773
13.8473878 ,Left ,65,5474836231778 ,44,7314373747665 ,77,5489619771037
13.869581 ,Left ,65,5314275164282 ,44,6916389683183 ,77,5443512251378
13.877281 ,Left ,65,4728999093553 ,44,570605524367 ,77,5360341212386
13.8993458 ,Left ,65,4282191489548 ,44,5037846922695 ,77,5316249058004
13.9218055 ,Left ,65,4218591905566 ,44,5514187656196 ,77,5265781053522
13.9368127 ,Left ,65,5257575011387 ,44,6278852191136 ,77,5413716841838
13.9592329 ,Left ,65,5971449672475 ,44,6956879047622 ,77,5879005929026
13.9816583 ,Left ,65,5466107766512 ,44,7642279931281 ,77,6419783677762
13.9968826 ,Left ,65,4365721418053 ,44,8330286742338 ,77,7136907652342
14.0194472 ,Left ,65,3694113260079 ,44,9191814094097 ,77,7658751154806
14.0569968 ,Left ,65,2796384053133 ,45,0542959757855 ,77,8565494752916
14.0793459 ,Left ,65,2086343122492 ,45,0600878385105 ,77,8832821521416
14.1171058 ,Left ,65,1370621096494 ,45,0723067297898 ,77,8857771470205
14.1396355 ,Left ,65,1228724676131 ,45,0928848693941 ,77,8678063957146
14.1845577 ,Left ,65,1132234253722 ,45,1218802412446 ,77,8159836246541
14.2067878 ,Left ,65,0957484635435 ,45,1287979440483 ,77,802186620748
14.2370087 ,Left ,65,0611374545742 ,45,1281067512978 ,77,8030738188234
14.2594811 ,Left ,65,0519649644272 ,45,1207721613102 ,77,8028562029764
14.2971953 ,Left ,65,0163263687448 ,45,0732012509967 ,77,7877885847922
14.3195846 ,Left ,64,989442691251 ,45,035955112194 ,77,7723901540645
14.3569493 ,Left ,64,9844014434653 ,44,8885068237987 ,77,7672838085856
14.3790693 ,Left ,64,9730825282928 ,44,8251257241826 ,77,7398372375557
14.4173191 ,Left ,64,9654565970323 ,44,7964723044401 ,77,7025608284762
14.439196 ,Left ,65,0284196249226 ,44,8847677133936 ,77,7037109056772
14.4623188 ,Left ,65,1646097319271 ,44,9415474666425 ,77,7306190288932
14.4772316 ,Left ,65,2580146003328 ,44,9475296633462 ,77,7572965457276
14.4997922 ,Left ,65,315802289183 ,44,9314123050122 ,77,789115635148
14.5223766 ,Left ,65,3331720422063 ,44,9190461536605 ,77,7928783914009
14.5369007 ,Left ,65,3930148821342 ,44,905770881127 ,77,7840957004766
14.5594084 ,Left ,65,4678974178681 ,44,8975961216196 ,77,769732309236
14.5968841 ,Left ,65,575081185882 ,44,8572730883537 ,77,7374605668156
14.6193759 ,Left ,65,6002487556472 ,44,8215694657259 ,77,7291039848256
14.6568492 ,Left ,65,6559527275444 ,44,7644936259937 ,77,7327133114793
14.6792996 ,Left ,65,6719195482175 ,44,7492999985899 ,77,7469215026406
14.7017799 ,Left ,65,675613891126 ,44,7437685816557 ,77,7667282993313
14.7168639 ,Left ,65,6651753983588 ,44,748881614902 ,77,7865533201936
14.7394683 ,Left ,65,6509527300128 ,44,7547188426993 ,77,8122668312415
14.7769332 ,Left ,65,6198945658517 ,44,8023346397877 ,77,8482012233074
14.7989955 ,Left ,65,5918435478192 ,44,8366258557438 ,77,8544201082999
14.837352 ,Left ,65,5425727081587 ,44,9217544434304 ,77,8258659163831
14.8596077 ,Left ,65,5016272814457 ,44,9673740362836 ,77,8098139027811
14.8968142 ,Left ,65,4219646661518 ,45,0731089984051 ,77,761389534918
14.9189969 ,Left ,65,3679459813455 ,45,1492110938423 ,77,7203627293517
14.9415687 ,Left ,65,3121259105621 ,45,2336111861582 ,77,6701601250514
14.9798057 ,Left ,65,211394680478 ,45,3852976353876 ,77,5405923240981
15.00226 ,Left ,65,1718027978708 ,45,4149719940565 ,77,4801366654302
15.0394159 ,Left ,65,0977186923528 ,45,3454568646898 ,77,4238863355277
15.0620459 ,Left ,65,0609720990183 ,45,2282845104117 ,77,4144001081511
15.0995363 ,Left ,65,0701638173129 ,45,0380824561079 ,77,4171318094738
15.1370537 ,Left ,65,0645271995302 ,45,1182837742716 ,77,4772028694272
15.158991 ,Left ,65,141384702682 ,45,1022726075167 ,77,5504015004943
15.1967086 ,Left ,65,2866351619105 ,44,94973799002 ,77,6201343678687
15.2194996 ,Left ,65,309826422737 ,44,8751027089544 ,77,6270709696789
15.2570397 ,Left ,65,4223789751515 ,44,804520652118 ,77,5810439439932
15.2790664 ,Left ,65,4752485670086 ,44,7832828148929 ,77,5623736588133
15.3167965 ,Left ,65,5348030323177 ,44,6851117303273 ,77,528676217587
15.339652 ,Left ,65,5495555838767 ,44,5567977481661 ,77,5150130662455
15.3772592 ,Left ,65,5846162100303 ,44,3564892680353 ,77,4902439612756
15.3997816 ,Left ,65,6065654041205 ,44,3889999498715 ,77,463309229539
15.4371591 ,Left ,65,6302395709222 ,44,5403893966999 ,77,5077894178664
15.4594759 ,Left ,65,6578200666462 ,44,5713464097807 ,77,5640627947373
15.4972674 ,Left ,65,6666182216939 ,44,5804985063592 ,77,6271108541858
15.5196309 ,Left ,65,6632827262553 ,44,5870145048661 ,77,627801603858
15.5570256 ,Left ,65,7210011352451 ,44,5571743483606 ,77,607129043815
15.5795999 ,Left ,65,7158613651822 ,44,5435704214611 ,77,5992277816809
15.6165282 ,Left ,65,7533453203823 ,44,5286880094644 ,77,5939448219342
15.6391839 ,Left ,65,7775211165906 ,44,5217558674212 ,77,6042189792191
15.6770747 ,Left ,65,8023971414661 ,44,5036749289651 ,77,6492953012322
15.6997578 ,Left ,65,7998387273884 ,44,5061298569385 ,77,668484834774
15.7373868 ,Left ,65,8115012318567 ,44,5228917119409 ,77,6887547798905
15.7522904 ,Left ,65,815867890951 ,44,5279229888588 ,77,6927742124255
15.774473 ,Left ,65,8214093637989 ,44,5407414560529 ,77,6883684957956
15.7895821 ,Left ,65,8194065662274 ,44,5422152651784 ,77,6884594394929
15.811814 ,Left ,65,8207524009886 ,44,5514047924121 ,77,6770583807659
15.8339664 ,Left ,65,8304094620044 ,44,5541055685362 ,77,6669660935291
15.8489756 ,Left ,65,8332851035244 ,44,5596473446363 ,77,6519919953925
15.8716766 ,Left ,65,8470052313069 ,44,5647177678343 ,77,6368031148755
15.8940952 ,Left ,65,8489394734731 ,44,5672825882175 ,77,6196659999865
15.909317 ,Left ,65,8510029031126 ,44,5659465240164 ,77,6044941291373
15.9318631 ,Left ,65,8468880798714 ,44,5640744318134 ,77,5861614809638
15.9543815 ,Left ,65,8518097354103 ,44,5629767624321 ,77,5609994417242
15.9692029 ,Left ,65,8618879195669 ,44,5617043786616 ,77,5311453728882
15.9917548 ,Left ,65,8749853504453 ,44,5567891890339 ,77,493275709248
16.0143192 ,Left ,65,8779969468975 ,44,5576461010805 ,77,4449262309038
16.0291773 ,Left ,65,8926770504256 ,44,5551259171542 ,77,3820490314123
16.0515731 ,Left ,65,9132552923988 ,44,5491121200925 ,77,3163104751928
16.0740537 ,Left ,65,9314956939713 ,44,5427687651857 ,77,2389824402608
16.0892947 ,Left ,65,9449806800314 ,44,5310353843426 ,77,1646755990386
16.1118269 ,Left ,65,9617316895192 ,44,5169611167877 ,77,0944973278232
16.1342997 ,Left ,65,977647788435 ,44,5034647270665 ,77,0285597304887
16.1492581 ,Left ,66,0013329586474 ,44,4902788609433 ,76,9696937340131
16.1715396 ,Left ,66,0233541374334 ,44,4854053062115 ,76,925984075636
16.1947977 ,Left ,66,0460772281761 ,44,4795564300187 ,76,9011534908904
16.2095791 ,Left ,66,0498408295078 ,44,4745192681025 ,76,8974460940877
16.2321512 ,Left ,66,0470740672956 ,44,4706391492599 ,76,9010574934746
16.2542421 ,Left ,66,0407130561535 ,44,468239125323 ,76,9090059689326
16.2689035 ,Left ,66,0391251393647 ,44,470214772013 ,76,9088958630142
16.2915652 ,Left ,66,0217945451618 ,44,4693768513825 ,76,922005415002
16.314051 ,Left ,65,993584826941 ,44,4688515663796 ,76,9352529084845
16.3365206 ,Left ,65,9573906120904 ,44,4745235556159 ,76,956565758197
16.3515636 ,Left ,65,9242460612871 ,44,4882280978305 ,76,9803011526361
16.3739373 ,Left ,65,8741214191435 ,44,5026023595419 ,77,0142834632062
16.396613 ,Left ,65,8286619773409 ,44,5293668692117 ,77,0590938612673
16.411593 ,Left ,65,7826699464476 ,44,5559341486425 ,77,1107746706753
16.434257 ,Left ,65,7271070947328 ,44,5823545658608 ,77,158531033997
16.4566901 ,Left ,65,6713960200772 ,44,6130392814955 ,77,2110291921368
16.4717948 ,Left ,65,6303842063214 ,44,6281561649947 ,77,2533693303674
16.4945027 ,Left ,65,5892914272278 ,44,6112200633874 ,77,2877738737508
16.5169128 ,Left ,65,5535636182629 ,44,5642025460226 ,77,3132170240442
16.5318395 ,Left ,65,4900468574405 ,44,5309202729147 ,77,3501068127148
16.5544117 ,Left ,65,4200921741852 ,44,4706160703054 ,77,3701529338702
16.5769682 ,Left ,65,4002183198919 ,44,4444119874597 ,77,3780447637655
16.5918008 ,Left ,65,419360921621 ,44,494315691455 ,77,3889274262027
16.6143063 ,Left ,65,4561175623793 ,44,5763526020669 ,77,3958434911157
16.6368598 ,Left ,65,5176016227959 ,44,6306022705656 ,77,4194162046056
16.6520286 ,Left ,65,5464341160616 ,44,6432244179841 ,77,4389897204689
16.6740947 ,Left ,65,5700622608299 ,44,6407391657167 ,77,4537796554241
16.6968271 ,Left ,65,5902948436741 ,44,6588338558208 ,77,4735846001084
16.7116864 ,Left ,65,6418550035758 ,44,7000879345025 ,77,4771432305597
16.7344516 ,Left ,65,648072315217 ,44,7499343352782 ,77,4842969265432
16.7568664 ,Left ,65,6527284834225 ,44,8020336654622 ,77,4831256930725
16.7717029 ,Left ,65,6465120253455 ,44,8371121398693 ,77,4781785060455
16.7940648 ,Left ,65,6276213272542 ,44,8613229569644 ,77,4739765828169
16.8165132 ,Left ,65,5945352764572 ,44,8625582189228 ,77,4659971238789
16.831705 ,Left ,65,5567591991053 ,44,8274694696482 ,77,467315279933
16.8542325 ,Left ,65,5310350482833 ,44,753453424391 ,77,4642675114189
16.876718 ,Left ,65,5180456860614 ,44,6445855831721 ,77,4631710212324
16.8916911 ,Left ,65,4935308432282 ,44,480817679324 ,77,4633027148712
16.9143989 ,Left ,65,522566001804 ,44,3239813129862 ,77,4443042422155
16.9369031 ,Left ,65,5174626971283 ,44,2931885824298 ,77,4072310363448
16.9590367 ,Left ,65,4826935182374 ,44,3576148766392 ,77,3828516634733
16.9741266 ,Left ,65,5539458300094 ,44,4382398539729 ,77,385863056269
16.996467 ,Left ,65,6020463452011 ,44,5006734082235 ,77,4015959588314
17.0192675 ,Left ,65,5571881852032 ,44,5524644778486 ,77,4179793565402
17.0339705 ,Left ,65,4865651234961 ,44,592993539146 ,77,4400891335974
17.0566636 ,Left ,65,4767070503059 ,44,5963398518987 ,77,4353905277856
17.0718298 ,Left ,65,4918523566332 ,44,5087382498583 ,77,4231124204593
17.0942388 ,Left ,65,4643947228477 ,44,3199998605891 ,77,4063115085527
17.1165963 ,Left ,65,4163321132069 ,44,2246806900816 ,77,3763267349739
17.1391456 ,Left ,65,4188075359497 ,44,253917896582 ,77,3566813463705
17.1540525 ,Left ,65,5365000453828 ,44,3310883373934 ,77,3768610439882
17.1769214 ,Left ,65,6377204288138 ,44,4239595065505 ,77,4183114875264
17.1994256 ,Left ,65,5840819393283 ,44,5113800046519 ,77,4704774462697
17.2144715 ,Left ,65,4597491847443 ,44,6406441852283 ,77,532237431205
17.2369674 ,Left ,65,426532006577 ,44,777827455152 ,77,585152797845
17.2594196 ,Left ,65,4018471979533 ,44,8723212748736 ,77,6419143950425
17.2742573 ,Left ,65,3106680024664 ,44,8929326660166 ,77,7141227544667
17.2967325 ,Left ,65,2336497603564 ,44,8720354967703 ,77,786553821232
17.3194161 ,Left ,65,1840443107664 ,44,8877237581302 ,77,8321876920359
17.3344512 ,Left ,65,1604259416019 ,44,9362583015719 ,77,8488525904106
17.3569561 ,Left ,65,1149105642988 ,45,0002643270067 ,77,852185571361
17.3870148 ,Left ,65,0694498063557 ,45,0354781758953 ,77,834711796734
17.4020061 ,Left ,65,0355139771961 ,45,0068509258841 ,77,7994933699373
17.4244834 ,Left ,65,0183255064766 ,44,9029954770677 ,77,7922262407587
17.4395958 ,Left ,64,9920825223061 ,44,7883405479577 ,77,7697445390288
17.4545405 ,Left ,64,9816206960533 ,44,8040069902987 ,77,7246113619733
17.4766899 ,Left ,65,0361387245888 ,44,8496528426084 ,77,7062456242442
17.4995508 ,Left ,65,1468362202213 ,44,8902013810159 ,77,7218253876922
17.5145414 ,Left ,65,1842433280101 ,44,8829429803282 ,77,7532615522657
17.5368938 ,Left ,65,1999255734085 ,44,8571197750363 ,77,7789920275231
17.5593686 ,Left ,65,2288695642609 ,44,8562400271485 ,77,7625485775221
17.5741814 ,Left ,65,2951448628085 ,44,8752933406318 ,77,7412940932947
17.5963997 ,Left ,65,3413830058559 ,44,9172841723952 ,77,7083237422718
17.6189347 ,Left ,65,322632393516 ,44,9728461889287 ,77,6807748439738
17.6341445 ,Left ,65,2925273763451 ,45,0421508785339 ,77,6649778875305
17.656423 ,Left ,65,2777124671936 ,45,1267607760442 ,77,6499062466716
17.6789403 ,Left ,65,2639783736295 ,45,2126053519182 ,77,6334918945031
17.6940412 ,Left ,65,2260431305992 ,45,2881821366838 ,77,6085014018504
17.7165006 ,Left ,65,1862703190802 ,45,3568431537276 ,77,5660807101566
17.7389208 ,Left ,65,1524003559521 ,45,4074377150074 ,77,5189892169296
17.7539759 ,Left ,65,1133865793229 ,45,4529842604293 ,77,4655978185737
17.7765282 ,Left ,65,0687923870696 ,45,4892264806118 ,77,4157129935425
17.7989898 ,Left ,65,0139077570099 ,45,4937481330162 ,77,3683826595956
17.813965 ,Left ,64,9964275958953 ,45,4397394262845 ,77,3281387017244
17.8364347 ,Left ,64,9776335178087 ,45,3333765817523 ,77,2982499000222
17.8590465 ,Left ,64,9304786395182 ,45,1718931268178 ,77,2904307115367
17.8739267 ,Left ,64,9405309782902 ,45,0621755428799 ,77,281020862025
17.8965629 ,Left ,64,9574321102624 ,45,0794039429961 ,77,2580104605245
17.9264687 ,Left ,65,0083185425739 ,45,1104987771762 ,77,2720941480781
17.9414809 ,Left ,65,0951616418092 ,45,087196517164 ,77,3092687035104
17.9640108 ,Left ,65,1611944734889 ,44,9954346806271 ,77,3625491355175
17.9789866 ,Left ,65,2075611521418 ,44,9308777848108 ,77,384612412574
17.9939964 ,Left ,65,2330741418182 ,44,8713405462816 ,77,4129228517065
18.0164121 ,Left ,65,3094083667486 ,44,8419147874341 ,77,4246390798065
18.0389345 ,Left ,65,3762501499482 ,44,8030318561837 ,77,4394408878049
18.0539792 ,Left ,65,4095683367511 ,44,7511112381561 ,77,4559503875625
18.0764516 ,Left ,65,405023332603 ,44,6896651314434 ,77,4728345715721
18.0988798 ,Left ,65,4100613042349 ,44,634472917653 ,77,4860558120983
18.121435 ,Left ,65,4151084943789 ,44,5423284587552 ,77,4964694071785
18.1364278 ,Left ,65,4532258571551 ,44,4674203378218 ,77,4922425497322
18.1589741 ,Left ,65,4551561747161 ,44,4336639516089 ,77,4695665494226
18.1814707 ,Left ,65,4459709895109 ,44,5184083770544 ,77,4309152588587
18.1964772 ,Left ,65,432581395492 ,44,6233176019419 ,77,4275422668404
18.2189584 ,Left ,65,4548912460812 ,44,6836453335513 ,77,4571566395741
18.2415327 ,Left ,65,4824060085507 ,44,7135826596161 ,77,5010874356086
18.2564853 ,Left ,65,4788883759853 ,44,7169172492446 ,77,5392269043221
18.2789649 ,Left ,65,4969044502571 ,44,7553057334571 ,77,5586717483937
18.3015642 ,Left ,65,5264659477394 ,44,7682631942221 ,77,5632622093545
18.3164659 ,Left ,65,5948473775451 ,44,7799161587714 ,77,5492300793685
18.339283 ,Left ,65,5993518915416 ,44,7952245449331 ,77,5295532679699
18.3617657 ,Left ,65,5955447296493 ,44,8083634857605 ,77,5060777131228
18.3767765 ,Left ,65,6029512851166 ,44,823554986721 ,77,4848115879212
18.3992672 ,Left ,65,6313766766501 ,44,8412829439111 ,77,4686502406086
18.4219191 ,Left ,65,6483639240245 ,44,8378760224665 ,77,4724365575482
18.4369841 ,Left ,65,6535316327087 ,44,8337966263907 ,77,4846439186425
18.4594664 ,Left ,65,6587930583787 ,44,8241809353677 ,77,4950611115825
18.4818382 ,Left ,65,6642260970586 ,44,8159396975661 ,77,5025395352725
18.4970253 ,Left ,65,6701440544694 ,44,795786886014 ,77,5091523781347
18.5189667 ,Left ,65,6771725677202 ,44,7924533107674 ,77,5156309097873
18.5415539 ,Left ,65,6743995170352 ,44,7922637223637 ,77,5255743957771
18.5566041 ,Left ,65,6767181671137 ,44,7935334741958 ,77,5345708752552
18.5793066 ,Left ,65,6867534836252 ,44,7969871755631 ,77,5382607814018
18.6018657 ,Left ,65,6988381910459 ,44,7915291539781 ,77,5374364929846
18.6239873 ,Left ,65,7030333014758 ,44,7811629482442 ,77,525054732046
18.6465985 ,Left ,65,7001238597331 ,44,7653029198152 ,77,5047158648051
18.6767812 ,Left ,65,7108069252216 ,44,7465791838179 ,77,4274986130646
18.6989084 ,Left ,65,7278988673852 ,44,7383335410609 ,77,3830501890742
18.7217553 ,Left ,65,7433789485219 ,44,7290686220415 ,77,3377174178344
18.7367802 ,Left ,65,7590822579797 ,44,7159370290696 ,77,2943574694687
18.7591665 ,Left ,65,7779923190518 ,44,6972125164255 ,77,2475610476786
18.7818397 ,Left ,65,7927185404069 ,44,6888881483487 ,77,1982863873164
18.7972148 ,Left ,65,8081894549773 ,44,6825036127303 ,77,1459479947944
18.8197753 ,Left ,65,8208086273772 ,44,6698939645722 ,77,0870741396235
18.8420981 ,Left ,65,8314108800164 ,44,6507091295385 ,77,0242164436511
18.8569252 ,Left ,65,840461103349 ,44,6320967617129 ,76,9642539334274
18.8793038 ,Left ,65,8481819115701 ,44,6135362191616 ,76,9086401002125
18.9018532 ,Left ,65,8630243472499 ,44,60639829709 ,76,8636617809265
18.9168907 ,Left ,65,8769204274839 ,44,6026210631984 ,76,831715014232
18.9394289 ,Left ,65,8910774897349 ,44,5924156311117 ,76,8154238575329
18.96192 ,Left ,65,890114560512 ,44,583317663717 ,76,8116616604245
18.9769087 ,Left ,65,8874903963779 ,44,5805671947588 ,76,8204468794552
18.9991932 ,Left ,65,8816589474386 ,44,5814753562341 ,76,8371074603614
19.0218855 ,Left ,65,8601932663498 ,44,58488957221 ,76,8621468513656
19.0365084 ,Left ,65,8332927582068 ,44,5886513125549 ,76,8985395914921
19.0592371 ,Left ,65,8020109380161 ,44,6025217275258 ,76,9406331201177
19.0817299 ,Left ,65,7719360259073 ,44,6236534274677 ,76,9908590695256
19.0966401 ,Left ,65,7259474859359 ,44,6369647948949 ,77,0500195278156
19.1191426 ,Left ,65,6795525923411 ,44,6531625628935 ,77,1169202677217
19.1416631 ,Left ,65,6251822198284 ,44,6669101750625 ,77,1813372228594
19.1567306 ,Left ,65,5678845799308 ,44,6784248916354 ,77,2373431536978
19.1790247 ,Left ,65,5316875273525 ,44,6808011457324 ,77,2812428530274
19.2020635 ,Left ,65,4978357053651 ,44,6692519966767 ,77,3097007957868
19.2245911 ,Left ,65,4571013745259 ,44,6678709755377 ,77,3306647400233
19.2396851 ,Left ,65,4171369946086 ,44,6458871632226 ,77,3335883688705
19.2617154 ,Left ,65,3907337573844 ,44,592423806141 ,77,3321665595354
19.2841259 ,Left ,65,3189199866804 ,44,5507679368111 ,77,3572736349889
19.2993367 ,Left ,65,3108387572819 ,44,5879743583554 ,77,3665900802663
19.3217829 ,Left ,65,3456729350615 ,44,6677531994615 ,77,3903955427557
19.344229 ,Left ,65,4022312719482 ,44,7235806899242 ,77,4387591495884
19.3593644 ,Left ,65,4343626965201 ,44,7454500496666 ,77,4887298143364
19.3816131 ,Left ,65,4766764695907 ,44,7296505707762 ,77,5195538936543
19.4116322 ,Left ,65,4931633761703 ,44,7166073187942 ,77,5303723940291
19.4265444 ,Left ,65,5212535087403 ,44,7368462685974 ,77,5298192083869
19.4718804 ,Left ,65,6026642197441 ,44,7585805558075 ,77,5026061964963
19.486818 ,Left ,65,6366337932266 ,44,7589458448777 ,77,4856878406212
19.5094647 ,Left ,65,6492440938521 ,44,757644074374 ,77,4759978631941
19.5243468 ,Left ,65,6530954150441 ,44,7569518204034 ,77,4701597961225
19.5395246 ,Left ,65,6428823873217 ,44,7664649003487 ,77,4727008907124
19.5620242 ,Left ,65,6114895654051 ,44,7756698860395 ,77,4794959199485
19.5844854 ,Left ,65,5781209759158 ,44,7702990804374 ,77,4944137273634
19.5993917 ,Left ,65,5456203553623 ,44,7593886992082 ,77,508987445414
19.6142995 ,Left ,65,508477226181 ,44,7137831055504 ,77,5219041739915
19.6370154 ,Left ,65,4571072663155 ,44,5676003333279 ,77,5348098385659
19.6518461 ,Left ,65,4186906187897 ,44,3726464275531 ,77,5453014971588
19.6742099 ,Left ,65,4175098259811 ,44,2772321551949 ,77,5186514337076
19.6964924 ,Left ,65,3579854629305 ,44,3252780965066 ,77,48331420633
19.7122273 ,Left ,65,409189267328 ,44,413241532295 ,77,4967167996242
19.7347774 ,Left ,65,4919829055899 ,44,4741968206718 ,77,530330926419
19.7722805 ,Left ,65,4059788082596 ,44,5597082615892 ,77,6134810953017
19.7947383 ,Left ,65,3611055485794 ,44,5960307358626 ,77,6354666584022
19.8316559 ,Left ,65,3888546535656 ,44,5074813260781 ,77,5751579352181
19.8544274 ,Left ,65,3479529883245 ,44,3226037537266 ,77,5168869362303
19.8769331 ,Left ,65,3002189170719 ,44,2317539260507 ,77,4618476463423
19.8917124 ,Left ,65,3102309700274 ,44,2634932422459 ,77,4430708773116
19.9143947 ,Left ,65,4150519388244 ,44,3646312479616 ,77,4791282680197
19.9368903 ,Left ,65,4808516864897 ,44,4835750785012 ,77,5548370206604
19.9518609 ,Left ,65,3966439596435 ,44,6204676350346 ,77,6544825789212
19.9741075 ,Left ,65,2642563187788 ,44,7782894205458 ,77,7563813317319
19.9966497 ,Left ,65,2099467196896 ,44,9473278347666 ,77,8287934532678
20.0118437 ,Left ,65,1688132259932 ,45,0845603349215 ,77,8806637279428
20.0342961 ,Left ,65,082928108262 ,45,1472208701008 ,77,9119877053692
20.0568797 ,Left ,65,0051738486303 ,45,1265780847697 ,77,9294902192714
20.0718774 ,Left ,64,9700862053414 ,45,0986661485029 ,77,928633758456
20.0944308 ,Left ,64,9412405256943 ,45,0873193613542 ,77,9143793745711
20.1315755 ,Left ,64,9261437629216 ,45,1117318584805 ,77,8846400974207
20.1540437 ,Left ,64,9143502329369 ,45,1026748713587 ,77,8605942478942
20.1915509 ,Left ,64,9590701329621 ,44,8507805990226 ,77,7946869011599
20.2148347 ,Left ,64,9688451914962 ,44,7827101785506 ,77,7442227894762
20.2372866 ,Left ,64,9865411094254 ,44,7997255890227 ,77,6986228257531
20.2525472 ,Left ,65,1019239353786 ,44,8291879755764 ,77,6972841625588
20.2823927 ,Left ,65,1928302475515 ,44,830166197212 ,77,7163896410241
20.304424 ,Left ,65,2142959223894 ,44,8037884037712 ,77,7398329158222
20.319357 ,Left ,65,2373166670435 ,44,7859843315043 ,77,7451761162488
20.3342741 ,Left ,65,2826492186242 ,44,7906978982044 ,77,7473527424806
20.3717302 ,Left ,65,3651192471553 ,44,8756601013363 ,77,7121547270984
20.3941356 ,Left ,65,348236470302 ,44,9305091984067 ,77,7050574664227
20.4318273 ,Left ,65,3262760776252 ,45,0397218500146 ,77,7071698720256
20.4542069 ,Left ,65,2919867066309 ,45,1078928104156 ,77,7004499754952
20.4916163 ,Left ,65,235629013885 ,45,2336062220159 ,77,6611448392222
20.5145132 ,Left ,65,2072764989068 ,45,2911137686121 ,77,6310599182176
20.5597399 ,Left ,65,1416532886017 ,45,3693733548105 ,77,559040117713
20.5821477 ,Left ,65,1137278979441 ,45,4077687186082 ,77,5078585599963
20.6348526 ,Left ,65,0275914753159 ,45,3727678450493 ,77,3885280372275
20.6723082 ,Left ,64,963719430251 ,45,2511129005452 ,77,3568924525762
20.6948002 ,Left ,64,9231094939637 ,45,1160385727536 ,77,3442047999373
20.7323986 ,Left ,64,9380973262584 ,44,887356590145 ,77,3450273212096
20.7548167 ,Left ,64,9601194437303 ,44,9474847294124 ,77,3428681499464
20.7770625 ,Left ,65,0360733300878 ,44,9916416015141 ,77,3761932873494
20.8140251 ,Left ,65,2062278653876 ,44,9168917518516 ,77,4468480684014
20.8367825 ,Left ,65,2192385642036 ,44,8766442411284 ,77,4872485445249
20.8743716 ,Left ,65,3280049817592 ,44,8220785559678 ,77,5560016767191
20.9120112 ,Left ,65,4141939393954 ,44,773585878334 ,77,6314456900983
20.9345245 ,Left ,65,3867595294945 ,44,7519861878584 ,77,6747721858359
20.9721096 ,Left ,65,3351964361085 ,44,6095150535102 ,77,7507377490343
20.9946119 ,Left ,65,3543119054825 ,44,5138457187376 ,77,7534132223404
21.0169585 ,Left ,65,3510417192479 ,44,4723740718127 ,77,7094754320309
21.0544044 ,Left ,65,3540244766534 ,44,6552593003122 ,77,6229932404616
21.0917803 ,Left ,65,385269169934 ,44,7105497737322 ,77,68089194817
21.1145357 ,Left ,65,3851663304018 ,44,6730951317568 ,77,7179317570689
21.1518095 ,Left ,65,4388639970514 ,44,6984484813751 ,77,7166734419898
21.1743067 ,Left ,65,4824883386592 ,44,7042513007577 ,77,7051461959682
21.2118334 ,Left ,65,473437335371 ,44,692943727321 ,77,6768468618158
21.2343809 ,Left ,65,4969462263251 ,44,7159937231132 ,77,6599947706909
21.2718834 ,Left ,65,5639038940552 ,44,7615560432643 ,77,6371811220101
21.2945119 ,Left ,65,572364928604 ,44,77253932966 ,77,6424427382655
21.3317969 ,Left ,65,6053995459402 ,44,7750079643556 ,77,6334240626649
21.3544238 ,Left ,65,6092555344888 ,44,7867456626234 ,77,6281572693174
21.3917826 ,Left ,65,6376638244004 ,44,8278720115568 ,77,6160861239667
21.414025 ,Left ,65,6549484817611 ,44,8326640865209 ,77,6158071533137
21.4516871 ,Left ,65,6660040775892 ,44,8316359940855 ,77,6172567438439
21.4667025 ,Left ,65,6811799032044 ,44,8398538531493 ,77,6124925026267
21.4893704 ,Left ,65,7028908841558 ,44,8442179239699 ,77,5994960075807
21.5041691 ,Left ,65,7165132890007 ,44,8437170776015 ,77,5826849052933
21.5267023 ,Left ,65,7344840089378 ,44,8359053653951 ,77,5542781217283
21.5491966 ,Left ,65,7471262695867 ,44,8308621261412 ,77,516588993613
21.5642376 ,Left ,65,759986400785 ,44,8272207102974 ,77,4759948341085
21.5866878 ,Left ,65,771029450677 ,44,821168246684 ,77,437440310577
21.6092085 ,Left ,65,7905658871569 ,44,8101270005789 ,77,3972538789644
21.6243517 ,Left ,65,8056898621958 ,44,7926451524141 ,77,3559758472313
21.6468548 ,Left ,65,8144268297531 ,44,7717938028882 ,77,3174272753447
21.6692182 ,Left ,65,8232961615858 ,44,7493015026587 ,77,2751752010367
21.6844611 ,Left ,65,8360174357377 ,44,7316891518495 ,77,2289781918403
21.7066703 ,Left ,65,8445927719952 ,44,7159019088306 ,77,1776957111689
21.7291716 ,Left ,65,8558070753556 ,44,7044842815617 ,77,1213765378077
21.7445223 ,Left ,65,8646600140195 ,44,693983667878 ,77,0653971274073
21.7667877 ,Left ,65,8770377952498 ,44,6786704310482 ,77,0124511475858
21.7894437 ,Left ,65,8886336029007 ,44,6616748889288 ,76,9693095886749
21.8045293 ,Left ,65,8986577351289 ,44,6486312760104 ,76,9285685803495
21.8269894 ,Left ,65,9172755204437 ,44,6369934421442 ,76,8944634653168
21.8494685 ,Left ,65,9279794855668 ,44,627239768229 ,76,8625324079523
21.864452 ,Left ,65,9415915473771 ,44,6137905314679 ,76,8374739885331
21.8866712 ,Left ,65,9596775437359 ,44,5999843185102 ,76,8145765986418
21.9094986 ,Left ,65,968506434513 ,44,5891346833172 ,76,7964561554712
21.9243838 ,Left ,65,9754886239657 ,44,5751633863083 ,76,7896875152643
21.9470007 ,Left ,65,9704133808352 ,44,5682911852175 ,76,7954111695154
21.9694061 ,Left ,65,9522897206851 ,44,5774396274163 ,76,8137316721356
21.9917695 ,Left ,65,9262586838582 ,44,5954928588437 ,76,8490154883364
22.0067938 ,Left ,65,88431815412 ,44,6185993168356 ,76,8936493720243
22.0293225 ,Left ,65,827028029972 ,44,6424186292009 ,76,9510256560639
22.051548 ,Left ,65,7675340083446 ,44,6666875507426 ,77,0180955551595
22.066514 ,Left ,65,7048939954506 ,44,6923072274142 ,77,0908409469384
22.0893324 ,Left ,65,6424564344642 ,44,722008415241 ,77,1617166011022
22.1115587 ,Left ,65,5815764630932 ,44,7424361749463 ,77,21929121719
22.1267951 ,Left ,65,515570118094 ,44,7465563707663 ,77,2750014891687
22.1492667 ,Left ,65,4497248106527 ,44,7562821137893 ,77,3177421779769
22.1722086 ,Left ,65,3942056638597 ,44,754975506491 ,77,3543173324191
22.1873398 ,Left ,65,3651935919208 ,44,7267244519143 ,77,3715996109739
22.2094662 ,Left ,65,3478091473128 ,44,646952795538 ,77,3679821784779
22.239292 ,Left ,65,323162800504 ,44,5142808898031 ,77,3538576570589
22.2542877 ,Left ,65,2906429085443 ,44,4157651688868 ,77,3407378792316
22.2915263 ,Left ,65,3055731931746 ,44,4641615585915 ,77,3387932316353
22.3067326 ,Left ,65,3865393159152 ,44,5161248388508 ,77,3777487531834
22.3292769 ,Left ,65,4357417049234 ,44,5436555344269 ,77,4264087675828
22.3519546 ,Left ,65,4764174153954 ,44,5405140532266 ,77,4618831494807
22.3667645 ,Left ,65,4930046216509 ,44,5358326464424 ,77,4834166519187
22.3894035 ,Left ,65,5380059757866 ,44,5613578963792 ,77,4886652610234
22.4118496 ,Left ,65,5842563905688 ,44,5961927139361 ,77,4894355157554
22.426935 ,Left ,65,6187855983747 ,44,6408722134481 ,77,4890861381329
22.4491996 ,Left ,65,6491695048906 ,44,674890534844 ,77,4831890725277
22.4718123 ,Left ,65,6656573668837 ,44,6975240831068 ,77,4770960077333
22.4867499 ,Left ,65,6761255101541 ,44,7156815287215 ,77,469864230416
22.5092016 ,Left ,65,671909588269 ,44,7438012990362 ,77,4629892863781
22.5316612 ,Left ,65,6517514708569 ,44,7727880029737 ,77,4527439065458
22.5469777 ,Left ,65,6348864144598 ,44,7900093898691 ,77,4466735324391
22.5692056 ,Left ,65,6103748676614 ,44,7909032715954 ,77,4415920251753
22.5917447 ,Left ,65,5837465466647 ,44,760059864864 ,77,4395196579069
22.6068138 ,Left ,65,5646411485359 ,44,7001344847831 ,77,430624867612
22.6291512 ,Left ,65,5649490710626 ,44,5787944720479 ,77,4163008102965
22.6518895 ,Left ,65,5532729565457 ,44,3434061718611 ,77,4278303073152
22.6742366 ,Left ,65,5850180324824 ,44,1420783688664 ,77,4022935503851
22.6891199 ,Left ,65,5435143513688 ,44,1499440777411 ,77,3296345992519
22.7115949 ,Left ,65,5484756423196 ,44,2446195438684 ,77,3055554898194
22.7342835 ,Left ,65,6461299758824 ,44,3476199276709 ,77,324691763485
22.7491594 ,Left ,65,676760397078 ,44,4229029150356 ,77,3678947089408
22.7719503 ,Left ,65,5756920119936 ,44,4833156104339 ,77,4058653863013
22.7946418 ,Left ,65,5034334066476 ,44,5233823444553 ,77,4418993102358
22.8094161 ,Left ,65,4994021931978 ,44,5279858384303 ,77,4457818978737
22.8320498 ,Left ,65,494411106897 ,44,4740654198285 ,77,4426591688619
22.8468555 ,Left ,65,4275274345349 ,44,3610116285048 ,77,411148802764
22.86964 ,Left ,65,3822516198269 ,44,2882870728475 ,77,3708850534491
22.8918361 ,Left ,65,3701322007558 ,44,3213642161203 ,77,3271355911059
22.9143542 ,Left ,65,4304564850299 ,44,38267145852 ,77,3400767796214
22.9295677 ,Left ,65,4578425274232 ,44,4484772599244 ,77,3997440860601
22.9520852 ,Left ,65,4081417409557 ,44,5177922137833 ,77,4801956953062
22.9743852 ,Left ,65,2842289764587 ,44,6323615251716 ,77,5461600013653
22.989577 ,Left ,65,2124907836894 ,44,737884969766 ,77,6058643616181
23.0117457 ,Left ,65,1675685116785 ,44,8290094210407 ,77,6532369462055
23.0346875 ,Left ,65,1041674917404 ,44,9078335910147 ,77,6921906498887
23.0495735 ,Left ,65,0288822219662 ,44,9584442549638 ,77,7298159145287
23.0719326 ,Left ,64,9796010370601 ,44,9944811388374 ,77,7634800957029
23.094601 ,Left ,64,9406800171482 ,45,0291952186094 ,77,7903787654274
23.1092601 ,Left ,64,9094645017819 ,45,0528056513175 ,77,8141600279864
23.1315754 ,Left ,64,86769856129 ,45,0655283879631 ,77,8360089455223
23.1549485 ,Left ,64,8266082468997 ,45,0609376251072 ,77,8486919338297
23.169617 ,Left ,64,8096496858673 ,44,9790841071727 ,77,8267918720115
23.1918628 ,Left ,64,8271901352966 ,44,8517093489064 ,77,8030381158957
23.2146457 ,Left ,64,8321628790671 ,44,7000635928276 ,77,7661222695883
23.2296162 ,Left ,64,8441120602878 ,44,6623168377072 ,77,7126530682823
23.252043 ,Left ,64,8992433133176 ,44,7060183874433 ,77,6921836170273
23.2745215 ,Left ,65,0359025560939 ,44,7583742883978 ,77,7082818085468
23.2895942 ,Left ,65,1157684481447 ,44,7606132309169 ,77,7407204534313
23.312033 ,Left ,65,1723037724618 ,44,7746875227457 ,77,7733710123115
23.3342967 ,Left ,65,1974987490262 ,44,7916940759762 ,77,781727164276
23.349649 ,Left ,65,2706433824152 ,44,8374620561758 ,77,7845663474662
23.3721165 ,Left ,65,3371513523653 ,44,8913509214756 ,77,769728558927
23.3946221 ,Left ,65,3498829225568 ,44,9498575585575 ,77,759104700994
23.4094555 ,Left ,65,33452085047 ,45,0068718695357 ,77,7569140609187
23.4320754 ,Left ,65,314974793662 ,45,0750333196759 ,77,7494052164197
23.4546003 ,Left ,65,2997119201253 ,45,1522809319322 ,77,7357461278515
23.469441 ,Left ,65,270810763062 ,45,234084639041 ,77,7138300322027
23.4917012 ,Left ,65,237069433574 ,45,3040140690486 ,77,6809040350365
23.5143433 ,Left ,65,2125459235674 ,45,3433596281882 ,77,6424173566033
23.5293818 ,Left ,65,1933352175727 ,45,3645587580816 ,77,6060288974314
23.5517598 ,Left ,65,161918203247 ,45,3975661636562 ,77,5613961355831
23.5741281 ,Left ,65,1204945784433 ,45,4345169880744 ,77,5093968461775
23.5893892 ,Left ,65,0804385046181 ,45,4527164417065 ,77,452352637271
23.6118867 ,Left ,65,0587198335271 ,45,4354457002281 ,77,405304349688
23.6344886 ,Left ,65,0160399386042 ,45,3714673343046 ,77,3755526017237
23.6493329 ,Left ,64,976109049535 ,45,249647093105 ,77,3554164321446
23.6717446 ,Left ,64,9267393474149 ,45,0540580948094 ,77,3505675143862
23.694214 ,Left ,64,9587061842396 ,44,8881987728429 ,77,347028195809
23.7167389 ,Left ,65,003659466782 ,44,9125068403263 ,77,3020147774789
23.7320114 ,Left ,65,0512881330907 ,44,9712912628828 ,77,2790774560242
23.7545357 ,Left ,65,1413505493662 ,44,9399210051196 ,77,2954411021328
23.7770137 ,Left ,65,2114320562188 ,44,8779593542141 ,77,3445712828556
23.791726 ,Left ,65,2623834580288 ,44,8147818215848 ,77,3873729531075
23.8143023 ,Left ,65,3095113856073 ,44,7775173044577 ,77,4277708401027
23.8293177 ,Left ,65,3476659419479 ,44,7682928874777 ,77,4659465246793
23.8515089 ,Left ,65,3818152682639 ,44,7854059670699 ,77,5083841006315
23.8742188 ,Left ,65,4143046302163 ,44,7836664472636 ,77,5544818754279
23.8966513 ,Left ,65,4104036494509 ,44,7721199018467 ,77,5897515416144
23.9115511 ,Left ,65,3991937108152 ,44,7305945134339 ,77,6068458323462
23.93466 ,Left ,65,3878768361341 ,44,6393389372246 ,77,598924897198
23.9573598 ,Left ,65,3822768649111 ,44,4900741418866 ,77,5890008957939
23.9718101 ,Left ,65,4045875655009 ,44,3704622031363 ,77,5534129966637
23.9944557 ,Left ,65,4139578093595 ,44,3751286996807 ,77,5060160839976
24.016945 ,Left ,65,4052474766142 ,44,4913493345327 ,77,4923292124491
24.0318316 ,Left ,65,4309579901303 ,44,597640555745 ,77,5250412233285
24.0544506 ,Left ,65,4683868449542 ,44,6629664374858 ,77,5871366079574
24.0768699 ,Left ,65,4701743463533 ,44,6869105534613 ,77,6469732972017
24.0918565 ,Left ,65,4718744703675 ,44,738400487886 ,77,6705120281625
24.1142736 ,Left ,65,4860648080969 ,44,7707333078162 ,77,6737588491968
24.1369456 ,Left ,65,521720602723 ,44,8059624557113 ,77,6518439389399
24.1518727 ,Left ,65,5014173638145 ,44,8393886137553 ,77,6228540591604
24.1743468 ,Left ,65,4949118443523 ,44,8647355729466 ,77,5948669811721
24.196955 ,Left ,65,520231254148 ,44,891830648698 ,77,5651084254463
24.2119753 ,Left ,65,5488017330126 ,44,8925954031762 ,77,5446617807164
24.2344512 ,Left ,65,5805294127659 ,44,8659146084667 ,77,5352848495372
24.2568142 ,Left ,65,6018256919873 ,44,8211208160103 ,77,5181194039527
24.2719339 ,Left ,65,6086375252588 ,44,7862904184098 ,77,5012748857804
24.2944972 ,Left ,65,6293454939408 ,44,7664139061236 ,77,4839623868088
24.3167212 ,Left ,65,6567741316587 ,44,7548793830591 ,77,4672713424216
24.331936 ,Left ,65,6827268830491 ,44,7505932290906 ,77,4605087501692
24.3544523 ,Left ,65,698113934313 ,44,7530499922233 ,77,4621984206346
24.3767881 ,Left ,65,7133458245841 ,44,7574118621601 ,77,4743145574115
24.3918597 ,Left ,65,7298439858165 ,44,7658296611816 ,77,4939614686999
24.4140064 ,Left ,65,7421774653792 ,44,7704764802238 ,77,5216446966765
24.4439932 ,Left ,65,7541972717393 ,44,7847579599735 ,77,5559294533121
24.4591572 ,Left ,65,7537448870338 ,44,7948614175188 ,77,5831082626942
24.4815203 ,Left ,65,7510094124264 ,44,8053669362211 ,77,6050152610313
24.5119946 ,Left ,65,7358084875033 ,44,815039658284 ,77,627239344486
24.5346793 ,Left ,65,7297257036792 ,44,8214072765303 ,77,6229023629657
24.5571597 ,Left ,65,7276979491778 ,44,8229389160024 ,77,6079702666354
24.5722119 ,Left ,65,7280871031354 ,44,8219013511381 ,77,5889839256578
24.5948478 ,Left ,65,7244000862225 ,44,8149633087289 ,77,5686671343443
24.6170426 ,Left ,65,7261668548556 ,44,8122423050172 ,77,5415356497307
24.6322046 ,Left ,65,7278034189096 ,44,8098358399246 ,77,506127749018
24.6548132 ,Left ,65,7326016816468 ,44,8103926236458 ,77,4549592877093
24.6770943 ,Left ,65,7471241546609 ,44,8047930671251 ,77,3996255488102
24.6923357 ,Left ,65,7623393735682 ,44,795868776137 ,77,3460676515298
24.7147934 ,Left ,65,7792355327757 ,44,7902475763268 ,77,2878736047468
24.7372412 ,Left ,65,7893029158858 ,44,7876313410264 ,77,2315689532877
24.7520943 ,Left ,65,7985329510445 ,44,7905635284196 ,77,175842052375
24.7745848 ,Left ,65,8148724052246 ,44,795514919626 ,77,1217747660343
24.7965792 ,Left ,65,835189417825 ,44,8011983389305 ,77,0739204790747
24.8117425 ,Left ,65,8536746520571 ,44,7991942208373 ,77,0329019204747
24.8342012 ,Left ,65,8713866952188 ,44,7939013702266 ,76,9979190883519
24.8568217 ,Left ,65,8878546976647 ,44,7847821320266 ,76,9691226637268
24.8793349 ,Left ,65,9019770500587 ,44,7690463631782 ,76,950987274376
24.8945237 ,Left ,65,9038821362793 ,44,7533042839848 ,76,9384423582108
24.917105 ,Left ,65,8993474673522 ,44,7340935038975 ,76,9285822243591
24.9393551 ,Left ,65,8919299298976 ,44,7192851194693 ,76,9330992203771
24.9545447 ,Left ,65,8871411300882 ,44,7165852435391 ,76,9448474840187
24.9771238 ,Left ,65,868049075391 ,44,7269057801065 ,76,9657884343962
24.9996661 ,Left ,65,8361716339627 ,44,7452766910489 ,76,9952002338366
25.0144504 ,Left ,65,8073941273209 ,44,7749315496286 ,77,0345617961548
25.0369916 ,Left ,65,766317763143 ,44,8051991828905 ,77,0780564954344
25.0596049 ,Left ,65,7165209709344 ,44,8330314267727 ,77,1245094958174
25.0744299 ,Left ,65,6672609101974 ,44,8584596866928 ,77,1699683152059
25.097109 ,Left ,65,608694999639 ,44,8759731082422 ,77,2152994959849
25.119656 ,Left ,65,5570602250411 ,44,8928283259696 ,77,2532248165523
25.134507 ,Left ,65,5096990328047 ,44,9082313320551 ,77,2881097022194
25.1569622 ,Left ,65,4721777214231 ,44,9153054260091 ,77,3095658147028
25.1796049 ,Left ,65,446212752798 ,44,9148469167645 ,77,326701999852
25.1946491 ,Left ,65,4289584538407 ,44,8997191543353 ,77,3357018537304
25.2171428 ,Left ,65,4173634849463 ,44,8719803661516 ,77,3486166131041
25.2392771 ,Left ,65,3824117274562 ,44,8251124597288 ,77,3602311027124
25.2540213 ,Left ,65,345063793134 ,44,7805245270448 ,77,3772545631164
25.2766572 ,Left ,65,2963617375914 ,44,7522947537882 ,77,3853130158453
25.2995124 ,Left ,65,2593368926821 ,44,7196438200869 ,77,3817062928918
25.3148362 ,Left ,65,2120334063746 ,44,6594762213061 ,77,4092823846898
25.3373114 ,Left ,65,1651250684383 ,44,5929218512836 ,77,438355045516
25.3522683 ,Left ,65,1134201327134 ,44,6166176639088 ,77,4611607477404
25.3673162 ,Left ,65,1670158326774 ,44,7192923938451 ,77,4812485165771
25.3971252 ,Left ,65,2842061707706 ,44,8257502755207 ,77,5126400279168
25.4193116 ,Left ,65,346999059813 ,44,9142180363125 ,77,5536600274308
25.4494247 ,Left ,65,3777601222075 ,44,912453380084 ,77,6261450032341
25.4718259 ,Left ,65,4283491217257 ,44,9204446522879 ,77,6464150053798
25.4867707 ,Left ,65,4672684347591 ,44,9257412944756 ,77,6498911987865
25.5094126 ,Left ,65,4628483381425 ,44,9480213127488 ,77,648075121997
25.5318693 ,Left ,65,4716032933273 ,44,9799461459997 ,77,6415562550651
25.546954 ,Left ,65,504866575692 ,45,003096881192 ,77,6292213851517
25.5694467 ,Left ,65,5267763625389 ,45,0082512635659 ,77,6226789204275
25.5916945 ,Left ,65,5222787026409 ,44,9673006741683 ,77,6287606495709
25.6067321 ,Left ,65,5073042278273 ,44,9132565265296 ,77,6382988927141
25.62939 ,Left ,65,4952215691484 ,44,8573895111053 ,77,6426405846178
25.6520216 ,Left ,65,4958488019646 ,44,8158942642055 ,77,6453831301504
25.6670715 ,Left ,65,4976501522336 ,44,7878704162206 ,77,6404746639554
25.6895582 ,Left ,65,5120033185796 ,44,7764545592518 ,77,6281283189616
25.7118998 ,Left ,65,511919642983 ,44,7711798086182 ,77,6180549705166
25.7270935 ,Left ,65,4984175273404 ,44,7695044063115 ,77,6106574566567
25.7495323 ,Left ,65,4843060240556 ,44,7675881373874 ,77,6101927156528
25.7720874 ,Left ,65,4742505665755 ,44,7608172328669 ,77,6141547288483
25.7868091 ,Left ,65,4530224742927 ,44,7536773847582 ,77,61973650519
25.809403 ,Left ,65,4401090680963 ,44,7398157512411 ,77,6199386891173
25.8469459 ,Left ,65,4154259158211 ,44,7145000877601 ,77,6169582110316
25.8694778 ,Left ,65,3972503716454 ,44,7032793428137 ,77,6079552932416
25.9069303 ,Left ,65,3717612789086 ,44,6730058682173 ,77,6075870219689
25.9293651 ,Left ,65,3495148858472 ,44,6505571437074 ,77,6025026985776
25.9671427 ,Left ,65,3147097452529 ,44,4314203157062 ,77,5653771586802
25.98962 ,Left ,65,315150321234 ,44,3191299203826 ,77,5295408108938
26.0118658 ,Left ,65,3117669592158 ,44,3289459029626 ,77,4900557561306
26.0270729 ,Left ,65,3987927746914 ,44,3850050577457 ,77,4900844623464
26.0494134 ,Left ,65,4751936735191 ,44,4528558035795 ,77,5175999456423
26.0869205 ,Left ,65,3955302858341 ,44,5383953485258 ,77,5903862847146
26.1093253 ,Left ,65,3591335123984 ,44,5796938629983 ,77,6251251846641
26.1470304 ,Left ,65,336278814834 ,44,5550438470437 ,77,6550835895229
26.1693964 ,Left ,65,2642077424418 ,44,4391956149337 ,77,6553510256538
26.191882 ,Left ,65,2054582743002 ,44,33773751365 ,77,6148424788175
26.2069244 ,Left ,65,1800476429918 ,44,3661383005039 ,77,5463474510305
26.2296641 ,Left ,65,2477527031448 ,44,4235743188504 ,77,5105614852747
26.2520763 ,Left ,65,3048390476434 ,44,4696400590573 ,77,5133095683563
26.2895904 ,Left ,65,1832361034905 ,44,5558606393278 ,77,5842468506484
26.3268964 ,Left ,65,0697720886433 ,44,7843341329316 ,77,6503299488194
26.3494859 ,Left ,65,0465258576253 ,44,8915007508378 ,77,66968905548
26.3869441 ,Left ,64,9425040514369 ,44,9795759364298 ,77,7020636967211
26.4094347 ,Left ,64,9035787628939 ,45,0232384723199 ,77,7219808858965
26.4469077 ,Left ,64,8501856492738 ,45,0959252947738 ,77,7550796272692
26.469259 ,Left ,64,8256300901745 ,45,099089968195 ,77,7663931362621
26.5068573 ,Left ,64,8184436014841 ,44,9370737855417 ,77,7484265421401
26.5294666 ,Left ,64,8461095271534 ,44,8228314187843 ,77,7110772249865
26.5743024 ,Left ,64,8992314662502 ,44,7790979742616 ,77,6644584032634
26.5968034 ,Left ,65,0068662163708 ,44,8009898805784 ,77,6747013156306
26.6270139 ,Left ,65,1224233223516 ,44,7721018618563 ,77,7102043243673
26.6494707 ,Left ,65,1431252396682 ,44,7548381514348 ,77,7252576419009
26.6867917 ,Left ,65,2783037103654 ,44,7816097251732 ,77,7304251133833
26.7094681 ,Left ,65,2910452061286 ,44,8198033755714 ,77,7312745106697
26.746855 ,Left ,65,3046158104086 ,44,9425959179938 ,77,740552560306
26.7769421 ,Left ,65,294872736868 ,45,0090421069646 ,77,7414714457063
26.8146499 ,Left ,65,2075290029792 ,45,1573389965949 ,77,7364934675536
26.8297446 ,Left ,65,161396066786 ,45,2350508913796 ,77,712058121381
26.8670405 ,Left ,65,0891385730197 ,45,3891257978769 ,77,6227023089336
26.8895967 ,Left ,65,0319243940919 ,45,4626086662357 ,77,5547288600561
26.9119715 ,Left ,64,9892975796309 ,45,5302502899442 ,77,4846440048296
26.9494132 ,Left ,64,9272508557463 ,45,5863450112134 ,77,3573448837544
26.9721229 ,Left ,64,8710213844978 ,45,5630954041726 ,77,3134586535552
27.0094078 ,Left ,64,8267297621021 ,45,3659109346173 ,77,2713548301303
27.0468146 ,Left ,64,8310480376785 ,45,0589445138561 ,77,2767345283033
27.0694466 ,Left ,64,7948646040839 ,45,0465951510832 ,77,2859532192157
27.1068767 ,Left ,64,9417309375743 ,44,9719653114563 ,77,3763576466909
27.1294862 ,Left ,65,0020174708217 ,44,9067060572107 ,77,415369741933
27.166705 ,Left ,65,0442492885622 ,44,7766311840684 ,77,4759848741593
27.1895464 ,Left ,65,1004955284557 ,44,7438143358404 ,77,5099742692218
27.227071 ,Left ,65,1661082367228 ,44,6638445691834 ,77,593737915579
27.2417628 ,Left ,65,155403912552 ,44,6047608765328 ,77,6407405842751
27.264519 ,Left ,65,1439076217998 ,44,5043050245958 ,77,6878557943093
27.2868659 ,Left ,65,165316444623 ,44,3669737874064 ,77,7211788355506
27.3019432 ,Left ,65,196894993661 ,44,3107163768882 ,77,7052367602386
27.3244779 ,Left ,65,162180087011 ,44,3175007280375 ,77,664399708485
27.3468776 ,Left ,65,152617263018 ,44,3743577052507 ,77,6285204574999
27.3618387 ,Left ,65,1349185266855 ,44,426485172775 ,77,6115820487569
27.3845187 ,Left ,65,111656605459 ,44,4404077971909 ,77,6317589665627
27.3993138 ,Left ,65,0691140790115 ,44,4441131686537 ,77,677704647403
27.4219646 ,Left ,65,058985947454 ,44,4422943427432 ,77,7331576003183
27.4445375 ,Left ,65,1088393586569 ,44,4583032954402 ,77,7713126768645
27.4594771 ,Left ,65,1700572765058 ,44,5051679890109 ,77,7782663689659
27.4819936 ,Left ,65,185340862195 ,44,5474000923415 ,77,7663441819199
27.5045111 ,Left ,65,1967764140935 ,44,5850108343139 ,77,7504615322011
27.5194814 ,Left ,65,1935408502443 ,44,625915283289 ,77,728015665096
27.5418242 ,Left ,65,2174661789832 ,44,6783771895518 ,77,7007798213275
27.5644407 ,Left ,65,2751989572266 ,44,7253627121644 ,77,6780538554509
27.5794667 ,Left ,65,3231215192157 ,44,7361164683772 ,77,6785566623868
27.6019448 ,Left ,65,3551959501584 ,44,7298659940288 ,77,6887187526581
27.6243306 ,Left ,65,3725650055755 ,44,7197982109989 ,77,701745980313
27.6394353 ,Left ,65,398509030816 ,44,7255994739207 ,77,7009902676322
27.6619222 ,Left ,65,4416265105944 ,44,7416808893159 ,77,6864777727743
27.6844612 ,Left ,65,4789176158435 ,44,7654820927364 ,77,6647649325674
27.7067248 ,Left ,65,5038471167713 ,44,7829105770176 ,77,6418486971075
27.7216171 ,Left ,65,5180552362814 ,44,8005305177371 ,77,6203317918436
27.7444357 ,Left ,65,5264083386283 ,44,8170154416147 ,77,597360585309
27.766723 ,Left ,65,5514101701614 ,44,8306241451252 ,77,5765762665332
27.7818437 ,Left ,65,5725659906084 ,44,8325239559726 ,77,5610806897507
27.8043526 ,Left ,65,5910676039292 ,44,8303961727023 ,77,5425200600648
27.826794 ,Left ,65,6035916031845 ,44,8274109087117 ,77,5141537609827
27.8416404 ,Left ,65,6091619170004 ,44,816962249496 ,77,4824406454351
27.8642544 ,Left ,65,6212485718707 ,44,8062699145771 ,77,4416738984842
27.8872283 ,Left ,65,6324817679066 ,44,7892622629795 ,77,3913513289985
27.902183 ,Left ,65,6477137259766 ,44,7715779474267 ,77,3352632593409
27.9247405 ,Left ,65,6717465285469 ,44,748669037445 ,77,2708847017461
27.9472144 ,Left ,65,6998702245267 ,44,7267936727189 ,77,2044877057684
27.9619905 ,Left ,65,7300572378389 ,44,7021465160598 ,77,1410208608143
27.9844504 ,Left ,65,7527318743035 ,44,6755749815606 ,77,0817513186382
28.0067968 ,Left ,65,7728073507682 ,44,6518584274676 ,77,0331706281853
28.0219375 ,Left ,65,7978062987429 ,44,6250194525775 ,76,9939124752251
28.0444959 ,Left ,65,818151682679 ,44,6054922725984 ,76,966175598154
28.0669564 ,Left ,65,8383601523838 ,44,5889798492719 ,76,9540365397517
28.0818321 ,Left ,65,8547054990161 ,44,5911057206949 ,76,9515015364148
28.1042787 ,Left ,65,8650356304055 ,44,5953017015645 ,76,9548298251534
28.1268113 ,Left ,65,8669650092611 ,44,6005005134357 ,76,9617939606324
28.1415396 ,Left ,65,8642849443405 ,44,6046851838445 ,76,969517760308
28.1642699 ,Left ,65,8561467030572 ,44,6045418451833 ,76,9840183011896
28.1867563 ,Left ,65,8447834852363 ,44,605321023628 ,76,9974757676926
28.2019518 ,Left ,65,8285168864948 ,44,6006763075817 ,77,0138083072876
28.2243578 ,Left ,65,810236333576 ,44,6027842750059 ,77,0253707010171
28.2467314 ,Left ,65,7968782719117 ,44,6053094561264 ,77,0307715202868
28.2618226 ,Left ,65,775656460531 ,44,6199604666677 ,77,0299184406306
28.28434 ,Left ,65,7659983352458 ,44,6395846870416 ,77,0253539410647
28.3066544 ,Left ,65,7529467383067 ,44,6587272335778 ,77,0226717620504
28.3217713 ,Left ,65,7259514337399 ,44,678727798707 ,77,0203578195495
28.344554 ,Left ,65,6962217765674 ,44,7068166593289 ,77,0238281179661
28.367094 ,Left ,65,6660595718577 ,44,7412838736664 ,77,0263618830412
28.3820838 ,Left ,65,6311696595633 ,44,7816867552469 ,77,0432952027738
28.4039834 ,Left ,65,5932660628596 ,44,8296859727486 ,77,0661703100206
28.4267801 ,Left ,65,5489854759098 ,44,8798025265409 ,77,0935649224353
28.4417093 ,Left ,65,5040040903496 ,44,9131141345144 ,77,1210551137997
28.4643273 ,Left ,65,4625561795656 ,44,9312762095637 ,77,1533274905441
28.486713 ,Left ,65,4253112031516 ,44,9234244753969 ,77,1879013806162
28.5019962 ,Left ,65,3842450653026 ,44,9200567534525 ,77,211631331468
28.5244159 ,Left ,65,3212681308566 ,44,9116602129625 ,77,2258506820635
28.5464688 ,Left ,65,2879563921808 ,44,8611947899787 ,77,2258014866545
28.5698162 ,Left ,65,285239916037 ,44,7277292720206 ,77,227837538368
28.5847623 ,Left ,65,2583576915453 ,44,6232756235762 ,77,2330067948109
28.6141715 ,Left ,65,2441612014223 ,44,6049182968003 ,77,2170255960298
28.6366196 ,Left ,65,3311453838457 ,44,6566086770664 ,77,2160437633389
28.6517449 ,Left ,65,443836453031 ,44,7234456246364 ,77,231030605239
28.6666762 ,Left ,65,4854573770534 ,44,7423991944422 ,77,2623729447667
28.6893576 ,Left ,65,4765995048019 ,44,7199191146509 ,77,2985285243058
28.7043858 ,Left ,65,4804583094856 ,44,7274531461687 ,77,3264987938471
28.7269115 ,Left ,65,5352244454651 ,44,7724754385697 ,77,3287799924608
28.7490034 ,Left ,65,5616112849757 ,44,8335536555841 ,77,3271714126373
28.7644504 ,Left ,65,5890029824807 ,44,8923296148921 ,77,3179506059425
28.7867927 ,Left ,65,5972225346003 ,44,9389935892254 ,77,3067235223312
28.8091352 ,Left ,65,5960218555095 ,44,9718440507689 ,77,2947564788895
28.8242263 ,Left ,65,564813812887 ,44,9667665497177 ,77,2970341363848
28.8467636 ,Left ,65,5319750356697 ,44,9355531690047 ,77,3130747655113
28.8691112 ,Left ,65,5064012938045 ,44,873829019791 ,77,3482398220915
28.884398 ,Left ,65,480944154255 ,44,7924535612139 ,77,3776596882281
28.9067304 ,Left ,65,4526801477905 ,44,6725297930659 ,77,3874422269193
28.9291303 ,Left ,65,4119188690612 ,44,5216824276549 ,77,3769780512275
28.9446253 ,Left ,65,4111407682947 ,44,4124003717252 ,77,3375234776831
28.9670731 ,Left ,65,3615562362162 ,44,4455425085455 ,77,2794150073471
28.9898018 ,Left ,65,395997582454 ,44,5118972238061 ,77,2741208610989
29.0047924 ,Left ,65,481143203699 ,44,5783376616051 ,77,3023274602837
29.0270011 ,Left ,65,4995356484538 ,44,6330711137826 ,77,3387623440903
29.049034 ,Left ,65,407056252842 ,44,6752959063011 ,77,3731928408764
29.0643028 ,Left ,65,3747346527917 ,44,7114268700048 ,77,3973129315596
29.0867921 ,Left ,65,4059873675581 ,44,7023176526011 ,77,3902981046568
29.109317 ,Left ,65,4391732784067 ,44,6030372647148 ,77,3663929071022
29.1241457 ,Left ,65,416459555119 ,44,4154424142278 ,77,3252429798427
29.1468988 ,Left ,65,3834792982692 ,44,3511123162764 ,77,2490014661197
29.1694525 ,Left ,65,4093897280725 ,44,4138179975969 ,77,2035586748097
29.191824 ,Left ,65,5401168724414 ,44,5104602090227 ,77,2217887151044
29.2067696 ,Left ,65,5957052544042 ,44,5871706035193 ,77,2815010207487
29.2291944 ,Left ,65,534387022182 ,44,6533615146849 ,77,3601104066831
29.2517565 ,Left ,65,4491950102278 ,44,7316105343515 ,77,4373099671949
29.2666095 ,Left ,65,403788619672 ,44,8299429772763 ,77,5057489025335
29.2893742 ,Left ,65,3588762524862 ,44,929043065675 ,77,56436682778
29.3043729 ,Left ,65,2747520078075 ,45,0007083153564 ,77,6170468555588
29.3265194 ,Left ,65,1751886703881 ,45,0540853702253 ,77,6670155287169
29.3497584 ,Left ,65,1018765227273 ,45,0812802218731 ,77,7040978757176
29.3650341 ,Left ,65,0485178541187 ,45,0769655337882 ,77,7139469360161
29.387461 ,Left ,65,0142756905321 ,45,0544917596904 ,77,7079235180557
29.4092637 ,Left ,64,9771067435467 ,45,0262923901432 ,77,6870739906121
29.4244286 ,Left ,64,9093348901256 ,44,9719606955715 ,77,6607967353512
29.446943 ,Left ,64,8805604818087 ,44,8812196684391 ,77,6344679094316
29.4694183 ,Left ,64,8726861531613 ,44,731258195919 ,77,6357009177318
29.4842066 ,Left ,64,8592388230698 ,44,706152500094 ,77,6318427306054
29.5066405 ,Left ,64,8965394234138 ,44,7674509447986 ,77,633056535952
29.5290466 ,Left ,65,0305234671541 ,44,823077197861 ,77,6601188744369
29.5514152 ,Left ,65,1278049899181 ,44,8346916790375 ,77,6896978944543
29.5674757 ,Left ,65,1843714749093 ,44,819104655405 ,77,7113502894244
29.5898836 ,Left ,65,1970251079486 ,44,8080587945761 ,77,710140385366
29.6116976 ,Left ,65,2661030889404 ,44,8310941001739 ,77,6999993883111
29.6269968 ,Left ,65,3173195178887 ,44,869480544395 ,77,6857618902645
29.6494723 ,Left ,65,3323821494186 ,44,9179655927014 ,77,6739282448431
29.6718558 ,Left ,65,3223661724784 ,44,9713798391117 ,77,6687655696105
29.6868845 ,Left ,65,3118545238969 ,45,0462507301877 ,77,6559910854217
29.709322 ,Left ,65,3015403824074 ,45,1446560883797 ,77,6315356022782
29.7323946 ,Left ,65,2810298594554 ,45,2528427852549 ,77,5933929596458
29.7471787 ,Left ,65,2397159617559 ,45,3413145721536 ,77,5384622251369
29.769881 ,Left ,65,2034565836588 ,45,4012349775842 ,77,4795170599446
29.7922564 ,Left ,65,1577658347355 ,45,4398231166773 ,77,4225810897033
29.8072498 ,Left ,65,1074045387405 ,45,4593179667573 ,77,3640551995818
29.8299312 ,Left ,65,0589302490893 ,45,4318688590663 ,77,3089831547182
29.8522559 ,Left ,65,0214754937898 ,45,3361120968421 ,77,2755260025153
29.8671959 ,Left ,64,9812480085777 ,45,1767893394906 ,77,2606778280998
29.8898623 ,Left ,64,9458979907521 ,44,9761471233903 ,77,2564054113115
29.9123555 ,Left ,64,9421612104008 ,44,8378030875985 ,77,2322497242081
29.927125 ,Left ,64,93636089258 ,44,8367176833836 ,77,2064761453507
29.9494687 ,Left ,64,9373884913373 ,44,8660101303204 ,77,2063613931153
29.9722463 ,Left ,65,0160467844605 ,44,8437995099725 ,77,2317586461863
29.9873488 ,Left ,65,1062193116333 ,44,7539388167049 ,77,2758363619488
30.0096834 ,Left ,65,170436956873 ,44,7020507847112 ,77,287501144799
30.0319247 ,Left ,65,1956665503765 ,44,6691333452574 ,77,2801630457344
30.0542655 ,Left ,65,2667394718117 ,44,6853010041808 ,77,2704459307617
30.0766706 ,Left ,65,3423295380338 ,44,6977426678956 ,77,2556814383072
30.0993614 ,Left ,65,4056455019434 ,44,6738725081326 ,77,2653605861147
30.1143923 ,Left ,65,4518209365654 ,44,6121200644141 ,77,2925072976551
30.1294692 ,Left ,65,4590758042534 ,44,5237662810867 ,77,3355980341404
30.1518098 ,Left ,65,4536178600589 ,44,4141420270915 ,77,3890415303544
30.1742651 ,Left ,65,4500876537575 ,44,2981856300561 ,77,4386189427775
30.1893918 ,Left ,65,4597114366681 ,44,2517965352676 ,77,454182129013
30.2115206 ,Left ,65,4152992109163 ,44,2372101695294 ,77,4148945107794
30.2343036 ,Left ,65,4069816628779 ,44,271160647158 ,77,3770531938966
30.2494281 ,Left ,65,3674984077217 ,44,3190342435953 ,77,3673727596849
30.2717619 ,Left ,65,3572060476298 ,44,365206844341 ,77,3982778252291
30.2872882 ,Left ,65,3678435954098 ,44,4346060549577 ,77,4459754811166
30.3096167 ,Left ,65,3991830302145 ,44,4890551966382 ,77,4855798588827
30.3399356 ,Left ,65,4190568200334 ,44,5251104110401 ,77,5154150036139
30.3544595 ,Left ,65,4402977678724 ,44,5654396221307 ,77,5294933509542
30.377056 ,Left ,65,4297046060347 ,44,6079199900733 ,77,5206604217533
30.3918974 ,Left ,65,4373078548095 ,44,6493324459832 ,77,4970989360633
30.4069417 ,Left ,65,4450096016243 ,44,685186410754 ,77,4719167470313
30.4296186 ,Left ,65,428987228217 ,44,7094806019222 ,77,4577150054524
30.4515323 ,Left ,65,4330654697182 ,44,722361074947 ,77,4576729072145
30.4665676 ,Left ,65,4370840113356 ,44,7316672091801 ,77,4662894877415
30.4891462 ,Left ,65,4484508918173 ,44,7296647400896 ,77,4785984372135
30.5116907 ,Left ,65,4766100882091 ,44,7353034064989 ,77,4831302482004
30.5346148 ,Left ,65,4927112653124 ,44,7518512052869 ,77,4753787342237
30.5497286 ,Left ,65,509297852076 ,44,7705894845385 ,77,4711596172154
30.5723089 ,Left ,65,5184608479503 ,44,7973615554451 ,77,4708028624625
30.5948228 ,Left ,65,5168353036864 ,44,8281080043788 ,77,4698860783754
30.6095442 ,Left ,65,5209884247494 ,44,8550595011917 ,77,4742903088546
30.6321874 ,Left ,65,5305324153298 ,44,8721481330514 ,77,4824673850163
30.654829 ,Left ,65,5303616701884 ,44,8815910081598 ,77,4972361389047
30.669617 ,Left ,65,5330374582327 ,44,8856818034821 ,77,5152460182632
30.6919134 ,Left ,65,536233841349 ,44,8938715912535 ,77,5244321248377
30.7145618 ,Left ,65,5516075855032 ,44,8979852013888 ,77,5298539274216
30.7290822 ,Left ,65,5516075855032 ,44,8979852013888 ,77,5298539274216
30.7517795 ,Left ,65,5503731337265 ,44,8974786723853 ,77,5286998346332
30.7741482 ,Left ,65,5502050934516 ,44,8961092430492 ,77,5316437499561
30.7893999 ,Left ,65,5502050934516 ,44,8961092430492 ,77,5316437499561
30.8119079 ,Left ,65,5502050934516 ,44,8961092430492 ,77,5316437499561
30.8339598 ,Left ,65,5502050934516 ,44,8961092430492 ,77,5316437499561
30.8491043 ,Left ,65,5598172992876 ,44,9040249038502 ,77,5317613579084
30.8717325 ,Left ,65,5666605963195 ,44,9117636377007 ,77,5268651049277
30.9017806 ,Left ,65,555821613116 ,44,9141097456412 ,77,5224973724911
30.9165838 ,Left ,65,5589227419407 ,44,918665861914 ,77,5104203948565
30.9395246 ,Left ,65,5680283111985 ,44,9169006194422 ,77,4877194020276
30.9544936 ,Left ,65,5808679259785 ,44,9075402798713 ,77,4603596073129
30.9695371 ,Left ,65,5900396579755 ,44,8950003014736 ,77,4258424500443
30.9918201 ,Left ,65,6011284937373 ,44,8832251935991 ,77,3856215473176
31.0142946 ,Left ,65,6199833830845 ,44,873401865657 ,77,3412702471553
31.0291519 ,Left ,65,6385085880517 ,44,8666676505513 ,77,2886052775569
31.0517854 ,Left ,65,6667426461318 ,44,8483248147203 ,77,2377390428142
31.0742397 ,Left ,65,6991243432996 ,44,8343586323515 ,77,1844841111149
31.08948 ,Left ,65,7181158811937 ,44,8169738891883 ,77,1349802075598
31.1117417 ,Left ,65,7395236866558 ,44,8042344644315 ,77,0870746877132
31.1265743 ,Left ,65,7504104823735 ,44,7948555323272 ,77,040158713519
31.1416859 ,Left ,65,7646734501218 ,44,7892482370172 ,76,9988972615832
31.1642947 ,Left ,65,7707508268606 ,44,7880302164559 ,76,9608495973596
31.1868937 ,Left ,65,7766207028369 ,44,7870724087687 ,76,929468659559
31.2017494 ,Left ,65,7745311909089 ,44,7843546731013 ,76,9087921809251
31.2245006 ,Left ,65,7512984577787 ,44,785369271121 ,76,9049765758138
31.2470108 ,Left ,65,7276041849288 ,44,7919262430905 ,76,9177125169273
31.2621148 ,Left ,65,6928792491883 ,44,8126174396245 ,76,9431184242598
31.2847078 ,Left ,65,6603466414802 ,44,8432558789745 ,76,9800101329368
31.3069763 ,Left ,65,6167194021376 ,44,8770147414384 ,77,0246449871776
31.3221319 ,Left ,65,5613791924077 ,44,9139292606473 ,77,075738070395
31.3447167 ,Left ,65,4996154922868 ,44,9517132044793 ,77,134271747702
31.3669753 ,Left ,65,4413366260945 ,44,9801800202062 ,77,1912715867277
31.3819906 ,Left ,65,3776202691863 ,44,9877914836723 ,77,256590067969
31.4046797 ,Left ,65,2949117717837 ,44,9889927061014 ,77,3218194280695
31.4269636 ,Left ,65,2153632657197 ,44,9557792021021 ,77,3859232659475
31.4419561 ,Left ,65,1678716402249 ,44,8711371472711 ,77,4266239772068
31.4646497 ,Left ,65,1534587747593 ,44,7663906016188 ,77,4380234213024
31.4871496 ,Left ,65,1170141960925 ,44,7269933089519 ,77,4291103859489
31.5021128 ,Left ,65,0832453617417 ,44,7646968591737 ,77,4219232402897
31.5243316 ,Left ,65,1286843877877 ,44,8062820576588 ,77,4440383294462
31.5471514 ,Left ,65,2086745441474 ,44,8174106884664 ,77,4952922852604
31.5621733 ,Left ,65,2348174594427 ,44,7938562912221 ,77,544553369184
31.5847064 ,Left ,65,258536173615 ,44,7819202244846 ,77,5677859792758
31.6069488 ,Left ,65,2900218869833 ,44,7842354397955 ,77,5872058901438
31.6221659 ,Left ,65,3795473193118 ,44,8075670784286 ,77,5797577050296
31.6445141 ,Left ,65,4292386717839 ,44,8409999813592 ,77,5751476680613
31.6743802 ,Left ,65,448637244069 ,44,8689634614756 ,77,569088319956
31.6895398 ,Left ,65,4699158370522 ,44,8993253408675 ,77,5610734391429
31.727203 ,Left ,65,4838008416054 ,44,9396920552655 ,77,5673541084651
31.741879 ,Left ,65,4570882060804 ,44,9305507768919 ,77,5739452382107
31.7645469 ,Left ,65,4285211510192 ,44,8952290891554 ,77,5796085965139
31.8020504 ,Left ,65,4236495084465 ,44,7403613350785 ,77,5935836438664
31.8244806 ,Left ,65,4001100548933 ,44,5961432905639 ,77,5899963474298
31.8469522 ,Left ,65,3846206050204 ,44,4155332050019 ,77,5820756280458
31.8620129 ,Left ,65,3962597519878 ,44,3879341675497 ,77,5404880589363
31.8844938 ,Left ,65,3375510691485 ,44,4833806667109 ,77,5069789319928
31.9069197 ,Left ,65,4067205719915 ,44,5804830325844 ,77,5180770780265
31.9445926 ,Left ,65,4812728006576 ,44,6893074522788 ,77,5874003410444
31.9671085 ,Left ,65,3951578992809 ,44,7391642264735 ,77,6237342374436
32.0047426 ,Left ,65,4049502880065 ,44,8645453991591 ,77,6591702440111
32.0419888 ,Left ,65,3496639889728 ,44,7926873524622 ,77,6550033534345
32.0645517 ,Left ,65,356707845296 ,44,6197340930299 ,77,6304164191792
32.0870229 ,Left ,65,3548417359087 ,44,4544671609578 ,77,5821375099508
32.1244254 ,Left ,65,3906770414368 ,44,5522959218205 ,77,4847363296322
32.1471744 ,Left ,65,500417430062 ,44,6348780203557 ,77,5124157665176
32.1845935 ,Left ,65,442927243577 ,44,7344562272366 ,77,6232164877446
32.2069509 ,Left ,65,3751266285116 ,44,7909611266199 ,77,6790907088807
32.2446136 ,Left ,65,3109089385217 ,44,9445343509701 ,77,7407134095074
32.2820609 ,Left ,65,1722915851847 ,45,041292796551 ,77,8051864017055
32.3045469 ,Left ,65,1146168357407 ,45,0874062357864 ,77,8424282884544
32.3420122 ,Left ,65,0618994991061 ,45,2123908129128 ,77,906472606439
32.3645448 ,Left ,65,0244292804439 ,45,2635023095444 ,77,9249267717656
32.4019943 ,Left ,64,9422294890504 ,45,2992670006193 ,77,9522513558184
32.4245269 ,Left ,64,903054214842 ,45,3079687012418 ,77,9508441627819
32.4620744 ,Left ,64,8272520110236 ,45,2959795820893 ,77,9350691299147
32.4844219 ,Left ,64,8156401241478 ,45,2375617473341 ,77,912919536056
32.5220306 ,Left ,64,8323586074193 ,45,0344931408315 ,77,8265671423956
32.5447002 ,Left ,64,83161307122 ,44,9351776267805 ,77,796012449899
32.582055 ,Left ,64,9063063108663 ,45,0290527914787 ,77,7670101449093
32.6046445 ,Left ,64,9967164165697 ,45,037348392653 ,77,8217380493617
32.626773 ,Left ,65,0501672132985 ,45,0034797540534 ,77,8900756597013
32.6643045 ,Left ,65,1395157103767 ,44,9934638574719 ,77,9546127392329
32.6868542 ,Left ,65,2003237016438 ,45,0100538294038 ,77,9802295483364
32.7243073 ,Left ,65,2968938459023 ,45,0475441957493 ,78,0016751906382
32.7617451 ,Left ,65,374239717921 ,45,0357459236167 ,78,0002807587398
32.7847884 ,Left ,65,4094034758597 ,45,0109882455043 ,78,0010353123369
32.8224071 ,Left ,65,4376813480398 ,44,9697083410694 ,78,0127128384705
32.8449911 ,Left ,65,4491096036931 ,44,972969942142 ,78,0119622678459
32.8819245 ,Left ,65,4568678340819 ,45,0120399409669 ,78,0001970041394
32.9045766 ,Left ,65,4427978825842 ,45,0384660534943 ,77,9990103615955
32.9193026 ,Left ,65,4139603772623 ,45,0778044506495 ,77,9906229771348
32.9420243 ,Left ,65,3944775048085 ,45,1238057969921 ,77,9769489065853
32.964516 ,Left ,65,3827227218119 ,45,1676208715843 ,77,9533719552682
32.994747 ,Left ,65,3389657955037 ,45,2378167599695 ,77,8799169645835
33.0170567 ,Left ,65,3119764094603 ,45,2740857367063 ,77,8376490297988
33.0397435 ,Left ,65,2914700002706 ,45,3135038177426 ,77,7928141125131
33.0547219 ,Left ,65,2711102582855 ,45,354520651112 ,77,7518019191824
33.0768866 ,Left ,65,2452609314153 ,45,396347912351 ,77,697936750242
33.099679 ,Left ,65,2105060012344 ,45,4240093847203 ,77,638043044524
33.114659 ,Left ,65,1767940490049 ,45,4493492529155 ,77,5853159402621
33.1371899 ,Left ,65,1421845543799 ,45,4419898739205 ,77,5420062550046
33.1594151 ,Left ,65,0912260735837 ,45,4140303133902 ,77,5072398130053
33.1745629 ,Left ,65,0559473933698 ,45,3430408558135 ,77,4881293748442
33.1970114 ,Left ,65,0202522360153 ,45,1754451550617 ,77,5062907945419
33.2196559 ,Left ,65,0200364238267 ,45,0295375155512 ,77,5357539416347
33.2344322 ,Left ,64,9888954798877 ,45,0434603965403 ,77,5298127808917
33.25668 ,Left ,64,9631296971957 ,45,1123980232724 ,77,5526207297634
33.2790387 ,Left ,65,0102014559592 ,45,140826637333 ,77,5938266688452
33.2947354 ,Left ,65,1227682610997 ,45,0600354112817 ,77,6310792703051
33.3173477 ,Left ,65,1598302725645 ,45,0163951938691 ,77,6524437196999
33.3398582 ,Left ,65,1569853286285 ,44,9673808983806 ,77,6751387552767
33.3623308 ,Left ,65,1689328839068 ,44,9655945994814 ,77,6805718340175
33.3771385 ,Left ,65,2271161927192 ,44,9748706122777 ,77,6829328210847
33.3994749 ,Left ,65,2796690012027 ,44,9661937412017 ,77,6947839338345
33.4218948 ,Left ,65,2798974100955 ,44,93645605645 ,77,7067500755887
33.4368309 ,Left ,65,249860256486 ,44,8756469760019 ,77,7190135001649
33.4595216 ,Left ,65,2394593459351 ,44,7528957120196 ,77,7385976483094
33.4817438 ,Left ,65,2487474453292 ,44,6125762810266 ,77,7633732958096
33.497028 ,Left ,65,2701902463097 ,44,5556028522825 ,77,7611782584109
33.5195279 ,Left ,65,264770476211 ,44,6708616077377 ,77,7292951678373
33.5418401 ,Left ,65,2702111399753 ,44,7951377702582 ,77,7195435217391
33.5567673 ,Left ,65,2966447532218 ,44,8566662098222 ,77,7362821131528
33.579089 ,Left ,65,302811851763 ,44,8908985564188 ,77,7637000447197
33.601806 ,Left ,65,2932054973683 ,44,8980877809817 ,77,7802266701862
33.6168329 ,Left ,65,2918323061264 ,44,9368560581615 ,77,7817933060402
33.6393931 ,Left ,65,2941405649087 ,44,9653355763271 ,77,7627735445978
33.6619937 ,Left ,65,3268276428443 ,44,9803471616187 ,77,7459083351835
33.677073 ,Left ,65,3485807493845 ,44,9943884895469 ,77,7173366251938
33.6994008 ,Left ,65,3612912251935 ,44,9934032538692 ,77,6924105912528
33.7218777 ,Left ,65,3832426254957 ,44,9926549303568 ,77,6773140754257
33.7371899 ,Left ,65,4072700970956 ,44,990536966848 ,77,6771132866688
33.7596008 ,Left ,65,4180564601951 ,44,9904197429191 ,77,6908119787682
33.7817969 ,Left ,65,4369443170293 ,44,9894026264745 ,77,707593065467
33.797199 ,Left ,65,4621653759088 ,44,9847571181433 ,77,7228379250757
33.81963 ,Left ,65,4778978041261 ,44,9735877054959 ,77,7350402014155
33.8418692 ,Left ,65,4913749845858 ,44,9644470764964 ,77,7456744688443
33.8570008 ,Left ,65,5020754498904 ,44,9697545020339 ,77,7462058068087
33.8791462 ,Left ,65,507774577277 ,44,978620089225 ,77,7438307293577
33.9016011 ,Left ,65,5295701519066 ,44,9969552963163 ,77,7351738985608
33.91652 ,Left ,65,5576941941468 ,45,0116892952139 ,77,7250221226114
33.9394066 ,Left ,65,585826123705 ,45,0264300898842 ,77,7149313506596
33.9616761 ,Left ,65,6010661713015 ,45,0398235083361 ,77,705395933051
33.9766411 ,Left ,65,6081728886997 ,45,0505571269206 ,77,7013456508353
33.9991226 ,Left ,65,6164649809553 ,45,0656370907693 ,77,6965820515637
34.022024 ,Left ,65,6229527576212 ,45,0634090715193 ,77,6921028897291
34.0366052 ,Left ,65,6287970209571 ,45,0626156120346 ,77,683257596452
34.0591843 ,Left ,65,6366678612734 ,45,0565100822712 ,77,6762286576705
34.0817496 ,Left ,65,6429850241195 ,45,0598412681633 ,77,6585799274583
34.0968403 ,Left ,65,6518691160805 ,45,0636447907971 ,77,6376772165619
34.1194815 ,Left ,65,6713439273672 ,45,0581975590658 ,77,6073799759337
34.1418345 ,Left ,65,6887845265315 ,45,0451645118741 ,77,5689558938247
34.1645203 ,Left ,65,7053722906011 ,45,0272419497632 ,77,5179723258404
34.1870402 ,Left ,65,718558873172 ,45,0108897686586 ,77,4643263934471
34.2243709 ,Left ,65,7544955807749 ,44,9715881797472 ,77,3383645734201
34.2395207 ,Left ,65,778594891215 ,44,9508360624355 ,77,2709477482274
34.261972 ,Left ,65,7945918314308 ,44,9243024896294 ,77,2082176113844
34.284033 ,Left ,65,8212309350102 ,44,9035361787425 ,77,1527866811838
34.2999968 ,Left ,65,8452381523777 ,44,880947442468 ,77,1034742031889
34.3223173 ,Left ,65,8750058954988 ,44,8548800436711 ,77,066052272897
34.3446266 ,Left ,65,8931948642208 ,44,8360059519613 ,77,0411241250091
34.3594755 ,Left ,65,8970655270116 ,44,8102882271998 ,77,0257886058955
34.3818062 ,Left ,65,8939005446379 ,44,790769027627 ,77,0197357199756
34.4042618 ,Left ,65,8948053955459 ,44,7802582338145 ,77,015852280823
34.4192394 ,Left ,65,88891388073 ,44,7740770741448 ,77,0108621570177
34.4417945 ,Left ,65,8807137707315 ,44,7712079966569 ,77,0163269013088
34.4642368 ,Left ,65,8594152373677 ,44,7719572911255 ,77,0323366895397
34.4793224 ,Left ,65,8367882486998 ,44,7705151923757 ,77,0582893029614
34.5018642 ,Left ,65,7966432840098 ,44,7747881150906 ,77,0963847456628
34.5243352 ,Left ,65,7603392052494 ,44,7906397923987 ,77,137640186681
34.5394701 ,Left ,65,720648283079 ,44,8130004568609 ,77,1945099097116
34.5617315 ,Left ,65,6619733430516 ,44,8457239336173 ,77,2644293244656
34.5844049 ,Left ,65,6117110726523 ,44,872851072443 ,77,3411445078104
34.5994442 ,Left ,65,5475228501804 ,44,9075399051114 ,77,4172793305286
34.6218848 ,Left ,65,4870713610952 ,44,93923502617 ,77,485286326666
34.6445122 ,Left ,65,4360119530628 ,44,9604533056121 ,77,536347186929
34.6593091 ,Left ,65,3830896209264 ,44,9593715482341 ,77,5695893076336
34.6818716 ,Left ,65,3231976563222 ,44,9436497141649 ,77,59418029447
34.7042979 ,Left ,65,2708844816536 ,44,9061692638682 ,77,5957656208301
34.7192241 ,Left ,65,2249194824353 ,44,8486123613009 ,77,5825935649297
34.741812 ,Left ,65,1613252219275 ,44,7554265445586 ,77,5748343642295
34.7640899 ,Left ,65,141628662637 ,44,7463218469331 ,77,5494126291148
34.779195 ,Left ,65,1252621542555 ,44,813663094357 ,77,5355491352111
34.8016147 ,Left ,65,1831965864465 ,44,8710602629692 ,77,5738119024369
34.8241767 ,Left ,65,2495632117567 ,44,8784740896843 ,77,6432589942607
34.8391711 ,Left ,65,2657248671279 ,44,854101427789 ,77,704144711045
34.8617968 ,Left ,65,273456733555 ,44,8347756284519 ,77,7435430230603
34.8846012 ,Left ,65,2875640943151 ,44,8166124315957 ,77,7624943083195
34.8994492 ,Left ,65,3411200198389 ,44,8327216400186 ,77,7532878195719
34.9219049 ,Left ,65,3892461003846 ,44,8446068142658 ,77,7361498555255
34.9445145 ,Left ,65,4101401172151 ,44,8541044292239 ,77,7165811550156
34.9595117 ,Left ,65,4409736687579 ,44,8488221103607 ,77,6994638597194
34.9819197 ,Left ,65,472391698351 ,44,831391635859 ,77,6899025256226
35.0043457 ,Left ,65,4786924042493 ,44,8023330122279 ,77,6816217734553
35.0193203 ,Left ,65,4742018259875 ,44,7668187260662 ,77,6748444386797
35.0417343 ,Left ,65,4624546613176 ,44,7335437087007 ,77,6712856812006
35.064034 ,Left ,65,4515175866053 ,44,7110184302232 ,77,6659592503611
35.0793085 ,Left ,65,4181646982533 ,44,7113221261182 ,77,6678796257345
35.1016021 ,Left ,65,4005390183942 ,44,7075746472719 ,77,6573613317575
35.124779 ,Left ,65,3864737905052 ,44,6464475560251 ,77,6170969972266
35.1398982 ,Left ,65,3720692541884 ,44,5135960037073 ,77,6039534727526
35.1618882 ,Left ,65,3755338613823 ,44,3992862116147 ,77,5880190092939
35.1842293 ,Left ,65,3357684440698 ,44,4163623091991 ,77,5513045971492
35.2067878 ,Left ,65,3791711271733 ,44,4882134743924 ,77,5406178651877
35.2218158 ,Left ,65,4665354022796 ,44,5545472693111 ,77,5467604526234
35.244421 ,Left ,65,4869078697422 ,44,6112046001597 ,77,5731332177665
35.2667126 ,Left ,65,4136009133125 ,44,6529833296964 ,77,5940961149739
35.2817209 ,Left ,65,3980841048388 ,44,6886096561333 ,77,6145656491896
35.304593 ,Left ,65,3981758119824 ,44,6739440682788 ,77,6198085904533
35.3265801 ,Left ,65,3947639424225 ,44,5646623949879 ,77,6252126412891
35.3415853 ,Left ,65,3501314492369 ,44,4246605621474 ,77,6226933168839
35.3641605 ,Left ,65,2864264252815 ,44,4451548613439 ,77,5836265269504
35.386863 ,Left ,65,3424834151611 ,44,5405054909713 ,77,5637325479672
35.4016221 ,Left ,65,4695665212956 ,44,6226874196298 ,77,5721937201947
35.4242252 ,Left ,65,508154900989 ,44,6893950525564 ,77,6096668642307
35.4468039 ,Left ,65,4422712890034 ,44,7434649732926 ,77,6532252518404
35.4618333 ,Left ,65,3789138747554 ,44,810563362658 ,77,6997686853538
35.4843901 ,Left ,65,3509051239087 ,44,8949451973411 ,77,7355472691848
35.5073159 ,Left ,65,32897761536 ,44,9331973673193 ,77,7731744135581
35.5223498 ,Left ,65,27609709143 ,44,9240504883188 ,77,8193098675476
35.5449286 ,Left ,65,225072080053 ,44,913403789407 ,77,8504642858702
35.5673306 ,Left ,65,184156124483 ,44,9200853526684 ,77,8593855653227
35.5823115 ,Left ,65,1550860111211 ,44,9400309855529 ,77,8668732704152
35.6049308 ,Left ,65,1165304416282 ,44,9479238320122 ,77,8697797610152
35.6265472 ,Left ,65,0811855871291 ,44,9149192343668 ,77,8657000280212
35.6416202 ,Left ,65,0502763506078 ,44,8494491006797 ,77,8509494082927
35.6642909 ,Left ,65,008648298009 ,44,7512403321858 ,77,8264090742237
35.6864577 ,Left ,64,9909548289345 ,44,7346778970671 ,77,8008166685561
35.7018114 ,Left ,65,0124369444394 ,44,8032132634585 ,77,7816558732028
35.7245407 ,Left ,65,0645570129618 ,44,8623051422555 ,77,8093153854788
35.7469738 ,Left ,65,1244082023133 ,44,8738226443843 ,77,8545197160069
35.7621017 ,Left ,65,1319193508127 ,44,8477051890653 ,77,8954429242354
35.7842605 ,Left ,65,1540706884045 ,44,8282966976853 ,77,9108190015512
35.8068556 ,Left ,65,2096773424877 ,44,8440588145084 ,77,8982804843294
35.8219071 ,Left ,65,2581946464294 ,44,8790371924321 ,77,8931487594234
35.8445121 ,Left ,65,2831109510152 ,44,9245004183772 ,77,8842955253807
35.8670286 ,Left ,65,2710805501483 ,44,9601393501329 ,77,8797310273182
35.8820132 ,Left ,65,2696626267344 ,44,9676827049241 ,77,8812909651769
35.9042535 ,Left ,65,2638255752285 ,45,0132529091525 ,77,879659422185
35.9268496 ,Left ,65,2520306631573 ,45,0760636108187 ,77,8621708751654
35.9418053 ,Left ,65,2265202615317 ,45,1467461137176 ,77,8287858601763
35.9644675 ,Left ,65,1988961625502 ,45,2092334597653 ,77,7808860050715
35.9870059 ,Left ,65,1776374125885 ,45,2599461946326 ,77,7288618191713
36.0094819 ,Left ,65,1613852977538 ,45,3026132074685 ,77,6762311386233
36.024429 ,Left ,65,1364888602573 ,45,3379678558983 ,77,6165482771712
36.046992 ,Left ,65,112707992516 ,45,3536658137666 ,77,5614104713166
36.0619587 ,Left ,65,0782915960743 ,45,3499673441016 ,77,5164325625669
36.0845506 ,Left ,65,0429432101557 ,45,3250557050257 ,77,4752970911982
36.1142688 ,Left ,65,0219057793089 ,45,2649294003448 ,77,450321068093
36.1295493 ,Left ,64,9841526470721 ,45,1054702234348 ,77,4666713404885
36.1519837 ,Left ,64,9820940034213 ,44,9159933690299 ,77,499384292367
36.1669845 ,Left ,64,9814624749291 ,44,8323631806802 ,77,5040203693524
36.1895204 ,Left ,64,9896040514572 ,44,8276459028001 ,77,5171655908793
36.2046255 ,Left ,65,0683052943243 ,44,8288107204558 ,77,5442371464317
36.2270929 ,Left ,65,1677447379227 ,44,7697157611322 ,77,583570208862
36.2494684 ,Left ,65,2085940922324 ,44,7280561818322 ,77,6300006846175
36.2645071 ,Left ,65,2402461411028 ,44,6685425947196 ,77,6703979602144
36.2870169 ,Left ,65,2718203087195 ,44,641756298825 ,77,6993337464444
36.3095862 ,Left ,65,2885389196424 ,44,6532187065741 ,77,7276745804968
36.3243255 ,Left ,65,3150232258749 ,44,6686451761789 ,77,7579337791661
36.3467879 ,Left ,65,3286219675521 ,44,6701852515507 ,77,7886563420526
36.3695089 ,Left ,65,3255067973109 ,44,6312014300786 ,77,8239628920134
36.3845516 ,Left ,65,3250138115311 ,44,5252592944537 ,77,8674582729384
36.406958 ,Left ,65,3355300509614 ,44,405579310416 ,77,912460602866
36.4293676 ,Left ,65,3441684388294 ,44,3781779108602 ,77,9041220934155
36.4445391 ,Left ,65,3317255905016 ,44,5043331266518 ,77,8551680578912
36.4667558 ,Left ,65,3137605294202 ,44,6470281664417 ,77,8309875806773
36.4892907 ,Left ,65,3401863545033 ,44,7195964115636 ,77,8508910030011
36.5042658 ,Left ,65,378907197951 ,44,7461362075061 ,77,88467350845
36.5270812 ,Left ,65,3879633972287 ,44,7286257291982 ,77,9142099110106
36.5492787 ,Left ,65,39697065382 ,44,7661418942163 ,77,9239991531911
36.56461 ,Left ,65,4158208772011 ,44,7978315920458 ,77,9142594142813
36.5870548 ,Left ,65,4810428930504 ,44,8166507302116 ,77,8826776455927
36.6095132 ,Left ,65,5034235226203 ,44,8346293737125 ,77,8459851574286
36.6243768 ,Left ,65,5023443363894 ,44,8329978958327 ,77,8106706635183
36.6470571 ,Left ,65,5131479599284 ,44,8463053105898 ,77,7778634850595
36.6693701 ,Left ,65,5310803961437 ,44,85596503225 ,77,7449691656371
36.6844946 ,Left ,65,5725742574498 ,44,8524318502216 ,77,7220245222549
36.70692 ,Left ,65,5881953713578 ,44,8500925920034 ,77,6983566367881
36.7294999 ,Left ,65,5974446540258 ,44,8480318881383 ,77,6838484643892
36.7443618 ,Left ,65,6217526050453 ,44,8419819617498 ,77,6856380171921
36.7668298 ,Left ,65,6665876274651 ,44,8488313658136 ,77,6814347151709
