timestamp,event,roll,pitch,yaw
0.0166257 ,Left ,69,3293773293511 ,48,2094426253448 ,72,7300113065958
0.0392654 ,Left ,69,3307691834571 ,48,2115136532385 ,72,7291101644238
0.0617382 ,Left ,69,3307691834571 ,48,2115136532385 ,72,7291101644238
0.0767408 ,Left ,69,3328660662359 ,48,210416507478 ,72,7292042313409
0.0993146 ,Left ,69,3325519570537 ,48,209755041643 ,72,7290482012718
0.1221346 ,Left ,69,3341746013202 ,48,2109251049319 ,72,7304860563799
0.1367808 ,Left ,69,3362715407137 ,48,2098279545907 ,72,73058008204
0.1592076 ,Left ,69,3362715407137 ,48,2098279545907 ,72,73058008204
0.1819272 ,Left ,69,3357270368658 ,48,2100674572484 ,72,7280855669553
0.1969909 ,Left ,69,3357270368658 ,48,2100674572484 ,72,7280855669553
0.2196867 ,Left ,69,3378242439172 ,48,2089704195638 ,72,7281796989458
0.2420984 ,Left ,69,3357270368658 ,48,2100674572484 ,72,7280855669553
0.2569428 ,Left ,69,3373497938163 ,48,2112373986113 ,72,7295237696915
0.2794855 ,Left ,69,3394468782831 ,48,2101403700344 ,72,729617855305
0.3017974 ,Left ,69,3394468782831 ,48,2101403700344 ,72,729617855305
0.3170316 ,Left ,69,3394468782831 ,48,2101403700344 ,72,729617855305
0.3396288 ,Left ,69,3394468782831 ,48,2101403700344 ,72,729617855305
0.3620091 ,Left ,69,3415440628619 ,48,2090433329176 ,72,7297119331741
0.3766822 ,Left ,69,3392164411531 ,48,2110415737293 ,72,7272795424745
0.3995003 ,Left ,69,3392164411531 ,48,2110415737293 ,72,7272795424745
0.4218114 ,Left ,69,3408392134478 ,48,2122115070098 ,72,7287179877544
0.4368578 ,Left ,69,3408392134478 ,48,2122115070098 ,72,7287179877544
0.459917 ,Left ,69,3413137142694 ,48,209944662962 ,72,7273737215836
0.4823634 ,Left ,69,3429363639202 ,48,2111146053441 ,72,7288121204715
0.4967845 ,Left ,69,3429363639202 ,48,2111146053441 ,72,7288121204715
0.5193542 ,Left ,69,3319180928871 ,48,2149510986289 ,72,7318918844949
0.5419541 ,Left ,69,3319180928871 ,48,2149510986289 ,72,7318918844949
0.5568873 ,Left ,69,324865479028 ,48,2174950598535 ,72,7328222886016
0.5800961 ,Left ,69,3191321789714 ,48,2266005130473 ,72,7321689606571
0.6024068 ,Left ,69,3088376818379 ,48,2268024017095 ,72,7302250023039
0.6174442 ,Left ,69,3031440006722 ,48,2265604216476 ,72,7204250121771
0.6398593 ,Left ,69,2869582823239 ,48,219000604177 ,72,7092548536143
0.6618455 ,Left ,69,2737583532668 ,48,2235536537731 ,72,7017440068106
0.6769517 ,Left ,69,2509561385098 ,48,2930055485242 ,72,7161307472782
0.6994602 ,Left ,69,1945536332212 ,48,4031429875079 ,72,7638060541159
0.7217992 ,Left ,69,1567530660805 ,48,5056666418113 ,72,8261969656236
0.7441541 ,Left ,69,1406292026319 ,48,5797725885986 ,72,882718646264
0.7599106 ,Left ,69,118319524227 ,48,6524187753376 ,72,9246743229975
0.7823536 ,Left ,69,1376205908064 ,48,7091479734362 ,72,9508338665946
0.8049349 ,Left ,69,1268384550923 ,48,713056956951 ,72,9538641712833
0.8198176 ,Left ,69,0993938718715 ,48,6702212320302 ,72,9320288732734
0.842264 ,Left ,69,0194611891458 ,48,5877311283454 ,72,8896222547137
0.864717 ,Left ,68,9660418497525 ,48,4885722857221 ,72,8330842291264
0.8792066 ,Left ,68,9485186518686 ,48,3993656817569 ,72,7781271217002
0.9016764 ,Left ,68,92158399308 ,48,3568067087642 ,72,7960978741503
0.9242736 ,Left ,68,9215965162206 ,48,370195225371 ,72,7984329515672
0.9395424 ,Left ,68,9823998219896 ,48,3782986304672 ,72,7796733079888
0.9621521 ,Left ,69,013831738247 ,48,4033625151528 ,72,7747197623847
0.9847162 ,Left ,68,9809982053637 ,48,472519386863 ,72,7576775356304
0.9994016 ,Left ,68,9536106527972 ,48,5300498254197 ,72,7472433625213
1.0217577 ,Left ,68,9750429456718 ,48,5657458805992 ,72,7415153445595
1.044307 ,Left ,68,9702841575576 ,48,5524146271912 ,72,7364278388561
1.05929 ,Left ,68,958671921516 ,48,521712444566 ,72,7514239872635
1.0819046 ,Left ,68,9256176870699 ,48,482603852159 ,72,7584591329054
1.1044786 ,Left ,68,9164196418436 ,48,4445654348246 ,72,7543803902935
1.119527 ,Left ,68,9315309315801 ,48,4256070061231 ,72,7595831792215
1.1419067 ,Left ,68,9274690305018 ,48,4183863271744 ,72,7750414039301
1.1646461 ,Left ,68,9242260257678 ,48,4258323417409 ,72,7976631482906
1.1794861 ,Left ,68,9276416449653 ,48,4460180835261 ,72,8066613204017
1.2025711 ,Left ,68,9286735434385 ,48,4445177755262 ,72,799610296183
1.2324602 ,Left ,68,9200012853585 ,48,4543086085547 ,72,7917044776204
1.2473401 ,Left ,68,9109312622315 ,48,4842365118579 ,72,7868060933241
1.2696586 ,Left ,68,9226446510721 ,48,5183448177601 ,72,7836740215104
1.2998533 ,Left ,68,9315933281637 ,48,5701307899309 ,72,7774442763333
1.3222756 ,Left ,68,9294806612967 ,48,5856502753086 ,72,7670897525909
1.344671 ,Left ,68,9235180522763 ,48,5980094427262 ,72,7595801751958
1.3596909 ,Left ,68,9222793482749 ,48,6208065484894 ,72,7511777569738
1.3819849 ,Left ,68,9203918428704 ,48,6245924980604 ,72,7303822603468
1.4046694 ,Left ,68,9089437330996 ,48,5902151677946 ,72,7111697086941
1.4195705 ,Left ,68,9022862071687 ,48,5458529300399 ,72,7042302801768
1.4419965 ,Left ,68,9196102600577 ,48,5400891821147 ,72,7387284036546
1.4646856 ,Left ,68,9034125804735 ,48,5702375865755 ,72,7719084532866
1.4796657 ,Left ,68,867279475362 ,48,5932715390734 ,72,7634005715031
1.5017269 ,Left ,68,9044178279872 ,48,5850589557642 ,72,7687717854751
1.5241994 ,Left ,68,8492023776199 ,48,6607469878797 ,72,7812517729178
1.5466988 ,Left ,68,8369123544995 ,48,7665988620792 ,72,7833159373719
1.569325 ,Left ,68,8880064685186 ,48,8114401481886 ,72,7938177039413
1.5915837 ,Left ,68,897527541627 ,48,8206836211673 ,72,8142172761689
1.606854 ,Left ,68,8760156496222 ,48,8012305521479 ,72,8340049508432
1.6218838 ,Left ,68,8623285429074 ,48,7590054489693 ,72,8464147375202
1.6442471 ,Left ,68,8621481030594 ,48,697867791187 ,72,8382352751926
1.6594491 ,Left ,68,8980634076716 ,48,6570686393042 ,72,834671587682
1.6817524 ,Left ,68,8850115894798 ,48,6368305996694 ,72,8305945556211
1.7046856 ,Left ,68,8947056866804 ,48,6270716290506 ,72,8292553729711
1.727054 ,Left ,68,9368800003193 ,48,6100676798455 ,72,8224957271356
1.749606 ,Left ,68,9541199286852 ,48,5895786255527 ,72,8158968336661
1.7796544 ,Left ,68,9579440966349 ,48,5764159663303 ,72,8091184878147
1.8021739 ,Left ,68,9754420667891 ,48,5881687484551 ,72,7985268184906
1.8247171 ,Left ,68,9894512060071 ,48,6069256494747 ,72,7955925663265
1.8396553 ,Left ,68,9863531003997 ,48,623948696944 ,72,7923211345584
1.8622529 ,Left ,68,9770016577486 ,48,6471942199287 ,72,7902792697257
1.884842 ,Left ,68,9744879405776 ,48,6640099598177 ,72,789501672938
1.899784 ,Left ,68,9673805200405 ,48,6847479186124 ,72,7838887230312
1.9222295 ,Left ,68,9494299592034 ,48,70100377881 ,72,7841751897149
1.9447384 ,Left ,68,9322331854619 ,48,7269385333028 ,72,7819235285341
1.9671887 ,Left ,68,9211117595809 ,48,7490450800949 ,72,7739517648523
1.9819967 ,Left ,68,9013950212183 ,48,766494911426 ,72,7682958204164
2.0042886 ,Left ,68,8839390351702 ,48,7917437479333 ,72,7658992024878
2.0267885 ,Left ,68,8715966508285 ,48,8191431890042 ,72,7641614884702
2.041705 ,Left ,68,8678028240078 ,48,8451817327378 ,72,7629737832843
2.0645633 ,Left ,68,8571511797177 ,48,8692911020744 ,72,7633641565509
2.0869098 ,Left ,68,8387087846154 ,48,8886649010343 ,72,7626759091409
2.1019955 ,Left ,68,8204711080129 ,48,9056559297568 ,72,7664784098439
2.1247033 ,Left ,68,8115245338135 ,48,9264810278762 ,72,7689839073461
2.1543472 ,Left ,68,7819867445906 ,48,9534444078526 ,72,7763528546226
2.1769279 ,Left ,68,7569060227036 ,48,9670045810468 ,72,7838878388833
2.2142871 ,Left ,68,7340238637302 ,48,9997116504807 ,72,7888740159874
2.2368607 ,Left ,68,7122937031297 ,49,0136536458519 ,72,7896316779558
2.2741664 ,Left ,68,6854819547177 ,49,040302991487 ,72,7913987867756
2.2967376 ,Left ,68,6728926095186 ,49,0497544362944 ,72,7936722031071
2.3345254 ,Left ,68,6527840716696 ,49,0663462213609 ,72,7995489555229
2.3573422 ,Left ,68,6500100034297 ,49,074973604018 ,72,8036635510538
2.3950025 ,Left ,68,6340406792467 ,49,0991526374778 ,72,8105879336544
2.4172959 ,Left ,68,629531339797 ,49,1080303082635 ,72,8169342534261
2.4546726 ,Left ,68,6207540607744 ,49,1273608626857 ,72,8216139301985
2.4771206 ,Left ,68,6136161848333 ,49,1322179110501 ,72,8238633897862
2.5216932 ,Left ,68,5926548510129 ,49,143047796773 ,72,8255843297266
2.5441791 ,Left ,68,5963299738007 ,49,1431634609731 ,72,8271215896663
2.5743185 ,Left ,68,5821572191567 ,49,1402174535389 ,72,8234093791461
2.5970449 ,Left ,68,5754011039421 ,49,1398202247909 ,72,8228068218044
2.6346368 ,Left ,68,5784829863656 ,49,1401015506771 ,72,8218733931497
2.6571174 ,Left ,68,5784829863656 ,49,1401015506771 ,72,8218733931497
2.702129 ,Left ,68,5784829863656 ,49,1401015506771 ,72,8218733931497
2.7244969 ,Left ,68,5791183532555 ,49,1340086295638 ,72,8213405309976
2.7543002 ,Left ,68,5807696584972 ,49,1165668528276 ,72,8174261856946
2.7768015 ,Left ,68,581607870691 ,49,1081274589492 ,72,8213925475055
2.8145124 ,Left ,68,5795939386737 ,49,1092165419885 ,72,8213010840696
2.8371333 ,Left ,68,5795939386737 ,49,1092165419885 ,72,8213010840696
2.8749253 ,Left ,68,5704877133207 ,49,09412102534 ,72,8284670666952
2.9048449 ,Left ,68,5702890872573 ,49,0895986256682 ,72,8349941667567
2.9418339 ,Left ,68,5744290953465 ,49,0692611650864 ,72,8520700186612
2.9568523 ,Left ,68,5710645986738 ,49,0555178922147 ,72,8609167160889
2.9949984 ,Left ,68,582999572679 ,49,033017751821 ,72,8901215272631
3.0173291 ,Left ,68,5856587594063 ,49,0272033138758 ,72,903768921866
3.0550692 ,Left ,68,5985093907794 ,49,0240719245272 ,72,9312930606061
3.0772568 ,Left ,68,6025376716626 ,49,0262092996539 ,72,947059351166
3.114815 ,Left ,68,6170329007874 ,49,0437798775279 ,72,9732125113393
3.1370816 ,Left ,68,6275982849119 ,49,0471063265891 ,72,9872673847606
3.1746981 ,Left ,68,6435173548375 ,49,0383411940274 ,73,0005062110261
3.1972367 ,Left ,68,6483638964291 ,49,0314513839986 ,73,0084101302229
3.234938 ,Left ,68,6658117330807 ,49,0066677733858 ,73,0214324662314
3.264814 ,Left ,68,671329833303 ,48,9981528026118 ,73,0281196967045
3.3022749 ,Left ,68,683878560742 ,48,9787360183486 ,73,0354317291113
3.3172426 ,Left ,68,687795910101 ,48,9705405761937 ,73,0384876247027
3.3546712 ,Left ,68,7059062212471 ,48,9465399083061 ,73,0399025720687
3.3771051 ,Left ,68,7098961451391 ,48,9398595863135 ,73,0407670579955
3.4145798 ,Left ,68,7187459379392 ,48,9331843065129 ,73,038447604198
3.4368437 ,Left ,68,7228314816582 ,48,9250605292184 ,73,035624122203
3.4746417 ,Left ,68,7230905370392 ,48,9242151430406 ,73,0379528375379
3.4971173 ,Left ,68,7367578846934 ,48,9234732734589 ,73,0354396314302
3.534652 ,Left ,68,7623380371829 ,48,9148015923267 ,73,0318700012883
3.5569022 ,Left ,68,774193216307 ,48,9127920877179 ,73,0338033592536
3.5944733 ,Left ,68,7966952447698 ,48,915036807945 ,73,0357529654476
3.6242959 ,Left ,68,8113861361439 ,48,9170945482089 ,73,0359417945001
3.6771994 ,Left ,68,8599843517413 ,48,9356753173331 ,73,0534586607059
3.7148109 ,Left ,68,9713917645456 ,48,9720303203713 ,73,0806570066829
3.7371874 ,Left ,69,0304361015902 ,49,0036961740822 ,73,1009475378917
3.7746444 ,Left ,69,1776595578735 ,49,0728923287809 ,73,1540152864761
3.7970897 ,Left ,69,2787872871316 ,49,1319210205203 ,73,1708241177725
3.8346629 ,Left ,69,3689705606742 ,49,2819277332364 ,73,217532437659
3.8571127 ,Left ,69,3859210899733 ,49,347291508101 ,73,2442575210736
3.8945197 ,Left ,69,3965911245277 ,49,4375217962582 ,73,3033123651847
3.9170008 ,Left ,69,3985807223525 ,49,4635177406618 ,73,3259136784768
3.9621365 ,Left ,69,3903822533698 ,49,4772908051009 ,73,3398075109359
3.9847182 ,Left ,69,3833679029586 ,49,4551840152096 ,73,3396429715341
4.0069833 ,Left ,69,3891730812584 ,49,3692230963399 ,73,3385876194081
4.0296733 ,Left ,69,3917043653606 ,49,3055345744637 ,73,3413701169819
4.0519753 ,Left ,69,3831436473351 ,49,2225872069533 ,73,3477802012664
4.0670058 ,Left ,69,3655995131513 ,49,1398692698044 ,73,3511322526679
4.0971102 ,Left ,69,3487213933421 ,49,0685155648964 ,73,3479050053171
4.1192128 ,Left ,69,3401380646941 ,49,010783947302 ,73,3449496231494
4.1344475 ,Left ,69,3352212496929 ,48,9660500187841 ,73,3380494009738
4.1493842 ,Left ,69,3361467768355 ,48,9382963174174 ,73,3325553372863
4.1716236 ,Left ,69,3304715522227 ,48,9274047277285 ,73,3283741457497
4.1867048 ,Left ,69,3170381791315 ,48,9290914333076 ,73,3248906984574
4.2096168 ,Left ,69,2938873528195 ,48,9354859966746 ,73,3210252722656
4.232088 ,Left ,69,2590967467855 ,48,9358194766537 ,73,3106133403801
4.246876 ,Left ,69,2314118851825 ,48,9340113582814 ,73,3054262129667
4.2692646 ,Left ,69,2132173682712 ,48,9358378976653 ,73,2991772260028
4.2922466 ,Left ,69,2081520406212 ,48,9398196549868 ,73,2955907274444
4.3071261 ,Left ,69,1952819815826 ,48,9368001855565 ,73,2952470950741
4.329787 ,Left ,69,1759286573384 ,48,9327676301075 ,73,2906397303919
4.3522138 ,Left ,69,1456021404765 ,48,9210801873102 ,73,2782734745478
4.3671359 ,Left ,69,1213913714808 ,48,9031080211865 ,73,2646738740324
4.3898767 ,Left ,69,0903742401334 ,48,8848063693032 ,73,2504868083726
4.4121767 ,Left ,69,0667827307735 ,48,8691460689695 ,73,2290440139871
4.4269553 ,Left ,69,0385867429036 ,48,8351092837179 ,73,1935209285489
4.4493268 ,Left ,69,0013433357518 ,48,7904065824128 ,73,1646164248273
4.4718023 ,Left ,68,9545409182035 ,48,7850932746353 ,73,15321587386
4.4870304 ,Left ,68,9172020575537 ,48,8289947487856 ,73,1828878961383
4.509356 ,Left ,68,9120646052898 ,48,846595716782 ,73,2078141317562
4.5319026 ,Left ,68,9706017249651 ,48,8451402392482 ,73,2278541948882
4.5469684 ,Left ,68,9587301834939 ,48,8698620798511 ,73,2530287090136
4.5700401 ,Left ,68,9364311302789 ,48,9086910137083 ,73,2657343058023
4.592415 ,Left ,68,9770520799834 ,48,9093651808633 ,73,2574440512525
4.6074938 ,Left ,68,9841979844311 ,48,876349345659 ,73,2369088512242
4.6300092 ,Left ,68,9352885672585 ,48,8385647888767 ,73,2219344092744
4.6525364 ,Left ,68,8914848796757 ,48,7881253896791 ,73,1957237986853
4.6675383 ,Left ,68,9114744462365 ,48,7270741476936 ,73,1571871386027
4.6896146 ,Left ,68,941577534663 ,48,6717699427886 ,73,1258434697335
4.7119454 ,Left ,68,9277154548028 ,48,6122044342035 ,73,1144412984141
4.7345654 ,Left ,68,9070929786623 ,48,5669759140916 ,73,1146807701498
4.7495449 ,Left ,68,9060906249432 ,48,5321926677632 ,73,1043594165435
4.7719223 ,Left ,68,9259323664689 ,48,4822953293752 ,73,0800030154607
4.794487 ,Left ,68,9499201482272 ,48,438428708328 ,73,0588246712955
4.8094219 ,Left ,68,8853929608223 ,48,4275363501809 ,73,0535595008281
4.8324818 ,Left ,68,77916996666 ,48,4394598528661 ,73,0405826998884
4.8546545 ,Left ,68,8107959585456 ,48,4864524769553 ,73,0466625556872
4.8696871 ,Left ,68,8453056212885 ,48,5855778932348 ,73,0789655621094
4.8920414 ,Left ,68,8302133576477 ,48,6579654442059 ,73,1045095626626
4.9146124 ,Left ,68,8453659344629 ,48,6764286125235 ,73,1026086095519
4.9297547 ,Left ,68,8577693829787 ,48,6559703568844 ,73,0874176500183
4.9519917 ,Left ,68,8005893332748 ,48,6256446658551 ,73,0570830643324
4.9746644 ,Left ,68,7647806834728 ,48,5905863540915 ,73,0079781483747
4.989545 ,Left ,68,7883114499962 ,48,5585604128721 ,72,9561773831855
5.012053 ,Left ,68,718706140869 ,48,5432019131989 ,72,9421354463274
5.0347431 ,Left ,68,6642128398443 ,48,5522081564739 ,72,9335808422886
5.0496982 ,Left ,68,7196662735153 ,48,6101676677967 ,72,9538414756107
5.0720088 ,Left ,68,7266632675425 ,48,7291793707985 ,72,9742544304476
5.0947179 ,Left ,68,7076677749976 ,48,8379086002445 ,72,9700087250356
5.1097161 ,Left ,68,6962553333865 ,48,8760655889084 ,72,9469643203602
5.131986 ,Left ,68,676616475973 ,48,8774031772971 ,72,9210492118528
5.1547391 ,Left ,68,6222265879388 ,48,8515041074625 ,72,8866724717142
5.1697725 ,Left ,68,5873529260147 ,48,8576590284227 ,72,8427466350303
5.1921207 ,Left ,68,5755439903281 ,48,8491941992975 ,72,7711716713492
5.2144616 ,Left ,68,5618437614083 ,48,8235919221728 ,72,712172256914
5.229479 ,Left ,68,4934435962429 ,48,7770791730144 ,72,6768999670956
5.2520482 ,Left ,68,480073026003 ,48,7563222398199 ,72,644079142465
5.2744925 ,Left ,68,5288018160231 ,48,7736194532211 ,72,6312197485967
5.2895317 ,Left ,68,5135334456707 ,48,8701903052255 ,72,6247897673746
5.3119258 ,Left ,68,5249468559491 ,48,9769957127572 ,72,6153939934626
5.3346924 ,Left ,68,5928116090636 ,49,0069316524826 ,72,6184377757084
5.349694 ,Left ,68,6232282903897 ,49,0007083813258 ,72,6213079935293
5.371953 ,Left ,68,6282017535569 ,48,9969128463228 ,72,6247809296864
5.4021347 ,Left ,68,5948962723537 ,48,959574392331 ,72,6106998543643
5.417092 ,Left ,68,6051095027449 ,48,9387822700524 ,72,5932961507232
5.4396048 ,Left ,68,6123794008266 ,48,9251087825765 ,72,5821221131557
5.4770361 ,Left ,68,6354311417355 ,48,9510863236517 ,72,5085930088164
5.4992201 ,Left ,68,6105948905649 ,48,9609188707859 ,72,4419488943609
5.5225761 ,Left ,68,5687692034191 ,48,963598061243 ,72,3654251602242
5.5374779 ,Left ,68,5286302473331 ,48,9654720273255 ,72,3168920471375
5.5524305 ,Left ,68,4653107071438 ,48,9891721301693 ,72,2768488605332
5.5750948 ,Left ,68,4531896552653 ,49,0274659839048 ,72,1992520643332
5.590156 ,Left ,68,4347378942456 ,48,9853665587179 ,72,1072668387783
5.6126948 ,Left ,68,4012117378509 ,48,944351699117 ,72,1254173597231
5.6350569 ,Left ,68,4598595492465 ,49,0167098383153 ,72,2113166490481
5.6569007 ,Left ,68,501062776439 ,49,1214949826591 ,72,2755903485149
5.6718185 ,Left ,68,5635232745365 ,49,1308442554089 ,72,3086651506373
5.6944118 ,Left ,68,5813002562809 ,49,0596216566416 ,72,3030897439806
5.7170145 ,Left ,68,5209360127267 ,48,9132638301993 ,72,2794131871913
5.7317414 ,Left ,68,5469320644251 ,48,7598644395234 ,72,2537108895989
5.7542741 ,Left ,68,5782195083122 ,48,6435197708433 ,72,2547919211498
5.7768237 ,Left ,68,5764240694526 ,48,5724803012069 ,72,2866294585033
5.7916623 ,Left ,68,5547638540159 ,48,5151466004162 ,72,2887707934451
5.8144464 ,Left ,68,6620157966424 ,48,4182074564953 ,72,2705724379379
5.8368391 ,Left ,68,7707169828846 ,48,3406292823837 ,72,2527735611169
5.8520199 ,Left ,68,7812038272945 ,48,3380799469894 ,72,2346763438031
5.8741608 ,Left ,68,7593185842939 ,48,3811122719586 ,72,2095800448402
5.8967405 ,Left ,68,7984469949499 ,48,3917334458497 ,72,1897033462334
5.9117609 ,Left ,68,8705587402065 ,48,3910628945553 ,72,1775220683502
5.9345303 ,Left ,68,8505719940938 ,48,3802320087306 ,72,1813459844376
5.956588 ,Left ,68,8420597100755 ,48,3689374973664 ,72,1762911179718
5.971926 ,Left ,68,8562094135551 ,48,3491757186715 ,72,1741979078862
5.9944073 ,Left ,68,8736810875802 ,48,323435877532 ,72,1822315831882
6.0170127 ,Left ,68,8767828444255 ,48,3084332221705 ,72,1994936782302
6.0319828 ,Left ,68,8871347599251 ,48,2981635499753 ,72,2234214971365
6.0540957 ,Left ,68,8881993858627 ,48,268281270641 ,72,2486468098195
6.076797 ,Left ,68,9025862015173 ,48,2382155667083 ,72,2687197802748
6.0919177 ,Left ,68,9039408957589 ,48,2128942022719 ,72,2875331147318
6.1144009 ,Left ,68,9144239362678 ,48,1955401128691 ,72,2980870024179
6.1369366 ,Left ,68,9423451221689 ,48,1828213162985 ,72,3171049030595
6.151856 ,Left ,68,9484857124852 ,48,1725669930652 ,72,3327724136306
6.1743203 ,Left ,68,9623756434909 ,48,1686752596713 ,72,347114221765
6.1968463 ,Left ,68,9694259572659 ,48,1562636627277 ,72,3556771031264
6.2118567 ,Left ,68,9647501226899 ,48,1447585443808 ,72,3648611898032
6.23441 ,Left ,68,9621783145519 ,48,1261729187815 ,72,3770336475436
6.2569955 ,Left ,68,9531361669658 ,48,1158199930496 ,72,394222808125
6.2720283 ,Left ,68,9512292879609 ,48,1125843904153 ,72,4135419655814
6.2945559 ,Left ,68,9415841118757 ,48,1089873400464 ,72,4313559432673
6.3170316 ,Left ,68,9249858993213 ,48,1073846921603 ,72,4441752605803
6.332016 ,Left ,68,9017483738567 ,48,1148978632326 ,72,4552943689087
6.3544877 ,Left ,68,8846127198331 ,48,1380564271151 ,72,4643751413425
6.377007 ,Left ,68,8675190968797 ,48,1612212975815 ,72,4734568762763
6.3919926 ,Left ,68,8464778065277 ,48,1736965456456 ,72,4861358768371
6.4144451 ,Left ,68,8168856672858 ,48,1749661025392 ,72,4938655415525
6.4366961 ,Left ,68,7868043456693 ,48,1725104137327 ,72,5014661285632
6.4519173 ,Left ,68,7787804741581 ,48,1840420924019 ,72,5043449628624
6.4742684 ,Left ,68,7546386600265 ,48,1876179450359 ,72,5067981405863
6.4968345 ,Left ,68,7649128900556 ,48,1922485138136 ,72,5309649766505
6.5117254 ,Left ,68,7783022180044 ,48,2070994810147 ,72,5444547086046
6.5350336 ,Left ,68,775579499457 ,48,2414586120965 ,72,5621028000899
6.5573118 ,Left ,68,7486395711788 ,48,3321860992293 ,72,5934670855454
6.5724261 ,Left ,68,791320747728 ,48,4221101523423 ,72,6198502171408
6.5951292 ,Left ,68,8201870332921 ,48,4562447590975 ,72,6360623042364
6.6170744 ,Left ,68,828165507706 ,48,4412954978907 ,72,6458840643368
6.6394644 ,Left ,68,7647314090199 ,48,385500402448 ,72,6395320661342
6.6544176 ,Left ,68,7397198984069 ,48,3216012296044 ,72,6293871534605
6.6769667 ,Left ,68,7434500491499 ,48,2873842442361 ,72,6315417403207
6.6991844 ,Left ,68,6941762765352 ,48,2904822376825 ,72,6709873228365
6.7142997 ,Left ,68,626978655426 ,48,3060463623707 ,72,6698810394956
6.7370038 ,Left ,68,6319650635443 ,48,2927190737518 ,72,6643921560604
6.759383 ,Left ,68,6577283267263 ,48,2675535105465 ,72,6812855039174
6.7744117 ,Left ,68,625037921736 ,48,3223628270374 ,72,6988713853616
6.796839 ,Left ,68,6384603583454 ,48,3768137748906 ,72,7085826966124
6.8195533 ,Left ,68,7133447351159 ,48,4085844898932 ,72,7025736185356
6.8343558 ,Left ,68,7085640735566 ,48,4145074935506 ,72,7073652475273
6.8568983 ,Left ,68,6699559628315 ,48,3936492568571 ,72,7046637550883
6.8793948 ,Left ,68,6595929371093 ,48,3633557365252 ,72,6923599538533
6.8943453 ,Left ,68,6677418344435 ,48,3244386881146 ,72,6687591961463
6.9172967 ,Left ,68,6799191205401 ,48,350607430064 ,72,6855076201624
6.9397945 ,Left ,68,5977462634229 ,48,4020495160056 ,72,6931825013161
6.9542715 ,Left ,68,5922346147454 ,48,406647408456 ,72,693223558362
6.9767468 ,Left ,68,644927946926 ,48,4516136146362 ,72,7312418672081
6.999211 ,Left ,68,5978753286031 ,48,567527289207 ,72,7705282510218
7.0144667 ,Left ,68,5721058168482 ,48,6698911402227 ,72,7996513305614
7.0368973 ,Left ,68,5887316779776 ,48,7015761702123 ,72,8034533105163
7.0595172 ,Left ,68,5600276825746 ,48,7008527985482 ,72,8096702661968
7.0743964 ,Left ,68,5017577853135 ,48,719757023934 ,72,8181031969666
7.0967369 ,Left ,68,4798781638536 ,48,744105868427 ,72,8315225827463
7.1192918 ,Left ,68,4773660519495 ,48,7454147879564 ,72,808255415107
7.1418496 ,Left ,68,4456936933653 ,48,7072697729229 ,72,7925734706885
7.1645041 ,Left ,68,3664651334325 ,48,6961405849326 ,72,768277281281
7.1870581 ,Left ,68,4032076714362 ,48,7112408959918 ,72,7658659313539
7.2018707 ,Left ,68,4725483429748 ,48,7929266637403 ,72,7699535577574
7.2168622 ,Left ,68,4347091883442 ,48,9088665683555 ,72,7762033241007
7.2392808 ,Left ,68,4841773744569 ,48,9646461531128 ,72,7728724066629
7.2545023 ,Left ,68,5513690607249 ,48,952620156476 ,72,7648235297894
7.2770125 ,Left ,68,5502256239818 ,48,9236517882694 ,72,757541361528
7.2993877 ,Left ,68,5411153548573 ,48,90299569671 ,72,727066271735
7.3142005 ,Left ,68,5691090143638 ,48,8803037149627 ,72,6932482175372
7.3367951 ,Left ,68,5969037313955 ,48,865927617491 ,72,657931112936
7.3593722 ,Left ,68,6177001565667 ,48,8505211303097 ,72,6219388028582
7.3744927 ,Left ,68,6371948542125 ,48,8434712195281 ,72,5936197845435
7.4046296 ,Left ,68,6532870030788 ,48,8503061777782 ,72,5721961992999
7.419678 ,Left ,68,6868295440713 ,48,8596888747713 ,72,555732138033
7.4346573 ,Left ,68,698877262335 ,48,8633363457209 ,72,5429794247437
7.4570214 ,Left ,68,7186148713633 ,48,8643795392251 ,72,5259956291382
7.4793104 ,Left ,68,7328809737349 ,48,8700021195663 ,72,5090623479029
7.4942664 ,Left ,68,7289355831635 ,48,8791771458081 ,72,4876937008761
7.5169182 ,Left ,68,7346916361821 ,48,8915099021983 ,72,4615015721071
7.5392723 ,Left ,68,7337575437124 ,48,903953840567 ,72,440721898114
7.5544379 ,Left ,68,7238184047852 ,48,9065603378288 ,72,4183053443564
7.5768873 ,Left ,68,7288955769843 ,48,9018120667816 ,72,389450896055
7.5993256 ,Left ,68,7308976817837 ,48,9169621440502 ,72,3633123280394
7.6219938 ,Left ,68,715262536087 ,48,9472289410994 ,72,3398574992571
7.6370128 ,Left ,68,7081630041662 ,48,982073768124 ,72,2840586487069
7.6593843 ,Left ,68,6903280515397 ,48,9665281916066 ,72,2054389115724
7.6818018 ,Left ,68,6646325079452 ,48,9508840618666 ,72,1471638462097
7.6968109 ,Left ,68,5905772435283 ,48,9581836799507 ,72,094562272595
7.7194338 ,Left ,68,5159460861949 ,48,9454708221202 ,72,0780844212081
7.7491773 ,Left ,68,5759126853107 ,48,9455266771189 ,72,1278875726224
7.7650737 ,Left ,68,6525429369147 ,49,0062740334236 ,72,1952026097551
7.787496 ,Left ,68,6740914528145 ,49,0133946448183 ,72,2179956015515
7.8173275 ,Left ,68,6676661709866 ,48,8954315570365 ,72,1810367593077
7.8397328 ,Left ,68,6938423122216 ,48,7522823131141 ,72,1429620301037
7.8622924 ,Left ,68,7116893389592 ,48,6355199913537 ,72,1174195992707
7.8771433 ,Left ,68,7377245444156 ,48,5493045616973 ,72,1125549340697
7.8919811 ,Left ,68,7068754728548 ,48,4811975077563 ,72,1185018220804
7.914561 ,Left ,68,7727888636725 ,48,4464377192908 ,72,1021202941934
7.9293929 ,Left ,68,8708508215973 ,48,3990252979003 ,72,0944645319315
7.9520917 ,Left ,68,9101813835426 ,48,4160303661781 ,72,0948525861307
7.9745129 ,Left ,68,8489305750047 ,48,4422865898073 ,72,0923879431343
7.9896261 ,Left ,68,8654153229248 ,48,4885843164772 ,72,0872305749682
8.0121469 ,Left ,68,8928480735012 ,48,5106672800267 ,72,0691372973732
8.0494814 ,Left ,68,854682394426 ,48,4806905251873 ,72,0732659949367
8.0718126 ,Left ,68,8391368170211 ,48,4488682969657 ,72,0879427659114
8.1094613 ,Left ,68,8402038277766 ,48,3797735785459 ,72,1381002943933
8.1318107 ,Left ,68,8453648926624 ,48,3543937885387 ,72,175147299836
8.1697651 ,Left ,68,859359990919 ,48,3101683373459 ,72,2541055160738
8.1920237 ,Left ,68,8667225843895 ,48,276592460521 ,72,2780069822871
8.2148058 ,Left ,68,8934113183049 ,48,238853754018 ,72,2925752767908
8.2297433 ,Left ,68,9088267000029 ,48,222171299552 ,72,3058575169978
8.2520537 ,Left ,68,9090431190225 ,48,227305213007 ,72,309670640621
8.2898231 ,Left ,68,9326373247139 ,48,2371356886008 ,72,3154240781905
8.3120375 ,Left ,68,9326373247139 ,48,2371356886008 ,72,3154240781905
8.3495364 ,Left ,68,926845727861 ,48,2466685443397 ,72,3251044766677
8.3721973 ,Left ,68,9264326966161 ,48,2530525390413 ,72,3383923057914
8.4096294 ,Left ,68,8889683195634 ,48,2733760860088 ,72,3668411432572
8.4319998 ,Left ,68,8712138550205 ,48,28969268788 ,72,3800908721343
8.4772094 ,Left ,68,8368302781186 ,48,2877852278447 ,72,3894664642692
8.4996667 ,Left ,68,8146943625665 ,48,2722086790242 ,72,3961987474288
8.5372098 ,Left ,68,7886589643108 ,48,324112924458 ,72,444239147208
8.5596473 ,Left ,68,7360400926022 ,48,3726366261588 ,72,4534787443855
8.5897706 ,Left ,68,7996938729945 ,48,3564116314384 ,72,4614668129747
8.612122 ,Left ,68,758157464986 ,48,4346251888928 ,72,4737850344535
8.6495365 ,Left ,68,8237820169859 ,48,5856968236333 ,72,4934124626716
8.6722853 ,Left ,68,8746661590367 ,48,5732872762426 ,72,4782433935391
8.7094392 ,Left ,68,7468269077953 ,48,4800377352036 ,72,4874279141626
8.7320544 ,Left ,68,7281344992226 ,48,4411162952427 ,72,484134933854
8.7696209 ,Left ,68,7024473165841 ,48,4173432496966 ,72,5213031624666
8.7920722 ,Left ,68,6876264332942 ,48,415909409224 ,72,5191078731367
8.8295638 ,Left ,68,7748497210582 ,48,3947713911277 ,72,5142468306822
8.8520686 ,Left ,68,7103588450649 ,48,426149312513 ,72,5095991074057
8.8896567 ,Left ,68,6765680649933 ,48,4212458474888 ,72,4784211087211
8.9119566 ,Left ,68,6587556554723 ,48,4409466244676 ,72,4847997471109
8.9495712 ,Left ,68,6027062158845 ,48,5129170784192 ,72,5199244868493
8.9718469 ,Left ,68,6386642586131 ,48,5361182847935 ,72,5506435465167
9.0095997 ,Left ,68,5385934851012 ,48,6470364134969 ,72,5932883360296
9.032106 ,Left ,68,4892657071102 ,48,7075181861115 ,72,5988573511909
9.0696178 ,Left ,68,4503792985583 ,48,706059229998 ,72,5928971643377
9.0920134 ,Left ,68,408405413503 ,48,722164847657 ,72,5997717448396
9.1296884 ,Left ,68,3363276956076 ,48,7331614731643 ,72,6057581620008
9.152192 ,Left ,68,3833126049201 ,48,7237449065622 ,72,6030600009398
9.1895408 ,Left ,68,4073727570127 ,48,8911379643548 ,72,6091859893928
9.2118382 ,Left ,68,4635996699386 ,48,9408619079621 ,72,6056304024812
9.2493675 ,Left ,68,4872968976726 ,48,9188176971051 ,72,579722420705
9.2716977 ,Left ,68,4855511423903 ,48,9095485796638 ,72,5568637111925
9.309409 ,Left ,68,4973990358982 ,48,9208202563937 ,72,5204996591056
9.3315964 ,Left ,68,5130517559589 ,48,9471453968698 ,72,4961469014838
9.3692641 ,Left ,68,5201382161419 ,48,9548261159014 ,72,4454382739388
9.3918265 ,Left ,68,5202527897666 ,48,9262908679101 ,72,3864417470849
9.4296266 ,Left ,68,5350286032177 ,48,8739170144439 ,72,2802453618577
9.4520071 ,Left ,68,5153201193665 ,48,8989116841632 ,72,2330160621343
9.4894804 ,Left ,68,4200306247484 ,48,9297447432443 ,72,0488381457289
9.5119743 ,Left ,68,4159832181466 ,48,9236731815133 ,72,033325328903
9.5494661 ,Left ,68,5780699385878 ,48,9548906437442 ,72,0763331158727
9.5722308 ,Left ,68,5746841786894 ,48,9705837108135 ,72,109530777462
9.6096519 ,Left ,68,6245441972999 ,48,8724529192844 ,72,0819351082875
9.6322113 ,Left ,68,636014859573 ,48,7290129475199 ,72,0512490416386
9.6696578 ,Left ,68,5613323414113 ,48,5609922340924 ,72,0966430241522
9.6918886 ,Left ,68,552662593399 ,48,5373836565127 ,72,1113847072934
9.7144703 ,Left ,68,6470354529959 ,48,4702367614458 ,72,1051428545247
9.7520394 ,Left ,68,6909256996266 ,48,3919371374548 ,72,109022361878
9.7667013 ,Left ,68,6550020374198 ,48,4126873919929 ,72,0973829516895
9.7817823 ,Left ,68,6956020510084 ,48,4446843447128 ,72,0827302033956
9.8044436 ,Left ,68,7663664562512 ,48,4771607829317 ,72,0654443510505
9.8269652 ,Left ,68,7717883419515 ,48,4875842123275 ,72,0655521028655
9.8416287 ,Left ,68,7678140524227 ,48,4867277582052 ,72,0595854554466
9.8642842 ,Left ,68,7668976826476 ,48,4722265702307 ,72,0501226546353
9.8869503 ,Left ,68,7767766942067 ,48,4530719192573 ,72,0456864452856
9.9017019 ,Left ,68,7830374793917 ,48,4239051221263 ,72,0491436549299
9.9241902 ,Left ,68,7959033867103 ,48,4002994691326 ,72,0626685637794
9.9469807 ,Left ,68,796561417354 ,48,3883562267098 ,72,0893349139287
9.9619428 ,Left ,68,8047181552844 ,48,3738298362309 ,72,1218332654122
9.9844756 ,Left ,68,8293550962576 ,48,3696313887555 ,72,1572868473677
10.0069525 ,Left ,68,8291513586177 ,48,3512384565705 ,72,1798507121584
10.0218406 ,Left ,68,8460013109603 ,48,3082975126553 ,72,1955412927107
10.0446625 ,Left ,68,8439972111781 ,48,2775697043112 ,72,215805524342
10.0670972 ,Left ,68,8391546679694 ,48,2690097428071 ,72,2264185766556
10.0820827 ,Left ,68,8617460176155 ,48,2670412969506 ,72,2367795147556
10.1046261 ,Left ,68,8680677343786 ,48,2799710984766 ,72,2519672979036
10.1268278 ,Left ,68,8461288427586 ,48,2819534446066 ,72,2670445153867
10.1417439 ,Left ,68,8239220541272 ,48,2793871242571 ,72,288633979303
10.1645144 ,Left ,68,8035732768309 ,48,289162661443 ,72,3125965920689
10.1944778 ,Left ,68,7953778358125 ,48,3122244525434 ,72,3325589411987
10.2097955 ,Left ,68,7866473301035 ,48,3295117819531 ,72,3485412079781
10.2319747 ,Left ,68,7507481275053 ,48,3269171875135 ,72,3625515959542
10.2620956 ,Left ,68,6903718573948 ,48,3262169016905 ,72,3870078501807
10.2841972 ,Left ,68,6872978277986 ,48,3160006809678 ,72,3976367301817
10.3067242 ,Left ,68,6769081061786 ,48,2885128874605 ,72,3971224472833
10.3295169 ,Left ,68,6574400386 ,48,2504486067353 ,72,3909053414084
10.3445224 ,Left ,68,6470931040088 ,48,2420803206449 ,72,4024307995914
10.366692 ,Left ,68,601846804433 ,48,2613586348788 ,72,4479390000627
10.3818887 ,Left ,68,6016431410161 ,48,2936034226868 ,72,4805809882233
10.4117174 ,Left ,68,6425636364558 ,48,2982482251405 ,72,5084772906064
10.434136 ,Left ,68,6007422726346 ,48,3487146925896 ,72,5404124443766
10.4643878 ,Left ,68,6727923771137 ,48,5251886156662 ,72,5842238944877
10.4871363 ,Left ,68,7568035476924 ,48,5596284466144 ,72,5795188449663
10.5098328 ,Left ,68,7024821665584 ,48,55576361005 ,72,5851494098209
10.5243601 ,Left ,68,6378005135527 ,48,537969182524 ,72,5866042727055
10.5468273 ,Left ,68,6473960697586 ,48,5172336542472 ,72,578479738214
10.5693021 ,Left ,68,6592939891336 ,48,4850252001186 ,72,563826171623
10.584516 ,Left ,68,6428554380018 ,48,4400566840429 ,72,5452647378484
10.6069205 ,Left ,68,6184673625058 ,48,4176249635137 ,72,546676034295
10.6295044 ,Left ,68,5973247057606 ,48,4459272933628 ,72,5628652227028
10.6442441 ,Left ,68,5886311687807 ,48,4769946040893 ,72,5683852424706
10.6667571 ,Left ,68,5722915862011 ,48,4531490041144 ,72,5285184027913
10.6894394 ,Left ,68,5302728374661 ,48,396987627489 ,72,514927800261
10.7046941 ,Left ,68,5106457884496 ,48,380920128263 ,72,5451042606296
10.727032 ,Left ,68,4941527186081 ,48,4621162151206 ,72,5748429000429
10.7496735 ,Left ,68,5201814805001 ,48,5400450033174 ,72,5939636421319
10.7645693 ,Left ,68,5604418104291 ,48,5742360446371 ,72,596640749692
10.7872964 ,Left ,68,5378001483774 ,48,5640968530976 ,72,6061615026956
10.8096826 ,Left ,68,4946028931401 ,48,5320054648615 ,72,5942028332443
10.8248182 ,Left ,68,504700569428 ,48,5157988968104 ,72,5737262515807
10.847239 ,Left ,68,506310638617 ,48,517002369355 ,72,5751213828558
10.8698075 ,Left ,68,4792238291452 ,48,5190418815912 ,72,562170483755
10.8848011 ,Left ,68,4456658377285 ,48,5082501129176 ,72,581573910254
10.9072347 ,Left ,68,4745899849853 ,48,5578935135857 ,72,6218487553247
10.9296346 ,Left ,68,4699600931682 ,48,6517348465915 ,72,6510257012614
10.9444507 ,Left ,68,4426362047975 ,48,7065106116961 ,72,6771341561864
10.9668599 ,Left ,68,4548597551949 ,48,762125724966 ,72,6813065363194
10.9894946 ,Left ,68,4125720686213 ,48,8046492644735 ,72,6695115693661
11.0045379 ,Left ,68,41472652883 ,48,8276258330826 ,72,6541208036947
11.0268927 ,Left ,68,4084555185767 ,48,8108803139918 ,72,62791197159
11.0493952 ,Left ,68,3462310373177 ,48,7966894261272 ,72,6044174745422
11.0643896 ,Left ,68,3073222683297 ,48,8019679541353 ,72,5932768199494
11.0870243 ,Left ,68,305578070157 ,48,801516309102 ,72,5793095467674
11.1096517 ,Left ,68,3761202554655 ,48,7772666075366 ,72,5861122975258
11.1245913 ,Left ,68,3903800002632 ,48,8437450309452 ,72,5948595381186
11.1468182 ,Left ,68,3583298818801 ,48,9689937851124 ,72,5976847614358
11.1692336 ,Left ,68,4230616898362 ,49,0302150337995 ,72,5911080046812
11.1842987 ,Left ,68,4804005201702 ,49,0267250185146 ,72,5821358380973
11.2068256 ,Left ,68,4852421505732 ,49,0057107489729 ,72,5898457621423
11.2295213 ,Left ,68,4802081410549 ,48,9946262302162 ,72,5803276221809
11.2443777 ,Left ,68,4679394634595 ,48,99130207473 ,72,5745693480661
11.266714 ,Left ,68,4691432234869 ,49,0010355942913 ,72,5501159611911
11.2895209 ,Left ,68,5094638959314 ,49,0141594099603 ,72,4997370358077
11.3045161 ,Left ,68,5636001432932 ,49,0126454412727 ,72,4469105524648
11.3268934 ,Left ,68,5654529930851 ,48,9929172844878 ,72,3886772959071
11.3493151 ,Left ,68,5478752827528 ,48,9807484171086 ,72,3058576768777
11.3644154 ,Left ,68,5030498729304 ,48,9359002914036 ,72,2160817546547
11.3868616 ,Left ,68,4625457060738 ,48,8988895754547 ,72,1620004060942
11.4094844 ,Left ,68,4504465959072 ,48,8670786237146 ,72,1538819166174
11.4317032 ,Left ,68,4459786630541 ,48,8340305194628 ,72,1678410306896
11.4467651 ,Left ,68,4142584106996 ,48,8068409737814 ,72,1923735973531
11.4694661 ,Left ,68,3171756807361 ,48,7718720883224 ,72,2159446671605
11.4922846 ,Left ,68,3217246834722 ,48,7755235550632 ,72,2485607359011
11.5072879 ,Left ,68,3467642350615 ,48,8135629385648 ,72,2828297910483
11.5299188 ,Left ,68,3251922546999 ,48,8813454030615 ,72,3171202100614
11.5522457 ,Left ,68,2830843803198 ,48,8887029392219 ,72,361274395723
11.5671849 ,Left ,68,2949649986368 ,48,8353863158862 ,72,3805838502273
11.5968854 ,Left ,68,3694077868876 ,48,7849290377742 ,72,3785077658284
11.619191 ,Left ,68,3902806701871 ,48,7223418643703 ,72,3527948629531
11.6343106 ,Left ,68,3849666226869 ,48,6503834046183 ,72,3143898551853
11.6493523 ,Left ,68,4511610193002 ,48,5530121287327 ,72,293131634742
11.6721355 ,Left ,68,4450327119571 ,48,5378714163705 ,72,3238972230735
11.6868271 ,Left ,68,3605548228956 ,48,5740216227101 ,72,3187488579537
11.7092081 ,Left ,68,444384389427 ,48,5667314797001 ,72,2824288549919
11.7319538 ,Left ,68,4841344188273 ,48,5152026953843 ,72,2551016670488
11.7468705 ,Left ,68,5302663436764 ,48,5057163082869 ,72,2510755436058
11.769269 ,Left ,68,5280775868885 ,48,5151046780501 ,72,2436046290391
11.7920465 ,Left ,68,5383927017882 ,48,5300832889293 ,72,23965318026
11.8070571 ,Left ,68,5559492843611 ,48,5158048516683 ,72,230273530352
11.8295437 ,Left ,68,6261335687311 ,48,4970475598216 ,72,2268267811121
11.8518721 ,Left ,68,6230202263392 ,48,4611269116106 ,72,2179315909612
11.8669336 ,Left ,68,6408729317245 ,48,4341128192228 ,72,2165814362169
11.8893478 ,Left ,68,6603298503201 ,48,3963134038978 ,72,2180433292578
11.9118751 ,Left ,68,6793858265556 ,48,3688937490849 ,72,2260512444989
11.9345541 ,Left ,68,6801331875938 ,48,337919106838 ,72,2409269485629
11.9570495 ,Left ,68,6913792571299 ,48,3091554141402 ,72,2599146529736
11.9795892 ,Left ,68,7050918962842 ,48,2940512602176 ,72,2858894027704
11.9945169 ,Left ,68,7070321364651 ,48,2947308257373 ,72,3125745732736
12.0096243 ,Left ,68,7200438294811 ,48,2887191027515 ,72,3346584058353
12.0320726 ,Left ,68,7408104664643 ,48,282482065721 ,72,3479441975156
12.0469379 ,Left ,68,7462502902483 ,48,2438122855271 ,72,3416925513575
12.0694374 ,Left ,68,7572661654497 ,48,211082266186 ,72,3361417993285
12.0918518 ,Left ,68,7487667639997 ,48,2084167064466 ,72,3424772063812
12.1069097 ,Left ,68,7459291111389 ,48,2212964180878 ,72,3525556381651
12.1292378 ,Left ,68,7607615952829 ,48,2374362322267 ,72,3673733455968
12.1519519 ,Left ,68,7432874527474 ,48,2464207520274 ,72,3798718928973
12.1667081 ,Left ,68,7238116127013 ,48,2460284829205 ,72,3915491382136
12.1892731 ,Left ,68,7107211955333 ,48,2499165288354 ,72,4027992341077
12.2118887 ,Left ,68,697374019459 ,48,2711366889339 ,72,4095177635239
12.2268751 ,Left ,68,6877367252775 ,48,2924639652336 ,72,4177332791707
12.249396 ,Left ,68,6695546848853 ,48,3025360646364 ,72,4210207197932
12.2719638 ,Left ,68,6410744085194 ,48,3036199904474 ,72,425474926208
12.2944258 ,Left ,68,6214846113008 ,48,3101107390008 ,72,4319234705607
12.309431 ,Left ,68,6111291590025 ,48,3122521184407 ,72,4441510573531
12.3319784 ,Left ,68,6135107662227 ,48,3058376668412 ,72,4473342404427
12.3545419 ,Left ,68,6118882012835 ,48,2816089810876 ,72,4407240438682
12.3697652 ,Left ,68,6006967013598 ,48,2622953029031 ,72,4445424851159
12.3917522 ,Left ,68,5614324568045 ,48,2744768061527 ,72,4700500120876
12.4219456 ,Left ,68,5368704108407 ,48,2923280025895 ,72,5154749552828
12.436964 ,Left ,68,5618493378373 ,48,297709165516 ,72,554212895324
12.4594685 ,Left ,68,5694726335209 ,48,3183492235689 ,72,5899176551231
12.4749427 ,Left ,68,5581512299894 ,48,3859856340275 ,72,6269655305482
12.4898708 ,Left ,68,6163404854737 ,48,4632715863614 ,72,6536385656259
12.5124437 ,Left ,68,6595814708807 ,48,4955729670023 ,72,6471180873308
12.5344799 ,Left ,68,6794703378319 ,48,4643157976571 ,72,6341707892317
12.5494597 ,Left ,68,6106556615267 ,48,4115277262989 ,72,6305235790667
12.5720616 ,Left ,68,5648075246153 ,48,3655299817602 ,72,630364580976
12.5944436 ,Left ,68,5678765459518 ,48,32703523299 ,72,6264720222169
12.6092973 ,Left ,68,5509408112204 ,48,2908550659247 ,72,6229564842829
12.6319218 ,Left ,68,5104515178681 ,48,2739895464699 ,72,6265380430845
12.6545065 ,Left ,68,4795595509784 ,48,2579522472219 ,72,6124122054912
12.6692274 ,Left ,68,4905206446777 ,48,2472780615049 ,72,6145208420177
12.6918937 ,Left ,68,5630295393295 ,48,2583506871743 ,72,6315093506776
12.7145143 ,Left ,68,5634328328032 ,48,3288741072685 ,72,6507791139848
12.7294146 ,Left ,68,5034873827034 ,48,3991797578927 ,72,6634253618107
12.7518134 ,Left ,68,5508907558442 ,48,4278259106561 ,72,6530110303853
12.7818482 ,Left ,68,5352235659172 ,48,4184793970488 ,72,6386698729892
12.7968305 ,Left ,68,4983452276147 ,48,3974508938199 ,72,6212666443592
12.8195955 ,Left ,68,4644748183966 ,48,3886232126257 ,72,6072696700533
12.8341685 ,Left ,68,4506068032268 ,48,396018541904 ,72,604759857934
12.8495937 ,Left ,68,5020356129132 ,48,4172629301839 ,72,607747182703
12.8716515 ,Left ,68,5241896484458 ,48,4446677831204 ,72,652821299978
12.8944137 ,Left ,68,512747222659 ,48,5011653930302 ,72,6950036678043
12.9093826 ,Left ,68,4784579645319 ,48,561509456116 ,72,717662902416
12.9319496 ,Left ,68,4583603302716 ,48,6236936277687 ,72,7213593781905
12.9550365 ,Left ,68,4306699770039 ,48,6834238407929 ,72,7094373617083
12.970127 ,Left ,68,406964610885 ,48,7141727583646 ,72,6976503115028
12.9925146 ,Left ,68,3936283027423 ,48,7088591122005 ,72,6871397360759
13.0144395 ,Left ,68,3491926015656 ,48,7016065089322 ,72,6805488230864
13.0292874 ,Left ,68,2905957151107 ,48,6704206671774 ,72,6737052609326
13.0519218 ,Left ,68,286514595503 ,48,6695612858322 ,72,6676601980003
13.0743211 ,Left ,68,3056230971287 ,48,6777733239823 ,72,6670565606803
13.0895171 ,Left ,68,3143919877998 ,48,7497065427432 ,72,6672237587656
13.1118734 ,Left ,68,3178470071645 ,48,8546506035326 ,72,6572228189925
13.1343965 ,Left ,68,3774708063107 ,48,9111901291603 ,72,6495350201527
13.1496053 ,Left ,68,4222438198701 ,48,9140372290696 ,72,6411003152931
13.1720498 ,Left ,68,4628279435216 ,48,9101312234977 ,72,6294931232925
13.1946432 ,Left ,68,4318574188249 ,48,9022316510932 ,72,6198740047731
13.2092646 ,Left ,68,4104260306537 ,48,9250175052799 ,72,6134849644112
13.2319672 ,Left ,68,4155742893045 ,48,9610302171305 ,72,5891869578344
13.2550478 ,Left ,68,4455594744274 ,48,9838479023018 ,72,5330096289459
13.2774832 ,Left ,68,460123195926 ,48,9896660612446 ,72,4698585605309
13.2923952 ,Left ,68,4482877700673 ,49,0008605817447 ,72,4181256516272
13.3146633 ,Left ,68,4273710869984 ,49,017818536693 ,72,3584825468479
13.3371887 ,Left ,68,4352005919915 ,49,0212208755616 ,72,2628260713913
13.3521975 ,Left ,68,411482158401 ,48,99107418127 ,72,1600698549324
13.3744878 ,Left ,68,3596289899252 ,48,9652583697751 ,72,089271688903
13.3969373 ,Left ,68,323345120107 ,48,9787435042741 ,72,0391517189229
13.4118144 ,Left ,68,3005195086925 ,48,9889114406305 ,71,9725959848151
13.434393 ,Left ,68,2816890140591 ,48,9418124101873 ,71,9150982594615
13.4630363 ,Left ,68,2661716379017 ,48,8655602738288 ,71,9170464246824
13.4717066 ,Left ,68,3459793832623 ,48,8353254401782 ,71,9599844426863
13.4944314 ,Left ,68,4313894298956 ,48,8301863749322 ,72,0033305668561
13.5168823 ,Left ,68,4711954544435 ,48,7882031661321 ,72,0157227192001
13.5318609 ,Left ,68,5128236945586 ,48,7030977404221 ,71,9983185134292
13.554213 ,Left ,68,4754021056229 ,48,54384207621 ,71,9739302365874
13.5768935 ,Left ,68,499073448276 ,48,4104237062089 ,71,9726331065348
13.591864 ,Left ,68,5248785944562 ,48,3447490001176 ,72,0064506904434
13.614444 ,Left ,68,4581931426 ,48,3053497951797 ,72,0499165624817
13.6367376 ,Left ,68,4669837946283 ,48,2734116317173 ,72,0752655527226
13.652022 ,Left ,68,4955254199371 ,48,2235106977807 ,72,1142547118499
13.6667388 ,Left ,68,5426883040843 ,48,2307916724966 ,72,1397637165296
13.7042283 ,Left ,68,4993422676855 ,48,3435900203507 ,72,1668600408339
13.7268596 ,Left ,68,5435883137911 ,48,3694709393137 ,72,1685995301611
13.7642563 ,Left ,68,5952819878705 ,48,3645800123784 ,72,1672803885446
13.7870205 ,Left ,68,5784327361246 ,48,3537772002674 ,72,1517946316991
13.8319118 ,Left ,68,6315367532649 ,48,2844396886799 ,72,122560948014
13.8847292 ,Left ,68,6531569421817 ,48,2150124339425 ,72,1298400983377
13.9071866 ,Left ,68,6726496700088 ,48,2179772605827 ,72,1448038952951
13.944726 ,Left ,68,7116616066427 ,48,2277626814479 ,72,1681189226285
13.9672324 ,Left ,68,7294773986327 ,48,2417368362512 ,72,1677125460392
14.0046486 ,Left ,68,7122220778575 ,48,217373823282 ,72,1616255378493
14.027043 ,Left ,68,7026866236874 ,48,2111662763821 ,72,1652858732091
14.0646606 ,Left ,68,7119165942449 ,48,2128334626945 ,72,1681164945999
14.0867895 ,Left ,68,6879889450037 ,48,2174293105053 ,72,1810171817129
14.1244211 ,Left ,68,6777630656573 ,48,2269799489486 ,72,2193269479905
14.1468259 ,Left ,68,6792248084904 ,48,2369227186387 ,72,2361919269151
14.1848104 ,Left ,68,6452529014598 ,48,258866152325 ,72,26980618994
14.2074185 ,Left ,68,6212763581275 ,48,2664785040611 ,72,2842127384109
14.2450733 ,Left ,68,5889936654738 ,48,2751370195584 ,72,3109203788134
14.2677262 ,Left ,68,5775888826312 ,48,2632632186571 ,72,3197783161552
14.3042739 ,Left ,68,5681010041521 ,48,2129189038215 ,72,3398045917416
14.3267103 ,Left ,68,5623252390464 ,48,1926257746262 ,72,3554166650749
14.3641789 ,Left ,68,5266336960155 ,48,176409320077 ,72,3862901689093
14.386751 ,Left ,68,47871946522 ,48,1724811691319 ,72,4221168555499
14.4242181 ,Left ,68,5435800085737 ,48,2763351770178 ,72,5181579331639
14.4468541 ,Left ,68,4883902846871 ,48,3861539331085 ,72,5779484295439
14.4692905 ,Left ,68,5373194655726 ,48,4841450280663 ,72,6148812802854
14.484237 ,Left ,68,6042759273109 ,48,5247498852997 ,72,610317389254
14.5066436 ,Left ,68,5900204465513 ,48,4957375788945 ,72,6001292083317
14.5447381 ,Left ,68,4444750537586 ,48,3913791004907 ,72,5704117054894
14.5673824 ,Left ,68,4327395911876 ,48,3291878177947 ,72,5468871731074
14.6044083 ,Left ,68,3494973653662 ,48,3475962783089 ,72,5686440342169
14.6271204 ,Left ,68,3649902425793 ,48,3274129778944 ,72,5643987179655
14.6644583 ,Left ,68,4105374368825 ,48,4321144427907 ,72,5903701590804
14.6868858 ,Left ,68,3717493861744 ,48,5118915122951 ,72,6080538118321
14.7245508 ,Left ,68,3743575076078 ,48,5853606277877 ,72,6080208086812
14.7469912 ,Left ,68,3576872263863 ,48,5962873839361 ,72,5939446715155
14.784561 ,Left ,68,331765895655 ,48,5451814572499 ,72,5506949206155
14.8069236 ,Left ,68,3364438522478 ,48,4835798048285 ,72,5150490679982
14.8444517 ,Left ,68,2649044015045 ,48,4271190485281 ,72,5239447549329
14.8669143 ,Left ,68,1979509487521 ,48,4507757984369 ,72,4947679887437
14.9121818 ,Left ,68,2690030326974 ,48,4924729447227 ,72,4731049477947
14.9349447 ,Left ,68,235677760527 ,48,581755530399 ,72,4801827231996
14.9872996 ,Left ,68,2252034604676 ,48,6272705151098 ,72,5060897129639
15.0248095 ,Left ,68,1685343892266 ,48,6029833932799 ,72,5084568543041
15.0472348 ,Left ,68,1877900480743 ,48,5925844136331 ,72,5086986512332
15.0846574 ,Left ,68,1248575300966 ,48,5543704905119 ,72,521487397715
15.107202 ,Left ,68,0331643371656 ,48,5802379675937 ,72,530681137311
15.1445643 ,Left ,68,0983505864061 ,48,5553363879051 ,72,5112105818979
15.1670913 ,Left ,68,0848620775586 ,48,6208341625896 ,72,4918804556961
15.204319 ,Left ,68,1253064921801 ,48,6692023959889 ,72,4430055638058
15.2269544 ,Left ,68,1504307329904 ,48,6625217564847 ,72,424101299415
15.2643876 ,Left ,68,1742315089968 ,48,6023289213976 ,72,3520143597333
15.2870748 ,Left ,68,2189838423108 ,48,5676798070461 ,72,3135589523031
15.3246849 ,Left ,68,2949316243528 ,48,5227175867782 ,72,2622215995616
15.3470498 ,Left ,68,3316145339062 ,48,5035368057303 ,72,2315939045724
15.3847689 ,Left ,68,3871126737125 ,48,4461643961758 ,72,189814635959
15.40723 ,Left ,68,4130395516645 ,48,4291746836208 ,72,1829351795986
15.4447306 ,Left ,68,4650589856212 ,48,4153419232538 ,72,1728835501163
15.467245 ,Left ,68,4841389421378 ,48,404660725338 ,72,1603616559249
15.5047625 ,Left ,68,4846113367463 ,48,4012545842881 ,72,1303286614891
15.5197918 ,Left ,68,4964884268255 ,48,4200916065334 ,72,1048060015054
15.5422349 ,Left ,68,5055266991998 ,48,4208817965489 ,72,0663689681591
15.5570819 ,Left ,68,4981249179033 ,48,4082294673256 ,72,0296081161714
15.5798067 ,Left ,68,4863043620167 ,48,4072693888888 ,72,001460640328
15.6022114 ,Left ,68,4674028239121 ,48,4197165896364 ,71,9810080782135
15.6172405 ,Left ,68,4650549724904 ,48,4471249568971 ,71,9567777423984
15.6397506 ,Left ,68,4907628061836 ,48,4671758185455 ,71,9265735842631
15.6622439 ,Left ,68,50549312122 ,48,479234609409 ,71,8927129099589
15.6769332 ,Left ,68,4948746852715 ,48,4934145352034 ,71,8741682319543
15.6994491 ,Left ,68,4716460822349 ,48,5285982649846 ,71,8632495792946
15.7219226 ,Left ,68,4474412789749 ,48,566132834274 ,71,8469035622001
15.7369883 ,Left ,68,4317816016536 ,48,5856911092616 ,71,814653781388
15.7596692 ,Left ,68,4143752485611 ,48,5750937297508 ,71,7719291922738
15.7820765 ,Left ,68,3880095442099 ,48,5592202846547 ,71,7514240017966
15.7969533 ,Left ,68,3237391041461 ,48,5584245566085 ,71,7528214629741
15.8193375 ,Left ,68,2714714083704 ,48,565621817118 ,71,7837436798148
15.841805 ,Left ,68,2727189528083 ,48,5382316385259 ,71,8374987755702
15.8567625 ,Left ,68,3674491910453 ,48,5359031016104 ,71,8894460508806
15.8792755 ,Left ,68,4231216062159 ,48,5357435300672 ,71,9205489548421
15.9017902 ,Left ,68,4575805629485 ,48,4968156517765 ,71,9351059637429
15.9242824 ,Left ,68,4909651054067 ,48,4285964011309 ,71,9211605146945
15.9393629 ,Left ,68,464776656767 ,48,322164766764 ,71,899444270193
15.9618811 ,Left ,68,4783933384566 ,48,2262832418106 ,71,8770082996592
15.9767666 ,Left ,68,5409071095283 ,48,1200453251168 ,71,8753407121428
15.9992953 ,Left ,68,5786995597614 ,48,0634366253552 ,71,8990169779179
16.0293348 ,Left ,68,5377579391755 ,48,0149681034963 ,71,9202547443519
16.0517635 ,Left ,68,5967965989715 ,48,0092381633895 ,71,9234663292953
16.0669568 ,Left ,68,659230698081 ,47,9976988572144 ,71,9100442894452
16.0818508 ,Left ,68,6999657355634 ,48,0580482575527 ,71,9000478061301
16.0970827 ,Left ,68,7123135905674 ,48,0886445771418 ,71,8880756958587
16.1196495 ,Left ,68,7256588170027 ,48,1486855795435 ,71,8863782423293
16.1419146 ,Left ,68,738452412571 ,48,1850894352677 ,71,8784800570979
16.1643599 ,Left ,68,7705158069094 ,48,206266512744 ,71,8771159659599
16.17953 ,Left ,68,7478874798674 ,48,204915375207 ,71,8712605495567
16.2018029 ,Left ,68,7266275759228 ,48,1871924520373 ,71,8518900169957
16.2244897 ,Left ,68,7284929706627 ,48,1590758642963 ,71,8382349978168
16.2395413 ,Left ,68,7227434279503 ,48,1262415773898 ,71,8423162312527
16.2618672 ,Left ,68,716698239671 ,48,0999964985472 ,71,853734845952
16.2843582 ,Left ,68,7182653984923 ,48,063174045562 ,71,8657163501129
16.3070767 ,Left ,68,7175878244822 ,48,0187989939137 ,71,8866017613636
16.3292208 ,Left ,68,7283545019232 ,47,9725848783107 ,71,9005957341693
16.3593323 ,Left ,68,7570197654308 ,47,9218460126223 ,71,9392200647785
16.3817972 ,Left ,68,7576422422579 ,47,9096734565462 ,71,9475195645663
16.4044544 ,Left ,68,7591121603979 ,47,8870983295516 ,71,949452188318
16.4196987 ,Left ,68,7526172910308 ,47,8646449223114 ,71,9602190627581
16.4420456 ,Left ,68,742301956338 ,47,8477627805695 ,71,9791918197694
16.4645778 ,Left ,68,7386260131893 ,47,8410378459925 ,72,0015116004257
16.4797216 ,Left ,68,7406718891881 ,47,8285534482964 ,72,0134032460977
16.5021148 ,Left ,68,7272484444138 ,47,8191509036795 ,72,0201072323928
16.5244388 ,Left ,68,7132145536732 ,47,8140576039002 ,72,0319056648675
16.5393122 ,Left ,68,7142759241238 ,47,8275524600884 ,72,0502087303405
16.5625305 ,Left ,68,7254794469764 ,47,8429874024221 ,72,0596084532449
16.5924546 ,Left ,68,716211764865 ,47,8581078676039 ,72,0673493586412
16.6075014 ,Left ,68,6924589426272 ,47,8647728334568 ,72,0784626476369
16.6298943 ,Left ,68,6767291754778 ,47,8836943814813 ,72,0918732335875
16.644602 ,Left ,68,6693499243428 ,47,902327036394 ,72,1031912081442
16.659572 ,Left ,68,6573578609685 ,47,9193591906355 ,72,114251688806
16.6819677 ,Left ,68,6378859419745 ,47,9314852102695 ,72,1247008115783
16.7047095 ,Left ,68,6169951811272 ,47,9379927916888 ,72,1345209418112
16.7197025 ,Left ,68,6097763530119 ,47,9490398669941 ,72,1467285313417
16.7421292 ,Left ,68,612290002395 ,47,9633855324117 ,72,1536498757107
16.7646042 ,Left ,68,59347567752 ,47,9576813267248 ,72,1628234738206
16.7796719 ,Left ,68,5619361626785 ,47,972788229853 ,72,1879631807823
16.8022043 ,Left ,68,4945377976608 ,48,0069251995333 ,72,2290992530043
16.8246899 ,Left ,68,4453765764623 ,48,0504019678225 ,72,2785511937307
16.839493 ,Left ,68,4842979087192 ,48,1157235052753 ,72,3168212455823
16.8696715 ,Left ,68,5008086381808 ,48,196993380496 ,72,3576865146638
16.8919737 ,Left ,68,4857047422497 ,48,2769500564055 ,72,3938971817832
16.9070979 ,Left ,68,50653175244 ,48,3296858661973 ,72,4033534901419
16.9221559 ,Left ,68,5232723955158 ,48,3432157732785 ,72,3831499690353
16.9447452 ,Left ,68,479692100407 ,48,3087679638302 ,72,3669939771999
16.9597039 ,Left ,68,4487263272538 ,48,2633963453378 ,72,3566750296311
16.9825861 ,Left ,68,4645185102522 ,48,2246881645583 ,72,3466206246584
17.0048946 ,Left ,68,4526355487117 ,48,1797028458212 ,72,334772807674
17.0272796 ,Left ,68,4251404219238 ,48,1426190605953 ,72,3415364261169
17.0423912 ,Left ,68,4303994613803 ,48,1335917865226 ,72,3480578009852
17.0649217 ,Left ,68,4371317229537 ,48,1340601908729 ,72,348428258088
17.0872787 ,Left ,68,4794400008502 ,48,1545684587473 ,72,3608098069192
17.1022536 ,Left ,68,4871533123979 ,48,2017414277797 ,72,3724610881731
17.1246888 ,Left ,68,4626554040677 ,48,2365182538041 ,72,3784694755172
17.1474132 ,Left ,68,4652949812374 ,48,2259191963568 ,72,3639252440977
17.1621136 ,Left ,68,444065975811 ,48,1903630298966 ,72,3559227186967
17.1847405 ,Left ,68,4105453214276 ,48,1632864781987 ,72,3469593854587
17.2072101 ,Left ,68,4013708474388 ,48,1518589538341 ,72,3539395181666
17.2221471 ,Left ,68,4264195734864 ,48,1474833526816 ,72,3546242070316
17.2447362 ,Left ,68,4423566761858 ,48,1577328623073 ,72,3628870979748
17.2668473 ,Left ,68,4433062595176 ,48,2236509013189 ,72,3858814877523
17.2817919 ,Left ,68,3966756220805 ,48,3107684082244 ,72,4037856427316
17.3042564 ,Left ,68,3785763584166 ,48,3737558121766 ,72,4120033160329
17.3269631 ,Left ,68,3982890046403 ,48,414848082495 ,72,4135618992543
17.3419358 ,Left ,68,3234475740556 ,48,4334124191655 ,72,4021259529463
17.3646064 ,Left ,68,2927529463179 ,48,4573751525575 ,72,3886064519229
17.3872199 ,Left ,68,2802456472941 ,48,4548733363914 ,72,3682289786193
17.4021247 ,Left ,68,2454292965567 ,48,4532932849469 ,72,3459269292399
17.4245224 ,Left ,68,2119810207233 ,48,4232133765446 ,72,3354141424053
17.4472234 ,Left ,68,1638549195189 ,48,3988903836474 ,72,3238037985697
17.4621636 ,Left ,68,135387680546 ,48,3896719622729 ,72,3070510852444
17.4845773 ,Left ,68,1986559475054 ,48,4066656424448 ,72,293486852818
17.5072036 ,Left ,68,2155851521247 ,48,4750874070232 ,72,275914026177
17.522007 ,Left ,68,2308985073513 ,48,5408129506697 ,72,259381804172
17.5446461 ,Left ,68,2917311194995 ,48,5552394650101 ,72,2462394151446
17.5670136 ,Left ,68,3271247667097 ,48,5533901801662 ,72,2327255930807
17.5819944 ,Left ,68,3168505821768 ,48,5481685922343 ,72,2272546041388
17.6046827 ,Left ,68,3284200647647 ,48,5474685503364 ,72,2081729684912
17.6270072 ,Left ,68,3830125975207 ,48,5554855823792 ,72,1876576853266
17.641986 ,Left ,68,4080384830759 ,48,5716862999003 ,72,1614098716694
17.6647547 ,Left ,68,4241885888175 ,48,5973316206382 ,72,13329454508
17.6871678 ,Left ,68,4264257757581 ,48,6248279270789 ,72,1115594201829
17.7016823 ,Left ,68,4103049695101 ,48,6555229022445 ,72,0915046241644
17.7242902 ,Left ,68,4035683844391 ,48,6731921515067 ,72,0559841987671
17.7469622 ,Left ,68,3967905281336 ,48,6782870034036 ,72,0159548878087
17.7617683 ,Left ,68,3788233147265 ,48,6801629865321 ,71,9957254029216
17.7843285 ,Left ,68,3519891264976 ,48,6980244846907 ,71,9809439492458
17.8069959 ,Left ,68,3211162828993 ,48,7256009421893 ,71,9303128623328
17.8216599 ,Left ,68,2947085465155 ,48,7154127550002 ,71,8520879937549
17.8444077 ,Left ,68,2949948086719 ,48,6689584552242 ,71,7927472604604
17.8669268 ,Left ,68,2813692710865 ,48,6422407480402 ,71,815014354961
17.8825214 ,Left ,68,3370427532841 ,48,6808076655673 ,71,863964588016
17.9052199 ,Left ,68,3832467210017 ,48,7034276562984 ,71,9012709127389
17.9275247 ,Left ,68,3807813876107 ,48,698547628297 ,71,9096751113444
17.9496795 ,Left ,68,3880339453202 ,48,6248025750302 ,71,8849146328246
17.9644992 ,Left ,68,4047381411077 ,48,5047447722041 ,71,842233705003
17.9870965 ,Left ,68,4081821628183 ,48,4036106453812 ,71,8084187118348
18.0094519 ,Left ,68,3933329852877 ,48,2918035911142 ,71,7985905515193
18.024538 ,Left ,68,3801285381039 ,48,2306785607762 ,71,8279351954196
18.0471543 ,Left ,68,3750648261127 ,48,2191280443026 ,71,855387004772
18.0697587 ,Left ,68,4468425818875 ,48,1757683428467 ,71,8515690895942
18.0845847 ,Left ,68,5718449371907 ,48,1197165841588 ,71,8377105859852
18.1072335 ,Left ,68,5400572144702 ,48,1455533205963 ,71,8257853488536
18.1297667 ,Left ,68,494698317963 ,48,2161455811735 ,71,8199238109252
18.1447307 ,Left ,68,5493044011062 ,48,2777611445682 ,71,805249309525
18.1670701 ,Left ,68,5739725142937 ,48,287409767913 ,71,7957292655159
18.1896338 ,Left ,68,5465047521191 ,48,2912894346854 ,71,8153372010028
18.2043688 ,Left ,68,5103699030678 ,48,2875749560885 ,71,829296114184
18.2268123 ,Left ,68,5148958008808 ,48,2779414917964 ,71,8411949237529
18.2493161 ,Left ,68,528990193282 ,48,2534760449172 ,71,8538998341417
18.2643668 ,Left ,68,5243844134402 ,48,2361355025477 ,71,8659075447622
18.2868074 ,Left ,68,5200559539118 ,48,208281380539 ,71,8773227257671
18.3092909 ,Left ,68,5331875886875 ,48,180263595599 ,71,8874516534364
18.3243001 ,Left ,68,5452849137744 ,48,1563167867381 ,71,8941179886352
18.3469955 ,Left ,68,5443828621765 ,48,1333645686349 ,71,8980560088917
18.3695649 ,Left ,68,5587820356943 ,48,1209518960793 ,71,9035054394654
18.3846135 ,Left ,68,5703670272209 ,48,1202282637971 ,71,9027209170009
18.4071105 ,Left ,68,5981285141773 ,48,1152046434642 ,71,8977857095185
18.4297958 ,Left ,68,6162507625887 ,48,1179448559327 ,71,8988797308511
18.4444825 ,Left ,68,6039475502509 ,48,1233663636858 ,71,8963877084722
18.4667827 ,Left ,68,6039475502509 ,48,1233663636858 ,71,8963877084722
18.4894022 ,Left ,68,5942357952583 ,48,1179815159102 ,71,8977595011419
18.5044905 ,Left ,68,5766972254499 ,48,129797687214 ,71,9058757931344
18.5270194 ,Left ,68,5747101724782 ,48,149242277424 ,71,9140619837954
18.5494773 ,Left ,68,5790542519601 ,48,1691444985122 ,71,9284342077168
18.5645782 ,Left ,68,5595925586012 ,48,1796714542702 ,71,9409438541557
18.5871769 ,Left ,68,5388469923288 ,48,1881052612253 ,71,9544495357492
18.6095234 ,Left ,68,5273761082007 ,48,1998080962917 ,71,9685369274481
18.6242506 ,Left ,68,5229617447325 ,48,2047274178431 ,71,9822714257511
18.6470424 ,Left ,68,5225553989631 ,48,1948516046023 ,71,9975834468791
18.6695096 ,Left ,68,5123498065257 ,48,1936689951202 ,72,0165624331441
18.6844775 ,Left ,68,5118701848086 ,48,2015571657304 ,72,0400074767653
18.7070552 ,Left ,68,5270892114655 ,48,2184938256886 ,72,0613926491615
18.7296309 ,Left ,68,549482540061 ,48,2300881829558 ,72,0803164323106
18.7446877 ,Left ,68,5566190347644 ,48,2251155725614 ,72,0963496752113
18.7670342 ,Left ,68,5538008945579 ,48,221616564236 ,72,1085212488905
18.7898129 ,Left ,68,5518956492236 ,48,2299433324056 ,72,1159380598934
18.8045203 ,Left ,68,5386761389019 ,48,2339559007365 ,72,1145996341629
18.8271948 ,Left ,68,5314309418812 ,48,2374238239276 ,72,1007235840003
18.8494173 ,Left ,68,5072254356532 ,48,2534240313047 ,72,0951812146608
18.8644694 ,Left ,68,4700431068504 ,48,2947316605825 ,72,1148776147564
18.8867723 ,Left ,68,4328204107667 ,48,3233161598652 ,72,1484798986965
18.9093685 ,Left ,68,4214299754918 ,48,3430587537648 ,72,1861637047428
18.9317383 ,Left ,68,3987593761433 ,48,4114630154884 ,72,2142734334089
18.9467976 ,Left ,68,4247621221541 ,48,4798808508052 ,72,2332613994062
18.9692867 ,Left ,68,4608470804969 ,48,5067279766788 ,72,247375375413
18.9917161 ,Left ,68,4658461154186 ,48,5089390001248 ,72,2479085083578
19.0067494 ,Left ,68,4343292441746 ,48,4790488964394 ,72,253220181689
19.0292717 ,Left ,68,3967708388314 ,48,4367849879006 ,72,2481258282079
19.0516161 ,Left ,68,397038858299 ,48,3936509254642 ,72,2335264285292
19.074309 ,Left ,68,3923221819473 ,48,3468077442268 ,72,2206726387912
19.096932 ,Left ,68,3858391397385 ,48,3127386557973 ,72,2145889789292
19.1192529 ,Left ,68,4060098899468 ,48,3136701080714 ,72,2097964352615
19.1344105 ,Left ,68,4084881708504 ,48,3230029140851 ,72,217320873675
19.1496959 ,Left ,68,3626271605148 ,48,2809691928228 ,72,2205436424867
19.172145 ,Left ,68,3962950745738 ,48,2208853460327 ,72,2374312940043
19.18708 ,Left ,68,4605157701468 ,48,1842285259774 ,72,2443378269958
19.2094211 ,Left ,68,4860592840788 ,48,224366474158 ,72,2540847921984
19.2319007 ,Left ,68,4558807181484 ,48,263577664635 ,72,2601590668963
19.2470787 ,Left ,68,482375542813 ,48,2726502598349 ,72,2481530681959
19.2692507 ,Left ,68,4474599275784 ,48,2598129762683 ,72,2377045047217
19.2919783 ,Left ,68,3971044086143 ,48,2529611570472 ,72,2235424499938
19.306832 ,Left ,68,394479334768 ,48,2416967490992 ,72,1996364594978
19.3292701 ,Left ,68,4135312066604 ,48,2294795471577 ,72,1892131409431
19.3518397 ,Left ,68,4045074406366 ,48,2319329265557 ,72,2109359867947
19.3668154 ,Left ,68,3826261224138 ,48,2653009024019 ,72,2364292719689
19.3895425 ,Left ,68,4178035350015 ,48,286023849714 ,72,2771846691808
19.4117002 ,Left ,68,4426274349393 ,48,3700669616617 ,72,3051024984208
19.4194746 ,Left ,68,3899477903104 ,48,4697372505122 ,72,3274155815077
19.4418832 ,Left ,68,3675037944578 ,48,5281471581347 ,72,3340429542847
19.4645742 ,Left ,68,3612825249842 ,48,5662633267678 ,72,3389714685727
19.4796138 ,Left ,68,3111888007648 ,48,5855575357712 ,72,3252096373834
19.50208 ,Left ,68,3025299414649 ,48,5772926897085 ,72,3033811273215
19.5245534 ,Left ,68,3135954915089 ,48,5429719731179 ,72,284218971667
19.5395238 ,Left ,68,2728625730189 ,48,5309606021762 ,72,2904397413619
19.5618219 ,Left ,68,1751101831864 ,48,5449677142582 ,72,2893020418581
19.5843405 ,Left ,68,1195941710878 ,48,5343583476017 ,72,2826199798087
19.5994631 ,Left ,68,1503955621539 ,48,5313637098567 ,72,3056155994095
19.6218053 ,Left ,68,1415468739843 ,48,6541568499584 ,72,3241966863293
19.6596168 ,Left ,68,2569578604935 ,48,8291955730899 ,72,3353172835797
19.6820176 ,Left ,68,2686260666033 ,48,8237612418898 ,72,3252890822387
19.7047209 ,Left ,68,2718319789474 ,48,8055274492413 ,72,3066610658352
19.7193727 ,Left ,68,2416543319185 ,48,7987106894103 ,72,2895900092472
19.7421147 ,Left ,68,2461060579734 ,48,8220405716154 ,72,266413916246
19.7798179 ,Left ,68,2948316913646 ,48,8205380802309 ,72,2197158977104
19.8024886 ,Left ,68,2915591620053 ,48,8173285445085 ,72,2066861288995
19.8398879 ,Left ,68,2609741948294 ,48,8783810430571 ,72,1984435711049
19.8626954 ,Left ,68,2834680400168 ,48,8757429593069 ,72,0852355033582
19.8845587 ,Left ,68,2525686322073 ,48,8170129629295 ,71,9988981484552
19.9071172 ,Left ,68,1632987170664 ,48,7971686707528 ,71,9447600832104
19.9296299 ,Left ,68,1032474477223 ,48,8006850799333 ,71,9534243539761
19.9520511 ,Left ,68,2078905008563 ,48,8320677325962 ,71,9828213147864
19.9593787 ,Left ,68,2767218556725 ,48,8592460288903 ,72,0137178164279
19.9820554 ,Left ,68,281766101727 ,48,8680579610435 ,72,0399145984772
20.0041401 ,Left ,68,2779841145869 ,48,8603488026569 ,72,0391184158303
20.0193632 ,Left ,68,2839421271086 ,48,7792398926577 ,72,0066270338802
20.0417603 ,Left ,68,3177927838667 ,48,6335816736733 ,71,9445358804771
20.0642778 ,Left ,68,3237191282849 ,48,5025491777326 ,71,9360766738817
20.0795339 ,Left ,68,2407194710754 ,48,4254024044443 ,71,9884645008186
20.109353 ,Left ,68,1733977958748 ,48,4023571189445 ,72,0149447493128
20.1318599 ,Left ,68,2049796114944 ,48,3288958082837 ,72,0067630611907
20.1469885 ,Left ,68,2794290839704 ,48,25543835214 ,72,0163170974553
20.1618769 ,Left ,68,3595889532877 ,48,2342140948479 ,72,0246699938553
20.1993011 ,Left ,68,3712148724056 ,48,3671794504166 ,72,0356854215237
20.2218598 ,Left ,68,4346806243298 ,48,4331621904384 ,72,0352234449318
20.2594024 ,Left ,68,4497345705956 ,48,496734775706 ,72,0237863150759
20.2818348 ,Left ,68,4302218998135 ,48,4898540923021 ,72,003005834728
20.3195742 ,Left ,68,4501349651811 ,48,4370813235111 ,71,9678001558719
20.3419307 ,Left ,68,4552529738631 ,48,4088731313548 ,71,9681493901089
20.3793021 ,Left ,68,4567482188506 ,48,3717074417289 ,72,0009574865865
20.4017769 ,Left ,68,4688461358932 ,48,3533577948408 ,72,029808233188
20.4395478 ,Left ,68,5299137353229 ,48,2887409288759 ,72,0700280418983
20.4620956 ,Left ,68,540780399835 ,48,2203284578382 ,72,0666084222012
20.4997435 ,Left ,68,5433563664214 ,48,1725052810073 ,72,1000280211489
20.5219943 ,Left ,68,5333240532715 ,48,1900552250306 ,72,1190379184817
20.5598225 ,Left ,68,5866763827539 ,48,1904771287746 ,72,1432450697567
20.5821383 ,Left ,68,5706270383205 ,48,1634416639263 ,72,1555270353816
20.6196767 ,Left ,68,5527198472696 ,48,1487871773749 ,72,1997618354205
20.6419848 ,Left ,68,5593012236501 ,48,1542027933291 ,72,22228649887
20.6795406 ,Left ,68,5038336972598 ,48,1806447084036 ,72,2735702878396
20.7021531 ,Left ,68,4876833200523 ,48,2124432490684 ,72,2947140516186
20.7396654 ,Left ,68,4756115947681 ,48,2658255279813 ,72,3314394743812
20.7621442 ,Left ,68,4656842159752 ,48,2826802981485 ,72,3461144850933
20.799722 ,Left ,68,4488437076551 ,48,3257715454015 ,72,3772404953576
20.8220457 ,Left ,68,4399532025518 ,48,3321100280819 ,72,3923006760273
20.8597158 ,Left ,68,4519498122655 ,48,3203801854308 ,72,4162726236816
20.8819998 ,Left ,68,4514178842075 ,48,3173275315664 ,72,4264805854947
20.9194456 ,Left ,68,3799711444143 ,48,2777797518321 ,72,4435528991953
20.9417337 ,Left ,68,3265706014303 ,48,2297756921699 ,72,4427354406221
20.9793266 ,Left ,68,2710497095579 ,48,248589069422 ,72,5423820637823
21.0018511 ,Left ,68,2795861716797 ,48,3132981718007 ,72,5991924061962
21.0395009 ,Left ,68,2857594524061 ,48,4598917034794 ,72,6430899102698
21.061813 ,Left ,68,3390842510513 ,48,4853318119465 ,72,6369752843024
21.107121 ,Left ,68,3041310025585 ,48,4274579423574 ,72,604488415234
21.1296695 ,Left ,68,2746589543021 ,48,3702028544358 ,72,5691132458566
21.159731 ,Left ,68,2801864691419 ,48,2183206829167 ,72,5061227368015
21.1826152 ,Left ,68,2812508609552 ,48,1681756993921 ,72,5168348504964
21.2200221 ,Left ,68,2470442785814 ,48,1731911546688 ,72,5402062520515
21.2425774 ,Left ,68,2510039600733 ,48,1242686135366 ,72,5119391263533
21.2800977 ,Left ,68,302711372804 ,48,0478696716798 ,72,5230090618482
21.2950765 ,Left ,68,3055336896189 ,48,1263415203797 ,72,5348767411722
21.317472 ,Left ,68,318327927485 ,48,1891443382484 ,72,5486333885312
21.3321659 ,Left ,68,3733957496918 ,48,2106822624065 ,72,5464303238575
21.3546417 ,Left ,68,3533943894595 ,48,1996334984376 ,72,5321789541757
21.377156 ,Left ,68,3185560700895 ,48,1774594659232 ,72,5131251569974
21.3920898 ,Left ,68,3226555022741 ,48,1367552454958 ,72,4898950259793
21.4143663 ,Left ,68,322056060427 ,48,1160946484618 ,72,4735571708093
21.4370272 ,Left ,68,3020093829345 ,48,1383208885413 ,72,4961434368978
21.4520428 ,Left ,68,2237513572715 ,48,1776979498547 ,72,4933053063823
21.4743746 ,Left ,68,233371950238 ,48,1978371447857 ,72,4914972270752
21.4971152 ,Left ,68,3125009368734 ,48,2431988165778 ,72,5160002063443
21.5118154 ,Left ,68,2297480891371 ,48,363740663252 ,72,5354951229527
21.534283 ,Left ,68,1845558250755 ,48,4639560131108 ,72,5434751782332
21.5569605 ,Left ,68,2389794710998 ,48,500473853742 ,72,5346358041036
21.5794779 ,Left ,68,194940756446 ,48,530998471712 ,72,520934844102
21.594794 ,Left ,68,1297873708382 ,48,5610068792121 ,72,5026693016093
21.6172378 ,Left ,68,1252745394957 ,48,5580583037901 ,72,4617019749209
21.6322416 ,Left ,68,0947512996093 ,48,5334816471011 ,72,4183755776569
21.6547872 ,Left ,68,0600110467378 ,48,5072324984704 ,72,4060496810343
21.6772524 ,Left ,68,0513493854698 ,48,4891682239691 ,72,4125312308468
21.6922146 ,Left ,68,1142042006447 ,48,4111599588006 ,72,4148396736893
21.7146358 ,Left ,68,1471158542506 ,48,4063693696611 ,72,4134298356848
21.7372831 ,Left ,68,1576373273133 ,48,5107676819356 ,72,4023143466337
21.7522111 ,Left ,68,2478342616029 ,48,5705504753698 ,72,4015305499126
21.7748206 ,Left ,68,3146449210236 ,48,5823031689357 ,72,4091814191734
21.7971978 ,Left ,68,326357145893 ,48,5709392043979 ,72,4019865460457
21.8195554 ,Left ,68,2963850804614 ,48,5425654392609 ,72,3903678525798
21.8345365 ,Left ,68,3095819964202 ,48,5349016091076 ,72,3615503956827
21.8567356 ,Left ,68,3342833597427 ,48,5463044669416 ,72,3372901118292
21.879737 ,Left ,68,3375648462821 ,48,5797644929696 ,72,2949861334162
21.894545 ,Left ,68,3468040238113 ,48,6161447049139 ,72,2419153135178
21.9174993 ,Left ,68,3508693529133 ,48,6361155504408 ,72,1818351498036
21.9399127 ,Left ,68,3375260967178 ,48,6428815101668 ,72,1266881249489
21.9545579 ,Left ,68,3268984166947 ,48,6471052009323 ,72,0623727452939
21.9771812 ,Left ,68,3221748858074 ,48,6392756473039 ,71,9931495666813
21.9997123 ,Left ,68,2852945998885 ,48,6283200491159 ,71,9311174341225
22.0146808 ,Left ,68,2452549982737 ,48,6331061959837 ,71,8863663293975
22.0370784 ,Left ,68,204580288483 ,48,6386397523552 ,71,8326951486345
22.0596271 ,Left ,68,2043386086034 ,48,5942673425003 ,71,7930012241097
22.0746842 ,Left ,68,2016059816544 ,48,5557702779459 ,71,8196284621241
22.0969659 ,Left ,68,2871500074662 ,48,6106666544642 ,71,8594272917
22.119585 ,Left ,68,330064179551 ,48,6367841834417 ,71,8909100750587
22.1345182 ,Left ,68,3334377781465 ,48,6221918903971 ,71,9022881397794
22.1571045 ,Left ,68,3430643838337 ,48,5592143312936 ,71,888887226635
22.1795202 ,Left ,68,3489223302705 ,48,4344078490269 ,71,8627714493436
22.1944311 ,Left ,68,3724953100852 ,48,3568148153493 ,71,8752278913697
22.2171857 ,Left ,68,2976851922306 ,48,3120747942605 ,71,9031266351133
22.2397031 ,Left ,68,2917084024967 ,48,2932947658307 ,71,9222389360414
22.2546788 ,Left ,68,3354146000964 ,48,2441970444705 ,71,9411222578072
22.2771782 ,Left ,68,3505730910188 ,48,2048367314898 ,71,9550483857181
22.2998315 ,Left ,68,3741468369452 ,48,1913043428475 ,71,961725552093
22.3150078 ,Left ,68,3387405433249 ,48,2629295663953 ,71,9607351388593
22.3375148 ,Left ,68,3541780184729 ,48,3309430823472 ,71,9489410673209
22.3602165 ,Left ,68,4136319497117 ,48,3662615579121 ,71,9482608184098
22.3748002 ,Left ,68,4473872366359 ,48,3736795232593 ,71,9480744922346
22.3972351 ,Left ,68,4102633392131 ,48,3533620866588 ,71,9381694686424
22.4193734 ,Left ,68,3961645065148 ,48,3220288312057 ,71,911394616002
22.4342722 ,Left ,68,4284847129861 ,48,2869316156809 ,71,8839440262709
22.4570627 ,Left ,68,4353488975263 ,48,2543028918251 ,71,8636957718648
22.479485 ,Left ,68,436339227342 ,48,221660952687 ,71,84999051144
22.4941773 ,Left ,68,4392908580465 ,48,1959580616308 ,71,8539739791008
22.517567 ,Left ,68,4398781036405 ,48,1741230349859 ,71,87176790177
22.5401588 ,Left ,68,4400237917015 ,48,1522149554774 ,71,8953545345667
22.5627617 ,Left ,68,467245251744 ,48,1275657861311 ,71,9152032993741
22.5775265 ,Left ,68,4679766335359 ,48,0656555109785 ,71,9235434036546
22.5995833 ,Left ,68,4769127516329 ,47,9967449299843 ,71,9284359086833
22.6145785 ,Left ,68,4861124132484 ,47,9542842638649 ,71,9533703285388
22.6369276 ,Left ,68,4950215640353 ,47,9427424925333 ,71,990855553104
22.6593975 ,Left ,68,5105120729387 ,47,9489633414557 ,72,0307027248337
22.6743566 ,Left ,68,5154662117712 ,47,9425566693349 ,72,0636990456672
22.6970378 ,Left ,68,5130913986202 ,47,9119298746754 ,72,0903738787482
22.7194523 ,Left ,68,508811115053 ,47,879486477512 ,72,1155625182016
22.74187 ,Left ,68,4949295458017 ,47,8660345875086 ,72,1475753579226
22.757051 ,Left ,68,4883849367475 ,47,8715709498582 ,72,1822891252841
22.779894 ,Left ,68,4814360991428 ,47,8809278916213 ,72,2160828335144
22.8025889 ,Left ,68,4615146343373 ,47,8953179856654 ,72,2404601736397
22.8175545 ,Left ,68,4386064430929 ,47,9056193330593 ,72,2601322344509
22.8397309 ,Left ,68,4115970754031 ,47,9272658233496 ,72,2764616761471
22.8623198 ,Left ,68,4011513853361 ,47,9567135822567 ,72,2953736222633
22.8848098 ,Left ,68,3966736385518 ,47,9662680229478 ,72,2958334134367
22.9070962 ,Left ,68,3879220630469 ,47,9550054839712 ,72,2844713023463
22.9298849 ,Left ,68,3807341743144 ,47,9486872512652 ,72,2803147203736
22.9449538 ,Left ,68,3746951752577 ,47,9570309038026 ,72,2794244952419
22.9598373 ,Left ,68,3883979950282 ,47,9706182927223 ,72,2785536765829
22.9822341 ,Left ,68,3892246656332 ,47,9707385601879 ,72,2668928449681
22.9972173 ,Left ,68,365749850968 ,47,9526577965831 ,72,2501031444102
23.0196113 ,Left ,68,3583882606616 ,47,9356254058423 ,72,2639397504687
23.042234 ,Left ,68,3572357971238 ,47,9680424368928 ,72,3085235638893
23.0572557 ,Left ,68,3496944121104 ,48,0192792811457 ,72,3586342882485
23.079705 ,Left ,68,3599988046891 ,48,088933502066 ,72,3944841936026
23.1020187 ,Left ,68,380050306791 ,48,1347238106727 ,72,4329278569657
23.1169289 ,Left ,68,3923870857558 ,48,1722086569008 ,72,4565992145785
23.1393447 ,Left ,68,3961641923212 ,48,1924475873464 ,72,4616018706254
23.1618786 ,Left ,68,3615140958004 ,48,1931727472864 ,72,4601761752203
23.1766852 ,Left ,68,311568793482 ,48,1761620010955 ,72,4397632581045
23.1992837 ,Left ,68,2963901552619 ,48,1473169263986 ,72,414234812784
23.2217366 ,Left ,68,2714803772192 ,48,1233049875494 ,72,4177731474167
23.2366612 ,Left ,68,2142690761216 ,48,1517794442859 ,72,4313816540696
23.2592739 ,Left ,68,1387406139183 ,48,1691357846028 ,72,395035197053
23.2817916 ,Left ,68,1832202915486 ,48,1604126455558 ,72,3615494472187
23.2967539 ,Left ,68,2102340419552 ,48,1505399966573 ,72,3629725174407
23.3196155 ,Left ,68,2236166027028 ,48,2177878887031 ,72,3893971017919
23.3417674 ,Left ,68,2225800202167 ,48,2856149894265 ,72,4052909448404
23.3569244 ,Left ,68,2083957957243 ,48,3131009343009 ,72,3995281563873
23.3793664 ,Left ,68,2133158642325 ,48,3124166827238 ,72,3858725790477
23.4017464 ,Left ,68,1815016028624 ,48,2850980681723 ,72,3621938020667
23.4168269 ,Left ,68,1743815094074 ,48,2542538609256 ,72,3368524970588
23.4393673 ,Left ,68,152515140987 ,48,2507666595378 ,72,3300578239248
23.4618163 ,Left ,68,1561100275854 ,48,2768834992656 ,72,3504254268695
23.4768859 ,Left ,68,179261964864 ,48,2862509408184 ,72,3494499814151
23.4995747 ,Left ,68,2460110909801 ,48,2681234563939 ,72,3877396245583
23.5219815 ,Left ,68,2343558761102 ,48,3472177490755 ,72,4246586154313
23.5369499 ,Left ,68,1721615759193 ,48,4480921841 ,72,4425916834266
23.5593162 ,Left ,68,1786271771331 ,48,5038548178567 ,72,4304818287971
23.5818416 ,Left ,68,1667240863185 ,48,54071875852 ,72,4255122108823
23.5967981 ,Left ,68,1044150907009 ,48,5670625911836 ,72,4188378548396
23.6195288 ,Left ,68,1078584575113 ,48,5546150611898 ,72,3974115341274
23.6420605 ,Left ,68,1121605971986 ,48,5263838048515 ,72,3853357021711
23.6569729 ,Left ,68,0866188813202 ,48,5084856974127 ,72,4015386125409
23.6794305 ,Left ,68,0604025795516 ,48,493779735097 ,72,3982173086143
23.7019361 ,Left ,68,0923644784641 ,48,4390166068861 ,72,4053460328014
23.7245378 ,Left ,68,1072856682421 ,48,4525062320514 ,72,4182843263294
23.7395008 ,Left ,68,0834741769281 ,48,5411044577817 ,72,4265004772052
23.7620373 ,Left ,68,1396410160794 ,48,589476364301 ,72,4322874788795
23.7846943 ,Left ,68,2101196133696 ,48,5998652860852 ,72,4375703267607
23.7996431 ,Left ,68,215017430213 ,48,5775177035656 ,72,4292961242326
23.8220039 ,Left ,68,2425809962137 ,48,5735312253339 ,72,4164241713996
23.8445609 ,Left ,68,2457142087972 ,48,5559607891495 ,72,3912011605728
23.859442 ,Left ,68,280706109597 ,48,5584511087174 ,72,3642375493805
23.882429 ,Left ,68,2904526347824 ,48,5690098379768 ,72,3539993791415
23.9049769 ,Left ,68,2886985252153 ,48,6045032635546 ,72,3288581650781
23.9199049 ,Left ,68,3019413854465 ,48,627404652983 ,72,2876442605964
23.9423163 ,Left ,68,3078263904897 ,48,6589043715126 ,72,2421433433105
23.9647771 ,Left ,68,3098705965641 ,48,6873020494296 ,72,1995732853094
23.9796945 ,Left ,68,3204794032007 ,48,7101941995679 ,72,1172685920577
24.0020831 ,Left ,68,3128506439469 ,48,6888140941319 ,72,0102418339637
24.0244771 ,Left ,68,2663689089194 ,48,6636393975691 ,71,9159006048111
24.0397097 ,Left ,68,1749816508823 ,48,6461516953309 ,71,8409908579172
24.0621951 ,Left ,68,1599958076793 ,48,6297862683427 ,71,7811003960679
24.0847723 ,Left ,68,1614551627159 ,48,6094058534486 ,71,7686168628295
24.0996722 ,Left ,68,2332157107514 ,48,6425713644352 ,71,8036283964399
24.129625 ,Left ,68,3008676470724 ,48,6768606680028 ,71,8344439643856
24.1522149 ,Left ,68,3148711751433 ,48,649607951474 ,71,8455880023512
24.1671804 ,Left ,68,3212545693738 ,48,5968116458007 ,71,8214941615798
24.182045 ,Left ,68,2786501061478 ,48,5170423857131 ,71,790674856658
24.2046579 ,Left ,68,2682893839766 ,48,4099410525284 ,71,7521197313623
24.2197154 ,Left ,68,3166848894766 ,48,301462506384 ,71,739420819644
24.2421355 ,Left ,68,2625923353041 ,48,227756118922 ,71,7688330694599
24.2642456 ,Left ,68,2213091784752 ,48,1991810705863 ,71,8078114141184
24.2795324 ,Left ,68,2606914921707 ,48,1775907634338 ,71,8416925629457
24.3019566 ,Left ,68,308051916217 ,48,1480583216889 ,71,8677610764583
24.3242265 ,Left ,68,32074079816 ,48,1551931796743 ,71,8879146631262
24.339278 ,Left ,68,2582358654207 ,48,2235742965092 ,71,8935607395147
24.3618706 ,Left ,68,2402380145268 ,48,2884806849309 ,71,8879896883446
24.3843134 ,Left ,68,2616947325633 ,48,3265331217428 ,71,8880034523766
24.3992623 ,Left ,68,261943502583 ,48,325660176314 ,71,8903675648263
24.4218467 ,Left ,68,2518772245298 ,48,3105977603324 ,71,894639508576
24.4448133 ,Left ,68,2567403152385 ,48,2760255296985 ,71,8729625614041
24.4595712 ,Left ,68,2912674093226 ,48,2204724829142 ,71,8398696350803
24.4821345 ,Left ,68,3300443320414 ,48,1578089064162 ,71,8075322122014
24.5042624 ,Left ,68,3487102366232 ,48,1035730116415 ,71,7954487699274
24.5193544 ,Left ,68,3691521919395 ,48,0645850174713 ,71,7935789870348
24.5420882 ,Left ,68,4045788280421 ,48,0443541242771 ,71,7980608553617
24.5644878 ,Left ,68,4450986806721 ,48,0344698366292 ,71,8147242830924
24.5796947 ,Left ,68,4696281181205 ,48,0230543545632 ,71,8260659441254
24.6020844 ,Left ,68,4786625987897 ,47,9788259813832 ,71,8279074949248
24.6242705 ,Left ,68,5031008192327 ,47,9375337159075 ,71,8320379418548
24.6470587 ,Left ,68,5130823653325 ,47,9131934025438 ,71,8408274158848
24.661786 ,Left ,68,5156314852651 ,47,9148824712966 ,71,8557772868036
24.6842844 ,Left ,68,5263097274507 ,47,9279807447951 ,71,8753215503794
24.7070363 ,Left ,68,5402333690177 ,47,9318497148076 ,71,8908765031669
24.72199 ,Left ,68,5342187699578 ,47,9167918249241 ,71,9034238817819
24.7444942 ,Left ,68,5326942923847 ,47,897979473164 ,71,9251036974972
24.7668963 ,Left ,68,5239234274325 ,47,8988083274121 ,71,9498626743024
24.7818238 ,Left ,68,5189592022741 ,47,912403400159 ,71,9746498152348
24.8044111 ,Left ,68,516880285026 ,47,9234179955386 ,72,0026826879831
24.8270518 ,Left ,68,5086714797142 ,47,9224773676137 ,72,0322611965263
24.8418773 ,Left ,68,4984782802848 ,47,9241452579774 ,72,0595745450743
24.864935 ,Left ,68,484823253666 ,47,9442589619181 ,72,0810568552045
24.8869 ,Left ,68,4754044970024 ,47,9757134187328 ,72,0989246863136
24.9020782 ,Left ,68,4647425181549 ,47,9934041554618 ,72,1111054737588
24.9244761 ,Left ,68,442688527736 ,48,0037539333579 ,72,119059590251
24.9469628 ,Left ,68,423308165838 ,48,0047964896233 ,72,1288104407367
24.9621759 ,Left ,68,4013787659828 ,48,0203989086119 ,72,1404145488807
24.9843216 ,Left ,68,3974575763764 ,48,0430385173657 ,72,1521938421833
25.0070837 ,Left ,68,4053633704371 ,48,0478893854296 ,72,159528498451
25.0220098 ,Left ,68,3956741287396 ,48,029075359413 ,72,1648965507255
25.0444667 ,Left ,68,3709484443749 ,47,9950849526568 ,72,1781668964584
25.0671069 ,Left ,68,3369767160524 ,47,9751693667826 ,72,1930371275243
25.082122 ,Left ,68,3220351114317 ,47,9516487614894 ,72,2211529213518
25.1046747 ,Left ,68,2795656872493 ,47,9084400337692 ,72,226714836986
25.1271687 ,Left ,68,2884364598965 ,47,8211177054364 ,72,2059533222643
25.1420017 ,Left ,68,2769634563509 ,47,7980588488234 ,72,227341677806
25.1646511 ,Left ,68,148572711688 ,47,8836255908902 ,72,2886318559824
25.187117 ,Left ,68,1237078278985 ,48,0387939774214 ,72,3515949162244
25.1945653 ,Left ,68,1836362813023 ,48,1974355518085 ,72,4064450371134
25.2170028 ,Left ,68,2405582651088 ,48,3214187890642 ,72,4614884289107
25.2395711 ,Left ,68,2419387261341 ,48,3829931698294 ,72,4910117861496
25.2547198 ,Left ,68,2581381146063 ,48,3948198995662 ,72,4786072158284
25.277089 ,Left ,68,2418179385451 ,48,3630618850326 ,72,4503951192774
25.2993606 ,Left ,68,2123624287132 ,48,3004961542132 ,72,4219482323596
25.3145624 ,Left ,68,1925446974259 ,48,2193812536503 ,72,3872027607374
25.3370046 ,Left ,68,1627598971212 ,48,1508013297904 ,72,3613439615538
25.3595292 ,Left ,68,1412494170688 ,48,1092729962751 ,72,3502040981997
25.3744537 ,Left ,68,1613312195305 ,48,0720210685505 ,72,3465341890307
25.3969419 ,Left ,68,151330307805 ,48,0362762695692 ,72,3545100769936
25.4194948 ,Left ,68,1594919496337 ,48,0223760685157 ,72,3689623117037
25.4347022 ,Left ,68,1809826394844 ,48,0035080834001 ,72,3870144115759
25.4570512 ,Left ,68,2033893369568 ,48,0432345867802 ,72,409651530708
25.4794651 ,Left ,68,1920393790884 ,48,1067558088184 ,72,4243604742491
25.4947229 ,Left ,68,2029986467393 ,48,1453452250646 ,72,4316073052849
25.5167224 ,Left ,68,2530381168561 ,48,1520592794874 ,72,4326633351184
25.5470071 ,Left ,68,2149011524448 ,48,136805630996 ,72,4384980373162
25.5617064 ,Left ,68,197167516835 ,48,0939977671899 ,72,42506433321
25.5995864 ,Left ,68,2064168442742 ,48,009337478981 ,72,4031563584183
25.6144625 ,Left ,68,2123742620271 ,48,0418733259962 ,72,4293833769895
25.637095 ,Left ,68,2162697884242 ,48,0732888390871 ,72,434804386815
25.6596981 ,Left ,68,2396129230757 ,48,0786870891131 ,72,4531875774215
25.674656 ,Left ,68,2478650646532 ,48,1644210011954 ,72,4944681122171
25.696698 ,Left ,68,2014245602344 ,48,2897866707668 ,72,5225671956502
25.7351033 ,Left ,68,2049575405604 ,48,4085771010462 ,72,5350084565629
25.7572825 ,Left ,68,1585203927614 ,48,4492057154669 ,72,5299045274296
25.7946766 ,Left ,68,1025285474094 ,48,4800778794792 ,72,4671426334463
25.8171322 ,Left ,68,0851692876957 ,48,465444825045 ,72,4148094478614
25.8542341 ,Left ,67,9582143490225 ,48,4609523770753 ,72,3484397741273
25.8776912 ,Left ,68,0163580611897 ,48,4560628326918 ,72,3309036282947
25.9151272 ,Left ,68,0542143114388 ,48,5079524756172 ,72,2827731522528
25.9374972 ,Left ,68,0676400471236 ,48,6223500750904 ,72,2610707242023
25.9744977 ,Left ,68,169222241565 ,48,706179868224 ,72,2810575404613
25.9969793 ,Left ,68,1816894306142 ,48,6738261447413 ,72,2735483580112
26.0343883 ,Left ,68,1673957653026 ,48,6319845636665 ,72,2467708473297
26.0570322 ,Left ,68,1960084629573 ,48,6241879355591 ,72,2190268451468
26.0947035 ,Left ,68,2142642305295 ,48,6121099228426 ,72,1651753349865
26.1171539 ,Left ,68,2035129213242 ,48,6040585409294 ,72,1206488325459
26.1547048 ,Left ,68,2395942041298 ,48,6226105022641 ,72,0334370330581
26.1770359 ,Left ,68,254152445865 ,48,6238674033536 ,71,9987619400238
26.2144583 ,Left ,68,2476700970948 ,48,6212759876281 ,71,9413942551696
26.237143 ,Left ,68,2461111995955 ,48,6245872610111 ,71,9086721533026
26.2745822 ,Left ,68,2370840932362 ,48,6618577374631 ,71,8541327922849
26.2971354 ,Left ,68,2217758253261 ,48,670206952656 ,71,7847304038848
26.3347245 ,Left ,68,175992279285 ,48,6236306638347 ,71,662778029931
26.3571763 ,Left ,68,1588040787276 ,48,6014633911932 ,71,6319659037619
26.3947896 ,Left ,68,0957199389032 ,48,5848215702383 ,71,5729105157744
26.4169687 ,Left ,68,0420939218307 ,48,54290576556 ,71,5816687778317
26.4396197 ,Left ,68,1208855340166 ,48,5779533248205 ,71,617362409023
26.4772243 ,Left ,68,2567417338474 ,48,5838298810508 ,71,6746441610525
26.4997773 ,Left ,68,2357482963689 ,48,5380958854712 ,71,6692794824481
26.5371403 ,Left ,68,2271393952779 ,48,3498397750016 ,71,6274854330451
26.5746131 ,Left ,68,2661688821731 ,48,1654011670865 ,71,6243456377352
26.5972481 ,Left ,68,2870102590657 ,48,076274555623 ,71,6557530880408
26.6421982 ,Left ,68,3049313812055 ,47,9491062289459 ,71,7560821509911
26.6646212 ,Left ,68,3361365372283 ,47,8953036307699 ,71,7561473778191
26.6947662 ,Left ,68,4718117879799 ,47,8654787951869 ,71,7192324565955
26.7171811 ,Left ,68,470586475334 ,47,931779157912 ,71,7165655457471
26.7545373 ,Left ,68,5728156743603 ,48,0016948504672 ,71,7417487326265
26.7844661 ,Left ,68,5756555097319 ,47,9952338829694 ,71,7516004980217
26.8442897 ,Left ,68,6166712009008 ,47,9573015949355 ,71,7572132682813
26.8818955 ,Left ,68,6821134233315 ,47,9276478009716 ,71,7485028516769
26.8969853 ,Left ,68,6867901309427 ,47,9094511016859 ,71,7426778121751
26.9346044 ,Left ,68,6860025521504 ,47,8780537797322 ,71,7222670546262
26.956975 ,Left ,68,7052827471285 ,47,869977945635 ,71,7109814261785
26.9947883 ,Left ,68,7431790902538 ,47,8740220334388 ,71,6919203350517
27.0171677 ,Left ,68,7431790902538 ,47,8740220334388 ,71,6919203350517
27.0473412 ,Left ,68,7435285481436 ,47,8746219345778 ,71,6921434269091
27.0696301 ,Left ,68,7450915459141 ,47,8699165653673 ,71,6963322748595
27.0921872 ,Left ,68,7466214543539 ,47,8584845619146 ,71,6990512862549
27.1071034 ,Left ,68,7329336852914 ,47,8324938801703 ,71,7070107607675
27.1297352 ,Left ,68,7245265524684 ,47,8125996833464 ,71,715483490854
27.1523526 ,Left ,68,7184055733147 ,47,7959302617622 ,71,7300815976089
27.167293 ,Left ,68,7212292929346 ,47,7854823807029 ,71,7466305734776
27.189969 ,Left ,68,7218998132422 ,47,7761176117847 ,71,7630702379982
27.2121072 ,Left ,68,7125848788801 ,47,7642322387037 ,71,7824472098126
27.2271532 ,Left ,68,6928539167097 ,47,7571562720979 ,71,8055295479996
27.249742 ,Left ,68,6760344756418 ,47,7581860234359 ,71,8265764430544
27.2720845 ,Left ,68,6649560559713 ,47,769406084729 ,71,8499505729767
27.287203 ,Left ,68,6530730614206 ,47,7877781926093 ,71,8654766601255
27.3092485 ,Left ,68,63082374185 ,47,802260952933 ,71,8794136104192
27.3317547 ,Left ,68,5976015604501 ,47,8151708734433 ,71,8930009325546
27.3469377 ,Left ,68,565848612295 ,47,8317216512829 ,71,9033975809817
27.3695984 ,Left ,68,550106843924 ,47,8521096735806 ,71,9145738268395
27.3920805 ,Left ,68,5453036162817 ,47,8673535218672 ,71,9246643672026
27.4069786 ,Left ,68,5262472350935 ,47,8683490245705 ,71,9286168405264
27.4301354 ,Left ,68,5068663883183 ,47,8596179880892 ,71,9354958088338
27.4526902 ,Left ,68,4953813982886 ,47,8572914132436 ,71,9474595378868
27.4747608 ,Left ,68,513783895223 ,47,871076084688 ,71,9557520459624
27.4897587 ,Left ,68,5206121020709 ,47,8967315755649 ,71,9656705392006
27.5121266 ,Left ,68,4977054337531 ,47,9261814739452 ,71,9851911494611
27.5345023 ,Left ,68,4612094838156 ,47,9242691588561 ,72,0411613330625
27.5496147 ,Left ,68,4560708718445 ,47,9878738128153 ,72,1093872566442
27.5721282 ,Left ,68,4208370700349 ,48,1162977736888 ,72,1658103940531
27.5947038 ,Left ,68,4039917729522 ,48,2602971818141 ,72,2128510834854
27.609551 ,Left ,68,4721063961621 ,48,3464766636137 ,72,2426501059654
27.6319048 ,Left ,68,4763696260404 ,48,3671774239067 ,72,2606235842805
27.6543618 ,Left ,68,4366715952956 ,48,3534942984384 ,72,2599798353519
27.6696782 ,Left ,68,3857015312328 ,48,3070905511555 ,72,2544972000465
27.6919847 ,Left ,68,3548698946907 ,48,2470436321315 ,72,2236359373205
27.7144619 ,Left ,68,3304347407985 ,48,1502865424366 ,72,1853578550723
27.7294882 ,Left ,68,3030242597596 ,48,0412035034594 ,72,1603926877317
27.7521083 ,Left ,68,298705842805 ,47,9898028324507 ,72,154827694795
27.7745834 ,Left ,68,2946758762954 ,47,9626313632911 ,72,1670473431205
27.789741 ,Left ,68,324257128295 ,47,9237718802398 ,72,1517414981636
27.8120786 ,Left ,68,339523799335 ,47,8784590046493 ,72,1564474134589
27.8346177 ,Left ,68,3495164711862 ,47,8725737155114 ,72,160959037805
27.8495782 ,Left ,68,3258729521733 ,47,9263792814294 ,72,163468254712
27.8722257 ,Left ,68,3269265597578 ,47,9643132928094 ,72,1530398824242
27.8944903 ,Left ,68,3421027864546 ,47,9636160384797 ,72,1535806339128
27.9095585 ,Left ,68,3146800265291 ,47,9393560177571 ,72,1442555239178
27.9321055 ,Left ,68,2914112672714 ,47,9113860177784 ,72,1374205634892
27.9545634 ,Left ,68,2973778742949 ,47,9113247784052 ,72,1307628677295
27.9693657 ,Left ,68,3126977063962 ,47,9380906096448 ,72,1487317948658
27.9918153 ,Left ,68,3267776397254 ,47,9917878819546 ,72,1638085500825
28.0144687 ,Left ,68,3162466966564 ,48,0524691066943 ,72,1992940654125
28.0295701 ,Left ,68,3108080062235 ,48,1621573176882 ,72,2452342438582
28.0519673 ,Left ,68,2423376046232 ,48,2811980808538 ,72,2847074901712
28.074503 ,Left ,68,2174242081311 ,48,3524355280467 ,72,3034179508249
28.0897991 ,Left ,68,2236567372938 ,48,3836244217276 ,72,3010898784192
28.1125582 ,Left ,68,1859355882207 ,48,3943416080932 ,72,2887153613937
28.1351764 ,Left ,68,1609611019376 ,48,3942647333001 ,72,2761694058116
28.1575693 ,Left ,68,1580271602279 ,48,3693746218869 ,72,2561098609752
28.1725718 ,Left ,68,1278106925087 ,48,3483392658753 ,72,2433524115563
28.1947203 ,Left ,68,0874938055065 ,48,3392372995291 ,72,2458046164004
28.2095502 ,Left ,68,0665755468851 ,48,3310091383695 ,72,2239711412615
28.2326051 ,Left ,68,0886279145084 ,48,2772381124952 ,72,202012393606
28.2550739 ,Left ,68,1393832054727 ,48,2656315670394 ,72,1984411496488
28.2700852 ,Left ,68,1196184498542 ,48,3481518502253 ,72,1959159074826
28.2924683 ,Left ,68,1691762014575 ,48,4357439364532 ,72,1875791102099
28.3150533 ,Left ,68,251911690784 ,48,4734239225174 ,72,1786508762863
28.3299094 ,Left ,68,2762201543813 ,48,4730815504573 ,72,1659536283284
28.3522333 ,Left ,68,2634410793882 ,48,4718142673316 ,72,167692701069
28.3745787 ,Left ,68,2551755125273 ,48,4797925809305 ,72,1563390260857
28.3897292 ,Left ,68,2586462444356 ,48,4988371835639 ,72,1201576651251
28.4121261 ,Left ,68,2703707938584 ,48,5133401181748 ,72,0518945231852
28.4346815 ,Left ,68,266572251834 ,48,528515855902 ,71,9763142232178
28.4572506 ,Left ,68,2687157117661 ,48,5508382277907 ,71,9201220977826
28.472137 ,Left ,68,2445663236549 ,48,5931085672517 ,71,8640585990872
28.4947789 ,Left ,68,2082711618034 ,48,6041721024317 ,71,766946350656
28.5171617 ,Left ,68,1868331247506 ,48,5694258352094 ,71,6739962358787
28.5320234 ,Left ,68,1544545814316 ,48,5602943867692 ,71,6222392077789
28.5545508 ,Left ,68,1506934721612 ,48,5164950182854 ,71,5601809195099
28.5772007 ,Left ,68,1588024619661 ,48,4299574410065 ,71,5558449210324
28.5918198 ,Left ,68,1874411094575 ,48,4173325245415 ,71,6045257056761
28.6144949 ,Left ,68,2531809333836 ,48,4052213371841 ,71,6469649122314
28.6369126 ,Left ,68,3167921822696 ,48,3891269089226 ,71,6651545376107
28.6519971 ,Left ,68,3633337375166 ,48,3395509885979 ,71,6534562627964
28.6743396 ,Left ,68,3684491953931 ,48,2204451575382 ,71,6247557358952
28.6971708 ,Left ,68,4195139713534 ,48,1327453591458 ,71,606956501632
28.7121506 ,Left ,68,4181792029021 ,48,0844985123598 ,71,6194335923258
28.7347134 ,Left ,68,3591274093944 ,48,0552819491469 ,71,6157613697013
28.7570178 ,Left ,68,3785855430693 ,48,0181390889663 ,71,608250977893
28.7719299 ,Left ,68,3761999944723 ,47,9789812667794 ,71,6103439546171
28.7945944 ,Left ,68,3478459639842 ,47,9549721252431 ,71,6225174029906
28.8170681 ,Left ,68,3905693049217 ,47,9738975120382 ,71,6420616524135
28.8318603 ,Left ,68,3922110449904 ,48,047792728288 ,71,658101534227
28.8544361 ,Left ,68,3659452737904 ,48,1110203583498 ,71,6660585709124
28.8771303 ,Left ,68,3878341272453 ,48,1440164147597 ,71,6633162192483
28.8919832 ,Left ,68,4156672600063 ,48,1644276860675 ,71,6555443901435
28.9143436 ,Left ,68,3912255866434 ,48,1625193806334 ,71,639678512966
28.9370511 ,Left ,68,389309011544 ,48,1511580504995 ,71,6162129361284
28.952029 ,Left ,68,417120820048 ,48,1227166588431 ,71,5994437471313
28.9744864 ,Left ,68,4207822240908 ,48,1068543332753 ,71,5882700196021
28.9969921 ,Left ,68,4364177540295 ,48,0977350778724 ,71,5779145448779
29.012078 ,Left ,68,4658713154616 ,48,084570536897 ,71,5713372663969
29.035157 ,Left ,68,4806459100605 ,48,0680518745714 ,71,5650358636563
29.0575985 ,Left ,68,4925378543006 ,48,0554274640546 ,71,5657861183168
29.0725682 ,Left ,68,51172911304 ,48,0443579476542 ,71,565434869346
29.0950346 ,Left ,68,528728357333 ,48,0296206128373 ,71,5673334429345
29.1175717 ,Left ,68,5592362396371 ,48,0141108697765 ,71,5661540070269
29.1324938 ,Left ,68,559357805809 ,47,9622351476773 ,71,5614139874952
29.1546217 ,Left ,68,5656686334029 ,47,9132679172634 ,71,5583306277903
29.1772135 ,Left ,68,5575488849184 ,47,8924848940312 ,71,5691892712226
29.192054 ,Left ,68,5454176981059 ,47,9025770359277 ,71,5853023337583
29.2147248 ,Left ,68,5457828437204 ,47,9156054792731 ,71,6031116505257
29.2372357 ,Left ,68,5283476307139 ,47,9054601269213 ,71,6223723186159
29.2517654 ,Left ,68,5074935859164 ,47,89428610354 ,71,6425721049155
29.2827179 ,Left ,68,4779061309638 ,47,9064984916334 ,71,6639967782587
29.3049028 ,Left ,68,4547375252732 ,47,9333795935136 ,71,6879201200743
29.3196697 ,Left ,68,4308872386837 ,47,9523580402509 ,71,7099882787633
29.3345871 ,Left ,68,3937475474967 ,47,9590555729966 ,71,7307061434894
29.3570206 ,Left ,68,3577477655498 ,47,9578328126005 ,71,7616949044917
29.379683 ,Left ,68,3298202628558 ,47,9655075349695 ,71,799857694826
29.394689 ,Left ,68,3166826061104 ,47,9712167596937 ,71,834087075628
29.4169415 ,Left ,68,2944533695549 ,47,9531875994672 ,71,8561019938459
29.4394285 ,Left ,68,2890731969744 ,47,9170513626463 ,71,8803753189109
29.4544063 ,Left ,68,2405186618314 ,47,8926733063389 ,71,9232194639046
29.4771454 ,Left ,68,2032780728238 ,47,9001967560849 ,71,9752577317523
29.4995722 ,Left ,68,25821926163 ,47,9548707337848 ,72,016442891151
29.5146743 ,Left ,68,281675810718 ,48,0399142704588 ,72,0619979404584
29.5369386 ,Left ,68,2933723192399 ,48,1487654490554 ,72,1069397135428
29.5593225 ,Left ,68,3721436854724 ,48,2327387788626 ,72,1453033548988
29.5743891 ,Left ,68,4217602050106 ,48,2806523987944 ,72,1657104008642
29.5972037 ,Left ,68,3876611726265 ,48,260842820716 ,72,1674207776615
29.6196006 ,Left ,68,332510085735 ,48,2039214060804 ,72,1510385542657
29.6347313 ,Left ,68,3296815347478 ,48,1568388335005 ,72,1295727647968
29.657193 ,Left ,68,3178644625289 ,48,1489590936267 ,72,1125788980009
29.6796097 ,Left ,68,2691773354112 ,48,140081125865 ,72,1046276212107
29.6947798 ,Left ,68,2524071274306 ,48,0815909814462 ,72,0854731873428
29.717255 ,Left ,68,3432861525277 ,48,0439518326806 ,72,0791672939126
29.739675 ,Left ,68,3763575140229 ,48,0385601436944 ,72,0857531939644
29.754648 ,Left ,68,3696130836516 ,48,0960308954401 ,72,0902332902767
29.7770678 ,Left ,68,3651537071723 ,48,1345930689943 ,72,0868978059629
29.7996296 ,Left ,68,405253639194 ,48,151547839632 ,72,0769096304764
29.8220908 ,Left ,68,3969887800072 ,48,1460676482895 ,72,0693581625702
29.8445548 ,Left ,68,3580625457755 ,48,1047372953484 ,72,0525438776039
29.867129 ,Left ,68,3609937189737 ,48,0656103547511 ,72,0480191603538
29.8821674 ,Left ,68,354698378361 ,48,057224523861 ,72,0804323217669
29.8972344 ,Left ,68,3409428157316 ,48,0768194908201 ,72,1016992662105
29.919802 ,Left ,68,3130498905272 ,48,124814665196 ,72,1485873827891
29.9347707 ,Left ,68,3204340590655 ,48,2206740223151 ,72,2114293336553
29.95724 ,Left ,68,2563992973148 ,48,3493339240948 ,72,2621951373409
29.9798097 ,Left ,68,2061477946929 ,48,4226525897333 ,72,3007049362407
29.9945804 ,Left ,68,2075880274041 ,48,4709018603499 ,72,30973183479
30.017241 ,Left ,68,1447340417537 ,48,4867279964406 ,72,3126223197092
30.0393521 ,Left ,68,0974921335698 ,48,4822673359669 ,72,3070992980864
30.0618519 ,Left ,68,1179984791586 ,48,4547601526986 ,72,2945690420112
30.0768823 ,Left ,68,1032531814083 ,48,4195751388019 ,72,2745664844993
30.0993409 ,Left ,68,0535602352275 ,48,3903220190499 ,72,2602776103705
30.1144381 ,Left ,68,0147772437273 ,48,3950443253901 ,72,2558494380112
30.1370691 ,Left ,67,9760189612694 ,48,3991246957831 ,72,2454643932671
30.1594522 ,Left ,67,9490114592756 ,48,3582129564453 ,72,2410869121654
30.1745598 ,Left ,67,9645560556441 ,48,3203801854308 ,72,2541560807621
30.1970737 ,Left ,67,9492886683979 ,48,3978244139704 ,72,2685480580466
30.2193605 ,Left ,68,0025005060572 ,48,4967902812313 ,72,2718831362599
30.2345331 ,Left ,68,0864078177629 ,48,5436478603379 ,72,2748599173837
30.2570218 ,Left ,68,0862600441306 ,48,5354618978416 ,72,2697248815023
30.2792462 ,Left ,68,0768615867893 ,48,5077124835753 ,72,2663891721775
30.3018527 ,Left ,68,063713750689 ,48,4789712280928 ,72,238829472095
30.3168565 ,Left ,68,1193599488697 ,48,4666313855245 ,72,2035450928976
30.3400741 ,Left ,68,1742801932888 ,48,4441193432449 ,72,1709922220793
30.3625305 ,Left ,68,1725893513469 ,48,4242419969721 ,72,1513780872326
30.3775122 ,Left ,68,1727045337684 ,48,4108329477113 ,72,1368118494374
30.4002356 ,Left ,68,1949241203431 ,48,4115869551392 ,72,1239116514126
30.4225647 ,Left ,68,2259583379816 ,48,4199584976816 ,72,1166478076674
30.4371853 ,Left ,68,2371007436838 ,48,4244324197234 ,72,112783122572
30.4594665 ,Left ,68,2393827462532 ,48,4165930829393 ,72,1181431360871
30.4819517 ,Left ,68,2406942357986 ,48,4089739531454 ,72,1267318584772
30.497011 ,Left ,68,2372424653244 ,48,4026750898925 ,72,1364974396434
30.5193079 ,Left ,68,2428549257191 ,48,4025188456273 ,72,148269358934
30.5418099 ,Left ,68,2530952119153 ,48,4011013181326 ,72,1463168104034
30.5570514 ,Left ,68,2595999785462 ,48,3957968587155 ,72,1370419070036
30.5795448 ,Left ,68,2539865388755 ,48,3862440421738 ,72,1348665001682
30.6022086 ,Left ,68,247035914628 ,48,3871767156272 ,72,1381003405642
30.6171707 ,Left ,68,247035914628 ,48,3871767156272 ,72,1381003405642
30.6397834 ,Left ,68,2670976152243 ,48,4007155301135 ,72,1376878687998
30.6621138 ,Left ,68,2725835952872 ,48,4000426334622 ,72,1309258454726
30.6771876 ,Left ,68,2716843509255 ,48,3935783410393 ,72,1268538232774
30.6996097 ,Left ,68,2635171730961 ,48,3938995477231 ,72,128913008184
30.7221644 ,Left ,68,2591445768997 ,48,4034167415328 ,72,129423969412
30.7372023 ,Left ,68,2866776494538 ,48,4137198937225 ,72,1245625443473
30.7592461 ,Left ,68,2920333210545 ,48,403410663412 ,72,1148363447137
30.7820211 ,Left ,68,2888722980519 ,48,3928043434609 ,72,1069679612203
30.7967998 ,Left ,68,2780239584021 ,48,3927683490242 ,72,1043217857602
30.8194326 ,Left ,68,2904407513709 ,48,4037511569949 ,72,098760954805
30.8420671 ,Left ,68,3069381998328 ,48,4105033141318 ,72,0896262884821
30.8569647 ,Left ,68,3090361327492 ,48,4088407158246 ,72,0837592370414
30.8796414 ,Left ,68,3093903940127 ,48,4094562522434 ,72,0839573378245
30.9017813 ,Left ,68,3093058852014 ,48,4258578424202 ,72,0817047989542
30.9169396 ,Left ,68,3211573856528 ,48,4435737610909 ,72,0767504692536
30.939862 ,Left ,68,3206713775904 ,48,4637690916235 ,72,0736226766621
30.9626631 ,Left ,68,3189224490351 ,48,4894476697949 ,72,070674015491
30.9701123 ,Left ,68,304601303641 ,48,5167810882528 ,72,0651357149822
30.992707 ,Left ,68,3061485013471 ,48,5589536929435 ,72,0672957635608
31.0224968 ,Left ,68,2963756183728 ,48,602802693568 ,72,0620905334602
31.0371322 ,Left ,68,3038108868485 ,48,6376751349526 ,72,0445517555426
31.0746221 ,Left ,68,2588505596821 ,48,6656340468159 ,71,989808105168
31.089546 ,Left ,68,2131133782061 ,48,6921139465531 ,71,9529955202818
31.1120304 ,Left ,68,1782281923283 ,48,7043212698474 ,71,9124444388739
31.1346409 ,Left ,68,1385273682354 ,48,6925610773341 ,71,8517828424999
31.1495134 ,Left ,68,0973262085853 ,48,608020295414 ,71,7825385659819
31.1719756 ,Left ,68,0818454867953 ,48,5274504886791 ,71,7650188415021
31.1946393 ,Left ,68,0888399153024 ,48,5272173121849 ,71,7925456666605
31.2095102 ,Left ,68,1180887086096 ,48,5723971985231 ,71,8344031569437
31.2321471 ,Left ,68,1715831670711 ,48,6003481117343 ,71,8659012020906
31.2546253 ,Left ,68,2228133482686 ,48,6100070918817 ,71,879085068994
31.2695555 ,Left ,68,2559007769867 ,48,5818081513924 ,71,8808671859302
31.2922122 ,Left ,68,2261064944003 ,48,5098242827696 ,71,8765515643667
31.3146178 ,Left ,68,2030454624203 ,48,4088773024703 ,71,8457521110288
31.3297713 ,Left ,68,2244788662498 ,48,2672826125232 ,71,8086790276908
31.3520125 ,Left ,68,2353563308543 ,48,1215047676187 ,71,8192714418812
31.3747149 ,Left ,68,2241773894924 ,48,0830080853098 ,71,8985029966768
31.3896609 ,Left ,68,1700718691641 ,48,0966232831574 ,71,9364402217087
31.4120789 ,Left ,68,1884129797873 ,48,0689036123419 ,71,9376310460813
31.4346413 ,Left ,68,2635893645939 ,48,0671537809529 ,71,9295471701517
31.4496818 ,Left ,68,2501777588548 ,48,125634753485 ,71,9064529395858
31.4720454 ,Left ,68,2235381743042 ,48,1902639690794 ,71,8901781489128
31.494586 ,Left ,68,2528960079084 ,48,2213385394822 ,71,8864214170823
31.5320774 ,Left ,68,2909190630325 ,48,1985713468573 ,71,881698632084
31.5618362 ,Left ,68,2844733912886 ,48,1705310774142 ,71,870517046763
31.5767993 ,Left ,68,276721248206 ,48,1330787248849 ,71,8529947355743
31.5993314 ,Left ,68,3087365400785 ,48,1060512075469 ,71,8363805764725
31.6142328 ,Left ,68,3320484355291 ,48,0777392579341 ,71,8298194474926
31.6293315 ,Left ,68,317467323104 ,48,0648342147144 ,71,8273118987744
31.651814 ,Left ,68,295270346665 ,48,0551047743712 ,71,8293263097097
31.6742323 ,Left ,68,2968018757698 ,48,0563324484222 ,71,8306684281229
31.7118657 ,Left ,68,2964441267866 ,48,0383221275271 ,71,8534577040816
31.7494105 ,Left ,68,2794030827012 ,48,0008205547559 ,71,887172152682
31.772396 ,Left ,68,2750466514309 ,47,9812710763266 ,71,8916094808265
31.8103924 ,Left ,68,2728102817818 ,47,9770396474717 ,71,900396172812
31.8325784 ,Left ,68,2784341205483 ,47,9778384382434 ,71,9038849973554
31.8696399 ,Left ,68,2967458017668 ,47,9641676731454 ,71,9071588000861
31.892531 ,Left ,68,2875781703767 ,47,951150398645 ,71,9164262819957
31.9299955 ,Left ,68,2843013947105 ,47,9617480661513 ,71,9431909470395
31.952306 ,Left ,68,2961788859155 ,47,968293855976 ,71,9563580716754
31.9898616 ,Left ,68,2980802058489 ,47,9617944549508 ,71,977890680104
32.0121028 ,Left ,68,3042232831417 ,47,9660605958614 ,71,9897523721101
32.0499639 ,Left ,68,3291941983153 ,47,9866398605801 ,71,9869784091528
32.0720264 ,Left ,68,3253600007474 ,48,0011978831224 ,71,9811249085931
32.1094865 ,Left ,68,3473825216691 ,48,0312016314871 ,71,9574293736548
32.1318371 ,Left ,68,3566726429725 ,48,0398188021814 ,71,9489773822292
32.1700501 ,Left ,68,3638637959274 ,48,0554183843115 ,71,9375283616708
32.1919935 ,Left ,68,3706893324513 ,48,0574519919615 ,71,9357020926412
32.2294991 ,Left ,68,3743498083989 ,48,1101838199717 ,71,9576169392818
32.2525941 ,Left ,68,3450544092057 ,48,1318601210572 ,71,9693185418529
32.290326 ,Left ,68,3735785893607 ,48,0931199162204 ,72,0341060512065
32.3126921 ,Left ,68,3697388712732 ,48,1266716779965 ,72,071688057496
32.3495676 ,Left ,68,4548065905868 ,48,1872555897903 ,72,1238346412961
32.3721432 ,Left ,68,500017933477 ,48,1766402860044 ,72,1247904797297
32.409823 ,Left ,68,4130330249958 ,48,1223009941625 ,72,1280421220751
32.4322131 ,Left ,68,4379233086835 ,48,0780567552659 ,72,1191511712072
32.4697292 ,Left ,68,3714875968338 ,48,0103683965118 ,72,1411209911716
32.4923676 ,Left ,68,330957337647 ,47,9972928324375 ,72,1504888993483
32.5296108 ,Left ,68,3590343314737 ,47,9456643279625 ,72,1541264839077
32.5520965 ,Left ,68,3595217417175 ,47,9275840583899 ,72,1781615481563
32.5971014 ,Left ,68,3375162063874 ,48,1042431119613 ,72,2195458948065
32.6197466 ,Left ,68,3649716211475 ,48,1385034442313 ,72,2111139561482
32.6795465 ,Left ,68,3347702724168 ,48,0841584556793 ,72,1904480447714
32.7172502 ,Left ,68,3615731413056 ,48,0469039332066 ,72,186814416897
32.7470398 ,Left ,68,370982534819 ,48,1063643375893 ,72,2194966720742
32.7695524 ,Left ,68,399078583426 ,48,2031596646235 ,72,2592839837685
32.7918236 ,Left ,68,3237074944713 ,48,3208290157117 ,72,2941584264992
32.807009 ,Left ,68,2915696965109 ,48,4087783874152 ,72,3137972977539
32.8295489 ,Left ,68,2734137158577 ,48,4948798562586 ,72,3144579380378
32.8444388 ,Left ,68,2457455085191 ,48,5229001552211 ,72,2932125188791
32.8668749 ,Left ,68,2328536408095 ,48,517434212056 ,72,2646407146831
32.8897424 ,Left ,68,2061485579097 ,48,5071677063321 ,72,2352182145984
32.9047839 ,Left ,68,1706572208011 ,48,5137641096656 ,72,2214507997861
32.9272514 ,Left ,68,1041740367284 ,48,5111991831755 ,72,2231437006077
32.9422044 ,Left ,68,0774121881532 ,48,4717818644019 ,72,210276796503
32.9646945 ,Left ,68,1139652058907 ,48,43016739903 ,72,2157696055408
32.9870301 ,Left ,68,0935720738639 ,48,5269423350027 ,72,2247660460011
33.009749 ,Left ,68,0907168703742 ,48,6548803983601 ,72,2344572446531
33.0398037 ,Left ,68,175716406102 ,48,7187442778441 ,72,2490225374167
33.0696847 ,Left ,68,2684317522273 ,48,6786255289298 ,72,26558929978
33.0846583 ,Left ,68,2507535347772 ,48,6513777079336 ,72,2454732931348
33.1072463 ,Left ,68,270386620265 ,48,6443153621545 ,72,2046577414426
33.1296237 ,Left ,68,3018071985639 ,48,6356197274015 ,72,1655610715342
33.1446149 ,Left ,68,3152137612445 ,48,6392551768286 ,72,1252913585461
33.1672522 ,Left ,68,3382168716995 ,48,6408617452437 ,72,0887909308075
33.1896275 ,Left ,68,3490896639777 ,48,652366650701 ,72,0491132352146
33.204659 ,Left ,68,342630166653 ,48,6715813375044 ,71,9932296805076
33.2271662 ,Left ,68,3349552340894 ,48,662781056469 ,71,9192360966616
33.2498207 ,Left ,68,3402686467669 ,48,6553284495504 ,71,8437872145146
33.264853 ,Left ,68,336992059675 ,48,6711288030534 ,71,7814081313103
33.2868316 ,Left ,68,2991973264602 ,48,6934862706852 ,71,7246485008631
33.3095005 ,Left ,68,2764728915594 ,48,7338490394706 ,71,6870390271965
33.3244146 ,Left ,68,2349333041556 ,48,7346317677814 ,71,6636864221482
33.3470102 ,Left ,68,1987950451381 ,48,6980650560329 ,71,6930273444835
33.3695457 ,Left ,68,2265106790454 ,48,6816580721909 ,71,7451534518909
33.384556 ,Left ,68,2670383129283 ,48,7305944983562 ,71,7961408812222
33.4071485 ,Left ,68,3014008489286 ,48,7549602231698 ,71,8316303854859
33.4296974 ,Left ,68,3397455682938 ,48,7357887250144 ,71,8355849837493
33.4448352 ,Left ,68,3760258992878 ,48,6784412140515 ,71,8113557622131
33.4671191 ,Left ,68,3677238640897 ,48,5468868668403 ,71,7551313584405
33.4898532 ,Left ,68,3754223979013 ,48,3923347465205 ,71,7233868341257
33.5044052 ,Left ,68,3695795252998 ,48,3211602716321 ,71,771329038519
33.5270625 ,Left ,68,2943738638994 ,48,2993392185793 ,71,791797552904
33.5495838 ,Left ,68,3351493715912 ,48,2467234236578 ,71,7727391473269
33.5645362 ,Left ,68,3625210852969 ,48,176412184773 ,71,7733992464772
33.5870076 ,Left ,68,3868550215135 ,48,1544788033599 ,71,7899475195333
33.6096998 ,Left ,68,4111915378026 ,48,189170476199 ,71,7955525122033
33.6242757 ,Left ,68,4326651868584 ,48,2340130518762 ,71,797193213621
33.6468826 ,Left ,68,4529677111085 ,48,2573332316004 ,71,8064675534104
33.6695115 ,Left ,68,4664173037336 ,48,2487139778255 ,71,8167447003507
33.6846802 ,Left ,68,4903454779152 ,48,2324872637066 ,71,8095241390374
33.707155 ,Left ,68,4962944498498 ,48,2006333456793 ,71,7984321965554
33.7295171 ,Left ,68,5229270219965 ,48,1685708117341 ,71,7789814214746
33.7443501 ,Left ,68,5734371793184 ,48,1251032728418 ,71,7700055090515
33.7669518 ,Left ,68,5828045556428 ,48,0926298698039 ,71,7726302412699
33.7893413 ,Left ,68,5967828677912 ,48,0820592103063 ,71,7733254180358
33.8045711 ,Left ,68,6186927579923 ,48,0733718595313 ,71,7691029681275
33.8271883 ,Left ,68,6325007020385 ,48,0473516171508 ,71,7629887445329
33.8496519 ,Left ,68,6311615001086 ,48,0214641528838 ,71,7645236262735
33.8644462 ,Left ,68,6335959635967 ,48,0024356365387 ,71,7690463520053
33.8873798 ,Left ,68,6452608237005 ,47,9668562292807 ,71,7680119268036
33.9103151 ,Left ,68,66200746952 ,47,9363368102938 ,71,7756080889379
33.93254 ,Left ,68,6501848962148 ,47,8962756925527 ,71,7724397654718
33.9469793 ,Left ,68,6489923482219 ,47,8476918149214 ,71,7599322270414
33.9693738 ,Left ,68,6471785579218 ,47,8153566567324 ,71,7575898971305
33.9918903 ,Left ,68,6298215391474 ,47,8193794139843 ,71,7733612453368
34.0146574 ,Left ,68,6258510129392 ,47,8389283628904 ,71,790336187607
34.044529 ,Left ,68,609015194733 ,47,8433044266593 ,71,8254819784723
34.066974 ,Left ,68,5903560852956 ,47,8238777070959 ,71,8384875069348
34.0896262 ,Left ,68,5708682044506 ,47,8223196034082 ,71,852757634216
34.1119299 ,Left ,68,5580247687874 ,47,8416132617398 ,71,864962564244
34.1268315 ,Left ,68,5482811940153 ,47,8672470312974 ,71,8731560089323
34.149405 ,Left ,68,5180666043465 ,47,8762579478963 ,71,8796356570658
34.1719865 ,Left ,68,4818750228421 ,47,8800211475188 ,71,889118841743
34.1869143 ,Left ,68,4663328969785 ,47,8921342669078 ,71,9077307812482
34.2093602 ,Left ,68,4522389370236 ,47,9078694877341 ,71,9231400207533
34.2318498 ,Left ,68,4470267242039 ,47,9210478144665 ,71,9351741619562
34.2469314 ,Left ,68,4269781060406 ,47,922925975688 ,71,9358399768467
34.2695856 ,Left ,68,4048164049574 ,47,9258981566185 ,71,9364017879259
34.2918868 ,Left ,68,3840158146918 ,47,9541843066336 ,71,9684981262804
34.3071227 ,Left ,68,3499440626283 ,47,9900153598768 ,72,0302521172437
34.3368131 ,Left ,68,3019960489274 ,47,9887252483066 ,72,0619702456582
34.3594231 ,Left ,68,2942099280238 ,47,9657499925776 ,72,0844912897108
34.3745832 ,Left ,68,217140203958 ,47,9670686762881 ,72,1350851957874
34.4119645 ,Left ,68,2671770988555 ,48,1083772135516 ,72,2091882364836
34.4268901 ,Left ,68,3050164981946 ,48,1870331156147 ,72,223544484163
34.4496342 ,Left ,68,3413069427433 ,48,2272306385912 ,72,2355955445721
34.4721496 ,Left ,68,3839139249098 ,48,2413350097688 ,72,2347818087679
34.4871315 ,Left ,68,3718293130129 ,48,2238970626006 ,72,2146955280414
34.5095195 ,Left ,68,35617639578 ,48,1683684809332 ,72,1816442085768
34.5319589 ,Left ,68,3168122934881 ,48,1204341292199 ,72,1633649520622
34.5469408 ,Left ,68,2620807471066 ,48,1064546220871 ,72,1584423428397
34.569387 ,Left ,68,2596204094045 ,48,1171711728286 ,72,1670205883339
34.5918752 ,Left ,68,2756206760849 ,48,1126409947293 ,72,1753125921922
34.6069334 ,Left ,68,2971247005705 ,48,0842826773997 ,72,1777756364213
34.6295194 ,Left ,68,2559731359748 ,48,0489522507831 ,72,1916207001279
34.6521244 ,Left ,68,2372090960495 ,48,0969839695424 ,72,1995493173634
34.6672756 ,Left ,68,2515816238591 ,48,1767979632971 ,72,2026767941578
34.6896833 ,Left ,68,2660909073242 ,48,2246400780944 ,72,2084662107043
34.712114 ,Left ,68,2844666538234 ,48,2257089540149 ,72,2183964253875
34.7272058 ,Left ,68,2354632748215 ,48,2081423551104 ,72,2176341597512
34.7498023 ,Left ,68,2027600856907 ,48,1650320687797 ,72,2117237155671
34.7720696 ,Left ,68,2299436410031 ,48,0988631058394 ,72,187880625418
34.7871773 ,Left ,68,2528164368145 ,48,0407666711858 ,72,1667276602296
34.809727 ,Left ,68,2616523391493 ,48,0009740200878 ,72,1497386773218
34.8322562 ,Left ,68,2742837257606 ,47,9762126389968 ,72,1406666876457
34.8471761 ,Left ,68,2912996767976 ,47,9753027798738 ,72,1389085930674
34.8695763 ,Left ,68,3012674257815 ,47,9888294809215 ,72,1365497713641
34.8922754 ,Left ,68,3027862322845 ,48,0035514687216 ,72,1339807034218
34.9071888 ,Left ,68,2988322040594 ,48,014610057048 ,72,1264431888961
34.9295621 ,Left ,68,2918246916423 ,48,0349256891195 ,72,1229025171002
34.9521938 ,Left ,68,2880206905213 ,48,0533466331214 ,72,1102517560922
34.9670954 ,Left ,68,284073477341 ,48,0740504750281 ,72,105599316098
34.9897504 ,Left ,68,2659746083589 ,48,1027950652402 ,72,0962230286202
35.0121689 ,Left ,68,244486979832 ,48,1234812349006 ,72,0947201677358
35.0348591 ,Left ,68,2368502140129 ,48,1349574737956 ,72,0917533801163
35.0498252 ,Left ,68,2335859132452 ,48,1450933132375 ,72,0933705515493
35.0722399 ,Left ,68,2381787751094 ,48,1467106745593 ,72,0935934473081
35.0948359 ,Left ,68,2389097869203 ,48,1414697904875 ,72,0909208447671
35.1097829 ,Left ,68,2278358829631 ,48,1191410168646 ,72,0870141024816
35.1322811 ,Left ,68,2053851993693 ,48,1066754366923 ,72,0809051513285
35.1549463 ,Left ,68,1726560657865 ,48,1155016308967 ,72,0885757096014
35.1770725 ,Left ,68,1349401024529 ,48,1437929154695 ,72,0969742042682
35.1997946 ,Left ,68,1249403057447 ,48,1244216945011 ,72,0772104335274
35.2298003 ,Left ,68,2133344034893 ,48,1194807451618 ,72,1015798336199
35.2522151 ,Left ,68,104465504747 ,48,2461413439106 ,72,1227175103633
35.274597 ,Left ,68,1259611460707 ,48,3370080735274 ,72,1335179921823
35.2897237 ,Left ,68,1286028197294 ,48,3798207804681 ,72,1363472135684
35.3122645 ,Left ,68,0658430755982 ,48,4123068757573 ,72,1556529411844
35.334812 ,Left ,68,0079601518988 ,48,4159776933089 ,72,1571423242294
35.3498067 ,Left ,68,0132501700237 ,48,3936036085276 ,72,1491300025433
35.3722428 ,Left ,68,0057826677769 ,48,3476712687135 ,72,135871032682
35.3947585 ,Left ,67,986940950909 ,48,3086553895902 ,72,1248319862599
35.4097369 ,Left ,67,978197991639 ,48,2711365696511 ,72,1132584098969
35.4321705 ,Left ,67,9703354320574 ,48,2298080270635 ,72,0969200094366
35.4542237 ,Left ,67,9698493319434 ,48,2060212754435 ,72,085333717159
35.469322 ,Left ,67,9784386535506 ,48,2077699094874 ,72,08115969379
35.4920453 ,Left ,67,9402819035376 ,48,2182605423041 ,72,1058905261248
35.5145918 ,Left ,67,939189538046 ,48,2171460271201 ,72,1238246552059
35.5296938 ,Left ,67,9724930360495 ,48,2637483670035 ,72,1459455745633
35.5521191 ,Left ,68,0062241015929 ,48,3380628972261 ,72,1522988628142
35.5745757 ,Left ,68,0437399471954 ,48,394619787263 ,72,1650671009044
35.589713 ,Left ,68,0722805348524 ,48,4122177349604 ,72,1683647226796
35.6122175 ,Left ,68,0771786097927 ,48,4062408972199 ,72,1637199794793
35.634793 ,Left ,68,083448424431 ,48,407611185106 ,72,1491510701117
35.6495534 ,Left ,68,0880029065295 ,48,3995640003038 ,72,115618063813
35.6726962 ,Left ,68,104358487811 ,48,4115316589992 ,72,0849205795233
35.695275 ,Left ,68,1194525340625 ,48,4378128066338 ,72,0654627164873
35.7095287 ,Left ,68,1324662264877 ,48,4971180731442 ,72,0312116435763
35.732046 ,Left ,68,1404699672479 ,48,5267313084729 ,71,9674244472321
35.7546747 ,Left ,68,1329286361497 ,48,5221043792763 ,71,8722306593634
35.7694559 ,Left ,68,1195869248212 ,48,4934511028737 ,71,7802899971075
35.7920858 ,Left ,68,1042796493345 ,48,4838898737885 ,71,6881950966076
35.8144765 ,Left ,68,0826002560442 ,48,4896667235492 ,71,5896982208385
35.829934 ,Left ,68,0233150867011 ,48,4575365856407 ,71,4931740126578
35.8526351 ,Left ,68,0561002919038 ,48,4143144372124 ,71,4487998823214
35.8746828 ,Left ,68,0956718799982 ,48,3947940363465 ,71,4432818740998
35.897554 ,Left ,68,1573595873654 ,48,4345049609001 ,71,4366438882071
35.9123943 ,Left ,68,204140914537 ,48,450535247171 ,71,438418413247
35.9424073 ,Left ,68,2103433674413 ,48,421590116175 ,71,4355275517566
35.9574717 ,Left ,68,2486747953107 ,48,3698435727545 ,71,4096437977597
35.9799528 ,Left ,68,2552240457854 ,48,2691815123632 ,71,3715244849695
35.9948159 ,Left ,68,2502707985205 ,48,1654631210712 ,71,3385876842752
36.0174054 ,Left ,68,2527035977415 ,48,0508865572665 ,71,3327152074871
36.0323046 ,Left ,68,2642352635759 ,47,9470454045708 ,71,3536232127886
36.0546754 ,Left ,68,2679145112737 ,47,9049693496488 ,71,3724813900839
36.0771762 ,Left ,68,2498461316319 ,47,8713321322057 ,71,3770129673591
36.0921129 ,Left ,68,3143425948857 ,47,8967302597151 ,71,367448291838
36.1146675 ,Left ,68,3289120143199 ,47,9166614578396 ,71,3588916369157
36.1377223 ,Left ,68,3168323734277 ,47,9646974266182 ,71,3582773239823
36.1525416 ,Left ,68,3299948560433 ,48,0047871672507 ,71,3587675214788
36.1749358 ,Left ,68,3720717703561 ,48,0303294507631 ,71,360538354233
36.1970925 ,Left ,68,3857748239695 ,48,0457479766875 ,71,3642512290836
36.2120049 ,Left ,68,3687483588376 ,48,0336422481232 ,71,3673121508592
36.2344191 ,Left ,68,3593837882285 ,48,0233688792151 ,71,3777698737778
36.2570409 ,Left ,68,3691756958042 ,48,0021657604776 ,71,3878030242761
36.2718849 ,Left ,68,3804240733831 ,47,994814941311 ,71,3977633840991
36.2946535 ,Left ,68,395539810587 ,47,9934819684298 ,71,4129589605584
36.3169853 ,Left ,68,4008182597002 ,47,9942908140454 ,71,4286719968085
36.3319327 ,Left ,68,4053109825146 ,47,9911562841357 ,71,4501619182909
36.3549708 ,Left ,68,4163877288659 ,47,9939192023059 ,71,4755361617229
36.3774404 ,Left ,68,4333578289156 ,47,9849949306135 ,71,4934926755939
36.3923763 ,Left ,68,4627711498258 ,47,9790195202729 ,71,5131364661949
36.4147535 ,Left ,68,4618616769338 ,47,970587448761 ,71,5319059819865
36.4373979 ,Left ,68,4712498522156 ,47,9633212106211 ,71,5441754003117
36.4523585 ,Left ,68,4720304264188 ,47,9623562601889 ,71,5597653863715
36.4749494 ,Left ,68,468209728354 ,47,961695579834 ,71,578969000075
36.4974302 ,Left ,68,4747064087005 ,47,9650534636746 ,71,5997365355371
36.5124314 ,Left ,68,4682660393194 ,47,969275019153 ,71,6179142758607
36.5349526 ,Left ,68,4557284633949 ,47,9764737246594 ,71,6316949875054
36.5573712 ,Left ,68,4423858212964 ,47,9995170480694 ,71,6429103525178
36.5723694 ,Left ,68,4194395479212 ,48,023003805886 ,71,6527628003505
36.5949244 ,Left ,68,3969046199845 ,48,0470936644086 ,71,6628392475319
36.6171961 ,Left ,68,3627139608775 ,48,0615763352532 ,71,6707025847572
36.6322602 ,Left ,68,3127456246325 ,48,0662455270193 ,71,68066873184
36.6549741 ,Left ,68,2891111636483 ,48,0712503421521 ,71,6939267627618
36.6772101 ,Left ,68,2782679528285 ,48,073909281247 ,71,7119314708744
36.6920785 ,Left ,68,2780963141185 ,48,0811566737977 ,71,7316985286806
36.7145914 ,Left ,68,2661316415948 ,48,0758948197387 ,71,7412245745117
36.729433 ,Left ,68,2468384020941 ,48,0471783742822 ,71,7422196707272
36.7446633 ,Left ,68,2218553849887 ,48,0123092618383 ,71,7486912352368
36.7669094 ,Left ,68,1735165980432 ,48,0174559964999 ,71,7874611181644
36.7895959 ,Left ,68,1167392292801 ,48,023828236773 ,71,8385669912447
36.8044805 ,Left ,68,1570108764317 ,47,9463285619865 ,71,8661004819612
36.8274214 ,Left ,68,2146184974037 ,47,8703112889882 ,71,8939883921187
36.8495568 ,Left ,68,1483667730308 ,47,8922900215605 ,71,9130322687164
36.8646153 ,Left ,68,1922811555686 ,47,9614983075993 ,71,9077165595464
36.8872051 ,Left ,68,2643857773772 ,47,9990299925496 ,71,8912034349
36.909534 ,Left ,68,2904409670968 ,47,997226615732 ,71,8714373745057
36.9245694 ,Left ,68,2169357015203 ,47,9549736795927 ,71,8599782571973
36.9472792 ,Left ,68,1709535054802 ,47,8955763734897 ,71,8511361285374
36.9698457 ,Left ,68,1853856272793 ,47,8536362654811 ,71,8480322444834
36.9845641 ,Left ,68,1495399277149 ,47,8365749264695 ,71,8670020113731
37.0070344 ,Left ,68,1170163713124 ,47,8370165584723 ,71,8891451655461
37.0294946 ,Left ,68,1090317161154 ,47,8461108135747 ,71,9156830667423
37.0445439 ,Left ,68,1301284277765 ,47,8478528937165 ,71,923997076849
37.0670461 ,Left ,68,1214289772237 ,47,9276012796536 ,71,9463101236428
