timestamp,event,roll,pitch,yaw
1.2075027 ,Left ,43.324676186067 ,53.5333788384979 ,86.91347880357
1.229997 ,Left ,43.0351086878067 ,53.7718540641503 ,86.8046391388517
1.2478446 ,Left ,42.8039003541546 ,53.9076201666779 ,86.7384008895863
1.2673885 ,Left ,42.6644072340015 ,54.012312551675 ,86.6922848141988
1.2899827 ,Left ,42.549311287889 ,54.0597940575685 ,86.6185633779908
1.3077787 ,Left ,42.4340595212731 ,54.0355160988834 ,86.5810020198493
1.3273996 ,Left ,42.3007616926462 ,53.9551691509663 ,86.5848151836501
1.3499824 ,Left ,42.2142517145026 ,53.8688977454221 ,86.5607732193767
1.3679068 ,Left ,42.1656303649531 ,53.783109774385 ,86.4589012753994
1.3888342 ,Left ,42.1211484121027 ,53.6737342476805 ,86.3899862250864
1.409945 ,Left ,42.0388453802765 ,53.5557747054816 ,86.3069605166363
1.4279005 ,Left ,41.9182001768251 ,53.4506773310427 ,86.2079694148878
1.4489112 ,Left ,41.8997788529856 ,53.3644851476178 ,86.116564065169
1.4699452 ,Left ,41.8775447289493 ,53.261177971357 ,86.0387299292112
1.4878206 ,Left ,41.8080466393861 ,53.1692316903817 ,85.9776340250074
1.5091979 ,Left ,41.7205144659006 ,53.1060324163054 ,85.9419078596189
1.5300268 ,Left ,41.6738585040454 ,53.0529105155347 ,85.9002378446717
1.5478993 ,Left ,41.7107327573849 ,52.998487296913 ,85.885573721556
1.5687917 ,Left ,41.7182644633632 ,52.9439533247298 ,85.9094246321831
1.5899767 ,Left ,41.6964628193255 ,52.9021640531802 ,85.9483937821193
1.6078681 ,Left ,41.6768119650306 ,52.8712849862042 ,85.9710106143781
1.6289575 ,Left ,41.6661438119463 ,52.8444792542575 ,85.9835627231093
1.650142 ,Left ,41.676987606181 ,52.8085325305095 ,86.0024016357697
1.667824 ,Left ,41.6664967426451 ,52.792525286075 ,86.0221003307395
1.6906123 ,Left ,41.6567163546084 ,52.7817621354111 ,86.0337539188541
1.7100054 ,Left ,41.6642998226275 ,52.7678400679085 ,86.036822461615
1.7280408 ,Left ,41.663404173385 ,52.7562859448306 ,86.0275290515913
1.7505349 ,Left ,41.6416581480795 ,52.7369348024633 ,86.0155101963852
1.7701495 ,Left ,41.6908750038824 ,52.7256253894585 ,86.0560304400206
1.7877838 ,Left ,41.6904793945479 ,52.7299956428159 ,86.0856693517882
1.8104006 ,Left ,41.6245046322401 ,52.7470261533569 ,86.0730933875265
1.8299673 ,Left ,41.5625646051588 ,52.7788073380184 ,86.0288781366955
1.8478447 ,Left ,41.5209962262279 ,52.8220522863637 ,85.9654196898028
1.8703539 ,Left ,41.5218113130419 ,52.8691025904349 ,85.8840544522878
1.8899423 ,Left ,41.4722815961643 ,52.943024902641 ,85.8118830951412
1.907883 ,Left ,41.3940576771208 ,52.9978539038914 ,85.7528197604718
1.9303922 ,Left ,41.2874973430057 ,53.0373303810596 ,85.6746024094755
1.9499267 ,Left ,41.162443398996 ,53.0627286124633 ,85.5935065706094
1.9678178 ,Left ,41.1119669077039 ,53.0811846227401 ,85.5210635219834
1.9903095 ,Left ,41.1544769005219 ,53.0941983696712 ,85.4640057074126
2.0099683 ,Left ,41.1723083389681 ,53.1223331109913 ,85.4219926254654
2.0280723 ,Left ,41.1376476701924 ,53.1485322998308 ,85.3983996893965
2.051691 ,Left ,41.0602307672111 ,53.1556088470607 ,85.3887466519336
2.0706704 ,Left ,40.9582547239571 ,53.1731858190021 ,85.3659019561915
2.0870118 ,Left ,40.9202032273127 ,53.1891775943303 ,85.344895835188
2.1095787 ,Left ,40.9487731747321 ,53.1867109104185 ,85.3267773245773
2.1306173 ,Left ,40.9573569066873 ,53.1849148513196 ,85.2935085898464
2.1470489 ,Left ,40.9221955372147 ,53.1998746768064 ,85.2816797295134
2.1692688 ,Left ,40.8771172406238 ,53.2281629055087 ,85.2773995871427
2.190688 ,Left ,40.8684588902093 ,53.2554332963593 ,85.2735350962682
2.2071107 ,Left ,40.8966455202471 ,53.2720025155893 ,85.2582807691297
2.2295472 ,Left ,40.8802857181733 ,53.3083298694231 ,85.2685172908412
2.2517351 ,Left ,40.8369509587284 ,53.3530536156038 ,85.2614526894314
2.2669301 ,Left ,40.8014766894491 ,53.3983981880301 ,85.2322590406218
2.289518 ,Left ,40.8896779154804 ,53.411757204033 ,85.2003401519347
2.3106487 ,Left ,40.9956320406216 ,53.4033279625899 ,85.1761431053172
2.3270552 ,Left ,41.0077822414544 ,53.397539988755 ,85.1760211638533
2.3495693 ,Left ,40.9789548163108 ,53.4069431148127 ,85.2051610114428
2.3706394 ,Left ,40.9215969879434 ,53.4151424254734 ,85.2087486041446
2.3869097 ,Left ,40.9136778219197 ,53.3942252230176 ,85.2049020393497
2.4094519 ,Left ,40.900804114996 ,53.3772461843497 ,85.1984620342746
2.4306752 ,Left ,40.8710456041726 ,53.4072047445958 ,85.1801937702976
2.4470547 ,Left ,40.8206435775519 ,53.4376321562498 ,85.1758180284087
2.4694057 ,Left ,40.8691237915395 ,53.4761690072807 ,85.1722808203201
2.4980913 ,Left ,40.9424802898842 ,53.5083965500628 ,85.1314934748401
2.5070072 ,Left ,41.0269050219597 ,53.5201922883796 ,85.1081961614368
2.5295726 ,Left ,41.0154073746584 ,53.547848531958 ,85.1210006109238
2.5512846 ,Left ,40.9554656493174 ,53.5872301142229 ,85.1248305371689
2.5671713 ,Left ,40.9577831500236 ,53.6071736282272 ,85.1063858136696
2.5895504 ,Left ,40.9956457559881 ,53.6207302170968 ,85.1065091599781
2.6106489 ,Left ,40.9749406114648 ,53.5983582243058 ,85.1029581555602
2.627136 ,Left ,40.920125968124 ,53.6079804499454 ,85.1078639310046
2.6495988 ,Left ,40.8387107165815 ,53.6224915891225 ,85.1275191111199
2.6721139 ,Left ,40.8040993914931 ,53.6652086651189 ,85.1418759503632
2.6863697 ,Left ,40.8196379617702 ,53.7279240212479 ,85.1301796841261
2.7095857 ,Left ,40.8601816386448 ,53.7897229456558 ,85.1128000232951
2.7325331 ,Left ,40.855161244981 ,53.806425947504 ,85.0759126787368
2.747067 ,Left ,40.8842073512487 ,53.791895838651 ,85.0445285283116
2.7695297 ,Left ,40.9009275367471 ,53.7794261415686 ,85.0070631410792
2.792021 ,Left ,40.9155732626733 ,53.7902843741836 ,84.9835554684839
2.8063969 ,Left ,40.8808003101325 ,53.8266697602037 ,84.9327481367537
2.8295567 ,Left ,40.8393443960004 ,53.8681843890684 ,84.8873348806582
2.8520546 ,Left ,40.8087983110452 ,53.8805548366515 ,84.8643883181032
2.8664542 ,Left ,40.7458917086792 ,53.8908706660552 ,84.8788679322828
2.889748 ,Left ,40.6960776287299 ,53.9226682066658 ,84.9072269748966
2.9120273 ,Left ,40.6889229145783 ,53.9465368475181 ,84.9039651420959
2.9263195 ,Left ,40.7014647733334 ,53.9900411408943 ,84.9132448391813
2.9497393 ,Left ,40.669583448382 ,54.0772499034541 ,84.9502154943492
2.9721071 ,Left ,40.6644899728358 ,54.1688123346922 ,84.9898728997556
2.9863348 ,Left ,40.6419285555292 ,54.2165090465274 ,85.0088968574617
3.0099869 ,Left ,40.6088230718572 ,54.2653057863525 ,85.0239948197494
3.0320297 ,Left ,40.631616861693 ,54.2551156024939 ,85.0439699573353
3.0531226 ,Left ,40.8131989512397 ,54.1203519078471 ,85.0481684822792
3.0695149 ,Left ,40.9078080103575 ,53.9242705159994 ,85.0040128118961
3.0920816 ,Left ,40.8888104933281 ,53.7454544768469 ,84.9770845960235
3.113035 ,Left ,40.8380248416007 ,53.6379383641732 ,85.010098691987
3.1295322 ,Left ,40.8621500307587 ,53.5596615757629 ,84.9942943343809
3.1519814 ,Left ,40.9815689445326 ,53.4887912257064 ,84.9515566721132
3.173076 ,Left ,41.0916142356407 ,53.4339075624851 ,84.9343181503265
3.1895394 ,Left ,41.1126045648686 ,53.4121131461242 ,84.9263389937275
3.2120397 ,Left ,41.1023535927382 ,53.4176879376756 ,84.9319800173687
3.2332106 ,Left ,41.0869333995556 ,53.4528675814624 ,84.9457720586263
3.249551 ,Left ,41.1340545017572 ,53.5195788761751 ,84.9638662945179
3.2720403 ,Left ,41.1973180356919 ,53.5998799252535 ,84.9571022435986
3.2934355 ,Left ,41.2756667551974 ,53.6419944642189 ,84.9745542377041
3.309543 ,Left ,41.404492261749 ,53.633788035092 ,85.0311731981879
3.3319696 ,Left ,41.4590005093736 ,53.6015403769454 ,85.0902383457005
3.3531243 ,Left ,41.4590620018531 ,53.57647733713 ,85.1541482155896
3.3698832 ,Left ,41.4697269423585 ,53.5790321465125 ,85.2048131558377
3.3920866 ,Left ,41.5292442572337 ,53.575879853934 ,85.2496737253801
3.4130668 ,Left ,41.590524479115 ,53.5623109926144 ,85.2963990757035
3.4295609 ,Left ,41.6027674824476 ,53.5548254872677 ,85.3303340904988
3.4519602 ,Left ,41.6280701542685 ,53.5407809662979 ,85.3584899912045
3.4730669 ,Left ,41.6889550729796 ,53.515314671808 ,85.3831325267199
3.4894931 ,Left ,41.7411188263719 ,53.5007041254176 ,85.4030566689924
3.5118707 ,Left ,41.7520573290403 ,53.5035563193824 ,85.42472859197
3.5329776 ,Left ,41.7275663050493 ,53.5222290932538 ,85.4479401239419
3.5496374 ,Left ,41.7467476901792 ,53.5282181839747 ,85.455514588032
3.5721773 ,Left ,41.7903529275392 ,53.5308709130988 ,85.4684494071238
3.594557 ,Left ,41.774135502178 ,53.546753638895 ,85.4926034316865
3.6095395 ,Left ,41.7511688637527 ,53.5666647622379 ,85.5294966004975
3.6320412 ,Left ,41.7600636762889 ,53.5732426934306 ,85.5729258456274
3.654417 ,Left ,41.7844474625783 ,53.5656801266668 ,85.6023908522193
3.6694527 ,Left ,31.347793122585678 ,40.15992497957423 ,64.22626554757493
3.6919602 ,Left ,20.8946946006282 ,26.7673269631185 ,42.83005319773125
3.7144347 ,Left ,10.4452958682362 ,13.384310342823126 ,21.417145779279675
5.4382392 ,Left ,41.3157471397179 ,53.6766199975102 ,85.1143501092975
5.4545453 ,Left ,41.3396313355764 ,53.6171614804862 ,85.1482626428042
5.477005 ,Left ,41.391361484397 ,53.6082232284627 ,85.183341206333
5.499531 ,Left ,41.4479032873967 ,53.6109453270011 ,85.2192130440918
5.5145755 ,Left ,41.4948773725449 ,53.6118127994365 ,85.2471092551542
5.5369677 ,Left ,41.5105357758988 ,53.6076526090326 ,85.2673573448224
5.5596309 ,Left ,41.5177550835153 ,53.6009950006817 ,85.2737675893774
5.5745388 ,Left ,41.5599193887516 ,53.5889756678784 ,85.2744511032029
5.5970825 ,Left ,41.6102911361184 ,53.5798773233555 ,85.2703696933328
5.6194841 ,Left ,41.6282906447408 ,53.592591493049 ,85.2686182648523
5.633891 ,Left ,41.6282854993054 ,53.6176064518317 ,85.267391586047
5.6569698 ,Left ,41.6388457168266 ,53.6418310711152 ,85.2711831455528
5.6795835 ,Left ,41.6380937113759 ,53.643932321617 ,85.2720112888145
5.6938903 ,Left ,41.6378265871399 ,53.6433326708775 ,85.2802839234189
5.717068 ,Left ,41.6202361432356 ,53.6346044215028 ,85.2892926970408
5.739572 ,Left ,41.6169636698048 ,53.6238547329124 ,85.2997423987593
5.7537983 ,Left ,41.6388377794764 ,53.6136888311084 ,85.311259200066
5.7768066 ,Left ,41.657344110918 ,53.6087300846121 ,85.3221200665461
5.80701 ,Left ,41.6502858204043 ,53.6066844287019 ,85.327802663481
5.8138452 ,Left ,41.6351657100523 ,53.6100461025768 ,85.3238776923464
5.8370302 ,Left ,41.6227501927584 ,53.6165083904448 ,85.3168484191878
5.8595075 ,Left ,41.6172801459907 ,53.6141463155379 ,85.2968821240399
5.8738896 ,Left ,41.6046720682299 ,53.5960369221687 ,85.2724630628445
5.8969889 ,Left ,41.5912549527936 ,53.5820606227567 ,85.2484861803674
5.9025507 ,Left ,41.5728338836784 ,53.5839094497346 ,85.2440715544849
5.925097 ,Left ,41.620333121854 ,53.6170992869633 ,85.261248624744
5.9412721 ,Left ,41.6271462947284 ,53.6443648039563 ,85.2659625384476
5.9625002 ,Left ,41.7046735136708 ,53.6881057472276 ,85.2765803218207
5.9851096 ,Left ,41.6964117801686 ,53.7211917115111 ,85.3106588340607
6.0014895 ,Left ,41.6288433765531 ,53.7488237860847 ,85.3207079119907
6.022409 ,Left ,41.5912815135148 ,53.7823902833736 ,85.3026367898115
6.0449633 ,Left ,41.6068978102099 ,53.7931732263422 ,85.2644466075055
6.0613598 ,Left ,41.6351276927412 ,53.7825911104942 ,85.2384439080666
6.085281 ,Left ,41.5768034672718 ,53.7697144036793 ,85.2109918734655
6.105005 ,Left ,41.5240813482697 ,53.7527394970205 ,85.2059959914126
6.1214062 ,Left ,41.4956299597014 ,53.7387555102857 ,85.2146435543741
6.1424836 ,Left ,41.5094542748325 ,53.7376502377683 ,85.2322089785399
6.1649251 ,Left ,41.5142777358384 ,53.7209986279517 ,85.2511829606277
6.1828022 ,Left ,41.5031992925343 ,53.68836538089 ,85.2630302825064
6.2025063 ,Left ,41.4815615630475 ,53.6841079292065 ,85.248399916872
6.2249772 ,Left ,41.4357562318683 ,53.6896226262649 ,85.2364419441014
6.2414037 ,Left ,41.4255629546522 ,53.7292191913757 ,85.2181417143443
6.2624929 ,Left ,41.3973301170829 ,53.7626088867207 ,85.210783368688
6.2850462 ,Left ,41.3490389099211 ,53.7808429834551 ,85.1988553385633
6.3014237 ,Left ,41.3452322242744 ,53.7784249884859 ,85.1961794826573
6.3224606 ,Left ,41.3997142893512 ,53.7569947368891 ,85.1907243246861
6.3449003 ,Left ,41.4542589487674 ,53.7152249070186 ,85.1868566754923
6.3612631 ,Left ,41.4498699736675 ,53.6650588573329 ,85.1783416248745
6.3824908 ,Left ,41.4256832947352 ,53.6380098293199 ,85.1603518583161
6.4048753 ,Left ,41.4105223063406 ,53.6182549272601 ,85.1459071826557
6.4228204 ,Left ,41.3962781342215 ,53.6400874645638 ,85.1291042490781
6.4424216 ,Left ,41.3911620067509 ,53.6946294222624 ,85.1154059417524
6.4649402 ,Left ,41.3730327423918 ,53.7810347773668 ,85.1374032792785
6.4827991 ,Left ,41.3418815648745 ,53.8380785288165 ,85.1593554327547
6.5025183 ,Left ,41.3787102009377 ,53.8576387811292 ,85.1581134694304
6.5249114 ,Left ,41.4575150585046 ,53.8667394971746 ,85.154251516067
6.5428191 ,Left ,41.4534822240998 ,53.8691595598218 ,85.1425037056233
6.569937 ,Left ,41.3549292117635 ,53.8750872603061 ,85.1103464187722
6.587741 ,Left ,41.3091688528645 ,53.8749254896194 ,85.0725751887439
6.6031674 ,Left ,41.3234036213145 ,53.8661857140498 ,85.0231306987471
6.6224119 ,Left ,41.3212792921472 ,53.8640249915337 ,85.0283896522841
6.6448936 ,Left ,41.28560844818 ,53.8678625933013 ,85.0086537098247
6.6628752 ,Left ,41.2142143899586 ,53.8796606280331 ,85.0079826796128
6.6824091 ,Left ,41.21421844599 ,53.9555389795635 ,85.0453967010465
6.7050095 ,Left ,41.2219348799082 ,54.0406876245458 ,85.0770440042199
6.7228645 ,Left ,41.2441761052639 ,54.1227443412538 ,85.0955094646981
6.7424763 ,Left ,41.2491916599357 ,54.1705808217438 ,85.1011893009344
6.7649003 ,Left ,41.2526331442617 ,54.1552821120363 ,85.0664832002161
6.7828297 ,Left ,41.2513714243897 ,54.1414757941695 ,85.0273105509832
6.8025491 ,Left ,41.1947972436178 ,54.1426735864761 ,84.9768849462929
6.8248996 ,Left ,41.1094288281063 ,54.1505450576113 ,84.9252423534554
6.8428735 ,Left ,41.0838370499283 ,54.1498182581794 ,84.8728821973309
6.8625321 ,Left ,41.077023345587 ,54.1307618902156 ,84.8341995703555
6.8924434 ,Left ,41.0526128066411 ,54.1356949214674 ,84.83636294672
6.9028334 ,Left ,40.9884806909132 ,54.1557642336206 ,84.8249703789535
6.9223697 ,Left ,40.9700836948563 ,54.1863304796522 ,84.8029500259491
6.9448913 ,Left ,40.9818995204325 ,54.2075068233466 ,84.7883850165486
6.9627796 ,Left ,40.954904995923 ,54.2501572108004 ,84.8170030414031
6.9824001 ,Left ,40.9199512180541 ,54.2941532121253 ,84.848235920208
7.0049384 ,Left ,40.8745573471641 ,54.3168563731079 ,84.8590459936309
7.0228231 ,Left ,40.8788943366018 ,54.3120237414849 ,84.8900529890847
7.0438045 ,Left ,40.8163215044884 ,54.2789390278924 ,84.8984042809476
7.0724589 ,Left ,40.8616778921054 ,54.2173285712172 ,84.9327484424539
7.0828663 ,Left ,40.9708566256507 ,54.1014952123368 ,84.9630446509035
7.1038606 ,Left ,41.0649798112798 ,53.9458566235935 ,84.9710246935398
7.1249166 ,Left ,41.1013128551858 ,53.7612867194411 ,84.9726773827849
7.1428733 ,Left ,41.1186160160405 ,53.6750389714239 ,85.0060452265873
7.1638345 ,Left ,41.1400849878318 ,53.6512083007713 ,85.058737989876
7.19255 ,Left ,41.2109038023317 ,53.6729446772831 ,85.0752528718909
7.2028744 ,Left ,41.2703153740466 ,53.6855781786259 ,85.0867106836662
7.2238142 ,Left ,41.2786363161412 ,53.6950416356438 ,85.1211638795724
7.2449027 ,Left ,41.2456867942136 ,53.7155330342416 ,85.1585778264997
7.2628324 ,Left ,41.182777257734 ,53.7752670518062 ,85.1665936428066
7.2838342 ,Left ,41.1880993747668 ,53.860073526169 ,85.1514884241395
7.3050121 ,Left ,41.2753500124426 ,53.9121428104055 ,85.1462087753569
7.322815 ,Left ,41.3253456829328 ,53.9052015799514 ,85.1431520958557
7.343973 ,Left ,41.2783363585813 ,53.8727804782437 ,85.1396676074881
7.3727975 ,Left ,41.2382879221796 ,53.8360625926235 ,85.123687459482
7.38285 ,Left ,41.2403877801853 ,53.7750097631966 ,85.0949310355304
7.4052046 ,Left ,41.2789468835265 ,53.7152110120744 ,85.0765022120584
7.4248944 ,Left ,41.3105620914397 ,53.6679041656147 ,85.0864557053481
7.4428054 ,Left ,41.3509455444354 ,53.6116710190343 ,85.1100053429878
7.4653008 ,Left ,41.4095463894853 ,53.574799361407 ,85.1394794000915
7.4850949 ,Left ,41.4799415594085 ,53.5588921618817 ,85.1648692705371
7.5027945 ,Left ,41.5275795325372 ,53.5540733935735 ,85.185645965208
7.5254465 ,Left ,41.559240711257 ,53.5620740903355 ,85.1950408111228
7.5449463 ,Left ,41.5882305901306 ,53.5723771631279 ,85.1996674457028
7.5627769 ,Left ,41.5871072707584 ,53.5741118834979 ,85.1994487611793
7.5853407 ,Left ,41.5673407262593 ,53.5778881087199 ,85.217917718826
7.6049322 ,Left ,41.5683479647366 ,53.5686816301539 ,85.2473896143272
7.622834 ,Left ,41.5885806851382 ,53.5570930043827 ,85.2871387307186
7.6453163 ,Left ,41.6019919107515 ,53.5533025819118 ,85.3248968695242
7.66489 ,Left ,41.6123950809682 ,53.5607282136164 ,85.3573579401543
7.6828557 ,Left ,41.6388262332082 ,53.559858338882 ,85.3806072241977
7.7052978 ,Left ,41.6399156037569 ,53.5478206882693 ,85.3862569501348
7.7248771 ,Left ,41.6320345977842 ,53.5481264830975 ,85.3834562897897
7.7428652 ,Left ,41.6104944226201 ,53.5524768172197 ,85.366060784596
7.7652453 ,Left ,41.6022558259955 ,53.5570500781075 ,85.362491242402
7.7857226 ,Left ,41.5816358246708 ,53.568911135732 ,85.3668310563964
7.8022041 ,Left ,41.5640511964063 ,53.5852736572028 ,85.3746807784213
7.8244676 ,Left ,41.5800104114151 ,53.6169146540768 ,85.3799834781373
7.8455136 ,Left ,41.6068904131991 ,53.6388114128437 ,85.3908328197511
7.8619576 ,Left ,41.6640822499846 ,53.6663070220579 ,85.3828647943076
7.8845942 ,Left ,41.6574609438782 ,53.6971405147302 ,85.3917160381856
7.9056314 ,Left ,41.6597520372253 ,53.7380132138216 ,85.4166158924414
7.9220242 ,Left ,41.5805133118945 ,53.7545501754181 ,85.3995810695283
7.9445269 ,Left ,41.5156545484229 ,53.7557851286841 ,85.3655251383416
7.9655764 ,Left ,41.5207528902563 ,53.7460195528179 ,85.3203053020781
7.9819878 ,Left ,41.5168623651983 ,53.7520439960073 ,85.2822876278299
8.0043998 ,Left ,41.4989190232342 ,53.7540451512947 ,85.2672155744795
8.0254905 ,Left ,41.49428142933 ,53.7400066302239 ,85.2551769099683
8.0422986 ,Left ,41.4804147266769 ,53.7393625949755 ,85.2612009889228
8.0645637 ,Left ,41.4524668376254 ,53.7412004651897 ,85.2878239422092
8.0856854 ,Left ,41.42466829415 ,53.7492709671349 ,85.300466503845
8.102064 ,Left ,41.4194168609524 ,53.7666598354028 ,85.3069374753068
8.1245627 ,Left ,41.4004551729928 ,53.799739328878 ,85.3093310523772
8.1455937 ,Left ,41.3571108718676 ,53.8529891771816 ,85.3088901562494
8.1620502 ,Left ,41.3332689998409 ,53.9278641211344 ,85.3329287341572
8.1845896 ,Left ,41.2579500845768 ,53.9685314662854 ,85.331875008379
8.2056241 ,Left ,41.2627653954557 ,53.9896139445048 ,85.3332563350439
8.2221072 ,Left ,41.3065464959939 ,53.9817818371226 ,85.3203302862035
8.2445371 ,Left ,41.3667914132518 ,53.9549368317025 ,85.3108207282253
8.2655307 ,Left ,41.3691184321958 ,53.9295322308656 ,85.3270935333833
8.2820569 ,Left ,41.3187209775127 ,53.9061500559338 ,85.3383956065006
8.3060299 ,Left ,41.2728309905913 ,53.8950930419447 ,85.3341505304617
8.3270321 ,Left ,41.2624114472465 ,53.8870689580198 ,85.3202837657498
8.3419898 ,Left ,41.2816338478062 ,53.9052367854057 ,85.319689505521
8.3645226 ,Left ,41.2562978441861 ,53.9232175897483 ,85.3290620255332
8.3870081 ,Left ,41.2167115647863 ,53.9188424659505 ,85.3206528603547
8.4019449 ,Left ,41.2599343782766 ,53.9125286467512 ,85.2945338807798
8.4245044 ,Left ,41.348298730581 ,53.9138179635559 ,85.2583478331006
8.4469612 ,Left ,41.3448146057881 ,53.9059125383229 ,85.2298550015856
8.4614199 ,Left ,41.2635455490373 ,53.8934944019951 ,85.1916623917139
8.48452 ,Left ,41.2062034570266 ,53.9063318314628 ,85.1535452259238
8.5070315 ,Left ,41.2289403935203 ,53.8922069637642 ,85.1251282481894
8.528119 ,Left ,41.2656599133685 ,53.8743155542681 ,85.1114216747816
8.5445034 ,Left ,41.2297421985346 ,53.8661227983339 ,85.1104192573647
8.5670625 ,Left ,41.1877413092699 ,53.8681667965474 ,85.1161569148051
8.5813471 ,Left ,41.2008359305936 ,53.8920214398735 ,85.1219150605184
8.6044021 ,Left ,41.2073994414277 ,53.9139238388295 ,85.1228296139972
8.6270616 ,Left ,41.2265794140384 ,53.9853441003875 ,85.1420982283255
8.6481074 ,Left ,41.1989445323656 ,54.0442378494929 ,85.1319264484251
8.6645851 ,Left ,41.1588035343241 ,54.0762858185245 ,85.1116193352542
8.6870448 ,Left ,41.1719621393338 ,54.0827359789636 ,85.0812369559252
8.7013871 ,Left ,41.209453346313 ,54.0771969488689 ,85.0593377148238
8.7243508 ,Left ,41.161425316977 ,54.0829740515169 ,85.0424471002802
8.7470631 ,Left ,41.0973279154805 ,54.0957462617297 ,85.0290488510521
8.7613431 ,Left ,41.079520014776 ,54.1171162695532 ,85.0065603545936
8.7845607 ,Left ,41.0927554835753 ,54.1442748935028 ,84.9849501040096
8.8071179 ,Left ,41.1048533551792 ,54.1736759544 ,84.9548728169879
8.8356969 ,Left ,41.0392606523157 ,54.2115609332756 ,84.9213394912387
8.8444834 ,Left ,40.9419332718599 ,54.2601411836902 ,84.8683845957557
8.8670503 ,Left ,40.8737262518071 ,54.3277201464143 ,84.8056207161483
8.8881268 ,Left ,40.846276193015 ,54.3873947825357 ,84.7445115035702
8.9044636 ,Left ,40.8025598517321 ,54.4033096779461 ,84.7016335421281
8.9270117 ,Left ,40.7308286789192 ,54.4214413075393 ,84.6977033807376
8.9480621 ,Left ,40.6741034240621 ,54.4595670778678 ,84.7166629568043
8.9645238 ,Left ,40.6937758542213 ,54.4874860353017 ,84.7444505096649
8.9870049 ,Left ,40.7247832127491 ,54.4989882662138 ,84.7699785807535
9.0080582 ,Left ,40.7029796894111 ,54.5001387454893 ,84.7901698192478
9.0245592 ,Left ,40.6885662057279 ,54.4731834631366 ,84.8156160923952
9.047062 ,Left ,40.8282297864546 ,54.3558352688627 ,84.8503158566051
9.068041 ,Left ,40.9455930982145 ,54.1985122426068 ,84.8676600323456
9.0837563 ,Left ,40.93901182807 ,54.0342382297755 ,84.8700902600018
9.1130252 ,Left ,40.887096226121 ,53.9519554163419 ,84.9559085012828
9.1280782 ,Left ,40.9212162169835 ,53.9258394832307 ,85.0630039395008
9.1444939 ,Left ,41.0356786077035 ,53.9155951266757 ,85.1032803025175
9.167004 ,Left ,41.1544546312473 ,53.8890175678545 ,85.1348909416302
9.1880734 ,Left ,41.2141831921721 ,53.8628567632206 ,85.1905224376704
9.2038319 ,Left ,41.1770522272037 ,53.8596337700973 ,85.2132724798364
9.2270795 ,Left ,41.1120439728059 ,53.9133066838336 ,85.2180187057697
9.247976 ,Left ,41.1238172040208 ,53.9899426039308 ,85.2040674684007
9.2644329 ,Left ,41.1819783157473 ,54.0315480787802 ,85.1942421295097
9.2868793 ,Left ,41.2057199349974 ,54.011279569881 ,85.2089367882097
9.3094732 ,Left ,41.1678691408121 ,53.9514147127958 ,85.2181847785732
9.3244847 ,Left ,41.131692428337 ,53.8667015030772 ,85.2067741289579
9.3469378 ,Left ,41.1519311292634 ,53.7787376794341 ,85.1851794920951
9.369681 ,Left ,41.2244494122367 ,53.7353402592111 ,85.1682745739015
9.3845243 ,Left ,41.2768559897556 ,53.7062882497018 ,85.1644109653599
9.4145235 ,Left ,41.2832994605326 ,53.6990628895373 ,85.1594558220373
9.4296127 ,Left ,41.3055198252471 ,53.7099490577191 ,85.1609616178659
9.4437615 ,Left ,41.3367762063657 ,53.7325363509322 ,85.1640569635651
9.4669751 ,Left ,41.3605246326275 ,53.7547760411121 ,85.1714655868394
9.4895624 ,Left ,41.3694411442259 ,53.7631769144978 ,85.1899578352441
9.5040267 ,Left ,41.3679012390993 ,53.7556121899344 ,85.211322918013
9.5270434 ,Left ,41.3954862584971 ,53.7288132289058 ,85.2290960381808
9.5494676 ,Left ,41.4283393670089 ,53.7102845828803 ,85.2517599469358
9.5639283 ,Left ,41.4562468076903 ,53.6929210117374 ,85.2804170046633
9.5869686 ,Left ,41.4644673349414 ,53.6837860575282 ,85.3046895931847
9.6097218 ,Left ,41.5009480375667 ,53.6861366576298 ,85.3311232881409
9.6238775 ,Left ,41.5421854101845 ,53.6902948156226 ,85.3451784633571
9.6470385 ,Left ,41.6017613790907 ,53.7038325076405 ,85.3523829829164
9.6705272 ,Left ,41.6316927405699 ,53.7348962199503 ,85.3672454762002
9.6906043 ,Left ,41.6268476412335 ,53.7804620814297 ,85.3977197316732
9.7130691 ,Left ,41.6140743140101 ,53.8134651692974 ,85.3974417307542
9.729526 ,Left ,41.6150014529832 ,53.8305521499174 ,85.3569448790735
9.7438189 ,Left ,41.6448707965549 ,53.8154302329386 ,85.3385491889226
9.7669947 ,Left ,41.6533673157252 ,53.7892353450362 ,85.3263161670016
9.7895603 ,Left ,41.6014480024942 ,53.7822457028679 ,85.300646289861
9.8105574 ,Left ,41.5687169869638 ,53.8192861927041 ,85.3094112917319
9.8271964 ,Left ,41.5414359557973 ,53.8496607866339 ,85.307282058419
9.8494919 ,Left ,41.5279897444867 ,53.8566228654313 ,85.2943236253916
9.8711098 ,Left ,41.4908872350076 ,53.8412142287533 ,85.2829238330478
9.887101 ,Left ,41.4379574729919 ,53.7958430324154 ,85.2635759596479
9.909548 ,Left ,41.4707505358404 ,53.7478850449463 ,85.2476375465507
9.9305278 ,Left ,41.5101770850795 ,53.7153584936468 ,85.2235926227386
9.9470536 ,Left ,41.4989378309544 ,53.7014932320939 ,85.227207888955
9.9696097 ,Left ,41.4582924022089 ,53.669497814497 ,85.2219793258514
9.9905737 ,Left ,41.4460616801424 ,53.6469792375177 ,85.1984658709083
10.0070773 ,Left ,41.4421200658237 ,53.6209165642515 ,85.1725857341159
10.0295447 ,Left ,41.4034562593593 ,53.6346161085844 ,85.1619287033587
10.0505681 ,Left ,41.3250854151988 ,53.6890823941076 ,85.1702360455838
10.0670676 ,Left ,41.2876527539753 ,53.7511898434331 ,85.1765916921673
10.089558 ,Left ,41.3057710994497 ,53.8097249006961 ,85.2030145837486
10.1106101 ,Left ,41.3173082619817 ,53.8415827854476 ,85.2073936403858
10.1270643 ,Left ,41.3293366024517 ,53.8570016485251 ,85.2091747167731
10.1495297 ,Left ,41.3758416350529 ,53.8349710655067 ,85.1976332650008
10.1720076 ,Left ,41.3749860739219 ,53.8022486681507 ,85.1772261525218
10.1930209 ,Left ,41.3218904930594 ,53.7707964239822 ,85.1498012523661
10.2231067 ,Left ,41.277721914198 ,53.749356818437 ,85.1174542667882
10.2320173 ,Left ,41.2477007261524 ,53.7537781888794 ,85.0880164277826
10.2469343 ,Left ,41.2367032682061 ,53.7685648223071 ,85.0744573095103
10.2696057 ,Left ,41.248750365193 ,53.8179576326934 ,85.1030858021411
10.2920815 ,Left ,41.2191993962308 ,53.8395072695753 ,85.1177780832996
10.3071381 ,Left ,41.2582543445656 ,53.8374486717557 ,85.1181233047718
10.3294928 ,Left ,41.3348210211941 ,53.82530027145 ,85.0962173275969
10.3520704 ,Left ,41.3264255212732 ,53.8087541650552 ,85.0816136262473
10.3663437 ,Left ,41.2693583216288 ,53.8156028410634 ,85.0900258913961
10.3894946 ,Left ,41.2141974200534 ,53.8133483513168 ,85.0536832852232
10.4119939 ,Left ,41.2116837940507 ,53.7915248786071 ,85.0443779329471
10.426298 ,Left ,41.2423579172044 ,53.767500769885 ,85.026613962254
10.4495857 ,Left ,41.1865608785364 ,53.7641019673973 ,85.0382903626628
10.4718571 ,Left ,41.1274155964582 ,53.8195708789453 ,85.0604992415951
10.4931747 ,Left ,41.1434431121477 ,53.9029226794691 ,85.0865246118237
10.50963 ,Left ,41.2090050447396 ,53.9990695038677 ,85.0955189288934
10.532072 ,Left ,41.1878083514908 ,54.0627692771177 ,85.0931178632785
10.5531995 ,Left ,41.1484495022817 ,54.0671898503583 ,85.0722996241204
10.5696324 ,Left ,41.1354072835871 ,54.0308214813753 ,85.0420732767445
10.5919969 ,Left ,41.1405690885771 ,54.0057084269752 ,85.0023332220144
10.6064257 ,Left ,41.0791221221169 ,54.0008882624928 ,84.9575251610211
10.6295436 ,Left ,41.0277896600161 ,54.0126162290763 ,84.9236373834025
10.651955 ,Left ,41.0326602288946 ,54.0230369426148 ,84.8873947374128
10.6664257 ,Left ,41.0517608416712 ,54.0335471233748 ,84.8720452984392
10.689438 ,Left ,41.0263016625699 ,54.0660879247656 ,84.8746065544749
10.7119028 ,Left ,40.9665574404541 ,54.100155871215 ,84.8542317578472
10.7330634 ,Left ,40.958388338318 ,54.1320021647016 ,84.8160176261736
10.7495157 ,Left ,40.9572204396601 ,54.1645025049653 ,84.786313498521
10.7723054 ,Left ,40.9165182488176 ,54.213301460794 ,84.7995616548571
10.7927776 ,Left ,40.8553540452669 ,54.2488131538925 ,84.8183750389463
10.8094219 ,Left ,40.8367411210656 ,54.2507163318834 ,84.845248871989
10.8319809 ,Left ,40.8128521298234 ,54.2212209169798 ,84.8695850799775
10.8536159 ,Left ,40.7784117045566 ,54.1699527296453 ,84.8820795350701
10.8698385 ,Left ,40.8052474872464 ,54.1053792488781 ,84.9012455134359
10.8918997 ,Left ,40.9568216013114 ,53.9776046835762 ,84.9312968299997
10.9130653 ,Left ,41.0291056191756 ,53.8163053632943 ,84.9194477756373
10.9294817 ,Left ,41.0069833564422 ,53.6726724347643 ,84.9190953564754
10.9520387 ,Left ,40.9859228013749 ,53.6420625245017 ,84.9809763867026
10.9730848 ,Left ,41.0048003225361 ,53.626679699937 ,85.0148165339099
10.9895012 ,Left ,41.0799990419234 ,53.6157387112171 ,85.040787563754
11.0119859 ,Left ,41.1363205267812 ,53.5960364354797 ,85.0786067245537
11.0330107 ,Left ,41.1447627892369 ,53.5915911607716 ,85.1216468537985
11.0495393 ,Left ,41.144491937767 ,53.6196138487685 ,85.1531026208771
11.0794689 ,Left ,41.0996394294105 ,53.6680716407121 ,85.145305414997
11.0931679 ,Left ,41.1041029091048 ,53.7358995188047 ,85.1286258864398
11.1095434 ,Left ,41.1445603237976 ,53.7745042165766 ,85.1215105253254
11.132041 ,Left ,41.1780534409312 ,53.7682412011998 ,85.1253884600753
11.15437 ,Left ,41.1555259975621 ,53.7333939212693 ,85.1415879799896
11.1695323 ,Left ,41.0966431109764 ,53.6837000466582 ,85.1587088463247
11.1919842 ,Left ,41.1045269212448 ,53.5975674543405 ,85.1605595296162
11.2149163 ,Left ,41.1833834826855 ,53.5297593876471 ,85.1641296739097
11.2369703 ,Left ,41.2573468076907 ,53.4894323145928 ,85.1763766683845
11.2520884 ,Left ,41.3020110805569 ,53.4692392545095 ,85.1863396793973
11.2745522 ,Left ,41.3394218113133 ,53.4574125813171 ,85.1872494005738
11.2894817 ,Left ,41.3883728262242 ,53.4527416627271 ,85.1751153926109
11.3120096 ,Left ,41.4060052385248 ,53.4624073236469 ,85.1598571152288
11.3349536 ,Left ,41.3945626355549 ,53.474709129398 ,85.1469366178446
11.348871 ,Left ,41.3655480017857 ,53.4799143695274 ,85.1499492269764
11.3720498 ,Left ,41.3672179312145 ,53.4643105901301 ,85.1691366931769
11.3946392 ,Left ,41.3956624777832 ,53.4356999713019 ,85.1963381714809
11.4088501 ,Left ,41.4101197938479 ,53.422108388038 ,85.2277343152375
11.431987 ,Left ,41.4429801676195 ,53.4186969919247 ,85.255223516478
11.4545826 ,Left ,41.4843870286327 ,53.4169023317296 ,85.2722535415148
11.4689352 ,Left ,41.5145026567406 ,53.40682928916 ,85.2758688602276
11.4919163 ,Left ,41.5230949131731 ,53.395381612773 ,85.2679903364161
11.5144231 ,Left ,41.5279310933188 ,53.3964568495433 ,85.2522329823555
11.5288945 ,Left ,41.5106040258137 ,53.4006089497623 ,85.2357786489868
11.5519846 ,Left ,41.515208630026 ,53.4154011718748 ,85.250943069492
11.5744574 ,Left ,41.5419493209452 ,53.4365889690814 ,85.2580392301153
11.588908 ,Left ,41.5474801257332 ,53.4877486333261 ,85.2904482520718
11.612024 ,Left ,41.5797729229492 ,53.5360720006634 ,85.3256360143303
11.6174016 ,Left ,41.5998222800817 ,53.566848653226 ,85.3283435169428
11.6399824 ,Left ,41.5282308842931 ,53.5778587933787 ,85.3132291980633
11.6564659 ,Left ,41.479151127056 ,53.5785864500207 ,85.2968542409158
11.6774168 ,Left ,41.4624854369674 ,53.5670284095674 ,85.2391432565916
11.6999579 ,Left ,41.4523381044211 ,53.5765239244921 ,85.1999796014956
11.7163258 ,Left ,41.3967257155678 ,53.5971313727227 ,85.1838827611024
11.7374689 ,Left ,41.3332821955783 ,53.6224091854581 ,85.195410427549
11.7598008 ,Left ,41.2962578018408 ,53.6362689985421 ,85.2020633492105
11.7763704 ,Left ,41.2858188942159 ,53.6367372251954 ,85.2157879131018
11.7974988 ,Left ,41.2674982883585 ,53.6402172503779 ,85.2389946395235
11.8198953 ,Left ,41.226605404501 ,53.6748741589801 ,85.2535380593945
11.8363253 ,Left ,41.194735453882 ,53.7258990273117 ,85.2697690254658
11.8573587 ,Left ,41.1636304717205 ,53.7607527372404 ,85.2541435809551
11.888187 ,Left ,41.121412400866 ,53.7811534897821 ,85.2284872253617
11.896301 ,Left ,41.0838706149648 ,53.7649681184691 ,85.1957673387491
11.9174047 ,Left ,41.1405955313354 ,53.7265048976888 ,85.182869988904
11.9398882 ,Left ,41.1998364217812 ,53.6733707664282 ,85.191288956538
11.9563257 ,Left ,41.2040832157203 ,53.6293801304433 ,85.2125596834418
11.9774633 ,Left ,41.1845739150649 ,53.6190680861118 ,85.2282568083523
12.0000792 ,Left ,41.1943145859738 ,53.6316051683658 ,85.2223981772455
12.0162492 ,Left ,41.2485839795244 ,53.6546001672165 ,85.2100288236989
12.0375545 ,Left ,41.2480174569536 ,53.7124669389997 ,85.2217911407521
12.0599702 ,Left ,41.1819736676193 ,53.7743119537265 ,85.2146525000529
12.0777764 ,Left ,41.1529375662197 ,53.806585838163 ,85.193470333575
12.0974494 ,Left ,41.2372421747536 ,53.7981279154391 ,85.1732034303017
12.1210312 ,Left ,41.2737832624506 ,53.7576474808111 ,85.1626685895212
12.1377488 ,Left ,41.2233556243758 ,53.7378994559136 ,85.1713878276023
12.1573607 ,Left ,41.180379373906 ,53.7159175858313 ,85.1752777990019
12.1798784 ,Left ,41.1938971811171 ,53.6858705754337 ,85.1474347213877
12.1978164 ,Left ,41.2238495961405 ,53.6545537705462 ,85.1299199267457
12.2174146 ,Left ,41.2037110093477 ,53.6714122158639 ,85.1040959833201
12.239888 ,Left ,41.1353541992817 ,53.7383232752168 ,85.1145865861507
12.2578078 ,Left ,41.0966807050236 ,53.8477501328168 ,85.1462230221155
12.2773725 ,Left ,41.1136343523241 ,53.9567656810353 ,85.1508268327282
12.2998466 ,Left ,41.1419370784558 ,54.0196552285093 ,85.1638888612334
12.3237835 ,Left ,41.1356599368766 ,54.0129429288504 ,85.1680854118606
12.3376133 ,Left ,41.139615273871 ,53.9710270080267 ,85.1491212689601
12.3598599 ,Left ,41.1454690413422 ,53.9469994675985 ,85.1230141655763
12.3777654 ,Left ,41.113195360743 ,53.9225125510311 ,85.0527388494637
12.3973924 ,Left ,41.0869713239664 ,53.910258652172 ,84.9727129652968
12.4199602 ,Left ,41.0520453359436 ,53.9071080811679 ,84.9208163650111
12.4438327 ,Left ,40.9689221082711 ,53.9247601186156 ,84.8794772423383
12.4573771 ,Left ,40.8761448197544 ,53.949274453229 ,84.8179032753352
12.4799604 ,Left ,40.8636944507319 ,53.9852119117487 ,84.7871889997888
12.4985782 ,Left ,40.8959786625418 ,54.0064260354953 ,84.7902641164294
12.5173511 ,Left ,40.8913570990797 ,54.0343013141393 ,84.8290499301711
12.5398891 ,Left ,40.8765793455321 ,54.0779873498807 ,84.8865211753432
12.5578153 ,Left ,40.8410317162857 ,54.1192763681455 ,84.896353660659
12.577418 ,Left ,40.8791193906263 ,54.143689047483 ,84.9019324946441
12.5998935 ,Left ,40.9454704113086 ,54.0959083623093 ,84.9105279033156
12.6177876 ,Left ,41.0178771981338 ,53.9756040178301 ,84.9053085008907
12.6374554 ,Left ,40.9735433960247 ,53.8076599229735 ,84.8882758149382
12.6598137 ,Left ,40.9283025165513 ,53.6512098837815 ,84.8921851558477
12.6778939 ,Left ,40.9387171447806 ,53.5415625824738 ,84.948244316988
12.6976309 ,Left ,40.9844645520905 ,53.4656156537815 ,84.994469036612
12.7198769 ,Left ,41.0583764701222 ,53.4098764313934 ,85.0285725718834
12.7438794 ,Left ,41.135969865301 ,53.3708992915226 ,85.0573940733869
12.7587873 ,Left ,41.1342089452013 ,53.3543209234334 ,85.0692028538038
12.7798951 ,Left ,41.1018421852071 ,53.3946717127609 ,85.0711063114772
12.7978341 ,Left ,41.0810968535826 ,53.4692872287301 ,85.047069678341
12.819115 ,Left ,41.1230130996376 ,53.5176238197566 ,85.0382842785733
12.8399311 ,Left ,41.1771085600055 ,53.5073224404871 ,85.0707658601431
12.8577901 ,Left ,41.1333445670752 ,53.471829179519 ,85.1082398205823
12.8803864 ,Left ,41.0774053995528 ,53.4172835431369 ,85.147828934853
12.8998843 ,Left ,41.1094220414458 ,53.3652419355595 ,85.165808696849
12.917804 ,Left ,41.2066749861516 ,53.3329380640401 ,85.1735540917604
12.9402766 ,Left ,41.2614539045663 ,53.3228160739767 ,85.1755275601879
12.9598809 ,Left ,41.2572702105003 ,53.3329920105953 ,85.1784822003289
12.9777905 ,Left ,41.245179708207 ,53.3489800903842 ,85.1729868927141
12.9988228 ,Left ,41.2447334148445 ,53.362774641272 ,85.1539364469517
13.0199343 ,Left ,41.2492404487793 ,53.3833974631462 ,85.1538237745527
13.0396908 ,Left ,41.2190131238771 ,53.4041740951098 ,85.1666352918004
13.0602726 ,Left ,41.1978599468265 ,53.4128131423098 ,85.1879598546766
13.0799347 ,Left ,41.2013345197181 ,53.4183241475456 ,85.2143119864559
13.0977859 ,Left ,41.2180461521255 ,53.4079539623293 ,85.2344284791227
13.1211527 ,Left ,41.2403433682374 ,53.3991507131686 ,85.2501158723019
13.1399923 ,Left ,41.2486806069871 ,53.4018515921234 ,85.2544791825445
13.1578069 ,Left ,41.2471510073514 ,53.41630751969 ,85.2504953214743
13.1802905 ,Left ,41.2581060435792 ,53.4372030066808 ,85.2485240864714
13.1998777 ,Left ,41.2645264973032 ,53.4438799390471 ,85.2441602086891
13.2177835 ,Left ,41.268315698209 ,53.4462892587711 ,85.2467560830935
13.2402277 ,Left ,41.2709976560573 ,53.4401971518005 ,85.2546963705146
13.2598869 ,Left ,41.3015915360748 ,53.4434778269747 ,85.2659180173019
13.2778246 ,Left ,41.3428485447928 ,53.4623149062326 ,85.29269380038
13.300297 ,Left ,41.43835047884 ,53.5088628248825 ,85.298170829556
13.3217348 ,Left ,41.422019535713 ,53.5785900992708 ,85.325626073765
13.3380228 ,Left ,41.4437797360431 ,53.652043282884 ,85.3511614596268
13.367815 ,Left ,41.3897751439845 ,53.711164171343 ,85.3483568490443
13.3799403 ,Left ,41.2965133066883 ,53.763476359924 ,85.3353624125097
13.3977769 ,Left ,41.2349745153075 ,53.7910353121842 ,85.2996117519163
13.4203639 ,Left ,41.2328324681004 ,53.7803443463047 ,85.2774067115676
13.439854 ,Left ,41.2058840511098 ,53.7528015717251 ,85.2632954214924
13.4568431 ,Left ,41.1666210846899 ,53.7148709524972 ,85.2595940505131
13.4794665 ,Left ,41.1498494095035 ,53.6909253419123 ,85.240447012164
13.5005298 ,Left ,41.1253772073268 ,53.6901113244422 ,85.2570748327893
13.5169226 ,Left ,41.0637360834838 ,53.7141454978391 ,85.257235290774
13.5394258 ,Left ,41.0339331422551 ,53.7549079997197 ,85.2343551277398
13.5604894 ,Left ,41.0389183221889 ,53.826282364226 ,85.2519731891061
13.5770615 ,Left ,41.0076512363984 ,53.8865340631065 ,85.2357356764454
13.5994538 ,Left ,40.9733861558417 ,53.9621073179098 ,85.2213076579964
13.6206534 ,Left ,41.0179702162383 ,53.9867788547728 ,85.2367027959068
13.6370031 ,Left ,41.0365589235046 ,53.9607410340856 ,85.2566003792866
13.659606 ,Left ,41.0171072030957 ,53.9102752782912 ,85.2686431920802
13.6805457 ,Left ,40.9982940221314 ,53.8568719263633 ,85.2766685110977
13.6970396 ,Left ,40.9709257633312 ,53.8047714073107 ,85.2479818525912
13.7195149 ,Left ,40.9530008392087 ,53.7612759860881 ,85.2178850674564
13.7406403 ,Left ,40.980613783191 ,53.7534928122477 ,85.1979951820189
13.7570324 ,Left ,40.9892808431835 ,53.7815971076533 ,85.2111524608159
13.7795836 ,Left ,40.9520116731637 ,53.8396679743561 ,85.2274441527528
13.8005342 ,Left ,40.953260119694 ,53.8757345915072 ,85.2105052188916
13.8177556 ,Left ,41.0438905710935 ,53.8685904844347 ,85.1844208485178
13.8394965 ,Left ,41.0859641014076 ,53.82530625382 ,85.1716271960287
13.8604973 ,Left ,41.0116256950349 ,53.7885869248032 ,85.1560826242003
13.8769954 ,Left ,40.9447387014739 ,53.7720675460586 ,85.1230362410459
13.8995195 ,Left ,40.9815970749629 ,53.7291266609737 ,85.0828412777807
13.9221756 ,Left ,41.0337099768782 ,53.6674518022185 ,85.0892960254602
13.9368768 ,Left ,41.0184947540287 ,53.6724001933397 ,85.0921300474772
13.9595311 ,Left ,40.9361700246908 ,53.7355147301431 ,85.1036140545156
13.9805537 ,Left ,40.9411743978034 ,53.8539271081476 ,85.1320551904673
13.9963655 ,Left ,40.9792172082626 ,53.9483811097124 ,85.1404536585183
14.01955 ,Left ,40.9771806808169 ,54.007311517843 ,85.1579179270517
14.0419907 ,Left ,40.9414257867719 ,54.0082288478217 ,85.1447157985998
14.0564045 ,Left ,40.9210442250241 ,53.9744717879142 ,85.1114542188344
14.0795312 ,Left ,40.9172123453313 ,53.9174378734747 ,85.0651347467871
14.1095051 ,Left ,40.9218758811771 ,53.8572522988662 ,85.0375281385221
14.1169789 ,Left ,40.9318267997666 ,53.8109914071451 ,85.0183141940871
14.1394431 ,Left ,40.9299533724128 ,53.8079611581151 ,85.0389275065774
14.1619806 ,Left ,40.9091208679673 ,53.8180355168375 ,85.0551675129579
14.1762841 ,Left ,40.9223130547049 ,53.8355171320364 ,85.0630072761493
14.1994371 ,Left ,40.9446161225546 ,53.8605419918468 ,85.0544589810933
14.2218809 ,Left ,40.9194392863945 ,53.8916516158622 ,85.0399620910248
14.2362911 ,Left ,40.8474928481799 ,53.9304496427404 ,85.0248358916186
14.2669886 ,Left ,40.8030131645708 ,53.9801418325215 ,85.0093858654954
14.2819795 ,Left ,40.7538742322961 ,54.0180263453091 ,85.0026390406484
14.296308 ,Left ,40.7347422088872 ,54.0714689325345 ,85.020092259802
14.3194862 ,Left ,40.7212685509493 ,54.1159497749773 ,85.0272944451655
14.3419658 ,Left ,40.7157884593186 ,54.1466718415972 ,85.0494736060654
14.3630952 ,Left ,40.686790228449 ,54.1333393931486 ,85.0714119588445
14.3792411 ,Left ,40.7629830645256 ,54.0595093862447 ,85.0995553052678
14.4095549 ,Left ,40.9251517256638 ,53.9234012483664 ,85.1238835144834
14.4231105 ,Left ,40.9570673107694 ,53.7600883757328 ,85.096338707145
14.439493 ,Left ,40.9443055947367 ,53.6401506529359 ,85.0868260221438
14.4619984 ,Left ,40.9612849730317 ,53.5765213700928 ,85.1265021255291
14.4830129 ,Left ,41.0253873500939 ,53.5252666643569 ,85.1130958915878
14.4994341 ,Left ,41.0986841578854 ,53.4891706300886 ,85.0954947729421
14.521957 ,Left ,41.1140302858848 ,53.4702111334488 ,85.1013703037977
14.5445187 ,Left ,41.089268007355 ,53.4606074520837 ,85.1408274806103
14.5595559 ,Left ,41.0685642572891 ,53.4914809948049 ,85.1958412241945
14.582015 ,Left ,41.1181699551179 ,53.531935776739 ,85.2181380167077
14.6030634 ,Left ,41.1889756986938 ,53.55340983111 ,85.2249318715323
14.6194608 ,Left ,41.2470504057925 ,53.5373512705179 ,85.245508041088
14.6420311 ,Left ,41.2116052595782 ,53.4667804667699 ,85.2427120396216
14.6631706 ,Left ,41.1723151290902 ,53.4030141691896 ,85.2473683675457
14.6855279 ,Left ,41.1809819523356 ,53.3610582319351 ,85.2377672437798
14.7020054 ,Left ,41.2327262341064 ,53.3160080360464 ,85.2252694199997
14.7234672 ,Left ,41.2866522551701 ,53.2922495036658 ,85.2301178125456
14.7395831 ,Left ,41.29910087855 ,53.2884631415642 ,85.2376661062697
14.7619824 ,Left ,41.2960793013465 ,53.2977217737393 ,85.2441893839019
14.7830162 ,Left ,41.3044021871799 ,53.3143363314453 ,85.2491276025176
14.799442 ,Left ,41.3236782782375 ,53.3184089417432 ,85.2566561324321
14.8219259 ,Left ,41.319142592613 ,53.3272530422049 ,85.2646009534177
14.8430773 ,Left ,41.2935285608755 ,53.3475767074048 ,85.2759457807429
14.8594663 ,Left ,41.2867832195589 ,53.3654749162228 ,85.2776350719454
14.8819926 ,Left ,41.3132393513222 ,53.3769823564268 ,85.2829018532316
14.9031043 ,Left ,41.3155698594803 ,53.3945077973253 ,85.2941804797751
14.9194642 ,Left ,41.2884025404334 ,53.4090082681074 ,85.3033982296939
14.942401 ,Left ,41.3012962412025 ,53.4259048417582 ,85.310214175201
14.9648737 ,Left ,41.3356734061761 ,53.4287908519445 ,85.3118323022376
14.9793909 ,Left ,41.3552583624912 ,53.4176818693136 ,85.3131920565891
15.0019059 ,Left ,41.3473419668141 ,53.4123521003791 ,85.3162613539923
15.0245823 ,Left ,41.3643749681944 ,53.4310580088156 ,85.3327966829941
15.039426 ,Left ,41.4147320864136 ,53.4746802212251 ,85.3491479038189
15.0619163 ,Left ,41.4300025636685 ,53.5175406891245 ,85.3647435512519
15.084462 ,Left ,41.489826001038 ,53.568668008225 ,85.3744969415003
15.0988531 ,Left ,41.4422100035775 ,53.6096499802315 ,85.4014733848581
15.1219148 ,Left ,41.3429993786933 ,53.6432254039603 ,85.4104902444128
15.1444701 ,Left ,41.3258872470594 ,53.6541751700272 ,85.3925072003625
15.1587064 ,Left ,41.3385864859088 ,53.6529008032377 ,85.3704945812822
15.1897471 ,Left ,41.3361649226692 ,53.6205923132246 ,85.3549357342635
15.2054004 ,Left ,41.3171428661321 ,53.578954660318 ,85.3429456275053
15.2187926 ,Left ,41.2663799428188 ,53.5505850489764 ,85.3235006618343
15.2420283 ,Left ,41.2292202205835 ,53.5260472577086 ,85.303195597547
15.2649299 ,Left ,41.2041111653541 ,53.5013434987956 ,85.2677985756545
15.278817 ,Left ,41.221834177467 ,53.5182545948367 ,85.2647981358291
15.3019914 ,Left ,41.1923844955159 ,53.5213781688941 ,85.2788787795142
15.324493 ,Left ,41.1667465503745 ,53.5471823534567 ,85.3030766331185
15.3389049 ,Left ,41.152376840816 ,53.5749788949717 ,85.3128716219267
15.3618176 ,Left ,41.1337203975037 ,53.5844740342201 ,85.3023720624401
15.3844916 ,Left ,41.1575505295149 ,53.5725092543257 ,85.2918393600763
15.398771 ,Left ,41.1954869929967 ,53.535915664612 ,85.2953782708184
15.4219274 ,Left ,41.1598881753339 ,53.5153552635486 ,85.2893771495767
15.4444755 ,Left ,41.0962532270292 ,53.5271121701451 ,85.3007335227599
15.4654981 ,Left ,41.071605634227 ,53.5320091994363 ,85.3023699416206
15.4820069 ,Left ,41.0985057282343 ,53.543073439919 ,85.3053327433473
15.5048596 ,Left ,41.1183184106049 ,53.5474536146461 ,85.3233156116095
15.5255592 ,Left ,41.122524197293 ,53.5354025298234 ,85.3323673955756
15.5424311 ,Left ,41.174078730035 ,53.5237676138187 ,85.3362728665392
15.5644505 ,Left ,41.2156339197062 ,53.494406932357 ,85.3239024997833
15.5855331 ,Left ,41.2182784050905 ,53.488434176801 ,85.322516475231
15.6019852 ,Left ,41.2009032810518 ,53.4820593499252 ,85.3303352753236
15.6245405 ,Left ,41.1963731669526 ,53.4723791437293 ,85.3374751167724
15.6455169 ,Left ,41.1876506760984 ,53.4776717930612 ,85.3384869493567
15.6619887 ,Left ,41.1868637079787 ,53.4659591083037 ,85.3293309507798
15.6845131 ,Left ,41.1834052798262 ,53.4594025432926 ,85.3182390225099
15.7055565 ,Left ,41.1683036077308 ,53.4568794892187 ,85.3180621883305
15.7220175 ,Left ,41.1512704402247 ,53.4704122637492 ,85.321758207078
15.7445212 ,Left ,41.0943958652454 ,53.5013456859436 ,85.3028161991214
15.7654869 ,Left ,41.1014887129965 ,53.519053098516 ,85.2855189191765
15.7819553 ,Left ,41.1348612200689 ,53.5236590727573 ,85.2868222823909
15.8047213 ,Left ,41.1203899387522 ,53.5359426526147 ,85.2799815052863
15.8255445 ,Left ,41.0736994523059 ,53.5545706135448 ,85.2764228538066
15.8418812 ,Left ,41.0682466778025 ,53.592418118931 ,85.2714466353442
15.8645448 ,Left ,41.098223679024 ,53.6088818379459 ,85.2812105726426
15.886973 ,Left ,41.1164774585633 ,53.6176105899813 ,85.2915108511063
15.909421 ,Left ,41.1153809060384 ,53.6285608847485 ,85.3010488481273
15.9245933 ,Left ,41.1120809098302 ,53.6327676266306 ,85.3157149179802
15.9469878 ,Left ,41.1109535723708 ,53.6446340109848 ,85.3192397020864
15.9621164 ,Left ,41.0987313433254 ,53.6940170165013 ,85.3279209625996
15.9843833 ,Left ,41.0790337061119 ,53.7532574384298 ,85.3541297283908
16.006961 ,Left ,41.0350887435879 ,53.8045231566677 ,85.3551700134808
16.0213436 ,Left ,41.0497102484841 ,53.8917574542399 ,85.3724095328699
16.044513 ,Left ,41.027835371452 ,53.9611500474206 ,85.3664691486648
16.0745264 ,Left ,40.9939534228037 ,54.0080673468027 ,85.3473792385302
16.0813082 ,Left ,41.0269561351086 ,54.0284558122113 ,85.328429983408
16.104794 ,Left ,41.0150951363105 ,54.0323038373836 ,85.308809183977
16.1269175 ,Left ,40.9381137773632 ,54.0239199688102 ,85.2884179965323
16.1412453 ,Left ,40.881041364118 ,54.0009396821311 ,85.2457492427494
16.1645685 ,Left ,40.8814402779001 ,53.9653675797735 ,85.2025889204701
16.1869992 ,Left ,40.9107457570174 ,53.9362404556832 ,85.1975479597261
16.2012535 ,Left ,40.8669177930912 ,53.9288706557937 ,85.1951953385276
16.2245408 ,Left ,40.8204589104152 ,53.934705473417 ,85.1657732527177
16.2469503 ,Left ,40.8354052500659 ,53.9382172391676 ,85.1307954894776
16.2613488 ,Left ,40.8599496886216 ,53.93719991502 ,85.1168426349206
16.2844614 ,Left ,40.8215792040255 ,53.9580229923728 ,85.12446480619
16.3069543 ,Left ,40.7926854551786 ,54.0041200697107 ,85.1504799676256
16.3280554 ,Left ,40.7671785333759 ,54.0667354001515 ,85.1704008509303
16.3442197 ,Left ,40.7858558727635 ,54.1172296084023 ,85.1886662757374
16.3669697 ,Left ,40.7916670380796 ,54.1366151707487 ,85.1899917134369
16.3813814 ,Left ,40.7777392385524 ,54.1314814646798 ,85.195915346965
16.4044147 ,Left ,40.6899428875152 ,54.1116085531322 ,85.1791005116113
16.4269114 ,Left ,40.7327113641995 ,54.0544849045965 ,85.1775253431467
16.4480197 ,Left ,40.8808602566731 ,53.9255826937848 ,85.1827894393725
16.4644839 ,Left ,40.8937560159883 ,53.7730881211277 ,85.1806144795485
16.4869795 ,Left ,40.8600248759909 ,53.674354509068 ,85.213330971058
16.5079681 ,Left ,40.8625329507737 ,53.6174689193526 ,85.2896007161179
16.5244848 ,Left ,40.9359727523395 ,53.5590194848843 ,85.316202847602
16.5470009 ,Left ,41.0166353318753 ,53.5266488139653 ,85.3211709428065
16.5679686 ,Left ,41.0516123221725 ,53.5048328143802 ,85.3347731316353
16.584365 ,Left ,41.0296385169773 ,53.5019459390965 ,85.3565085898392
16.6068896 ,Left ,40.9875393932377 ,53.5403779431516 ,85.3682556536984
16.6295329 ,Left ,40.9855057426872 ,53.6128453103209 ,85.3567111138946
16.6442843 ,Left ,41.0519177969443 ,53.6642416190526 ,85.35411611345
16.6669061 ,Left ,41.1063160467736 ,53.6650850432229 ,85.3669817142875
16.6879791 ,Left ,41.071113832605 ,53.6254143661832 ,85.3765006065186
16.7044739 ,Left ,41.0278209789942 ,53.5556411866927 ,85.3722997626294
16.7271405 ,Left ,41.0369319176464 ,53.5266313105386 ,85.3680291134841
16.7480073 ,Left ,41.1044128980582 ,53.4903146868196 ,85.3729028410339
16.7644936 ,Left ,41.1570448492397 ,53.4666749272077 ,85.3825753391733
16.7870321 ,Left ,41.1672755819278 ,53.4598395966722 ,85.4015531723344
16.8080374 ,Left ,41.1876691149651 ,53.4501648089183 ,85.4176804567999
16.8245648 ,Left ,41.2311676630539 ,53.4423062269342 ,85.4344003387096
16.8469832 ,Left ,41.2644086708331 ,53.4356231268598 ,85.4473387294253
16.8694859 ,Left ,41.2806883071264 ,53.4425026659086 ,85.4640370701449
16.8844257 ,Left ,41.2995527354239 ,53.4387423725032 ,85.4791166267116
16.9069901 ,Left ,41.3224756347788 ,53.427639395898 ,85.4940887168475
16.9294728 ,Left ,41.3521969708053 ,53.4188914251987 ,85.5055159513105
16.9444783 ,Left ,41.3751709039934 ,53.4141501682222 ,85.5180114097775
16.9669935 ,Left ,41.3833621445759 ,53.4094296063411 ,85.5309488605837
16.9894657 ,Left ,41.4254730980652 ,53.3976798868072 ,85.5439618129352
17.0038566 ,Left ,41.4610307704166 ,53.3749746264691 ,85.5423429574409
17.0270092 ,Left ,41.4724844884052 ,53.3576613064394 ,85.5433923429347
17.0494621 ,Left ,41.475896436852 ,53.3588521712083 ,85.5416265071515
17.0638154 ,Left ,41.4977808289931 ,53.3943049357973 ,85.552154829921
17.0869211 ,Left ,41.5378926630823 ,53.4469306972122 ,85.5611169662862
17.1094759 ,Left ,41.5551308926709 ,53.5059635128117 ,85.5643597514372
17.1237188 ,Left ,41.5650400146077 ,53.5511841398776 ,85.5722784934746
17.1469229 ,Left ,41.5703962601853 ,53.5913272710945 ,85.5875330225929
17.1694174 ,Left ,41.4978649925346 ,53.6242197761886 ,85.5673049689212
17.1839281 ,Left ,41.4186795691462 ,53.6523479558775 ,85.5392346215852
17.2069586 ,Left ,41.3983821660448 ,53.6434792652117 ,85.5008224546933
17.2294878 ,Left ,41.3901093094825 ,53.6250090261034 ,85.4561242135885
17.2437864 ,Left ,41.3554622310043 ,53.6097126538151 ,85.4193443169005
17.2669802 ,Left ,41.3190127909578 ,53.6073672402409 ,85.3931025745777
17.2893983 ,Left ,41.2568062931706 ,53.626508187723 ,85.3628692762732
17.3105036 ,Left ,41.1991964726838 ,53.6697177906794 ,85.3576863662349
17.3269406 ,Left ,41.1637776973602 ,53.7431373986162 ,85.3581773130965
17.3324003 ,Left ,41.1457439015043 ,53.8166411850267 ,85.3932728176416
17.3577066 ,Left ,41.12991846015 ,53.8775139918209 ,85.4190782065851
17.3727854 ,Left ,41.0824927446789 ,53.9257185474998 ,85.4129213790259
17.3924247 ,Left ,41.1025336963143 ,53.9538962379118 ,85.4148060437063
17.4149623 ,Left ,41.0880965741528 ,53.9420506367677 ,85.4126601978354
17.4312549 ,Left ,41.0648630991727 ,53.9015708776687 ,85.4241665883444
17.4523879 ,Left ,41.1036419198307 ,53.8222754604022 ,85.4326922527481
17.4749924 ,Left ,41.1341035004737 ,53.7111469865334 ,85.4297074176033
17.4921484 ,Left ,41.1127810353007 ,53.6673911462897 ,85.4232240968904
17.5123679 ,Left ,41.0710092397172 ,53.6229709199303 ,85.4250340894139
17.5348372 ,Left ,41.059948501209 ,53.6178806656392 ,85.4155517020735
17.5513332 ,Left ,41.1264566010635 ,53.6330783005633 ,85.4264448044805
17.5724401 ,Left ,41.130447076753 ,53.6687168195522 ,85.4527539296658
17.5948514 ,Left ,41.0825515441553 ,53.7431884900389 ,85.4425891738102
17.6113689 ,Left ,41.0714547854802 ,53.7988635663919 ,85.4066077529105
17.6323833 ,Left ,41.1396455228307 ,53.7982576422707 ,85.3858275611518
17.6564758 ,Left ,41.1531893889886 ,53.7484833110159 ,85.3628422207244
17.6715489 ,Left ,41.0876269456223 ,53.7066079134708 ,85.3253107389088
17.6924256 ,Left ,41.04765817602 ,53.7036015742827 ,85.3136703179978
17.7162844 ,Left ,41.0677462162173 ,53.6845004636628 ,85.3003233592112
17.7373432 ,Left ,41.0668204294011 ,53.6649157485778 ,85.317315721974
17.7524182 ,Left ,41.0536136613361 ,53.6660511269314 ,85.3289879989599
17.782329 ,Left ,40.9941846136353 ,53.7468633955517 ,85.3489337428943
17.7926666 ,Left ,40.9495946181955 ,53.8617200728968 ,85.3650460294115
17.8124441 ,Left ,40.9878746553138 ,53.9975868437127 ,85.3641849232902
17.8349293 ,Left ,41.0161138351186 ,54.0854673721146 ,85.3663312745947
17.8526399 ,Left ,40.9831171944336 ,54.0945535728665 ,85.3617169193351
17.8730887 ,Left ,40.9441460982447 ,54.0630426889128 ,85.3446129374424
17.8948711 ,Left ,40.9169128266003 ,54.0121389174444 ,85.3104790583604
17.9128044 ,Left ,40.9010895331934 ,53.9685392975834 ,85.2751183204772
17.9323463 ,Left ,40.9014320092281 ,53.92151773349 ,85.2425268193073
17.9549434 ,Left ,40.8971279117838 ,53.8822138845736 ,85.2323413632339
17.9727467 ,Left ,40.863911901512 ,53.8797091383468 ,85.2291881904119
17.9923595 ,Left ,40.8322417681567 ,53.9191409214113 ,85.2135873470386
18.0177458 ,Left ,40.8128064248609 ,53.9700940744106 ,85.1731836880165
18.0415412 ,Left ,40.7878141956413 ,54.0152434682768 ,85.1286841839807
18.0524481 ,Left ,40.7679014227169 ,54.0704429206206 ,85.1061794303517
18.0749671 ,Left ,40.712613313289 ,54.1226951496163 ,85.1122804790119
18.0928428 ,Left ,40.6713586158159 ,54.1684081866305 ,85.1407416252587
18.1123774 ,Left ,40.6534946892858 ,54.1977722036877 ,85.142195268634
18.1348838 ,Left ,40.7001831405358 ,54.2017261460261 ,85.1545682020912
18.1527624 ,Left ,40.774710233712 ,54.1650840135756 ,85.1763356765455
18.1728628 ,Left ,40.8365346411944 ,54.0769047188403 ,85.1827826268566
18.1949139 ,Left ,40.8660436467106 ,53.90351076317 ,85.1490277631103
18.2127901 ,Left ,40.8792671440222 ,53.7832722923536 ,85.1355287479921
18.2323943 ,Left ,40.8813794794704 ,53.7069172197798 ,85.1713784379191
18.254854 ,Left ,40.9164764482938 ,53.640495815884 ,85.1537788524939
18.2728128 ,Left ,40.9993754429291 ,53.5743108767598 ,85.1380263903571
18.2937974 ,Left ,41.0657911689597 ,53.5295830087413 ,85.1473900447062
18.3148966 ,Left ,41.0691102751133 ,53.5291787125127 ,85.1878501001353
18.3345969 ,Left ,41.0504159864669 ,53.58188253069 ,85.2137165312567
18.3538175 ,Left ,41.0975559607691 ,53.6315310317341 ,85.2112916262771
18.3750579 ,Left ,41.2072794064306 ,53.6383383021127 ,85.2348725325259
18.3927591 ,Left ,41.2304803871155 ,53.6063065792029 ,85.2786220099508
18.4138418 ,Left ,41.1409987574825 ,53.5427609802166 ,85.3067051244417
18.4348493 ,Left ,41.0970835278468 ,53.502775852099 ,85.3232270031143
18.4529536 ,Left ,41.1467590363224 ,53.4745922821488 ,85.338872259825
18.4737424 ,Left ,41.1917895267806 ,53.4470254018364 ,85.3466994941303
18.4948137 ,Left ,41.2121725823994 ,53.4328349304597 ,85.3532529060023
18.5126908 ,Left ,41.2170740502425 ,53.4194599209654 ,85.3648018408253
18.5338205 ,Left ,41.2321022628493 ,53.4024621824347 ,85.370174642234
18.5548324 ,Left ,41.227218425129 ,53.4024957941715 ,85.3800168451513
18.5727938 ,Left ,41.2279871672312 ,53.4050179318229 ,85.3794124443135
18.5956964 ,Left ,41.2419216680631 ,53.4036771897714 ,85.385174348355
18.61488 ,Left ,41.2491811301482 ,53.4172456767763 ,85.3990820765463
18.6327569 ,Left ,41.2466262446247 ,53.4379683150689 ,85.404445554617
18.6541041 ,Left ,41.2554090585637 ,53.4557683873734 ,85.4138657853919
18.6749327 ,Left ,41.2830993236863 ,53.4661225776869 ,85.4321344402979
18.6927742 ,Left ,41.2906798847454 ,53.4699620290085 ,85.4433948128305
18.7138774 ,Left ,41.2975470554982 ,53.4815032377258 ,85.4496800928
18.7347772 ,Left ,41.3047933038533 ,53.4943695114788 ,85.4509994013234
18.7528151 ,Left ,41.33125538005 ,53.4956469352921 ,85.4526366491679
18.7752727 ,Left ,41.3512867854961 ,53.4968252375085 ,85.4468055340274
18.7949658 ,Left ,41.3603298258875 ,53.4966946245788 ,85.4377256030179
18.8127526 ,Left ,41.3715772812718 ,53.4884547079759 ,85.4288742774018
18.8352937 ,Left ,41.3839807849584 ,53.4802496323596 ,85.4175620849011
18.8549559 ,Left ,41.3905213077527 ,53.4958861662451 ,85.432437476403
18.8728834 ,Left ,41.4333470087971 ,53.5281983706281 ,85.4462157200847
18.8953198 ,Left ,41.4509283129677 ,53.56485202679 ,85.4501381379351
18.9148641 ,Left ,41.4865667952354 ,53.6001700086192 ,85.4514822500258
18.9329103 ,Left ,41.4103586641518 ,53.596936085947 ,85.4525834136625
18.9553634 ,Left ,41.3748972865835 ,53.6069842759598 ,85.4483036354673
18.9748539 ,Left ,41.3747884412844 ,53.6175391460797 ,85.4240579882388
18.9926723 ,Left ,41.3765786181507 ,53.6147956103082 ,85.4080745214067
19.0153101 ,Left ,41.4051809068574 ,53.5886078911091 ,85.4057056955287
19.034842 ,Left ,41.3740077857944 ,53.5389380204851 ,85.3929462262473
19.0527785 ,Left ,41.3368373044086 ,53.5033233812631 ,85.38401795068
19.0752359 ,Left ,41.3269705149711 ,53.5002485966528 ,85.3809941191185
19.1023163 ,Left ,41.285013304393 ,53.503692048414 ,85.3718390208986
19.1127949 ,Left ,41.2623916097079 ,53.5250848269694 ,85.3710395007689
19.135242 ,Left ,41.2574172445775 ,53.5357085137998 ,85.347249035164
19.1548085 ,Left ,41.2835327113343 ,53.5459754909594 ,85.3483106695078
19.1719461 ,Left ,41.2624173519943 ,53.5658871227652 ,85.3581329446093
19.1944933 ,Left ,41.2197628487747 ,53.6109628515888 ,85.3709359969022
19.2154827 ,Left ,41.2293220703179 ,53.6757517015489 ,85.3826594304898
19.2319672 ,Left ,41.2300459224195 ,53.7079421574965 ,85.3808411351325
19.2543198 ,Left ,41.2634566487986 ,53.7051306238075 ,85.3909501923794
19.2755284 ,Left ,41.2472447264325 ,53.6720263656224 ,85.400311303015
19.2919449 ,Left ,41.2109190829839 ,53.64335288237 ,85.4097389372303
19.3144616 ,Left ,41.1725327191306 ,53.6150347616585 ,85.3948663836601
19.3355187 ,Left ,41.1565318782495 ,53.6028998208481 ,85.3849804626315
19.3519307 ,Left ,41.1337739467256 ,53.6002537241792 ,85.3797248185068
19.374497 ,Left ,41.1273067510191 ,53.6639595462455 ,85.379074480171
19.4030555 ,Left ,41.1089851712387 ,53.7127698126475 ,85.3780517405856
19.4119922 ,Left ,41.1223682017735 ,53.745718235274 ,85.3934385234931
19.4345256 ,Left ,41.1733898538431 ,53.7533031716191 ,85.3727375712421
19.4556295 ,Left ,41.1877274169321 ,53.7365058458843 ,85.3606329472816
19.4718448 ,Left ,41.129453461431 ,53.7518544814788 ,85.345809889533
19.4945525 ,Left ,41.0889510288842 ,53.7578679906767 ,85.3240892100507
19.5155229 ,Left ,41.1048216845639 ,53.7359674300891 ,85.3070576939235
19.5319668 ,Left ,41.1102984779352 ,53.7073735040303 ,85.3123187595945
19.5545167 ,Left ,41.0865285588565 ,53.6639685589164 ,85.3131217407723
19.5754866 ,Left ,41.102028170379 ,53.6750090054951 ,85.3092552652527
19.591994 ,Left ,41.079245036846 ,53.7111332143132 ,85.3217395668667
19.6159264 ,Left ,41.0511656418337 ,53.8042180318013 ,85.3313410114336
19.6355216 ,Left ,41.0291084519087 ,53.891674592308 ,85.3439308305299
19.651886 ,Left ,41.0360511110238 ,53.9732329913625 ,85.3620833437075
19.6819919 ,Left ,41.0079000333992 ,54.0080446950635 ,85.3589891057102
19.696946 ,Left ,41.0221410258627 ,53.9889508778724 ,85.3579221458362
19.7119439 ,Left ,41.0278899827428 ,53.95872940761 ,85.345805025516
19.7344217 ,Left ,40.9764782637227 ,53.9373611105138 ,85.3375015105685
19.757463 ,Left ,40.9257643865874 ,53.9439776976666 ,85.3188316570583
19.7719679 ,Left ,40.908377471367 ,53.9327292892136 ,85.2759070925457
19.7945045 ,Left ,40.9859979052923 ,53.9052530434867 ,85.2504280614983
19.8169775 ,Left ,40.9430605212613 ,53.9017820986261 ,85.2330921343686
19.8312313 ,Left ,40.8454103570358 ,53.9319358489222 ,85.2119295620366
19.8543928 ,Left ,40.8217196797061 ,53.9800570185322 ,85.1678801818407
19.8768752 ,Left ,40.8756485552125 ,54.0115102627528 ,85.1233437704696
19.8912145 ,Left ,40.8942079018922 ,54.0581786910211 ,85.1354493792197
19.9144841 ,Left ,40.8531374504917 ,54.1167935493898 ,85.1706537480868
19.9369809 ,Left ,40.8037614625908 ,54.1571066584012 ,85.1834623103535
19.951284 ,Left ,40.866495869255 ,54.1686695566757 ,85.2058636726544
19.9819876 ,Left ,40.957846287174 ,54.0979785549011 ,85.2070524080484
19.996964 ,Left ,40.9716209186155 ,53.9966919516311 ,85.1933999980925
20.0179365 ,Left ,40.9459572406298 ,53.8341009341229 ,85.1765661380125
20.0344477 ,Left ,40.9492943010748 ,53.7271796511532 ,85.1985496920492
20.0570174 ,Left ,40.9837036014108 ,53.6688883161118 ,85.2457136117985
20.0779928 ,Left ,41.0072576927859 ,53.6338615654704 ,85.2657501253691
20.0944641 ,Left ,41.08909390038 ,53.613776335876 ,85.2811524321373
20.1169996 ,Left ,41.1352316304895 ,53.5996510474163 ,85.3049295823829
20.1313154 ,Left ,41.1262951692218 ,53.6219832927619 ,85.339815042435
20.1544635 ,Left ,41.0710967324267 ,53.7027350024151 ,85.3418497970344
20.1769884 ,Left ,41.1098649693028 ,53.764413736563 ,85.3300182639708
20.1981026 ,Left ,41.1892717402488 ,53.7587944328563 ,85.3338064100149
20.2144528 ,Left ,41.204008407267 ,53.6937451764134 ,85.3523705344844
20.2374322 ,Left ,41.1443635355013 ,53.6152453128986 ,85.3732046310851
20.2582364 ,Left ,41.105702612642 ,53.5540562481202 ,85.3863891420131
20.274446 ,Left ,41.1378943914381 ,53.5131629782316 ,85.4030666634016
20.3030048 ,Left ,41.1973229070012 ,53.4870954111507 ,85.4183639613742
20.3178999 ,Left ,41.2180691412139 ,53.4694182774603 ,85.4290945988829
20.3344677 ,Left ,41.2169074376449 ,53.4645561530627 ,85.4500813057797
20.3569007 ,Left ,41.2195641894711 ,53.4715890573323 ,85.4553818187285
20.3779854 ,Left ,41.2249594426034 ,53.4882074838661 ,85.4666040372204
20.3944721 ,Left ,41.2117872985669 ,53.4994562581508 ,85.4821069503133
20.4169097 ,Left ,41.2062602127304 ,53.5163142805646 ,85.5061690537231
20.4379695 ,Left ,41.2139391542038 ,53.5302828137902 ,85.5212409839225
20.4544596 ,Left ,41.2190113132548 ,53.5502433736883 ,85.5377498300409
20.4769468 ,Left ,41.2335589288636 ,53.5664464531288 ,85.5587164212744
20.4979982 ,Left ,41.2415803580413 ,53.5762447657 ,85.5652930111193
20.5145123 ,Left ,41.2677269485858 ,53.5722698848254 ,85.5750249378272
20.5369698 ,Left ,41.2861664447632 ,53.5619068728344 ,85.5728223614559
20.5580599 ,Left ,41.2857485584687 ,53.5608223402323 ,85.5590241488619
20.580512 ,Left ,41.286514550687 ,53.5643946240903 ,85.5429882927969
20.5969689 ,Left ,41.3027743496584 ,53.5640555569649 ,85.52845533567
20.6180015 ,Left ,41.3238379467207 ,53.5619434782314 ,85.5068194510377
20.6338288 ,Left ,41.3391065229704 ,53.5864875251143 ,85.5027265538109
20.657009 ,Left ,41.3199766237095 ,53.6043875494173 ,85.5093236485181
20.6794609 ,Left ,41.3570345871854 ,53.6311558456095 ,85.4804190210797
20.6944799 ,Left ,41.3850926116343 ,53.6672826234681 ,85.4706000021481
20.724867 ,Left ,41.3313066865805 ,53.6957406860989 ,85.4937478581745
20.7394345 ,Left ,41.2725890410648 ,53.7142720130553 ,85.4830569070783
20.754353 ,Left ,41.2888997706798 ,53.7371032779301 ,85.479304114527
20.7769764 ,Left ,41.3157853585652 ,53.753641110378 ,85.4769704708719
20.7994367 ,Left ,41.2988096687547 ,53.7448123398155 ,85.4826771512646
20.8137119 ,Left ,41.3213754712194 ,53.7187869833291 ,85.4738365992887
20.8369651 ,Left ,41.2906636477962 ,53.6878539120586 ,85.4817768633174
20.8595011 ,Left ,41.2229381102629 ,53.634812354461 ,85.4582060749144
20.8739536 ,Left ,41.2087198180588 ,53.6003528931786 ,85.4373562163735
20.8968407 ,Left ,41.2033198051998 ,53.6041568313549 ,85.4149208745751
20.9194899 ,Left ,41.1623977690342 ,53.6317310425678 ,85.4077336850748
20.9337864 ,Left ,41.1334274670868 ,53.7038910027595 ,85.4394486512695
20.9569753 ,Left ,41.1093593428884 ,53.7887804496288 ,85.465855792343
20.9795032 ,Left ,41.0858235249206 ,53.8801806800627 ,85.4792982496183
20.9937586 ,Left ,41.128785799914 ,53.9385250814143 ,85.4858933264159
21.0169834 ,Left ,41.1791041539671 ,53.9075759137208 ,85.4906490706141
21.0468729 ,Left ,41.1661188372708 ,53.8304372548041 ,85.4824214875095
21.0536617 ,Left ,41.1176153332853 ,53.7462114895143 ,85.4548077839126
21.0768737 ,Left ,41.0771675203716 ,53.6968300349056 ,85.4326512277206
21.0994607 ,Left ,41.0500684077615 ,53.6452888301597 ,85.4144558604092
21.120474 ,Left ,41.0521784515292 ,53.6344156023669 ,85.3836732135568
21.1370225 ,Left ,41.0643358759791 ,53.6784695489085 ,85.3896934826005
21.1593978 ,Left ,41.0420242053983 ,53.7484479465853 ,85.4175367092193
21.1805109 ,Left ,41.0431305625112 ,53.8504550363295 ,85.4366116551051
21.1969094 ,Left ,41.0915448065153 ,53.9278240117147 ,85.4339604890634
21.2195161 ,Left ,41.1514251537724 ,53.946784181257 ,85.4256630847454
21.2406647 ,Left ,41.1021158940472 ,53.915459416948 ,85.398967621189
21.2569572 ,Left ,40.9954338012706 ,53.8858067011995 ,85.3566737434975
21.2794989 ,Left ,40.9862680634955 ,53.8674817915104 ,85.3460649304041
21.3006978 ,Left ,40.9992560901175 ,53.8283297409108 ,85.3011689116918
21.3170078 ,Left ,41.0165749900377 ,53.7888735516241 ,85.2957968313671
21.3404644 ,Left ,40.9795332755694 ,53.7585398916965 ,85.2999946033176
21.3605537 ,Left ,40.9155134039341 ,53.8247260885836 ,85.3057419923703
21.3769882 ,Left ,40.948772904976 ,53.9406680329201 ,85.3477835126023
21.3994198 ,Left ,41.0022587206763 ,54.0451364948939 ,85.3603454707712
21.420529 ,Left ,40.9993915170381 ,54.0957032229953 ,85.3740983725994
21.4369845 ,Left ,40.9605827612899 ,54.1067044797022 ,85.3496170337832
21.4595067 ,Left ,40.9155037939827 ,54.083050058399 ,85.3185824280771
21.4805497 ,Left ,40.9342310532343 ,54.031671547298 ,85.2895715086311
21.5044713 ,Left ,40.9728287321419 ,53.9674864862541 ,85.2554388098868
21.519454 ,Left ,40.9662846134009 ,53.9329922224607 ,85.2302765672754
21.5414318 ,Left ,40.9540216274856 ,53.9281946579618 ,85.2441898592985
21.5572634 ,Left ,40.9272544204196 ,53.9237437449903 ,85.2594445836063
21.5794841 ,Left ,40.9472876894989 ,53.9218713467829 ,85.2707442997325
21.6019294 ,Left ,40.9676373089259 ,53.9136941166069 ,85.2739453098393
21.616932 ,Left ,40.9587761085304 ,53.9207397178381 ,85.2722093463278
21.6394383 ,Left ,40.895054477645 ,53.9390286152607 ,85.2606533316855
21.6619789 ,Left ,40.8472905146406 ,53.9772683792678 ,85.2422230034248
21.6769928 ,Left ,40.8296868401133 ,54.0032086773728 ,85.219795776478
21.6994938 ,Left ,40.7914991838096 ,54.0245807158304 ,85.2191032102931
21.7219043 ,Left ,40.7540900972837 ,54.078293069159 ,85.2445316187604
21.7362894 ,Left ,40.7479901841009 ,54.1235204949434 ,85.2604579669482
21.7594059 ,Left ,40.7301193690514 ,54.1487398573056 ,85.2840759832212
21.7819884 ,Left ,40.7138504622253 ,54.1471762290654 ,85.3095807393289
21.7962706 ,Left ,40.751413079079 ,54.1087410701623 ,85.3185988230821
21.8194564 ,Left ,40.8470655236574 ,54.0209721068919 ,85.3190436386766
21.8419334 ,Left ,40.8889085210877 ,53.8861464290165 ,85.2945292348336
21.8629469 ,Left ,40.8967806600627 ,53.745662995905 ,85.2832198178655
21.8794817 ,Left ,40.9298561637861 ,53.6705376528273 ,85.3107602415843
21.9024329 ,Left ,40.9701176698187 ,53.6281994702561 ,85.3352459704525
21.9231685 ,Left ,41.0352134194958 ,53.6013460511747 ,85.3361939654463
21.9394511 ,Left ,41.0990237574491 ,53.5580131895346 ,85.3383708897741
21.9619458 ,Left ,41.1275856463901 ,53.5163265554832 ,85.3684712833608
21.9762056 ,Left ,41.0968916934956 ,53.4945081389215 ,85.4055803583319
21.9994287 ,Left ,41.0928353501166 ,53.5249392115378 ,85.4254240464937
22.0219483 ,Left ,41.1016178090761 ,53.5632550829249 ,85.4141812172067
22.0363081 ,Left ,41.1414924269657 ,53.5734338997193 ,85.4171614427221
22.0598758 ,Left ,41.1842757675773 ,53.5419034860738 ,85.4330968415673
22.0819245 ,Left ,41.1653301090081 ,53.4514863730106 ,85.4385547393057
22.102991 ,Left ,41.1297648865703 ,53.3916971473256 ,85.440961382151
22.1194908 ,Left ,41.1514745242006 ,53.3575488907612 ,85.4480064455961
22.1424989 ,Left ,41.2050654957899 ,53.3384513606072 ,85.4552528854322
22.1629746 ,Left ,41.2473674326414 ,53.3407523550135 ,85.4687009205352
22.1798812 ,Left ,41.2527229049154 ,53.3527029300809 ,85.4796438238543
22.2019771 ,Left ,41.2472604932823 ,53.3790176767961 ,85.4853448668072
22.2232797 ,Left ,41.2448564681975 ,53.4099596804691 ,85.4851057955591
22.2395117 ,Left ,41.2469622189808 ,53.4365207430023 ,85.4864440884071
22.2619597 ,Left ,41.2383747164015 ,53.4528823954456 ,85.4852115244053
22.2830515 ,Left ,41.2198965269634 ,53.4623752629274 ,85.484115987587
22.299509 ,Left ,41.2123886893904 ,53.4685280252655 ,85.4860008005545
22.3220594 ,Left ,41.2294437583764 ,53.4733945480865 ,85.4925140110562
22.3430814 ,Left ,41.2453845331225 ,53.479991747078 ,85.4988017480312
22.3593517 ,Left ,41.2582983793882 ,53.4904421293379 ,85.508176346226
22.3819844 ,Left ,41.2674395735582 ,53.4993188361303 ,85.5182777957451
22.4030156 ,Left ,41.281110232528 ,53.5037978856452 ,85.5299489197926
22.4194332 ,Left ,41.3087033730952 ,53.4994325646801 ,85.5348949314472
22.4418013 ,Left ,41.3264331826543 ,53.500523323041 ,85.5340000858842
22.4799965 ,Left ,41.3283743116945 ,53.5030567853115 ,85.5309279087197
22.4827659 ,Left ,41.332862328802 ,53.5016922282392 ,85.5260696109271
22.5019316 ,Left ,41.3389699059397 ,53.5031520501129 ,85.529783486484
22.5244154 ,Left ,41.3389699059397 ,53.5031520501129 ,85.529783486484
22.5406814 ,Left ,41.3333507495859 ,53.5091496151897 ,85.5373720442618
22.5619974 ,Left ,41.3179425394795 ,53.5222304302377 ,85.5457682943116
22.5844246 ,Left ,41.3187648993455 ,53.5292707304225 ,85.554817106666
22.5994824 ,Left ,41.3233310243525 ,53.5293914357358 ,85.5660090506874
22.6219458 ,Left ,41.3168992683233 ,53.5282349584688 ,85.5739440686705
22.6444274 ,Left ,41.3127075786846 ,53.5283746245201 ,85.5732150639526
22.6587358 ,Left ,41.3142654490221 ,53.529580091382 ,85.5751255264393
22.6819353 ,Left ,41.3237613483183 ,53.5390713859447 ,85.5675812455364
22.70438 ,Left ,41.3407873947796 ,53.5364787677853 ,85.5615935514608
22.718777 ,Left ,41.3646212137433 ,53.5439398237736 ,85.5459456308622
22.7418788 ,Left ,41.36962705938 ,53.5929427442584 ,85.569748461231
22.7644424 ,Left ,41.4027624010161 ,53.6286508430472 ,85.5688350373906
22.7787849 ,Left ,41.3994831546275 ,53.6441352908873 ,85.5626251078218
22.801953 ,Left ,41.4652776123835 ,53.6514701068078 ,85.5723158705779
22.8244977 ,Left ,41.4207274879849 ,53.6355219852194 ,85.6032058630565
22.8387529 ,Left ,41.3284850340993 ,53.6296046030371 ,85.623083787795
22.8694625 ,Left ,41.277335387681 ,53.6233516604461 ,85.6284374858772
22.8844682 ,Left ,41.3082092712068 ,53.6092600666334 ,85.6151054720281
22.898723 ,Left ,41.3245782334893 ,53.5785657709406 ,85.6182848084428
22.9219333 ,Left ,41.3222581822295 ,53.5371080092991 ,85.6220538715677
22.9444885 ,Left ,41.2905338608701 ,53.5056016387507 ,85.6281875310275
22.958675 ,Left ,41.2357551531955 ,53.4826441348667 ,85.6282405210792
22.9819818 ,Left ,41.2091948281987 ,53.4475683774088 ,85.6383277453716
23.0042294 ,Left ,41.1956906217379 ,53.4293913496955 ,85.6459150403949
23.0255668 ,Left ,41.1657046892052 ,53.4016868112692 ,85.6550896118268
23.0419392 ,Left ,41.1093496537299 ,53.3602259338314 ,85.6667691884762
23.0474419 ,Left ,41.0958379248005 ,53.3184530602688 ,85.6712895206982
23.0698342 ,Left ,41.0795314372632 ,53.2970622402242 ,85.6801053051078
23.0877606 ,Left ,41.0358410291493 ,53.3134759507111 ,85.7078191523628
23.1074535 ,Left ,40.9928824933565 ,53.3844810166849 ,85.7415314656332
23.1298018 ,Left ,40.9577303575588 ,53.4421802051779 ,85.771283873677
23.1477568 ,Left ,40.8800954557478 ,53.5035253338296 ,85.7722867069578
23.1672703 ,Left ,40.8639894727637 ,53.5215614552646 ,85.7632311466971
23.1899305 ,Left ,40.9155544117247 ,53.4990081491269 ,85.7630364065407
23.2063116 ,Left ,40.9107025727027 ,53.4746732978408 ,85.7569858338138
23.2273156 ,Left ,40.8682890885598 ,53.4431025486705 ,85.7630790479797
23.2499259 ,Left ,40.8394338994811 ,53.4012384587575 ,85.7675044134808
23.2663049 ,Left ,40.8428152450328 ,53.3731879479234 ,85.7684947848122
23.2905297 ,Left ,40.8112554618527 ,53.3627773093595 ,85.7841767063314
23.3100096 ,Left ,40.7663634133138 ,53.3860272795362 ,85.8025848596266
23.3262335 ,Left ,40.7149329042311 ,53.4375952505011 ,85.8262280009182
23.3472665 ,Left ,40.7324465189303 ,53.4901358546131 ,85.830300772435
23.3697786 ,Left ,40.7783557143211 ,53.5086349732394 ,85.8121282902572
23.3862871 ,Left ,40.8431474444133 ,53.4886979238808 ,85.7894982618183
23.4074395 ,Left ,40.7886972535651 ,53.4546290096677 ,85.7610238671419
23.4298178 ,Left ,40.7148411667897 ,53.4323933058973 ,85.7420830356975
23.4463058 ,Left ,40.7367245504565 ,53.3987811231086 ,85.7243118651665
23.4673599 ,Left ,40.7713751801211 ,53.3824369326942 ,85.7151965638476
23.4898169 ,Left ,40.723154465013 ,53.3477503403621 ,85.719659151667
23.5077056 ,Left ,40.6964410053414 ,53.3750682675673 ,85.7122806250742
23.5274082 ,Left ,40.6977912422224 ,53.3983190774834 ,85.7199241153648
23.5498384 ,Left ,40.6932718668416 ,53.4562310408163 ,85.7478568750343
23.5677173 ,Left ,40.6805922448939 ,53.5618263653511 ,85.7604524354801
23.5873637 ,Left ,40.6931634776079 ,53.6388238311313 ,85.769384668828
23.6098 ,Left ,40.7147419053376 ,53.6565287622976 ,85.773668980284
23.6277313 ,Left ,40.7068466913268 ,53.6323840339183 ,85.7833958408883
23.6473347 ,Left ,40.6812368849852 ,53.596665240527 ,85.7788742174543
23.6699276 ,Left ,40.6529968133171 ,53.5631362652413 ,85.769522046166
23.6878441 ,Left ,40.6440057270629 ,53.5349893259187 ,85.7472425952793
23.7076023 ,Left ,40.6489411855512 ,53.521507854891 ,85.7306414359636
23.7298667 ,Left ,40.6508464592351 ,53.5317465069928 ,85.7494932147647
23.7476883 ,Left ,40.6305386878824 ,53.535680188648 ,85.7559541238503
23.7674771 ,Left ,40.6144710604818 ,53.5299255561856 ,85.7438085499513
23.7917123 ,Left ,40.6117493814519 ,53.5257995381121 ,85.7415446022623
23.8079806 ,Left ,40.6059055429975 ,53.5305083039544 ,85.7614787237315
23.8273603 ,Left ,40.5614018532564 ,53.5425579429442 ,85.7881900365317
23.8498253 ,Left ,40.5380147898539 ,53.5704286645864 ,85.8301965449942
23.8677793 ,Left ,40.5362711577312 ,53.6074514512925 ,85.869830736886
23.88729 ,Left ,40.5228510949464 ,53.6476306698119 ,85.879278841144
23.9098149 ,Left ,40.5145662350932 ,53.6645713144448 ,85.8789986211066
23.92774 ,Left ,40.4507259647432 ,53.6655921989167 ,85.8773567426522
23.9474592 ,Left ,40.3892082086353 ,53.6424281518328 ,85.8764210012085
23.9699703 ,Left ,40.4245653949265 ,53.5743870198087 ,85.8907893613849
23.9877404 ,Left ,40.4478899333794 ,53.4844936367722 ,85.9033765621868
24.0075704 ,Left ,40.4159945556167 ,53.4009448166495 ,85.9199486489425
24.0297959 ,Left ,40.3695882753913 ,53.345079808339 ,85.9695228158029
24.0477423 ,Left ,40.3521123709275 ,53.2977742410101 ,86.01074845114
24.0686486 ,Left ,40.3786953328828 ,53.2424126634906 ,86.0427456316877
24.0897164 ,Left ,40.3954077007693 ,53.201402172969 ,86.0930294221139
24.1077219 ,Left ,40.3834275099229 ,53.1649563591389 ,86.1644887170095
24.1288214 ,Left ,40.3377337474794 ,53.1239444658122 ,86.2138013118491
24.1497122 ,Left ,40.346963798803 ,53.093638080951 ,86.2472305318157
24.1678172 ,Left ,40.3740685785458 ,53.0561923449613 ,86.275980830798
24.1888284 ,Left ,40.3340691710851 ,53.0463947195114 ,86.3123248479019
24.2099035 ,Left ,40.2539889767509 ,53.0626659122607 ,86.315322486973
24.2277398 ,Left ,40.2207575125767 ,53.0843851764861 ,86.3056012024621
24.2488051 ,Left ,40.2853953126834 ,53.0738310531359 ,86.3230140046951
24.2698216 ,Left ,40.3187776751291 ,53.0405731807851 ,86.3486651756711
24.287827 ,Left ,40.2866551940205 ,53.0258788231956 ,86.3706908903497
24.3086533 ,Left ,40.2736702621816 ,52.9960527376046 ,86.3573048160479
24.3297846 ,Left ,40.3162286251068 ,53.0050973484981 ,86.3397275327063
24.347791 ,Left ,40.3548752805065 ,53.0133880884665 ,86.3337728815915
24.3687814 ,Left ,40.3809662792206 ,53.0242120513872 ,86.3235175853824
24.3898783 ,Left ,40.4007642305338 ,53.03636746925 ,86.3198228008785
24.4087122 ,Left ,40.412850873911 ,53.0518637111131 ,86.3071070753385
24.4377877 ,Left ,40.4155804075661 ,53.0690503448631 ,86.2903832706224
24.449851 ,Left ,40.4197974638055 ,53.1033803588266 ,86.267049854747
24.4677478 ,Left ,40.4411826103798 ,53.1270481804134 ,86.243922206378
24.4922521 ,Left ,40.443379746757 ,53.1325310874015 ,86.2267132232461
24.5098125 ,Left ,40.4202849288684 ,53.1233908611853 ,86.2047940842831
24.5277638 ,Left ,40.384900875089 ,53.1237538048653 ,86.1789235805303
24.5502886 ,Left ,40.3546370513101 ,53.138896384603 ,86.1487640512376
24.569851 ,Left ,40.352274259353 ,53.1537288338216 ,86.1228120704555
24.5878285 ,Left ,40.3765750075282 ,53.1518029066406 ,86.1183625246456
24.6102254 ,Left ,40.3700478477122 ,53.1468626406718 ,86.1277025263357
24.6298134 ,Left ,40.3324481865585 ,53.137661157248 ,86.1296041014045
24.6522903 ,Left ,40.3415012941374 ,53.1260680024598 ,86.1227675512365
24.6776369 ,Left ,40.3894281790515 ,53.1123803761048 ,86.1293688776443
24.6898006 ,Left ,40.4155635221819 ,53.0872617465984 ,86.1291304615291
24.7083129 ,Left ,40.4030242027979 ,53.0690444247301 ,86.1329927972295
24.7302632 ,Left ,40.4111465555393 ,53.0653411637027 ,86.1398688227311
24.7498227 ,Left ,40.4607146569362 ,53.084472303497 ,86.1467180467109
24.7677491 ,Left ,40.4848805763929 ,53.1103280379165 ,86.1608880873836
24.7903182 ,Left ,40.545591150213 ,53.142315337478 ,86.1635016730428
24.8098389 ,Left ,40.5480420265339 ,53.1594668600971 ,86.1638390718057
24.8277623 ,Left ,40.5139128901293 ,53.1735433044625 ,86.1788433374141
24.850278 ,Left ,40.4233850007106 ,53.1768041790881 ,86.1773184117115
24.8698752 ,Left ,40.3745061933227 ,53.1987628981584 ,86.1601332482398
24.8869316 ,Left ,40.4002186073418 ,53.1995677773638 ,86.1466003747234
24.9095213 ,Left ,40.3892853280849 ,53.1761818514098 ,86.1285748627069
24.9305269 ,Left ,40.3837634846913 ,53.1450055700539 ,86.1153374851615
24.9469794 ,Left ,40.3121317113576 ,53.1402457850635 ,86.1130765076648
24.9708902 ,Left ,40.264292784873 ,53.1419560581573 ,86.1043909704737
24.9906904 ,Left ,40.2277065478496 ,53.1214717119941 ,86.0385777167221
25.006909 ,Left ,40.2385484828497 ,53.1070636008352 ,86.0103904697939
25.0293778 ,Left ,40.2070030568675 ,53.0918242997462 ,86.0227341672291
25.0505182 ,Left ,40.1344124114233 ,53.1177236158544 ,86.0337499935685
25.0668457 ,Left ,40.1694685705971 ,53.1720931696085 ,86.0410964668089
25.0894733 ,Left ,40.2594121713592 ,53.203180215185 ,86.0508516012256
25.1105298 ,Left ,40.294422404081 ,53.1877358828151 ,86.0551430742896
25.1268077 ,Left ,40.2707336325045 ,53.1311650107138 ,86.0544996022182
25.149479 ,Left ,40.2427076307713 ,53.0598376878343 ,86.0405558607185
25.1705009 ,Left ,40.2499102851331 ,53.0008038638846 ,86.0061519251207
25.1869535 ,Left ,40.292359305918 ,52.9579440986085 ,85.9647203251914
25.2094355 ,Left ,40.2854395207646 ,52.9359948707381 ,85.9462478382167
25.231946 ,Left ,40.26337145052 ,52.9337326741092 ,85.924114938381
25.2529676 ,Left ,40.2927745178011 ,52.9467875116664 ,85.9150519541177
25.2694618 ,Left ,40.3003787776207 ,52.961033952719 ,85.9293866926598
25.2906163 ,Left ,40.2909711698508 ,52.9948755604371 ,85.9510720675995
25.3069746 ,Left ,40.2975567555805 ,53.0290053637822 ,85.96434034955
25.3294494 ,Left ,40.3023027121359 ,53.0439946240035 ,85.9862111431053
25.3505079 ,Left ,40.2926434286913 ,53.0439955902601 ,86.0020138764094
25.366982 ,Left ,40.2917935023429 ,53.0415228561521 ,86.002748378342
25.3894078 ,Left ,40.2925422349149 ,53.039340056417 ,86.0019414159213
25.4119452 ,Left ,40.2872011541549 ,53.0287011696523 ,86.0053257741397
25.4270175 ,Left ,40.2803963863716 ,53.0215570955901 ,86.0070515809337
25.4494248 ,Left ,40.265800933661 ,53.0249292071472 ,86.0096657822745
25.4719347 ,Left ,40.2715422686729 ,53.0375565878619 ,86.0212430485237
25.4869165 ,Left ,40.2919902384261 ,53.0627361026642 ,86.0296960917982
25.5105136 ,Left ,40.2687356627272 ,53.120887658519 ,86.062101833217
25.5320081 ,Left ,40.2077388995341 ,53.1626205871268 ,86.1035112058646
25.5463311 ,Left ,40.1682769846666 ,53.2367413089059 ,86.1190893367463
25.5694552 ,Left ,40.1465946403262 ,53.297513722587 ,86.0991341200842
25.5919366 ,Left ,40.161562304985 ,53.3508433058286 ,86.0851390869071
25.6063665 ,Left ,40.1342288059833 ,53.3803694933779 ,86.0689457081565
25.629355 ,Left ,40.1309519195904 ,53.3568970772078 ,86.0558053485614
25.6519927 ,Left ,40.1611633799464 ,53.3065733838672 ,86.0418233071025
25.666277 ,Left ,40.1730562558513 ,53.2103258317422 ,86.0239379385764
25.6894449 ,Left ,40.1445248449623 ,53.1331369906446 ,86.0151397750297
25.7119986 ,Left ,40.1317565161254 ,53.0866038629637 ,86.0335218433863
25.7263031 ,Left ,40.1685181176479 ,53.0641054920545 ,86.0094138669138
25.7494364 ,Left ,40.2327852588408 ,53.0840151596266 ,86.0026926480442
25.7719892 ,Left ,40.2789048266992 ,53.1045576435165 ,85.9941602191983
25.786299 ,Left ,40.2846413790126 ,53.1561617081299 ,86.0140927148446
25.8095416 ,Left ,40.2484066395709 ,53.2344520595421 ,86.023405872896
25.8319316 ,Left ,40.226803052272 ,53.3300502222318 ,86.0467019413244
25.8462611 ,Left ,40.2368085465674 ,53.4272243857949 ,86.0494713157534
25.8694798 ,Left ,40.2437392507234 ,53.5132248362317 ,86.0498454343398
25.89187 ,Left ,40.2101416580677 ,53.5389811788331 ,86.0209222126175
25.9129643 ,Left ,40.2025827007826 ,53.5242077355527 ,85.9871429381138
25.9294815 ,Left ,40.207707871046 ,53.4731055936378 ,85.9517220223877
25.9519444 ,Left ,40.1896297072138 ,53.4125766137225 ,85.9113055993789
25.9734238 ,Left ,40.1537949983212 ,53.3649906422967 ,85.8633553009411
25.9894404 ,Left ,40.1489378000026 ,53.3338680111098 ,85.8251341475154
26.0119158 ,Left ,40.1815429240952 ,53.3182979183153 ,85.8241910702119
26.0330354 ,Left ,40.1935355817671 ,53.3370575106207 ,85.8393015999438
26.049358 ,Left ,40.1924282757737 ,53.3538769812619 ,85.8520415350938
26.0718901 ,Left ,40.2487208782592 ,53.3544784441141 ,85.8544642322395
26.0930735 ,Left ,40.3030711855556 ,53.3685048230649 ,85.8671781251353
26.1093773 ,Left ,40.2710649605729 ,53.3995744214632 ,85.8990290631644
26.1321554 ,Left ,40.2361057694951 ,53.4208933170276 ,85.8822424888653
26.1529767 ,Left ,40.2428796653439 ,53.4363569763944 ,85.8513013264318
26.1694291 ,Left ,40.2678563317582 ,53.4466680746529 ,85.8392850671364
26.1918439 ,Left ,40.2758048336742 ,53.4851866808365 ,85.8577692862437
26.2129742 ,Left ,40.2263437864767 ,53.5199941776551 ,85.8636566530928
26.2294465 ,Left ,40.214429929482 ,53.5370010281196 ,85.8779960998492
26.2518925 ,Left ,40.3250618967821 ,53.5075438474224 ,85.8934822896725
26.2748747 ,Left ,40.4986594717925 ,53.4293410956002 ,85.9223388456098
26.2887169 ,Left ,40.5380456533531 ,53.3273226219292 ,85.9391166864911
26.3117235 ,Left ,40.4930619062232 ,53.2054823390355 ,85.9188988426407
26.3419327 ,Left ,40.5016758298208 ,53.1279860528175 ,85.9061282573225
26.3487781 ,Left ,40.5772149166715 ,53.0559050829963 ,85.9121629910284
26.3719304 ,Left ,40.6572730997864 ,52.9996916864204 ,85.9266496927766
26.3943662 ,Left ,40.6880631217499 ,52.9718662269827 ,85.9595528446951
26.4093658 ,Left ,40.6978817982598 ,52.9568155963732 ,85.9900259497407
26.4319168 ,Left ,40.7070420684306 ,52.9535461256512 ,86.014287768226
26.4544258 ,Left ,40.7056946077963 ,52.9903854915022 ,86.0178974728365
26.4687232 ,Left ,40.6949908047678 ,53.0837884616924 ,86.0180353443596
26.4919447 ,Left ,40.6848171001109 ,53.1783752638276 ,86.0037611538715
26.5143659 ,Left ,40.7571359332638 ,53.2413419272595 ,85.9986034848924
26.5286336 ,Left ,40.8303986913011 ,53.2422255893117 ,85.9992343479716
26.5518542 ,Left ,40.8245938172854 ,53.2209444708826 ,85.9975271301168
26.5744507 ,Left ,40.773424361572 ,53.1690558000183 ,85.9912125130746
26.5887667 ,Left ,40.7493133178908 ,53.1153420827106 ,85.984132244139
26.6117245 ,Left ,40.7732709359408 ,53.0891518020482 ,85.9736896785368
26.6341168 ,Left ,40.8183177674966 ,53.0581109135095 ,85.9695712062133
26.656848 ,Left ,40.8297261815909 ,53.0411347959501 ,85.9813477369626
26.6720085 ,Left ,40.8149821261453 ,53.0389640839744 ,85.9898370909846
26.6943347 ,Left ,40.8283469139734 ,53.037420114917 ,85.987099596094
26.709461 ,Left ,40.8550739783339 ,53.0436648896213 ,85.9914084371178
26.7319345 ,Left ,40.8867593400772 ,53.0601941853817 ,85.9915527186274
26.7544193 ,Left ,40.885467728428 ,53.0923584714881 ,85.9858143118413
26.7687099 ,Left ,40.8849882340955 ,53.1270172285144 ,85.9794288776351
26.7919124 ,Left ,40.8865308636422 ,53.1649139009371 ,85.973103605349
26.814476 ,Left ,40.9057002094512 ,53.1943609570029 ,85.9652406506084
26.8355255 ,Left ,40.8969330898432 ,53.2146280897536 ,85.9524435075827
26.8519165 ,Left ,40.8904852856093 ,53.2415561217484 ,85.9438425488843
26.8753194 ,Left ,40.873039796093 ,53.2538078521037 ,85.9328116219783
26.8955356 ,Left ,40.856142759707 ,53.2537535985605 ,85.9172915826979
26.9119584 ,Left ,40.8662951351509 ,53.2519456938167 ,85.900916695184
26.9344746 ,Left ,40.8850893085876 ,53.248478472211 ,85.8896933820001
26.9554671 ,Left ,40.8882250317196 ,53.248324562779 ,85.8834167442205
26.9718958 ,Left ,40.9029595240472 ,53.2552305680842 ,85.8752670179565
26.9943561 ,Left ,40.9237869842328 ,53.2808764461863 ,85.8669846078872
27.0154316 ,Left ,40.9390125237764 ,53.3135548498452 ,85.860287879847
27.0319351 ,Left ,40.9501213912709 ,53.3337523580881 ,85.8568595177197
27.0544351 ,Left ,40.959582213697 ,53.3481242831046 ,85.8514249315281
27.0756831 ,Left ,40.9613129660473 ,53.3531326777134 ,85.8406943022844
27.0926893 ,Left ,40.9613129660473 ,53.3531326777134 ,85.8406943022844
27.1144479 ,Left ,40.9651603976345 ,53.3508503387489 ,85.8336042427075
27.1354757 ,Left ,40.9762927494066 ,53.3520458235859 ,85.8272237548266
27.1519335 ,Left ,41.0138049366645 ,53.36768808712 ,85.8310695759957
27.1745283 ,Left ,41.0279200023767 ,53.4062966893901 ,85.8601573166876
27.1954715 ,Left ,41.0198267711452 ,53.4223408207712 ,85.8566878278684
27.2118843 ,Left ,41.0567686371077 ,53.4279860689191 ,85.8202676190693
27.234432 ,Left ,41.0476705854215 ,53.4199863053904 ,85.8040910251422
27.2569388 ,Left ,40.9922565176555 ,53.3970638763057 ,85.7943556793711
27.2719341 ,Left ,40.9575468971886 ,53.3846555852975 ,85.7800353748558
27.2944344 ,Left ,40.9704220953466 ,53.363414499919 ,85.7534556083624
27.3169493 ,Left ,41.0053393091573 ,53.3285624610092 ,85.7424781311949
27.3319561 ,Left ,41.0021007357659 ,53.3038263970283 ,85.7222937037559
27.3544323 ,Left ,40.9586951705226 ,53.2895275105295 ,85.7448735653442
27.3768139 ,Left ,40.9191083610925 ,53.2806553576176 ,85.7636486700298
27.3919342 ,Left ,40.8746335108083 ,53.2529655943875 ,85.7246826554849
27.4144884 ,Left ,40.8937971480245 ,53.2453904128321 ,85.7050372464209
27.4368898 ,Left ,40.9030192211167 ,53.2264212145466 ,85.6762286229697
27.4513146 ,Left ,40.919865290886 ,53.2215232137371 ,85.6622038948034
27.4744878 ,Left ,40.8966640411559 ,53.225418491911 ,85.6655144631505
27.4970292 ,Left ,40.8388627638413 ,53.2467521854824 ,85.6552671011545
27.5111873 ,Left ,40.8362346307669 ,53.3110829586202 ,85.6601680067834
27.5344475 ,Left ,40.8513229471347 ,53.3578057371882 ,85.6538954707736
27.5569649 ,Left ,40.9093999539726 ,53.3812530882359 ,85.6686464623687
27.5780103 ,Left ,40.9300544998043 ,53.3825564220981 ,85.6540935097579
27.5943791 ,Left ,40.9201749546111 ,53.3850650164314 ,85.6547713397398
27.6169334 ,Left ,40.8564250441729 ,53.3546155928768 ,85.6315752795277
27.6312771 ,Left ,40.8279829369865 ,53.3341048942715 ,85.5925236634978
27.6544487 ,Left ,40.814737070285 ,53.3214614229875 ,85.5664097741414
27.6768867 ,Left ,40.7916808668806 ,53.2923083887772 ,85.5570107152562
27.6912784 ,Left ,40.7705414711227 ,53.3078654765527 ,85.5480019672181
27.7279452 ,Left ,40.735309320225 ,53.3379233748859 ,85.5492638129252
27.7369238 ,Left ,40.7792706860257 ,53.3548874658841 ,85.5540487173282
27.7579848 ,Left ,40.8430927619891 ,53.3630529718287 ,85.5419174422084
27.7744185 ,Left ,40.905065843556 ,53.3443284391064 ,85.5267025555017
27.7969478 ,Left ,40.8889859142407 ,53.341521995808 ,85.5363426092993
27.8179834 ,Left ,40.8542542264959 ,53.344480725046 ,85.5575589421531
27.8344318 ,Left ,40.8545117715956 ,53.3207998637612 ,85.5451282593001
27.8569004 ,Left ,40.8779571138908 ,53.3072639029804 ,85.5487237716678
27.8855172 ,Left ,40.8973929314674 ,53.2955845812626 ,85.5301114797389
27.8943511 ,Left ,40.876716031116 ,53.3326636039653 ,85.5421161447454
27.9168319 ,Left ,40.7880798234274 ,53.3933869701168 ,85.5349736859723
27.9397702 ,Left ,40.750461794912 ,53.4942012392658 ,85.5467561667038
27.9536434 ,Left ,40.7634530866612 ,53.5847135673565 ,85.5524857445098
27.976682 ,Left ,40.7728627281898 ,53.6437238739 ,85.5775249758178
27.9977474 ,Left ,40.7443153357995 ,53.6994478341489 ,85.5759455802911
28.0144288 ,Left ,40.6956193133488 ,53.7087609002092 ,85.5452821276561
28.0369115 ,Left ,40.6524876150333 ,53.6811653335625 ,85.4866727240699
28.0581758 ,Left ,40.6841629468603 ,53.6213060569964 ,85.4383253698844
28.0744408 ,Left ,40.6951898858973 ,53.5639282247929 ,85.3826348065736
28.0968843 ,Left ,40.6757321468452 ,53.5279952537576 ,85.3494621090595
28.1179665 ,Left ,40.662751379568 ,53.4999417937792 ,85.3267986583578
28.1344307 ,Left ,40.6544255515038 ,53.4747047567324 ,85.3064924417769
28.1643967 ,Left ,40.6643685203393 ,53.4596857351218 ,85.320413857323
28.1854644 ,Left ,40.6850173779565 ,53.436386961802 ,85.3548042413592
28.2019347 ,Left ,40.7147454827444 ,53.4220247609853 ,85.380207782315
28.2169349 ,Left ,40.7357453931748 ,53.4218139338489 ,85.3952550755337
28.2394291 ,Left ,40.7650645719851 ,53.4200292707614 ,85.3979845576312
28.2619626 ,Left ,40.763933241708 ,53.4217548246806 ,85.3977312545897
28.2769862 ,Left ,40.7380507911333 ,53.453459293175 ,85.3973207015527
28.3054331 ,Left ,40.6998680685612 ,53.483845910862 ,85.3869627597344
28.3144539 ,Left ,40.6700393193031 ,53.5185528476689 ,85.3686990593239
28.337158 ,Left ,40.6588878086176 ,53.5413424063121 ,85.3696591696501
28.3594196 ,Left ,40.6264058790993 ,53.565939662413 ,85.4080374648044
28.373755 ,Left ,40.6003692584876 ,53.5844223321533 ,85.4376939633025
28.3969321 ,Left ,40.6145808622318 ,53.59592571382 ,85.456955118537
28.4194797 ,Left ,40.6635962470963 ,53.602794077251 ,85.4766861421917
28.4337582 ,Left ,40.6211220682856 ,53.6064372747377 ,85.4774096151524
28.4569262 ,Left ,40.5762613132095 ,53.610936564709 ,85.4676877270641
28.4794799 ,Left ,40.6237581664066 ,53.590075603355 ,85.4536313459298
28.4938036 ,Left ,40.7109455273652 ,53.5281046523585 ,85.4322045443746
28.5168773 ,Left ,40.7318986968371 ,53.4278788865726 ,85.399087088825
28.5395124 ,Left ,40.675156203078 ,53.3241272335824 ,85.4049066299627
28.5619667 ,Left ,40.6685379105 ,53.2637324154987 ,85.4430057975676
28.5829576 ,Left ,40.7395003626123 ,53.210342776447 ,85.4835362875402
28.5994197 ,Left ,40.8338764758297 ,53.197339283074 ,85.512999322102
28.6204256 ,Left ,40.8772645909336 ,53.1886055045393 ,85.5352005175845
28.6369287 ,Left ,40.9020647047109 ,53.1847262215219 ,85.5563419876641
28.6593618 ,Left ,40.9146769732624 ,53.1901804555485 ,85.5547143238632
28.673694 ,Left ,40.8985864978639 ,53.2418646403514 ,85.5523278589035
28.6970955 ,Left ,40.880322337823 ,53.3046499493874 ,85.5337580825842
28.719533 ,Left ,40.8779272283772 ,53.3271277018888 ,85.5267368860074
28.7411704 ,Left ,40.8926555147431 ,53.2906696792355 ,85.5470219736431
28.7427024 ,Left ,40.8617543171793 ,53.2229477554407 ,85.5635242773223
28.7622433 ,Left ,40.8307626610656 ,53.158266993906 ,85.5738326330755
28.7848437 ,Left ,40.84900956205 ,53.1242474447636 ,85.5967062827253
28.8027594 ,Left ,40.8991778161033 ,53.0986762265132 ,85.6216851151734
28.8224533 ,Left ,40.9301418019123 ,53.0801518348728 ,85.6370321018107
28.8523856 ,Left ,40.9418073545604 ,53.0838795758179 ,85.6487167931578
28.8627832 ,Left ,40.9420424206657 ,53.1041099348681 ,85.655911666502
28.8823253 ,Left ,40.9442347063244 ,53.1332005920101 ,85.639855916085
28.9049502 ,Left ,40.9515641780209 ,53.1527509881577 ,85.6309905187062
28.9226444 ,Left ,40.9419900917179 ,53.151845478753 ,85.6359355332098
28.9423318 ,Left ,40.9454958921563 ,53.1470631527161 ,85.6471800592116
28.9648285 ,Left ,40.9666962632284 ,53.1554857207935 ,85.6602262501391
28.9813231 ,Left ,40.9907859638319 ,53.1743173174596 ,85.6729258172687
29.0023146 ,Left ,41.0263467703051 ,53.1931753214564 ,85.6737634823249
29.0247732 ,Left ,41.0621763708452 ,53.2086218184427 ,85.6788844344481
29.0427043 ,Left ,41.0663248239268 ,53.2228394128466 ,85.6728987667512
29.0624043 ,Left ,41.0304185121024 ,53.2399900577446 ,85.6513487267829
29.0847467 ,Left ,41.0267117717499 ,53.2520910124721 ,85.6233830113299
29.1012749 ,Left ,41.0411302298533 ,53.2596872017194 ,85.5988268480108
29.1222433 ,Left ,41.0332144350564 ,53.2583422760172 ,85.5895530739293
29.1448288 ,Left ,41.0259144031538 ,53.2493428410549 ,85.5853738877657
29.1627221 ,Left ,41.0670128619348 ,53.2292454442418 ,85.5846659314964
29.1824025 ,Left ,41.118804861049 ,53.2193111586051 ,85.5863214059619
29.2047957 ,Left ,41.1441282457089 ,53.2305000313982 ,85.6031643769709
29.2227673 ,Left ,41.188288049472 ,53.2624864911009 ,85.6227910439993
29.2424373 ,Left ,41.1998714931131 ,53.278970865524 ,85.621508651502
29.2647732 ,Left ,41.2659543364672 ,53.3181012036265 ,85.6092414453675
29.2872864 ,Left ,41.2036375276481 ,53.3541557635398 ,85.6124273349566
29.3023024 ,Left ,41.1126751266284 ,53.3858325694596 ,85.6140253637021
29.3278599 ,Left ,41.0870185631189 ,53.3927616535092 ,85.6061501673424
29.3427486 ,Left ,41.1391927330345 ,53.3739723587754 ,85.5993127495144
29.3622719 ,Left ,41.1854615772049 ,53.3494535895674 ,85.5991155668431
29.384837 ,Left ,41.1823599593108 ,53.3403024316243 ,85.5955015945237
29.4027596 ,Left ,41.1114866939732 ,53.3490827927684 ,85.6159892405506
29.4222831 ,Left ,41.0401581224804 ,53.3328729645409 ,85.5903337203693
29.444969 ,Left ,41.0321026508439 ,53.3237021375426 ,85.5392754696646
29.4626245 ,Left ,41.0066945028623 ,53.3115926977437 ,85.5191403226659
29.4823619 ,Left ,40.9437495427706 ,53.3163682457989 ,85.5081406237298
29.5047975 ,Left ,40.8820313023857 ,53.3506495370114 ,85.5116647417081
29.5226103 ,Left ,40.8715455782301 ,53.3848397380416 ,85.5207449122255
29.5427695 ,Left ,40.9182311537571 ,53.3814530024338 ,85.5404917507634
29.5648267 ,Left ,40.9966297888571 ,53.3570208910263 ,85.5551290145206
29.5828353 ,Left ,41.0117404768722 ,53.3301828408555 ,85.5767315598494
29.6022856 ,Left ,40.996212007047 ,53.301154639737 ,85.5813205967588
29.6248021 ,Left ,40.9815777541858 ,53.2793213288779 ,85.5761000594136
29.6426742 ,Left ,40.9952585020194 ,53.2882551158158 ,85.5396731183926
29.6623021 ,Left ,40.938091725687 ,53.3858311136853 ,85.5301183739742
29.6848078 ,Left ,40.8568552816774 ,53.5617692075264 ,85.5559173673329
29.7027419 ,Left ,40.7608014781467 ,53.7635806477537 ,85.5614547896989
29.7222915 ,Left ,40.7441445880218 ,53.9758731273791 ,85.5717405704504
29.7448587 ,Left ,40.8463765462369 ,54.081954342586 ,85.5677142669354
29.7627354 ,Left ,40.9400095158047 ,54.0793167618744 ,85.5613269510747
29.7837812 ,Left ,40.9065257167336 ,54.0070949212252 ,85.5555167369302
29.8047944 ,Left ,40.7862730747284 ,53.8815769966849 ,85.5135746198183
29.8227418 ,Left ,40.7444056173922 ,53.750161313952 ,85.45285023526
29.8438074 ,Left ,40.7581563351907 ,53.6970767858267 ,85.4273771247844
29.8648606 ,Left ,40.7825436036223 ,53.6508775742111 ,85.4004954243424
29.8827161 ,Left ,40.7777364083113 ,53.6244259735482 ,85.4244143826569
29.9037912 ,Left ,40.7705255274547 ,53.5654398076419 ,85.4334018226941
29.9249523 ,Left ,40.8460850587809 ,53.5371097112738 ,85.4471722540269
29.9427218 ,Left ,40.9271848569759 ,53.5242082217422 ,85.4664337682412
29.9637122 ,Left ,40.9363377391441 ,53.5238591384939 ,85.4854078257677
29.9848054 ,Left ,40.9287213060836 ,53.5283582146564 ,85.4806412575057
30.002661 ,Left ,40.9447694490323 ,53.5477722962079 ,85.4535160745526
30.0237124 ,Left ,40.9340966962956 ,53.5680586728717 ,85.4339893371346
30.0448094 ,Left ,40.8647190448441 ,53.5737294677246 ,85.4101213467004
30.0627446 ,Left ,40.8273521893917 ,53.5575879352925 ,85.4061538340252
30.0836771 ,Left ,40.8270049280416 ,53.5398577245303 ,85.4382341530928
30.1048247 ,Left ,40.7865614719542 ,53.523089873032 ,85.4654422196061
30.1225453 ,Left ,40.7755540816413 ,53.5506667594698 ,85.5042652236894
30.145245 ,Left ,40.7787136208076 ,53.5903509245209 ,85.509381642894
30.1648493 ,Left ,40.8070205211696 ,53.6324830057454 ,85.4957962927633
30.1826843 ,Left ,40.7845598729686 ,53.6629668200489 ,85.5118643557975
30.2055683 ,Left ,40.7104237033571 ,53.7021249600742 ,85.519029709852
30.224932 ,Left ,40.6644839256774 ,53.7687082749155 ,85.5275806814025
30.2471989 ,Left ,40.659657678694 ,53.8230334812353 ,85.5128311989306
30.2652221 ,Left ,40.6638074275092 ,53.8258031587221 ,85.5070511485356
30.2848421 ,Left ,40.6742136524196 ,53.7816977639402 ,85.4964579383838
30.3026301 ,Left ,40.6765980114335 ,53.714204855141 ,85.4907864802276
30.3251291 ,Left ,40.6387117036989 ,53.6672471800252 ,85.4842667793813
30.346253 ,Left ,40.5992551980708 ,53.6441164184942 ,85.4834824369076
30.3625959 ,Left ,40.5843307536517 ,53.6162922367756 ,85.4832210341644
30.3852259 ,Left ,40.5950598023407 ,53.5623750828453 ,85.4609569807561
30.4047802 ,Left ,40.59277215393 ,53.5259650895813 ,85.4493886415188
30.4227441 ,Left ,40.5498450555094 ,53.5461401171631 ,85.452509206321
30.4451886 ,Left ,40.510686969374 ,53.5930474994667 ,85.4715245591067
30.464762 ,Left ,40.5118212993861 ,53.6171457799634 ,85.4729947758857
30.4832814 ,Left ,40.5532791798009 ,53.6067586602475 ,85.4749609647013
30.5052108 ,Left ,40.5720698845164 ,53.6003775941908 ,85.4977544567771
30.5248146 ,Left ,40.5199668107008 ,53.6362676593649 ,85.5421777120116
30.5426967 ,Left ,40.4823958584124 ,53.6986924479272 ,85.5730282578111
30.5652143 ,Left ,40.4184789768064 ,53.7481507641672 ,85.5637758568137
30.5848104 ,Left ,40.417698917642 ,53.7754277204522 ,85.5719546477307
30.6018724 ,Left ,40.4616051048612 ,53.7379505433101 ,85.5643286323551
30.6243958 ,Left ,40.5584360618436 ,53.6597665916916 ,85.5830775394038
30.6454223 ,Left ,40.6200015753523 ,53.5109741633658 ,85.5957213235156
30.6619484 ,Left ,40.5926871174392 ,53.4036375102962 ,85.6223422631764
30.6843843 ,Left ,40.6094834100153 ,53.339693445052 ,85.6843915002687
30.7054141 ,Left ,40.6822341872608 ,53.3025005644472 ,85.7056330482942
30.721822 ,Left ,40.7951479636573 ,53.3023662980811 ,85.7098594700722
30.7448229 ,Left ,40.793719631778 ,53.2745025687873 ,85.7020599658116
30.7654292 ,Left ,40.7778446232931 ,53.2299618990293 ,85.6999577341625
30.7818148 ,Left ,40.7321728943433 ,53.2184139590783 ,85.7097503727701
30.8043421 ,Left ,40.7056642211989 ,53.2745794892096 ,85.7253995880141
30.8255701 ,Left ,40.7002500753195 ,53.3483102851545 ,85.7177993460131
30.8419069 ,Left ,40.7633348213277 ,53.3819440561125 ,85.7186660187452
30.8643998 ,Left ,40.8655175550091 ,53.3391587824533 ,85.7375876704922
30.8854532 ,Left ,40.8345967261378 ,53.2673924282018 ,85.7455479002584
30.9018679 ,Left ,40.760741909727 ,53.230065045821 ,85.749407194105
30.9244166 ,Left ,40.7478766916122 ,53.2005629056121 ,85.7376558760807
30.9455384 ,Left ,40.8189799713378 ,53.1755004905135 ,85.7185821805246
30.9620918 ,Left ,40.8543985246843 ,53.167206313606 ,85.7121399673877
30.9843749 ,Left ,40.83960995854 ,53.1784070826708 ,85.7198528319219
31.0054717 ,Left ,40.8153611479779 ,53.1930600018724 ,85.7493394877187
31.0219448 ,Left ,40.8226392868094 ,53.2075452556418 ,85.7662904822344
31.044452 ,Left ,40.8695934078401 ,53.2050823489119 ,85.7807185851591
31.0669157 ,Left ,40.9026362931934 ,53.2108293331162 ,85.7893636799731
31.0819396 ,Left ,40.898216030438 ,53.2215779288256 ,85.7946121594828
31.1044393 ,Left ,40.8860362527561 ,53.240293847942 ,85.7909373420296
31.1268688 ,Left ,40.8836450962525 ,53.2518036450968 ,85.7863559749923
31.1419225 ,Left ,40.8837364787834 ,53.2669856976401 ,85.7735130570854
31.1644197 ,Left ,40.8879118314804 ,53.2803096127269 ,85.7641195191803
31.1868353 ,Left ,40.8910923712992 ,53.2848230760942 ,85.7580344299107
31.2013178 ,Left ,40.8940989020901 ,53.2838578731355 ,85.757905633777
31.2244006 ,Left ,40.9298028790043 ,53.2577811807177 ,85.7624897336567
31.2468492 ,Left ,40.9941836404003 ,53.2321841859453 ,85.7717136124333
31.2611801 ,Left ,41.03909197196 ,53.2180169285987 ,85.7703229223799
31.2843819 ,Left ,41.0532101055326 ,53.2199340719863 ,85.7704230904049
31.30681 ,Left ,41.0771606990872 ,53.2168671252573 ,85.7599021825921
31.3212019 ,Left ,41.1016137137609 ,53.2129598093671 ,85.744678965293
31.3444592 ,Left ,41.1027742541051 ,53.215872030748 ,85.7451269949672
31.3669685 ,Left ,41.0689417885369 ,53.2387976715997 ,85.752706748137
31.3812824 ,Left ,41.0800285307542 ,53.2544536901971 ,85.7397279140529
31.404402 ,Left ,41.1081861518683 ,53.2368294514487 ,85.736492409823
31.4268386 ,Left ,41.1839801871007 ,53.2201490545238 ,85.7412889468103
31.4413157 ,Left ,41.1314988607579 ,53.222423112377 ,85.7273381226234
31.4643782 ,Left ,41.0930404039096 ,53.257308376643 ,85.7363065562594
31.4869452 ,Left ,41.1137099562699 ,53.2785451752546 ,85.7186933906568
31.5012841 ,Left ,41.1137750856768 ,53.2831915546569 ,85.7188942070903
31.5244474 ,Left ,41.0895919247374 ,53.2850390884258 ,85.715532141444
31.5468508 ,Left ,41.0135173469132 ,53.267919558106 ,85.7038769797125
31.567985 ,Left ,40.9610687163613 ,53.2253197093621 ,85.6843623031135
31.5904542 ,Left ,40.9470476536074 ,53.1858136017025 ,85.6619173983935
31.6068925 ,Left ,40.8883805784161 ,53.1708528276707 ,85.6551512270545
31.6280043 ,Left ,40.83699693197 ,53.1450568457114 ,85.6558925029809
31.6442695 ,Left ,40.844955506443 ,53.1219453896225 ,85.6588648760399
31.6669051 ,Left ,40.8863671326077 ,53.0983156924379 ,85.6621786079121
31.6880486 ,Left ,40.8930273372218 ,53.0853928828229 ,85.6806737912667
31.7043279 ,Left ,40.8162814141903 ,53.1151360894592 ,85.6841939956199
31.726919 ,Left ,40.7692182843996 ,53.1933887780915 ,85.6527562422287
31.7479472 ,Left ,40.7542412354449 ,53.2623788195741 ,85.643854589869
31.764356 ,Left ,40.7566011536649 ,53.3028596190869 ,85.6450980590701
31.7869143 ,Left ,40.7350949506851 ,53.314001946499 ,85.6736331448093
31.8080091 ,Left ,40.8007298338226 ,53.316053971178 ,85.7083974950605
31.8244431 ,Left ,40.8650292253497 ,53.3142514927899 ,85.7489824219879
31.8469178 ,Left ,40.8392355451221 ,53.3049108559435 ,85.7863143754598
31.8679162 ,Left ,40.8030595392271 ,53.2948380684938 ,85.8298294017885
31.8842127 ,Left ,40.7835325626573 ,53.2627425295129 ,85.8194607509846
31.90693 ,Left ,40.7844615831584 ,53.222840018112 ,85.7868570291271
31.9280035 ,Left ,40.7665900689384 ,53.2007044973093 ,85.7587808646336
31.9445475 ,Left ,40.7051267836536 ,53.2203167074229 ,85.7567111093842
31.9669052 ,Left ,40.6463505537771 ,53.2685232425914 ,85.7536133676788
31.9894231 ,Left ,40.6314462356592 ,53.3279936938026 ,85.7609921243033
32.0044359 ,Left ,40.7101485602631 ,53.3464207005234 ,85.7559167157039
32.0269785 ,Left ,40.7994085145874 ,53.3252053179915 ,85.7656709106916
32.0494157 ,Left ,40.7587155838637 ,53.3198840174685 ,85.7815338194619
32.0644256 ,Left ,40.6783548155554 ,53.3297918954036 ,85.7744713570064
32.0869492 ,Left ,40.6655128720388 ,53.3025553374376 ,85.7268089899887
32.1094268 ,Left ,40.7335085340601 ,53.2787426351577 ,85.7007391516576
32.1244042 ,Left ,40.7579395207114 ,53.2257375991429 ,85.7011727473968
32.1473796 ,Left ,40.7051535631302 ,53.2059474435967 ,85.6914341219391
32.1698708 ,Left ,40.6849954001086 ,53.20975358702 ,85.6885950814847
32.1837307 ,Left ,40.725352437732 ,53.2249176802148 ,85.6844530879657
32.2068267 ,Left ,40.7922445962782 ,53.2318195308675 ,85.681121809538
32.229321 ,Left ,40.8198916084795 ,53.2311313883217 ,85.6918311160255
32.2437833 ,Left ,40.8216203559068 ,53.2276261210622 ,85.6746707208117
32.2669459 ,Left ,40.8072076255061 ,53.2390700977596 ,85.6186982079026
32.2894401 ,Left ,40.7582505625274 ,53.2839218400166 ,85.5761068128611
32.3036626 ,Left ,40.7068883861333 ,53.3711569119309 ,85.5594928964292
32.3269138 ,Left ,40.6599058867164 ,53.4513211154653 ,85.5792941141336
32.3493576 ,Left ,40.6490813231825 ,53.529148566645 ,85.63294887658
32.363774 ,Left ,40.6564925448532 ,53.5663537783819 ,85.6663856851599
32.3867912 ,Left ,40.6897945235156 ,53.5282755576232 ,85.6837656632999
32.4111918 ,Left ,40.7365215431997 ,53.4573848944323 ,85.6923694821657
32.423714 ,Left ,40.7258168948594 ,53.3850866101958 ,85.6896911387126
32.446764 ,Left ,40.6875471133586 ,53.343300517142 ,85.6484567029391
32.4694175 ,Left ,40.6735382769476 ,53.3233518320928 ,85.6134994920473
32.490474 ,Left ,40.6695526646413 ,53.3250541622059 ,85.5912419360641
32.5068346 ,Left ,40.6541225682915 ,53.3053540234875 ,85.5871369632107
32.5293647 ,Left ,40.6378709465409 ,53.2933880784206 ,85.5967078093361
32.5504956 ,Left ,40.6026335247063 ,53.3046551602388 ,85.6140955286724
32.5668563 ,Left ,40.6056248533664 ,53.3241997195459 ,85.6398986786395
32.5893665 ,Left ,40.6390294227528 ,53.355094584792 ,85.6556906202688
32.6106898 ,Left ,40.6756804174056 ,53.4031857482451 ,85.6790280369681
32.6270209 ,Left ,40.6570685622477 ,53.4606959812505 ,85.6851037837479
32.6494036 ,Left ,40.607684710735 ,53.4990625830445 ,85.6710038556843
32.6780584 ,Left ,40.527700464283 ,53.50269444 ,85.6566599661785
32.6868793 ,Left ,40.5035451192929 ,53.4946488320793 ,85.6414983176631
32.7095035 ,Left ,40.5484708498252 ,53.4458079711976 ,85.6408966167068
32.7304666 ,Left ,40.6367577845803 ,53.3530390643044 ,85.6517169773895
32.7469368 ,Left ,40.6925416084056 ,53.2133765432523 ,85.6442986680245
32.7694019 ,Left ,40.6740801288805 ,53.0553384140097 ,85.6349412591782
32.7904359 ,Left ,40.6741768608154 ,52.9739676089642 ,85.639855610907
32.8068987 ,Left ,40.721842875191 ,52.9256210313855 ,85.6338659249407
32.8293421 ,Left ,40.7872207303534 ,52.909928953966 ,85.6423395252194
32.8504412 ,Left ,40.821655815406 ,52.90268109662 ,85.6591484756911
32.8669285 ,Left ,40.7928801331293 ,52.9127352417581 ,85.6609181928545
32.8893793 ,Left ,40.7990534782107 ,52.9239063118874 ,85.6844307577368
32.9105741 ,Left ,40.7872168530489 ,52.9594421955993 ,85.7013733678
32.9267745 ,Left ,40.8018791591971 ,52.9947013753552 ,85.705370615718
32.9494741 ,Left ,40.8900423691249 ,53.0158885962893 ,85.7284285858151
32.9718507 ,Left ,40.9560875901294 ,53.0012641670045 ,85.7498669993898
32.986901 ,Left ,40.8974532069617 ,52.9923758038946 ,85.7668479976698
33.0093996 ,Left ,40.822982617382 ,52.9580838201286 ,85.7660973025404
33.0318416 ,Left ,40.8168736041717 ,52.9385471213073 ,85.7632552942387
33.0469111 ,Left ,40.8488356431881 ,52.9240564705899 ,85.7655679879017
33.0694091 ,Left ,40.8639337324274 ,52.9322514346174 ,85.7615919445208
33.0918772 ,Left ,40.8586352664391 ,52.9531661957069 ,85.7634838790588
33.1064139 ,Left ,40.8575550634463 ,52.9548905532253 ,85.7632167485583
33.1293501 ,Left ,40.8587632364904 ,52.9641091984514 ,85.7703203445355
33.151906 ,Left ,40.8732511724044 ,52.9664173352623 ,85.7712914935777
33.1661229 ,Left ,40.8954648313464 ,52.9764487143525 ,85.7707603335686
33.1893757 ,Left ,40.9125024087749 ,52.9917132463471 ,85.7731618717494
33.2118858 ,Left ,40.9210250892914 ,53.0132733880792 ,85.7706650972778
33.2274596 ,Left ,40.9216783249143 ,53.0427980447718 ,85.7687172129475
33.2491739 ,Left ,30.6788726449488 ,39.804163620751126 ,64.32769402562235
33.2719466 ,Left ,20.44759595045685 ,26.5445556588308 ,42.88684835647145
33.2862712 ,Left ,10.22131300850035 ,13.271753623950875 ,21.44357999956405
36.3004533 ,Left ,41.0203951493114 ,53.1738969202723 ,86.3471379671233
36.3168629 ,Left ,41.013134794748 ,53.1954477448676 ,86.3827832309536
36.3394016 ,Left ,41.036543845493 ,53.2316312716982 ,86.4150757547469
36.3605014 ,Left ,41.0524732781228 ,53.2767466177247 ,86.4419092144531
36.3769041 ,Left ,41.0586678661453 ,53.3177849825091 ,86.4599487052063
36.3994254 ,Left ,41.0517477011792 ,53.3647901661876 ,86.460652757011
36.4204682 ,Left ,41.0181235012597 ,53.4097590819098 ,86.4534824232058
36.436911 ,Left ,40.9928922355852 ,53.4405716866218 ,86.4382561528147
36.4593958 ,Left ,41.0053438473076 ,53.441428085671 ,86.4291223395716
36.4804592 ,Left ,41.0294804872538 ,53.4200039041975 ,86.419820501958
36.4969461 ,Left ,41.0267452711157 ,53.4032345282197 ,86.4116447324327
36.5206518 ,Left ,41.015205542507 ,53.3929152523229 ,86.3804073912793
36.5404514 ,Left ,41.0090365978501 ,53.3932626100651 ,86.3463217377847
36.5568234 ,Left ,41.043849768657 ,53.3775769713111 ,86.3318468136106
36.5791317 ,Left ,41.0742270666289 ,53.3664500228315 ,86.3159084547555
36.6004394 ,Left ,41.0826469725265 ,53.3634301447503 ,86.3071367511879
36.61685 ,Left ,41.0675693542289 ,53.3635230435842 ,86.2972397527773
36.6393795 ,Left ,41.0800329734406 ,53.3602184149343 ,86.2985873922289
36.6604419 ,Left ,41.0819537361863 ,53.3609580597621 ,86.2982292458238
36.6769066 ,Left ,41.1065654951474 ,53.3472116187556 ,86.3002760243078
36.6993657 ,Left ,41.1138380552961 ,53.3315963226688 ,86.2883304935946
36.7218631 ,Left ,41.1168376708215 ,53.3546594902353 ,86.2938215693914
36.7368172 ,Left ,41.111774379713 ,53.380321213788 ,86.3059217492468
36.7594328 ,Left ,41.1644499861817 ,53.3976280771765 ,86.2826911795804
36.7819098 ,Left ,41.1480576808394 ,53.3817656120681 ,86.2557227011709
36.7968835 ,Left ,41.1377458301032 ,53.3528255243134 ,86.2294373799387
36.8193649 ,Left ,41.0365657399343 ,53.3319826709232 ,86.2325324331653
36.8419161 ,Left ,41.0031376549622 ,53.3254374463544 ,86.219083860341
36.8562454 ,Left ,41.0401824950302 ,53.2983557455984 ,86.2091749471499
36.8868817 ,Left ,41.0786519820515 ,53.2843376260555 ,86.2035239718885
36.9019019 ,Left ,41.1011604735597 ,53.2903300679263 ,86.1875624419738
36.9162869 ,Left ,41.0695632170336 ,53.297649797912 ,86.1626727603202
36.9393111 ,Left ,41.0456006749537 ,53.2947680340748 ,86.1569152953742
36.9619387 ,Left ,41.0006498958003 ,53.285423138787 ,86.1254290083313
36.9762886 ,Left ,40.9901979753964 ,53.2923127506391 ,86.1073341937605
36.9993919 ,Left ,40.9772342625388 ,53.2613326332529 ,86.0789508468724
37.0218686 ,Left ,40.981003173939 ,53.2129441955066 ,86.0698477282038
37.0362539 ,Left ,40.9457040959908 ,53.1771994274694 ,86.071608839076
37.0594245 ,Left ,40.9013707764027 ,53.1466091593426 ,86.073640493247
37.0819288 ,Left ,40.9027686674384 ,53.1604802290036 ,86.0810481774132
37.0962373 ,Left ,40.946719653932 ,53.1936443459853 ,86.0810098227776
37.1194671 ,Left ,40.9005998982302 ,53.2359014172249 ,86.1041885239547
37.1419172 ,Left ,40.8709374083664 ,53.2768149396031 ,86.1015853452737
37.1643392 ,Left ,40.9023410737933 ,53.3144018996715 ,86.0869013555238
37.179728 ,Left ,40.9555252156382 ,53.3495855150998 ,86.0877515870124
37.2018403 ,Left ,40.9213676320983 ,53.3493289395546 ,86.1017621500565
37.222937 ,Left ,40.8452774618824 ,53.3166874910111 ,86.1057413888552
37.2393863 ,Left ,40.8541754041565 ,53.2963577586291 ,86.1090710042285
37.261769 ,Left ,40.9076537704484 ,53.2752740780804 ,86.1125367116266
37.2829599 ,Left ,40.8957337919285 ,53.2459434257266 ,86.134690315134
37.2993616 ,Left ,40.8531608419908 ,53.2386014042826 ,86.1349760763233
37.3218631 ,Left ,40.827822969863 ,53.2281355456341 ,86.1287762768939
37.342947 ,Left ,40.8366468117003 ,53.2677964962037 ,86.1260096660369
37.3593915 ,Left ,40.8452770323046 ,53.307510397293 ,86.1328140704626
37.3818625 ,Left ,40.8671996718812 ,53.3406288107033 ,86.1536925953157
37.4029676 ,Left ,40.8963643113143 ,53.3572529970164 ,86.1690311008692
37.4193976 ,Left ,40.9067520584927 ,53.3753387600067 ,86.1959157251462
37.4418588 ,Left ,40.8879854633088 ,53.3878612189489 ,86.1969780039629
37.4629555 ,Left ,40.896857223159 ,53.3827140028365 ,86.2064011624799
37.4793364 ,Left ,40.9272275941863 ,53.3530502203003 ,86.207603943508
37.5018663 ,Left ,40.9397080907061 ,53.3171886626691 ,86.1968661347735
37.5230155 ,Left ,40.9298108510972 ,53.3058766906568 ,86.1779618953706
37.5393859 ,Left ,40.8987243357738 ,53.3045975985288 ,86.1454656728879
37.5620789 ,Left ,40.8608494325598 ,53.2977341332317 ,86.1210077752913
37.5829498 ,Left ,40.8688869307071 ,53.3395834812527 ,86.1192239260097
37.5994182 ,Left ,40.8600606759801 ,53.4023909547258 ,86.1579868667674
37.6219032 ,Left ,40.8555657977871 ,53.4989267413368 ,86.1965361284042
37.6427128 ,Left ,40.8393843563263 ,53.5659091358998 ,86.1915775262139
37.6593898 ,Left ,40.8941962292276 ,53.5708147110962 ,86.188522048696
37.6819206 ,Left ,40.9359065303394 ,53.5344928522924 ,86.1704811773967
37.7043813 ,Left ,40.9070300877121 ,53.5089152004835 ,86.1364693979224
37.7192718 ,Left ,40.8541495653444 ,53.4715048872263 ,86.1069883042171
37.7418624 ,Left ,40.8244729325431 ,53.4201429956084 ,86.0908435084144
37.7643976 ,Left ,40.8385822755476 ,53.3652701939768 ,86.1020781188955
37.7795645 ,Left ,40.8607942096827 ,53.3294969602306 ,86.1296390059157
37.8018375 ,Left ,40.8874005391777 ,53.3268115639946 ,86.154023229917
37.8243774 ,Left ,40.9263038824461 ,53.3496359572769 ,86.1679118161294
37.8387334 ,Left ,40.9287093592074 ,53.3985888059706 ,86.1773689292342
37.8618629 ,Left ,40.8740585948963 ,53.4608119558381 ,86.1390213857919
37.8843637 ,Left ,40.7780513369091 ,53.5274088801451 ,86.0533719594511
37.8987113 ,Left ,40.6979416485121 ,53.5774357293735 ,85.9560317146745
37.9218887 ,Left ,40.5960299585451 ,53.6248302146786 ,85.8690016635257
37.9444663 ,Left ,40.4860874744158 ,53.669721566578 ,85.7872000545683
37.9655155 ,Left ,40.403640500926 ,53.709176125289 ,85.7351652996474
37.9818044 ,Left ,40.372492099284 ,53.7250645931102 ,85.6902051630894
38.004301 ,Left ,40.387071166548 ,53.7028612523809 ,85.6683999341332
38.0253749 ,Left ,40.3942785624866 ,53.6668311168021 ,85.686387751346
38.0418624 ,Left ,40.3518037200482 ,53.6601029635949 ,85.7255545118408
38.0644138 ,Left ,40.3915317862792 ,53.6758351442095 ,85.7347701587728
38.0786563 ,Left ,40.4816263609944 ,53.6808093654172 ,85.7483397158855
38.1018669 ,Left ,40.5970712675675 ,53.6110530302664 ,85.7766296499505
38.1244156 ,Left ,40.6231558529654 ,53.4787873634375 ,85.7897848703852
38.1454011 ,Left ,40.601016554167 ,53.3344164561732 ,85.8395726180698
38.1620161 ,Left ,40.6131626724241 ,53.2920617016613 ,85.9653550604426
38.1843875 ,Left ,40.6978714336398 ,53.2647191651973 ,86.0502749280618
38.2054299 ,Left ,40.7968693749179 ,53.2322301916883 ,86.0999466176051
38.2219283 ,Left ,40.8525102007247 ,53.1820958570793 ,86.1558781580653
38.2518925 ,Left ,40.8492822677708 ,53.1512039968454 ,86.2013017374353
38.2655424 ,Left ,40.8272691146616 ,53.1644654904955 ,86.2289347073044
38.2819087 ,Left ,40.7837722909418 ,53.2288936356516 ,86.2529695343963
38.3043838 ,Left ,40.8093173299752 ,53.3213686976809 ,86.268652171686
38.3253941 ,Left ,40.8640945911916 ,53.3861957860552 ,86.2687475794443
38.3418678 ,Left ,40.9265420952248 ,53.401125248665 ,86.2836110665652
38.3643924 ,Left ,40.9398472218979 ,53.3673343003765 ,86.2890614643478
38.38544 ,Left ,40.9224313029951 ,53.3070107442219 ,86.2779982982446
38.4018855 ,Left ,40.9187685780269 ,53.2598376217122 ,86.2683518410536
38.4243893 ,Left ,40.9502135400858 ,53.2342521711466 ,86.2564055687059
38.4454585 ,Left ,40.9589123750912 ,53.2239782887139 ,86.2454123364433
38.4620362 ,Left ,40.9334013635755 ,53.2352025839442 ,86.2440886232924
38.4843681 ,Left ,40.9106537160927 ,53.2462884099458 ,86.2554887074727
38.50542 ,Left ,40.9263098481148 ,53.2556057490293 ,86.2837028063237
38.5217532 ,Left ,40.9527716108529 ,53.2739876279266 ,86.3204952654258
38.5445822 ,Left ,40.9806778231504 ,53.2879853010901 ,86.3556413165051
38.5657414 ,Left ,40.9963718037783 ,53.2942080033844 ,86.3808409636551
38.5818649 ,Left ,40.9960162927916 ,53.2836920198629 ,86.3940144793625
38.6044061 ,Left ,40.9614648320988 ,53.2909390188608 ,86.3828098737084
38.626885 ,Left ,40.9495508588184 ,53.2975406225873 ,86.3660984790603
38.6418889 ,Left ,40.9484486862544 ,53.3123800975488 ,86.3546544983326
38.664521 ,Left ,40.9452395518907 ,53.3206379293009 ,86.3569833385329
38.6868779 ,Left ,40.9452425697143 ,53.3164318765703 ,86.3674530688403
38.701831 ,Left ,40.9782464556178 ,53.3038438471323 ,86.3873489972519
38.7243829 ,Left ,41.0263328511723 ,53.2826031397197 ,86.4008251048112
38.7470268 ,Left ,41.0687663544835 ,53.2613275464824 ,86.4057055712167
38.7633607 ,Left ,41.1140059212463 ,53.2445365018865 ,86.3959600097477
38.784362 ,Left ,41.1389421261171 ,53.2227186019537 ,86.3828250575499
38.8068572 ,Left ,41.1091399551927 ,53.2157715657657 ,86.3608999388898
38.8212068 ,Left ,41.0668033953774 ,53.2323396370394 ,86.3462715530455
38.8443563 ,Left ,41.0515230205514 ,53.2595144976473 ,86.327032510584
38.8668909 ,Left ,41.0406830505446 ,53.264396868358 ,86.3106284784121
38.8812384 ,Left ,41.0329253809683 ,53.2682627032166 ,86.3217012979134
38.9043736 ,Left ,41.0385650637794 ,53.2535298030997 ,86.3348087337478
38.9269068 ,Left ,41.0608193844175 ,53.2373573402134 ,86.3496169264734
38.9413 ,Left ,41.0593564739857 ,53.2382650509671 ,86.3651135635259
38.9642797 ,Left ,41.0390425212479 ,53.2420651538891 ,86.361074487274
38.9868012 ,Left ,41.0304297418535 ,53.2535767904043 ,86.3585091077631
39.0012109 ,Left ,41.0368992519453 ,53.2667400615295 ,86.3454007343117
39.0244354 ,Left ,41.0286511722473 ,53.2748422305759 ,86.3375165906848
39.0468535 ,Left ,41.0365661920301 ,53.2654990540736 ,86.3409517199205
39.0612024 ,Left ,41.0340311037802 ,53.2402783496487 ,86.3442469827412
39.0843898 ,Left ,41.0437994290051 ,53.2290804354024 ,86.3643747404525
39.1143781 ,Left ,41.0623906862225 ,53.2511851973375 ,86.3848032099501
39.1279064 ,Left ,41.0836383131263 ,53.2777297803029 ,86.4002137083042
39.1444622 ,Left ,41.1581745609304 ,53.2993797813135 ,86.384862952137
39.1667647 ,Left ,41.1457893755172 ,53.2908426962129 ,86.3810040963565
39.1879131 ,Left ,41.1298584379663 ,53.3032843551778 ,86.3672860685102
39.2043576 ,Left ,41.0381961481788 ,53.3250228886331 ,86.3496105795529
39.2267904 ,Left ,41.0624485758511 ,53.3451308537074 ,86.3518981077866
39.2478519 ,Left ,41.0961365124023 ,53.3350405537199 ,86.3436135278791
39.2643034 ,Left ,41.1095844736713 ,53.3059006852022 ,86.3396525046842
39.2869096 ,Left ,41.1656659210622 ,53.2813083279006 ,86.3432737207657
39.3077388 ,Left ,41.1648687377616 ,53.2653241567307 ,86.3347632872425
39.3243992 ,Left ,41.1346942988407 ,53.2536626513005 ,86.3220608399973
39.3468963 ,Left ,41.1078635199165 ,53.2384034423804 ,86.3073034983999
39.3679786 ,Left ,41.0856334830264 ,53.2237117263443 ,86.2774258149198
39.3843955 ,Left ,41.0578507386985 ,53.2236825522261 ,86.2620368129474
39.4069241 ,Left ,41.0454441860836 ,53.2231591147249 ,86.2542996646979
39.4279361 ,Left ,41.0228050322592 ,53.2337873811718 ,86.2455071594022
39.4443004 ,Left ,41.0166323475225 ,53.2612030418233 ,86.2571863145106
39.4669109 ,Left ,40.9912699846954 ,53.2779102785075 ,86.2593539923674
39.4879207 ,Left ,41.0119820995591 ,53.3422814600942 ,86.2813097083972
