timestamp,event,roll,pitch,yaw
0.0061632 ,Left ,53.8722470267193 ,42.410813402652 ,54.7888989507595
0.0288596 ,Left ,53.8721056567884 ,42.4087375009297 ,54.7888596223318
0.0514689 ,Left ,53.869930972651 ,42.4091156396592 ,54.7893069537603
0.0662536 ,Left ,53.869930972651 ,42.4091156396592 ,54.7893069537603
0.0889109 ,Left ,53.869930972651 ,42.4091156396592 ,54.7893069537603
0.1120271 ,Left ,53.869789513843 ,42.4070396234978 ,54.7892678552948
0.1263946 ,Left ,53.869789513843 ,42.4070396234978 ,54.7892678552948
0.1487969 ,Left ,53.869789513843 ,42.4070396234978 ,54.7892678552948
0.1712818 ,Left ,53.869789513843 ,42.4070396234978 ,54.7892678552948
0.193934 ,Left ,53.869789513843 ,42.4070396234978 ,54.7892678552948
0.2161061 ,Left ,53.8696481015274 ,42.4049634673514 ,54.7892288310838
0.2387623 ,Left ,53.8696481015274 ,42.4049634673514 ,54.7892288310838
0.2537117 ,Left ,53.8696481015274 ,42.4049634673514 ,54.7892288310838
0.2689418 ,Left ,53.8696481015274 ,42.4049634673514 ,54.7892288310838
0.2913927 ,Left ,53.8674732501586 ,42.4053416524332 ,54.7896764662158
0.3062405 ,Left ,53.8673317488241 ,42.4032653817531 ,54.7896376720643
0.3289439 ,Left ,53.8647017666609 ,42.4033121070601 ,54.792292750237
0.3513115 ,Left ,53.8753653277095 ,42.4098612254026 ,54.7920569592324
0.3738714 ,Left ,53.9083487856969 ,42.4221965432522 ,54.7901393716972
0.3888087 ,Left ,53.9811924548958 ,42.4329955892831 ,54.7806708487367
0.4114839 ,Left ,54.0497869510256 ,42.4327585857001 ,54.7674688717199
0.426432 ,Left ,54.1034370369227 ,42.435995521488 ,54.7497641560199
0.4497841 ,Left ,54.1171592764737 ,42.4382545474933 ,54.734386574092
0.4788577 ,Left ,54.0917398130796 ,42.4452239503382 ,54.7324783682477
0.4937585 ,Left ,54.0704827213526 ,42.4459946616877 ,54.7375734209117
0.5162418 ,Left ,54.0683038233751 ,42.4463716780026 ,54.7380165752355
0.5312624 ,Left ,54.0759657111001 ,42.4395728143144 ,54.7353529136732
0.5538193 ,Left ,54.0759657111001 ,42.4395728143144 ,54.7353529136732
0.568931 ,Left ,54.0762982659052 ,42.4391087737305 ,54.7357134483096
0.5914131 ,Left ,54.0806951190859 ,42.4358001493271 ,54.7402137408318
0.613781 ,Left ,54.0945818399008 ,42.4295946738812 ,54.7384732294973
0.6293161 ,Left ,54.0966337400081 ,42.4271437233291 ,54.7379714990428
0.651256 ,Left ,54.0852949951996 ,42.4299517489033 ,54.7450183844203
0.6739074 ,Left ,54.0685559387151 ,42.4294934329579 ,54.7546835296782
0.6886835 ,Left ,54.0472093607589 ,42.4269174801443 ,54.7677538638352
0.7112593 ,Left ,54.0241641232651 ,42.422524618812 ,54.7844684822933
0.7339506 ,Left ,54.0031718170295 ,42.4169592698855 ,54.8033225644464
0.7489194 ,Left ,53.9980939464467 ,42.4178383709134 ,54.8166926408562
0.7713382 ,Left ,53.9640902730658 ,42.4368472763468 ,54.8135451603795
0.7939786 ,Left ,53.9260773723329 ,42.4796216121268 ,54.8052571146397
0.8086898 ,Left ,53.9433779304752 ,42.5391635830682 ,54.8172671378232
0.8313983 ,Left ,53.9036981244963 ,42.5752376810859 ,54.8781643687417
0.8536807 ,Left ,53.7193333468111 ,42.5513918638003 ,55.0413505500095
0.8688522 ,Left ,53.3877087534447 ,42.4923939239312 ,55.3273756930209
0.891233 ,Left ,52.9085104062152 ,42.4019418245858 ,55.6760451295176
0.9136938 ,Left ,52.246886318848 ,42.5746677082194 ,55.742676913371
0.9287558 ,Left ,51.3401405174084 ,42.4670681456892 ,56.2822841485359
0.9514074 ,Left ,50.5086789107237 ,42.4848316666059 ,56.884715327433
0.9741506 ,Left ,50.1922773031574 ,42.525982048626 ,57.3739328702469
0.9890463 ,Left ,50.5735417058662 ,42.595048510147 ,57.7215666208813
1.0113036 ,Left ,51.1693709756718 ,42.7396071370808 ,57.9848809511404
1.0339982 ,Left ,51.593507978115 ,42.9489467328941 ,58.234458963664
1.0487747 ,Left ,51.6807194698183 ,43.2528551662899 ,58.522038452755
1.0712576 ,Left ,51.561976782312 ,43.6095498679038 ,58.848957280689
1.0937038 ,Left ,51.4355258255403 ,43.9668246378273 ,59.1830928862566
1.1088782 ,Left ,51.4011820333043 ,44.2840725173663 ,59.5149806585959
1.1313891 ,Left ,51.4255164296645 ,44.5511938090364 ,59.8422792859711
1.1537045 ,Left ,51.4654034723639 ,44.7853532401172 ,60.1604013657864
1.1689065 ,Left ,51.5325878313714 ,44.983213423002 ,60.457186030806
1.1915199 ,Left ,51.6577610106455 ,45.1473158457053 ,60.752325931049
1.2137054 ,Left ,51.7585481971558 ,45.2862917616407 ,61.0557094293316
1.2288581 ,Left ,51.8131477245238 ,45.4283136659156 ,61.3264800141782
1.2523358 ,Left ,51.8214931255531 ,45.5638074508006 ,61.5302879182593
1.2740409 ,Left ,51.8205076630043 ,45.6742655901996 ,61.6738698399025
1.2964007 ,Left ,51.8363446920431 ,45.7575692483872 ,61.757022479751
1.3112937 ,Left ,51.8356459522195 ,45.8213243468044 ,61.7911133041435
1.3338645 ,Left ,51.7685833621824 ,45.8756833452031 ,61.8245622617345
1.3564614 ,Left ,51.6278139073081 ,45.9257635313011 ,61.8590386232092
1.3712276 ,Left ,51.4659339830106 ,45.9805288358561 ,61.891231335645
1.3947639 ,Left ,51.3433437063074 ,46.0325288089913 ,61.9233503548896
1.4164046 ,Left ,51.2563500535104 ,46.0772919317354 ,61.9512208599688
1.4312395 ,Left ,51.2009637252324 ,46.1036703067693 ,61.9739782175545
1.4538769 ,Left ,51.1649587923045 ,46.1277175216492 ,61.983852157166
1.4762282 ,Left ,51.1307947087622 ,46.1538354812614 ,61.9852081044912
1.4914384 ,Left ,51.0834743151573 ,46.1833660172751 ,61.9835467922071
1.5137318 ,Left ,51.0196632854372 ,46.2160976416905 ,61.9709892100058
1.5363965 ,Left ,50.9464884364195 ,46.2567711489288 ,61.9571475245514
1.5514515 ,Left ,50.8974635591876 ,46.3002419176559 ,61.9448774113316
1.566751 ,Left ,50.8721559262617 ,46.3405090079431 ,61.934006400679
1.612101 ,Left ,50.8722228653263 ,46.4005543457661 ,61.9161285404653
1.6638283 ,Left ,50.8428037276572 ,46.4981993858156 ,61.9172108935955
1.6864958 ,Left ,50.8431417189958 ,46.5210266659878 ,61.9189075916643
1.7235593 ,Left ,50.9122230150382 ,46.5567796838407 ,61.9161311364261
1.7463765 ,Left ,50.9658356574492 ,46.5606112783526 ,61.9188692217407
1.7838391 ,Left ,51.142056551315 ,46.504362177095 ,61.9594132082226
1.8137796 ,Left ,51.2871490371463 ,46.4718372447601 ,61.9837063879129
1.8587256 ,Left ,51.6575256599199 ,46.4101104172647 ,62.00331933634
1.8810613 ,Left ,51.7591241234063 ,46.3929871265267 ,62.0190425818309
1.9636895 ,Left ,52.0122870308616 ,46.137320002301 ,62.0405156498889
1.9864195 ,Left ,52.0377025889889 ,46.0769449146696 ,62.0370954578309
2.0238418 ,Left ,52.0294254435695 ,46.0143680211608 ,62.0057575269573
2.0461353 ,Left ,52.0079102541688 ,45.9995860204453 ,61.9714168156408
2.0837535 ,Left ,51.7328013698746 ,46.0457590199017 ,61.9619228613928
2.1062594 ,Left ,51.5897497420574 ,46.1359947987704 ,62.010947903465
2.1512932 ,Left ,51.5336489576728 ,46.3251331497665 ,61.9600937536836
2.1737008 ,Left ,51.539872213423 ,46.4094881161118 ,61.9069783917954
2.2035927 ,Left ,51.5801119226985 ,46.5904207646067 ,61.8412821401519
2.2263111 ,Left ,51.5646291368365 ,46.6578818544775 ,61.8347865146024
2.2636836 ,Left ,51.4878372433549 ,46.7562062427852 ,61.8230629333219
2.2860234 ,Left ,51.5024640632161 ,46.7853169579363 ,61.8073339556958
2.3234349 ,Left ,51.5443475751365 ,46.8219801868606 ,61.7745507775555
2.3461057 ,Left ,51.5294479404169 ,46.8411110615955 ,61.7657657421455
2.3837959 ,Left ,51.4799164857057 ,46.8816415787826 ,61.763478647196
2.4060692 ,Left ,51.4633118907884 ,46.8938803124643 ,61.7694943993028
2.4437562 ,Left ,51.4519391701602 ,46.9207735183661 ,61.776624507987
2.4662388 ,Left ,51.4695927051303 ,46.9284037164335 ,61.7776196591135
2.5035484 ,Left ,51.4792164481222 ,46.9311732908837 ,61.774625201933
2.5262507 ,Left ,51.4765694721559 ,46.928547132996 ,61.7684552995015
2.5637658 ,Left ,51.4833840352011 ,46.9208197978347 ,61.7536038396747
2.5860755 ,Left ,51.506648637231 ,46.912985745888 ,61.7389130879915
2.6236576 ,Left ,51.5713207279321 ,46.8900244493398 ,61.7125727259497
2.6461731 ,Left ,51.5808753925242 ,46.8761435502045 ,61.7093455516411
2.6913732 ,Left ,51.5717117216893 ,46.8325487278026 ,61.7224329251584
2.7137244 ,Left ,51.5738993574859 ,46.8124101623528 ,61.7279789551255
2.7437716 ,Left ,51.5830894815754 ,46.7815107501565 ,61.7291845393533
2.7662819 ,Left ,51.5800108844102 ,46.7787238510384 ,61.7271359657576
2.8038776 ,Left ,51.580522108512 ,46.7849591617688 ,61.7252086074903
2.8261643 ,Left ,51.5759205616146 ,46.7935253619287 ,61.7195006127217
2.8637574 ,Left ,51.5745917541206 ,46.8111004650618 ,61.7157118277812
2.8862938 ,Left ,51.569951589161 ,46.8273694597647 ,61.7180255163184
2.9312286 ,Left ,51.5856466079045 ,46.8599524122071 ,61.7297225481418
2.9539094 ,Left ,51.6029898091112 ,46.8675768888859 ,61.7325471164057
3.0213053 ,Left ,51.6093402007071 ,46.8430498141125 ,61.7215379768253
3.0664116 ,Left ,51.4905530285983 ,46.7697094108912 ,61.6781527823347
3.1038937 ,Left ,51.4393931584415 ,46.7548178590037 ,61.6443741762224
3.1260635 ,Left ,51.4193009780868 ,46.7806728631118 ,61.6276708059054
3.1638037 ,Left ,51.3872941873602 ,46.8909293529651 ,61.6056111739522
3.1860956 ,Left ,51.3828966103691 ,46.9495856790365 ,61.5980948585465
3.2238233 ,Left ,51.3795598194556 ,47.0861772383169 ,61.5761814751176
3.2536749 ,Left ,51.3713678612642 ,47.1567585033634 ,61.5671484852707
3.2913004 ,Left ,51.3376403235394 ,47.2797606337401 ,61.5454563242128
3.3063224 ,Left ,51.3191923897218 ,47.3230298738799 ,61.5347476584829
3.3437485 ,Left ,51.3011675125478 ,47.3604853533576 ,61.5154668565158
3.3663296 ,Left ,51.2939819990046 ,47.3618679805216 ,61.5054524423265
3.4038811 ,Left ,51.2743458726939 ,47.3591427430269 ,61.5025472909499
3.4187753 ,Left ,51.2838214288646 ,47.3512729358325 ,61.5038936054071
3.4413494 ,Left ,51.290338886756 ,47.3526987428005 ,61.5075556274533
3.4563963 ,Left ,51.3099639623406 ,47.3507769404383 ,61.5168781350764
3.478713 ,Left ,51.3375738732639 ,47.3374194374563 ,61.5271563626242
3.5014458 ,Left ,51.3641467150042 ,47.326447243015 ,61.5379929429966
3.5238645 ,Left ,51.3758751245469 ,47.312027727397 ,61.5595827550216
3.5460688 ,Left ,51.3700905273459 ,47.2956409426656 ,61.5850223146858
3.5687723 ,Left ,51.3637712185353 ,47.2819571667302 ,61.6046533227647
3.5842575 ,Left ,51.3819761508663 ,47.2718841391465 ,61.6177198106037
3.5989434 ,Left ,51.3960632644085 ,47.2613922493119 ,61.6292638211934
3.6212243 ,Left ,51.3814029428818 ,47.2639333132361 ,61.6427909878834
3.6364813 ,Left ,51.3379335860623 ,47.2702318104394 ,61.6711881912367
3.6588666 ,Left ,51.2883388603141 ,47.2799998554951 ,61.7144268299581
3.6812879 ,Left ,51.2359856231578 ,47.3082589284708 ,61.7789656346653
3.696228 ,Left ,51.2004272034408 ,47.3529775770581 ,61.8759645397106
3.7188861 ,Left ,51.1740503188914 ,47.4152745300477 ,62.0037182234799
3.7414155 ,Left ,51.1573517020443 ,47.4693044490366 ,62.1694084431398
3.7562599 ,Left ,51.1516169991379 ,47.5232633197024 ,62.3680554857251
3.7788235 ,Left ,51.1348125668082 ,47.5992369118631 ,62.5949123961587
3.8013746 ,Left ,51.0698683541813 ,47.7161453248248 ,62.8432297868293
3.8164833 ,Left ,50.9990305326116 ,47.8531420429527 ,63.1105661081397
3.838777 ,Left ,50.9932501028559 ,48.0279190033973 ,63.3970514060252
3.8624567 ,Left ,50.9930355553128 ,48.1930945743668 ,63.6804786415503
3.8761888 ,Left ,51.0056992121744 ,48.3603194427702 ,63.9557318725667
3.8987053 ,Left ,50.9289566575422 ,48.5213194371169 ,64.2011178845267
3.9212698 ,Left ,50.7392727392979 ,48.6802794763154 ,64.4218735370329
3.9363582 ,Left ,50.5455853532636 ,48.8323662894628 ,64.6268571564095
3.9587059 ,Left ,50.3925841485338 ,48.9619445148593 ,64.7934140258642
3.9813939 ,Left ,50.2509581326326 ,49.0730561279264 ,64.944799887403
3.9963525 ,Left ,50.0759460370925 ,49.1511516628783 ,65.0705859956284
4.0187508 ,Left ,49.9219160491596 ,49.1720409401059 ,65.1858021353311
4.0412407 ,Left ,49.7857139636201 ,49.1475863358056 ,65.2931469185417
4.0562796 ,Left ,49.6431867915996 ,49.1075107059261 ,65.3909483394728
4.0861879 ,Left ,49.5517428358402 ,49.0609539678804 ,65.4811453869746
4.1085131 ,Left ,49.4628408702359 ,49.0332201850211 ,65.5800557474224
4.138849 ,Left ,49.6787421882995 ,48.9349896977349 ,65.7020286125128
4.1612393 ,Left ,49.8338575387289 ,48.873125410428 ,65.7400041927798
4.1838603 ,Left ,49.7992890650596 ,48.8361218167434 ,65.772937043653
4.1986634 ,Left ,49.6914317414329 ,48.8383959563319 ,65.8459502614999
4.2212481 ,Left ,49.6476293311361 ,48.8615391882398 ,65.924487852536
4.2437831 ,Left ,49.6638113293514 ,48.8743957320224 ,65.972516946058
4.2587003 ,Left ,49.7779129946193 ,48.8580822613621 ,65.9991297969432
4.2813249 ,Left ,49.905269283255 ,48.836623801188 ,66.0146857938099
4.3037239 ,Left ,49.9126116292762 ,48.8233253384717 ,66.0367970235505
4.3188833 ,Left ,49.8389878368764 ,48.8324240746152 ,66.0618948947711
4.3488364 ,Left ,49.764428012052 ,48.8512322079563 ,66.0752911461757
4.3787152 ,Left ,49.7366948748257 ,48.8488201699885 ,66.0700777881954
4.3938461 ,Left ,49.7465190776258 ,48.8369592098546 ,66.0501458119886
4.4085689 ,Left ,49.7519017616365 ,48.8209535375118 ,66.0280830802543
4.446184 ,Left ,49.594492985305 ,48.8058866893804 ,65.9860908714657
4.4685414 ,Left ,49.5218946165514 ,48.814637405846 ,65.9827806757736
4.4837932 ,Left ,49.5184836374424 ,48.81650926808 ,65.9828640303099
4.4987665 ,Left ,49.533843200019 ,48.8124928655551 ,65.986768735725
4.5213569 ,Left ,49.5609640842172 ,48.7975670494486 ,65.990594024007
4.5437149 ,Left ,49.5453932340981 ,48.7773422473084 ,65.9893131486218
4.5588122 ,Left ,49.5132422254189 ,48.7439148349305 ,65.9985353665363
4.588823 ,Left ,49.5047669868673 ,48.6973535690962 ,66.0122477738445
4.6115218 ,Left ,49.5309986645402 ,48.6295285888055 ,66.0267074534852
4.626179 ,Left ,49.5342833878204 ,48.5520609834259 ,66.0385358996365
4.6413706 ,Left ,49.5561807816141 ,48.47986465013 ,66.0471135490387
4.6636873 ,Left ,49.5517426159872 ,48.3892801867456 ,66.0264659279607
4.6793995 ,Left ,49.4919033385808 ,48.3360802232231 ,65.9815487185773
4.7012587 ,Left ,49.3929411265729 ,48.297538621908 ,65.9467935083848
4.7238091 ,Left ,49.3333835979034 ,48.2838776783469 ,65.896154635271
4.7388471 ,Left ,49.3676446324472 ,48.2614428541308 ,65.8286187439413
4.7614266 ,Left ,49.4223468652336 ,48.2393216846526 ,65.7552654542698
4.7838921 ,Left ,49.4470342944723 ,48.2353783488214 ,65.7161492274202
4.798824 ,Left ,49.4408326977509 ,48.2587491260307 ,65.7002675100609
4.8212026 ,Left ,49.3791288615129 ,48.2654701712984 ,65.6863490299429
4.8438563 ,Left ,49.2563718494868 ,48.2651140980212 ,65.6700170097669
4.8588396 ,Left ,49.189972728918 ,48.2586950863339 ,65.6551652211361
4.8812983 ,Left ,49.1880978665907 ,48.2399327840115 ,65.6319376920192
4.9127469 ,Left ,49.177087394026 ,48.2391373521399 ,65.6264218372419
4.9264765 ,Left ,49.1695086153293 ,48.2366222932454 ,65.6202685623782
4.956352 ,Left ,49.1560146354272 ,48.2681777311542 ,65.6126283255947
4.9863379 ,Left ,49.2410597990112 ,48.282587384186 ,65.5776406696616
5.0012281 ,Left ,49.2451190744623 ,48.2739909778349 ,65.5468737359464
5.0238523 ,Left ,49.1755150695731 ,48.2777444457395 ,65.5951761948412
5.0389545 ,Left ,49.1562236387195 ,48.2967109459461 ,65.6397168951963
5.0611184 ,Left ,49.1365820424209 ,48.3182757688205 ,65.6441153616201
5.0836886 ,Left ,49.1241178507359 ,48.3271113066927 ,65.6380104097507
5.0987262 ,Left ,49.0953851032323 ,48.3645027652699 ,65.6424610294915
5.1211149 ,Left ,49.0536860446566 ,48.3647255658528 ,65.6406439206949
5.1439009 ,Left ,49.0177250583288 ,48.3861111432035 ,65.6240555087258
5.158685 ,Left ,49.0305869784778 ,48.3880375116769 ,65.6120844554466
5.1813868 ,Left ,49.0763393864139 ,48.3923442814977 ,65.6221659750861
5.2037405 ,Left ,49.1221887951185 ,48.3877798216361 ,65.659095415744
5.2188439 ,Left ,49.281537898972 ,48.3776097841618 ,65.6691390313263
5.2411519 ,Left ,49.4431228283395 ,48.364106873232 ,65.6511384533708
5.2636849 ,Left ,49.4927271569835 ,48.3686727425909 ,65.636770235943
5.2862561 ,Left ,49.4269948743309 ,48.3772638698816 ,65.6341301571608
5.3011947 ,Left ,49.3157702183722 ,48.4325183858845 ,65.5917483966326
5.3237826 ,Left ,49.1581107345211 ,48.5339838272192 ,65.5235327708799
5.3462736 ,Left ,49.0580284256381 ,48.6393294417982 ,65.4448207095169
5.3613994 ,Left ,49.0992713914892 ,48.693891517305 ,65.3410822257157
5.3839032 ,Left ,49.2301456613099 ,48.7043812325858 ,65.2520857561558
5.4137014 ,Left ,49.2949333469051 ,48.7013809315133 ,65.198590578893
5.4289175 ,Left ,49.1895548427375 ,48.7097118940604 ,65.1619476334696
5.4511006 ,Left ,49.0104553137304 ,48.7294958006653 ,65.1446963194356
5.4663848 ,Left ,48.9549780960308 ,48.7511688659039 ,65.1250050302802
5.4813895 ,Left ,48.9830945149266 ,48.7537416440714 ,65.074790922165
5.5042746 ,Left ,48.9969692707393 ,48.7568471329796 ,65.010490676159
5.5261953 ,Left ,48.9941336776799 ,48.7574860901482 ,64.9499672437263
5.5412165 ,Left ,48.9868937015861 ,48.7388596372398 ,64.90989732872
5.5638009 ,Left ,48.9880657516759 ,48.6879143409161 ,64.8951308701129
5.586234 ,Left ,48.9699118304399 ,48.6230075696749 ,64.9039754550176
5.6013688 ,Left ,48.9372142156605 ,48.5655474027999 ,64.9266277478789
5.6236554 ,Left ,48.8917252168506 ,48.5167182053037 ,64.9430474858421
5.6461693 ,Left ,48.8562013643671 ,48.4760483940725 ,64.9695280822271
5.6613555 ,Left ,48.8551625054636 ,48.4417779380769 ,64.9847710113772
5.6837874 ,Left ,48.8697635867974 ,48.4126591482573 ,65.0008726289802
5.7061677 ,Left ,48.8366589316477 ,48.4123408398179 ,65.0360605690167
5.7213008 ,Left ,48.7256115155586 ,48.4431581689987 ,65.070256265884
5.7513664 ,Left ,48.7203962484077 ,48.4855327650803 ,65.0804759379644
5.7738423 ,Left ,48.9843356716762 ,48.4555917531608 ,65.0868165689293
5.7889038 ,Left ,49.2552485625553 ,48.3912925700191 ,65.0839328490398
5.8038405 ,Left ,49.322051966406 ,48.3395063973368 ,65.0933053831358
5.8261893 ,Left ,49.1916571565396 ,48.3208536989534 ,65.1681277827212
5.8413365 ,Left ,49.0203220070174 ,48.3196541125652 ,65.2959579929964
5.8637377 ,Left ,48.9628152337614 ,48.3258094633376 ,65.3808505547732
5.8863906 ,Left ,49.0384547044803 ,48.3017668529459 ,65.4051563578329
5.9011844 ,Left ,49.1171491023285 ,48.3022523512065 ,65.4152805592236
5.923752 ,Left ,49.098830650143 ,48.3426147584552 ,65.4167600385696
5.9464154 ,Left ,49.1409729548851 ,48.4261745748183 ,65.4113558386976
5.9614075 ,Left ,49.2629751462051 ,48.4765097659414 ,65.3947913364319
5.9838329 ,Left ,49.3815167659188 ,48.4978379743603 ,65.400069670488
6.006418 ,Left ,49.4386705186232 ,48.505063020265 ,65.4270312488216
6.0289036 ,Left ,49.4378931890819 ,48.4918933368694 ,65.47401714001
6.0438593 ,Left ,49.4371381252706 ,48.4656010083439 ,65.5124464194828
6.0664256 ,Left ,49.4313475184515 ,48.4486474018477 ,65.5334822022549
6.0889064 ,Left ,49.4336758148199 ,48.4384961487657 ,65.5511557191703
6.1037054 ,Left ,49.4762862747372 ,48.4289124131677 ,65.5647890822704
6.1263901 ,Left ,49.5418090730219 ,48.4160686195406 ,65.5703048163126
6.1413755 ,Left ,49.6046476086925 ,48.3892807826933 ,65.5698906534484
6.1636738 ,Left ,49.6343427651446 ,48.3711990401937 ,65.5754677034857
6.1863622 ,Left ,49.6318051009191 ,48.3635566042618 ,65.5868811575873
6.2012056 ,Left ,49.6057626250871 ,48.3617293538723 ,65.6019036646273
6.2238681 ,Left ,49.5916573517126 ,48.3691908080175 ,65.6087743214901
6.2463077 ,Left ,49.5933764705415 ,48.3682734042742 ,65.6087186692506
6.268945 ,Left ,49.5973145448295 ,48.3794419727197 ,65.6058926751387
6.2837744 ,Left ,49.5975901025751 ,48.3924942189384 ,65.6076364462999
6.3155535 ,Left ,49.593384996978 ,48.4057339186842 ,65.6116145929704
6.3363107 ,Left ,49.5833524576741 ,48.4242900197524 ,65.6136903030519
6.3513967 ,Left ,49.5778080504032 ,48.4470890938414 ,65.6152683809982
6.3665248 ,Left ,49.5670065465612 ,48.4681866483879 ,65.6177618163114
6.3888273 ,Left ,49.5469767444475 ,48.4922099416544 ,65.6132211087264
6.4037555 ,Left ,49.536362585334 ,48.5133425001524 ,65.6107506422243
6.4263512 ,Left ,49.5350218106292 ,48.5273279460156 ,65.6100861883111
6.4487055 ,Left ,49.5327760938052 ,48.5395003290247 ,65.6100798629295
6.4637315 ,Left ,49.508022782298 ,48.5549846551774 ,65.6082259681304
6.4861893 ,Left ,49.4897951175627 ,48.571177322829 ,65.6178155775696
6.5090788 ,Left ,49.5000738978682 ,48.5789592141488 ,65.62518781796
6.5238839 ,Left ,49.5281108019621 ,48.5859511129886 ,65.6261992882813
6.546314 ,Left ,49.5563780936721 ,48.5886543436191 ,65.617551391761
6.5686618 ,Left ,49.5878991787402 ,48.5894977927404 ,65.6137919899746
6.5838312 ,Left ,49.6037839590976 ,48.5854831298175 ,65.6067089101054
6.606375 ,Left ,49.5979048056362 ,48.5864636192272 ,65.6025416091727
6.6288061 ,Left ,49.602261090985 ,48.5863504036898 ,65.6023083133715
6.6438182 ,Left ,49.6188010291072 ,48.5885131533003 ,65.6037743033818
6.6663292 ,Left ,49.6248547509486 ,48.5875704134008 ,65.6029848767155
6.6888468 ,Left ,49.623934452828 ,48.5858511116 ,65.6031183656898
6.703884 ,Left ,49.6179477631795 ,48.5800312913727 ,65.6170544613468
6.7262219 ,Left ,49.6167623610655 ,48.5672417792675 ,65.6350178275064
6.7487998 ,Left ,49.6082763886934 ,48.5538015706387 ,65.6603582021803
6.7637224 ,Left ,49.6003565809684 ,48.537782224058 ,65.6902789237675
6.7862868 ,Left ,49.5907818799727 ,48.5227169913165 ,65.7178049190411
6.8086671 ,Left ,49.5569557254185 ,48.507482257639 ,65.7423314281367
6.8238957 ,Left ,49.522318147062 ,48.4949345286141 ,65.7668435934561
6.853604 ,Left ,49.4920739088173 ,48.4778771964792 ,65.7869547843302
6.8761706 ,Left ,49.4490946156146 ,48.4655614562181 ,65.8032006998998
6.8913505 ,Left ,49.4112341950705 ,48.4592724279998 ,65.8258039436184
6.913777 ,Left ,49.3770943632415 ,48.4599851068885 ,65.8473094384251
6.9288041 ,Left ,49.3486412768104 ,48.4664783006419 ,65.8641608447255
6.9438689 ,Left ,49.3606386531979 ,48.4776313242702 ,65.8761207298494
6.9662195 ,Left ,49.3942347298765 ,48.4879959996232 ,65.891743112844
6.9888991 ,Left ,49.4107745928753 ,48.4922104181096 ,65.9123266762833
7.0038503 ,Left ,49.4157581697598 ,48.495912195964 ,65.9386644268626
7.0263699 ,Left ,49.4217213035554 ,48.4968872371907 ,65.9606366091112
7.0488974 ,Left ,49.4274350092632 ,48.5003709444491 ,65.9710356679362
7.0636662 ,Left ,49.4262543535444 ,48.5031575725085 ,65.9799153902349
7.0938527 ,Left ,49.4337889882258 ,48.5056149505479 ,65.988275421875
7.1160303 ,Left ,49.4337889882258 ,48.5056149505479 ,65.988275421875
7.1313197 ,Left ,49.4235480529325 ,48.5112361042906 ,65.9885874785856
7.1473485 ,Left ,49.3900223120873 ,48.5185423968801 ,65.9857697978305
7.1687325 ,Left ,49.3547638777358 ,48.5312099693432 ,65.9872449086699
7.1911605 ,Left ,49.3492646865192 ,48.5409371508595 ,65.9825337885791
7.2064004 ,Left ,49.3509713955818 ,48.5400009435892 ,65.9824814383475
7.228964 ,Left ,49.3425429925257 ,48.5445920260779 ,65.9807486937124
7.2514846 ,Left ,49.3297283681108 ,48.5538799192787 ,65.9830010546623
7.2735327 ,Left ,49.3123654791061 ,48.56332198343 ,65.9905123278874
7.2888729 ,Left ,49.3017285808995 ,48.5691162781176 ,65.9998102687686
7.3186921 ,Left ,49.2946191960585 ,48.5686038408772 ,66.0022868900444
7.3412347 ,Left ,49.296325179996 ,48.5676668293428 ,66.0022345873331
7.3789117 ,Left ,49.2817326833459 ,48.5734547903693 ,66.0028160618445
7.4087338 ,Left ,49.2695065489092 ,48.5757558017211 ,66.0054532809363
7.4462722 ,Left ,49.2494282873062 ,48.575650318023 ,66.006750795847
7.4613566 ,Left ,49.2465903400482 ,48.5706256019347 ,66.0067465786417
7.4987234 ,Left ,49.2026924968528 ,48.5457406410132 ,66.0311340596818
7.5213728 ,Left ,49.1809360964274 ,48.524399519471 ,66.0489405996056
7.5586207 ,Left ,49.185074438688 ,48.47984332718 ,66.0865230352361
7.5811876 ,Left ,49.1304638764366 ,48.4655307199211 ,66.1218148006043
7.6186738 ,Left ,48.933309947727 ,48.4790242379345 ,66.1224068542888
7.6411739 ,Left ,48.8471147878686 ,48.5147014129436 ,66.0464239652447
7.6788937 ,Left ,48.9381259730427 ,48.5343366742663 ,65.8708404449135
7.7013154 ,Left ,48.9295143198088 ,48.5319018601147 ,65.811603126167
7.7390883 ,Left ,48.9142096772127 ,48.5336496757551 ,65.8235247083571
7.7613978 ,Left ,48.8991975754282 ,48.5328309662026 ,65.8088339527836
7.7988301 ,Left ,48.7895722410034 ,48.5205884408564 ,65.7616304355576
7.821259 ,Left ,48.8048345691886 ,48.4811609374018 ,65.7431605473811
7.8585132 ,Left ,48.8291220227544 ,48.3466510860787 ,65.7765168909459
7.8811698 ,Left ,48.7912318893435 ,48.3118532281769 ,65.7948867946039
7.9269474 ,Left ,48.638373473727 ,48.3850688061079 ,65.7681293666399
7.9481632 ,Left ,48.7571009435119 ,48.39610852612 ,65.7363970917894
7.9785905 ,Left ,48.8248717095726 ,48.3816954957582 ,65.7305050893624
8.0010334 ,Left ,48.7372294805258 ,48.402933828149 ,65.7885058212727
8.0385223 ,Left ,48.7348099081005 ,48.4178967858918 ,65.8117859332272
8.0612768 ,Left ,48.7393987878757 ,48.4175956481396 ,65.80696833851
8.0987207 ,Left ,48.6591088598978 ,48.483359551882 ,65.8216452841098
8.1210885 ,Left ,48.6006356744872 ,48.5305117641816 ,65.8226114192051
8.158761 ,Left ,48.6533842071914 ,48.6015239820136 ,65.8096481817865
8.1811551 ,Left ,48.6285250287472 ,48.6397595591635 ,65.8309180210181
8.2188533 ,Left ,48.5690417601883 ,48.6771987200936 ,65.8678856381605
8.2411568 ,Left ,48.5111593453036 ,48.6886065872832 ,65.8666103254863
8.2787813 ,Left ,48.5233415513608 ,48.7171286081284 ,65.8504363955102
8.3013077 ,Left ,48.5687123753809 ,48.7181341056299 ,65.8076113823964
8.3388416 ,Left ,48.4212133081557 ,48.8140309674751 ,65.6778359367304
8.3613203 ,Left ,48.4360459182058 ,48.8476361359444 ,65.5886169874386
8.3987861 ,Left ,48.581356233052 ,48.8473266619909 ,65.403703857996
8.421218 ,Left ,48.592753531394 ,48.8616533165532 ,65.3385861573638
8.4589042 ,Left ,48.588143253619 ,48.8833965505254 ,65.2365401105843
8.4812279 ,Left ,48.5716042620357 ,48.8972617267931 ,65.1932495446034
8.5339184 ,Left ,48.6161112990908 ,48.8661539674591 ,65.1289544708447
8.5563583 ,Left ,48.641271937204 ,48.8200813616671 ,65.1148982380999
8.6011023 ,Left ,48.4827798479829 ,48.6938639139216 ,65.1398228641072
8.6386963 ,Left ,48.5004192395987 ,48.6016646859622 ,65.1449153763534
8.6613254 ,Left ,48.4544002789357 ,48.5889746999918 ,65.1770573587369
8.6988097 ,Left ,48.4526047393881 ,48.5926403646942 ,65.1988642394258
8.7212943 ,Left ,48.5593316391822 ,48.5661018780113 ,65.1976584523118
8.7585388 ,Left ,48.8417888903868 ,48.44492907481 ,65.2388880460511
8.7812579 ,Left ,48.7724107080477 ,48.4175944564577 ,65.2763305560443
8.8263483 ,Left ,48.6807991536216 ,48.4178994075872 ,65.486876277465
8.8788107 ,Left ,48.8750562888574 ,48.3737301838727 ,65.6149024334242
8.9012911 ,Left ,48.7340890663403 ,48.4137488522963 ,65.6355397613162
8.9385176 ,Left ,48.7251804310032 ,48.5162898145948 ,65.6666218688688
8.9612695 ,Left ,48.9043656949442 ,48.5132216147459 ,65.6683163847762
8.9987558 ,Left ,49.0513749800348 ,48.5098257119858 ,65.72354984691
9.0212443 ,Left ,49.0055995662377 ,48.5281712140209 ,65.7646740336266
9.058644 ,Left ,49.0540605973202 ,48.5510108834544 ,65.8245937085944
9.0813561 ,Left ,49.1068691957759 ,48.5556384678854 ,65.8345075384614
9.1187357 ,Left ,49.1268237385974 ,48.5537748987532 ,65.8531152572009
9.1338117 ,Left ,49.0901741684999 ,48.551499795737 ,65.8533052844885
9.1562473 ,Left ,49.0442603734755 ,48.5608654287366 ,65.8558810233832
9.1713194 ,Left ,49.0237048574353 ,48.5764850185732 ,65.8607341106388
9.1937271 ,Left ,49.0320674163313 ,48.5920084738245 ,65.8610853425269
9.216279 ,Left ,49.0704656382173 ,48.6021846468117 ,65.8671957615046
9.2315967 ,Left ,49.1102856228298 ,48.611636055947 ,65.8797820909982
9.253709 ,Left ,49.1354187069937 ,48.622326389054 ,65.8913410137761
9.2763017 ,Left ,49.1382901007045 ,48.6362802690829 ,65.8972291119065
9.2913694 ,Left ,49.1396357871504 ,48.6556129882776 ,65.9023920202021
9.3143428 ,Left ,49.1603904915533 ,48.6730941013135 ,65.9004742846044
9.3361823 ,Left ,49.1817391503057 ,48.6835845915615 ,65.8989826788092
9.3513361 ,Left ,49.1843869468744 ,48.6843639512628 ,65.8987693924352
9.3738364 ,Left ,49.1553280176308 ,48.6847046078001 ,65.9070453552266
9.3965616 ,Left ,49.1371946195296 ,48.6769311104448 ,65.9171342150108
9.4113573 ,Left ,49.1322148410758 ,48.6685990882583 ,65.9244376576756
9.4337472 ,Left ,49.1423601105095 ,48.6675717947646 ,65.9303131256473
9.4637668 ,Left ,49.1481412656925 ,48.6665999483406 ,65.9369653410742
9.4788359 ,Left ,49.1432341618331 ,48.6626258811196 ,65.9464840962896
9.5013572 ,Left ,49.1120919781254 ,48.6597135826746 ,65.9596418106486
9.5163225 ,Left ,49.066357816267 ,48.6626902598652 ,65.9729308967556
9.5312548 ,Left ,49.024973069168 ,48.6609616650819 ,65.9822991290394
9.5536604 ,Left ,49.0009269740982 ,48.6631952931083 ,65.9967428264986
9.5838597 ,Left ,48.9836907966277 ,48.666084571412 ,66.0156710547518
9.6062125 ,Left ,48.9701754514732 ,48.6715528979532 ,66.0311986575161
9.6288529 ,Left ,48.9638315233641 ,48.6707023273183 ,66.0566321199527
9.6588482 ,Left ,48.962617927786 ,48.6562701270966 ,66.09016315943
9.6736402 ,Left ,48.9551394746847 ,48.6560715100463 ,66.101691699901
9.696365 ,Left ,48.9501104721268 ,48.6566727157167 ,66.1179874669376
9.711368 ,Left ,48.9587726155698 ,48.6653993832897 ,66.1277886786012
9.7337879 ,Left ,48.96142832843 ,48.6661603727245 ,66.1275525017204
9.7563216 ,Left ,48.9449701286781 ,48.6730753004212 ,66.1327249830274
9.7713991 ,Left ,48.9251101783889 ,48.6818802220053 ,66.1380071342469
9.7938654 ,Left ,48.9169150146653 ,48.695311182564 ,66.1401523585453
9.8162325 ,Left ,48.9210414559701 ,48.7064521962531 ,66.1366091457427
9.8313077 ,Left ,48.9219957290784 ,48.7081550408954 ,66.1364271559841
9.8611292 ,Left ,48.9151418140216 ,48.7029478325548 ,66.1282582297664
9.8837436 ,Left ,48.8932266463581 ,48.6949937457445 ,66.1233438491206
9.8989295 ,Left ,48.8557855640678 ,48.6911575734099 ,66.1192716181521
9.9138022 ,Left ,48.8362558608959 ,48.6886211032512 ,66.1253494378645
9.936266 ,Left ,48.8435661351222 ,48.6869849563963 ,66.1359437702204
9.9586752 ,Left ,48.8499430725098 ,48.6881383872367 ,66.1509126325933
9.9813685 ,Left ,48.8447600384362 ,48.6890493238158 ,66.1712382336658
10.0187248 ,Left ,48.861586859883 ,48.660176378497 ,66.2141607867715
10.0338201 ,Left ,48.9099395185686 ,48.6355064234385 ,66.2169348800672
10.056425 ,Left ,48.9504578375058 ,48.6329850352655 ,66.2237290955602
10.0788512 ,Left ,48.9363635078097 ,48.6364740275295 ,66.231008901563
10.0938034 ,Left ,48.9050947276454 ,48.6491650039605 ,66.2032830768471
10.1162318 ,Left ,48.8449805227084 ,48.659712154658 ,66.1553044924176
10.1386361 ,Left ,48.7888993922625 ,48.6676798435023 ,66.0913577890134
10.1538295 ,Left ,48.8404636989398 ,48.644954450995 ,66.0253269270919
10.1762025 ,Left ,48.8998869647302 ,48.6229316317893 ,65.9807164751035
10.1987526 ,Left ,48.8987902278325 ,48.6099529317005 ,65.9548319708965
10.2137289 ,Left ,48.8607149500392 ,48.6104753684679 ,65.9307092698861
10.2363504 ,Left ,48.8267072884198 ,48.6064545068772 ,65.9091526465266
10.2587121 ,Left ,48.8141811981094 ,48.5930521401584 ,65.8862325268838
10.2739627 ,Left ,48.8210817350416 ,48.5624310219687 ,65.8631553174275
10.2963421 ,Left ,48.8382338532335 ,48.5242232644663 ,65.8577557691653
10.3189521 ,Left ,48.7878997275006 ,48.5050331249824 ,65.8576704621311
10.3338257 ,Left ,48.6756053863145 ,48.5215178464451 ,65.8509479367066
10.3562809 ,Left ,48.6584877538068 ,48.5371295349862 ,65.8381738052407
10.3785826 ,Left ,48.7518327546929 ,48.5260205806421 ,65.8082747788119
10.393902 ,Left ,48.8217203555764 ,48.5058377945686 ,65.7889888054274
10.4237773 ,Left ,48.7853004341178 ,48.5012738998845 ,65.8006137024499
10.453783 ,Left ,48.7260631512631 ,48.5137557727645 ,65.8281466515865
10.4686899 ,Left ,48.7060550376749 ,48.5159154928898 ,65.847442950728
10.483808 ,Left ,48.667755010367 ,48.5325671920412 ,65.8596333227968
10.4987194 ,Left ,48.6650425147781 ,48.5606189617267 ,65.8650531108756
10.5137673 ,Left ,48.6466195688164 ,48.5948895829163 ,65.8573467832737
10.5363518 ,Left ,48.5714471499925 ,48.620405191355 ,65.8648065174749
10.5587187 ,Left ,48.5375979073305 ,48.6431018013915 ,65.8612286944655
10.573843 ,Left ,48.5554149275766 ,48.6619162854707 ,65.847846936909
10.5962672 ,Left ,48.5719965842442 ,48.683910852145 ,65.8452730671059
10.6188332 ,Left ,48.5577812068849 ,48.6965428515368 ,65.8627677412008
10.6336073 ,Left ,48.5611769176267 ,48.7128431706278 ,65.8790912099192
10.656147 ,Left ,48.572465807422 ,48.7287162640746 ,65.8729914453305
10.6790413 ,Left ,48.5596772192281 ,48.7351807463699 ,65.8511319671858
10.693877 ,Left ,48.5532736059561 ,48.7292715637628 ,65.8322395490707
10.7164071 ,Left ,48.5293492804886 ,48.7302960328987 ,65.8007939249805
10.7388568 ,Left ,48.4485252099099 ,48.7612151240799 ,65.7373150604228
10.7610735 ,Left ,48.4110121759988 ,48.7907181603437 ,65.6755786231533
10.7763204 ,Left ,48.4508092803103 ,48.8026032046763 ,65.6018940391823
10.7987459 ,Left ,48.5072103982998 ,48.8017801850301 ,65.5389851653526
10.8213008 ,Left ,48.5048086521506 ,48.8173563689358 ,65.4985891604365
10.8364262 ,Left ,48.4760362072423 ,48.8293661963159 ,65.4619700050267
10.8586028 ,Left ,48.4793494135814 ,48.8263094637526 ,65.4182450591114
10.8736754 ,Left ,48.4869727325023 ,48.8189402149861 ,65.3740790221509
10.8969234 ,Left ,48.4985789589666 ,48.8252620460811 ,65.3467404158178
10.9187101 ,Left ,48.5316759820097 ,48.8316519400495 ,65.3266415522833
10.9338797 ,Left ,48.5707235391028 ,48.8238783625429 ,65.3028131311031
10.9563704 ,Left ,48.5760365049945 ,48.8181625623096 ,65.2744759864161
10.9863139 ,Left ,48.5488593964033 ,48.8097166437161 ,65.2526613974248
11.0163672 ,Left ,48.5080504526904 ,48.8050473912085 ,65.2707265185903
11.0312481 ,Left ,48.5139379392279 ,48.7937743346958 ,65.2931697891125
11.0459981 ,Left ,48.5196566248288 ,48.7710245658113 ,65.2920473977799
11.0762866 ,Left ,48.5559310346436 ,48.7371247013339 ,65.3051246127647
11.098693 ,Left ,48.6174726484453 ,48.7143242042138 ,65.3222771168112
11.1213525 ,Left ,48.5711072347105 ,48.7099522141706 ,65.3256514673549
11.1362472 ,Left ,48.5125324331144 ,48.7316445364885 ,65.3211196249379
11.1586151 ,Left ,48.6182745001572 ,48.7223191424758 ,65.3064349663623
11.1812799 ,Left ,48.7393825031455 ,48.6875290710629 ,65.2878100966453
11.1963571 ,Left ,48.7655382068719 ,48.6453467100253 ,65.2889700612647
11.2187024 ,Left ,48.70398783786 ,48.6185543189268 ,65.3117145784379
11.2413387 ,Left ,48.6259890405997 ,48.5836507097274 ,65.3851713215612
11.2562188 ,Left ,48.6287681319409 ,48.5332197792972 ,65.4694989095883
11.2787508 ,Left ,48.6427623164337 ,48.4633397313283 ,65.5572013872708
11.3085415 ,Left ,48.707680352601 ,48.4147119900091 ,65.6415978937652
11.323564 ,Left ,48.7383847637084 ,48.3658784255835 ,65.7092451112058
11.3483411 ,Left ,48.6914120910912 ,48.3674964200816 ,65.7586230876671
11.3613899 ,Left ,48.6540481003301 ,48.4277394000503 ,65.7795563602971
11.3762103 ,Left ,48.6889947067274 ,48.5022480762956 ,65.7938658279583
11.4063308 ,Left ,48.8080712081034 ,48.5399952277318 ,65.8077810340509
11.4285449 ,Left ,48.9707380672671 ,48.5273803452216 ,65.82029851242
11.4438102 ,Left ,49.0159974215157 ,48.5163251863455 ,65.849043472498
11.4588695 ,Left ,48.9377852457316 ,48.5326204232476 ,65.89483827175
11.4813076 ,Left ,48.8797733550528 ,48.5535369948802 ,65.9418960042438
11.4962316 ,Left ,48.9121119903962 ,48.5627813109772 ,65.9656983866355
11.5189682 ,Left ,49.004087534298 ,48.5658027926084 ,65.9752416603785
11.549072 ,Left ,49.0780509734046 ,48.5719194168628 ,65.9815815629206
11.5716449 ,Left ,49.1035897197986 ,48.5757610401875 ,65.9975061353797
11.6013063 ,Left ,49.0801666935638 ,48.5708686022214 ,66.0104065712744
11.6163099 ,Left ,49.0526643947457 ,48.5749772924538 ,66.0250083695279
11.6312256 ,Left ,49.0433740279923 ,48.5867839795232 ,66.029348599622
11.6464298 ,Left ,49.0508575727955 ,48.6004492954468 ,66.0304043384579
11.6613281 ,Left ,49.0531341449814 ,48.617038732078 ,66.0336330595144
11.6763211 ,Left ,49.0662996148564 ,48.6387760242429 ,66.0517589878966
11.6987878 ,Left ,49.0731409705125 ,48.6573691217835 ,66.0725516871078
11.7213144 ,Left ,49.0773288875742 ,48.670620459099 ,66.0898888019806
11.7363015 ,Left ,49.0775635862214 ,48.684005446193 ,66.0975149751823
11.7587063 ,Left ,49.0753086171662 ,48.6919415427371 ,66.0971571233522
11.7886516 ,Left ,49.0719898973878 ,48.6937154266878 ,66.0952602074356
11.8113733 ,Left ,49.0689662894593 ,48.6998271052667 ,66.0905737923182
11.833671 ,Left ,49.0440641234204 ,48.6958336196154 ,66.0989673639516
11.8563518 ,Left ,48.9798158691734 ,48.7202340703918 ,66.0991693234426
11.8786394 ,Left ,49.0115530500935 ,48.7403948377973 ,66.0897419534893
11.9013496 ,Left ,49.035628294947 ,48.7670859070575 ,66.0824770387341
11.923702 ,Left ,49.0185179868274 ,48.8076234243266 ,66.0745362173453
11.9387883 ,Left ,49.0167276707093 ,48.844079715299 ,66.070884806057
11.9611698 ,Left ,49.0017074464075 ,48.8768896355922 ,66.0673135762578
11.9838517 ,Left ,48.9536199667912 ,48.9100315014112 ,66.0637594072327
11.9988128 ,Left ,48.9088412138144 ,48.9413056662858 ,66.0625982659938
12.021283 ,Left ,48.8729477957967 ,48.9811798639617 ,66.0668294138184
12.0437483 ,Left ,48.8149549334067 ,49.0287239688939 ,66.0649453650865
12.0588725 ,Left ,48.7888070470232 ,49.0806771340957 ,66.0523158366874
12.0887844 ,Left ,48.8049403706659 ,49.1248916330187 ,66.0401435902714
12.1266092 ,Left ,48.8352651653058 ,49.1590591413829 ,66.0328389089365
12.1414034 ,Left ,48.8347518959554 ,49.1905461797816 ,66.0355179425826
12.1562928 ,Left ,48.8226643352574 ,49.2173814748312 ,66.0411291448335
12.1710349 ,Left ,48.8287561651385 ,49.2206941907358 ,66.0455827784255
12.1863563 ,Left ,48.8441640823364 ,49.2122218429706 ,66.0427234558522
12.2011289 ,Left ,48.8432184986382 ,49.2105194395515 ,66.042873082179
12.2238423 ,Left ,48.834668293495 ,49.1953134002031 ,66.046222389578
12.2387799 ,Left ,48.8337223171949 ,49.1936110248581 ,66.0463740433386
12.2613059 ,Left ,48.8264598396418 ,49.1841780970714 ,66.0428428957705
12.2910683 ,Left ,48.8314321162068 ,49.1723730565658 ,66.0342736811561
12.306362 ,Left ,48.851053138868 ,49.159279651492 ,66.0294360563386
12.3337194 ,Left ,48.850492983488 ,49.1462521771355 ,66.0302296524661
12.3437939 ,Left ,48.8282444980914 ,49.1340348745111 ,66.0297445694445
12.3587711 ,Left ,48.8096519994847 ,49.128786075564 ,66.0331440013249
12.3816168 ,Left ,48.7884067013111 ,49.1227740308953 ,66.03676422301
12.4037725 ,Left ,48.7730899127032 ,49.1158211415975 ,66.0445960280608
12.4187275 ,Left ,48.7596003557639 ,49.1077732982206 ,66.0479109601465
12.4413221 ,Left ,48.7564773165205 ,49.0985719709583 ,66.0526762841872
12.4636808 ,Left ,48.7505522190192 ,49.0841393655022 ,66.055951198072
12.4786716 ,Left ,48.7376761337362 ,49.0736254450039 ,66.0639124706634
12.5013235 ,Left ,48.7253246980257 ,49.0606856293335 ,66.0790001332388
12.5238054 ,Left ,48.7115223315054 ,49.0485716283058 ,66.086672373115
12.5387306 ,Left ,48.7046214074355 ,49.0324464474203 ,66.0901812269205
12.5613607 ,Left ,48.7063380826735 ,49.0160081671136 ,66.0956570601185
12.5837608 ,Left ,48.6990823231088 ,48.995712449715 ,66.1039912378646
12.5987892 ,Left ,48.6918705826664 ,48.9799350706156 ,66.1165352316785
12.621456 ,Left ,48.7030274791707 ,48.9651377565594 ,66.1277992345972
12.6437154 ,Left ,48.688236573847 ,48.9557727602088 ,66.1404383832127
12.6588615 ,Left ,48.6643068889411 ,48.9474106467274 ,66.1666724915841
12.6886846 ,Left ,48.6607750224973 ,48.9431519963042 ,66.1872391571008
12.7111992 ,Left ,48.6751872932326 ,48.9421242520542 ,66.1973456377987
12.7263028 ,Left ,48.739180352299 ,48.9222920059237 ,66.2083813400069
12.7412526 ,Left ,48.790759615087 ,48.8931906875792 ,66.1893533255227
12.7638109 ,Left ,48.7264519061823 ,48.8949994793643 ,66.1640566172773
12.7786216 ,Left ,48.6747867675297 ,48.8874584928399 ,66.1386576920269
12.8014004 ,Left ,48.697146041153 ,48.8539402502425 ,66.0835044525607
12.8236714 ,Left ,48.7460548559783 ,48.7990286765826 ,66.019585396598
12.8460434 ,Left ,48.7803149766949 ,48.7458276596639 ,65.9586644772197
12.8613051 ,Left ,48.7668078365068 ,48.717042476774 ,65.9214084155043
12.8836938 ,Left ,48.7609214118799 ,48.7134506229775 ,65.9131476469182
12.9153587 ,Left ,48.7728508515693 ,48.7044223974709 ,65.890568480722
12.9285842 ,Left ,48.7710070608218 ,48.7028605052202 ,65.8709451215631
12.9510611 ,Left ,48.757087033698 ,48.7015572531257 ,65.869575915064
12.9661655 ,Left ,48.7117982910661 ,48.6995251427987 ,65.8681106671854
12.9817356 ,Left ,48.7168549464507 ,48.6832175179955 ,65.8580244283951
12.9961937 ,Left ,48.7533219224309 ,48.667767900798 ,65.8475155142448
13.0335685 ,Left ,48.7750082858327 ,48.671596092751 ,65.8525748511565
13.0562192 ,Left ,48.7310958215698 ,48.6823624777868 ,65.8704299585302
13.0939486 ,Left ,48.7548867025204 ,48.7163810247861 ,65.8934921713615
13.11621 ,Left ,48.7822424281342 ,48.7259265377259 ,65.893305009272
13.1537957 ,Left ,48.6463639227151 ,48.8421101232075 ,65.8941857587643
13.1763076 ,Left ,48.6041946372981 ,48.9072989331498 ,65.8994141933538
13.2139189 ,Left ,48.7211702721859 ,48.9316351365401 ,65.8667747516726
13.236353 ,Left ,48.713727502486 ,48.9223457270433 ,65.8703923567036
13.2737676 ,Left ,48.5870811688728 ,48.8524319159303 ,65.9061727028028
13.2962361 ,Left ,48.6057459444155 ,48.773657987374 ,65.9097275780993
13.3342003 ,Left ,48.6274695835473 ,48.6217387601254 ,65.8984706942875
13.3562824 ,Left ,48.6185923215543 ,48.6058837299073 ,65.8696309552327
13.3938912 ,Left ,48.5670799777817 ,48.6540930633209 ,65.7741567061214
13.4163286 ,Left ,48.6187138191029 ,48.6692643925918 ,65.7193921150391
13.4537497 ,Left ,48.6650919441418 ,48.6723882336272 ,65.6760279645663
13.4763459 ,Left ,48.6569976573776 ,48.6719443876359 ,65.6613654993159
13.5212962 ,Left ,48.666540824724 ,48.7031836399575 ,65.6015116921823
13.5819717 ,Left ,48.6718664332361 ,48.7674443809373 ,65.535237328415
13.5963609 ,Left ,48.689284620343 ,48.7536498191713 ,65.5261170489686
13.6336377 ,Left ,48.6064937688472 ,48.6823146449211 ,65.5052155876754
13.6560736 ,Left ,48.5974775458393 ,48.6381738088566 ,65.4867431238447
13.6938103 ,Left ,48.5630707808031 ,48.5359350159013 ,65.4235663555625
13.7161599 ,Left ,48.5977285143909 ,48.5131717122722 ,65.4161966739297
13.7537485 ,Left ,48.9832718185429 ,48.3991838100818 ,65.4538535298676
13.7762912 ,Left ,49.0857308549207 ,48.3672280866466 ,65.4444830950174
13.8214214 ,Left ,48.9647527918866 ,48.3828647974826 ,65.5356799043594
13.8736412 ,Left ,49.1373181880405 ,48.3001646139472 ,65.6211544541837
13.8960079 ,Left ,49.0655773025636 ,48.2434818095809 ,65.6446665750541
13.9335065 ,Left ,48.8489411347804 ,48.2669493273415 ,65.7317591020388
13.9562817 ,Left ,48.8357297696078 ,48.3517082972128 ,65.7537750683387
13.9934859 ,Left ,49.0778902614841 ,48.4470943362819 ,65.78043081567
14.016241 ,Left ,49.1392650221991 ,48.4628257841501 ,65.8170878788983
14.0535562 ,Left ,48.9618475872187 ,48.51498677134 ,65.8878632015372
14.0760938 ,Left ,48.9243713829748 ,48.537825093533 ,65.9063928589035
14.1212547 ,Left ,48.9220159719075 ,48.5901090974191 ,65.9058065209765
14.1736534 ,Left ,48.84582175035 ,48.720608212007 ,65.9299149046318
14.1960677 ,Left ,48.8608156296433 ,48.7434751955101 ,65.9252909419436
14.2335133 ,Left ,48.8188252756029 ,48.7796416356001 ,65.9212340953353
14.2560868 ,Left ,48.8197682865445 ,48.7813502831617 ,65.9210507260341
14.2935754 ,Left ,48.8255703024602 ,48.7535327780466 ,65.9021943954734
14.3162711 ,Left ,48.7818349026483 ,48.7661810372231 ,65.8974270153185
14.3535145 ,Left ,48.8075357085515 ,48.8073119903294 ,65.8803454009199
14.3762357 ,Left ,48.8040988650955 ,48.8245637251673 ,65.8729409209216
14.4134811 ,Left ,48.772837642295 ,48.8527292560797 ,65.8751324285454
14.4361523 ,Left ,48.7447473619977 ,48.8548355922318 ,65.8833700555717
14.4738527 ,Left ,48.6846670835585 ,48.8525241734526 ,65.9046203095358
14.4961332 ,Left ,48.6835764407327 ,48.8555102765665 ,65.9134317198375
14.5336053 ,Left ,48.6595166505119 ,48.8715767876172 ,65.9448201325051
14.5562766 ,Left ,48.6557205658195 ,48.8739341327459 ,65.9558697061268
14.5937893 ,Left ,48.6565311577744 ,48.8803416356795 ,65.9643125851936
14.6161873 ,Left ,48.6561372107848 ,48.8671276025711 ,65.9608088470792
14.6537079 ,Left ,48.6198573086257 ,48.8309240336445 ,65.9386963873512
14.6761553 ,Left ,48.6114238886175 ,48.8064559309479 ,65.9296992161884
14.7138176 ,Left ,48.614999227992 ,48.7554437276371 ,65.9218480499439
14.736173 ,Left ,48.5946478818657 ,48.7556045387079 ,65.9298427735938
14.7735001 ,Left ,48.677811486972 ,48.762106218929 ,65.9684112672997
14.79634 ,Left ,48.6961106473243 ,48.7677324440987 ,65.973622854003
14.833569 ,Left ,48.6723330954549 ,48.7852830804335 ,65.9760642141795
14.863635 ,Left ,48.6720006456232 ,48.7919551915028 ,65.969121964107
14.8787828 ,Left ,48.6637397171982 ,48.7964066356095 ,65.9624305898604
14.9011598 ,Left ,48.651670150959 ,48.7984460961277 ,65.9611670578038
14.9238085 ,Left ,48.6386900229413 ,48.7988807424455 ,65.9596007692665
14.9385535 ,Left ,48.6248292734698 ,48.7974634710603 ,65.9562477622954
14.9537742 ,Left ,48.6002179757312 ,48.7932303891094 ,65.9579021185949
14.9762705 ,Left ,48.5832099716911 ,48.7871655497498 ,65.9636267151937
14.9986863 ,Left ,48.5624214788988 ,48.7788155523152 ,65.974312057287
15.0136624 ,Left ,48.5529830748131 ,48.7753604999344 ,65.9887455267804
15.0286873 ,Left ,48.5385874307436 ,48.7638353505127 ,66.0101955135984
15.0513493 ,Left ,48.5040818189042 ,48.7567681552602 ,66.0373843637747
15.0661774 ,Left ,48.5063886882998 ,48.7454040825422 ,66.0755506508587
15.0887014 ,Left ,48.5418751789165 ,48.7469443479051 ,66.1245945014102
15.1111955 ,Left ,48.4854525865153 ,48.7951388303782 ,66.1737178016701
15.126326 ,Left ,48.4647125759238 ,48.829950951409 ,66.2106296605831
15.1489351 ,Left ,48.5660128381612 ,48.8124186653827 ,66.2498499642647
15.1787705 ,Left ,48.659635452879 ,48.7534115738026 ,66.2547970295794
15.1935772 ,Left ,48.5327162116837 ,48.7189283165485 ,66.2292031748196
15.2161534 ,Left ,48.3160543120835 ,48.7631976026247 ,66.2096395736405
15.2538839 ,Left ,48.3817663558541 ,48.7817634390928 ,66.1150359461718
15.2693032 ,Left ,48.5346937307568 ,48.7582714623403 ,66.0573271680368
15.2913671 ,Left ,48.5517065015533 ,48.7597424064695 ,66.0474037742559
15.3061509 ,Left ,48.448913642532 ,48.787489976378 ,66.0547296494041
15.3287434 ,Left ,48.4088621747269 ,48.8028333071244 ,66.0491913439599
15.3511604 ,Left ,48.426459418703 ,48.7990456818666 ,66.0191736880504
15.3662587 ,Left ,48.4708212335643 ,48.7960610550907 ,65.994968779434
15.3888263 ,Left ,48.4943088613685 ,48.7852324180005 ,65.9850350208534
15.4113188 ,Left ,48.4430540782834 ,48.7951263437489 ,65.9698353552954
15.4263249 ,Left ,48.3569051440373 ,48.8263347900562 ,65.9552266394637
15.4563348 ,Left ,48.3343345437 ,48.8650433762846 ,65.9473673359537
15.4784798 ,Left ,48.3911279239418 ,48.873341529657 ,65.927795012424
15.4938016 ,Left ,48.4711431878667 ,48.8757308339407 ,65.9095382940972
15.5236155 ,Left ,48.5087785052151 ,48.8797024508333 ,65.9089021261276
15.5387579 ,Left ,48.4443370664249 ,48.8822708288934 ,65.9349359370579
15.5537764 ,Left ,48.4179805582109 ,48.886634246926 ,65.9694594400507
15.5686843 ,Left ,48.4610579152701 ,48.8810141032591 ,65.9760779428033
15.5912834 ,Left ,48.4907372755786 ,48.862570977393 ,65.9777535036207
15.6062372 ,Left ,48.4984381441223 ,48.8851537111669 ,65.9824098554168
15.628661 ,Left ,48.4016681544417 ,48.9423443475172 ,65.9757798926857
15.6512487 ,Left ,48.3347556247695 ,49.0252407053474 ,65.9653591964208
15.6662076 ,Left ,48.4054888695696 ,49.0640168570801 ,65.953756579943
15.6887256 ,Left ,48.4927275866367 ,49.0602461189624 ,65.9429132739803
15.7113305 ,Left ,48.4882390842562 ,49.056154361716 ,65.9430277608802
15.74131 ,Left ,48.384480537502 ,49.0515910628526 ,65.9691480992877
15.7562954 ,Left ,48.3233181650953 ,49.0376705871459 ,66.011586328071
15.7784919 ,Left ,48.3597881622369 ,48.9940898912723 ,66.0391929488373
15.7938342 ,Left ,48.3640925017648 ,48.9434462478922 ,66.0553432799087
15.8088272 ,Left ,48.350884044187 ,48.9133866090758 ,66.0717460758859
15.831283 ,Left ,48.3335588951799 ,48.9031346462396 ,66.0804211594443
15.8537986 ,Left ,48.2946163078901 ,48.9152149726237 ,66.0640387638414
15.8763332 ,Left ,48.2140041681534 ,48.9583698930331 ,66.0304480416551
15.898604 ,Left ,48.1960503427366 ,49.0025147009307 ,65.9972776066351
15.928663 ,Left ,48.3134556107125 ,49.0384598716659 ,65.8858237606156
15.951485 ,Left ,48.3271344786549 ,49.0428792985833 ,65.8447318096537
15.9736395 ,Left ,48.3222892067688 ,49.0509558891851 ,65.8136954234949
15.9962991 ,Left ,48.32735043412 ,49.0647447707237 ,65.7790436175342
16.018544 ,Left ,48.3464534872121 ,49.0749845317996 ,65.7352711265748
16.0497597 ,Left ,48.4008376745059 ,49.0950479205579 ,65.627100615065
16.0713324 ,Left ,48.4169141242688 ,49.0959750502456 ,65.5844782091797
16.0938608 ,Left ,48.4175571269632 ,49.0857986651054 ,65.5541261455805
16.1088575 ,Left ,48.4021074412311 ,49.0620778033987 ,65.5259306517826
16.1315032 ,Left ,48.3304382421686 ,49.0288247119752 ,65.5080058677434
16.1538528 ,Left ,48.2828195827893 ,49.0010986843242 ,65.505842969191
16.1688885 ,Left ,48.3277849778921 ,48.9575878446611 ,65.5083625983459
16.1912338 ,Left ,48.3565485290104 ,48.9337619000908 ,65.5149628489782
16.2138347 ,Left ,48.3101437761391 ,48.9418960751183 ,65.552812487548
16.2286428 ,Left ,48.2664797140166 ,48.9283288993585 ,65.5715844508155
16.2512152 ,Left ,48.1877246148051 ,48.9244648490168 ,65.5303581512557
16.2736936 ,Left ,48.1719317812287 ,48.9594720766696 ,65.4829017692669
16.2887915 ,Left ,48.3109198209076 ,49.01519374614 ,65.4549309602407
16.3187392 ,Left ,48.5286863546078 ,49.0267695691629 ,65.404216666078
16.3410883 ,Left ,48.6487850874773 ,49.0134091393784 ,65.3677031244239
16.3562387 ,Left ,48.5179418010778 ,49.0342041934694 ,65.3911717196289
16.3714297 ,Left ,48.3418159448592 ,49.0693443129815 ,65.4539174908718
16.3937264 ,Left ,48.3384369890047 ,49.0823894290743 ,65.5190761331982
16.4162116 ,Left ,48.4495037939749 ,49.0844948626692 ,65.5613789271554
16.4313976 ,Left ,48.5186986276322 ,49.0731693262631 ,65.5954377570452
16.4536534 ,Left ,48.5210249982687 ,49.0385009752199 ,65.6569619077402
16.4763318 ,Left ,48.473420720616 ,49.0260602031328 ,65.7180113871772
16.491372 ,Left ,48.3358875491847 ,49.0613313519186 ,65.7524264777114
16.5137218 ,Left ,48.3072345997776 ,49.1374019273432 ,65.7754459535918
16.5437837 ,Left ,48.4366181389419 ,49.1909795556595 ,65.7581953880326
16.5590446 ,Left ,48.5965586671147 ,49.194884185919 ,65.7387883819082
16.5813306 ,Left ,48.6582517136518 ,49.1949347655581 ,65.742446743125
16.6188569 ,Left ,48.5630489303699 ,49.1945151680245 ,65.7869621418785
16.6411228 ,Left ,48.591896208577 ,49.1931249355187 ,65.8140064283465
16.6713875 ,Left ,48.6999978649321 ,49.205704957116 ,65.8235252617019
16.693819 ,Left ,48.7244688140888 ,49.2147285945162 ,65.8309680073072
16.7161685 ,Left ,48.7221460832473 ,49.2119946030893 ,65.8491337504534
16.731249 ,Left ,48.7134548361319 ,49.1970922289291 ,65.8614752410611
16.7538556 ,Left ,48.6979464552834 ,49.1813436272108 ,65.8673442533977
16.7764718 ,Left ,48.6862667576749 ,49.1768190128093 ,65.8747859221076
16.7914239 ,Left ,48.6917776344081 ,49.1872375429137 ,65.8782729112472
16.8138086 ,Left ,48.7425093602975 ,49.1951563185289 ,65.8797562046011
16.8435091 ,Left ,48.7967233408474 ,49.2009700692826 ,65.8772856561238
16.8586848 ,Left ,48.8160143955663 ,49.2037901142848 ,65.8760333595656
16.8813175 ,Left ,48.8128149402591 ,49.2144893652571 ,65.8800623131084
16.9113331 ,Left ,48.6517865500483 ,49.238832386129 ,65.9152085314014
16.9337842 ,Left ,48.578049565026 ,49.2447253670949 ,65.9491318702565
16.9563572 ,Left ,48.5822296002096 ,49.2402268144356 ,65.9491665906527
16.9711461 ,Left ,48.5565737776591 ,49.2356753721725 ,65.9241745464145
16.9937104 ,Left ,48.5268203234 ,49.2542016428599 ,65.9243103789143
17.0164871 ,Left ,48.5739435000156 ,49.2688941799269 ,65.9413569633208
17.0313722 ,Left ,48.6398784113333 ,49.2731532853174 ,65.9560671453994
17.0542603 ,Left ,48.6076777153053 ,49.2755449139492 ,65.9613110942869
17.0762216 ,Left ,48.5542975582481 ,49.2762291151955 ,65.9729441173021
17.0913155 ,Left ,48.544835774723 ,49.2593298753656 ,65.9766130442218
17.1213462 ,Left ,48.5633308696253 ,49.2403349637052 ,65.9742239902408
17.1437471 ,Left ,48.5699840755037 ,49.2214362021689 ,65.9889859236614
17.158821 ,Left ,48.5686950831926 ,49.2052505866606 ,66.014058586285
17.1813092 ,Left ,48.5744920079644 ,49.1940559134887 ,66.0408697295573
17.1962145 ,Left ,48.569052426995 ,49.1821055597668 ,66.0619683403751
17.2112041 ,Left ,48.5839086222538 ,49.1744239300584 ,66.0795080269701
17.233699 ,Left ,48.6370482918083 ,49.1632913161307 ,66.0928759132214
17.2562843 ,Left ,48.6796732231213 ,49.1534520504434 ,66.1093449844784
17.2712506 ,Left ,48.6788235757751 ,49.1455552297341 ,66.1274050878398
17.3029847 ,Left ,48.6368478790343 ,49.1514055471173 ,66.1426519394048
17.3315189 ,Left ,48.5903034158893 ,49.1686127694348 ,66.1529715415459
17.3461632 ,Left ,48.585732196532 ,49.1845113877984 ,66.1547042841339
17.3609605 ,Left ,48.6393151814864 ,49.1880105032798 ,66.1446289734347
17.3986568 ,Left ,48.7176553227238 ,49.1997662709596 ,66.1316316896098
17.4213264 ,Left ,48.7074114585868 ,49.2055408756728 ,66.1338869730766
17.4436712 ,Left ,48.6910788613678 ,49.2125695885384 ,66.1384314997013
17.4587995 ,Left ,48.6817094341298 ,49.2200944068153 ,66.1430224661268
17.4736832 ,Left ,48.6845985260458 ,49.2250641981956 ,66.1405375747978
17.4963374 ,Left ,48.6910019564654 ,49.2279772269871 ,66.1334740351438
17.5111786 ,Left ,48.6689933920943 ,49.2400386512429 ,66.1295286569781
17.5337916 ,Left ,48.6222611027823 ,49.2483025363925 ,66.1333128189641
17.5561954 ,Left ,48.5959599632495 ,49.2498581355326 ,66.1433155215138
17.578844 ,Left ,48.5919275368835 ,49.2434376812781 ,66.1529766029328
17.5936039 ,Left ,48.5728446778542 ,49.2298734064081 ,66.1610510090858
17.616301 ,Left ,48.5481572636715 ,49.2151113609614 ,66.1790891393089
17.646156 ,Left ,48.4845245858204 ,49.2067518944662 ,66.2003004464208
17.6613085 ,Left ,48.4183966348175 ,49.2018223068124 ,66.2200668210225
17.6988014 ,Left ,48.5116966665286 ,49.1565762837636 ,66.2937707265609
17.7138084 ,Left ,48.6004655231818 ,49.1188684624486 ,66.3221695628109
17.7362747 ,Left ,48.6351127870199 ,49.089318912907 ,66.3646431688428
17.7587624 ,Left ,48.6190931609894 ,49.0881202425469 ,66.4015163419616
17.7737681 ,Left ,48.5596370027691 ,49.0969278313599 ,66.3953055955858
17.7962105 ,Left ,48.4883096723265 ,49.1246642091614 ,66.3528862611018
17.8188739 ,Left ,48.4999390770746 ,49.1321337129266 ,66.2977911941197
17.8338449 ,Left ,48.5806916940734 ,49.1074293509596 ,66.2368879173029
17.8561759 ,Left ,48.5832701364837 ,49.0911173838463 ,66.1842143920825
17.8786826 ,Left ,48.5335289787542 ,49.0865471876966 ,66.1518229394376
17.8936038 ,Left ,48.5231265547426 ,49.0846409572628 ,66.1191529206549
17.9161918 ,Left ,48.552829961535 ,49.0780648422377 ,66.0781241099349
17.9387032 ,Left ,48.5806962273927 ,49.0682469962846 ,66.0370108351975
17.9610549 ,Left ,48.6100154461807 ,49.0579313128971 ,66.0048549900163
17.9834959 ,Left ,48.6404349416345 ,49.0321540825936 ,66.000609087055
18.0140481 ,Left ,48.5396385315824 ,49.0494447470941 ,65.9892613130685
18.0361365 ,Left ,48.4985888078641 ,49.0734808887042 ,65.9679471504826
18.05859 ,Left ,48.5595559938229 ,49.0769947610688 ,65.9426510335561
18.0735898 ,Left ,48.6405305473694 ,49.0565065693664 ,65.9173089272022
18.0963417 ,Left ,48.6217258735154 ,49.0378999835984 ,65.9123599708736
18.118559 ,Left ,48.5403725801353 ,49.0298427138738 ,65.9418081760339
18.1336266 ,Left ,48.5109779702466 ,49.0203094076575 ,65.9773943117865
18.1560151 ,Left ,48.5371014399492 ,49.008608306079 ,65.9898659189466
18.1786512 ,Left ,48.5602253772979 ,48.9919624655576 ,66.0073908841782
18.1935196 ,Left ,48.5710814443059 ,49.0177048394902 ,66.0272403349703
18.2161102 ,Left ,48.4774119545615 ,49.0784825873001 ,66.0398279444226
18.2386465 ,Left ,48.4126004967407 ,49.1435116408173 ,66.0550655341649
18.2544671 ,Left ,48.465257693382 ,49.174648941107 ,66.0567622445861
18.2761932 ,Left ,48.5356077840913 ,49.1692276130367 ,66.0555042402422
18.3013918 ,Left ,48.5284389348682 ,49.1582412220223 ,66.0766900634468
18.3138212 ,Left ,48.4548113709831 ,49.1287599489015 ,66.1091734173478
18.3362231 ,Left ,48.3743871279476 ,49.0830593307078 ,66.1387030044818
18.3587873 ,Left ,48.3082388870736 ,49.0271536548355 ,66.166436378721
18.3735923 ,Left ,48.3010947410182 ,48.9494378019701 ,66.1927475371446
18.3963088 ,Left ,48.3225667555294 ,48.8683456509699 ,66.1927008196546
18.4187848 ,Left ,48.1964934176421 ,48.8212053798562 ,66.217722257265
18.4412892 ,Left ,48.0741841437163 ,48.83814853319 ,66.2227901151743
18.4561454 ,Left ,48.057190871137 ,48.9048193877689 ,66.2031602026324
18.4787978 ,Left ,48.1274612593233 ,48.9625059970122 ,66.1670767878383
18.5015698 ,Left ,48.2305980916703 ,48.9704434935646 ,66.1195244939281
18.5168173 ,Left ,48.3245705180191 ,48.9594426059485 ,66.083564055091
18.5386693 ,Left ,48.353706973905 ,48.9445602649661 ,66.0540453013443
18.5686387 ,Left ,48.3029642533346 ,48.9383041611215 ,66.0285525229639
18.5835756 ,Left ,48.260905315206 ,48.933007700459 ,65.9804617541941
18.6213537 ,Left ,48.2200499799132 ,48.9373303513976 ,65.8589993128187
18.6362999 ,Left ,48.2183608604833 ,48.9409644692119 ,65.8121787191093
18.6588316 ,Left ,48.2472595735688 ,48.9283205799284 ,65.7712742667817
18.6812067 ,Left ,48.2532464808571 ,48.9103137896855 ,65.7326735725864
18.6962024 ,Left ,48.2163270274834 ,48.891343011659 ,65.7011140411842
18.7188272 ,Left ,48.1803074271023 ,48.8681892047583 ,65.6897273431367
18.7490603 ,Left ,48.2068661104977 ,48.7834604143429 ,65.6346083937959
18.7713584 ,Left ,48.1793048899212 ,48.7573729763206 ,65.6076770228732
18.8088063 ,Left ,48.3258078956038 ,48.6288720697053 ,65.6182854825734
18.8312494 ,Left ,48.4068478789118 ,48.5261145426508 ,65.6271998370526
18.8685615 ,Left ,48.3131076446688 ,48.4653268833251 ,65.6188720413987
18.8912862 ,Left ,48.4676399079791 ,48.3982321386886 ,65.6079942346299
18.9286433 ,Left ,48.5888061565621 ,48.3396159678186 ,65.6887838320677
18.9587734 ,Left ,48.5382060261494 ,48.3438880820317 ,65.7740952411116
18.9887427 ,Left ,48.563418045158 ,48.3121691207336 ,65.8828118259387
19.0186036 ,Left ,48.5789409160384 ,48.2797100040813 ,65.9106502897108
19.0562582 ,Left ,48.3929760974958 ,48.2959690151918 ,65.9907687076111
19.071314 ,Left ,48.3185277405491 ,48.3681799470387 ,66.0044437918595
19.1087999 ,Left ,48.5012686532558 ,48.459627457322 ,66.016650087986
19.1309837 ,Left ,48.567686225265 ,48.4968588888939 ,66.0266430137855
19.1686329 ,Left ,48.4323626660473 ,48.6125209397765 ,66.0816774120285
19.1913148 ,Left ,48.4333385791829 ,48.6725932591874 ,66.0994523695661
19.2288534 ,Left ,48.5289294703041 ,48.7709384575191 ,66.083731674497
19.2514966 ,Left ,48.5317732427839 ,48.8269751997297 ,66.0731465646672
19.2961817 ,Left ,48.4505339168328 ,48.8991334843146 ,66.0931889736383
19.3563033 ,Left ,48.4677175581896 ,48.8631516018829 ,66.1036806211443
19.3786478 ,Left ,48.4969734710605 ,48.83130962697 ,66.0994400427373
19.4086025 ,Left ,48.5285142001622 ,48.7232181423537 ,66.1270387380467
19.4313194 ,Left ,48.4958858309082 ,48.6967617717871 ,66.1287994852052
19.4692096 ,Left ,48.5485577889015 ,48.6649740846565 ,66.1071485558295
19.4914584 ,Left ,48.5970393208529 ,48.6577248210171 ,66.0868591188584
19.5287869 ,Left ,48.602324988821 ,48.6711944878472 ,66.018998882631
19.5511551 ,Left ,48.5740521214208 ,48.6772727321224 ,65.9938336681621
19.5885221 ,Left ,48.5182257030647 ,48.6820998728275 ,65.9396431798306
19.6187637 ,Left ,48.5068224073728 ,48.688023092057 ,65.9266477452781
19.6565325 ,Left ,48.5041895784819 ,48.7226002513851 ,65.9175959680344
19.6713141 ,Left ,48.4988778052836 ,48.7592495158866 ,65.9329856677836
19.7087333 ,Left ,48.526357389492 ,48.8382470982331 ,66.0457410699369
19.7312954 ,Left ,48.5654163892711 ,48.8596743708397 ,66.073131467976
19.7688151 ,Left ,48.6716234974872 ,48.8752965789735 ,66.1152474841964
19.7914509 ,Left ,48.6379727993611 ,48.896725526724 ,66.1331026296563
19.8285081 ,Left ,48.5740334217399 ,48.9545892759922 ,66.1424405105103
19.8512097 ,Left ,48.5717417985445 ,48.9626594091597 ,66.1440248874242
19.8886196 ,Left ,48.5327447554299 ,48.9763426494085 ,66.1813237813948
19.9109936 ,Left ,48.5408476438437 ,48.9706219734725 ,66.2167392645422
19.9488441 ,Left ,48.5317580101296 ,48.9684355262459 ,66.2752428785683
19.9711831 ,Left ,48.5440282156812 ,48.9890438053619 ,66.3024729719574
20.0160758 ,Left ,48.6599289537055 ,49.0102885129382 ,66.3593156196123
20.0686478 ,Left ,48.6793568761348 ,49.0216848057877 ,66.4489257083123
20.0913437 ,Left ,48.712977403501 ,49.038747121224 ,66.4617047801702
20.1287454 ,Left ,48.8208859832473 ,49.0826234197234 ,66.4581318373633
20.1511727 ,Left ,48.8571027894823 ,49.106680646639 ,66.4554785312461
20.1887932 ,Left ,48.8297572129625 ,49.1554364351773 ,66.4385320533679
20.2112246 ,Left ,48.8524043076635 ,49.1624240107223 ,66.4211910790078
20.2485323 ,Left ,48.8380351006302 ,49.1651291071769 ,66.3795415924949
20.2713192 ,Left ,48.8103775883156 ,49.157923933309 ,66.3589330822189
20.3088081 ,Left ,48.7159239567197 ,49.1189559897565 ,66.3343794389092
20.3313296 ,Left ,48.6751872536605 ,49.0968404160249 ,66.3197974105473
20.3687623 ,Left ,48.6146646242765 ,49.0230043589903 ,66.2986536671935
20.3913264 ,Left ,48.554631846348 ,48.9858981635108 ,66.3195520255777
20.4287622 ,Left ,48.473418792439 ,48.9691925858026 ,66.4011466248959
20.4585538 ,Left ,48.5244417430037 ,48.9790216716002 ,66.4269041343317
20.4960925 ,Left ,48.6163416185864 ,48.9877504539746 ,66.3517973403617
20.51124 ,Left ,48.556801341229 ,49.0137337222653 ,66.3224012060535
20.5487187 ,Left ,48.5701195438999 ,48.9801740248437 ,66.2656288467925
20.5716857 ,Left ,48.6084968073618 ,48.9516348776745 ,66.2494357710056
20.5862792 ,Left ,48.601535970626 ,48.9446471376394 ,66.2639665546561
20.6016802 ,Left ,48.6194879532667 ,48.935221803187 ,66.2854775809542
20.6237637 ,Left ,48.6287578720397 ,48.9121539442496 ,66.2864819830492
20.6462879 ,Left ,48.6117734222793 ,48.8766808900643 ,66.2742244035913
20.6611234 ,Left ,48.6005853258298 ,48.8513770149935 ,66.2608642940277
20.683696 ,Left ,48.5371269293873 ,48.8332104743136 ,66.2569612645337
20.7061477 ,Left ,48.4559375948329 ,48.8426575113215 ,66.250416297484
20.7287399 ,Left ,48.4411769644011 ,48.8769999520572 ,66.2242685759571
20.751486 ,Left ,48.5215897823204 ,48.882822159786 ,66.2011722003251
20.7735165 ,Left ,48.5864256515426 ,48.8821831008267 ,66.1904292884025
20.788555 ,Left ,48.5736794654044 ,48.8914803040988 ,66.1931616979828
20.8037606 ,Left ,48.553373147813 ,48.8980879550375 ,66.1851355098389
20.8260866 ,Left ,48.5225169210431 ,48.8924887769428 ,66.1648127026514
20.8412719 ,Left ,48.5188560606312 ,48.8870532647277 ,66.1389708392568
20.8636453 ,Left ,48.5382698164078 ,48.8895816195867 ,66.1353406034036
20.8862308 ,Left ,48.5789542486948 ,48.8872403663278 ,66.1395389169746
20.901047 ,Left ,48.5014620628697 ,48.9217673923964 ,66.1576382821398
20.9237606 ,Left ,48.3481034872368 ,49.007461786069 ,66.1719885333696
20.9462606 ,Left ,48.3068827186588 ,49.092558575194 ,66.166424527799
20.9612612 ,Left ,48.3732050653974 ,49.1480229790449 ,66.1299366710368
20.9838443 ,Left ,48.547340103465 ,49.1355979290701 ,66.1124795325082
21.0135475 ,Left ,48.6136748515901 ,49.1034214319401 ,66.1178187352787
21.0287402 ,Left ,48.5019399572007 ,49.0879319847915 ,66.1333707844928
21.0512204 ,Left ,48.363996989122 ,49.0817323537635 ,66.1906178033359
21.0661331 ,Left ,48.2983509154649 ,49.0686038206892 ,66.2355701467596
21.0812577 ,Left ,48.3678308420909 ,49.0454459583155 ,66.2352145511097
21.1038395 ,Left ,48.4296372092038 ,49.0101496248112 ,66.2118043445998
21.1263493 ,Left ,48.4461907063695 ,49.0029317340168 ,66.2021301212591
21.1488903 ,Left ,48.4428392312221 ,49.0478535305009 ,66.1549364226068
21.1635657 ,Left ,48.4198943082981 ,49.1164195871867 ,66.0939935100527
21.1862647 ,Left ,48.3846014640484 ,49.1765124299609 ,66.0476147934646
21.2012502 ,Left ,48.4217317978182 ,49.2185923302622 ,65.9942243014034
21.2237755 ,Left ,48.4605989281594 ,49.2595916268311 ,65.9340909862706
21.246248 ,Left ,48.4321459067472 ,49.2996972232764 ,65.8774930263747
21.2613207 ,Left ,48.4106266696184 ,49.3297330745648 ,65.8370874750185
21.2836478 ,Left ,48.4015396876049 ,49.3464969483097 ,65.8013000137867
21.3063051 ,Left ,48.4128540580401 ,49.352694471617 ,65.7734148012415
21.3211367 ,Left ,48.4384000557954 ,49.3398033550839 ,65.7400084388175
21.343769 ,Left ,48.4262121685838 ,49.3094032220671 ,65.6982601123976
21.3662583 ,Left ,48.4080999091277 ,49.2799353403186 ,65.6544511724455
21.3886527 ,Left ,48.4019429520318 ,49.2534177999526 ,65.6255683127985
21.4036498 ,Left ,48.3800080814122 ,49.2359014083901 ,65.6124342148383
21.4261331 ,Left ,48.3442200670097 ,49.2258832490149 ,65.6041788755561
21.4486201 ,Left ,48.3615210766139 ,49.2165410323587 ,65.5992500392805
21.4637588 ,Left ,48.3847217119079 ,49.2110234297886 ,65.6050039131658
21.4861929 ,Left ,48.3296238844655 ,49.207450958908 ,65.6104460449497
21.5087794 ,Left ,48.2044218190447 ,49.2078520179462 ,65.6058057708261
21.5237768 ,Left ,48.0110310934528 ,49.2093123529982 ,65.6080948362779
21.5462888 ,Left ,47.7842325237226 ,49.2065678673968 ,65.6134422050635
21.5760794 ,Left ,47.7819861419061 ,49.1996084791247 ,65.6251213405657
21.5911672 ,Left ,47.8678296631094 ,49.2110989392117 ,65.6210866142964
21.6136831 ,Left ,47.9116237494278 ,49.2142294777863 ,65.6178418455776
21.6288527 ,Left ,48.0253168114218 ,49.1907197676711 ,65.6085467691481
21.6438081 ,Left ,48.045234450396 ,49.1914308596 ,65.6138827994823
21.6662448 ,Left ,47.9577898965104 ,49.2273344799851 ,65.665009776592
21.6886305 ,Left ,47.9312527841297 ,49.2529936479465 ,65.7128838610911
21.7037743 ,Left ,48.0182609250976 ,49.2546094113983 ,65.7521809623652
21.7263524 ,Left ,48.1553748976572 ,49.2329446430158 ,65.7790035232685
21.7486293 ,Left ,48.1931962293967 ,49.2010043820388 ,65.8214059580611
21.7637445 ,Left ,48.0998029167899 ,49.204905563875 ,65.8662050789928
21.7862426 ,Left ,47.9678487560868 ,49.2576711617557 ,65.8877812517608
21.8088257 ,Left ,47.9704276233529 ,49.3274080301322 ,65.8888062313241
21.8236702 ,Left ,48.111428657343 ,49.3606340556919 ,65.8700598610392
21.8537723 ,Left ,48.286780800129 ,49.3696073588806 ,65.8715319675916
21.8760391 ,Left ,48.3753489204555 ,49.380186539753 ,65.8999730665551
21.8914305 ,Left ,48.3372835718994 ,49.3920732691863 ,65.9518053080641
21.9072597 ,Left ,48.297535365492 ,49.4002186770853 ,65.9951216300303
21.9287718 ,Left ,48.337614559928 ,49.3898620368226 ,66.0122244861738
21.9436575 ,Left ,48.4217417471187 ,49.3767156751193 ,66.0043831280203
21.9663421 ,Left ,48.4704886250812 ,49.3718302119719 ,65.9957581086055
21.9886863 ,Left ,48.4843400031732 ,49.3685591211321 ,65.9931429440446
22.0036409 ,Left ,48.4784315827605 ,49.3695311709694 ,65.9884574464402
22.0261313 ,Left ,48.4521175653521 ,49.3660324450901 ,65.9882735920053
22.048821 ,Left ,48.4286961846104 ,49.3677177282702 ,65.9871019918193
22.0638064 ,Left ,48.4529596967682 ,49.363332488167 ,65.9859110611373
22.086274 ,Left ,48.4956272518057 ,49.3597164562955 ,65.9795845922833
22.1090558 ,Left ,48.4973342885537 ,49.3587836642452 ,65.9795424725518
22.1238069 ,Left ,48.4918515004072 ,49.3622510049649 ,65.9955874597717
22.1535278 ,Left ,48.5115604526888 ,49.3584219397122 ,66.0036291198805
22.176258 ,Left ,48.5262427751765 ,49.3571880625547 ,66.007324271717
22.2062877 ,Left ,48.5256584318845 ,49.3537772864801 ,66.027521752248
22.2287328 ,Left ,48.5372938408095 ,49.3432233922315 ,66.0339887155148
22.2436185 ,Left ,48.5384273418142 ,49.3340011970148 ,66.0434853800521
22.2662743 ,Left ,48.5359346845183 ,49.3224500236461 ,66.0553515869959
22.2886651 ,Left ,48.5589351673305 ,49.2817026770855 ,66.0785489554178
22.3186919 ,Left ,48.5796416636943 ,49.2132337352247 ,66.1061959693443
22.3337509 ,Left ,48.5480305272213 ,49.1516713059723 ,66.1428328584302
22.3562915 ,Left ,48.5021261187627 ,49.1143567913857 ,66.1960600583168
22.371253 ,Left ,48.4851514232834 ,49.0743778017001 ,66.2602435706408
22.3935338 ,Left ,48.4827796203922 ,49.0331224136065 ,66.3252179727727
22.4163658 ,Left ,48.5118431106476 ,48.9916047045676 ,66.3820476566161
22.4384797 ,Left ,48.5681448577988 ,48.9655228868261 ,66.4272892916913
22.4537686 ,Left ,48.6073399721699 ,48.9599147312246 ,66.4682674405044
22.4686388 ,Left ,48.5997073105495 ,48.969753100689 ,66.5034609630714
22.4912932 ,Left ,48.5730961573966 ,48.9922347960657 ,66.5284617775908
22.5062639 ,Left ,48.5858667447512 ,49.0234245664265 ,66.5389928629142
22.5285407 ,Left ,48.6227317990148 ,49.0608483667754 ,66.543470426007
22.5512264 ,Left ,48.6606730309744 ,49.0886565092068 ,66.5511920107326
22.5661197 ,Left ,48.6804069929175 ,49.1156345650327 ,66.5552140005455
22.5887556 ,Left ,48.6737278877771 ,49.1398433816385 ,66.5631591557296
22.6111882 ,Left ,48.6620335959314 ,49.1668181029619 ,66.5692108811836
22.626295 ,Left ,48.6823942262187 ,49.186490464804 ,66.5671793383702
22.6561696 ,Left ,48.7264473288354 ,49.1879468617615 ,66.5532931974647
22.6863115 ,Left ,48.7349901226348 ,49.1986688502694 ,66.5500904065969
22.7024555 ,Left ,48.7124924149704 ,49.2230320552621 ,66.5635741109163
22.7162473 ,Left ,48.6750918623709 ,49.2495386827234 ,66.5864309506577
22.7311763 ,Left ,48.670798911883 ,49.2703884338892 ,66.5985802739662
22.7463112 ,Left ,48.6909901978316 ,49.2793580962228 ,66.6130364817791
22.7687229 ,Left ,48.7051213353615 ,49.2896522002804 ,66.6298293464925
22.7913081 ,Left ,48.7001183572187 ,49.2972352524332 ,66.6387784311244
22.8061567 ,Left ,48.6958450214907 ,49.2974402392691 ,66.6364922833356
22.8287494 ,Left ,48.6916009286248 ,49.2975198838044 ,66.632172607644
22.8512743 ,Left ,48.6784657359876 ,49.2937159176592 ,66.6260833398375
22.8663417 ,Left ,48.6535915302503 ,49.2855318170208 ,66.6255163184736
22.8886262 ,Left ,48.6347529457174 ,49.2761275059348 ,66.6246967013661
22.9113381 ,Left ,48.6231011265549 ,49.2558640533595 ,66.624152940475
22.9262813 ,Left ,48.6157173502788 ,49.2353993560988 ,66.625906837567
22.9485678 ,Left ,48.5960312127296 ,49.2131164351946 ,66.628091503582
22.971321 ,Left ,48.5969157172056 ,49.1881325619765 ,66.6362742393469
22.9861179 ,Left ,48.6000310299172 ,49.155004552671 ,66.6403148543557
23.008694 ,Left ,48.6218598673049 ,49.1109058594814 ,66.6372990162198
23.0312973 ,Left ,48.6736891587569 ,49.0672691714782 ,66.6236557125464
23.0462256 ,Left ,48.7496643768003 ,49.0030103880434 ,66.6077580152152
23.0689025 ,Left ,48.71203912779 ,48.9562901688024 ,66.5582963515161
23.0913168 ,Left ,48.5294722044615 ,48.9714446192025 ,66.4962381638376
23.1138105 ,Left ,48.4221328235512 ,48.9971175654746 ,66.440603555482
23.1288038 ,Left ,48.4877805253146 ,48.991493372 ,66.3722204034972
23.1520124 ,Left ,48.5990511025841 ,48.9605630850059 ,66.3076853148148
23.1737897 ,Left ,48.6461260080622 ,48.9378970012308 ,66.2748801606913
23.188741 ,Left ,48.6120983625635 ,48.9368176557342 ,66.2748328610787
23.2112934 ,Left ,48.5456934182294 ,48.9385252108583 ,66.282980897818
23.2412865 ,Left ,48.5168091681127 ,48.9407027775 ,66.2648284827182
23.2562656 ,Left ,48.5403735483657 ,48.9356149439066 ,66.2323948304935
23.2937691 ,Left ,48.5613607818643 ,48.9746120707151 ,66.2084786296577
23.3087771 ,Left ,48.4716858674904 ,49.0243395874427 ,66.1991891748502
23.3313605 ,Left ,48.4790976143719 ,49.0442600424922 ,66.186662924674
23.3536118 ,Left ,48.5451233166934 ,49.0200741742821 ,66.1577519228306
23.368764 ,Left ,48.5683653576596 ,48.9861527963396 ,66.120558888279
23.3911768 ,Left ,48.5171046587146 ,48.9560890997236 ,66.1034064643625
23.4138101 ,Left ,48.4481488894565 ,48.9318735441783 ,66.1023200506791
23.4287157 ,Left ,48.4612102472424 ,48.9158784238858 ,66.1070728560192
23.45126 ,Left ,48.5005475324968 ,48.8985105177504 ,66.1059622695839
23.473738 ,Left ,48.5397708239048 ,48.8858716919783 ,66.1135035733362
23.4887124 ,Left ,48.4761739120215 ,48.917117962581 ,66.1283536738551
23.5111335 ,Left ,48.3842063029965 ,48.9621455790932 ,66.1507871883306
23.5338614 ,Left ,48.3984068076225 ,48.9815671079649 ,66.1687223362739
23.5488184 ,Left ,48.4720591333608 ,48.9849934603544 ,66.1595300357416
23.5787713 ,Left ,48.5089505342875 ,48.9866189293981 ,66.1527452160253
23.601156 ,Left ,48.4829531988675 ,48.9922150723128 ,66.1561986006961
23.6163465 ,Left ,48.4324447888744 ,48.9981354556225 ,66.163425496581
23.6312687 ,Left ,48.3913258837033 ,49.0121119918056 ,66.1623926720316
23.6537002 ,Left ,48.3591261218451 ,49.0297941245399 ,66.1589024661356
23.6686603 ,Left ,48.3575365898092 ,49.0351354519539 ,66.1611017242636
23.6911398 ,Left ,48.4088432481684 ,49.0574726731713 ,66.1426545885638
23.7137741 ,Left ,48.4257792853492 ,49.0836285082645 ,66.1399953709516
23.7286452 ,Left ,48.3875301814468 ,49.1271855756253 ,66.1439728054357
23.7512674 ,Left ,48.3401752824938 ,49.1838991869574 ,66.1226008857855
23.773802 ,Left ,48.2996267892214 ,49.2467782701909 ,66.0787856219288
23.7888278 ,Left ,48.2892450378869 ,49.2945831134364 ,66.0181108830848
23.8111145 ,Left ,48.3399558424358 ,49.3087148113612 ,65.9594013965145
23.8351939 ,Left ,48.336499955887 ,49.3217552281017 ,65.9054657871255
23.8486276 ,Left ,48.3195967455662 ,49.3360464654281 ,65.8677863518778
23.8712914 ,Left ,48.3068744417075 ,49.341177094035 ,65.8235669901643
23.8936059 ,Left ,48.2992544931872 ,49.3384664026881 ,65.7692085172877
23.9086351 ,Left ,48.2994522960515 ,49.329280528755 ,65.7099322161674
23.9311038 ,Left ,48.2981835993602 ,49.3102307375013 ,65.6629121198782
23.9537847 ,Left ,48.3009558745142 ,49.2874960468213 ,65.6287913841908
23.9687375 ,Left ,48.2920446070253 ,49.2651909235622 ,65.6127305126508
23.9911668 ,Left ,48.2816750994324 ,49.2375895521576 ,65.6129844294554
24.0137443 ,Left ,48.2711235208496 ,49.2012355478116 ,65.6114775670512
24.0287896 ,Left ,48.2818154845443 ,49.1560150878869 ,65.6185753088339
24.05249 ,Left ,48.3458386963098 ,49.0912878234624 ,65.628296552928
24.0737743 ,Left ,48.4141822284942 ,49.0160267009526 ,65.6557374040215
24.088622 ,Left ,48.3592598868858 ,48.988587301208 ,65.7380079634866
24.1112944 ,Left ,48.246296825876 ,48.9667519485981 ,65.8371102021645
24.1338701 ,Left ,48.2695243607356 ,48.9733255361038 ,65.8774658449496
24.156278 ,Left ,48.3557631686644 ,48.9836267748891 ,65.8626104996221
24.1713513 ,Left ,48.5426339431762 ,48.9440645791097 ,65.8564046244261
24.1935927 ,Left ,48.7570650214276 ,48.8921734216395 ,65.8695316062969
24.2160263 ,Left ,48.8428223223383 ,48.848106350048 ,65.8846375182563
24.2312798 ,Left ,48.7864962404977 ,48.8370918988545 ,65.9130381817689
24.2537044 ,Left ,48.7121466027378 ,48.8564901404375 ,65.9650860342333
24.2761979 ,Left ,48.67708148286 ,48.8882203292449 ,66.0295687202527
24.2911458 ,Left ,48.7487360189391 ,48.9052084193941 ,66.0663705581402
24.3136145 ,Left ,48.8625507106728 ,48.8825040570028 ,66.0703074533926
24.3434679 ,Left ,48.9040864478545 ,48.8509141790304 ,66.0876300640592
24.3585471 ,Left ,48.8526184238901 ,48.8512597902565 ,66.1369850128338
24.3810106 ,Left ,48.7791837313245 ,48.8948524420173 ,66.1744928069693
24.3962268 ,Left ,48.7413645434202 ,48.9719602121693 ,66.1873434772621
24.4111444 ,Left ,48.7812649498806 ,49.0386816644664 ,66.1793980120403
24.4336793 ,Left ,48.8934951407328 ,49.0582338650146 ,66.1548295119734
24.4565584 ,Left ,48.9897475853942 ,49.0424837128773 ,66.1441599253494
24.4722326 ,Left ,48.9654763247951 ,49.0269778284922 ,66.1464495356675
24.4936707 ,Left ,48.8737242767776 ,49.0269611962644 ,66.1574100193873
24.5237725 ,Left ,48.8127325863828 ,49.0343150322915 ,66.1691986637873
24.5462848 ,Left ,48.8321088155892 ,49.0368431663775 ,66.1658413186169
24.5837688 ,Left ,48.8136347361658 ,49.0361360848559 ,66.171035528735
24.6137235 ,Left ,48.7745527402776 ,49.0424214645021 ,66.1770823027206
24.6512547 ,Left ,48.7479538734711 ,49.0458677928655 ,66.1695251002478
24.6663011 ,Left ,48.7745078006997 ,49.0440450256317 ,66.1529476950776
24.7036989 ,Left ,48.7595944197251 ,49.0983447636255 ,66.12191636367
24.7263649 ,Left ,48.7674236950422 ,49.131673057318 ,66.1128660349402
24.7635009 ,Left ,48.7834956085011 ,49.1821035412477 ,66.0828644271626
24.7861734 ,Left ,48.7678589567822 ,49.2172140751063 ,66.072683976362
24.8237724 ,Left ,48.7933100951087 ,49.2585728723798 ,66.0648364090463
24.8461483 ,Left ,48.7828524415338 ,49.2752416286171 ,66.0579638228835
24.8835382 ,Left ,48.7600087684449 ,49.3251618977648 ,66.043380119217
24.906236 ,Left ,48.7653958439348 ,49.3418571375034 ,66.0286822490299
24.9437582 ,Left ,48.7060534995145 ,49.3893569903638 ,66.0042399185594
24.966131 ,Left ,48.6791411542503 ,49.4081722892074 ,65.9936400305413
25.0035743 ,Left ,48.6264571578953 ,49.4322463002988 ,65.978650449252
25.0262628 ,Left ,48.6105000621892 ,49.4429068651769 ,65.9699277692536
25.0637307 ,Left ,48.5947649374749 ,49.4380361600263 ,65.9640995905713
25.0863115 ,Left ,48.5744943128174 ,49.4338349714082 ,65.9694514220377
25.1235148 ,Left ,48.5955212520917 ,49.4154673113392 ,65.9678822491152
25.1462794 ,Left ,48.5957594574193 ,49.3950975857017 ,65.9601242679266
25.1912498 ,Left ,48.5155763021327 ,49.3607225875439 ,65.9434729646395
25.2136822 ,Left ,48.5284674413206 ,49.3267846926566 ,65.93342517688
25.2437371 ,Left ,48.5695940088055 ,49.2493272572678 ,65.9468656330932
25.2659838 ,Left ,48.5530070773868 ,49.2365864016582 ,65.9621556942199
25.3035078 ,Left ,48.5686938306323 ,49.2451110664375 ,66.0094558120411
25.3262619 ,Left ,48.5857278914169 ,49.2544485595297 ,66.039227375696
25.3637323 ,Left ,48.5868890487503 ,49.2626516706118 ,66.1100363060202
25.3860542 ,Left ,48.6067142540428 ,49.2525675960407 ,66.1359845643165
25.4313101 ,Left ,48.5887029373324 ,49.2390406128963 ,66.1689743885583
25.4536321 ,Left ,48.6016278506736 ,49.2387971276498 ,66.1747122812779
25.4835904 ,Left ,48.5760706784145 ,49.2222811433657 ,66.1903855495908
25.5060336 ,Left ,48.4784888069962 ,49.2279427983839 ,66.2017386669635
25.5434713 ,Left ,48.3669917096067 ,49.2467326845533 ,66.2353828817002
25.5662799 ,Left ,48.3717106117818 ,49.2400804389138 ,66.2440825374938
25.6034869 ,Left ,48.4270827872421 ,49.1991106447759 ,66.2798870720643
25.6259785 ,Left ,48.4003169165665 ,49.1551721046329 ,66.3175471275467
25.6638597 ,Left ,48.3842868745675 ,49.0548369940899 ,66.3875752932349
25.6865492 ,Left ,48.458094610252 ,49.0137707902701 ,66.4084544183426
25.7311305 ,Left ,48.5894151998168 ,48.9980986229702 ,66.3393477235759
25.7536616 ,Left ,48.5518523856575 ,49.0242121119742 ,66.277289089447
25.80641 ,Left ,48.5051491626919 ,49.001381698177 ,66.1299135197562
25.8434723 ,Left ,48.5795206367436 ,49.03299244766 ,66.1084495074338
25.8659675 ,Left ,48.602239998927 ,49.0446171364061 ,66.0951125896172
25.9113386 ,Left ,48.5826905675519 ,49.0530584781139 ,66.0913429914827
25.9337053 ,Left ,48.5460528015363 ,49.0603720328177 ,66.1038119852472
25.9634486 ,Left ,48.4482830122152 ,49.0978979497141 ,66.0783719233406
25.9860339 ,Left ,48.5647789235258 ,49.0929076478632 ,66.0498349864985
26.016197 ,Left ,48.5485701711537 ,49.1149115351585 ,66.0404111798045
26.0461898 ,Left ,48.5082169752782 ,49.1199085749215 ,66.0577298511425
26.0835596 ,Left ,48.5254992776593 ,49.1086851840025 ,66.0753274353162
26.1062259 ,Left ,48.5379287058201 ,49.1151949041805 ,66.0765376769768
26.1435124 ,Left ,48.563165404267 ,49.1462880397791 ,66.0932233716079
26.1659639 ,Left ,48.4427685694678 ,49.2017457266321 ,66.0938204741499
26.203566 ,Left ,48.4276085325786 ,49.2593423397257 ,66.1022975953901
26.2260113 ,Left ,48.498529039668 ,49.2467017005616 ,66.0995906898153
26.2710915 ,Left ,48.3794129878956 ,49.2103785121044 ,66.163488079627
26.2861044 ,Left ,48.3669974904909 ,49.1517170240713 ,66.1991827836629
26.3162367 ,Left ,48.3544492447211 ,48.9580542694986 ,66.1994543158634
26.3386632 ,Left ,48.2911300188541 ,48.9206475632203 ,66.1663531467149
26.3613942 ,Left ,48.2553752344938 ,48.9435625936344 ,66.1242865952071
26.3761312 ,Left ,48.2303161972631 ,48.9994892300924 ,66.0621735608062
26.398819 ,Left ,48.2398391981879 ,49.029605707135 ,65.9971212734585
26.4211516 ,Left ,48.2968484036985 ,49.0340164920346 ,65.9376502522948
26.4360828 ,Left ,48.320611758492 ,49.0435970534789 ,65.886884418455
26.4586421 ,Left ,48.2520893256703 ,49.068185347813 ,65.8498208554605
26.4813074 ,Left ,48.1934584273086 ,49.0938219572621 ,65.8045572561029
26.4963242 ,Left ,48.2361784273581 ,49.1065381265568 ,65.7592071527141
26.5262791 ,Left ,48.2815998732641 ,49.1153606974931 ,65.7051991127007
26.5563166 ,Left ,48.2661798720285 ,49.1348927623507 ,65.6563644061507
26.5713481 ,Left ,48.2462820936974 ,49.1500711680877 ,65.6057755219895
26.5860068 ,Left ,48.2462147530403 ,49.1613079331905 ,65.5565937435672
26.6161306 ,Left ,48.225667879395 ,49.1456127050972 ,65.4992025831219
26.6388274 ,Left ,48.21390123639 ,49.1229720037782 ,65.4949389312151
26.6610609 ,Left ,48.2208226940945 ,49.1000090857415 ,65.507063083391
26.6761745 ,Left ,48.233939383242 ,49.0803776951799 ,65.5184703374103
26.6988073 ,Left ,48.2039532715034 ,49.0642660679443 ,65.5456392736985
26.7212375 ,Left ,48.1753812072381 ,49.0477836806854 ,65.5816850910686
26.7363555 ,Left ,48.1944127335399 ,49.0271897705021 ,65.5952206750655
26.7587388 ,Left ,48.1891383333331 ,48.9980658300236 ,65.5713956079715
26.7813967 ,Left ,48.2834557931699 ,48.9657807490845 ,65.5125548226379
26.80362 ,Left ,48.5932636319133 ,48.9636348990154 ,65.4617378582107
26.8187044 ,Left ,48.8302954649264 ,48.9874469877372 ,65.4147779436949
26.8485547 ,Left ,48.8749644884571 ,49.0403413624556 ,65.3858028591156
26.8710836 ,Left ,48.7643701859746 ,49.1032268897673 ,65.4052044711772
26.8860505 ,Left ,48.6224607247722 ,49.181844577002 ,65.4716810784032
26.901312 ,Left ,48.6197924653926 ,49.2583394914753 ,65.5486762277185
26.9238537 ,Left ,48.6846117375656 ,49.3086670973298 ,65.5852819789108
26.9387884 ,Left ,48.7238802833243 ,49.3256689254893 ,65.6003821526799
26.961151 ,Left ,48.7393916636889 ,49.3253253288267 ,65.645949295007
26.9837785 ,Left ,48.6566366519146 ,49.3223856951754 ,65.6867282415568
26.9986228 ,Left ,48.4897381595427 ,49.3464691772584 ,65.7107290223475
27.0212785 ,Left ,48.4010153769891 ,49.3928271550486 ,65.7343281933882
27.0436365 ,Left ,48.489585540856 ,49.4091625199597 ,65.7290157725174
27.0588135 ,Left ,48.6783120895874 ,49.3977122502666 ,65.7152617486804
27.0811793 ,Left ,48.7730323568837 ,49.3978541731382 ,65.7221951452327
27.1037169 ,Left ,48.7371079367005 ,49.4068220355754 ,65.7477966068975
27.1186888 ,Left ,48.6730951421554 ,49.4045168998489 ,65.7700978308493
27.1416134 ,Left ,48.6638941156614 ,49.3965902747071 ,65.7819466448699
27.1636499 ,Left ,48.6946981323949 ,49.3845509487993 ,65.7879241417465
27.1785926 ,Left ,48.7567875187731 ,49.3732200971179 ,65.7951992842843
27.2011983 ,Left ,48.7883440891947 ,49.3540803886576 ,65.7965929069564
27.2237608 ,Left ,48.7790598854365 ,49.3416140784752 ,65.8042113352974
27.238573 ,Left ,48.7385710316129 ,49.3372780361985 ,65.8175197774937
27.261059 ,Left ,48.71540667321 ,49.3280098845104 ,65.8277414280699
27.2836107 ,Left ,48.7144726714647 ,49.3263018783801 ,65.8278916371201
27.2986484 ,Left ,48.7141679525762 ,49.322379167378 ,65.8365702446017
27.3212559 ,Left ,48.7461143490007 ,49.3207111333555 ,65.8443524551843
27.3508836 ,Left ,48.7806051008564 ,49.3199712331366 ,65.856439264579
27.3659043 ,Left ,48.7878582554587 ,49.3188988855666 ,65.8804465242029
27.3884835 ,Left ,48.7636691922655 ,49.3172987259728 ,65.9081710621096
27.4035371 ,Left ,48.7581983323883 ,49.3253780255373 ,65.9323744520508
27.4199768 ,Left ,48.7806112642951 ,49.326788609289 ,65.9445272693846
27.4412702 ,Left ,48.825432519064 ,49.3201743082388 ,65.9519813621341
27.4637751 ,Left ,48.8694477066767 ,49.3117518797674 ,65.9546348896601
27.4787912 ,Left ,48.8881470067336 ,49.3060641806643 ,65.9634356484642
27.5014334 ,Left ,48.8677563104429 ,49.3019679616737 ,65.9731697877491
27.5238414 ,Left ,48.8542901598874 ,49.2985311660913 ,65.985013934283
27.5398866 ,Left ,48.8635231539444 ,49.2959793345923 ,65.9956316486846
27.5611351 ,Left ,48.8919357556594 ,49.2961267547191 ,66.008102460678
27.5836674 ,Left ,48.923943446699 ,49.298897577178 ,66.0217799972664
27.5988154 ,Left ,48.9574821346536 ,49.3008732470103 ,66.0424409063873
27.6210913 ,Left ,48.971093578285 ,49.3071166253079 ,66.0663975293975
27.6438044 ,Left ,48.9605100590138 ,49.3179835599914 ,66.0928317513937
27.6586507 ,Left ,48.9453328852101 ,49.3201245779932 ,66.1134548937347
27.6887876 ,Left ,48.9556022145157 ,49.3236789089471 ,66.1282663100466
27.7111378 ,Left ,48.9808483514673 ,49.3253507276927 ,66.1314540677978
27.7262898 ,Left ,48.9868339616052 ,49.3288673858831 ,66.1424877874274
27.7412575 ,Left ,48.9824655670839 ,49.3383744239895 ,66.1622375910998
27.7637807 ,Left ,48.9657002131348 ,49.3613806420437 ,66.1799144575167
27.7786968 ,Left ,48.9665967618938 ,49.3833191691243 ,66.185305370478
27.8012776 ,Left ,48.9987362955918 ,49.4010668859503 ,66.1854660812649
27.82377 ,Left ,49.03616223232 ,49.4048156924688 ,66.193114552126
27.8386513 ,Left ,49.0319658615109 ,49.4095378458886 ,66.1970972143002
27.8611419 ,Left ,49.0034691930853 ,49.4188952575967 ,66.2069482670479
27.88382 ,Left ,48.989138895787 ,49.4291065550387 ,66.2071121671471
27.8988154 ,Left ,49.0039643603772 ,49.4274422828902 ,66.2020192513091
27.921096 ,Left ,49.0165038229187 ,49.4136130123842 ,66.1955888739448
27.9436222 ,Left ,49.0004893581917 ,49.4046301040671 ,66.1922233695448
27.9587825 ,Left ,48.9728251862948 ,49.4066601804727 ,66.1883909038075
27.9813254 ,Left ,48.963289462695 ,49.4051103316895 ,66.1823929026954
28.003965 ,Left ,48.9724805965063 ,49.3932314499589 ,66.175538167017
28.0262732 ,Left ,48.9885741152997 ,49.3818928870584 ,66.1713279516642
28.0411303 ,Left ,49.0078952695993 ,49.3844310937136 ,66.1683115582265
28.0637732 ,Left ,49.0071186724039 ,49.3871701890519 ,66.1702224286287
28.0861998 ,Left ,48.9798769878143 ,49.3822733401855 ,66.1717133816883
28.1012967 ,Left ,48.9632943902301 ,49.3803551692878 ,66.1700845226819
28.1238125 ,Left ,48.9617760803747 ,49.3810233972526 ,66.1611161505297
28.1462507 ,Left ,48.9367219568078 ,49.3837131491523 ,66.1576663745322
28.1611988 ,Left ,48.9014406410396 ,49.3921598955235 ,66.1564365992937
28.1837853 ,Left ,48.8617833105369 ,49.4008986208128 ,66.1574276960099
28.2076006 ,Left ,48.8595721090415 ,49.3886710945168 ,66.1536683426925
28.2286439 ,Left ,48.8589719273608 ,49.3756519099381 ,66.1543783395069
28.2513451 ,Left ,48.8410258324312 ,49.3680989067504 ,66.1641937612991
28.2810734 ,Left ,48.856058499475 ,49.3540630617579 ,66.2042391751678
28.3037064 ,Left ,48.8424753405865 ,49.3354829584628 ,66.2279877608615
28.3260775 ,Left ,48.8279053437765 ,49.3152257007594 ,66.2519255082503
28.3410876 ,Left ,48.8209777190186 ,49.3037824294129 ,66.2639672075253
28.3637895 ,Left ,48.8089327056899 ,49.2999623868139 ,66.286918439718
28.3863322 ,Left ,48.8041820086399 ,49.3116492123579 ,66.2910366465046
28.4012346 ,Left ,48.7033451298112 ,49.3266566306215 ,66.241010700287
28.4236793 ,Left ,48.5931496358654 ,49.3546022128047 ,66.166433344196
28.4465948 ,Left ,48.5619536548773 ,49.3452236316916 ,66.1018070502461
28.4617233 ,Left ,48.5499328984676 ,49.3093715314647 ,66.0288982792267
28.4838536 ,Left ,48.5237406670565 ,49.2822332680975 ,65.9853815771029
28.5137861 ,Left ,48.5284674620137 ,49.2568893449007 ,65.9663337739675
28.5289345 ,Left ,48.5435519902602 ,49.2255459651096 ,65.9410745130245
28.5512248 ,Left ,48.5511670895629 ,49.200521628525 ,65.9134037118708
28.5661053 ,Left ,48.5497087729219 ,49.1825339604796 ,65.878912931348
28.5812266 ,Left ,48.5478664522058 ,49.174530558006 ,65.8726146377846
28.6113761 ,Left ,48.5606542224606 ,49.1699402981001 ,65.8765763566457
28.6336156 ,Left ,48.4795888261461 ,49.191848561536 ,65.877340027489
28.6486761 ,Left ,48.3906399332232 ,49.2206731769473 ,65.8891446424805
28.6636365 ,Left ,48.4576101076538 ,49.2174834580254 ,65.8879364225483
28.6862414 ,Left ,48.6072790441243 ,49.1972494283682 ,65.8619141833869
28.7087712 ,Left ,48.6515950704951 ,49.1838487242663 ,65.847148937048
28.7236972 ,Left ,48.5641584327043 ,49.1876153557317 ,65.8667295541206
28.7461565 ,Left ,48.5557569137347 ,49.1999825964322 ,65.9042013704317
28.7759968 ,Left ,48.5565253857108 ,49.1973476186124 ,65.9043277872172
28.7912293 ,Left ,48.5548164684238 ,49.1982764469443 ,65.9043738987286
28.8134867 ,Left ,48.6216119799019 ,49.1998022460621 ,65.9145302246472
28.828725 ,Left ,48.6704221226225 ,49.2137367714072 ,65.9330751152139
28.8438061 ,Left ,48.564407544298 ,49.2627234883645 ,65.9308908752668
28.8662122 ,Left ,48.4648918908084 ,49.3480632798544 ,65.9309126935861
28.888768 ,Left ,48.5138570403225 ,49.391683450446 ,65.9152519286539
28.9036477 ,Left ,48.6197753427069 ,49.3930173766241 ,65.8902670151061
28.926401 ,Left ,48.650790513848 ,49.4047272887965 ,65.8839069754076
28.9487286 ,Left ,48.5872000637396 ,49.4109763746963 ,65.8974653737647
28.9636856 ,Left ,48.5222252929356 ,49.3978901285069 ,65.9029451156928
28.9935016 ,Left ,48.5191769799036 ,49.3791605206885 ,65.890871751893
29.0162871 ,Left ,48.4776213649955 ,49.3696281266109 ,65.8626301063561
29.0309533 ,Left ,48.4416729092337 ,49.370403652228 ,65.8354490857001
29.0462769 ,Left ,48.4853335631919 ,49.3638063556067 ,65.8183669460585
29.0688824 ,Left ,48.5425980972988 ,49.3500627822585 ,65.805442384191
29.0838024 ,Left ,48.5226752829619 ,49.3497126801937 ,65.8016764628658
29.1063201 ,Left ,48.4574036599485 ,49.3565586021411 ,65.8110893986862
29.1287636 ,Left ,48.445469974073 ,49.3528393771992 ,65.8338897241346
29.1437481 ,Left ,48.5295361066238 ,49.3449685880884 ,65.8372894627725
29.166171 ,Left ,48.5610444227802 ,49.3406768518673 ,65.8228080110302
29.1887095 ,Left ,48.5272726707948 ,49.3433946484544 ,65.8196602865545
29.2036248 ,Left ,48.4992525319194 ,49.3363610937441 ,65.8168203224679
29.2262335 ,Left ,48.4592037462417 ,49.3310983045489 ,65.808185445704
29.2486905 ,Left ,48.4476624840363 ,49.3263967084701 ,65.811190261776
29.2638056 ,Left ,48.4793134769289 ,49.3161469676056 ,65.8193447599541
29.286285 ,Left ,48.4908140035326 ,49.3060881565431 ,65.8346821160173
29.3086349 ,Left ,48.516826925025 ,49.3043925120365 ,65.8734230898363
29.3236758 ,Left ,48.5532876706879 ,49.3210590070121 ,65.9039585369183
29.3535431 ,Left ,48.5631336309758 ,49.3022730046373 ,65.9000893325613
29.3762337 ,Left ,48.5166071603934 ,49.3443775603853 ,65.8708655615679
29.3913268 ,Left ,48.4370140708933 ,49.4200410250205 ,65.8503799995713
29.4136371 ,Left ,48.498901003631 ,49.4538518202999 ,65.8168832497964
29.4287892 ,Left ,48.5891187878217 ,49.4696925684962 ,65.7678484105303
29.4437127 ,Left ,48.5934675537318 ,49.5036081115607 ,65.7305056592943
29.4662555 ,Left ,48.5668197824248 ,49.5302441278264 ,65.7061279853819
29.496225 ,Left ,48.5745756250435 ,49.5427057328273 ,65.6788119293999
29.5112488 ,Left ,48.5817934208291 ,49.5286333490795 ,65.6392165196691
29.5336782 ,Left ,48.583696131135 ,49.513038627995 ,65.6024953492643
29.5488077 ,Left ,48.5660431329515 ,49.5144319965076 ,65.565862087159
29.5636793 ,Left ,48.5316960166403 ,49.5234412891206 ,65.5533401564497
29.5862269 ,Left ,48.5562440266076 ,49.5277953341298 ,65.5478634992523
29.6161012 ,Left ,48.5980826175664 ,49.5180241296566 ,65.5270581531469
29.6312515 ,Left ,48.6284575700614 ,49.5036066879123 ,65.5110561358189
29.6545363 ,Left ,48.6258609526498 ,49.4887210379 ,65.4879199006401
29.668939 ,Left ,48.5935171432484 ,49.4770986023474 ,65.4828737359124
29.6837981 ,Left ,48.5598032817554 ,49.4647867880097 ,65.5026007807619
29.7062361 ,Left ,48.571994559599 ,49.4435617070261 ,65.5209156986731
29.7287927 ,Left ,48.5538601137758 ,49.4180547968307 ,65.5254048414595
29.7437058 ,Left ,48.5002630471173 ,49.4097667435196 ,65.5432023146909
29.7660675 ,Left ,48.4895704266394 ,49.3637972176725 ,65.5797448129788
29.7887754 ,Left ,48.5128748053656 ,49.2919197973089 ,65.5805143742164
29.8036291 ,Left ,48.5594307025992 ,49.2394329668557 ,65.5416716055272
29.8261304 ,Left ,48.7567431941657 ,49.2830940820637 ,65.4862976170073
29.8486013 ,Left ,48.8948574614697 ,49.3455268592093 ,65.4423590722994
29.8710796 ,Left ,48.9375217940076 ,49.3665015623737 ,65.4201111914173
29.8936961 ,Left ,48.9728183517067 ,49.3500827202649 ,65.4197660235787
29.9162684 ,Left ,48.9585395517421 ,49.3388834516327 ,65.4666551594947
29.9461342 ,Left ,48.7281749815674 ,49.3543590430759 ,65.6004806425772
29.968801 ,Left ,48.7803661061769 ,49.3426227487026 ,65.6255273253163
29.9913207 ,Left ,48.820758564022 ,49.2932572739855 ,65.6616883184028
30.0062913 ,Left ,48.8196381618286 ,49.2709995235021 ,65.7178506442318
30.0287141 ,Left ,48.7352271424385 ,49.2687797483918 ,65.7522890462646
30.0510774 ,Left ,48.6268600087792 ,49.3187005573041 ,65.7658321660733
30.0662304 ,Left ,48.6246410947287 ,49.3887103733581 ,65.7731487542509
30.0886377 ,Left ,48.7730057407962 ,49.4163732771283 ,65.7523794895656
30.1111247 ,Left ,48.962176705349 ,49.4270072881542 ,65.7492616138704
30.1262947 ,Left ,49.0161232971133 ,49.442687358276 ,65.7753691142192
30.1487959 ,Left ,48.9428589370474 ,49.4565552417676 ,65.8106552022469
30.1712795 ,Left ,48.8844343504357 ,49.464527900729 ,65.8342473045895
30.1860858 ,Left ,48.9002082578771 ,49.4740005681616 ,65.8464632889881
30.2012593 ,Left ,48.9879669796472 ,49.4729009700512 ,65.8500791334416
30.2461727 ,Left ,49.1417829788351 ,49.4758142826062 ,65.8630038429918
30.2688705 ,Left ,49.1438283015888 ,49.4638500709858 ,65.8718503376873
30.298722 ,Left ,49.0630916380191 ,49.4399119513203 ,65.910942056816
30.3211502 ,Left ,49.0555250447867 ,49.4309871299626 ,65.9250850231601
30.358485 ,Left ,49.1261643349801 ,49.4192398424823 ,65.9385462012853
30.3811969 ,Left ,49.1438187100811 ,49.4120803945293 ,65.9560366099144
30.4188651 ,Left ,49.1140197608786 ,49.4200202597926 ,65.9833152946713
30.4409877 ,Left ,49.0965271051711 ,49.4254712763089 ,65.9992523666093
30.4787257 ,Left ,49.0999496284208 ,49.437431263428 ,66.0274999971726
30.5012813 ,Left ,49.072935420528 ,49.4460214787176 ,66.048204274696
30.538749 ,Left ,49.0628615421665 ,49.4608507842919 ,66.0629507215087
30.561251 ,Left ,49.092530738882 ,49.4667843204911 ,66.0709491943086
30.5984712 ,Left ,49.1275814003109 ,49.4787680349549 ,66.0850129426933
30.6212622 ,Left ,49.1169909171741 ,49.4957276818106 ,66.0847318466875
30.6588126 ,Left ,49.1374042521631 ,49.5243705394083 ,66.0807881129179
30.680961 ,Left ,49.1637348985128 ,49.5321206351043 ,66.0864893711863
30.7188804 ,Left ,49.2030379155459 ,49.5547688297801 ,66.0822191353214
30.741107 ,Left ,49.1941292110334 ,49.5708650967535 ,66.0839376276078
30.7787858 ,Left ,49.1558993313111 ,49.5742942343681 ,66.0896552301861
30.8012949 ,Left ,49.1244263718458 ,49.574220925905 ,66.1012924434513
30.838776 ,Left ,49.1261421328973 ,49.577887524239 ,66.1125775948063
30.8610882 ,Left ,49.1230597178 ,49.5885666762962 ,66.1167753761505
30.8988752 ,Left ,49.1326360060583 ,49.5900139487134 ,66.1208724848334
30.9210407 ,Left ,49.1379273019543 ,49.5915284745655 ,66.1206251815757
30.9587635 ,Left ,49.0898543681116 ,49.6047186204059 ,66.1148615596947
30.9812787 ,Left ,49.08834179999 ,49.6052087425698 ,66.0994063808624
31.0261326 ,Left ,49.0188227840231 ,49.5891350997342 ,66.046270514101
31.0787702 ,Left ,48.8621533224574 ,49.6362481999574 ,65.9961734601667
31.1013029 ,Left ,48.857258783036 ,49.6384363257451 ,65.9783424481907
31.1387419 ,Left ,48.7876474850476 ,49.6415087996032 ,65.989125890184
31.1612191 ,Left ,48.7513789821642 ,49.6331885129608 ,66.0085653657421
31.1987684 ,Left ,48.6684832809244 ,49.5831564260024 ,66.0668632043279
31.2211626 ,Left ,48.6651771272957 ,49.5393333477189 ,66.1008366420257
31.2736978 ,Left ,48.7728545088969 ,49.4866422079855 ,66.1838591566058
31.2962918 ,Left ,48.8861707152347 ,49.4799517376198 ,66.2083719507427
31.3112085 ,Left ,48.9238632579181 ,49.4937147261978 ,66.177938263449
31.3412551 ,Left ,48.8045276250754 ,49.6173117481488 ,66.0833290291756
31.3787822 ,Left ,48.9384131626231 ,49.6053532170374 ,65.9929285955441
31.4012527 ,Left ,48.9011936418112 ,49.6056291181061 ,65.9824856881092
31.4388738 ,Left ,48.8531513510336 ,49.5738192712848 ,65.9680672396935
31.4611161 ,Left ,48.8170507786565 ,49.5356496564768 ,65.9575879080152
31.4986244 ,Left ,48.863184742902 ,49.4612375757694 ,65.943716677176
31.5214283 ,Left ,48.8061445650228 ,49.4701868455015 ,65.9409970776383
31.5585193 ,Left ,48.747834815102 ,49.5279293881381 ,65.9159413205067
31.5812815 ,Left ,48.8535405594173 ,49.5097139846085 ,65.9019809407086
31.6185579 ,Left ,48.8501523166525 ,49.4918396223425 ,65.9094782348298
31.6411588 ,Left ,48.8016153458036 ,49.4906131190867 ,65.9466361066685
31.6786881 ,Left ,48.7857364134363 ,49.5001403294678 ,65.978269763678
31.7010796 ,Left ,48.846361946195 ,49.5134416315998 ,65.9752647280537
31.7385644 ,Left ,48.7099803814913 ,49.6081626340392 ,65.973328609923
31.7684012 ,Left ,48.6504784759134 ,49.6403343248073 ,65.9605075339684
31.8210449 ,Left ,48.4329267949232 ,49.5942122176341 ,65.8318540466588
31.8585641 ,Left ,48.1362761183797 ,49.5152496274505 ,65.815788790625
31.8811453 ,Left ,48.0719588594156 ,49.4604663654525 ,65.7986991206612
31.918809 ,Left ,48.1153534717441 ,49.3917678222043 ,65.7790793738415
31.9410766 ,Left ,48.1353782525811 ,49.377830347091 ,65.7589323602895
31.9784943 ,Left ,47.9861852560148 ,49.4776287021024 ,65.6665261799051
32.0012951 ,Left ,48.0099361904594 ,49.5173437628561 ,65.6164403735174
32.0387264 ,Left ,48.2390156912649 ,49.5297255899888 ,65.5236336090562
32.0536813 ,Left ,48.2325213967209 ,49.5368938481506 ,65.5077780449236
32.0763124 ,Left ,48.1996615658693 ,49.5407028033391 ,65.5001448922282
32.0911514 ,Left ,48.2031874118354 ,49.5335012600863 ,65.4832034902506
32.1137383 ,Left ,48.2199234255278 ,49.5211214187023 ,65.454504912485
32.1360796 ,Left ,48.2339662358636 ,49.508194848941 ,65.4304503194175
32.151275 ,Left ,48.2549037074184 ,49.50075582396 ,65.4149608401003
32.1811666 ,Left ,48.2707493413924 ,49.4961171742048 ,65.3990991612069
32.2038005 ,Left ,48.2725257199591 ,49.4905641205866 ,65.3924875015307
32.2184681 ,Left ,48.263699339466 ,49.486391162758 ,65.393303345659
32.2339174 ,Left ,48.2354173488046 ,49.4753299774999 ,65.4041268639241
32.2563106 ,Left ,48.209685703013 ,49.4653457325218 ,65.4191825004901
32.2713145 ,Left ,48.2098434161251 ,49.4464232326534 ,65.4376903586417
32.2935933 ,Left ,48.2134005232555 ,49.4209506596923 ,65.4500756419708
32.3162504 ,Left ,48.2281408988694 ,49.3962613353495 ,65.4666215549622
32.3312175 ,Left ,48.1671077312414 ,49.3837391375806 ,65.4990631079271
32.353685 ,Left ,48.0441202387802 ,49.4137185012884 ,65.5031433585192
32.3837497 ,Left ,47.9234728454693 ,49.4779546158761 ,65.4715464996365
32.3986909 ,Left ,47.9824865786236 ,49.5011190934891 ,65.4160546409691
32.4213851 ,Left ,48.1758479170507 ,49.4628970974344 ,65.3635549488189
32.4587754 ,Left ,48.150041973294 ,49.4533250161271 ,65.385017528269
32.4738027 ,Left ,48.06068785708 ,49.4860709494019 ,65.4532847520038
32.4961686 ,Left ,48.0533548147947 ,49.5010808920681 ,65.4964431272397
32.5187934 ,Left ,48.1374405737506 ,49.4996944869997 ,65.5186872997033
32.5337721 ,Left ,48.2409968135028 ,49.4856413482738 ,65.5462157106562
32.5563094 ,Left ,48.282576208954 ,49.4722010842722 ,65.5889592917693
32.571216 ,Left ,48.2109668123399 ,49.4899737653968 ,65.626702484887
32.5942221 ,Left ,48.1174798310666 ,49.5474190657334 ,65.6423555083398
32.6162432 ,Left ,48.1196081552082 ,49.6162093491114 ,65.6290135271108
32.6386081 ,Left ,48.283462397912 ,49.6445946629432 ,65.6072517733099
32.6612503 ,Left ,48.4713526181242 ,49.636651476041 ,65.5982332654702
32.6911533 ,Left ,48.5140841764132 ,49.6429660375826 ,65.6070737853983
32.7061618 ,Left ,48.4549191222934 ,49.6534943336682 ,65.6306732611548
32.7231827 ,Left ,48.4203735074733 ,49.6493810042772 ,65.669743803173
32.7586184 ,Left ,48.4589630791752 ,49.6219234428013 ,65.7183116258052
32.7737604 ,Left ,48.4881797196101 ,49.6202728203693 ,65.7396725970537
32.7962808 ,Left ,48.5330567716856 ,49.6194274619279 ,65.7686470262015
32.818808 ,Left ,48.5783997884372 ,49.6070611684832 ,65.796317397582
32.8337772 ,Left ,48.5914872210612 ,49.5916950152462 ,65.8148651494463
32.8563004 ,Left ,48.6021940874697 ,49.579870396086 ,65.8303624488574
32.8787297 ,Left ,48.6177116790612 ,49.5809050075318 ,65.8449224828058
32.8952205 ,Left ,48.6418136567963 ,49.5816266960077 ,65.8620731730967
32.9162485 ,Left ,48.6476227567001 ,49.5814034518999 ,65.8816730191358
32.9460565 ,Left ,48.6468105477645 ,49.5694220487729 ,65.906711825548
32.9686083 ,Left ,48.6537512515001 ,49.5552997998852 ,65.9295123079692
32.9912737 ,Left ,48.6630216769387 ,49.5530125678885 ,65.9446044910196
33.0062325 ,Left ,48.6753457095099 ,49.5599855066289 ,65.9545793655859
33.0211257 ,Left ,48.7013134733778 ,49.5639967971541 ,65.971533090828
33.0363257 ,Left ,48.7386901899221 ,49.5684794690359 ,65.987462186405
33.0586842 ,Left ,48.7584881835204 ,49.5691407933867 ,66.0024506284328
33.0812635 ,Left ,48.7631805685422 ,49.5824887116708 ,66.015024131462
33.1039547 ,Left ,48.7775843126063 ,49.5971384037229 ,66.0246169921638
33.1336499 ,Left ,48.8688013256214 ,49.623024883474 ,66.0473615416358
33.1561234 ,Left ,48.8818746556103 ,49.6320823442966 ,66.0733620377912
33.1786619 ,Left ,48.8700675483357 ,49.6331995437996 ,66.1157707011131
33.1937567 ,Left ,48.8612944390891 ,49.6284782100169 ,66.1698776074894
33.223768 ,Left ,48.8891600407702 ,49.6208058689043 ,66.209132563534
33.2466025 ,Left ,48.88328360474 ,49.6314264231579 ,66.2309596185563
33.2612909 ,Left ,48.8923128596057 ,49.6601420324201 ,66.2428540264522
33.2762497 ,Left ,48.9704511908715 ,49.6766963831447 ,66.2491184271752
33.2987401 ,Left ,49.0426329246914 ,49.6942889784639 ,66.2507984184691
33.3217269 ,Left ,49.0645229489218 ,49.7178180141943 ,66.2586791528199
33.3436696 ,Left ,49.055094732257 ,49.7412030513768 ,66.2691787406418
33.3737317 ,Left ,49.0301718775077 ,49.7842882014638 ,66.272457505949
33.3961112 ,Left ,49.070809940116 ,49.7970220325643 ,66.2691870308189
33.4185011 ,Left ,49.1139301379644 ,49.8062884490902 ,66.2675577317269
33.4337393 ,Left ,49.1227315576655 ,49.825676929345 ,66.2601396926316
33.4634625 ,Left ,49.0966345935425 ,49.8626322847476 ,66.2617122889145
33.48627 ,Left ,49.0153530456457 ,49.9138943756861 ,66.3040704353122
33.5012695 ,Left ,49.023116066998 ,49.9690446391043 ,66.3558624283055
33.5161414 ,Left ,49.0664717088624 ,50.0183963354881 ,66.3627977020404
33.5393079 ,Left ,49.0803994110722 ,50.070410110264 ,66.3499455202604
33.5556808 ,Left ,49.0972528367366 ,50.1116785379974 ,66.3303981615295
33.576239 ,Left ,49.1377331629176 ,50.1397793614109 ,66.3183441870558
33.5987633 ,Left ,49.1660004681404 ,50.166101827636 ,66.3127202264806
33.6137506 ,Left ,49.1677198259934 ,50.2008669608363 ,66.313967019046
33.6361075 ,Left ,49.1795242837985 ,50.2298386303135 ,66.3136934750132
33.6587187 ,Left ,49.2193612674568 ,50.2449980010115 ,66.3017919231261
33.6811627 ,Left ,49.2230721722186 ,50.2514958901699 ,66.2905732066013
33.696269 ,Left ,49.1859023202678 ,50.2566697061654 ,66.2859612525306
33.7187958 ,Left ,49.1417273382709 ,50.2613552908327 ,66.2839946962202
33.7411322 ,Left ,49.1381403848712 ,50.2588663269045 ,66.2815911279376
33.7563101 ,Left ,49.1473567160211 ,50.2515191346874 ,66.2841078107125
33.7787893 ,Left ,49.1430411094666 ,50.2518468112858 ,66.288685841487
33.8010736 ,Left ,49.1214175508317 ,50.2532057867812 ,66.3000446932928
33.8162478 ,Left ,49.1305562088501 ,50.2418899014288 ,66.3157186650314
33.838773 ,Left ,49.1563680573445 ,50.2166771261093 ,66.3319154139872
33.8612449 ,Left ,49.0987683305346 ,50.1939127955308 ,66.3484942807572
33.8762459 ,Left ,48.9839246236561 ,50.1924740809818 ,66.3674300703736
33.8988082 ,Left ,48.8981016107748 ,50.1989863760575 ,66.3797534348584
33.9212004 ,Left ,48.8736021003822 ,50.2273102510036 ,66.4057126557826
33.9362952 ,Left ,48.9158985730739 ,50.2478123524455 ,66.4581537135157
33.9586285 ,Left ,49.0536799730247 ,50.2347453867894 ,66.4728734228285
33.981159 ,Left ,49.0682236256515 ,50.2516982123664 ,66.4253000584735
34.0046312 ,Left ,48.951835260289 ,50.2978872697892 ,66.3739171911589
34.0259189 ,Left ,48.8674872276419 ,50.3219713376832 ,66.3427431889739
34.0561428 ,Left ,48.9724054092681 ,50.2532612890921 ,66.2655181975089
34.0788109 ,Left ,48.9624366728006 ,50.2308270953745 ,66.2306661802656
34.1013003 ,Left ,48.9132779935401 ,50.2059786364737 ,66.2008225237379
34.1168643 ,Left ,48.8727054212752 ,50.1764042701948 ,66.1730991613458
34.1385979 ,Left ,48.8200629621584 ,50.1496511714267 ,66.16428295427
34.1611966 ,Left ,48.7724705559046 ,50.1155844147213 ,66.1502672256255
34.1762042 ,Left ,48.7280494811692 ,50.0752284084381 ,66.1370829388789
34.1986532 ,Left ,48.6286323451796 ,50.0923468076143 ,66.1321466464558
34.2216469 ,Left ,48.5124195162746 ,50.1426310775504 ,66.1120374803544
34.2437616 ,Left ,48.4740410131478 ,50.2052251183777 ,66.0946837712001
34.2586246 ,Left ,48.5489186622914 ,50.251264630968 ,66.0668784205298
34.2885799 ,Left ,48.621184771328 ,50.2802712504593 ,66.0222252321665
34.3036439 ,Left ,48.6218603242298 ,50.3046706494019 ,65.9834221965728
34.3350518 ,Left ,48.5298054575833 ,50.3350272504527 ,65.9793779899269
34.3500588 ,Left ,48.4608689466228 ,50.3437448382636 ,66.0129897738582
34.3636252 ,Left ,48.4339338466071 ,50.3161847912789 ,66.0503860598259
34.3860572 ,Left ,48.4581157320816 ,50.2645373362287 ,66.0837219922211
34.4011385 ,Left ,48.5105567767298 ,50.2001141573623 ,66.1296903975101
34.4161107 ,Left ,48.5259622983877 ,50.169370539193 ,66.175032086939
34.4385385 ,Left ,48.4024277862908 ,50.2146046375693 ,66.1513528469563
34.4613377 ,Left ,48.2913359104188 ,50.2866458001634 ,66.1370931564094
34.4836915 ,Left ,48.3394341123321 ,50.3095181400385 ,66.1483755819142
34.5060632 ,Left ,48.4656504767681 ,50.2682152440802 ,66.1478883900751
34.5287789 ,Left ,48.4732783037653 ,50.2018602636507 ,66.1504134512525
34.5586538 ,Left ,48.3467744822195 ,49.9828210041626 ,66.2355514581914
34.5812595 ,Left ,48.2865167569195 ,49.8177971716804 ,66.2732627938007
34.6113782 ,Left ,48.1142298302391 ,49.677931881497 ,66.275264235689
34.6260428 ,Left ,48.0883686560999 ,49.5917735408223 ,66.2708203060512
34.6487475 ,Left ,48.2519640513331 ,49.5182063515481 ,66.2771298111289
34.6636396 ,Left ,48.3070061090781 ,49.4443437428685 ,66.2636398895655
34.678788 ,Left ,48.2246516756289 ,49.4322924571536 ,66.2592397658834
34.7011087 ,Left ,48.2022359049427 ,49.4560766121379 ,66.261025512765
34.7236048 ,Left ,48.2829690936778 ,49.4588667525651 ,66.2370613333981
34.7386918 ,Left ,48.3909858629454 ,49.4462901057239 ,66.2061461204011
34.7612433 ,Left ,48.4539775134198 ,49.4414460150914 ,66.1811532003236
34.7836214 ,Left ,48.457389052395 ,49.4499032660344 ,66.1603884037033
34.7986253 ,Left ,48.4322824706667 ,49.46270097353 ,66.1345132964016
34.8212988 ,Left ,48.4310197749893 ,49.4825733849758 ,66.1108293690889
34.8513201 ,Left ,48.4679306476817 ,49.4987896320121 ,66.0817136959033
34.8662399 ,Left ,48.5063613897139 ,49.5048571242475 ,66.0397536894029
34.9036182 ,Left ,48.454770531137 ,49.5103518897563 ,65.9660158984979
34.9188147 ,Left ,48.4609645449029 ,49.5039516852639 ,65.9461432884652
34.9412414 ,Left ,48.4650618568164 ,49.494631928818 ,65.9380206068906
34.9635941 ,Left ,48.4410150215443 ,49.4986368256082 ,65.9296803192922
34.9787781 ,Left ,48.4221161076063 ,49.504460520341 ,65.9279060241869
35.0010645 ,Left ,48.4089430429874 ,49.5005211578752 ,65.9264221619913
35.0235972 ,Left ,48.3874800231014 ,49.4855838070835 ,65.9261319971765
35.0386473 ,Left ,48.3970578834674 ,49.4625090022004 ,65.9250612164863
35.0613778 ,Left ,48.3760108970292 ,49.4561724804819 ,65.9217510027417
35.0836964 ,Left ,48.284230961783 ,49.4462664940808 ,65.9200698912492
35.0988093 ,Left ,48.2207011816407 ,49.4724425265913 ,65.878996342908
35.1212852 ,Left ,48.255933518903 ,49.5427034788832 ,65.8486705284726
35.1436658 ,Left ,48.3874281876603 ,49.6075797566359 ,65.8235846463024
35.1585847 ,Left ,48.5463614531709 ,49.6372948195222 ,65.7897935811263
35.1811312 ,Left ,48.6567546469478 ,49.6760190346088 ,65.7597303424562
35.2043876 ,Left ,48.6666004451205 ,49.7104600260096 ,65.7575661384664
35.218695 ,Left ,48.5717084271234 ,49.7453155736767 ,65.7897705982817
35.241116 ,Left ,48.5034410266727 ,49.7735430164196 ,65.8435247486721
35.2637187 ,Left ,48.5200837527866 ,49.786196440653 ,65.8843259320174
35.2788351 ,Left ,48.5789384567131 ,49.7621606472144 ,65.9192039158251
35.3012433 ,Left ,48.61594787406 ,49.694925156928 ,65.9657645456417
35.3235884 ,Left ,48.5924003363332 ,49.6432642218365 ,66.0179427604928
35.338746 ,Left ,48.4518272906691 ,49.6642886301348 ,66.0507620489045
35.3611816 ,Left ,48.3586464245158 ,49.7343944685371 ,66.0729883738206
35.3838175 ,Left ,48.4778146660695 ,49.7732007607949 ,66.0753644952391
35.4061746 ,Left ,48.7004622614342 ,49.7652714533553 ,66.0618033141299
35.4216974 ,Left ,48.8272089948433 ,49.7573701942957 ,66.0585429493192
35.4509037 ,Left ,48.7697992394632 ,49.7630136856864 ,66.0780347019479
35.4736445 ,Left ,48.6642105632049 ,49.7627398548374 ,66.1119315819893
35.4886168 ,Left ,48.6419427273891 ,49.756073374108 ,66.1372364615909
35.503877 ,Left ,48.6897910735363 ,49.7388486936809 ,66.1499994607241
35.5261114 ,Left ,48.7673070851364 ,49.722676499496 ,66.1574778521488
35.5412617 ,Left ,48.8226056965289 ,49.714288640113 ,66.1605935850528
35.5637792 ,Left ,48.8338608029303 ,49.714976987162 ,66.1691203275406
35.5861093 ,Left ,48.8069787058954 ,49.7191363520438 ,66.1785364749906
35.6011132 ,Left ,48.7923960413145 ,49.7253715090711 ,66.1873698551129
35.6244816 ,Left ,48.8218958608362 ,49.7269796874055 ,66.198114976151
35.6463064 ,Left ,48.8683839996995 ,49.734507490694 ,66.1984643732896
35.6614499 ,Left ,48.8984295573328 ,49.7446059018171 ,66.2014083466567
35.6837236 ,Left ,48.9056667451684 ,49.754425396157 ,66.2187742139935
35.7134762 ,Left ,48.9264955927777 ,49.7566557871055 ,66.2359680822694
35.7288071 ,Left ,48.9558467392431 ,49.7538869802232 ,66.2465518519397
35.7511816 ,Left ,48.9949198299436 ,49.7521154237782 ,66.2477507782379
35.7888059 ,Left ,49.1077225891092 ,49.762235479339 ,66.2381257636778
35.8267737 ,Left ,49.1568101142139 ,49.7552292245326 ,66.2574084115067
35.8411046 ,Left ,49.1580097859117 ,49.7459057014951 ,66.2687224022713
35.8636894 ,Left ,49.1731870502969 ,49.7376551464753 ,66.2795784174719
35.8861012 ,Left ,49.2366777035153 ,49.7199105603463 ,66.283267921769
35.9011254 ,Left ,49.3048856999454 ,49.7059742333091 ,66.2707024504075
35.9236524 ,Left ,49.2955458895406 ,49.708841499929 ,66.2618470844265
35.9612169 ,Left ,49.2623524037529 ,49.760710729288 ,66.2572001086719
35.9909275 ,Left ,49.2754642654013 ,49.7800976778344 ,66.2562846514276
36.0227606 ,Left ,49.3206210641264 ,49.7770198817533 ,66.2506944347049
36.0735339 ,Left ,49.1965664900183 ,49.710542926913 ,66.2486466217014
36.096261 ,Left ,49.1286650243103 ,49.6929153341845 ,66.2534176772824
36.1337667 ,Left ,49.0985776010995 ,49.6935702527658 ,66.224819635484
36.1562012 ,Left ,49.0542875932131 ,49.7137335976513 ,66.2210688969155
36.1937776 ,Left ,48.9232050600688 ,49.7783026832153 ,66.2286986115501
36.216263 ,Left ,48.8399851451258 ,49.8048745181928 ,66.232164000507
36.2536188 ,Left ,48.7534872985174 ,49.8533881571581 ,66.234377661074
36.2838218 ,Left ,48.7662872257693 ,49.8687273782975 ,66.2427628585209
36.3360736 ,Left ,48.8518195332591 ,49.8746417315797 ,66.2514803584719
36.3737097 ,Left ,48.8552182642235 ,49.8522897067204 ,66.2387054484375
36.3962011 ,Left ,48.8406376071788 ,49.8380316048842 ,66.2352866929002
36.4336574 ,Left ,48.7932443755875 ,49.8289087713727 ,66.2344166897109
36.4561023 ,Left ,48.8074179651538 ,49.8341322613626 ,66.229646333572
36.5012387 ,Left ,48.8419696174412 ,49.8485566538453 ,66.2393250566095
36.5237332 ,Left ,48.8502490221206 ,49.8599374593942 ,66.2521181771316
36.561195 ,Left ,48.8897543527376 ,49.88752624702 ,66.2722768773571
36.58372 ,Left ,48.8937322644484 ,49.898937069911 ,66.2807515759066
36.6135939 ,Left ,48.9171436354357 ,49.9328330740027 ,66.2852939044818
36.6360986 ,Left ,48.9390265744613 ,49.9358600829928 ,66.2784735292089
36.6736881 ,Left ,48.929594049917 ,49.9391535401365 ,66.2851772238757
36.6959524 ,Left ,48.9148475384845 ,49.9411146245902 ,66.296614423704
36.7336559 ,Left ,48.9198159116923 ,49.9188942378893 ,66.3148517650685
36.756031 ,Left ,48.9211215632675 ,49.8938163354719 ,66.3227537189159
36.7937274 ,Left ,48.9455768904215 ,49.8422832562195 ,66.3258791025826
36.8236816 ,Left ,48.9140587315061 ,49.8224284779418 ,66.3362641245357
36.8613147 ,Left ,48.8834863416786 ,49.7736785666953 ,66.3680001579545
36.8762707 ,Left ,48.8843194889652 ,49.7606637664298 ,66.3951974832019
36.9136856 ,Left ,48.9645992412582 ,49.7126577867936 ,66.4667388565945
36.9358947 ,Left ,48.9010409736215 ,49.7364332533669 ,66.4247957151866
36.9736499 ,Left ,48.8026558264814 ,49.8732445820866 ,66.3150655348594
36.9962398 ,Left ,48.9007745361482 ,49.8989317337182 ,66.2649561289614
37.0334597 ,Left ,48.9683065264528 ,49.8863659156769 ,66.2171005284346
37.0561009 ,Left ,48.9137334673361 ,49.8723303036268 ,66.2163670638999
37.0937422 ,Left ,48.8140511570446 ,49.819916564812 ,66.1833819717542
37.1160369 ,Left ,48.8601231707805 ,49.7733929979415 ,66.1545749739686
37.1534716 ,Left ,48.7113571078513 ,49.787871172681 ,66.116259439485
37.176185 ,Left ,48.6933674389684 ,49.8158596887187 ,66.1222061024339
37.2219495 ,Left ,48.8629340517809 ,49.7679728700809 ,66.1036808801467
37.2741176 ,Left ,48.8411362078422 ,49.734283343906 ,66.1349528969137
37.2959929 ,Left ,48.831314493809 ,49.7289308451652 ,66.1415852615701
37.3335459 ,Left ,48.8695815794229 ,49.7501312247307 ,66.1486878408158
37.3561336 ,Left ,48.7074130764678 ,49.8223263744875 ,66.1458599357851
37.4010292 ,Left ,48.7581403029934 ,49.8906083260894 ,66.1684615854351
37.4235197 ,Left ,48.8325312032702 ,49.8602419837528 ,66.1655221416608
37.4535444 ,Left ,48.6458279234487 ,49.8043926926939 ,66.2354218488971
37.4760155 ,Left ,48.6301105972381 ,49.7392721986009 ,66.2834752803097
37.5135238 ,Left ,48.635065419385 ,49.54826416833 ,66.321430417195
37.536033 ,Left ,48.6900328395123 ,49.4734743796946 ,66.3478667654605
37.5661591 ,Left ,48.4397116770368 ,49.4805360540512 ,66.2933887173152
37.5961259 ,Left ,48.422448213201 ,49.517019772706 ,66.2383808349248
37.6413842 ,Left ,48.6542497095824 ,49.4925254805077 ,66.1144687406454
37.6637225 ,Left ,48.6329173436302 ,49.5074948942559 ,66.0767604686843
37.7158884 ,Left ,48.6581191200715 ,49.5548611208661 ,65.9845848802038
37.7537985 ,Left ,48.7238575472563 ,49.5655079486138 ,65.9221020607329
37.7761866 ,Left ,48.6953194301385 ,49.5603967793659 ,65.8988672092582
37.7912741 ,Left ,48.6874176938905 ,49.5533188613028 ,65.8881909229583
37.8060995 ,Left ,48.6948459677308 ,49.5378220076008 ,65.8777201995885
37.828522 ,Left ,48.6657296513603 ,49.524690135647 ,65.8729089409309
37.8511133 ,Left ,48.6476527621751 ,49.5081783584941 ,65.8787020154714
37.865994 ,Left ,48.6222404474854 ,49.4823689641395 ,65.885440272834
37.8888051 ,Left ,48.6103263102066 ,49.4542282950773 ,65.9095612627746
37.9111798 ,Left ,48.622999932443 ,49.4253386177927 ,65.9175188549664
37.9262599 ,Left ,48.5973188495058 ,49.4001989788738 ,65.9373347332509
37.9486254 ,Left ,48.4866423530098 ,49.4208025742395 ,65.9388897370852
37.9712605 ,Left ,48.4497131885429 ,49.4690366955781 ,65.9175991085218
37.986031 ,Left ,48.5648227142389 ,49.487356903151 ,65.8941678155301
38.008667 ,Left ,48.7402207329784 ,49.4618895441193 ,65.8661240020088
38.0311922 ,Left ,48.8122633032764 ,49.4510548866895 ,65.8532229203547
38.0463436 ,Left ,48.7021685622882 ,49.463760017915 ,65.9032212996335
38.068629 ,Left ,48.6258416613955 ,49.4930744273687 ,65.9981101039457
38.0986445 ,Left ,48.6069624541626 ,49.5136599201457 ,66.0328409303745
38.1136106 ,Left ,48.6615759494329 ,49.5128460830361 ,66.0440431632979
38.1359098 ,Left ,48.7679504003646 ,49.4859982221453 ,66.0681300109104
38.1512536 ,Left ,48.802694414033 ,49.4588983129968 ,66.1038074945479
38.1662499 ,Left ,48.6903467519182 ,49.4863167745683 ,66.1264596280313
38.1960676 ,Left ,48.5955279294738 ,49.552857878975 ,66.1421451891958
38.2188079 ,Left ,48.6818529188306 ,49.5959591057564 ,66.1395120702894
38.2487178 ,Left ,49.0258107777935 ,49.5936541186473 ,66.1192233712758
38.2714557 ,Left ,49.0483692563246 ,49.5946872834347 ,66.1273137696878
38.293732 ,Left ,49.0043185021884 ,49.5931854574543 ,66.1600934119307
38.3084987 ,Left ,48.9875514354922 ,49.5764680990314 ,66.1855080226551
38.331251 ,Left ,48.9883139699228 ,49.5584385158889 ,66.1952714950905
38.3537944 ,Left ,48.9963474906171 ,49.5450734366852 ,66.1980253908946
38.3686011 ,Left ,49.0256088652606 ,49.5377683869801 ,66.1991562079031
38.3910446 ,Left ,49.0515826893472 ,49.5366731965158 ,66.2031602312045
38.4136861 ,Left ,49.0669813862315 ,49.5327116540655 ,66.2092311069848
38.4285305 ,Left ,49.0774543469671 ,49.5358703085251 ,66.215697401054
38.4510931 ,Left ,49.0904237377934 ,49.5354002958287 ,66.2197201895486
38.473827 ,Left ,49.1058869835244 ,49.5313026742367 ,66.2212970118858
38.4889192 ,Left ,49.1162240813727 ,49.5299927479578 ,66.2234538656006
38.5112218 ,Left ,49.1285150123548 ,49.5320412710076 ,66.22290275044
38.5337951 ,Left ,49.137429480126 ,49.535901508243 ,66.2204043153241
38.548585 ,Left ,49.1383805667938 ,49.5375976788186 ,66.2203016858489
38.5712151 ,Left ,49.1315239879909 ,49.5415012949928 ,66.2249152414926
38.5937654 ,Left ,49.1222090278306 ,49.5490811549883 ,66.2314852383118
38.608555 ,Left ,49.1299636778657 ,49.5671021326446 ,66.2350006525232
38.6311975 ,Left ,49.1558132331485 ,49.5816274077316 ,66.2385117498738
38.6540819 ,Left ,49.1769525077504 ,49.5876393098858 ,66.2400435813721
38.6686686 ,Left ,49.1925580350145 ,49.5879688347184 ,66.2460116558552
38.6912881 ,Left ,49.2016164772862 ,49.5962741547964 ,66.2479041835667
38.7135666 ,Left ,49.2133094013852 ,49.6054000704087 ,66.2516985110696
38.7285621 ,Left ,49.2135034354327 ,49.6098136427021 ,66.2535469344504
38.7511778 ,Left ,49.2024198645807 ,49.6137811942656 ,66.2512735521233
38.781181 ,Left ,49.1963485601283 ,49.6148881047135 ,66.2519308835189
38.7962377 ,Left ,49.1963485601283 ,49.6148881047135 ,66.2519308835189
38.8185058 ,Left ,49.2067331579636 ,49.6135343572512 ,66.2516312875565
38.8413107 ,Left ,49.221417649864 ,49.6120080223146 ,66.2537009381989
38.85603 ,Left ,49.2456208278147 ,49.6073730093963 ,66.2505647659178
38.878492 ,Left ,49.2584596672349 ,49.6023555430763 ,66.2483096136632
38.8968172 ,Left ,49.2575079593626 ,49.6006602710784 ,66.2483979864718
38.9087145 ,Left ,49.2611229980682 ,49.6030314206194 ,66.2461910575717
38.9313253 ,Left ,49.2829588527098 ,49.6018320874066 ,66.2365092227988
38.9538026 ,Left ,49.2976158900633 ,49.595688538288 ,66.2252188439915
