timestamp,event,roll,pitch,yaw
2.2040083 ,Left ,47.9301258344441 ,48.7149672231935 ,68.5230647899384
2.2190434 ,Left ,48.0896713136587 ,48.5250788140893 ,68.6507191844064
2.2416707 ,Left ,48.1133417764261 ,48.335459149346 ,68.722087670331
2.2640075 ,Left ,48.0497910517438 ,48.1981215411361 ,68.7667912429805
2.2790664 ,Left ,48.1112924936336 ,48.0726930016056 ,68.7851001344899
2.3091854 ,Left ,48.201484528813 ,47.9444337815787 ,68.8004842351069
2.3391539 ,Left ,48.2150800371377 ,47.8366091560017 ,68.8050769817435
2.3538883 ,Left ,48.2339647627745 ,47.7603681356694 ,68.8062640892231
2.3690928 ,Left ,48.2172892032931 ,47.7195965500381 ,68.793550259649
2.3840303 ,Left ,48.1978552694612 ,47.697295500643 ,68.7908523104492
2.3993211 ,Left ,48.2873110146453 ,47.665880314006 ,68.8077357876307
2.4214595 ,Left ,48.4034854171128 ,47.6117205367996 ,68.8263963234876
2.444213 ,Left ,48.3992228117829 ,47.581653063587 ,68.8508143768433
2.4591372 ,Left ,48.3529005469561 ,47.5630365470785 ,68.8816877464317
2.481613 ,Left ,48.3916714376477 ,47.5441374168598 ,68.9025492392002
2.5041949 ,Left ,48.4546181256127 ,47.5347308304087 ,68.9130632420534
2.519087 ,Left ,48.4722720747628 ,47.5463738155029 ,68.9310801446181
2.5421027 ,Left ,48.4412330453912 ,47.5695799973094 ,68.9510247982711
2.5641884 ,Left ,48.3972455603099 ,47.5992289957131 ,68.9576603822775
2.5791658 ,Left ,48.3555587209919 ,47.6252516770685 ,68.9614583488493
2.6101103 ,Left ,48.3217065833118 ,47.6597570034059 ,68.9714926672435
2.6316501 ,Left ,48.2770438732651 ,47.7066124990498 ,68.9831985413325
2.6465689 ,Left ,48.2565767078712 ,47.7535477562036 ,68.9901160995318
2.6616876 ,Left ,48.2614812055999 ,47.7786651957841 ,68.9939894734225
2.6843062 ,Left ,48.2435458396678 ,47.7979197298273 ,68.9986917116575
2.6991913 ,Left ,48.2089042206316 ,47.8096472747873 ,69.0010698226485
2.722176 ,Left ,48.1782813762069 ,47.8233314096295 ,69.0005136602681
2.7468057 ,Left ,48.1557315761227 ,47.8243179510734 ,68.9982837399074
2.7666864 ,Left ,48.1306147182365 ,47.8247495752716 ,68.993839725704
2.7817491 ,Left ,48.1093586261279 ,47.8273210932949 ,68.9886808906988
2.8041882 ,Left ,48.0981266151484 ,47.8135901471903 ,68.9842921833992
2.8268161 ,Left ,48.0688753325945 ,47.792984367813 ,68.9733415865692
2.8416873 ,Left ,48.067035543573 ,47.768144949467 ,68.9643849970751
2.8654536 ,Left ,48.0819739177391 ,47.7365633271987 ,68.9545591147374
2.8865949 ,Left ,48.0463520635534 ,47.661094900353 ,68.9411373121211
2.9166278 ,Left ,47.8466114875794 ,47.8693359040651 ,68.9449782015773
2.9391441 ,Left ,47.9597213224094 ,47.629424533542 ,68.9146099222003
2.9617024 ,Left ,47.864130071681 ,47.7836126738137 ,68.9200049385851
2.9766931 ,Left ,47.9526897926135 ,47.5512959766373 ,68.9032684996162
2.9991856 ,Left ,47.9134266295522 ,47.6956849505091 ,68.8912661775682
3.0215824 ,Left ,48.0184462052659 ,47.5021711084227 ,68.8798279156255
3.0366717 ,Left ,48.063828270429 ,47.4148177977865 ,68.8705259107895
3.0592522 ,Left ,48.0506661761386 ,47.4497002924713 ,68.8631987303427
3.0816416 ,Left ,48.0521207559797 ,47.4768906609854 ,68.8482832447409
3.0965827 ,Left ,48.0620946523015 ,47.5032099405966 ,68.8345927626131
3.1268234 ,Left ,48.0838389656326 ,47.5073939738407 ,68.8341307245479
3.1492084 ,Left ,48.0570396072169 ,47.5064753550126 ,68.8374358990912
3.164248 ,Left ,47.9999159940561 ,47.7121725558711 ,68.8279183604443
3.1790665 ,Left ,48.1383497793162 ,47.5086148643697 ,68.8157013721434
3.2017118 ,Left ,48.2207370516769 ,47.5477652397866 ,68.797163654609
3.2165285 ,Left ,48.1414417401768 ,47.5419622934848 ,68.8210151307056
3.2390701 ,Left ,48.1062548278765 ,47.5182165276537 ,68.8257046448713
3.2616454 ,Left ,48.0930482690205 ,47.5011305847287 ,68.819666890415
3.276817 ,Left ,48.0991578918588 ,47.494735095164 ,68.8100659830484
3.306637 ,Left ,48.1083874226732 ,47.4909507240532 ,68.8093373248542
3.3292053 ,Left ,48.1020818079525 ,47.4950783577744 ,68.8074186941394
3.3443585 ,Left ,48.1006408961028 ,47.4959567397129 ,68.8052803869045
3.360783 ,Left ,48.0846200571588 ,47.4949339210794 ,68.7953194107871
3.3816014 ,Left ,48.0634133464367 ,47.5019439637513 ,68.7972223038258
3.3965969 ,Left ,48.0589747249713 ,47.5095476291786 ,68.7994102163886
3.4192958 ,Left ,48.0660275687083 ,47.5049851626662 ,68.7916620763429
3.4490802 ,Left ,48.0756192315419 ,47.5007939459356 ,68.7865096303396
3.463986 ,Left ,48.1028043763852 ,47.4919831887294 ,68.7844385305767
3.5013622 ,Left ,48.0965558173743 ,47.4985897983848 ,68.7747831825313
3.5167714 ,Left ,48.0739318219483 ,47.5440685336618 ,68.7703967543426
3.5388527 ,Left ,48.0305385767683 ,47.5775610832217 ,68.752907115503
3.5617157 ,Left ,48.0255942745733 ,47.6019483979328 ,68.7341429573111
3.576946 ,Left ,48.0557207185652 ,47.60993780088 ,68.7229345833241
3.5991558 ,Left ,48.0765948429977 ,47.6054838871653 ,68.7185879863418
3.62896 ,Left ,48.0276786230498 ,47.6097754163022 ,68.7214262527953
3.6443826 ,Left ,47.9842382247689 ,47.6151734299323 ,68.7234517135935
3.6890762 ,Left ,48.0130054246942 ,47.6051050133445 ,68.7003409615743
3.7040429 ,Left ,48.0160745148838 ,47.6150151308326 ,68.710456170235
3.726671 ,Left ,47.9858263026889 ,47.6657895750862 ,68.7200246921336
3.7490527 ,Left ,47.9162775516794 ,47.7191011454362 ,68.7195905896819
3.7640888 ,Left ,47.8921319322629 ,47.7634427820468 ,68.7195757301622
3.7866874 ,Left ,47.9186149330865 ,47.8020332466382 ,68.7149526105232
3.8015618 ,Left ,47.9220591188393 ,47.828072046222 ,68.7137955701153
3.8239113 ,Left ,47.8658047629824 ,47.8659795468358 ,68.7319770952566
3.8465292 ,Left ,47.8510064566847 ,47.899678803614 ,68.7535909360073
3.8615929 ,Left ,47.8498906922388 ,47.8980518441271 ,68.7539391741159
3.8840939 ,Left ,47.8377552866466 ,47.8873710910118 ,68.7564602934516
3.9066147 ,Left ,47.8351354080599 ,47.8611868415411 ,68.7689965660784
3.9291375 ,Left ,47.8553986405271 ,47.8311826918415 ,68.7628485197605
3.951457 ,Left ,47.8203063347509 ,47.8487400198377 ,68.7230302964166
3.9891355 ,Left ,47.6708653173916 ,47.940354511415 ,68.6217511521209
4.0041403 ,Left ,47.6929638438681 ,47.9380399069487 ,68.5563296936904
4.0266513 ,Left ,47.7155404519292 ,47.9278432142314 ,68.4832368749966
4.0564503 ,Left ,47.7115271163301 ,47.9126773001333 ,68.4292859284216
4.0714921 ,Left ,47.7124510326945 ,47.917749958881 ,68.3893989087105
4.1015103 ,Left ,47.67947424413 ,47.9202201896085 ,68.304578394591
4.1241663 ,Left ,47.6477882469703 ,47.9165196087238 ,68.2759548462157
4.1466075 ,Left ,47.617387017833 ,47.8987845229033 ,68.2793380194695
4.161746 ,Left ,47.6271958994328 ,47.8724063292571 ,68.3066870665974
4.1847281 ,Left ,47.6144494922617 ,47.8322919665104 ,68.3316102788524
4.2066686 ,Left ,47.6104082046267 ,47.7982814149203 ,68.3546126880177
4.2291786 ,Left ,47.6281783017696 ,47.7687503105232 ,68.3744710059487
4.2439207 ,Left ,47.634941131163 ,47.7460659041656 ,68.3879632539677
4.2665473 ,Left ,47.6202905767898 ,47.7344233955762 ,68.3889979176306
4.2890341 ,Left ,47.628164171211 ,47.6943810345903 ,68.3952426966631
4.3040714 ,Left ,47.7502775567475 ,47.6206500727459 ,68.4262653901103
4.3268571 ,Left ,47.8181110689951 ,47.5536570133711 ,68.4634630472241
4.3492416 ,Left ,47.7426812819905 ,47.5103525370521 ,68.5220408094404
4.3641265 ,Left ,47.7045716488032 ,47.4851308291184 ,68.6000533864441
4.3865689 ,Left ,47.7724052982643 ,47.4481632440584 ,68.6453089797631
4.4091239 ,Left ,47.8124905881239 ,47.41960623023 ,68.6576252059233
4.4241874 ,Left ,47.8522985600724 ,47.3889988876161 ,68.679478732082
4.4464782 ,Left ,47.9471780869956 ,47.3497943208027 ,68.7028979528212
4.4690522 ,Left ,48.0099970002206 ,47.32946639888 ,68.7279005144631
4.484082 ,Left ,47.9931738364438 ,47.3174584758986 ,68.7592228332278
4.5065303 ,Left ,47.9728615777223 ,47.3596412195333 ,68.7917204043669
4.5363824 ,Left ,47.9785414856195 ,47.3982026233436 ,68.8056190944535
4.5514788 ,Left ,48.0246978080176 ,47.4217179392275 ,68.8064367040817
4.5739682 ,Left ,48.0738352017617 ,47.4384849085749 ,68.8030806812883
4.5891446 ,Left ,48.1724699926357 ,47.4314613668149 ,68.80158464432
4.6042107 ,Left ,48.2419991774232 ,47.4156503922919 ,68.797451554439
4.6270275 ,Left ,48.2237324226458 ,47.4136375657215 ,68.8023255692121
4.6491045 ,Left ,48.2319300833236 ,47.4270871812561 ,68.809140063763
4.6640525 ,Left ,48.3036532435218 ,47.4262964957869 ,68.8125271864542
4.686813 ,Left ,48.3663541946167 ,47.4174941149282 ,68.8059722777534
4.7089429 ,Left ,48.3711820512781 ,47.4095305538627 ,68.799323287367
4.7317498 ,Left ,48.3563214130149 ,47.400636157734 ,68.7949265625832
4.7539163 ,Left ,48.3455964437226 ,47.3866705916549 ,68.7858410807592
4.7842049 ,Left ,48.330056759844 ,47.3733815999214 ,68.7636611285573
4.8068043 ,Left ,48.3249406931387 ,47.3816949333525 ,68.7536491304192
4.8292212 ,Left ,48.3142829359822 ,47.4004933850263 ,68.7530329715723
4.8441143 ,Left ,48.3170058616019 ,47.4245775347589 ,68.7478139386801
4.8666618 ,Left ,48.3272908116324 ,47.4412491119819 ,68.7355640502182
4.8891765 ,Left ,48.3194075707332 ,47.4629318999877 ,68.7272341879237
4.9042241 ,Left ,48.3084941082784 ,47.4914889901963 ,68.7228524935771
4.9267797 ,Left ,48.305038045284 ,47.5196912804197 ,68.7131693192652
4.9490449 ,Left ,48.3345309776158 ,47.5822300786341 ,68.6989949164031
4.9651354 ,Left ,48.4128809023806 ,47.5116526207743 ,68.6830703414556
4.9911039 ,Left ,48.3402517324804 ,47.8483995547198 ,68.6670443154005
5.0111475 ,Left ,48.2417321218614 ,48.1460006711862 ,68.6692540170466
5.0254373 ,Left ,48.1859202377428 ,48.4458774898134 ,68.6818670942486
5.0466836 ,Left ,48.2099846061215 ,48.687379746067 ,68.6705834881539
5.0690187 ,Left ,48.2873600106615 ,48.6382854449789 ,68.6662364544344
5.0839346 ,Left ,48.3206397309262 ,48.3211215178274 ,68.6743076726517
5.1067126 ,Left ,48.2411302647546 ,48.1914393271049 ,68.7002343010368
5.1291454 ,Left ,48.1403287161376 ,48.413624675988 ,68.7170331319906
5.1442383 ,Left ,48.1495963601168 ,48.597033897134 ,68.7021776605437
5.1665807 ,Left ,48.2395509682536 ,48.3918240284568 ,68.698542489421
5.1891417 ,Left ,48.259396047901 ,48.0832486474464 ,68.7061609666429
5.2117258 ,Left ,48.1484279813718 ,48.1409967554379 ,68.7300872848878
5.2304652 ,Left ,48.0783854908507 ,48.4198674544997 ,68.7242183628129
5.2492953 ,Left ,48.0241505993952 ,48.3837901010894 ,68.7466509892327
5.2717847 ,Left ,48.0101124273568 ,48.3553956795855 ,68.7438456000547
5.2867012 ,Left ,48.0088269710823 ,48.332866326207 ,68.7460652334436
5.3092757 ,Left ,48.0530314776231 ,48.2940852504942 ,68.7455045380152
5.3315335 ,Left ,48.074465536227 ,48.2492590639464 ,68.7454925798451
5.353958 ,Left ,48.0555630651813 ,48.2120732014494 ,68.7324980597692
5.3765904 ,Left ,48.0359068401656 ,48.185840175325 ,68.7531099539688
5.3989889 ,Left ,48.0576496807613 ,48.1722897063679 ,68.7969039834949
5.4141443 ,Left ,48.1215641168181 ,48.1510833159169 ,68.8113656212781
5.4292987 ,Left ,48.1493685131633 ,48.1231691002062 ,68.8135904270223
5.4514434 ,Left ,48.1383811673828 ,48.1048094282943 ,68.8235218189503
5.4741042 ,Left ,48.1448033707002 ,48.0770672313245 ,68.8303549874185
5.4963731 ,Left ,48.1279956548454 ,48.0483141263994 ,68.8277398155874
5.5267886 ,Left ,48.0798132210002 ,48.0144527839897 ,68.8246239090658
5.5492433 ,Left ,48.075081352126 ,48.0035709502798 ,68.8212527933382
5.5714681 ,Left ,48.0678925968122 ,47.9965343263557 ,68.8229266730284
5.5865938 ,Left ,48.0589456901356 ,47.9907776107919 ,68.8268778068732
5.6090473 ,Left ,48.0480417806062 ,47.9887785599531 ,68.8280221784442
5.6389639 ,Left ,48.0448941715665 ,47.9814335310691 ,68.8340841518051
5.6538815 ,Left ,48.0473808562102 ,47.9751410344141 ,68.8367518599081
5.6771848 ,Left ,48.0534118681538 ,47.9664542885887 ,68.8344661923881
5.6915896 ,Left ,48.0690665266742 ,47.9581697394769 ,68.8339701623936
5.706423 ,Left ,48.0898553216069 ,47.9536474536083 ,68.8298191435424
5.729076 ,Left ,48.1094237844306 ,47.9404677532348 ,68.8268408932267
5.7515934 ,Left ,48.1364409972919 ,47.9247797104667 ,68.8254907243163
5.7665957 ,Left ,48.1602201774473 ,47.9112540899494 ,68.8242700832553
5.7816614 ,Left ,48.1559520631906 ,47.9022626823628 ,68.8306473304421
5.8054137 ,Left ,48.1505474557497 ,47.8990493627497 ,68.8383119972505
5.8191253 ,Left ,48.1597934661654 ,47.8929571803214 ,68.8449660655887
5.8415772 ,Left ,48.1721033418431 ,47.8847134346582 ,68.8541137487651
5.8716666 ,Left ,48.1758750355123 ,47.8775313043468 ,68.8615484973134
5.8867943 ,Left ,48.1611382047434 ,47.87107752047 ,68.8707179495067
5.9316381 ,Left ,48.1387118873519 ,47.8629444925794 ,68.8973314656934
5.9467103 ,Left ,48.1435842893641 ,47.8623191647716 ,68.9131326988244
5.9619774 ,Left ,48.1590961849866 ,47.8568028302647 ,68.9308533245134
5.9842003 ,Left ,48.1713518182373 ,47.8557526631553 ,68.9413907451226
5.9991602 ,Left ,48.1898936861375 ,47.8503547324805 ,68.9543057429805
6.0214799 ,Left ,48.2052037181304 ,47.8496081116527 ,68.9596266238264
6.0461429 ,Left ,48.208108904195 ,47.8476338935173 ,68.9643459069402
6.0599235 ,Left ,48.2169976568074 ,47.8392700524363 ,68.9594432620586
6.0814507 ,Left ,48.2320085594484 ,47.8290743465487 ,68.9518042445767
6.1041039 ,Left ,48.2313937721659 ,47.8198347574231 ,68.9436876698111
6.1189814 ,Left ,48.2318884282545 ,47.8171238574137 ,68.9439486071378
6.1416163 ,Left ,48.2301462780657 ,47.8136636475516 ,68.9371294280345
6.1650667 ,Left ,48.230641301708 ,47.8109528417629 ,68.9373907672671
6.1790638 ,Left ,48.2285621432972 ,47.8100156267001 ,68.9280924920686
6.2016738 ,Left ,48.2420968641563 ,47.8054698635482 ,68.9273977346383
6.2240071 ,Left ,48.241473090995 ,47.8011364242248 ,68.9279838599195
6.239321 ,Left ,48.2403532734801 ,47.7995138413988 ,68.928309338586
6.2615434 ,Left ,48.2392333981529 ,47.7978912355542 ,68.9286350442267
6.2841408 ,Left ,48.2405753488652 ,47.7901175406457 ,68.9312345787868
6.2990763 ,Left ,48.2503018648146 ,47.774027292745 ,68.9368059692241
6.3214569 ,Left ,48.2548952520625 ,47.7545129848041 ,68.9452445267781
6.358958 ,Left ,48.25019728808 ,47.7151525653721 ,68.9594249375682
6.3814848 ,Left ,48.2750923383593 ,47.6960734499699 ,68.9560813095299
6.4189546 ,Left ,48.3511252779107 ,47.7012458015923 ,68.9381694763695
6.4414512 ,Left ,48.3548003679309 ,47.717691476538 ,68.9194764642168
6.4866482 ,Left ,48.2248199468802 ,47.7269318722882 ,68.8550149183732
6.5093208 ,Left ,48.1996474394353 ,47.7222318015622 ,68.8208997695073
6.5389274 ,Left ,48.1876638376543 ,47.6897601023391 ,68.774183024925
6.5614639 ,Left ,48.195431326395 ,47.6868733582256 ,68.7713630545558
6.599256 ,Left ,48.1886654793673 ,47.6535457114778 ,68.7356413205409
6.6214136 ,Left ,48.1841598960235 ,47.6329603013501 ,68.7147390238068
6.6589926 ,Left ,48.2001371626727 ,47.6315655768397 ,68.7110886609627
6.6816466 ,Left ,48.2072977312731 ,47.6502686166845 ,68.7178798057047
6.7341073 ,Left ,48.1469844672082 ,47.6457347531114 ,68.7060284633504
6.8016117 ,Left ,48.1912349748256 ,47.6022651551869 ,68.7198769578052
6.8389108 ,Left ,48.1588048916261 ,47.6239759252886 ,68.7423067271336
6.8616841 ,Left ,48.1223656740244 ,47.6719903317817 ,68.7479238454116
6.8991316 ,Left ,48.0621660812775 ,47.7756254514638 ,68.7577716850991
6.9214478 ,Left ,48.0986540599736 ,47.8174129417181 ,68.7655268174123
6.9590671 ,Left ,48.0885584528804 ,47.8956220697968 ,68.8264863059433
6.9813743 ,Left ,48.0577335332495 ,47.9215661535138 ,68.8622536787904
7.0189406 ,Left ,48.0394911688337 ,47.9291263085492 ,68.8609452847281
7.041595 ,Left ,48.0298091286644 ,47.9283881931255 ,68.8599886843457
7.0791353 ,Left ,47.9379352926642 ,47.9724665254081 ,68.813607457893
7.1016269 ,Left ,47.8940779951479 ,47.9958744247338 ,68.7569545837822
7.1390045 ,Left ,47.8553310892751 ,48.0133944125038 ,68.6165318547123
7.161632 ,Left ,47.8420157750817 ,48.0181003693375 ,68.5521628832378
7.1991022 ,Left ,47.8970372322715 ,48.034063809901 ,68.484149417635
7.2214739 ,Left ,47.9007807252091 ,48.0236316596647 ,68.4501715631537
7.2589827 ,Left ,47.8383589476684 ,48.0113750448438 ,68.3929746724721
7.2816874 ,Left ,47.8044101121266 ,48.0031797647953 ,68.3999769134062
7.334078 ,Left ,47.846601638713 ,47.9437634388979 ,68.4225970283041
7.4013663 ,Left ,47.8802894594499 ,47.8745243042843 ,68.4010673821328
7.4390185 ,Left ,48.1112428110718 ,47.73658129555 ,68.4369939100085
7.4615353 ,Left ,48.0116845800419 ,47.7211430127782 ,68.5286385912824
7.4990729 ,Left ,48.0943705481112 ,47.6941375297714 ,68.6506164190354
7.5215093 ,Left ,48.1496825019147 ,47.6858253246024 ,68.671267328471
7.5591282 ,Left ,48.1319555661226 ,47.7235664157778 ,68.6784129229369
7.5891577 ,Left ,48.0826783739601 ,47.772638914435 ,68.6810849532146
7.6038813 ,Left ,48.1209346249277 ,47.8061734318926 ,68.6848490617568
7.6264892 ,Left ,48.2161697608268 ,47.8251278136781 ,68.6774659926611
7.6416799 ,Left ,48.2739735258867 ,47.824378637102 ,68.6785103865404
7.6640448 ,Left ,48.2806175326656 ,47.8224689869258 ,68.6919563075801
7.6791655 ,Left ,48.2930039546204 ,47.8120894846001 ,68.7079207343353
7.694345 ,Left ,48.3108784593112 ,47.797734157753 ,68.7148886956066
7.7166777 ,Left ,48.3406045611343 ,47.7898944796935 ,68.7145215788168
7.7316683 ,Left ,48.3695424945559 ,47.7916509381704 ,68.7187534404948
7.7541068 ,Left ,48.3897886047909 ,47.7947895076247 ,68.7230673343165
7.7765929 ,Left ,48.3903041850171 ,47.7920811286783 ,68.7233154033515
7.7917062 ,Left ,48.3795515694083 ,47.7898701740454 ,68.7222083047604
7.8141091 ,Left ,48.3680250379625 ,47.7974288611042 ,68.7252791246667
7.8365684 ,Left ,48.3710213668505 ,47.8025019475877 ,68.729159778871
7.8514763 ,Left ,48.3622358632242 ,47.8107812969024 ,68.7314369707641
7.8814514 ,Left ,48.3251635880722 ,47.8168093951136 ,68.74386924634
7.9039663 ,Left ,48.2995497789414 ,47.8198448123052 ,68.7627463276434
7.9193112 ,Left ,48.2791237490573 ,47.8194659581042 ,68.7766227060502
7.9359024 ,Left ,48.2603158538864 ,47.818021033873 ,68.7904501932944
7.9565227 ,Left ,48.2464642286488 ,47.820387774642 ,68.8032595323762
7.9716651 ,Left ,48.2249813573417 ,47.8302106913721 ,68.8257375987034
7.9940393 ,Left ,48.1894064022405 ,47.8543376270979 ,68.8504361641152
8.016402 ,Left ,48.1849264483479 ,47.8788453249606 ,68.871793391103
8.0389471 ,Left ,48.2023881469232 ,47.89302261599 ,68.8877453429799
8.0540563 ,Left ,48.2171576439356 ,47.9020729693489 ,68.8946084085138
8.0767616 ,Left ,48.2556367235371 ,47.8998503382367 ,68.8929926161549
8.0990081 ,Left ,48.3357572709314 ,47.8742494793618 ,68.880031686812
8.1140995 ,Left ,48.3798076365367 ,47.8326545012188 ,68.8633977945607
8.151628 ,Left ,48.3637778439636 ,47.8057312031188 ,68.8415945323192
8.1739738 ,Left ,48.3720697629932 ,47.7952618300689 ,68.8303690560094
8.1892228 ,Left ,48.371396228178 ,47.7979794719987 ,68.8327403457636
8.2191779 ,Left ,48.3650487479806 ,47.8259829151908 ,68.8491694124013
8.2338342 ,Left ,48.3743922627833 ,47.8456743620068 ,68.8651525326828
8.2565182 ,Left ,48.3448217896342 ,47.8681074484236 ,68.8893370191437
8.279072 ,Left ,48.3166320094025 ,47.882627105936 ,68.9164963227804
8.2941116 ,Left ,48.3161208095299 ,47.8949304028828 ,68.9340880412947
8.3239095 ,Left ,48.3098034606944 ,47.903822001933 ,68.9412404497954
8.3465473 ,Left ,48.2883555108322 ,47.9136323569707 ,68.9399750764111
8.3638725 ,Left ,48.2883555108322 ,47.9136323569707 ,68.9399750764111
8.3781629 ,Left ,48.2910880688974 ,47.9141643628123 ,68.9396017576294
8.4066568 ,Left ,48.2783551515937 ,47.9203616755883 ,68.9451865236636
8.4216276 ,Left ,48.2614201834509 ,47.9343242030041 ,68.9499871053811
8.4441266 ,Left ,48.2612562579408 ,47.9343414233143 ,68.9526110635005
8.4741422 ,Left ,48.2467677228556 ,47.9418191134723 ,68.9604775853746
8.4966347 ,Left ,48.2527898622045 ,47.9427389052156 ,68.9760226740258
8.5191459 ,Left ,48.258329454994 ,47.9391407725468 ,68.989919094404
8.5340614 ,Left ,48.2427894889413 ,47.9356350921638 ,69.0036244599003
8.5566773 ,Left ,48.2232618066966 ,47.9231257020227 ,69.0184659118906
8.5810923 ,Left ,48.220743804787 ,47.9059794898182 ,69.020363310137
8.5941929 ,Left ,48.2391248745538 ,47.8791091323169 ,69.0071970407767
8.6166188 ,Left ,48.2726642619217 ,47.8539797070288 ,68.9942849477906
8.6391555 ,Left ,48.2591584336014 ,47.8464301031328 ,68.9848464589525
8.6542215 ,Left ,48.1897573345756 ,47.8482312963731 ,68.9638549616567
8.683935 ,Left ,48.1332879054071 ,47.8572740621806 ,68.9127540451491
8.7063648 ,Left ,48.1313751934313 ,47.8412977887324 ,68.8511518396422
8.7215113 ,Left ,48.1469813036627 ,47.8185630471706 ,68.8023993587221
8.7462003 ,Left ,48.1842628171004 ,47.807478798928 ,68.7785395498857
8.7591976 ,Left ,48.1890759449353 ,47.8088525069204 ,68.7637574743603
8.7741526 ,Left ,48.1718364179496 ,47.8083296019719 ,68.7470598164268
8.7983148 ,Left ,48.1404298478086 ,47.7938047479533 ,68.7308067169604
8.8191869 ,Left ,48.1138759839143 ,47.7783003349787 ,68.7071371595644
8.8346315 ,Left ,48.105610452189 ,47.7693902772144 ,68.6856419028446
8.8565494 ,Left ,48.1055652411125 ,47.7714978065334 ,68.6787785894937
8.8789494 ,Left ,48.089903309886 ,47.7747577592206 ,68.6707238081649
8.9015686 ,Left ,48.0820324675239 ,47.7728624883235 ,68.6671383014288
8.9165289 ,Left ,48.0946225442704 ,47.7717347948402 ,68.6727132215752
8.9389176 ,Left ,48.0913602902379 ,47.7599908799995 ,68.6955713175397
8.9689916 ,Left ,48.0867925090487 ,47.7491023752335 ,68.7137048862807
8.986799 ,Left ,48.0679004213251 ,47.7667695522743 ,68.7371110680397
9.0063508 ,Left ,48.0381076202282 ,47.8127525509958 ,68.7565576834644
9.0214711 ,Left ,48.0127930066772 ,47.8700655291196 ,68.7836823243675
9.036683 ,Left ,47.983511904367 ,47.9301354098473 ,68.7987732587134
9.0663818 ,Left ,47.9842211694235 ,47.9602351600376 ,68.8076289444015
9.0888553 ,Left ,48.0014276970848 ,47.9823757404982 ,68.8287737564034
9.1040617 ,Left ,47.9621684575218 ,48.00945268975 ,68.8628089068576
9.1191911 ,Left ,47.9201688223282 ,48.0195473281955 ,68.9040942338447
9.1416368 ,Left ,47.8921411308995 ,47.989421883907 ,68.9316027368149
9.1565486 ,Left ,47.8435521194012 ,47.9491723517198 ,68.9315140360954
9.1791401 ,Left ,47.8055768319441 ,47.9345365866596 ,68.9303741529872
9.2016871 ,Left ,47.7681154501133 ,47.9284643727763 ,68.9144213636021
9.2166403 ,Left ,47.7185726457869 ,47.9467291334215 ,68.8802460224179
9.2391377 ,Left ,47.669935712075 ,47.9900995101192 ,68.843108459513
9.2689669 ,Left ,47.6575159845884 ,48.037075403108 ,68.7968200510333
9.2840737 ,Left ,47.6700394049824 ,48.0647071074553 ,68.7455121828728
9.3063191 ,Left ,47.7058651907736 ,48.0763881536557 ,68.6820099752747
9.3214747 ,Left ,47.7169118201764 ,48.0815889508582 ,68.6335869653783
9.3364259 ,Left ,47.7141668728583 ,48.0873242813174 ,68.6074507317345
9.3591171 ,Left ,47.7550452385804 ,48.0805951534472 ,68.5756762955316
9.3816105 ,Left ,47.7823605616821 ,48.0703719808744 ,68.5177795630594
9.3966718 ,Left ,47.7293165523011 ,48.0707019195308 ,68.4725721093958
9.4190074 ,Left ,47.69126794722 ,48.0760908395635 ,68.4480219523617
9.4415174 ,Left ,47.6783374960566 ,48.065566154196 ,68.438862560481
9.4567008 ,Left ,47.6994769279806 ,48.0307166094014 ,68.4406324193959
9.4789949 ,Left ,47.6888395932094 ,48.0011488795023 ,68.46585099257
9.5015522 ,Left ,47.6721980937865 ,47.998947999705 ,68.4983033626292
9.5166337 ,Left ,47.6342907718679 ,48.0409364576478 ,68.5234116917693
9.5391745 ,Left ,47.6900769208935 ,48.0631551703791 ,68.531184380629
9.5615591 ,Left ,47.8152048232739 ,48.0372457918824 ,68.5299823530119
9.5767106 ,Left ,47.8992555948246 ,47.9845990253376 ,68.5287348391087
9.5993255 ,Left ,47.9063033130293 ,47.9333459897242 ,68.5381813073808
9.6216244 ,Left ,47.8303129081079 ,47.8971886530639 ,68.5668421792014
9.636592 ,Left ,47.7527848609654 ,47.8703635757103 ,68.6416001408736
9.659096 ,Left ,47.8388990899399 ,47.84062435393 ,68.6958581458303
9.6816253 ,Left ,47.9826869656562 ,47.811524815729 ,68.7204100344308
9.7041393 ,Left ,48.0571772881397 ,47.8209757415599 ,68.7395384133892
9.7191684 ,Left ,48.0245512828691 ,47.8781865816733 ,68.7461522809369
9.7489891 ,Left ,48.0126189658732 ,47.9591509829492 ,68.7529707754073
9.7714423 ,Left ,48.0811215219157 ,48.0264410702956 ,68.7528527221859
9.7866233 ,Left ,48.2214860447682 ,48.0525520209502 ,68.7409975022142
9.8016563 ,Left ,48.3448570941374 ,48.0620104690375 ,68.7397859921868
9.8241965 ,Left ,48.3476986267324 ,48.0650872342462 ,68.755382841081
9.8389773 ,Left ,48.271894289292 ,48.0642425198111 ,68.7840106873082
9.8615837 ,Left ,48.2312498647755 ,48.0586439230679 ,68.8027863646786
9.8841302 ,Left ,48.246467016512 ,48.0460280357345 ,68.8002786257675
9.8989985 ,Left ,48.2919057969389 ,48.0321576895962 ,68.7897422920828
9.9216489 ,Left ,48.3343154604025 ,48.0318847698492 ,68.7858908698129
9.9440187 ,Left ,48.3370425940364 ,48.0324288163872 ,68.7855336024918
9.9590705 ,Left ,48.3090060760787 ,48.0395730218219 ,68.7848350388552
9.9818865 ,Left ,48.2943459789647 ,48.0422629589434 ,68.7861543637233
10.0040262 ,Left ,48.3084030985636 ,48.0491745959474 ,68.7868483480499
10.0191768 ,Left ,48.3249851193959 ,48.0592974077639 ,68.7817300035125
10.0417254 ,Left ,48.3395636696181 ,48.0730334463691 ,68.7742530718068
10.0716192 ,Left ,48.3518593686238 ,48.0812023024465 ,68.7772594246375
10.0866563 ,Left ,48.3506252654831 ,48.0938361713878 ,68.7808575240721
10.1091937 ,Left ,48.335714255175 ,48.1109580211954 ,68.7876531895517
10.1465888 ,Left ,48.3039747879397 ,48.1536994794844 ,68.8075719371788
10.184119 ,Left ,48.2761630846259 ,48.2053560894875 ,68.8269218314054
10.2035587 ,Left ,48.2697440131756 ,48.2217703725459 ,68.8373263991477
10.2214967 ,Left ,48.2679485689247 ,48.2300840068712 ,68.8414590477699
10.2439888 ,Left ,48.2704048260824 ,48.2308260355332 ,68.8459412148618
10.2589263 ,Left ,48.25839287913 ,48.2270550007728 ,68.8476030024936
10.281631 ,Left ,48.260992433269 ,48.2256267422542 ,68.8589436805405
10.3040255 ,Left ,48.2618479662426 ,48.2181031503815 ,68.8715048720745
10.3191183 ,Left ,48.2497366489437 ,48.2146699582127 ,68.874980370181
10.3488466 ,Left ,48.2470099855201 ,48.2141346443114 ,68.8753269477506
10.3790969 ,Left ,48.2534734761933 ,48.2097976438118 ,68.8751004354339
10.394607 ,Left ,48.2457396819453 ,48.2007506583937 ,68.8672434304995
10.4089591 ,Left ,48.2333904567225 ,48.1924541515169 ,68.8646316714723
10.4390861 ,Left ,48.2030147275815 ,48.1777647921242 ,68.8831872342231
10.4618164 ,Left ,48.171396459449 ,48.1803310334249 ,68.8881878591678
10.484108 ,Left ,48.1497600117066 ,48.187997247375 ,68.8989810648034
10.4990123 ,Left ,48.1749427888319 ,48.1996083171843 ,68.9142577175124
10.5215151 ,Left ,48.2150464302262 ,48.2082272024055 ,68.923469595912
10.544085 ,Left ,48.2128716764264 ,48.2241512180085 ,68.9360951858753
10.5593269 ,Left ,36.143026716615 ,36.18649155069578 ,51.712749853464224
10.5815901 ,Left ,24.08943989141365 ,24.1366190986027 ,34.47689886821865
10.6041985 ,Left ,12.043223561567325 ,12.074619062885574 ,17.237380785685
12.2765028 ,Left ,47.7935998353094 ,48.0861481390964 ,68.7533495108178
12.3065475 ,Left ,47.8243530952947 ,48.0989679659717 ,68.7650335100313
12.3739951 ,Left ,47.9148497279816 ,48.088264399231 ,68.7706278988262
12.3966313 ,Left ,47.93029598663 ,48.0824750009136 ,68.765058641284
12.4340919 ,Left ,47.9932872587697 ,48.0568411484131 ,68.7588145953811
12.4566561 ,Left ,48.0062567158581 ,48.0482209344075 ,68.7583024328489
12.4941296 ,Left ,48.0120650481552 ,48.046648130181 ,68.7604004445062
12.5241323 ,Left ,48.0120650481552 ,48.046648130181 ,68.7604004445062
12.5840867 ,Left ,48.0220544282418 ,48.0519774742439 ,68.7656144224563
12.5989638 ,Left ,48.0414470532499 ,48.0602000952924 ,68.7675773114533
12.6441278 ,Left ,48.0902437616282 ,48.0699372776576 ,68.7663829876878
12.6815683 ,Left ,48.1008288530009 ,48.0674065570632 ,68.7610392552886
12.6966065 ,Left ,48.1183551896227 ,48.0603147825124 ,68.748020468658
12.7341779 ,Left ,48.1202411344195 ,48.0588515571358 ,68.7435567029136
12.7564253 ,Left ,48.1236977657498 ,48.0635361379409 ,68.7404194212783
12.7940693 ,Left ,48.1629115551815 ,48.0563195457192 ,68.7441801313601
12.8166112 ,Left ,48.172965488509 ,48.0545597483569 ,68.7476547254356
12.8615646 ,Left ,48.1798078285327 ,48.0523286063353 ,68.7593453629051
12.8841238 ,Left ,48.1878603545563 ,48.0541561743507 ,68.7604388486347
12.9141047 ,Left ,48.2049107273709 ,48.0501169003039 ,68.7730071179365
12.9363755 ,Left ,48.2021819903978 ,48.0495714948542 ,68.7733752088682
12.9741568 ,Left ,48.2364371052738 ,48.0432370958932 ,68.7872721263312
12.9978022 ,Left ,48.2372741367025 ,48.0452274045648 ,68.7913781664626
13.0338976 ,Left ,48.1941255435858 ,48.0415292149607 ,68.8243555179391
13.0564391 ,Left ,48.1952122585606 ,48.033811327064 ,68.8321323449947
13.0940515 ,Left ,48.1749654197161 ,48.0402054542413 ,68.8192601885721
13.1242363 ,Left ,48.1824877580861 ,48.0445611838817 ,68.8205156264284
13.1690161 ,Left ,48.1513322346195 ,48.0443663112913 ,68.825907017942
13.2150881 ,Left ,48.1050971464783 ,48.0657746134396 ,68.8239387422546
13.2365499 ,Left ,48.118983705588 ,48.0707712041537 ,68.8362235072271
13.2740612 ,Left ,48.1892581087476 ,48.0642912603772 ,68.8623273686798
13.2964919 ,Left ,48.1825502559418 ,48.0617809780239 ,68.865582112335
13.3415299 ,Left ,48.1505277819238 ,48.0668507117852 ,68.8682484377853
13.3641268 ,Left ,48.1604172656287 ,48.0742496033927 ,68.8666772639487
13.3872108 ,Left ,48.1939218991683 ,48.0802511448991 ,68.8766974852794
13.416452 ,Left ,48.1796134570872 ,48.0876791404867 ,68.8819066088314
13.4392084 ,Left ,48.1638760256197 ,48.0935466600114 ,68.8926618690175
13.4541639 ,Left ,48.169872618827 ,48.0966672343986 ,68.9012867495207
13.4691041 ,Left ,48.1929108561368 ,48.1002544664514 ,68.9053564453698
13.4915963 ,Left ,48.1929108561368 ,48.1002544664514 ,68.9053564453698
13.5140172 ,Left ,48.194064017586 ,48.10662277083 ,68.9141723956411
13.5297631 ,Left ,48.1883018697998 ,48.1129850385777 ,68.9211546581167
13.5530168 ,Left ,48.1798120391981 ,48.1188175278546 ,68.9285001516458
13.5666334 ,Left ,48.1790178773058 ,48.1289526688812 ,68.9345145451204
13.5891527 ,Left ,48.1959455240027 ,48.1341817393276 ,68.9417225499305
13.6115924 ,Left ,48.2077892500146 ,48.1286062778937 ,68.9506906572714
13.6265524 ,Left ,48.2142756418252 ,48.1198072178706 ,68.9672791900271
13.6491366 ,Left ,48.22795630779 ,48.1107822350399 ,68.9808811779692
13.6715548 ,Left ,48.2616326373442 ,48.1021819246615 ,68.9855668033481
13.6938313 ,Left ,48.2912248084153 ,48.1009875225088 ,68.9876859425965
13.7091437 ,Left ,48.3088194286301 ,48.1198480567563 ,68.9863612104951
13.7316774 ,Left ,48.2576212456402 ,48.1517726394125 ,68.9624417072033
13.7540896 ,Left ,48.1795750155033 ,48.1731177451028 ,68.923307230615
13.7691459 ,Left ,48.171674393009 ,48.1801147548298 ,68.8833583351131
13.7914444 ,Left ,48.2123273087077 ,48.1732902276796 ,68.8522960163737
13.814039 ,Left ,48.2270572998445 ,48.1656476697698 ,68.8396754615958
13.8291011 ,Left ,48.2073238351587 ,48.1741001170364 ,68.8360829000149
13.8516942 ,Left ,48.2009495187637 ,48.1756181842504 ,68.815523743163
13.8740545 ,Left ,48.1808787098392 ,48.1555685122577 ,68.7866076068583
13.889001 ,Left ,48.1368643908461 ,48.1422625562821 ,68.7614936504167
13.9113761 ,Left ,48.1083181230443 ,48.1279084782466 ,68.7400615674372
13.9341463 ,Left ,48.0674755326756 ,48.1220891611069 ,68.7353496126641
13.9492325 ,Left ,48.0328252578195 ,48.1121820691885 ,68.7352633981856
13.9716115 ,Left ,48.0433312265847 ,48.1148102116086 ,68.7407634580867
13.9940015 ,Left ,48.06797782906 ,48.1080046158453 ,68.7531358886313
14.0090638 ,Left ,48.0675695676115 ,48.0991262114587 ,68.7682329639418
14.0315618 ,Left ,48.0370759451258 ,48.1081715684079 ,68.7817498117514
14.0540338 ,Left ,47.9975643115453 ,48.1276750417261 ,68.793290011846
14.068912 ,Left ,47.9390500607275 ,48.1670914623266 ,68.7995249836971
14.0916735 ,Left ,47.8897089578823 ,48.2165054752345 ,68.8068883909871
14.114082 ,Left ,47.9019766306434 ,48.2484311144186 ,68.8043561141291
14.1316452 ,Left ,47.9211436487868 ,48.2709822176977 ,68.8121821316902
14.1516263 ,Left ,47.8712872253682 ,48.2981117907659 ,68.8376577098044
14.1741 ,Left ,47.8385211897182 ,48.3113204188336 ,68.8557800146066
14.1890768 ,Left ,47.7911873905242 ,48.3059040916786 ,68.8703677201875
14.211743 ,Left ,47.762610824842 ,48.3083626246173 ,68.8685872840494
14.2414304 ,Left ,47.7780049415016 ,48.3138977531238 ,68.8450301588352
14.2640995 ,Left ,47.7685134541493 ,48.3262346682193 ,68.811741297265
14.2866828 ,Left ,47.6804806261051 ,48.3618027876304 ,68.760848466406
14.3016252 ,Left ,47.6265249059861 ,48.4009306514452 ,68.7196502227627
14.3167005 ,Left ,47.6348182722199 ,48.4257990955221 ,68.6626545753062
14.3320766 ,Left ,47.6442641261908 ,48.4311455710217 ,68.6027782318773
14.3540548 ,Left ,47.6991332969435 ,48.4257699008082 ,68.5537871638757
14.3690508 ,Left ,47.7551028204507 ,48.4083078845976 ,68.505809112757
14.3914976 ,Left ,47.7618550039177 ,48.3955620648904 ,68.4691111546744
14.4139983 ,Left ,47.7195550091645 ,48.3869200968914 ,68.4393651774916
14.4299428 ,Left ,47.6770526955084 ,48.3716267412917 ,68.4148968472211
14.4515483 ,Left ,47.6806774660956 ,48.3449374929592 ,68.3894623114932
14.4740175 ,Left ,47.7028179515519 ,48.3108051374447 ,68.3631730041431
14.4888596 ,Left ,47.7169733233739 ,48.2780559978578 ,68.3559083501432
14.5190822 ,Left ,47.7089218363288 ,48.2653858350934 ,68.3766246615842
14.5421663 ,Left ,47.6874122213673 ,48.2687110541524 ,68.403980146453
14.5565819 ,Left ,47.6637895930227 ,48.2845502537027 ,68.4187761727301
14.5716129 ,Left ,47.7433331166628 ,48.2660584954867 ,68.4310255115046
14.5940626 ,Left ,47.8968884886333 ,48.2176061535104 ,68.4369191093086
14.6166764 ,Left ,47.9678093537651 ,48.1596851650339 ,68.4406370585378
14.6317122 ,Left ,47.8612828475522 ,48.1414674026317 ,68.4788750710509
14.6540157 ,Left ,47.7673792105468 ,48.138178807749 ,68.577398114359
14.6765281 ,Left ,47.8250366373609 ,48.1212341832579 ,68.6549297457296
14.6913586 ,Left ,47.9433826390448 ,48.1070528150508 ,68.6838732569797
14.7140919 ,Left ,48.0088701933258 ,48.118276825396 ,68.7111045827518
14.7438822 ,Left ,47.9810338643901 ,48.1510489332197 ,68.7175285138998
14.7592168 ,Left ,47.9727432727498 ,48.2081769623115 ,68.7148811430871
14.7816222 ,Left ,48.041648069459 ,48.2374035411285 ,68.7123952301153
14.8116426 ,Left ,48.159652668464 ,48.2598386240527 ,68.7108377395694
14.8340149 ,Left ,48.1452169527152 ,48.2651226867336 ,68.7280375241544
14.8564023 ,Left ,48.1632375954577 ,48.2557544852279 ,68.7437328775247
14.8715614 ,Left ,48.1961670196172 ,48.231511862739 ,68.7428068869566
14.8938925 ,Left ,48.2120564260609 ,48.2162016655205 ,68.7379399507946
14.9167209 ,Left ,48.2120564260609 ,48.2162016655205 ,68.7379399507946
14.9315481 ,Left ,48.2120564260609 ,48.2162016655205 ,68.7379399507946
14.9542103 ,Left ,48.2172842225855 ,48.2102990834972 ,68.7406116106567
14.9766943 ,Left ,48.2172842225855 ,48.2102990834972 ,68.7406116106567
14.9915325 ,Left ,48.216179764235 ,48.2086748277245 ,68.7409038322184
15.0140747 ,Left ,48.224547170792 ,48.2171617783595 ,68.7368964129887
15.0367979 ,Left ,48.2452402721416 ,48.2199153544471 ,68.7344036365429
15.0515476 ,Left ,48.2468610213304 ,48.2188383207049 ,68.7343459135476
15.081404 ,Left ,48.236283681097 ,48.2190523916576 ,68.7494703776645
15.1039281 ,Left ,48.2325768015208 ,48.2286542276121 ,68.7584595403478
15.119049 ,Left ,48.2501556716142 ,48.2312338573276 ,68.7633423896268
15.1339105 ,Left ,48.2745492585671 ,48.2266666161041 ,68.7712661572122
15.156468 ,Left ,48.2871131233747 ,48.2184120870528 ,68.7778309741222
15.1715894 ,Left ,48.2905771948263 ,48.2211044255114 ,68.7838131399792
15.1941483 ,Left ,48.292302894489 ,48.2316311782001 ,68.7925501464831
15.2167332 ,Left ,48.3042377483415 ,48.2424754638837 ,68.7927845007104
15.2315257 ,Left ,48.326541329048 ,48.2441091167036 ,68.7903103740457
15.2540492 ,Left ,48.3413831357612 ,48.2482707732107 ,68.7861490882378
15.2762763 ,Left ,48.3430017372605 ,48.2471907321341 ,68.7860935989545
15.2915805 ,Left ,48.3332134868502 ,48.2466440872455 ,68.7871541092076
15.3214584 ,Left ,48.33210877388 ,48.2450217971469 ,68.7874340763178
15.3438172 ,Left ,48.3452553494228 ,48.2432380681701 ,68.7840576183667
15.3664721 ,Left ,48.3358538992477 ,48.2423235867953 ,68.7780966178144
15.3815621 ,Left ,48.314681686081 ,48.2424508867695 ,68.7798729404837
15.4041076 ,Left ,48.3044215588181 ,48.2374029445756 ,68.7792494988188
15.4340858 ,Left ,48.3037312549625 ,48.235553737766 ,68.7721007407885
15.4565955 ,Left ,48.2969108903773 ,48.233044462246 ,68.7778813178335
15.4716111 ,Left ,48.2969108903773 ,48.233044462246 ,68.7778813178335
15.4939397 ,Left ,48.2815071485381 ,48.2387857476537 ,68.7833080228755
15.5167993 ,Left ,48.2795801155165 ,48.2472711419665 ,68.7896456267245
15.5318692 ,Left ,48.297328923018 ,48.2565250119996 ,68.7920468533307
15.5541103 ,Left ,48.294565309778 ,48.2631834141637 ,68.7938546735989
15.5764244 ,Left ,48.2737233531367 ,48.2678492194385 ,68.7999509131778
15.5992042 ,Left ,48.2521076737653 ,48.2754309238991 ,68.8106461342406
15.6215016 ,Left ,48.2512170383582 ,48.2785179573408 ,68.817443845152
15.6438616 ,Left ,48.264314655642 ,48.2816283035086 ,68.8253913028882
15.6664979 ,Left ,48.2785492803197 ,48.2791515539332 ,68.83159467952
15.6816214 ,Left ,48.2744834044914 ,48.2773434347253 ,68.8366287133092
15.6965335 ,Left ,48.251153756295 ,48.2672137845435 ,68.8371147002989
15.7200275 ,Left ,48.2336020081534 ,48.2553393367288 ,68.840202716981
15.7341138 ,Left ,48.2324933575928 ,48.2537189339241 ,68.840490407137
15.7566256 ,Left ,48.2324933575928 ,48.2537189339241 ,68.840490407137
15.7793925 ,Left ,48.2221648189828 ,48.2630950207947 ,68.8428042425769
15.7943734 ,Left ,48.2062928052506 ,48.2643718882065 ,68.8465603279064
15.8166016 ,Left ,48.1943102978092 ,48.2607514436403 ,68.8478270650293
15.8391565 ,Left ,48.1702894936989 ,48.2605716716014 ,68.852234753059
15.8541281 ,Left ,48.1702894936989 ,48.2605716716014 ,68.852234753059
15.8767836 ,Left ,48.1775389744592 ,48.2672533874751 ,68.8489186837078
15.8990714 ,Left ,48.1833180774145 ,48.2749862502193 ,68.8430502624353
15.9216027 ,Left ,48.1831663403498 ,48.284495627197 ,68.8372383709308
15.9439589 ,Left ,48.1741770589753 ,48.2951242758111 ,68.8348477945904
15.9667655 ,Left ,48.171893025807 ,48.3084131877331 ,68.8288644963165
15.981503 ,Left ,48.1941459768475 ,48.3332801841048 ,68.8198846768138
15.9968486 ,Left ,48.2260502005722 ,48.3515291117738 ,68.8110563250607
16.0193057 ,Left ,48.2394256135049 ,48.3707960130787 ,68.805507423059
16.0340305 ,Left ,48.2277107445685 ,48.3949570818258 ,68.8046283167374
16.0566122 ,Left ,48.2167858565176 ,48.4163427087849 ,68.79874838289
16.0791181 ,Left ,48.1971989083764 ,48.4316006352439 ,68.7921529765777
16.0941127 ,Left ,48.1879056229811 ,48.4446950680451 ,68.7847397614808
16.1165291 ,Left ,48.185697791582 ,48.4505918404923 ,68.7751355930673
16.1392354 ,Left ,48.1668523567764 ,48.4537730684335 ,68.7741100830897
16.1615711 ,Left ,48.1352967534306 ,48.4562284369593 ,68.7788749909209
16.1841567 ,Left ,48.1138032533473 ,48.4567688537479 ,68.7876428614176
16.2216143 ,Left ,48.0681864328805 ,48.4571520053103 ,68.803357993183
16.2440031 ,Left ,48.0619733252694 ,48.4499084301437 ,68.8188166949306
16.2590741 ,Left ,48.0646816783532 ,48.4413480433104 ,68.8286777799562
16.273989 ,Left ,48.0625961223755 ,48.4339460008394 ,68.848169703175
16.2970741 ,Left ,48.0645517906419 ,48.4260868717037 ,68.8725081857606
16.3191302 ,Left ,48.0758796144871 ,48.4122874506949 ,68.9031657392092
16.341593 ,Left ,48.0945991745437 ,48.3957754054872 ,68.9359668179439
16.3564383 ,Left ,48.1176772789968 ,48.3694953762751 ,68.9760469941772
16.3790619 ,Left ,48.1366887089836 ,48.3503661299904 ,69.0113853839812
16.3940995 ,Left ,48.1437673493164 ,48.3388910604436 ,69.0282203395889
16.4164938 ,Left ,48.1799159392893 ,48.3473919322503 ,69.031364153587
16.439203 ,Left ,48.1962480434738 ,48.3405203087681 ,69.0069497508084
16.4540822 ,Left ,48.1434957801016 ,48.3163449453906 ,68.9670737212387
16.4765192 ,Left ,48.0853085803017 ,48.3074741897154 ,68.921514861338
16.4991663 ,Left ,48.081961715343 ,48.3018317292484 ,68.8920880682001
16.5213671 ,Left ,48.1505199290416 ,48.2929999430698 ,68.8723701957438
16.5364243 ,Left ,48.1840291691379 ,48.2886006691349 ,68.8318947109296
16.5589999 ,Left ,48.1420902143947 ,48.2805652087517 ,68.7968754493153
16.5815389 ,Left ,48.0744288943588 ,48.2662424357727 ,68.76727129265
16.5965209 ,Left ,48.0265406141391 ,48.2575084744876 ,68.7424638202602
16.6191053 ,Left ,48.0090369838814 ,48.2500147128647 ,68.726033524388
16.6416377 ,Left ,47.959463840267 ,48.254630002656 ,68.7136810553919
16.6566868 ,Left ,47.9320036966072 ,48.2586015606299 ,68.7115338897457
16.6789572 ,Left ,47.9659092165258 ,48.2501736205322 ,68.7138508660032
16.7016097 ,Left ,47.9862864090798 ,48.2461697380993 ,68.7168126362803
16.7164539 ,Left ,47.9636525719836 ,48.2358091848166 ,68.7341723964121
16.746619 ,Left ,47.9640201794542 ,48.2311061894249 ,68.7464845942311
16.769026 ,Left ,47.961855469231 ,48.2259720551941 ,68.756152121835
16.7841067 ,Left ,47.9316952924149 ,48.2414860527532 ,68.764824416204
16.7990259 ,Left ,47.8732993005165 ,48.2947109087158 ,68.7697793801812
16.8216293 ,Left ,47.8120136669259 ,48.3546737083046 ,68.779078309046
16.837692 ,Left ,47.8252997554735 ,48.4093656797546 ,68.779109184489
16.8679055 ,Left ,47.8588103376534 ,48.4478026599306 ,68.7722343321366
16.8817067 ,Left ,47.8277504900203 ,48.4811728495703 ,68.7926001671758
16.8967756 ,Left ,47.7636582682341 ,48.5158168804806 ,68.8257088065779
16.9267543 ,Left ,47.7319986985632 ,48.5257927612616 ,68.834351260645
16.9490563 ,Left ,47.6611844561309 ,48.5212383345581 ,68.8324058172711
16.9639417 ,Left ,47.6259823316845 ,48.5036088647103 ,68.8073580859571
16.9789555 ,Left ,47.6325562499003 ,48.4834553244267 ,68.7690346972687
17.0016312 ,Left ,47.6071441973555 ,48.4946918975673 ,68.7469863986196
17.0164026 ,Left ,47.5504430667859 ,48.520194716256 ,68.7357223435864
17.0391146 ,Left ,47.5198932593058 ,48.5511796095481 ,68.7093551552729
17.06194 ,Left ,47.548006923751 ,48.5706615579022 ,68.6743584817575
17.0768042 ,Left ,47.6076185918456 ,48.583083669994 ,68.6249506808701
17.0989531 ,Left ,47.6649974907408 ,48.5833089146305 ,68.5869617450246
17.1215979 ,Left ,47.6695568182079 ,48.5770107671825 ,68.5688134633732
17.1364567 ,Left ,47.6861543436816 ,48.5658467267619 ,68.5612631552018
17.1590413 ,Left ,47.6889906203917 ,48.5399759367115 ,68.5473407038197
17.1813517 ,Left ,47.697595570864 ,48.512830374195 ,68.5377202486576
17.1967202 ,Left ,47.7300896823961 ,48.4843893420903 ,68.537731072633
17.2189219 ,Left ,47.7393904288253 ,48.4595998174829 ,68.5369339709277
17.2491874 ,Left ,47.7186279427252 ,48.4449724446621 ,68.5310016031367
17.2652086 ,Left ,47.71136573511 ,48.4419788253179 ,68.5134509886812
17.2794646 ,Left ,47.7312665431735 ,48.4513512613918 ,68.4922016764964
17.2939475 ,Left ,47.7584472629804 ,48.4609184232363 ,68.4671732255719
17.3165856 ,Left ,47.766796122083 ,48.4779788092576 ,68.4486072079873
17.3389491 ,Left ,47.7844496791105 ,48.496261906002 ,68.4384495284964
17.3690208 ,Left ,47.8116308171071 ,48.4967484734232 ,68.4241038527941
17.3913783 ,Left ,47.8243444455735 ,48.492482354698 ,68.4071133519465
17.4141449 ,Left ,47.8292155931761 ,48.4930306337398 ,68.3835085792721
17.4289026 ,Left ,47.8132928517538 ,48.4841552723476 ,68.3671792066079
17.4515514 ,Left ,47.8053826673047 ,48.468123866326 ,68.3650751217825
17.4740534 ,Left ,47.8103638806504 ,48.4510850951347 ,68.3660342234366
17.489051 ,Left ,47.7888013927601 ,48.439540161282 ,68.3667399421649
17.5116405 ,Left ,47.7844434233862 ,48.4400176023323 ,68.3671708689176
17.5341161 ,Left ,47.7840229461485 ,48.4267011499833 ,68.3778509522147
17.5491178 ,Left ,47.8060701456079 ,48.419963026006 ,68.3926244481442
17.5789929 ,Left ,47.7795437292278 ,48.4096876885523 ,68.4054905250803
17.6015076 ,Left ,47.7562257587488 ,48.4024156361348 ,68.4294085530273
17.6314165 ,Left ,47.7551104542793 ,48.3850020581555 ,68.4428728001995
17.6617859 ,Left ,47.7586617682925 ,48.3804713549995 ,68.447763106702
17.6766138 ,Left ,47.7867757350456 ,48.3789424171031 ,68.4590557251913
17.6995596 ,Left ,47.8107230304823 ,48.3774527997268 ,68.4664625424263
17.7140764 ,Left ,47.7849881991945 ,48.3800619153171 ,68.4617145581469
17.7292092 ,Left ,47.7817245029205 ,48.3821828846674 ,68.4618401330386
17.7514415 ,Left ,47.8120694476695 ,48.3788121342605 ,68.4613832793588
17.7740207 ,Left ,47.8004576357104 ,48.3884395406672 ,68.4546322761756
17.78885 ,Left ,47.7674574612983 ,48.4001622915249 ,68.4427019887542
17.8113535 ,Left ,47.7750861033095 ,48.4063329016133 ,68.4298090132465
17.834113 ,Left ,47.8447660579726 ,48.3840146619005 ,68.4231576440939
17.8490094 ,Left ,47.8939504654052 ,48.3518319266982 ,68.4169501179007
17.8713568 ,Left ,47.8463341236014 ,48.3273502589511 ,68.4308207599097
17.8940065 ,Left ,47.8176695678604 ,48.3197818224663 ,68.4832538630238
17.9316444 ,Left ,47.8713698782048 ,48.2945945073865 ,68.5736430507092
17.954001 ,Left ,47.9286915602478 ,48.2904105581844 ,68.6037353813164
17.9914181 ,Left ,48.0066407669907 ,48.2939385555606 ,68.6425729747426
18.0140679 ,Left ,47.9985266086142 ,48.3204000990238 ,68.6431272213601
18.0513667 ,Left ,48.0867937381392 ,48.3300483423362 ,68.6407009256123
18.0738407 ,Left ,48.140569499964 ,48.3272582075271 ,68.6456713854617
18.1193356 ,Left ,48.1981656847262 ,48.3135763787874 ,68.6808501262517
18.1413602 ,Left ,48.2202139273794 ,48.2990014742009 ,68.692271663868
18.1714568 ,Left ,48.2860436120444 ,48.2815343154122 ,68.7134761302727
18.1939349 ,Left ,48.3023329708099 ,48.2614226940027 ,68.7208755045573
18.2314043 ,Left ,48.2954539722598 ,48.2168367297014 ,68.7254227411993
18.2539287 ,Left ,48.2937011973884 ,48.2038577984997 ,68.7269649389592
18.2913384 ,Left ,48.2819347971194 ,48.1929605464958 ,68.724152792249
18.3157065 ,Left ,48.2819347971194 ,48.1929605464958 ,68.724152792249
18.3590012 ,Left ,48.3140338964004 ,48.2138679412427 ,68.731195981593
18.4264421 ,Left ,48.3109753152065 ,48.263108619778 ,68.740842086017
18.4715109 ,Left ,48.3299150847424 ,48.2902222353439 ,68.7321274118524
18.5091288 ,Left ,48.3315081580404 ,48.2913066090418 ,68.7226426657429
18.5326142 ,Left ,48.3142814651652 ,48.2933954252472 ,68.7215799086303
18.5691059 ,Left ,48.2982972195337 ,48.3061081361914 ,68.7079000442004
18.6066923 ,Left ,48.3137546418354 ,48.3074317355124 ,68.7017907915493
18.6440088 ,Left ,48.28506187899 ,48.3172085245058 ,68.7033147944198
18.6515391 ,Left ,48.2573804419695 ,48.32144192206 ,68.7057091036229
18.6739833 ,Left ,48.2455352672621 ,48.3175892752202 ,68.7047226803586
18.7116387 ,Left ,48.2104845051337 ,48.3196755764217 ,68.6933302953489
18.7491392 ,Left ,48.1747264278284 ,48.3271567362679 ,68.7054805807365
18.77155 ,Left ,48.1948356694996 ,48.3233377424396 ,68.7133859345554
18.8089968 ,Left ,48.171723314939 ,48.3176933763278 ,68.7208033726076
18.8315708 ,Left ,48.1701019967771 ,48.3187690835433 ,68.7208602084841
18.8691107 ,Left ,48.1882805036531 ,48.3257047716544 ,68.7252379161148
18.8914388 ,Left ,48.1898209973935 ,48.3316865090195 ,68.7270512268254
18.9290555 ,Left ,48.2329081276951 ,48.347744232315 ,68.7309449792597
18.959242 ,Left ,48.2357860116691 ,48.3459806970735 ,68.7378421083323
19.003908 ,Left ,48.2395953851538 ,48.3367150060284 ,68.7572369662354
19.1091046 ,Left ,48.228411860394 ,48.2818842657099 ,68.8098430651921
19.1316244 ,Left ,48.2264457825885 ,48.2761513687305 ,68.8154648270723
19.1468522 ,Left ,48.2378565075135 ,48.2756098426485 ,68.8143266466855
19.1691342 ,Left ,48.2479649734144 ,48.2828184166131 ,68.8080963522438
19.1840611 ,Left ,48.2503754982366 ,48.2929077512039 ,68.8045859202045
19.2066093 ,Left ,48.2446111681978 ,48.301374255305 ,68.802093954357
19.2363853 ,Left ,48.2297927088339 ,48.3135860379148 ,68.7975486708223
19.2515326 ,Left ,48.2060938489724 ,48.3200261523107 ,68.7967367982712
19.2741109 ,Left ,48.1841556648465 ,48.3230829247746 ,68.803127339123
19.2891284 ,Left ,48.1726331355009 ,48.3238036152679 ,68.8064698209826
19.3039223 ,Left ,48.1528232293279 ,48.3230900792306 ,68.8130525951197
19.3267857 ,Left ,48.145664346241 ,48.318912892171 ,68.8353381803809
19.3416404 ,Left ,48.1563771529812 ,48.3098580453775 ,68.8562654649424
19.3658279 ,Left ,48.1620022561509 ,48.3044067231585 ,68.8817957876001
19.3865839 ,Left ,48.144918383937 ,48.29779694173 ,68.9169301813834
19.4090395 ,Left ,48.1440627081511 ,48.2801593151622 ,68.949338637221
19.4241208 ,Left ,48.1707192102251 ,48.2552674013936 ,68.9610424213205
19.4465956 ,Left ,48.2168198891163 ,48.2407062588278 ,68.9651143065127
19.4691509 ,Left ,48.2506756899146 ,48.2270428302094 ,68.9562989736007
19.483909 ,Left ,48.192674083205 ,48.2209475140456 ,68.9293353227938
19.5064741 ,Left ,48.111371822794 ,48.2208361843603 ,68.894760580315
19.5289521 ,Left ,48.0937225373418 ,48.2058633925171 ,68.8509274482916
19.5440946 ,Left ,48.1460032820108 ,48.1934850804842 ,68.8047412116461
19.5670341 ,Left ,48.1743588903804 ,48.1926279228975 ,68.771829619231
19.5890147 ,Left ,48.1718723610093 ,48.2054148035522 ,68.7404411054188
19.6041028 ,Left ,48.1515866744427 ,48.2087222036081 ,68.707243393147
19.6264041 ,Left ,48.1130698761767 ,48.2054935662833 ,68.671217700805
19.64914 ,Left ,48.0767280347373 ,48.2031897381544 ,68.6445181400953
19.6640243 ,Left ,48.0459928946102 ,48.2044667832159 ,68.633422325582
19.6865982 ,Left ,48.0157083507369 ,48.1891296580275 ,68.6237931064567
19.7088248 ,Left ,48.0192489808201 ,48.172499193356 ,68.6182964357047
19.7241398 ,Left ,48.0452595243942 ,48.1553763096322 ,68.6172943687585
19.7465993 ,Left ,48.049917858501 ,48.1431060587789 ,68.6299419779434
19.7690413 ,Left ,48.0251111958823 ,48.1364254707403 ,68.6471262140746
19.784451 ,Left ,47.9984023725942 ,48.14739202121 ,68.6603249235293
19.8067593 ,Left ,47.9846153807397 ,48.1711154990536 ,68.675370189912
19.8290481 ,Left ,47.9554406621203 ,48.2094983543533 ,68.686090014099
19.8439308 ,Left ,47.9004292897235 ,48.2559720798273 ,68.7054419858627
19.8665797 ,Left ,47.890105637644 ,48.2983364780782 ,68.7187447307824
19.8890926 ,Left ,47.9518645575913 ,48.3256966634117 ,68.7287115956877
19.9040927 ,Left ,47.9747548717821 ,48.3485986907214 ,68.7476642603513
19.9265013 ,Left ,47.9231161253451 ,48.3698533475159 ,68.7760609700558
19.9490282 ,Left ,47.917173973022 ,48.3794939426226 ,68.8085442862879
19.9660053 ,Left ,47.9325453489841 ,48.3698184206215 ,68.8241983847212
19.9866268 ,Left ,47.9224870458225 ,48.3717248453627 ,68.8202803423244
20.0090142 ,Left ,47.8807647327544 ,48.3870550214255 ,68.8021011682019
20.0240399 ,Left ,47.8394086414798 ,48.4305410807365 ,68.7803412691034
20.0463688 ,Left ,47.7908221956564 ,48.4759390369578 ,68.7499403762462
20.0690518 ,Left ,47.7799826375545 ,48.4938458426248 ,68.7184760503434
20.0839674 ,Left ,47.8108338430334 ,48.4930495727404 ,68.683127856922
20.1064177 ,Left ,47.8263255058044 ,48.4857593284297 ,68.6406501694603
20.1290246 ,Left ,47.7988755012424 ,48.4745603925439 ,68.6043868942062
20.1439954 ,Left ,47.79738503965 ,48.47226600163 ,68.5790693600167
20.1665402 ,Left ,47.8463897883115 ,48.4646934514498 ,68.549607443657
20.1890421 ,Left ,47.870207109227 ,48.4571827431766 ,68.5155737633583
20.2041025 ,Left ,47.8504077608891 ,48.4571734503339 ,68.4777325079218
20.2265381 ,Left ,47.7931484411158 ,48.4584564533303 ,68.4530632469583
20.2489283 ,Left ,47.7713238590634 ,48.4542599989788 ,68.457747933604
20.2642949 ,Left ,47.805455024157 ,48.4390687955888 ,68.458258543498
20.2866893 ,Left ,47.8062826644092 ,48.4060599868708 ,68.4662813016501
20.3089678 ,Left ,47.7302786083086 ,48.4008864353949 ,68.4947690908961
20.3389706 ,Left ,47.6437767615031 ,48.4171180212871 ,68.5364944317144
20.3540677 ,Left ,47.6281655496234 ,48.4249937961171 ,68.5347880179664
20.3917504 ,Left ,47.7896211091699 ,48.383574598691 ,68.5095252737668
20.406456 ,Left ,47.8692478992395 ,48.3434526733319 ,68.5198683425314
20.4291676 ,Left ,47.8215077239546 ,48.3108774033518 ,68.5748668667946
20.4515269 ,Left ,47.8024857735793 ,48.2932644725806 ,68.6482051756216
20.4664987 ,Left ,47.8523816886353 ,48.2612744155778 ,68.6841505752097
20.488979 ,Left ,47.8982483085634 ,48.2334279376647 ,68.694293296366
20.5115343 ,Left ,47.9255784434217 ,48.2395469398542 ,68.7188641965479
20.5267176 ,Left ,47.9231859039875 ,48.2556285092575 ,68.7339037246207
20.5564255 ,Left ,47.9111787272682 ,48.2873769687947 ,68.7386424043795
20.5865461 ,Left ,47.9329337095308 ,48.3129110899805 ,68.7384883065403
20.6014776 ,Left ,47.9924372715887 ,48.3249321018574 ,68.7387332710986
20.6168123 ,Left ,48.054394640168 ,48.3236408520812 ,68.7425173709725
20.6316425 ,Left ,48.059658864456 ,48.3156766877144 ,68.754635248886
20.6469346 ,Left ,48.0562250031312 ,48.302056887961 ,68.767538114484
20.6690482 ,Left ,48.0718456104486 ,48.2775079185549 ,68.7759345277686
20.6915461 ,Left ,48.0976472572252 ,48.2604474891935 ,68.7772001902866
20.7065674 ,Left ,48.1159055652386 ,48.2529442167756 ,68.7786334486661
20.7291515 ,Left ,48.1266604202752 ,48.2551551440246 ,68.7798267394091
20.7515505 ,Left ,48.1266604202752 ,48.2551551440246 ,68.7798267394091
20.7666667 ,Left ,48.1261479619841 ,48.2578560965782 ,68.7795889213526
20.7892616 ,Left ,48.1363898921912 ,48.2627670940475 ,68.7805514125203
20.8115852 ,Left ,48.1388694765942 ,48.2657884296908 ,68.7751481265038
20.826608 ,Left ,48.1285046139635 ,48.2772475354385 ,68.7680078132137
20.851225 ,Left ,48.1282958742361 ,48.2865950356532 ,68.7626055288892
20.8715391 ,Left ,48.1373638667731 ,48.2851182250342 ,68.7547773556102
20.8865605 ,Left ,48.1488939705145 ,48.2844134488565 ,68.7514133794163
20.9088795 ,Left ,48.1484523231991 ,48.2941366533186 ,68.7504206002638
20.9317163 ,Left ,48.1479349159428 ,48.3109183063168 ,68.7512865301751
20.9465074 ,Left ,48.1452832096659 ,48.3173950245067 ,68.7508786985901
20.9690839 ,Left ,48.139318023213 ,48.319003875502 ,68.7513390241905
20.9914078 ,Left ,48.1311421999019 ,48.3314493521347 ,68.7534803688892
21.0066498 ,Left ,48.1080953129709 ,48.3469461612238 ,68.761285146007
21.0289347 ,Left ,48.0965864430084 ,48.3527764908226 ,68.7755270927552
21.0516766 ,Left ,48.1165860649762 ,48.3491235001161 ,68.7856296651288
21.0669228 ,Left ,48.10892284201 ,48.3447966896631 ,68.7869012662421
21.0890097 ,Left ,48.0532444552156 ,48.3489842505477 ,68.7871912732855
21.1112927 ,Left ,48.0174104278892 ,48.3540192102673 ,68.7804975352641
21.1265251 ,Left ,48.0119350521743 ,48.3499963106609 ,68.7604757096925
21.149022 ,Left ,47.9785855544982 ,48.3529722460315 ,68.7371510403952
21.1715783 ,Left ,47.9162274208761 ,48.3635866449928 ,68.7306243610666
21.1865886 ,Left ,47.8918166827412 ,48.3748722485122 ,68.7224575094212
21.2090175 ,Left ,47.900141232241 ,48.3781329452699 ,68.7075440024846
21.2318013 ,Left ,47.8920355864538 ,48.3806346537867 ,68.6867574175593
21.2469187 ,Left ,47.8598247866154 ,48.3899023549079 ,68.6723036900661
21.2692858 ,Left ,47.8562347026794 ,48.3964890813146 ,68.6579632313498
21.2916 ,Left ,47.8463535675418 ,48.3979080804558 ,68.6497057357285
21.3143856 ,Left ,47.8206016879269 ,48.414763590764 ,68.6458754012488
21.3288625 ,Left ,47.8341011606759 ,48.4318332310712 ,68.647241046128
21.351454 ,Left ,47.8930889245673 ,48.4395166883515 ,68.6458817177235
21.374034 ,Left ,47.9536412558264 ,48.4533433245123 ,68.6460197839896
21.3891671 ,Left ,47.9830773838914 ,48.4740145543501 ,68.6528619711579
21.4115197 ,Left ,47.9778310243922 ,48.4848864265145 ,68.6614511667722
21.4489832 ,Left ,47.9625972442029 ,48.4882169611466 ,68.6744949046446
21.4642022 ,Left ,47.9630383194165 ,48.4907398326565 ,68.6881805497554
21.5090633 ,Left ,47.9426133641405 ,48.5081575702837 ,68.7327166959157
21.5315463 ,Left ,47.9300994353026 ,48.5052098762974 ,68.7457834526976
21.554061 ,Left ,47.9179539692859 ,48.4977965241423 ,68.7733425624005
21.5689313 ,Left ,47.9063029344053 ,48.4877042823178 ,68.801173462609
21.5914601 ,Left ,47.9042460639705 ,48.4713549075592 ,68.8309054277145
21.6139444 ,Left ,47.8909226277449 ,48.4551524827848 ,68.8574462280933
21.6291632 ,Left ,47.8861529125212 ,48.4402562627535 ,68.8755247891741
21.6514621 ,Left ,47.8756931945602 ,48.4263782222187 ,68.8874776622894
21.6740876 ,Left ,47.8665437864318 ,48.4209294628402 ,68.8961396956858
21.6891001 ,Left ,47.913921801165 ,48.4294763953982 ,68.9022399128672
21.7114832 ,Left ,47.9620132204008 ,48.4389510731033 ,68.8826818126001
21.7340723 ,Left ,47.9060370496061 ,48.4608207314498 ,68.8366824599234
21.7566675 ,Left ,47.8549834368547 ,48.4792191234092 ,68.7880163805251
21.7790003 ,Left ,47.873954804406 ,48.476755044189 ,68.7419078016598
21.8089156 ,Left ,47.9377706086531 ,48.4275817504381 ,68.6825263458567
21.8315139 ,Left ,47.946145436043 ,48.3936494952296 ,68.6757477799514
21.8540643 ,Left ,47.9454618536673 ,48.3634022281908 ,68.6669780055579
21.8691145 ,Left ,47.9342477063595 ,48.3304800932079 ,68.6527094444245
21.8915509 ,Left ,47.9221717576716 ,48.3097495265124 ,68.6350195889827
21.913895 ,Left ,47.9080606670456 ,48.2835140164412 ,68.6252182533457
21.9364897 ,Left ,47.8559267892855 ,48.2589601550291 ,68.6092760006461
21.9587867 ,Left ,47.8375263715451 ,48.2333528891962 ,68.5996550957694
21.9890608 ,Left ,47.8996647661392 ,48.2048299292239 ,68.6293019726121
22.0191022 ,Left ,47.9101824476669 ,48.2012798174744 ,68.6634674105698
22.0414211 ,Left ,47.9151762743134 ,48.2058596930662 ,68.6903566116812
22.0566123 ,Left ,47.8942007623647 ,48.2296448014004 ,68.7088196934595
22.0715988 ,Left ,47.864891698552 ,48.2753512453456 ,68.723494038922
22.0941431 ,Left ,47.8054391352697 ,48.3177987890596 ,68.7364315166847
22.1091118 ,Left ,47.7559783567024 ,48.3602452930339 ,68.7441841746991
22.1315202 ,Left ,47.7569811810653 ,48.3812634121185 ,68.7582434809514
22.1539933 ,Left ,47.7853936482183 ,48.3891185656464 ,68.7851530298325
22.1689837 ,Left ,47.7663807985273 ,48.3936541434921 ,68.8193232261899
22.1915438 ,Left ,47.7202601004852 ,48.392949155432 ,68.8542799282292
22.2140372 ,Left ,47.7001033197018 ,48.3748054961916 ,68.8861559345247
22.2366071 ,Left ,47.7442319052137 ,48.3293855111326 ,68.9127254684353
22.2516097 ,Left ,47.846468039542 ,48.237739638669 ,68.9353642457999
22.2740417 ,Left ,47.8789712641879 ,48.1430615257987 ,68.9539021935718
22.296584 ,Left ,47.7407793322052 ,48.1086933236735 ,68.951066261836
22.3115048 ,Left ,47.6036494444472 ,48.1341040104168 ,68.9230627145992
22.3340402 ,Left ,47.6094275566584 ,48.1591531014324 ,68.8750131839743
22.3565842 ,Left ,47.6952524500976 ,48.1513311576024 ,68.8127668602596
22.3716491 ,Left ,47.7512791660799 ,48.1429370005243 ,68.760749123002
22.3940444 ,Left ,47.7411411717948 ,48.1489725842678 ,68.7401973868541
22.4166025 ,Left ,47.6950072761749 ,48.1600836443409 ,68.7156638226423
22.4387579 ,Left ,47.6774035006222 ,48.1706246614381 ,68.6836974084754
22.4616342 ,Left ,47.6892049079762 ,48.182755192609 ,68.6483380861078
22.4840417 ,Left ,47.7377567363611 ,48.1820795117304 ,68.6035465991679
22.499725 ,Left ,47.7262429503283 ,48.1767006832324 ,68.5680993094405
22.5140891 ,Left ,47.6634642727974 ,48.1753992723001 ,68.5586108278401
22.5365692 ,Left ,47.615176082821 ,48.162593153975 ,68.5606452128707
22.5515672 ,Left ,47.5728106775861 ,48.1392790345312 ,68.5725640834964
22.5739566 ,Left ,47.5772279183393 ,48.1246760330036 ,68.5712966727608
22.5965284 ,Left ,47.6083126772264 ,48.1321620865229 ,68.5671809427751
22.6113874 ,Left ,47.6181407688487 ,48.1558439226296 ,68.556347667423
22.6339884 ,Left ,47.6129006769754 ,48.1744831566416 ,68.5245526481062
22.6564574 ,Left ,47.669697365444 ,48.1504153588422 ,68.4978271775681
22.6717041 ,Left ,47.7525758700924 ,48.1121833827949 ,68.488790503169
22.6938621 ,Left ,47.7634450704426 ,48.0722675041324 ,68.4898209664141
22.7171411 ,Left ,47.6556685929209 ,48.0407476732497 ,68.518903670003
22.7329801 ,Left ,47.6471467311971 ,48.0293935735611 ,68.5698889043657
22.754169 ,Left ,47.7271621095473 ,47.9964033264179 ,68.5974157236296
22.7765642 ,Left ,47.8331636941941 ,47.9487534938361 ,68.6401618800558
22.7914932 ,Left ,47.8867516363598 ,47.9214369875535 ,68.688837991061
22.8140332 ,Left ,47.8621077360697 ,47.9222422393916 ,68.7264724443293
22.8365736 ,Left ,47.8780412327902 ,47.9663175184663 ,68.7429818672787
22.8515736 ,Left ,47.9777413751836 ,48.0241294950846 ,68.7191045832889
22.8739658 ,Left ,48.121917952664 ,48.0474771882158 ,68.6978144860158
22.8980526 ,Left ,48.2863689881938 ,48.0462721310718 ,68.6788325499335
22.9190817 ,Left ,48.3556605916552 ,48.0399657683362 ,68.6683358626635
22.9340687 ,Left ,48.289463839285 ,48.0394120754593 ,68.6722432805617
22.9565302 ,Left ,48.2250931714395 ,48.0447874794568 ,68.6994104871817
22.9788644 ,Left ,48.2602203228392 ,48.0454121200915 ,68.7260506652687
22.9939838 ,Left ,48.3274039933149 ,48.0382911806135 ,68.7320319756081
23.0166623 ,Left ,48.359888640228 ,48.0378556527956 ,68.7311418038779
23.0313918 ,Left ,48.359888640228 ,48.0378556527956 ,68.7311418038779
23.0463493 ,Left ,48.3420502164743 ,48.0354685278614 ,68.7311335793682
23.0688562 ,Left ,48.3110516593955 ,48.0445229501655 ,68.7257401714507
23.0840833 ,Left ,48.2929232782904 ,48.0565737765201 ,68.7312200349563
23.1140954 ,Left ,48.3021234137115 ,48.0669000486745 ,68.7316895029307
23.1365273 ,Left ,48.3212550132746 ,48.077616941225 ,68.728846185399
23.1515616 ,Left ,48.3179490704478 ,48.0869806486902 ,68.7304021780854
23.1665828 ,Left ,48.2837267289909 ,48.0933987987586 ,68.7426394753125
23.1966321 ,Left ,48.2723229866891 ,48.098646338902 ,68.7529263284696
23.2116168 ,Left ,48.2624684697059 ,48.1052968023562 ,68.7554860128214
23.2490647 ,Left ,48.2152474822355 ,48.1370927802298 ,68.7612052675355
23.2868748 ,Left ,48.1750238815458 ,48.1638361930054 ,68.7578783526654
23.3090629 ,Left ,48.1185356182338 ,48.1709115008503 ,68.7629425027161
23.323904 ,Left ,48.0710881886044 ,48.1816392013989 ,68.7710657026803
23.3464426 ,Left ,48.0623188074904 ,48.189768186534 ,68.7737338723522
23.3689013 ,Left ,48.029938351725 ,48.1974004645813 ,68.7735246026086
23.3839921 ,Left ,48.006014361822 ,48.1990408427177 ,68.7664259798147
23.4065448 ,Left ,48.0536270205128 ,48.1903522883656 ,68.7461891175552
23.4290236 ,Left ,48.0912421988458 ,48.1743104368264 ,68.7301457050825
23.4438659 ,Left ,48.0930651832674 ,48.1821542294739 ,68.7176456535092
23.4664109 ,Left ,48.1220930739283 ,48.1607312602758 ,68.72861454738
23.4891347 ,Left ,48.1437770331444 ,48.1255539150683 ,68.7437505212357
23.5039562 ,Left ,48.1072470354609 ,48.1076564987776 ,68.7564986537536
23.526401 ,Left ,48.0670190540926 ,48.109054335563 ,68.7693671317204
23.5497378 ,Left ,48.0628562886571 ,48.1050366945885 ,68.7843438168403
23.5641156 ,Left ,48.0702096477887 ,48.0982153120215 ,68.8053525909613
23.5865426 ,Left ,48.063720451033 ,48.1052424639986 ,68.8241578355366
23.608911 ,Left ,48.0542208047842 ,48.1073419386964 ,68.838682033177
23.6462498 ,Left ,48.0575457124614 ,48.1306518942304 ,68.8219532079211
23.6766117 ,Left ,36.04439476941105 ,36.10571416632405 ,51.60324227363647
23.7141245 ,Left ,24.0663067002108 ,24.0689169365858 ,34.3753198400978
23.7288106 ,Left ,12.029484931322 ,12.034455692336 ,17.183363098962875
26.7890792 ,Left ,48.0760645861492 ,48.3375602264194 ,68.6598223993127
26.811578 ,Left ,48.0698255415848 ,48.3416139758798 ,68.6552575520473
26.8265395 ,Left ,48.0537889017885 ,48.3450751963111 ,68.6518072545663
26.8415509 ,Left ,48.0419932887511 ,48.3482094340659 ,68.6501401281811
26.8641599 ,Left ,48.0308788291745 ,48.3554691163682 ,68.6457539386405
26.8865568 ,Left ,48.0132132790887 ,48.3599898218842 ,68.6423727644043
26.9015747 ,Left ,47.9903995528994 ,48.3701674508035 ,68.6341421282929
26.9240178 ,Left ,47.9695798333864 ,48.3766142355397 ,68.6287028542559
26.9544212 ,Left ,47.9576065614416 ,48.3819760812932 ,68.6198325222792
26.9765942 ,Left ,47.9528061981692 ,48.3871750469512 ,68.6080050880243
26.9990463 ,Left ,47.9395773157052 ,48.3909474011619 ,68.6020440210622
27.0138584 ,Left ,47.9539785786612 ,48.390792098766 ,68.595706029825
27.0364986 ,Left ,47.9802046139009 ,48.3893845967476 ,68.5794535418107
27.052378 ,Left ,47.9807567557553 ,48.3885385876748 ,68.5681191034786
27.0666711 ,Left ,47.9648797947807 ,48.3896956809302 ,68.571902027843
27.0890107 ,Left ,47.9576041396417 ,48.3900434746993 ,68.5770404810629
27.1041127 ,Left ,47.9536824449267 ,48.3880571781057 ,68.5798788830348
27.1264644 ,Left ,47.9542119271699 ,48.3853623775674 ,68.5801176834847
27.1490102 ,Left ,47.9543869164248 ,48.3710761414714 ,68.576887019526
27.1638109 ,Left ,47.9271365184814 ,48.3487368676541 ,68.5606337163444
27.1865032 ,Left ,47.8595200999936 ,48.322601190621 ,68.5512346509283
27.208849 ,Left ,47.772404431432 ,48.3003440989673 ,68.5526757037174
27.2239307 ,Left ,47.6967275739471 ,48.2825258390899 ,68.5621308505514
27.2466737 ,Left ,47.6794967294243 ,48.2735503553225 ,68.5810397189805
27.2766703 ,Left ,47.7151246277272 ,48.2744058345251 ,68.6028178391541
27.2989379 ,Left ,47.7542538821984 ,48.2775021932325 ,68.6291481060934
27.3214562 ,Left ,47.7712957299307 ,48.2859091113232 ,68.6545150249729
27.3515471 ,Left ,47.7439274452912 ,48.3100693588096 ,68.6920558234335
27.3665448 ,Left ,47.7426935312265 ,48.3206168827572 ,68.7053472526754
27.3892195 ,Left ,47.7778445644353 ,48.3329742322214 ,68.7168081396411
27.4041307 ,Left ,47.8085390477962 ,48.3460399508531 ,68.7309731318118
27.426481 ,Left ,47.8046497286969 ,48.3540167067175 ,68.7541310230988
27.4566783 ,Left ,47.7902429667003 ,48.3645694028241 ,68.7826287949359
27.4716269 ,Left ,47.781570939593 ,48.3759537513099 ,68.8055849687579
27.4940548 ,Left ,47.7871780775746 ,48.3799035029942 ,68.8233582368489
27.5240756 ,Left ,47.8392067096326 ,48.3602821294829 ,68.8504406295294
27.5540486 ,Left ,47.8694421603155 ,48.3491511592618 ,68.8490669072441
27.5766062 ,Left ,47.8990789734876 ,48.3503382326254 ,68.8411746142996
27.5915046 ,Left ,47.8875435150526 ,48.3430345510463 ,68.8125729896764
27.6140362 ,Left ,47.8527084012658 ,48.3315139771246 ,68.7538530410602
27.6290712 ,Left ,47.821769220795 ,48.3169544119189 ,68.6833954682788
27.6440255 ,Left ,47.7790540561527 ,48.3031917399241 ,68.621396273454
27.666704 ,Left ,47.7277857227569 ,48.3001788057939 ,68.5780626361375
27.6891283 ,Left ,47.7444060675614 ,48.3191135801004 ,68.5603014393494
27.7040463 ,Left ,47.7869798368763 ,48.329870562207 ,68.5317815539403
27.7267319 ,Left ,47.7894533697388 ,48.3367706865122 ,68.5050076875135
27.7490353 ,Left ,47.7739846610434 ,48.3301798589572 ,68.5005884694744
27.7640135 ,Left ,47.7569793026862 ,48.3158133445052 ,68.5060370137583
27.7865919 ,Left ,47.7500138813243 ,48.29265872554 ,68.5161617162969
27.8091241 ,Left ,47.698131854368 ,48.2775473994176 ,68.5159426558761
27.8315206 ,Left ,47.6682557536401 ,48.2786571532124 ,68.5185870951253
27.854637 ,Left ,47.71519277633 ,48.273943623503 ,68.5308773822419
27.8764275 ,Left ,47.7531561040566 ,48.2657503770935 ,68.5395166247338
27.8917274 ,Left ,47.7276752925518 ,48.2622827774536 ,68.5608935192069
27.9065501 ,Left ,47.7125651969325 ,48.2685102978157 ,68.5898627866678
27.9288649 ,Left ,47.679578918465 ,48.2886323945642 ,68.6097285383968
27.9514851 ,Left ,47.6300310562382 ,48.3238137506986 ,68.6157740847372
27.9665723 ,Left ,47.6172161322756 ,48.3655509623205 ,68.6240165907943
27.9891176 ,Left ,47.6217257378553 ,48.3980665937607 ,68.631739499101
28.0115472 ,Left ,47.6249784955145 ,48.4273087528976 ,68.6540317670917
28.0265312 ,Left ,47.6142915448052 ,48.4453593175286 ,68.6955257073908
28.0490173 ,Left ,47.6588977856293 ,48.4501390933712 ,68.7252259004358
28.0716158 ,Left ,47.7123207319362 ,48.4408273543853 ,68.7375870024373
28.0873583 ,Left ,47.6949699857268 ,48.4430933517874 ,68.7389178612728
28.1165737 ,Left ,47.700439590811 ,48.4492960272212 ,68.7493916640946
28.146594 ,Left ,47.7269226623353 ,48.4575768545326 ,68.7506184565111
28.1615268 ,Left ,47.6735981298453 ,48.4948680641796 ,68.7379327053522
28.1764727 ,Left ,47.5788650122367 ,48.5590108452873 ,68.7098244283149
28.1914235 ,Left ,47.5358978857154 ,48.6094815588923 ,68.6807886502646
28.2062708 ,Left ,47.5830088968402 ,48.6347304322488 ,68.6313543972499
28.2289979 ,Left ,47.649589674334 ,48.6258595025434 ,68.5794556565067
28.2515935 ,Left ,47.6419194933474 ,48.6128712497412 ,68.5442775730696
28.2665572 ,Left ,47.6009632731131 ,48.6139071777135 ,68.5409321285786
28.2890426 ,Left ,47.6025934808946 ,48.6128437534686 ,68.5408723510773
28.3115432 ,Left ,47.6169672434417 ,48.5947685158375 ,68.5090644902136
28.3264931 ,Left ,47.6002287848276 ,48.5871666015844 ,68.460073129717
28.349424 ,Left ,47.5567287403353 ,48.5838732154834 ,68.4293769811815
28.3714831 ,Left ,47.5647317851075 ,48.5734970558133 ,68.4205411297671
28.3864846 ,Left ,47.5651683872632 ,48.5448601877401 ,68.4143065491571
28.4088422 ,Left ,47.5640251405852 ,48.5137549390743 ,68.4316096115631
28.4315015 ,Left ,47.5561012454778 ,48.5012044602701 ,68.452299179778
28.4467337 ,Left ,47.5227017396126 ,48.4958465656952 ,68.4725417693589
28.4690679 ,Left ,47.510375605808 ,48.5103852491985 ,68.4579198475866
28.4914132 ,Left ,47.5554114591077 ,48.4987990686477 ,68.4435206035976
28.5067864 ,Left ,47.6574917897412 ,48.4537082554499 ,68.4521821895163
28.5290423 ,Left ,47.7221564178714 ,48.402828712059 ,68.4723941810404
28.5514954 ,Left ,47.6683812379856 ,48.3694176548041 ,68.5114110943966
28.5664955 ,Left ,47.6213294735165 ,48.3607962890959 ,68.5751978179792
28.5892579 ,Left ,47.6447136973633 ,48.3453497680778 ,68.6353679579334
28.611345 ,Left ,47.7313633896673 ,48.3220326469423 ,68.6641008776857
28.6264151 ,Left ,47.7802234242811 ,48.299644046532 ,68.6802349813612
28.6489645 ,Left ,47.7414889053497 ,48.305122494857 ,68.7069400711567
28.678937 ,Left ,47.6840735047219 ,48.3367797480022 ,68.720948601934
28.694012 ,Left ,47.6705565700819 ,48.3813640132163 ,68.7342135740576
28.716972 ,Left ,47.7612739641784 ,48.3989499747627 ,68.7394599143229
28.7315721 ,Left ,47.8722113548495 ,48.4002457184074 ,68.7380102077638
28.7464017 ,Left ,47.8676101728639 ,48.4010362455207 ,68.743236387972
28.7701382 ,Left ,47.8312092310374 ,48.4047002923957 ,68.7579210766269
28.7915055 ,Left ,47.8232475828965 ,48.3988421148274 ,68.7757265137672
28.7988697 ,Left ,47.8393548249709 ,48.3882854276898 ,68.7773320486472
28.8212018 ,Left ,47.8564581068102 ,48.3812064365864 ,68.7695872164824
28.8439571 ,Left ,47.8691139273807 ,48.3748745133226 ,68.7644690679834
28.8587769 ,Left ,47.8654599170495 ,48.379516232461 ,68.7621420665107
28.8814351 ,Left ,47.847880536518 ,48.3910895927064 ,68.7579882829838
28.9041203 ,Left ,47.8382075939279 ,48.3976999868074 ,68.7579326581891
28.9191028 ,Left ,47.8506725979483 ,48.4058752626516 ,68.7582147380967
28.9487754 ,Left ,47.8615329643563 ,48.4079019734972 ,68.7571682555837
28.9714669 ,Left ,47.861117064711 ,48.4103905759537 ,68.7547252943464
28.9864256 ,Left ,47.8543433537919 ,48.4102650861118 ,68.7502959931752
29.0013709 ,Left ,47.8446336949303 ,48.4094936729671 ,68.7492530766514
29.0237832 ,Left ,47.8327638169963 ,48.4056323797697 ,68.7484164525696
29.0389907 ,Left ,47.8153474263044 ,48.4099069687809 ,68.7402690440777
29.0612823 ,Left ,47.7881168197176 ,48.4136033443475 ,68.733298288249
29.0840881 ,Left ,47.7694902219807 ,48.4164492459553 ,68.7276752679543
29.0990654 ,Left ,47.752905271727 ,48.4157361367376 ,68.7244465237793
29.121388 ,Left ,47.7106305914866 ,48.4135681888444 ,68.7361512421426
29.1441475 ,Left ,47.6782960977386 ,48.4101875040231 ,68.7557468275036
29.1816125 ,Left ,47.6933214950533 ,48.3908038984163 ,68.7562926686495
29.203899 ,Left ,47.7028231230146 ,48.3914908987428 ,68.7603019121258
29.2265398 ,Left ,47.7347540143498 ,48.3918650289882 ,68.770998101428
29.2489541 ,Left ,47.7650574800685 ,48.3932894332423 ,68.7817905206782
29.301562 ,Left ,47.7118588403349 ,48.4332647842635 ,68.8342464170355
29.3240492 ,Left ,47.706119377394 ,48.4518820437452 ,68.8542236037807
29.3614793 ,Left ,47.7447683725209 ,48.4808745686154 ,68.8758182511244
29.3839311 ,Left ,47.7531498310445 ,48.4875029744478 ,68.883387790907
29.4216219 ,Left ,47.7461091065178 ,48.5141305756159 ,68.9000633137042
29.4438629 ,Left ,47.7658032035004 ,48.5198749483305 ,68.9072657778556
29.481617 ,Left ,47.7980367476834 ,48.5248604016326 ,68.9246962545746
29.5040792 ,Left ,47.7854638540422 ,48.5291083191634 ,68.9397028453339
29.5413861 ,Left ,47.8054081013176 ,48.5145056158371 ,68.9722047766096
29.564001 ,Left ,47.8077437967778 ,48.4922008890052 ,68.9859562039723
29.6015523 ,Left ,47.828002700823 ,48.4515181810117 ,69.0258467677392
29.6238437 ,Left ,47.872367743619 ,48.4381115234189 ,69.032502833588
29.6612321 ,Left ,47.9472858423814 ,48.4032021003022 ,69.0073384202598
29.6855453 ,Left ,47.9047721611972 ,48.4119093169513 ,68.9731064798737
29.7213245 ,Left ,47.7740349843259 ,48.398285532552 ,68.8930993004632
29.7437628 ,Left ,47.7947092173909 ,48.3732666088437 ,68.8443633220469
29.7814851 ,Left ,47.8165884205483 ,48.3640082874928 ,68.7963373360935
29.8039404 ,Left ,47.80850226247 ,48.3643265749612 ,68.7853855943333
29.842039 ,Left ,47.7601026965732 ,48.3417742159912 ,68.766921891525
29.863765 ,Left ,47.738813120394 ,48.3348756308916 ,68.7698219186806
29.9013798 ,Left ,47.7359032107623 ,48.3296743003325 ,68.7633736178757
29.9238558 ,Left ,47.7689358309405 ,48.3244177018973 ,68.7723607912832
29.9612935 ,Left ,47.7580184122918 ,48.3092659607201 ,68.8031274548507
29.984083 ,Left ,47.7202417169732 ,48.3279266522128 ,68.8141938366911
30.0215643 ,Left ,47.6656164426583 ,48.3957973354539 ,68.8336044725968
30.0439714 ,Left ,47.6270193910347 ,48.4337634536678 ,68.8428456174529
30.081312 ,Left ,47.7089329599748 ,48.4716072220321 ,68.8660772121668
30.1040647 ,Left ,47.6751580932674 ,48.4832957034883 ,68.8844822156464
30.1416112 ,Left ,47.6060578967437 ,48.4902821927846 ,68.8949014196433
30.163845 ,Left ,47.6244834683068 ,48.4861378862732 ,68.870290968289
30.2017255 ,Left ,47.7281236000448 ,48.4855478931369 ,68.8860330403049
30.2240756 ,Left ,47.7414551340192 ,48.5026449393111 ,68.8926168012664
30.2614671 ,Left ,47.6288611727791 ,48.6051059466752 ,68.8549259877238
30.2841798 ,Left ,47.6608044971786 ,48.617998934519 ,68.8318000939928
30.3214859 ,Left ,47.6451136147614 ,48.6600329821242 ,68.7493014253518
30.3438978 ,Left ,47.6039885688468 ,48.6933019700479 ,68.7264142254572
30.3890919 ,Left ,47.6303727781409 ,48.705004772588 ,68.6503717821288
30.4038374 ,Left ,47.6108238615186 ,48.7021039442894 ,68.6126541963935
30.4415861 ,Left ,47.5656111462492 ,48.6839397658024 ,68.541643262358
30.4795616 ,Left ,47.5105429334015 ,48.6583312575052 ,68.5264093226888
30.5014986 ,Left ,47.5163878774588 ,48.6239696452133 ,68.5197952184491
30.5237703 ,Left ,47.4907881607945 ,48.5771350607838 ,68.5135099908879
30.5613414 ,Left ,47.4362306039304 ,48.5772235187248 ,68.4999398943947
30.5990964 ,Left ,47.5775989018937 ,48.5234676286214 ,68.4293022198663
30.6215845 ,Left ,47.6188602760542 ,48.4888742455032 ,68.4177156666677
30.6589402 ,Left ,47.5342859473463 ,48.407614522025 ,68.4971932334558
30.6815226 ,Left ,47.5221391722632 ,48.3787247624487 ,68.5671593723871
30.6964172 ,Left ,47.5390552828768 ,48.3313712536323 ,68.5963195443814
30.719075 ,Left ,47.5558437432959 ,48.2879778474829 ,68.6062741591609
30.7341145 ,Left ,47.584994170763 ,48.2579726464197 ,68.6274143779064
30.7565504 ,Left ,47.5799380790685 ,48.2463572827676 ,68.6692648819605
30.7789993 ,Left ,47.5712886908206 ,48.2657937976112 ,68.7195213333027
30.7941346 ,Left ,47.6015154370663 ,48.2917323893216 ,68.7532293112385
30.8171487 ,Left ,47.6415031420999 ,48.3079572843031 ,68.7660124074369
30.8390686 ,Left ,47.6911695927484 ,48.3268885704143 ,68.7704019463862
30.854117 ,Left ,47.7533811380312 ,48.3396606782754 ,68.7719868228847
30.8915486 ,Left ,47.8406312540088 ,48.3399971389445 ,68.7682836262627
30.9143452 ,Left ,47.9284158241578 ,48.3377904584399 ,68.7646390809226
30.9291133 ,Left ,47.9961059057941 ,48.3513973751729 ,68.763861749943
30.9590682 ,Left ,48.0229322921352 ,48.4205203664324 ,68.7738827762841
30.9739816 ,Left ,48.0851711972637 ,48.4331475341724 ,68.7738124595115
30.9965234 ,Left ,48.1288368396355 ,48.4343021578789 ,68.7651574516149
31.0190461 ,Left ,48.1083672504682 ,48.4385502440787 ,68.7642216590243
31.041671 ,Left ,48.0733196326308 ,48.4433900332962 ,68.7739694829403
31.063863 ,Left ,48.0619805000899 ,48.4418364408519 ,68.7845428995607
31.0864459 ,Left ,48.0744903542706 ,48.4338246999351 ,68.79331467794
31.1015215 ,Left ,48.071072127472 ,48.4291550222886 ,68.796374145721
31.1164667 ,Left ,48.0526084496201 ,48.4437666631366 ,68.7993626741554
31.138894 ,Left ,48.0673566120956 ,48.4621691112386 ,68.7984957742323
31.1614959 ,Left ,48.1015764205994 ,48.4672925676242 ,68.7952203847764
31.1914403 ,Left ,48.1274532569669 ,48.46635059081 ,68.7856545643509
31.2140518 ,Left ,48.1230305787496 ,48.4689873260592 ,68.7766039988102
31.2289443 ,Left ,48.1153129277828 ,48.4741036611882 ,68.7694529489092
31.244049 ,Left ,48.1140544620221 ,48.4816402823866 ,68.7621820771951
31.2591887 ,Left ,48.1327880069271 ,48.4877739657548 ,68.7552439163819
31.2739022 ,Left ,48.1451098119664 ,48.491161260458 ,68.7466456507323
31.2964811 ,Left ,48.1538796486229 ,48.5039901217108 ,68.7448658785296
31.3189688 ,Left ,48.1626463816383 ,48.5168199136984 ,68.7431005304489
31.3356371 ,Left ,48.1674326644657 ,48.5206495359716 ,68.7448445714014
31.3564129 ,Left ,48.1754077615073 ,48.5226426776868 ,68.7482713564838
31.3790097 ,Left ,48.1780558877635 ,48.5302448901991 ,68.7498561499368
31.4021846 ,Left ,48.1764360670272 ,48.531321672379 ,68.7499084712395
31.4240788 ,Left ,48.1859591393869 ,48.527158363021 ,68.742372860288
31.4615365 ,Left ,48.1398562971065 ,48.5130405842225 ,68.7335351544416
31.4869944 ,Left ,48.0994623800679 ,48.51159507239 ,68.7303337067881
31.4989871 ,Left ,48.0636063295285 ,48.516572431105 ,68.7234571329994
31.5139919 ,Left ,48.0377443939924 ,48.5267072523847 ,68.7224500589617
31.5364869 ,Left ,48.050087012743 ,48.5350723753036 ,68.7251314029816
31.5589008 ,Left ,48.0792629126407 ,48.53667202003 ,68.7250067354572
31.5740041 ,Left ,48.0668922895546 ,48.5355134609854 ,68.7237753852323
31.596543 ,Left ,48.0403598628208 ,48.5415220694435 ,68.7254558263523
31.6190073 ,Left ,48.0481073278261 ,48.5525396525933 ,68.7217250270756
31.6340762 ,Left ,48.0973079436373 ,48.554806049933 ,68.7099398710803
31.6565371 ,Left ,48.1514652203861 ,48.5444362730218 ,68.7064033514139
31.6789714 ,Left ,48.176371924056 ,48.539516524 ,68.7048413129359
31.7042615 ,Left ,48.1609654485096 ,48.5382144907775 ,68.710889654303
31.7237353 ,Left ,48.1534911591346 ,48.5387836998497 ,68.7207805868395
31.7463586 ,Left ,48.1623742152962 ,48.5354346277201 ,68.7272474819698
31.776545 ,Left ,48.1917910026862 ,48.5236497198969 ,68.7561759479757
31.8065429 ,Left ,48.1908440760494 ,48.5176510857628 ,68.7757071065233
31.8290964 ,Left ,48.1684613237149 ,48.5142615837263 ,68.7919025006165
31.8441101 ,Left ,48.1417317119973 ,48.5114334534691 ,68.8085029268305
31.8590195 ,Left ,48.1292180063801 ,48.5084372227734 ,68.821510959486
31.8814666 ,Left ,48.1158615121589 ,48.5085637093952 ,68.8413299492328
31.8964668 ,Left ,48.0980232818477 ,48.5092984494949 ,68.864161743432
31.919151 ,Left ,48.0914115605073 ,48.5189689955013 ,68.8801354092986
31.9414836 ,Left ,48.0962129850699 ,48.5280724895951 ,68.8950225065652
31.9565529 ,Left ,48.103149693525 ,48.5401213337929 ,68.910181980075
31.9791835 ,Left ,48.1136093413343 ,48.557099684612 ,68.9215170426082
32.008919 ,Left ,48.1272596782845 ,48.5717586876314 ,68.9331814037465
32.0238634 ,Left ,48.1410363491416 ,48.5791663678307 ,68.9407490742691
32.0465028 ,Left ,48.1501538047103 ,48.5894661262679 ,68.9440554661746
32.0615673 ,Left ,48.138685078059 ,48.5974330441265 ,68.9488328645981
32.0765679 ,Left ,48.1152333063359 ,48.6088806758225 ,68.9566615856276
32.0989937 ,Left ,48.111566878879 ,48.625771901575 ,68.9698469129881
32.1215909 ,Left ,48.1119643777895 ,48.6445698078436 ,68.9776247037575
32.136583 ,Left ,48.1037170958977 ,48.6574358823801 ,68.984220228134
32.1590809 ,Left ,48.0762925847521 ,48.6671489999385 ,68.9970559931095
32.1815428 ,Left ,48.0511753691908 ,48.6778839847109 ,69.0192586220655
32.1965289 ,Left ,48.0335663093126 ,48.6928264045838 ,69.043319782908
32.2192416 ,Left ,48.0303106926749 ,48.7003674955576 ,69.0592712597886
32.241597 ,Left ,48.0484181948677 ,48.6979381069663 ,69.0771311891467
32.2565742 ,Left ,48.0673286101033 ,48.6928143875279 ,69.0895871772279
32.2790377 ,Left ,48.0620617640487 ,48.6874700549827 ,69.1096442770657
32.3014976 ,Left ,48.0483956928583 ,48.6902549755515 ,69.1271132578608
32.3166298 ,Left ,48.0610061346689 ,48.6870724098741 ,69.1474782493869
32.3390631 ,Left ,48.093060704764 ,48.6773979099579 ,69.1647474151284
32.3615336 ,Left ,48.124780257067 ,48.6610359214408 ,69.1872050115081
32.3764906 ,Left ,48.1508866826606 ,48.6460488706716 ,69.2026050019459
32.3991645 ,Left ,48.1678133953424 ,48.6205077922245 ,69.2128131223487
32.4215055 ,Left ,48.1743501184706 ,48.5830022389878 ,69.2203407171841
32.4367191 ,Left ,48.1775052434054 ,48.5499988806828 ,69.220672571292
32.4591832 ,Left ,48.187476437248 ,48.5356311153989 ,69.209520917005
32.4891438 ,Left ,48.1806582702348 ,48.5275626705159 ,69.168008546078
32.5114006 ,Left ,48.1484695305585 ,48.5056562797391 ,69.1211465559457
32.5339944 ,Left ,48.169304481904 ,48.4641241112203 ,69.0688341939528
32.5564537 ,Left ,48.2384118234512 ,48.3943851108665 ,68.9982308334852
32.5713692 ,Left ,48.2691817918635 ,48.3302926555327 ,68.9540608431767
32.5863112 ,Left ,48.2190647732894 ,48.3094822835641 ,68.9372314947494
32.623868 ,Left ,48.1144747219348 ,48.3246453306545 ,68.8842993081548
32.6389075 ,Left ,48.1099647138826 ,48.3267123366591 ,68.8471559564425
32.6614872 ,Left ,48.1101635385058 ,48.3116307077645 ,68.8110029239879
32.6855687 ,Left ,48.1075439170241 ,48.2777681819311 ,68.795692734146
32.6997312 ,Left ,48.0813831875506 ,48.2621225708946 ,68.7880222047399
32.7215196 ,Left ,48.0092003353596 ,48.2726836586534 ,68.7844052739046
32.7439632 ,Left ,47.9836848290622 ,48.2874358879328 ,68.7878009292183
32.7587907 ,Left ,48.0124496659512 ,48.3007625784803 ,68.7768890457704
32.7815655 ,Left ,48.026820752348 ,48.300390013705 ,68.7709322371679
32.8039439 ,Left ,48.0368450648865 ,48.3057001661411 ,68.7762693182652
32.819033 ,Left ,48.047601943018 ,48.3079170960449 ,68.7774529077109
32.8414079 ,Left ,48.0000290465089 ,48.3259291790229 ,68.7895094667667
32.8640063 ,Left ,47.92922283007 ,48.3710291752996 ,68.7941100914252
32.8789557 ,Left ,47.8581832534502 ,48.4326451689947 ,68.7946737268414
32.9034592 ,Left ,47.8173690004189 ,48.49039344632 ,68.7953089953881
32.9239254 ,Left ,47.8425610518782 ,48.5277457101494 ,68.7936382307037
32.9390208 ,Left ,47.8666851631191 ,48.5540890075747 ,68.8007978539939
32.961307 ,Left ,47.8308011314283 ,48.5746738169718 ,68.8323286680935
32.9839673 ,Left ,47.7547432342641 ,48.5756912733263 ,68.8766642434943
32.9989336 ,Left ,47.7594723148992 ,48.5384405074913 ,68.9081014194683
33.0216955 ,Left ,47.8296246726059 ,48.4560488933322 ,68.9170388983707
33.0440392 ,Left ,47.8790717221417 ,48.3265591156694 ,68.9298671332787
33.0590091 ,Left ,47.8845047125688 ,48.2285766709539 ,68.939821329458
33.0815561 ,Left ,47.8007273380868 ,48.1884229766171 ,68.940694105723
33.1114814 ,Left ,47.7163264960093 ,48.1857431403121 ,68.9215059986139
33.1264747 ,Left ,47.6916637958812 ,48.1935375934485 ,68.8716445178008
33.1490648 ,Left ,47.7299126693002 ,48.1986658667402 ,68.8086348558551
33.163897 ,Left ,47.7707384252451 ,48.2046972253035 ,68.7475907453549
33.1791163 ,Left ,47.7539751921167 ,48.2072728762249 ,68.6998322644299
33.2016626 ,Left ,47.7144721145245 ,48.2208394061209 ,68.671941991067
33.2240171 ,Left ,47.6888178043922 ,48.2204371627766 ,68.6467151279415
33.2391063 ,Left ,47.6959380493029 ,48.212433225218 ,68.6162771206415
33.2615196 ,Left ,47.7132830166533 ,48.2114017194634 ,68.5771808618191
33.2840219 ,Left ,47.693884852938 ,48.2159138451892 ,68.5462778187779
33.2990711 ,Left ,47.6389037069513 ,48.2167738439167 ,68.5425227740348
33.3216871 ,Left ,47.6531335091323 ,48.2006979094539 ,68.5497527148525
33.344004 ,Left ,47.6624009847358 ,48.1758877056846 ,68.5491177158708
33.359118 ,Left ,47.6206576637953 ,48.1617895237874 ,68.5692383028869
33.3891169 ,Left ,47.6116512430409 ,48.1543111917987 ,68.5848860814258
33.4113844 ,Left ,47.6331149518836 ,48.1356976232504 ,68.5967176853712
33.4264996 ,Left ,47.637775715633 ,48.1378684980044 ,68.6098321437344
33.4414953 ,Left ,47.6098052768124 ,48.1494686330208 ,68.6162654452181
33.4640364 ,Left ,47.6052187868073 ,48.1592219821183 ,68.6112000336518
33.4789821 ,Left ,47.6972302713327 ,48.1312640686176 ,68.6018458161396
33.5015066 ,Left ,47.7692693071021 ,48.0955058657235 ,68.6003946055502
33.5239889 ,Left ,47.7402072442712 ,48.0702325749715 ,68.6063552491412
33.5465603 ,Left ,47.6501698371552 ,48.0624067313285 ,68.6358870783297
33.5614906 ,Left ,47.6337870289942 ,48.0469409714355 ,68.6907781755445
33.5840735 ,Left ,47.7513396061009 ,48.0217516740982 ,68.7226539303506
33.6141714 ,Left ,47.8493110515764 ,48.0134192704719 ,68.7388688515449
33.6291016 ,Left ,47.8841773011936 ,48.0146295369041 ,68.7698979260996
33.6513669 ,Left ,47.8898328297535 ,48.0350162619771 ,68.8025892809079
33.681479 ,Left ,47.8933382638802 ,48.094422000019 ,68.8142136262031
33.7041124 ,Left ,47.9727615841503 ,48.1140691112487 ,68.8088291642394
33.7268207 ,Left ,48.0193467676707 ,48.1205052983993 ,68.8082503597859
33.7417024 ,Left ,47.9880091211355 ,48.1275759355617 ,68.8176985730239
33.7640201 ,Left ,47.9722961832462 ,48.1336239050476 ,68.8280629177959
33.7864884 ,Left ,48.0093835603227 ,48.1301237766647 ,68.8315857917455
33.801421 ,Left ,48.0290203730366 ,48.1146821971444 ,68.8359215768666
33.8240462 ,Left ,48.0197990140283 ,48.1091720851773 ,68.8446583737197
33.8464236 ,Left ,48.0084888116198 ,48.1076158950124 ,68.8528009226334
33.8614669 ,Left ,48.0078228197419 ,48.1103560243035 ,68.8551603042474
33.8838205 ,Left ,48.0225992739227 ,48.114671927322 ,68.8529466479511
33.9065355 ,Left ,48.0348742687134 ,48.1252780849499 ,68.8480896561847
33.9216831 ,Left ,48.0435876175746 ,48.1381211396201 ,68.8486022303158
33.9514922 ,Left ,48.0572919203131 ,48.1549064267962 ,68.8477282330334
33.9739166 ,Left ,48.0791467458129 ,48.1731468702036 ,68.8461880869073
33.9889956 ,Left ,48.0841275926508 ,48.198233962866 ,68.8476381402941
34.0040034 ,Left ,48.0765391993263 ,48.222090398301 ,68.8510277688141
34.0265526 ,Left ,48.0728465163027 ,48.2410431837735 ,68.8519351409823
34.0414119 ,Left ,48.0647394090908 ,48.2557531729788 ,68.8441668437579
34.063969 ,Left ,48.0407437821769 ,48.2717410933499 ,68.8402224455926
34.0864094 ,Left ,48.0310235228236 ,48.2854466980038 ,68.8419896535035
34.101518 ,Left ,48.0209782918628 ,48.2873749412126 ,68.8380657315242
34.1239094 ,Left ,47.9701006505811 ,48.2976658736956 ,68.8303225002816
34.1466009 ,Left ,47.9133099666615 ,48.3215930018985 ,68.8335865567811
34.1615797 ,Left ,47.897520334076 ,48.3371264688211 ,68.8380281771629
34.1839958 ,Left ,47.8572112322474 ,48.3479752834898 ,68.8453796342089
34.2064162 ,Left ,47.8141725609834 ,48.3583003398416 ,68.8531271114087
34.2215696 ,Left ,47.8000680020806 ,48.3600977087257 ,68.8430582896606
34.2438219 ,Left ,47.7400487204774 ,48.3620702960246 ,68.8226692386462
34.2663871 ,Left ,47.691829424885 ,48.3727553515681 ,68.8147869822209
34.2813804 ,Left ,47.6830693268169 ,48.383029524096 ,68.8075618266327
34.3039451 ,Left ,47.6971283100982 ,48.386974805705 ,68.7869800812078
34.3266126 ,Left ,47.6869935999952 ,48.3929181668733 ,68.7637956059117
34.3416166 ,Left ,47.6771914233213 ,48.406447072794 ,68.7659304846101
34.3640121 ,Left ,47.6939327180613 ,48.4194304703378 ,68.7791039354105
34.3866839 ,Left ,47.7125602680382 ,48.4289066934984 ,68.7973126025254
34.4030605 ,Left ,47.7219482784714 ,48.4352762534927 ,68.8165820605425
34.4239338 ,Left ,47.7120607022887 ,48.4379257638237 ,68.8410965660295
34.4540562 ,Left ,47.6984962147119 ,48.4456038083137 ,68.8650808891341
34.4689731 ,Left ,47.7154877644686 ,48.4492478927304 ,68.8838407367586
34.4915398 ,Left ,47.735787105031 ,48.4411162952427 ,68.9088119633333
34.5065585 ,Left ,47.7381430934372 ,48.4382388978993 ,68.9370775886093
34.5405925 ,Left ,47.7291501582762 ,48.4411913602058 ,68.9774978175737
34.5443514 ,Left ,47.737335604055 ,48.4472650729457 ,69.032398887146
34.5696614 ,Left ,47.7439981147877 ,48.4520289468388 ,69.0951723727902
34.5975493 ,Left ,47.8403272171961 ,48.4513174247028 ,69.1919808602409
34.6190808 ,Left ,47.835998291316 ,48.4386162546344 ,69.2197037132792
34.6563649 ,Left ,47.8106769932403 ,48.4313518335976 ,69.2581935979233
34.678868 ,Left ,47.8302211551137 ,48.4175109195284 ,69.2508230778192
34.7161437 ,Left ,47.8039208034735 ,48.4061410271054 ,69.2214075534506
34.7388727 ,Left ,47.8048510876172 ,48.4027457632584 ,69.2123360232155
34.7839327 ,Left ,47.8113859336291 ,48.3787354902317 ,69.1926725325438
34.8064421 ,Left ,47.7972020998073 ,48.3718270022698 ,69.1924776586145
34.8365574 ,Left ,47.7825485694507 ,48.351101235649 ,69.1962092861454
34.8588882 ,Left ,47.7876228299515 ,48.3270020848756 ,69.2145404210024
34.8963852 ,Left ,47.8109601342587 ,48.3020139551819 ,69.2338469307513
34.9190419 ,Left ,47.8016152167126 ,48.2958462939292 ,69.214332520222
34.9564893 ,Left ,47.7369037036821 ,48.3016332839986 ,69.1233710250676
34.9871957 ,Left ,47.7758818965714 ,48.2665812097508 ,69.0830500340398
35.0467823 ,Left ,47.7595474697253 ,48.2032540620737 ,69.0490500324069
35.0838325 ,Left ,47.7799822358024 ,48.1927532386627 ,69.0106525939502
35.0987749 ,Left ,47.8201474501197 ,48.1790622419249 ,68.9866764739537
35.1364613 ,Left ,47.7879227436747 ,48.1814339057815 ,68.9735264339467
35.1588978 ,Left ,47.7434558137895 ,48.1878909043754 ,68.9676962352546
35.1964601 ,Left ,47.7990359529314 ,48.1925751708941 ,68.9615603114245
35.2192924 ,Left ,47.7979137334264 ,48.190958825519 ,68.9618896380616
35.2563004 ,Left ,47.8081768907944 ,48.2081330469652 ,68.9753193423532
35.2790055 ,Left ,47.7928836006036 ,48.235195800916 ,68.9835563379365
35.3240044 ,Left ,47.7460042340297 ,48.2915928480206 ,69.0128429771656
35.3465198 ,Left ,47.7742724817808 ,48.3014231511796 ,69.0325386065687
35.3839649 ,Left ,47.7874195372313 ,48.3036365670928 ,69.0802750473561
35.4064385 ,Left ,47.7774277177486 ,48.2972230560851 ,69.1127771538196
35.437045 ,Left ,47.8011679611408 ,48.2658114521037 ,69.1536577844897
35.4588509 ,Left ,47.8116162913538 ,48.2488183663318 ,69.1451110951774
35.4962482 ,Left ,47.7544476132882 ,48.2794969774282 ,69.1026827269012
35.5190667 ,Left ,47.7008858207576 ,48.3121929706541 ,69.0622456420689
35.5562917 ,Left ,47.7401069107667 ,48.3228981012099 ,68.9793173354985
35.5790579 ,Left ,47.7424230701452 ,48.3247911607357 ,68.946135017296
35.6165554 ,Left ,47.6939293058538 ,48.3249597654124 ,68.8920690769973
35.6390904 ,Left ,47.707391176576 ,48.3192966196594 ,68.8611524610003
35.6765662 ,Left ,47.7403955024206 ,48.3118482196825 ,68.8093128934522
35.6987992 ,Left ,47.7507947960363 ,48.3114614918594 ,68.7966865567519
35.736426 ,Left ,47.7406943713435 ,48.3033610844722 ,68.7725728573854
35.7589455 ,Left ,47.7027401523996 ,48.3028516191645 ,68.7741324146031
35.7964375 ,Left ,47.718480989479 ,48.3016394854167 ,68.7727991076411
35.819148 ,Left ,47.7195929944329 ,48.3032609088473 ,68.7724735697983
35.8565489 ,Left ,47.7077502715053 ,48.2901907487911 ,68.7798705178365
35.8874079 ,Left ,47.7093715758375 ,48.2891142385908 ,68.7798076334685
35.9240044 ,Left ,47.68573300108 ,48.3248596042411 ,68.8112177082289
35.9388864 ,Left ,47.6880621762362 ,48.3351144516503 ,68.8097113770851
35.9765116 ,Left ,47.6515333435466 ,48.3184820620974 ,68.7823798008539
35.9991049 ,Left ,47.6892501032276 ,48.2808606527771 ,68.7613768390491
36.0366245 ,Left ,47.6134282227935 ,48.2114714095854 ,68.7071136554366
36.0588755 ,Left ,47.5643260838815 ,48.2102167434524 ,68.742867323715
36.0965084 ,Left ,47.7142983086122 ,48.1896888181966 ,68.7875792197205
36.1191305 ,Left ,47.7736962687431 ,48.1928752125661 ,68.7996338887595
36.1638882 ,Left ,47.7233032806048 ,48.2164727793265 ,68.8516605229274
36.1865232 ,Left ,47.701654341009 ,48.2638222067499 ,68.8488766821986
36.2390941 ,Left ,47.934348509807 ,48.3075495578212 ,68.8328174454231
36.2762856 ,Left ,47.9382368145417 ,48.3013795026679 ,68.8704705735852
36.2987707 ,Left ,47.9574986395019 ,48.2863870283345 ,68.8818665355193
36.3369903 ,Left ,48.0091981503346 ,48.2727214708779 ,68.8832205829425
36.3588903 ,Left ,48.0260802905044 ,48.2732309210625 ,68.8812916621822
36.3965582 ,Left ,48.0244640124178 ,48.2743142273986 ,68.8813499111035
36.4212884 ,Left ,48.0233505612607 ,48.2726957060824 ,68.8816534493149
36.4564374 ,Left ,48.0424462990746 ,48.2785183151709 ,68.8696414659482
36.471532 ,Left ,48.0555465871382 ,48.2837462401365 ,68.8680120012311
36.4940267 ,Left ,48.0787363342351 ,48.2799690707923 ,68.868496957453
36.5089521 ,Left ,48.0856576136872 ,48.2799966234405 ,68.8703437973762
36.5315468 ,Left ,48.0828706798694 ,48.2937360447547 ,68.8739678694053
36.5539855 ,Left ,48.0758455527807 ,48.3150451552369 ,68.8772309161301
36.5691322 ,Left ,48.0881344703052 ,48.3397161192236 ,68.8736308842237
36.5915147 ,Left ,48.1093620182843 ,48.3558550165469 ,68.8629968795739
36.6140289 ,Left ,48.1176947861819 ,48.3713548389187 ,68.8608621564013
36.6289907 ,Left ,48.1027900354282 ,48.3815140803731 ,68.8683906087948
36.6516173 ,Left ,48.0951086348309 ,48.389383166474 ,68.882443138546
36.6740086 ,Left ,48.0982365130745 ,48.3923702643077 ,68.895882299385
36.6890919 ,Left ,48.1011162139796 ,48.3955831605936 ,68.9141562130397
36.7191474 ,Left ,48.1004170462073 ,48.401380557992 ,68.939593722718
36.7413938 ,Left ,48.1172173981409 ,48.3976885452243 ,68.9593883741987
36.7570295 ,Left ,48.1175286458715 ,48.3860504744881 ,68.9720877902402
36.7717099 ,Left ,48.0927977950501 ,48.379595498438 ,68.9891117025611
36.793989 ,Left ,48.0893517678911 ,48.379907794075 ,69.0035697693997
36.8164974 ,Left ,48.0956736600137 ,48.3827975718105 ,69.0074317815659
36.8397555 ,Left ,48.0972850349908 ,48.3817077728759 ,69.0073775643255
36.8690118 ,Left ,48.1383594498947 ,48.3961020901645 ,69.0000962141766
36.8915061 ,Left ,48.1395808235037 ,48.3975312233718 ,68.9975928336168
36.9139937 ,Left ,48.1212724011526 ,48.4053439707608 ,68.9982961910516
36.9290425 ,Left ,48.1302627569078 ,48.4179207386526 ,68.9942045180247
36.9512297 ,Left ,48.1537656362121 ,48.4301588195928 ,68.9812305293354
36.9737821 ,Left ,48.1682816198466 ,48.4458745111317 ,68.9644047719804
36.9889787 ,Left ,48.1580214860683 ,48.4642769600254 ,68.9568943541063
37.0114209 ,Left ,48.1272822673173 ,48.4803073091884 ,68.9483238065549
37.0346623 ,Left ,48.1231390084313 ,48.4804977856378 ,68.9442791382985
37.0490013 ,Left ,48.1291892323259 ,48.4786687738634 ,68.9416295602856
37.0726194 ,Left ,48.1280771600961 ,48.4770541664175 ,68.9419078618143
37.0941236 ,Left ,48.1002627129961 ,48.4748020998901 ,68.9468149490792
37.1088654 ,Left ,48.0760732498067 ,48.4678711891332 ,68.9540869862788
37.1314334 ,Left ,48.0601403327326 ,48.4551349691327 ,68.9566917506845
37.1539214 ,Left ,48.0407317704507 ,48.4448119523217 ,68.9642624303518
37.1690519 ,Left ,48.0270176849491 ,48.4353085445127 ,68.9663375754406
37.1914929 ,Left ,48.0225831975024 ,48.4195678696318 ,68.9755523321635
37.2140859 ,Left ,48.0122894089983 ,48.3964930143889 ,68.9925032228957
37.2290892 ,Left ,47.9993510394868 ,48.3777046660973 ,69.0189915565711
37.2553924 ,Left ,48.0020778175718 ,48.3646542792379 ,69.0461779913521
37.2740548 ,Left ,48.0256183491514 ,48.3539375468371 ,69.0686324828406
37.2889721 ,Left ,48.0505225334958 ,48.344560745491 ,69.0859639982602
37.3114256 ,Left ,48.0657607710619 ,48.3346605368858 ,69.1017964750148
37.3340198 ,Left ,48.0879740199942 ,48.3173148915424 ,69.1158295950105
37.3564014 ,Left ,48.1449253766807 ,48.3024942053119 ,69.1281055001911
37.3715606 ,Left ,48.2070359880392 ,48.2859179373565 ,69.1240293797009
37.3940746 ,Left ,48.2046142854446 ,48.2866732768622 ,69.0794631485888
37.4163838 ,Left ,48.1070490256737 ,48.2929820533202 ,69.036304718494
37.4315829 ,Left ,48.0318840297395 ,48.2696532811793 ,68.9916466805332
37.4552841 ,Left ,48.0420691954381 ,48.2334588399638 ,68.9469973258677
37.4765276 ,Left ,48.04985560854 ,48.2133492112813 ,68.9201801686818
37.4915453 ,Left ,48.0368084139319 ,48.2052299496356 ,68.9010367680684
37.5140689 ,Left ,48.040617231313 ,48.1974461734504 ,68.8803606809076
37.5364785 ,Left ,48.0576511415907 ,48.180773138289 ,68.8543932531354
37.5514773 ,Left ,48.0322990026134 ,48.1763063103426 ,68.8433113685485
37.573966 ,Left ,48.0017916478587 ,48.1732392588022 ,68.8467516816372
37.5964368 ,Left ,47.9628467352936 ,48.1782439070176 ,68.8476612750738
37.6113801 ,Left ,47.9278646413657 ,48.185199122343 ,68.8456979310707
37.6339745 ,Left ,47.9346242989774 ,48.1852823125916 ,68.8501052693667
37.6565379 ,Left ,47.9783995415202 ,48.1914882603578 ,68.8517635876348
37.6715677 ,Left ,47.9826953115844 ,48.1980101934101 ,68.853124400379
37.6939207 ,Left ,47.9587103215495 ,48.2047148873433 ,68.8573136831787
37.7164045 ,Left ,47.9727021675756 ,48.2119711726705 ,68.8596986741686
37.7312941 ,Left ,47.9843643291636 ,48.2301144326279 ,68.8663244389865
37.7539328 ,Left ,47.9821377611824 ,48.2552528473082 ,68.871144799323
37.7766107 ,Left ,47.9362467593456 ,48.295691967921 ,68.8761592135154
37.7915148 ,Left ,47.8834861322732 ,48.3218001253136 ,68.8761513294062
37.8140725 ,Left ,47.8887962178538 ,48.3301470692392 ,68.8794201869631
37.8365188 ,Left ,47.8945261260979 ,48.3267431000764 ,68.893246185947
37.8515392 ,Left ,47.8819161344017 ,48.3176283876723 ,68.9353949084366
37.8742121 ,Left ,47.9021154622496 ,48.3112311003402 ,69.021167747741
37.8963758 ,Left ,47.971572495977 ,48.2879654435013 ,69.1106087439498
37.9114827 ,Left ,48.0565580384868 ,48.2734803374918 ,69.1535399107461
37.9339374 ,Left ,48.1792940575944 ,48.2441080429584 ,69.163548728848
37.9564724 ,Left ,48.2230613445693 ,48.2398353089468 ,69.1432649248065
37.9714892 ,Left ,48.1304824077037 ,48.2716367213432 ,69.1064940382308
37.9938702 ,Left ,48.052770203829 ,48.3047669945486 ,69.0732990292919
38.016339 ,Left ,48.0271640826883 ,48.3163983677171 ,69.0297627658727
38.0312946 ,Left ,48.0066310297109 ,48.3223763013271 ,68.9908060257314
38.0540377 ,Left ,47.9673050645304 ,48.3126646020517 ,68.9653874238875
38.077992 ,Left ,47.9519902850387 ,48.3034903586313 ,68.9369229885534
38.0989566 ,Left ,47.9499072044045 ,48.2992933035165 ,68.9046085453874
38.1290514 ,Left ,47.9450686779159 ,48.2923494703837 ,68.8825869098482
38.1518286 ,Left ,47.9411294387205 ,48.2874222912108 ,68.8646897140678
38.1663412 ,Left ,47.8956902354979 ,48.2796700466979 ,68.8440314403987
38.1813841 ,Left ,47.8617331962856 ,48.2781731279239 ,68.8217992224154
38.1963889 ,Left ,47.8457157868218 ,48.2625376999606 ,68.8062185425501
38.2113758 ,Left ,47.8420101225679 ,48.239000265865 ,68.8020037653004
38.2340217 ,Left ,47.8672231067394 ,48.210400636153 ,68.8024293563582
38.2565271 ,Left ,47.8704626430225 ,48.2082433126456 ,68.8023049427369
38.2738081 ,Left ,47.8127417315908 ,48.2181359652395 ,68.7908839744819
38.2941077 ,Left ,47.7696595499694 ,48.234527888357 ,68.7699808584526
38.3165124 ,Left ,47.8205444773686 ,48.2183397751693 ,68.7386039614473
38.3405611 ,Left ,47.8723810884352 ,48.1688668468244 ,68.7081306178524
38.3551559 ,Left ,47.8529546510352 ,48.1104495304461 ,68.6764624522098
38.3765241 ,Left ,47.7610213484795 ,48.0643838435101 ,68.6376389802518
38.3990375 ,Left ,47.6255756300375 ,48.033450107261 ,68.6210255451232
38.4141512 ,Left ,47.5172332394466 ,48.0069719301161 ,68.6385561284519
38.4363373 ,Left ,47.5009112677144 ,47.9783738714533 ,68.6556005967119
38.4589824 ,Left ,47.5362362522218 ,47.9603149066972 ,68.6699038298263
38.4739558 ,Left ,47.5454415818073 ,47.9788286113146 ,68.6967908036485
38.4965435 ,Left ,47.5508585383706 ,48.0201624121803 ,68.7079289578416
38.5191285 ,Left ,47.5983887962957 ,48.0661327563931 ,68.7042521219044
38.5338259 ,Left ,47.6779716399948 ,48.0931147804764 ,68.6970114915465
38.5564671 ,Left ,47.7595580614919 ,48.1064164064342 ,68.6727519426225
38.5789362 ,Left ,47.7726216539295 ,48.1189655997021 ,68.6721935610117
38.593735 ,Left ,47.752806717547 ,48.1281427501944 ,68.6966956359017
38.6164738 ,Left ,47.7527035350661 ,48.1220326801963 ,68.7254932455459
38.639005 ,Left ,47.781731225452 ,48.1177251346844 ,68.7557145541228
38.6539932 ,Left ,47.8307393808515 ,48.1210660528948 ,68.778202126173
38.6764762 ,Left ,47.8897740890692 ,48.1224305536738 ,68.8046358041529
38.6989888 ,Left ,47.9250733272352 ,48.1301203139833 ,68.8306363889073
38.7140095 ,Left ,47.9489983144684 ,48.152385554192 ,68.8589296713635
38.7372446 ,Left ,48.0041759596342 ,48.1678273788704 ,68.879683651576
38.7590146 ,Left ,48.0617175207812 ,48.1717790581207 ,68.8949678055507
38.773898 ,Left ,48.0965085775437 ,48.171998692007 ,68.9010663642382
38.7963364 ,Left ,48.1124005079899 ,48.1706897166214 ,68.897218782832
38.8195143 ,Left ,48.1144202768922 ,48.1691903360543 ,68.8901183881115
38.8340296 ,Left ,48.0983529821076 ,48.1659126745828 ,68.8870720804492
38.8564577 ,Left ,48.0908210205521 ,48.161569037974 ,68.8858010762194
38.8865013 ,Left ,48.0724428466068 ,48.1619500830767 ,68.8856079714887
38.9013791 ,Left ,48.0549442626666 ,48.1736419959764 ,68.8814381781235
38.9238847 ,Left ,48.0499629046853 ,48.1843111200295 ,68.8852304612692
38.961563 ,Left ,48.0796734349084 ,48.1809645893099 ,68.8945174227944
38.9837536 ,Left ,48.096481650731 ,48.1699051132532 ,68.9105694460495
39.0137751 ,Left ,48.0648521398845 ,48.1567502540164 ,68.950100466522
39.0365925 ,Left ,48.0755801892549 ,48.1665673059048 ,68.9812175719562
39.0589999 ,Left ,48.0914866626872 ,48.1802397237943 ,69.0083725795157
39.0739806 ,Left ,48.1058680327792 ,48.1874047809642 ,69.0323888666779
39.0964283 ,Left ,48.1071631668429 ,48.1844354884373 ,69.0467197972177
39.1192297 ,Left ,48.0875168767297 ,48.1743344290182 ,69.0567446773286
39.1340085 ,Left ,48.0464592162111 ,48.1670371487842 ,69.0636879596872
39.1564865 ,Left ,48.0209157139067 ,48.167926933215 ,69.0661220690893
39.1790308 ,Left ,48.0220401719168 ,48.1695402049161 ,69.0658085679854
39.1939565 ,Left ,48.0463793179488 ,48.169316031111 ,69.0563611313949
39.2165364 ,Left ,48.0429584930343 ,48.1758966578933 ,69.0422289853578
39.2393214 ,Left ,47.9839643465439 ,48.2037397723498 ,69.0215643565829
39.261568 ,Left ,47.8630568957629 ,48.2544112130721 ,69.0002085839419
39.2764997 ,Left ,47.761887749697 ,48.3217135556308 ,68.9657712427687
39.2989816 ,Left ,47.7227091758444 ,48.3820220905979 ,68.9208898715427
39.3214171 ,Left ,47.7395153681793 ,48.4278366351081 ,68.8747043085732
39.3368023 ,Left ,47.7982823114134 ,48.4579317683909 ,68.8398656406686
39.35915 ,Left ,47.818740245495 ,48.4787720538848 ,68.8219649332903
39.3815312 ,Left ,47.7894150464515 ,48.498616593367 ,68.827400657921
39.3964044 ,Left ,47.7728081148798 ,48.5101103639702 ,68.8371889769589
39.419062 ,Left ,47.7636586451146 ,48.5050417005221 ,68.8476388197964
39.441854 ,Left ,47.7511415398993 ,48.5000638837086 ,68.8707045748577
39.4564548 ,Left ,47.7722146563392 ,48.4871625372726 ,68.9028170908904
39.4939755 ,Left ,47.7965780388783 ,48.4718321365915 ,68.9326429547689
39.516522 ,Left ,47.8114673654811 ,48.4626978332118 ,68.9580138576602
39.531327 ,Left ,47.8476652831312 ,48.453221799827 ,68.9788582543264
39.5615892 ,Left ,47.9449364030639 ,48.4368922264231 ,68.9760217499965
39.5763727 ,Left ,47.9070565523514 ,48.4455431622419 ,68.9672858644093
39.59915 ,Left ,47.8484844518085 ,48.4395888944111 ,68.9476111929923
39.6214735 ,Left ,47.8320676825019 ,48.4141742924647 ,68.9140615740041
39.6441774 ,Left ,47.8549209545486 ,48.3814138369587 ,68.8844381997613
39.6664847 ,Left ,47.8884618966254 ,48.3467265538368 ,68.8779553983907
39.6965158 ,Left ,47.9304785766669 ,48.3236090148659 ,68.8877289982646
39.7189977 ,Left ,47.93978227795 ,48.3196083229944 ,68.8849212735579
39.7426531 ,Left ,47.9262836269751 ,48.3168865610427 ,68.8841360296788
39.7640111 ,Left ,47.9587398194385 ,48.3161772850188 ,68.8835782105782
39.7865421 ,Left ,47.958715842567 ,48.318227832423 ,68.8740920886411
39.8088168 ,Left ,47.8934821445768 ,48.3311665280535 ,68.8624799678566
39.8240729 ,Left ,47.8468274267482 ,48.3411084553751 ,68.8565951582539
39.8390963 ,Left ,47.8800552449514 ,48.3374753349804 ,68.8514189150344
39.861418 ,Left ,47.8997837036373 ,48.3311092954601 ,68.845489897671
39.8766028 ,Left ,47.8838508925122 ,48.3183190546587 ,68.8483596057613
39.898946 ,Left ,47.8718101763068 ,48.3217748460175 ,68.8515448334076
39.921271 ,Left ,47.866140431795 ,48.3495002363263 ,68.8608697522508
39.9367343 ,Left ,47.8245552336909 ,48.4036645141402 ,68.8686314725054
39.9590533 ,Left ,47.7757936882181 ,48.4669125371561 ,68.869499378592
39.9814828 ,Left ,47.761485822698 ,48.5141165220127 ,68.8609300123849
39.9965875 ,Left ,47.8109947016737 ,48.5346948793721 ,68.8569615485057
40.0189621 ,Left ,47.8645142522091 ,48.5340578977696 ,68.8568508577365
40.0488864 ,Left ,47.8538907610984 ,48.5227674864567 ,68.8632757920406
40.0639981 ,Left ,47.840695971168 ,48.5015055635711 ,68.8759188835495
40.086241 ,Left ,47.8686019168513 ,48.4752211855221 ,68.8643116846047
40.101477 ,Left ,47.8575890014954 ,48.4416740390028 ,68.8407159802539
40.116379 ,Left ,47.8013592101804 ,48.410078817531 ,68.8142384842514
40.1390457 ,Left ,47.7558587203997 ,48.4183707162171 ,68.7847467863579
40.1623271 ,Left ,47.7002720836934 ,48.4301639434234 ,68.7398190732763
40.1765048 ,Left ,47.67402031287 ,48.4502201113695 ,68.6914201503634
40.1989254 ,Left ,47.7077821306456 ,48.4639139587731 ,68.6539616969458
40.2214295 ,Left ,47.735914910296 ,48.4680159335414 ,68.6319263435664
40.2439981 ,Left ,47.7155765478783 ,48.4717014526925 ,68.6267995345773
40.2590214 ,Left ,47.7053532703165 ,48.4758488589778 ,68.6153024011222
40.2814507 ,Left ,47.7394318959476 ,48.471021346758 ,68.591848923015
40.3039761 ,Left ,47.746289631866 ,48.4560575905396 ,68.5622751924421
40.3265002 ,Left ,47.7350888521202 ,48.4390014745423 ,68.5371959371147
40.3490357 ,Left ,47.7381444820772 ,48.4269484097328 ,68.5195168336058
40.3742385 ,Left ,47.675313665772 ,48.4046815814691 ,68.511596331964
40.4015143 ,Left ,47.7010605133765 ,48.3899266694756 ,68.5059768917822
40.4542231 ,Left ,47.7022167906317 ,48.4177100495687 ,68.5143343378866
40.4915583 ,Left ,47.7084543424678 ,48.4054764959574 ,68.4871821542243
40.51392 ,Left ,47.7565133617095 ,48.3694295752776 ,68.4910505362888
40.55149 ,Left ,47.7434775416841 ,48.306301447538 ,68.578082490636
40.5739121 ,Left ,47.8119281698344 ,48.2770142279561 ,68.6328305310463
40.6189309 ,Left ,47.8544158278657 ,48.227359741795 ,68.6945018362556
40.6414523 ,Left ,47.8549547093421 ,48.2347297657941 ,68.7145898887175
40.6713089 ,Left ,47.8857328212021 ,48.2779120303265 ,68.718604955676
40.6938292 ,Left ,47.967316746406 ,48.275631670721 ,68.7296300804941
40.7315252 ,Left ,47.9959301527734 ,48.2597103850852 ,68.758873927901
40.7538592 ,Left ,47.962293740368 ,48.2594387566837 ,68.790368751983
40.7913533 ,Left ,47.9929778606277 ,48.2567138554484 ,68.8416217198067
40.8139176 ,Left ,48.023712336355 ,48.2552512964629 ,68.8528079145986
40.8512979 ,Left ,48.0382247271825 ,48.2767948756436 ,68.8773361954086
40.8737173 ,Left ,48.0353306774316 ,48.2907350835541 ,68.8831518157874
40.9187681 ,Left ,48.0172216883668 ,48.3192412904612 ,68.8823747447889
40.941557 ,Left ,48.0309715565281 ,48.3289355139792 ,68.879808191441
40.9713963 ,Left ,48.0402231589018 ,48.3392201306674 ,68.8802835086479
40.9939527 ,Left ,48.0167770048154 ,48.3432421220193 ,68.8846061703557
41.0312965 ,Left ,47.9833365715898 ,48.368294742079 ,68.8973603818336
41.0540219 ,Left ,47.9894761558334 ,48.3949767473876 ,68.8985970078718
41.0989023 ,Left ,48.0408977806685 ,48.449744249197 ,68.8958246305515
41.1514495 ,Left ,48.1078515095281 ,48.4864449725271 ,68.8699414405667
41.1739989 ,Left ,48.0959846782012 ,48.4886950946772 ,68.8357450946453
41.2114197 ,Left ,47.9790742739869 ,48.5451890781651 ,68.81259228714
41.2340115 ,Left ,48.0201329601933 ,48.5790251700024 ,68.8174947280315
41.2714016 ,Left ,48.0706657297636 ,48.6458770200729 ,68.8072709766982
41.29383 ,Left ,48.0837828648048 ,48.6742541603776 ,68.7943515630668
41.3312159 ,Left ,48.0474747390987 ,48.6766283981448 ,68.7713700028585
41.3539653 ,Left ,48.0049003611668 ,48.6793116213572 ,68.7696785864107
41.3939277 ,Left ,48.0510858177581 ,48.6649562349448 ,68.7743852025819
41.4138655 ,Left ,48.0675830777597 ,48.6517260401149 ,68.7788987103041
41.4512208 ,Left ,48.040785670216 ,48.661362577673 ,68.813079491666
41.4737484 ,Left ,48.0623545197959 ,48.6710721617999 ,68.8288819765519
41.5113055 ,Left ,48.0613104261839 ,48.6583307814962 ,68.8513450557016
41.5336632 ,Left ,48.0564214030933 ,48.645470956949 ,68.8623563875645
41.5714584 ,Left ,48.0193560611752 ,48.6167824629895 ,68.8774070043513
41.5939006 ,Left ,47.9982242446487 ,48.600691302849 ,68.8878380895429
41.6314753 ,Left ,47.9818532353118 ,48.5491389297142 ,68.9174571832085
41.6549812 ,Left ,47.9730532096658 ,48.5180280237563 ,68.9375945852439
41.6914931 ,Left ,48.0131049279064 ,48.4748386716461 ,68.9498644064687
41.7214437 ,Left ,48.0575012856635 ,48.4686854492328 ,68.9581497969784
41.7739509 ,Left ,48.032597835159 ,48.4433510715386 ,68.8877273513728
41.811427 ,Left ,48.1434516038382 ,48.3879208241485 ,68.8031822147748
41.8337705 ,Left ,48.2206073829628 ,48.3449990123941 ,68.7697654349636
41.8713702 ,Left ,48.2007310267061 ,48.3062619743593 ,68.7540216773769
41.8941528 ,Left ,48.1762982157801 ,48.2824787260629 ,68.7442913796345
41.9314706 ,Left ,48.0981094607606 ,48.2640164086826 ,68.7490844368167
41.9539509 ,Left ,48.0882324788339 ,48.263799661177 ,68.7519999318282
41.9914327 ,Left ,48.0530698994438 ,48.258697233607 ,68.7419973518248
42.0217082 ,Left ,48.0994673327261 ,48.2534153226017 ,68.7334728186487
42.0739751 ,Left ,48.064769902256 ,48.2958959072021 ,68.7584478518972
42.1115089 ,Left ,48.0244079220821 ,48.3823877806507 ,68.7840708397249
42.1337864 ,Left ,47.9973503476879 ,48.4174483561789 ,68.7994334511212
42.1714756 ,Left ,48.0760377330434 ,48.4641717647991 ,68.820679820491
42.1939303 ,Left ,48.1359451459983 ,48.504536100246 ,68.8497454438941
42.2243758 ,Left ,48.315601276168 ,48.667075340963 ,68.8815963984465
42.2465273 ,Left ,48.5579664457133 ,48.7242246795193 ,68.8527119120202
42.2690314 ,Left ,48.6969227984327 ,48.778588158814 ,68.8272042435338
42.2840761 ,Left ,48.6687712104762 ,48.8512621680408 ,68.8246304519232
42.3065289 ,Left ,48.5424325263554 ,48.9313500216067 ,68.8224264103487
42.3292676 ,Left ,48.438924622384 ,49.0028038914684 ,68.8125300947802
42.3444116 ,Left ,48.3992592140847 ,49.0375509587767 ,68.7729231926361
42.3665978 ,Left ,48.4301630951054 ,49.0152261804601 ,68.7139999221881
42.3889725 ,Left ,48.4594577003275 ,48.9730573438274 ,68.656837961267
42.4042213 ,Left ,48.4145274572952 ,48.9362700185339 ,68.6130827363098
42.4265871 ,Left ,48.3662741253224 ,48.9066201244383 ,68.5884131411206
42.4489945 ,Left ,48.3545539966529 ,48.8834672794167 ,68.5699471758985
42.4639812 ,Left ,48.3911375453572 ,48.860573612807 ,68.5296128963396
42.4864881 ,Left ,48.3909944165158 ,48.8457518215758 ,68.4908405739323
42.5090138 ,Left ,48.3535445805032 ,48.8374135147774 ,68.4824942324452
42.5240796 ,Left ,48.3318886384486 ,48.8188836152842 ,68.4858968694811
42.5538233 ,Left ,48.2787565895047 ,48.7908220988326 ,68.4821233020287
42.5768639 ,Left ,48.2075896821576 ,48.7604728195937 ,68.4829650459865
42.5914843 ,Left ,48.1408056553193 ,48.7294337043176 ,68.4815849057478
42.606438 ,Left ,48.0396764814427 ,48.7071704313535 ,68.4868884137738
42.6289111 ,Left ,47.9112600217432 ,48.7144977779069 ,68.494526418292
42.6448438 ,Left ,47.8756669435006 ,48.7324793764978 ,68.4771340566593
42.6664295 ,Left ,47.9123173735922 ,48.7163750764668 ,68.4407402319407
42.6890243 ,Left ,47.984842266917 ,48.6839450011966 ,68.4029113935228
42.7039938 ,Left ,48.006486548429 ,48.6506597393548 ,68.3828882838455
42.7265144 ,Left ,47.9448856167104 ,48.6347770870258 ,68.3850804327466
42.7487677 ,Left ,47.858362268397 ,48.6320859678869 ,68.4251401831696
42.7642897 ,Left ,47.8744124741457 ,48.6143688975912 ,68.4814092231327
42.7864793 ,Left ,47.9315087501207 ,48.5972092457428 ,68.5247001750001
42.8164594 ,Left ,47.9844431159366 ,48.5871471966894 ,68.5629820132145
42.8389116 ,Left ,48.0194034218363 ,48.5959022814346 ,68.6034312930079
42.861704 ,Left ,48.0151290283808 ,48.6206347934532 ,68.6270952797034
42.8914757 ,Left ,47.9957048651663 ,48.6665750779553 ,68.6387557782237
42.9063841 ,Left ,48.0995777238032 ,48.6539971453139 ,68.6358461593234
42.9289617 ,Left ,48.1712180849134 ,48.6325656138556 ,68.6410554756512
42.9437871 ,Left ,48.1589239383595 ,48.6152467453847 ,68.6505022445025
42.966422 ,Left ,48.1117073651989 ,48.6024695056812 ,68.6673286746272
42.9888687 ,Left ,48.1028412702939 ,48.587629699375 ,68.6836735227573
43.0114217 ,Left ,48.1273004982218 ,48.5694352409741 ,68.6922841033962
43.0264141 ,Left ,48.1875374361274 ,48.555380205609 ,68.697783529304
43.0564509 ,Left ,48.2322970227388 ,48.5491271413786 ,68.6992677934446
43.0788128 ,Left ,48.2339183447857 ,48.5480527324583 ,68.6992161779116
43.0938911 ,Left ,48.1992366465447 ,48.5523998622807 ,68.701742092305
43.1090232 ,Left ,48.1808264220546 ,48.5598993237033 ,68.7027933804757
43.1314748 ,Left ,48.1945140911002 ,48.5624601929019 ,68.6990129137373
43.1465449 ,Left ,48.2092973366629 ,48.5666456358807 ,68.6949770963652
43.1694652 ,Left ,48.2091235540156 ,48.5738793492726 ,68.6990929477753
43.1914879 ,Left ,48.1931226130546 ,48.5823241220289 ,68.7068144529496
43.206534 ,Left ,48.1398788987386 ,48.6087503334521 ,68.7155850163852
43.2290448 ,Left ,47.9909364985703 ,48.6487594240169 ,68.7763595465031
43.2514425 ,Left ,47.9340782015268 ,48.6898887475867 ,68.8618109163052
43.2666152 ,Left ,47.914870258866 ,48.7224385810963 ,68.876316772758
43.2890171 ,Left ,47.8104040321179 ,48.7688312907353 ,68.874234870688
43.3114738 ,Left ,47.7558823202731 ,48.8106652031364 ,68.8816801699273
43.3268586 ,Left ,47.7932603105691 ,48.8192207162292 ,68.8963181496366
43.3490192 ,Left ,47.8142847241315 ,48.8102831400356 ,68.909611417344
43.3714591 ,Left ,47.7699339174558 ,48.8125580285057 ,68.9249508956413
43.3863692 ,Left ,47.7584160918202 ,48.8190607865701 ,68.9462223768369
43.4089145 ,Left ,47.768795701945 ,48.8217996695424 ,68.9571582673381
43.4315715 ,Left ,47.7922492097988 ,48.8300560597207 ,68.9684471959774
43.4465005 ,Left ,47.8327521802974 ,48.8381270129514 ,68.9714196480671
43.4690552 ,Left ,47.8639813103375 ,48.8359357421579 ,68.9737867573863
43.4915346 ,Left ,47.8711623919741 ,48.8340659512408 ,68.9847884454109
43.5064306 ,Left ,47.8519672103833 ,48.8345052810264 ,69.021585136559
43.5289937 ,Left ,47.8595587977806 ,48.8387919992285 ,69.0796355416277
43.5515267 ,Left ,47.9218683252757 ,48.8505361104009 ,69.1373404031268
43.5662879 ,Left ,48.0068650078339 ,48.8628788845083 ,69.1833892600477
43.5893415 ,Left ,48.0792196651304 ,48.8740999662289 ,69.233646131503
43.6114894 ,Left ,48.1522144257684 ,48.8802491519138 ,69.2939506152407
43.6340287 ,Left ,48.1956482921096 ,48.8731592905189 ,69.3432797033478
43.6564915 ,Left ,48.199573738398 ,48.8602352680947 ,69.3910721822081
43.6864087 ,Left ,48.1922352861558 ,48.8211302314633 ,69.5018625405758
43.7090479 ,Left ,48.1906148415897 ,48.7924329009629 ,69.5374966780303
43.7315034 ,Left ,48.1583640302874 ,48.780105458632 ,69.5650322276823
43.7464068 ,Left ,48.1286461099032 ,48.7852457377024 ,69.5956697627647
43.7688776 ,Left ,48.1727746513024 ,48.7931098028174 ,69.6199774425495
43.7914024 ,Left ,48.2177237333502 ,48.7997428973287 ,69.6228410629467
43.8139583 ,Left ,48.212787909077 ,48.7959288162834 ,69.6213550289139
43.828954 ,Left ,48.2045519398557 ,48.7873012429134 ,69.6179775779454
43.851436 ,Left ,48.2020586393857 ,48.7697221145723 ,69.6126349613521
43.8665332 ,Left ,48.180136908314 ,48.7495465596182 ,69.6184482010278
43.8915167 ,Left ,48.1533976180309 ,48.7401443247011 ,69.6309364914541
43.9114853 ,Left ,48.1798331986832 ,48.723845548345 ,69.6326424992324
43.9338029 ,Left ,48.2239383275173 ,48.7304782765075 ,69.6165461754587
43.9639242 ,Left ,48.2383244136007 ,48.7432202850922 ,69.5784838948598
44.0089663 ,Left ,48.1296622797043 ,48.7359265935205 ,69.4169006966651
44.0314194 ,Left ,48.1175668013732 ,48.7148587250413 ,69.3839739644752
44.0541234 ,Left ,48.1150421838772 ,48.6922949168528 ,69.3672357421292
44.0688979 ,Left ,48.1022897465168 ,48.6866746449596 ,69.3592470528581
44.0915096 ,Left ,48.1023519400875 ,48.6814963679059 ,69.3428527925481
44.1141018 ,Left ,48.1055086071999 ,48.668845290402 ,69.3130084297713
44.1289829 ,Left ,48.0740646557547 ,48.6665026087279 ,69.3016744851783
44.1514604 ,Left ,48.0606841548808 ,48.6708446446621 ,69.3003002374229
44.1740186 ,Left ,48.0381696549232 ,48.6721761872264 ,69.2971379046131
44.1890168 ,Left ,48.005288188315 ,48.6686206264963 ,69.2932600656122
44.2187597 ,Left ,48.0246723367847 ,48.655002496878 ,69.2882039044095
44.2412959 ,Left ,48.049485553187 ,48.6446141989409 ,69.2725446463999
44.2563502 ,Left ,48.0289111174563 ,48.642171720785 ,69.2722159752923
44.2714624 ,Left ,48.0273090055225 ,48.6432741305958 ,69.2722641776538
44.2941036 ,Left ,48.0377969717757 ,48.6550355800885 ,69.2726550764764
44.3090035 ,Left ,48.0174061601708 ,48.6831947915378 ,69.2695933729036
44.3339804 ,Left ,47.9532728285243 ,48.7368681174903 ,69.265294764167
44.3541754 ,Left ,47.8900678747313 ,48.7851033833444 ,69.2614413736612
44.3687959 ,Left ,47.8976566607032 ,48.8056809676938 ,69.2567334796642
44.3914588 ,Left ,47.9714662987047 ,48.8090761823715 ,69.2503296485694
44.4137739 ,Left ,47.9463529558065 ,48.8077952538848 ,69.2570072639915
44.429031 ,Left ,47.854761954906 ,48.8206040730697 ,69.2988414167077
44.4514952 ,Left ,47.8212441153782 ,48.8218693480572 ,69.3418552023446
44.4895209 ,Left ,47.8169174718237 ,48.8112988817546 ,69.3625306978178
44.5097743 ,Left ,47.8569651023656 ,48.8036211236853 ,69.3856144951859
44.5267448 ,Left ,47.9305047279576 ,48.7962382454484 ,69.4084025779233
44.5490248 ,Left ,48.0278452368593 ,48.841867697842 ,69.3919112196363
44.571345 ,Left ,48.0399822655335 ,48.8653315456245 ,69.3558351478231
44.5939336 ,Left ,48.0192986486962 ,48.8779844765645 ,69.3088788154649
44.6089483 ,Left ,48.0362726005142 ,48.8780733950114 ,69.2435763211151
44.631424 ,Left ,48.0477117617374 ,48.8609283629985 ,69.1876356068121
44.6612923 ,Left ,48.0499134204874 ,48.8480546324905 ,69.1367182390501
44.676522 ,Left ,48.0260034283746 ,48.8249006982869 ,69.0885392452413
44.6989772 ,Left ,47.9789148557107 ,48.8128189179295 ,69.0438532902949
44.728927 ,Left ,47.9616287764681 ,48.7938007351672 ,68.9811519766072
44.7590778 ,Left ,47.9506172550515 ,48.7793029252017 ,68.9673070320503
