timestamp,event,roll,pitch,yaw
0.0210948 ,Left ,59,3707755199516 ,44,7640951761278 ,31,4722980927952
0.0440227 ,Left ,59,3630949265173 ,44,761553537143 ,31,4715869419643
0.0663166 ,Left ,59,3492565476553 ,44,7689046645698 ,31,4699039025427
0.0815142 ,Left ,59,3401441093615 ,44,7756453334723 ,31,4686137435775
0.1040531 ,Left ,59,3495259806702 ,44,7774203506279 ,31,4660428411204
0.1261041 ,Left ,59,3668110981402 ,44,7761504122587 ,31,4593751119977
0.1413127 ,Left ,59,3635638100102 ,44,7750856316549 ,31,4577609264161
0.16384 ,Left ,59,3474537531415 ,44,7670235779018 ,31,4578224542608
0.1865048 ,Left ,59,3474537531415 ,44,7670235779018 ,31,4578224542608
0.2015873 ,Left ,59,3469617812823 ,44,7667109748926 ,31,4602928153148
0.2237674 ,Left ,59,3486408895368 ,44,7700468859364 ,31,4491064974693
0.2461827 ,Left ,59,3581951592169 ,44,7718363975799 ,31,4321275290816
0.2612537 ,Left ,59,3645660143941 ,44,772819948316 ,31,4182816955341
0.2840599 ,Left ,59,3449932009555 ,44,7777227356808 ,31,4104832674508
0.306365 ,Left ,59,3074348758404 ,44,7852416491497 ,31,4076519488012
0.3215366 ,Left ,59,3054993029345 ,44,8000573780781 ,31,4046822878102
0.3513309 ,Left ,59,3277413161841 ,44,7982805890493 ,31,4056571573414
0.3745676 ,Left ,59,3381312951957 ,44,7848938493328 ,31,4157511118781
0.3894204 ,Left ,59,3127245374629 ,44,781783574981 ,31,4258406970482
0.4042195 ,Left ,59,2880587373962 ,44,7863853500305 ,31,4340803999296
0.4261675 ,Left ,59,3082994850966 ,44,780946509779 ,31,43430771052
0.4421615 ,Left ,59,3315276486152 ,44,7680604777355 ,31,44000120026
0.4643799 ,Left ,59,3266337036843 ,44,7654176908006 ,31,4526339141443
0.4863353 ,Left ,59,3034535001114 ,44,7668787408562 ,31,4613898691493
0.5012987 ,Left ,59,288598517027 ,44,7594855651997 ,31,4636798536137
0.5238244 ,Left ,59,2971467886404 ,44,7456739232508 ,31,4599841049965
0.5462592 ,Left ,59,2988840726487 ,44,7466599068333 ,31,4597508487702
0.5615675 ,Left ,59,2959308490512 ,44,7467567993359 ,31,4608023302744
0.5912698 ,Left ,59,2860637614764 ,44,7479204963475 ,31,4672061942063
0.6137417 ,Left ,59,2927680602315 ,44,7451121063105 ,31,4732027417586
0.6287721 ,Left ,59,2927438010493 ,44,7334069171376 ,31,4828932294872
0.6442228 ,Left ,59,2510859795228 ,44,7020423784102 ,31,4922322485995
0.6662544 ,Left ,59,2088242115485 ,44,7052031648206 ,31,4845789052636
0.6814447 ,Left ,59,2271968912275 ,44,729509002796 ,31,4734597616386
0.7038538 ,Left ,59,2233009459939 ,44,7152822830781 ,31,5048863967999
0.7263149 ,Left ,59,202649337024 ,44,7239868866802 ,31,5132327409617
0.7417069 ,Left ,59,1806444759003 ,44,7437514081555 ,31,5239743465297
0.7645303 ,Left ,59,1774164163495 ,44,7452615237059 ,31,5161319932323
0.7866497 ,Left ,59,192869962678 ,44,7426886444475 ,31,5050199404976
0.8017791 ,Left ,59,1892948695973 ,44,7280890357017 ,31,5028985180982
0.8241703 ,Left ,59,152495288037 ,44,721925266419 ,31,5037899941433
0.8465587 ,Left ,59,1066331145507 ,44,7158541201769 ,31,5174393774457
0.8617993 ,Left ,59,1090880335193 ,44,7154488553529 ,31,5188820543261
0.8840601 ,Left ,59,1315761167321 ,44,7180808182095 ,31,5239169141282
0.9065377 ,Left ,59,1573773356525 ,44,7064880936505 ,31,5197941109016
0.9217966 ,Left ,59,1641807616967 ,44,6975006184323 ,31,5115275925754
0.9513662 ,Left ,59,0964154453821 ,44,7057876726246 ,31,5123525216052
0.9737719 ,Left ,59,0201379835305 ,44,712662829903 ,31,5202500790259
1.0037627 ,Left ,59,1053294907861 ,44,6986616662857 ,31,5421768194033
1.0262699 ,Left ,59,2244017091226 ,44,6497194540228 ,31,5214451350021
1.0486675 ,Left ,59,2633273732769 ,44,6242413675107 ,31,5141676592556
1.0646766 ,Left ,59,2082582902166 ,44,6421981466207 ,31,507502424952
1.0869372 ,Left ,59,1122872609009 ,44,6989542763377 ,31,4803222467697
1.1090003 ,Left ,59,0678124244313 ,44,7933666803543 ,31,449351485689
1.1312654 ,Left ,59,1146574869313 ,44,8429901905025 ,31,4024697873894
1.15367 ,Left ,59,1921895889105 ,44,8099712811753 ,31,4292472285875
1.1763847 ,Left ,59,2329928362501 ,44,758569026912 ,31,4614742649099
1.1913318 ,Left ,59,1939388625503 ,44,7739628255419 ,31,4740181820738
1.2065387 ,Left ,59,1118593864772 ,44,8179946665075 ,31,4936948802424
1.2288249 ,Left ,59,1353690045646 ,44,8582984991322 ,31,5179070148464
1.2440762 ,Left ,59,2459469052964 ,44,9182654595413 ,31,541214404204
1.2663657 ,Left ,59,3482078891437 ,44,9405750167534 ,31,5454713468742
1.2888891 ,Left ,59,3474316485881 ,44,933474541111 ,31,5691941145567
1.3038398 ,Left ,59,2396543098315 ,44,9293437376433 ,31,5786304845356
1.3265919 ,Left ,59,1447560479457 ,44,9559663945231 ,31,5669382915711
1.3491242 ,Left ,59,1235118014351 ,44,9697376595249 ,31,5462768928364
1.3642433 ,Left ,59,124389754458 ,44,9506383663056 ,31,5195864720144
1.3864629 ,Left ,59,1099550837758 ,44,9089814596974 ,31,5060239291264
1.4090536 ,Left ,59,0709506964509 ,44,8771772406669 ,31,5023062189555
1.4240636 ,Left ,59,0042660503089 ,44,8707682265069 ,31,5013097093301
1.44671 ,Left ,58,9595801333089 ,44,8667307890194 ,31,5079250530789
1.4690711 ,Left ,58,9571080076712 ,44,8573378649575 ,31,5193578616296
1.4841931 ,Left ,58,9883753379526 ,44,86148625996 ,31,5245872932937
1.5064213 ,Left ,58,9629097013125 ,44,8824127948223 ,31,5294435785737
1.5287114 ,Left ,58,9551992880126 ,44,8642576989083 ,31,5464966634442
1.5437532 ,Left ,58,9792111553765 ,44,8161671140326 ,31,5577566016718
1.5665005 ,Left ,59,0012474803759 ,44,8012676996426 ,31,5373376346716
1.588971 ,Left ,58,9845198810952 ,44,8131179899568 ,31,5144229965408
1.6112985 ,Left ,58,9472898559932 ,44,8303830348508 ,31,4981562801168
1.6339706 ,Left ,58,9586344319819 ,44,8551496673974 ,31,4990421904739
1.6641487 ,Left ,59,0084812262946 ,44,8658868520806 ,31,5122100251702
1.6866299 ,Left ,59,0262757508579 ,44,8610940067211 ,31,5328540459802
1.7091396 ,Left ,59,0680756783989 ,44,8553416295539 ,31,5400145392583
1.7314917 ,Left ,59,1013874675314 ,44,8265772834045 ,31,562560037662
1.7543018 ,Left ,59,1230834709235 ,44,7802420758039 ,31,5702514820276
1.7916821 ,Left ,59,1194120550262 ,44,7250544686126 ,31,5926916632944
1.8142731 ,Left ,59,0972680669118 ,44,7327427639078 ,31,5867822909431
1.8290865 ,Left ,59,0973209838601 ,44,7926608052554 ,31,5649755395269
1.8443507 ,Left ,59,0812432903335 ,44,8386707925688 ,31,547971357962
1.8665962 ,Left ,59,1014046217309 ,44,8495525351506 ,31,5857039134843
1.8890377 ,Left ,59,1496185409123 ,44,8842835410128 ,31,6253459254181
1.904054 ,Left ,59,222933212563 ,44,928707929097 ,31,6222605330526
1.9266606 ,Left ,59,258230341898 ,44,8948089986464 ,31,6205229901724
1.9492572 ,Left ,59,1874533894319 ,44,826017437315 ,31,6442130119442
1.9718123 ,Left ,59,1078827752706 ,44,7396383598933 ,31,6522880200387
1.9863821 ,Left ,59,0315819409121 ,44,6669835039863 ,31,6789281170692
2.0086027 ,Left ,59,0166600958307 ,44,6141266791038 ,31,7085653712879
2.0388004 ,Left ,59,0215378487798 ,44,5879021593688 ,31,7322307987586
2.0538445 ,Left ,58,9894319858158 ,44,5792824778496 ,31,7660758343558
2.0915019 ,Left ,58,9498497268755 ,44,5620178842923 ,31,8251896297644
2.1064283 ,Left ,58,9880585808888 ,44,5430460162458 ,31,832841954167
2.1289938 ,Left ,58,981683221148 ,44,5304479854913 ,31,8420422012895
2.1512055 ,Left ,58,9412244252534 ,44,5444429475638 ,31,8497038453656
2.1663816 ,Left ,58,9052573119708 ,44,5583962632456 ,31,8580717338835
2.1889199 ,Left ,58,8808543783447 ,44,5716934439486 ,31,8550905619366
2.2114635 ,Left ,58,8393982447903 ,44,6040517241113 ,31,8582144602602
2.2265108 ,Left ,58,8306525387212 ,44,6217228994486 ,31,8561736164118
2.2493005 ,Left ,58,8671791259604 ,44,6330136886603 ,31,8714979938979
2.2715429 ,Left ,58,9172906340389 ,44,6564189076738 ,31,8869904485082
2.286521 ,Left ,58,959942051847 ,44,6852525561733 ,31,8716428874264
2.3090979 ,Left ,58,9560833342177 ,44,7094739532343 ,31,8491881975185
2.3314063 ,Left ,58,9255768279251 ,44,7516148281779 ,31,8356789906406
2.3464691 ,Left ,58,915669118545 ,44,778421946652 ,31,81853095258
2.3692891 ,Left ,58,8918349923545 ,44,7694447707533 ,31,8161354121662
2.3915467 ,Left ,58,8614320038795 ,44,745595580154 ,31,8267287009959
2.4065564 ,Left ,58,8498294961795 ,44,7021504055337 ,31,8496023321694
2.4292014 ,Left ,58,8817980222845 ,44,6656007819375 ,31,8554419343156
2.4517124 ,Left ,58,920441090119 ,44,6424619718046 ,31,8498321130757
2.4665142 ,Left ,58,9546678317394 ,44,6153173809209 ,31,8511980120246
2.4886681 ,Left ,58,9877481121608 ,44,5892556824195 ,31,8532296568431
2.5112385 ,Left ,58,9923177562622 ,44,5802009812176 ,31,8647111019689
2.5269308 ,Left ,59,0010236121794 ,44,5706996456793 ,31,865129679021
2.5494294 ,Left ,59,0361131253681 ,44,5469573136836 ,31,8507677323511
2.5714104 ,Left ,59,0754807852517 ,44,5245838988576 ,31,8282351688153
2.5865096 ,Left ,59,0769965174876 ,44,5134231426302 ,31,8114944617914
2.6091654 ,Left ,59,0430355485793 ,44,5097349430026 ,31,8006679838613
2.6315778 ,Left ,59,0172131989671 ,44,5029622799918 ,31,7928812111539
2.6464767 ,Left ,59,0047033051275 ,44,5101027435681 ,31,7811264717499
2.6687792 ,Left ,59,0549424624722 ,44,53480291521 ,31,7589625155367
2.6914028 ,Left ,59,1163553164974 ,44,5639894835846 ,31,7370105829019
2.7064932 ,Left ,59,1184224696006 ,44,5933878203496 ,31,7217624047495
2.7290132 ,Left ,59,0752836022398 ,44,6214172249669 ,31,7170892935569
2.7516502 ,Left ,59,013884658304 ,44,6404517109317 ,31,7197474373712
2.7668355 ,Left ,58,9862855337771 ,44,6403503223811 ,31,7245607708409
2.7967209 ,Left ,59,0041440976444 ,44,6317201591063 ,31,724548823173
2.8195182 ,Left ,59,0228384034704 ,44,6278319345754 ,31,7260167608296
2.8343372 ,Left ,59,0015498114855 ,44,6204846033947 ,31,7328728846573
2.8496495 ,Left ,58,9981252659853 ,44,604500981008 ,31,7396946825891
2.8792393 ,Left ,59,0154640718887 ,44,5923064628851 ,31,7407612864943
2.901737 ,Left ,59,0126840323934 ,44,5897488573078 ,31,7336677843862
2.9168244 ,Left ,59,0106897871069 ,44,5901515939243 ,31,7250494448969
2.9321338 ,Left ,59,002225578559 ,44,5846750984972 ,31,7258567256838
2.9541221 ,Left ,58,9925527761036 ,44,5802997371385 ,31,7274582173651
2.9691482 ,Left ,58,9955769600886 ,44,5837470004546 ,31,7324799524579
2.9913461 ,Left ,59,0100093791899 ,44,5749366617413 ,31,735924284968
3.0138576 ,Left ,59,0225243222719 ,44,5510077500772 ,31,7387169691053
3.0289321 ,Left ,59,0088567262343 ,44,5443872977795 ,31,7432924616836
3.0512561 ,Left ,58,9882253468373 ,44,5514739030983 ,31,7485815074225
3.0736677 ,Left ,58,9507423915482 ,44,5511926760681 ,31,7615253502281
3.0890227 ,Left ,58,931055962608 ,44,5372214928771 ,31,7700224896192
3.1117463 ,Left ,58,9550922538359 ,44,5272598511912 ,31,7814487120415
3.1342396 ,Left ,58,9984677748716 ,44,5204624027859 ,31,7991576180463
3.1567339 ,Left ,58,9650761863657 ,44,5315691246852 ,31,805666946462
3.1793818 ,Left ,58,9247944916101 ,44,5541468562259 ,31,8237035127491
3.2012187 ,Left ,58,9311675178095 ,44,5637074543089 ,31,8346549133181
3.2162683 ,Left ,58,9639114631068 ,44,5441950410898 ,31,846500442022
3.2312964 ,Left ,58,9587181661569 ,44,5162422563491 ,31,8397312629626
3.2536554 ,Left ,58,9046241267502 ,44,4869263407176 ,31,8212590712804
3.2686871 ,Left ,58,8531665809489 ,44,4460210058219 ,31,79030918972
3.291603 ,Left ,58,8228827753649 ,44,4016765144343 ,31,7931959422883
3.3138052 ,Left ,58,8274008722496 ,44,3505776318514 ,31,8237576058185
3.3292044 ,Left ,58,8822461075465 ,44,3345162876541 ,31,8195163676754
3.3589219 ,Left ,58,9786693007247 ,44,3301386599234 ,31,8097876115964
3.3814794 ,Left ,58,9840562837505 ,44,3035938039725 ,31,8044994289085
3.3964366 ,Left ,58,9912934961413 ,44,293514282786 ,31,8169125183387
3.411679 ,Left ,58,9840617168811 ,44,3053801291923 ,31,8075447804819
3.4412574 ,Left ,58,9330116588194 ,44,3324033768734 ,31,7936942382744
3.46411 ,Left ,58,9093261483964 ,44,366747124155 ,31,7752770500126
3.4865483 ,Left ,58,9282628651012 ,44,3456198491795 ,31,7887242630503
3.5012936 ,Left ,58,9562570520895 ,44,3434685287513 ,31,827664703923
3.5162717 ,Left ,58,9788780011634 ,44,4187678341323 ,31,8207323448872
3.5313117 ,Left ,59,0006045619104 ,44,4811487780741 ,31,8280052210466
3.553846 ,Left ,59,0372863964142 ,44,4991450332567 ,31,8505244582447
3.5688268 ,Left ,59,1047044689523 ,44,5327326765856 ,31,8636961260659
3.5914335 ,Left ,59,1559518859792 ,44,5621363135877 ,31,8644627828377
3.6140297 ,Left ,59,1462144432029 ,44,5537090537196 ,31,8739506924863
3.6290604 ,Left ,59,083025252312 ,44,5613352421591 ,31,8848875145067
3.6518559 ,Left ,59,0120836745142 ,44,589555788976 ,31,8779982448689
3.6743595 ,Left ,58,9876103865131 ,44,6051755495063 ,31,8642201404053
3.6896483 ,Left ,58,9774722509655 ,44,6109116778544 ,31,8416159806042
3.7120074 ,Left ,58,9739531684477 ,44,6002516591776 ,31,8173879296168
3.7344042 ,Left ,58,96331331249 ,44,5740224543886 ,31,803873885659
3.7490573 ,Left ,58,9450688202356 ,44,5606323263514 ,31,8002522570268
3.771908 ,Left ,58,9211983011437 ,44,5634181239018 ,31,8025406216373
3.7945067 ,Left ,58,920994162305 ,44,5665712085184 ,31,7967028051693
3.8168733 ,Left ,58,9502244600439 ,44,5622273063403 ,31,7825510772721
3.8243297 ,Left ,58,9641032388114 ,44,5521038250786 ,31,7762026664285
3.8465474 ,Left ,58,9517235844994 ,44,5487500554297 ,31,7767692825598
3.8614129 ,Left ,58,9117057450935 ,44,5721693218237 ,31,7926808206751
3.8840863 ,Left ,58,86998629831 ,44,5795812671318 ,31,8028205611166
3.9064144 ,Left ,58,8765263992636 ,44,572438463632 ,31,8120635150858
3.9216752 ,Left ,58,9303077161392 ,44,5461621391601 ,31,8163266329504
3.9438136 ,Left ,58,9564769704034 ,44,5343166904345 ,31,8050363376795
3.9663186 ,Left ,58,9522406481943 ,44,5319762894512 ,31,800817868366
3.9812682 ,Left ,58,9326710253978 ,44,5406898309284 ,31,8133996472715
4.0037507 ,Left ,58,9097914834991 ,44,5432911591393 ,31,8200037882675
4.0262952 ,Left ,58,9050440829693 ,44,5384206587392 ,31,8291861582428
4.0418258 ,Left ,58,9363536931244 ,44,5372320705603 ,31,8296633775555
4.0640315 ,Left ,58,9702675244244 ,44,5432237984888 ,31,8296917640817
4.0864878 ,Left ,58,9621200059006 ,44,542225463944 ,31,8344818794646
4.1016235 ,Left ,58,9301847158167 ,44,5498745109069 ,31,8367047769123
4.1239334 ,Left ,58,9363299462701 ,44,5490166944337 ,31,8342379888168
4.1465152 ,Left ,58,9669077393324 ,44,5488965937763 ,31,8283256174067
4.1615236 ,Left ,58,9987474711404 ,44,5502523024555 ,31,8153694306448
4.1837163 ,Left ,58,9889289849515 ,44,538282522723 ,31,8188331733514
4.2063331 ,Left ,58,9536241124738 ,44,523201711703 ,31,8276988927132
4.2213341 ,Left ,58,9294017860948 ,44,5215512939107 ,31,8260641556751
4.2440485 ,Left ,58,9385122854249 ,44,5213407988774 ,31,8132980833534
4.2741215 ,Left ,58,9365840021271 ,44,5257708097239 ,31,7967830432775
4.3116964 ,Left ,58,8516027984237 ,44,5887745769949 ,31,7773288845725
4.3265961 ,Left ,58,812400788488 ,44,6270133052857 ,31,7604041541742
4.3642344 ,Left ,58,8637848628246 ,44,6022163003977 ,31,8113268673966
4.3865167 ,Left ,58,9421445169504 ,44,5459520123026 ,31,8168847182264
4.4241851 ,Left ,58,9270085977869 ,44,4519924438838 ,31,8777865816108
4.4463226 ,Left ,58,8899244042282 ,44,4365543167189 ,31,9131574694301
4.4839043 ,Left ,58,9121520094212 ,44,3607826580555 ,31,9867440911224
4.5063834 ,Left ,58,9649696848635 ,44,3412315925024 ,32,0077323463033
4.5442925 ,Left ,58,9889203736552 ,44,3618563178949 ,32,0144233032031
4.5665876 ,Left ,58,9693439047448 ,44,3855779815084 ,32,0116810734302
4.6039659 ,Left ,58,955883669293 ,44,4414977859818 ,31,9910151733288
4.6265496 ,Left ,58,8824248159679 ,44,4741748785237 ,31,9844825914251
4.6639651 ,Left ,58,7797064722688 ,44,5389468812614 ,31,9998368533845
4.6941401 ,Left ,58,8292056307687 ,44,565097069991 ,32,0118249396675
4.7316805 ,Left ,58,8910431832205 ,44,6349529086729 ,31,9985651818301
4.7465691 ,Left ,58,8800015524034 ,44,6504114378065 ,31,987046699729
4.7840824 ,Left ,58,8008596483726 ,44,6329488497041 ,31,9696257932801
4.8066139 ,Left ,58,8014810141183 ,44,6282951560848 ,31,9700059054427
4.8440357 ,Left ,58,7904954563201 ,44,6207528283321 ,31,9756040689595
4.8664537 ,Left ,58,8039109113436 ,44,5956754635925 ,31,9779429009381
4.9036586 ,Left ,58,8501190766665 ,44,55306858045 ,31,9670530006772
4.9264868 ,Left ,58,8528920319505 ,44,5360821105814 ,31,957180311876
4.9640715 ,Left ,58,8747326585845 ,44,4869839536745 ,31,9543175213857
4.9864688 ,Left ,58,8898215780819 ,44,478236511521 ,31,940977163175
5.0314702 ,Left ,58,9034083463302 ,44,4816624427244 ,31,9164543682461
5.0464665 ,Left ,58,9281662526063 ,44,4857960021389 ,31,9046758226361
5.0842883 ,Left ,58,9261992895646 ,44,4884558950716 ,31,8851852152725
5.1144331 ,Left ,58,8938665981937 ,44,5016898170109 ,31,8850366023723
5.1664665 ,Left ,58,9118982179957 ,44,5023811884848 ,31,8861222280054
5.2041386 ,Left ,58,9213370644564 ,44,5184044717324 ,31,8818967581313
5.2265052 ,Left ,58,9323921251 ,44,5174634051009 ,31,8730615764346
5.2637329 ,Left ,58,9033315275848 ,44,5081649206299 ,31,8653286651091
5.2862746 ,Left ,58,8670762760211 ,44,4951051149552 ,31,8729070220888
5.3243107 ,Left ,58,8498830658914 ,44,4725605873599 ,31,884346269959
5.3464717 ,Left ,58,8583182060228 ,44,4621816031094 ,31,8868578958007
5.3838632 ,Left ,58,8674030195262 ,44,4335362157734 ,31,882097406765
5.4215475 ,Left ,58,8669631497799 ,44,4768811203202 ,31,8470118829745
5.451346 ,Left ,58,8615585460234 ,44,5054926044466 ,31,8338700238415
5.5036953 ,Left ,58,8622654690422 ,44,532897276611 ,31,8135497241373
5.5414957 ,Left ,58,8371378744382 ,44,5331860493237 ,31,8105461431692
5.5639297 ,Left ,58,8433825271994 ,44,5241309422353 ,31,8095742972739
5.5937812 ,Left ,58,83066976658 ,44,5015387119629 ,31,8218193559112
5.6237619 ,Left ,58,8266805948612 ,44,4852857896311 ,31,8311727680484
5.661395 ,Left ,58,8365535350508 ,44,4448411573497 ,31,840560002206
5.6841925 ,Left ,58,8262784887945 ,44,4351321295436 ,31,8402803309898
5.7066203 ,Left ,58,8148668218836 ,44,4312658129871 ,31,8404732065469
5.729036 ,Left ,58,8144735534445 ,44,4367995471867 ,31,8380561150319
5.7439149 ,Left ,58,8171495767052 ,44,4483514600618 ,31,8343967034689
5.7592115 ,Left ,58,8080986186482 ,44,4526139434606 ,31,8392499876959
5.7816145 ,Left ,58,8080455834405 ,44,4493468715522 ,31,8378984105824
5.7965443 ,Left ,58,8080455834405 ,44,4493468715522 ,31,8378984105824
5.8187117 ,Left ,58,8114756369263 ,44,4487503087329 ,31,8436598478103
5.8489629 ,Left ,58,808479104181 ,44,4330578341736 ,31,8480449110589
5.8640081 ,Left ,58,8124828323299 ,44,4227271716732 ,31,8497692388423
5.8869702 ,Left ,58,8139874893536 ,44,4242943178704 ,31,8499286894282
5.916753 ,Left ,58,8065799254301 ,44,4104356218843 ,31,8565367504529
5.9391806 ,Left ,58,8162615933496 ,44,4007583293571 ,31,861275402117
5.961385 ,Left ,58,8162615933496 ,44,4007583293571 ,31,861275402117
5.9767138 ,Left ,58,8162615933496 ,44,4007583293571 ,31,861275402117
5.9992214 ,Left ,58,8238727003314 ,44,3981897330997 ,31,8575943655779
6.0214561 ,Left ,58,8253026869922 ,44,3946842263997 ,31,8533718201868
6.0365869 ,Left ,58,788305392238 ,44,3933901655439 ,31,8468932698407
6.0586755 ,Left ,58,7642610844472 ,44,4115287601551 ,31,8339537648767
6.0814758 ,Left ,58,7830939509342 ,44,4199273024236 ,31,8518806461935
6.096482 ,Left ,58,8365250519686 ,44,4303918020054 ,31,8608771177877
6.1188528 ,Left ,58,8112322207924 ,44,4367132181416 ,31,867418814427
6.1413503 ,Left ,58,7400319782599 ,44,4256103084682 ,31,8831107714684
6.1563576 ,Left ,58,7117363429921 ,44,4037060778441 ,31,8987432762902
6.178776 ,Left ,58,7126352176949 ,44,4106529636042 ,31,8892662088301
6.2015036 ,Left ,58,6758032218802 ,44,4133128805509 ,31,8747190688018
6.2168054 ,Left ,58,6433356108142 ,44,4348169651801 ,31,8516082532734
6.2391243 ,Left ,58,6491365945865 ,44,454950733238 ,31,8572514046164
6.2616813 ,Left ,58,7178894813069 ,44,4368746432203 ,31,8573626756716
6.2766428 ,Left ,58,8137961084855 ,44,413404433451 ,31,8504482957581
6.2991288 ,Left ,58,8731282441007 ,44,3764818247913 ,31,8532579657413
6.3217627 ,Left ,58,9064292517127 ,44,3748853955495 ,31,8621881613621
6.336704 ,Left ,58,9360096822704 ,44,4016617357116 ,31,8810651429633
6.3587425 ,Left ,58,9347561107514 ,44,4290980467761 ,31,8662425493981
6.3819084 ,Left ,58,8886324137149 ,44,4605644743789 ,31,8567679663815
6.3966743 ,Left ,58,9483780644639 ,44,4451499400195 ,31,8370027093186
6.4191841 ,Left ,59,00303797883 ,44,3702412464931 ,31,8783087324813
6.4413172 ,Left ,59,0486777409492 ,44,3564074573192 ,31,8684946570304
6.4563805 ,Left ,59,0356330499463 ,44,409941831599 ,31,8374587417006
6.4790341 ,Left ,59,0109102918893 ,44,4441001709988 ,31,828792347313
6.5013775 ,Left ,59,0296948070157 ,44,4912385318886 ,31,8264380978228
6.5165858 ,Left ,59,0531640810333 ,44,5215763617745 ,31,8230080687284
6.5387711 ,Left ,59,0349333726836 ,44,5385804527395 ,31,8360593728138
6.56127 ,Left ,58,979731966797 ,44,5579814100197 ,31,8486576790983
6.576269 ,Left ,58,9388141823128 ,44,5694356604934 ,31,8696439885493
6.5988893 ,Left ,58,9540181204226 ,44,5590044391739 ,31,8933734550173
6.6215687 ,Left ,59,002219646544 ,44,5469252098569 ,31,9003098239249
6.6437637 ,Left ,58,9899746807693 ,44,5151207301647 ,31,8945389257149
6.6587648 ,Left ,58,9253741395691 ,44,469192340223 ,31,903939939571
6.681499 ,Left ,58,8698628749799 ,44,4458283204438 ,31,9189935249057
6.7037361 ,Left ,58,844514516231 ,44,448930363554 ,31,9241974246201
6.7187465 ,Left ,58,854488343632 ,44,4418940470219 ,31,9298692898551
6.7412778 ,Left ,58,8689354773298 ,44,4111896831236 ,31,9271630574341
6.7638572 ,Left ,58,8331254071729 ,44,3974219289794 ,31,9200786035309
6.7789188 ,Left ,58,7761278060653 ,44,4453672348945 ,31,9112203254417
6.8015381 ,Left ,58,8216259028264 ,44,4520294111171 ,31,9168983690595
6.8238036 ,Left ,58,8768785992607 ,44,4130768625988 ,31,9274391095085
6.8389057 ,Left ,58,9457379685595 ,44,3942515294996 ,31,9149269883532
6.8613667 ,Left ,58,910821172352 ,44,4043859881401 ,31,907480500624
6.8838798 ,Left ,58,8503015788665 ,44,429979783821 ,31,9101852178736
6.8991839 ,Left ,58,8285841322376 ,44,4423039336424 ,31,9083374109889
6.9214741 ,Left ,58,8467910220589 ,44,4398468279066 ,31,9152505462415
6.9439492 ,Left ,58,8834328087779 ,44,4325098977753 ,31,9256025149605
6.9591715 ,Left ,58,9172225774626 ,44,4293194610192 ,31,9290462382673
6.9815167 ,Left ,58,9307534281223 ,44,426459924412 ,31,9232643885769
7.004281 ,Left ,58,9374557092306 ,44,4281394136408 ,31,9073931838109
7.0195944 ,Left ,58,927456754388 ,44,4497132842784 ,31,8815386746991
7.0492062 ,Left ,58,921511486692 ,44,491112602266 ,31,8523789430456
7.0717126 ,Left ,58,9278115369323 ,44,4993437867466 ,31,8463759493652
7.0862168 ,Left ,58,9593404355211 ,44,4650742480095 ,31,8621991725602
7.1015684 ,Left ,58,9742644814388 ,44,4700612889506 ,31,8707284564951
7.1238805 ,Left ,58,8953240878457 ,44,5471503138492 ,31,9020535829828
7.1390785 ,Left ,58,7843912692667 ,44,5771352881345 ,31,9610958287354
7.1615192 ,Left ,58,8302399206386 ,44,5993842423412 ,32,0315822835878
7.1838035 ,Left ,58,9274976028279 ,44,6629023946164 ,32,0438367490453
7.1989317 ,Left ,58,9877004662361 ,44,6660362459553 ,32,0339022513709
7.2215482 ,Left ,58,9368902373062 ,44,5988690406501 ,32,0443487284539
7.2438677 ,Left ,58,7936665549372 ,44,5526710493802 ,32,0568245313982
7.258964 ,Left ,58,6809029786332 ,44,5040570200265 ,32,0885376275652
7.2816572 ,Left ,58,6279310518769 ,44,4298902854838 ,32,1325893969059
7.3042705 ,Left ,58,6043579712417 ,44,3883814581714 ,32,1789834493833
7.3191044 ,Left ,58,5980778916018 ,44,3820602057934 ,32,2232637837033
7.3415876 ,Left ,58,6073930166144 ,44,3792713581414 ,32,2424493441323
7.3641511 ,Left ,58,6634315495631 ,44,3722901082182 ,32,2557251196307
7.3866846 ,Left ,58,6872137417739 ,44,3580124109871 ,32,2749383778815
7.401895 ,Left ,58,670320254613 ,44,3541639874775 ,32,2839792860424
7.424004 ,Left ,58,6293598155245 ,44,3465538799852 ,32,2880669144477
7.4390687 ,Left ,58,598903921471 ,44,351434793021 ,32,2722653560493
7.4617188 ,Left ,58,574094834516 ,44,3711009232644 ,32,2319610270866
7.4841586 ,Left ,58,5093953411274 ,44,4087881590138 ,32,2399939596513
7.4990156 ,Left ,58,5224568894873 ,44,479233136866 ,32,2525260560039
7.5217344 ,Left ,58,5485413615576 ,44,540678750406 ,32,2572194528044
7.5517534 ,Left ,58,6233967815889 ,44,5153213017471 ,32,2576991121458
7.566517 ,Left ,58,6491229882182 ,44,4781589644479 ,32,2468156332815
7.588929 ,Left ,58,5905214076795 ,44,4676984397244 ,32,2181361659849
7.6041571 ,Left ,58,5326869749646 ,44,4827086660427 ,32,208204255812
7.6266947 ,Left ,58,5793976034844 ,44,473366164016 ,32,2193425784088
7.641706 ,Left ,58,6452657428618 ,44,461561374433 ,32,2277886168864
7.6639858 ,Left ,58,6614285679031 ,44,4660929918297 ,32,2263017475676
7.6940398 ,Left ,58,6414168483752 ,44,4659185571191 ,32,2166372105045
7.7089475 ,Left ,58,6647376609194 ,44,4416241103531 ,32,208974123856
7.746894 ,Left ,58,7341799999843 ,44,3661264172324 ,32,1916918747367
7.7621744 ,Left ,58,7110075305516 ,44,3335101345999 ,32,1848861425753
7.7846971 ,Left ,58,7018762331261 ,44,3249832613999 ,32,1730373456437
7.8068419 ,Left ,58,7334464340973 ,44,3233326533763 ,32,1591037131525
7.8217701 ,Left ,58,7862564393238 ,44,3297294798372 ,32,1432185918775
7.8441251 ,Left ,58,8126108735909 ,44,34527468898 ,32,1330730917105
7.8665018 ,Left ,58,7925251638966 ,44,3618837532699 ,32,1252394718388
7.8817416 ,Left ,58,7703279939017 ,44,3730401576259 ,32,1136902329524
7.9043117 ,Left ,58,7625226679793 ,44,3770153028631 ,32,1085436342185
7.9261448 ,Left ,58,7651599939084 ,44,3741817649186 ,32,1065803580003
7.9415073 ,Left ,58,7942537848247 ,44,3722725386537 ,32,1004341859109
7.9711854 ,Left ,58,8197111185185 ,44,3726239285832 ,32,1011821970818
7.9938457 ,Left ,58,8002749866218 ,44,3855668617546 ,32,1058840512884
8.0087557 ,Left ,58,7780526699486 ,44,404493726988 ,32,1066965543496
8.023808 ,Left ,58,7776960510223 ,44,4100355385246 ,32,1042842044086
8.054311 ,Left ,58,7872330700331 ,44,4160026875105 ,32,0984792588229
8.0689862 ,Left ,58,7870597244387 ,44,4191564734671 ,32,0926609714022
8.0913829 ,Left ,58,7663532378997 ,44,4210549229407 ,32,0889228203187
8.1064827 ,Left ,58,7402625396352 ,44,4235394737774 ,32,0847370799814
8.1217746 ,Left ,58,7501806818796 ,44,4261861049758 ,32,0704766651498
8.1515124 ,Left ,58,7725735461422 ,44,4253513806124 ,32,0554689729946
8.1741926 ,Left ,58,796385678565 ,44,4105841367391 ,32,048614764956
8.1892556 ,Left ,58,7961494154953 ,44,4011614035055 ,32,0475025725117
8.211504 ,Left ,58,7704249795615 ,44,4088516844209 ,32,0380416827901
8.2265768 ,Left ,58,7589405563771 ,44,4240271760143 ,32,0290541530812
8.2418924 ,Left ,58,7646756641697 ,44,416851607107 ,32,0196572252387
8.2641953 ,Left ,58,7686352929703 ,44,3964809145543 ,32,0198790608324
8.2865528 ,Left ,58,7521797906821 ,44,3891807575213 ,32,0204500680592
8.3019043 ,Left ,58,7238884368429 ,44,3921583524622 ,32,0219875733722
8.3242277 ,Left ,58,724711483417 ,44,3850945223007 ,32,0189306666466
8.3466206 ,Left ,58,7428679000105 ,44,3707784674818 ,32,021319807868
8.3620733 ,Left ,58,7595070599086 ,44,3649164554755 ,32,0250469924666
8.3916441 ,Left ,58,7517464729971 ,44,3706654620229 ,32,022884235479
8.41429 ,Left ,58,7368613775824 ,44,3774902583644 ,32,018894406441
8.4368505 ,Left ,58,7346373326495 ,44,3769844646988 ,32,0123741688492
8.4516527 ,Left ,58,7188591663797 ,44,3668148830657 ,32,016300065674
8.4742455 ,Left ,58,7185519170149 ,44,3641365550936 ,32,0153635622685
8.4892914 ,Left ,58,7111066304888 ,44,3725547884168 ,32,0141174711474
8.5043473 ,Left ,58,6932829252868 ,44,3795140056558 ,32,0111199290177
8.5266002 ,Left ,58,6915340028413 ,44,3785456822808 ,32,0113715888446
8.5418739 ,Left ,58,6967199692862 ,44,3688864086236 ,32,0153637912804
8.5644056 ,Left ,58,6973877177969 ,44,3660310981061 ,32,0187252878403
8.5867134 ,Left ,58,6928862154349 ,44,3638947059876 ,32,0288476578451
8.6090781 ,Left ,58,7005203249586 ,44,3641744821694 ,32,0404505430328
8.6242816 ,Left ,58,7253022895696 ,44,3692742318388 ,32,0409265004594
8.6467341 ,Left ,58,7550373507691 ,44,3745868563458 ,32,0396936643075
8.6690129 ,Left ,58,7548420941539 ,44,3769825689093 ,32,0431080339438
8.6843473 ,Left ,58,7313465743243 ,44,3643647491622 ,32,0463535532611
8.7062808 ,Left ,58,7068062133667 ,44,3393549298626 ,32,0500410254965
8.7288809 ,Left ,58,6913251089482 ,44,3307965788797 ,32,0426599708392
8.7438148 ,Left ,58,7175166694493 ,44,3323790855735 ,32,0389226112978
8.7666772 ,Left ,58,7412809364703 ,44,3254270317507 ,32,0444443027724
8.7892717 ,Left ,58,7109633018943 ,44,3076053981625 ,32,05756680489
8.8044907 ,Left ,58,6852241946781 ,44,3055826843711 ,32,0680967187018
8.8340871 ,Left ,58,6837078586047 ,44,3040228580269 ,32,067937186571
8.856679 ,Left ,58,7333207472671 ,44,3041581946284 ,32,0672652859194
8.8718185 ,Left ,58,7760156149911 ,44,2921847460611 ,32,0690008767759
8.8867491 ,Left ,58,7666061302743 ,44,27155075292 ,32,08074266012
8.9090771 ,Left ,58,7372962130452 ,44,255776408321 ,32,0873022862755
8.9242325 ,Left ,58,6906194299874 ,44,2454806192456 ,32,0854981473179
8.9465419 ,Left ,58,662590212166 ,44,2364314741645 ,32,0682770788038
8.9692422 ,Left ,58,6304848260012 ,44,2318926647114 ,32,0541956156324
8.984128 ,Left ,58,605546706461 ,44,2328250171979 ,32,0631984042551
9.0063798 ,Left ,58,6093259600045 ,44,228515376689 ,32,0743786158842
9.0288041 ,Left ,58,651515209017 ,44,209904212423 ,32,0831547186934
9.0437724 ,Left ,58,7376254785639 ,44,1938643690973 ,32,0821239820095
9.074462 ,Left ,58,7635985783956 ,44,192727669114 ,32,0772763579311
9.096461 ,Left ,58,762505273967 ,44,193548939547 ,32,0991525289001
9.1116632 ,Left ,58,7468526778941 ,44,2028861672303 ,32,1058657805698
9.1265347 ,Left ,58,6786194172311 ,44,2108982111807 ,32,0975349753095
9.1490713 ,Left ,58,6240055764959 ,44,2259207804086 ,32,0847790859642
9.1638805 ,Left ,58,5979911952698 ,44,2591769824945 ,32,0758998243003
9.1863241 ,Left ,58,6483927227658 ,44,2551756298828 ,32,0874753247201
9.2088204 ,Left ,58,7236304070727 ,44,2736982340235 ,32,0918053434065
9.2240397 ,Left ,58,7344492930368 ,44,3122519085082 ,32,0958001424733
9.2464015 ,Left ,58,7104355489508 ,44,3580784134715 ,32,1122926179793
9.2692096 ,Left ,58,7338596905108 ,44,3930103918327 ,32,1339382113307
9.2840102 ,Left ,58,7624321636294 ,44,4245981960523 ,32,1550441715367
9.3064685 ,Left ,58,7971451746815 ,44,4165149707372 ,32,18446690169
9.3289239 ,Left ,58,8224917594507 ,44,4074432424496 ,32,2239263656462
9.344206 ,Left ,58,7888963985174 ,44,4192433423434 ,32,2588086111789
9.3665793 ,Left ,58,7610768492061 ,44,4204961035703 ,32,2687544330123
9.3891569 ,Left ,58,7875998670093 ,44,3853797209243 ,32,2579183288738
9.4039735 ,Left ,58,7715172083569 ,44,3527273313873 ,32,2651075083493
9.4265284 ,Left ,58,7486542428482 ,44,3336525889907 ,32,2515793873386
9.4491013 ,Left ,58,6775167789264 ,44,358609843577 ,32,2410847244295
9.4715394 ,Left ,58,6501635321411 ,44,3836995870781 ,32,231815676473
9.4865954 ,Left ,58,6761474265715 ,44,3942784389511 ,32,2316423835032
9.5091212 ,Left ,58,7353957473204 ,44,3861438215652 ,32,238770677804
9.5464687 ,Left ,58,7477016370346 ,44,3533042252052 ,32,224324079009
9.5689618 ,Left ,58,6795221661504 ,44,352622624708 ,32,2264472143961
9.5987321 ,Left ,58,7862583587214 ,44,380877608774 ,32,1957353164484
9.6214369 ,Left ,58,8432497049642 ,44,4292608886037 ,32,1288998011079
9.6663502 ,Left ,58,684867216156 ,44,5998075156741 ,32,0435104378266
9.6890904 ,Left ,58,7886174972227 ,44,582583643123 ,32,027619596884
9.7189073 ,Left ,58,8980036439522 ,44,4402885366073 ,32,0860773223406
9.7417898 ,Left ,58,8301277694215 ,44,4025977115387 ,32,1091129939005
9.7795155 ,Left ,58,6960392828877 ,44,3279229168711 ,32,1503661523294
9.8020721 ,Left ,58,7539464700418 ,44,3418400102425 ,32,1263033593969
9.8164408 ,Left ,58,8020126977237 ,44,3769532473543 ,32,0902380888513
9.839 ,Left ,58,7923388560865 ,44,4061438788469 ,32,062477444933
9.8613135 ,Left ,58,7622153859148 ,44,4161242874522 ,32,0413410404299
9.876187 ,Left ,58,715049811565 ,44,4037051936885 ,32,0388166191792
9.899525 ,Left ,58,6494336137681 ,44,3906786143375 ,32,0422695093849
9.9219123 ,Left ,58,6077994283879 ,44,4176637663479 ,32,0291204099161
9.9594334 ,Left ,58,5830000942746 ,44,5516580718545 ,31,9798902619473
9.9819492 ,Left ,58,6280651695907 ,44,4789119848822 ,32,0101632627323
10.0191623 ,Left ,58,7076963893942 ,44,4625455119288 ,32,0496390212539
10.0420024 ,Left ,58,6361741600444 ,44,5223110076598 ,32,033168232818
10.0793908 ,Left ,58,6082953465577 ,44,2874676509632 ,32,0807885963485
10.1093873 ,Left ,58,5792066696637 ,44,1749197599232 ,32,1419917499982
10.1692649 ,Left ,58,5439637230989 ,44,3049218445425 ,32,1799079042758
10.1988796 ,Left ,58,6719182659142 ,44,2552410314951 ,32,2295027645131
10.2213729 ,Left ,58,6560764746745 ,44,3198086372546 ,32,2477708708364
10.2590196 ,Left ,58,562328539609 ,44,3782120341135 ,32,2667377933776
10.2819914 ,Left ,58,6228278124024 ,44,3822859040033 ,32,2592845349902
10.3191775 ,Left ,58,655937279086 ,44,3722703898575 ,32,2161273942076
10.341841 ,Left ,58,5858435653873 ,44,3618315375412 ,32,2080129974464
10.379288 ,Left ,58,577249395319 ,44,3959906289704 ,32,1675577447303
10.4017715 ,Left ,58,6208310075873 ,44,4138495672174 ,32,1430315873784
10.4389171 ,Left ,58,6374708500943 ,44,3944544238253 ,32,1112630499355
10.4613691 ,Left ,58,6426678615688 ,44,3597952011304 ,32,1151821699938
10.4989763 ,Left ,58,6318066967 ,44,3491474321056 ,32,0913001051696
10.5216399 ,Left ,58,6518894823676 ,44,3437603274361 ,32,0776794104348
10.5588678 ,Left ,58,6648708253766 ,44,3194060656742 ,32,0591970367773
10.5813161 ,Left ,58,648970197897 ,44,3038025711507 ,32,0541343329605
10.6190775 ,Left ,58,6331547802227 ,44,300753253174 ,32,0443164754846
10.6414748 ,Left ,58,6633226031531 ,44,283764857156 ,32,0438245960392
10.6791704 ,Left ,58,695222638452 ,44,2759548088133 ,32,041534750924
10.7017696 ,Left ,58,6495735389029 ,44,2653921351084 ,32,0439272713411
10.7392089 ,Left ,58,6680571084871 ,44,2834854404727 ,32,0302659918716
10.7619189 ,Left ,58,6804977548107 ,44,2975379704624 ,32,0219268613673
10.7993962 ,Left ,58,6410865597736 ,44,3082874632381 ,32,0138944994651
10.8218689 ,Left ,58,614889364752 ,44,3048494300525 ,32,0145889051985
10.8591991 ,Left ,58,6344968559038 ,44,2906595075953 ,32,0188305227283
10.8819026 ,Left ,58,6374564356638 ,44,2905084244487 ,32,0178002267505
10.9190667 ,Left ,58,6075268385405 ,44,2760518494728 ,32,0225836338472
10.9418711 ,Left ,58,6114471157064 ,44,2757362764876 ,32,0258578687607
10.9793571 ,Left ,58,6293002543572 ,44,2795332576977 ,32,0210835813869
11.0017588 ,Left ,58,623897508207 ,44,2708204578058 ,32,0267592313307
11.0391064 ,Left ,58,6292895071758 ,44,2706053198867 ,32,031845847349
11.0617753 ,Left ,58,6453902717145 ,44,2644950978616 ,32,0380694431086
11.0989289 ,Left ,58,6266903949559 ,44,2581094768428 ,32,0490697999951
11.1215108 ,Left ,58,6266903949559 ,44,2581094768428 ,32,0490697999951
11.1587572 ,Left ,58,6102470022675 ,44,2436818746077 ,32,0634260865237
11.204091 ,Left ,58,581324938927 ,44,2394704726784 ,32,0601195588531
11.226385 ,Left ,58,6118311140031 ,44,2388416930446 ,32,0680803902029
11.2414273 ,Left ,58,6288875042451 ,44,2325427265878 ,32,0785821664686
11.2790471 ,Left ,58,5801193362715 ,44,2211178739866 ,32,1052041262519
11.3166729 ,Left ,58,6647741695921 ,44,1870963896138 ,32,0886195725683
11.3390136 ,Left ,58,7412642002599 ,44,1581527026281 ,32,0859182577482
11.3689779 ,Left ,58,7075475218185 ,44,1205088495619 ,32,0856145326721
11.3916569 ,Left ,58,6568770386301 ,44,1187461459492 ,32,0792561882446
11.4141853 ,Left ,58,6046875550428 ,44,1235986756862 ,32,0711957885201
11.4364414 ,Left ,58,5890405161822 ,44,1345763626352 ,32,0550502212926
11.4513257 ,Left ,58,6024917872937 ,44,1365914621287 ,32,0464192203298
11.481425 ,Left ,58,6018968257909 ,44,1140375177311 ,32,0567401678249
11.5039423 ,Left ,58,6108233683247 ,44,1002058340101 ,32,0976451697981
11.5187709 ,Left ,58,6397968537879 ,44,1043713485557 ,32,1007996647235
11.5566082 ,Left ,58,6674730251838 ,44,1089187867321 ,32,1139843326398
11.5717417 ,Left ,58,6603005807664 ,44,1147353383077 ,32,1305159548172
11.594209 ,Left ,58,6436972386602 ,44,1124051537262 ,32,1283670990627
11.6167614 ,Left ,58,5908190902418 ,44,1147335578439 ,32,1079427416889
11.6313007 ,Left ,58,5711477958148 ,44,1428731917196 ,32,0902639576824
11.6613783 ,Left ,58,5796802193156 ,44,1364271105765 ,32,0848392850203
11.692066 ,Left ,58,5982912084741 ,44,1371589974474 ,32,104486866539
11.7070267 ,Left ,58,6269902064918 ,44,1541408989684 ,32,1173079515504
11.7220819 ,Left ,58,6496866221909 ,44,2061511908567 ,32,1293265986827
11.7366833 ,Left ,58,7108720304007 ,44,2437178806817 ,32,1388575173563
11.7518442 ,Left ,58,7946430406926 ,44,2816626003945 ,32,1500811397597
11.7743206 ,Left ,58,829751631259 ,44,3093096542725 ,32,164858142189
11.7965527 ,Left ,58,8427899313142 ,44,3151367508192 ,32,1907540260301
11.8121172 ,Left ,58,8323833800128 ,44,3237869439143 ,32,1906413275671
11.8342431 ,Left ,58,7500110568875 ,44,3411988313021 ,32,1860455566847
11.8565921 ,Left ,58,697249303932 ,44,3528000442088 ,32,1804521624086
11.8719746 ,Left ,58,6997539462651 ,44,3541591822648 ,32,1848862477585
11.8943253 ,Left ,58,685677268063 ,44,3618065043122 ,32,1902147094666
11.9162846 ,Left ,58,6787681086392 ,44,3787576233569 ,32,1849809897811
11.9313787 ,Left ,58,6635410672263 ,44,4061458996603 ,32,1771512775063
11.9613047 ,Left ,58,6932721096681 ,44,4195514224253 ,32,1744387449056
11.9840116 ,Left ,58,7377421096942 ,44,4232116004745 ,32,1605520224444
11.998965 ,Left ,58,7340932671254 ,44,3826944577302 ,32,1534578389758
12.014183 ,Left ,58,7209385954457 ,44,3537316426346 ,32,1445714124376
12.0366451 ,Left ,58,6895594952405 ,44,3522988922976 ,32,1289696382627
12.0516657 ,Left ,58,6903599115123 ,44,3638590543056 ,32,112055930921
12.0742356 ,Left ,58,7553704912066 ,44,3584979441363 ,32,0898329733704
12.0967163 ,Left ,58,7951053177684 ,44,3370570572781 ,32,0772415984338
12.1118078 ,Left ,58,774961336628 ,44,3209882349162 ,32,0710059423415
12.1342747 ,Left ,58,6993497523507 ,44,3183895586984 ,32,0704068672676
12.1566533 ,Left ,58,6087645648887 ,44,3335240511243 ,32,0721632930346
12.1716024 ,Left ,58,5603599820608 ,44,3553771600433 ,32,0689151714321
12.1941984 ,Left ,58,509367304785 ,44,3529109468318 ,32,0783531695847
12.2167683 ,Left ,58,4627081219831 ,44,3394165336684 ,32,1103011678769
12.231661 ,Left ,58,4289816676369 ,44,3243150031392 ,32,1560069329938
12.2539102 ,Left ,58,4719125535476 ,44,3322802755082 ,32,2217762733143
12.2763882 ,Left ,58,5718839669781 ,44,3171173721768 ,32,2450764283429
12.2914416 ,Left ,58,6137305112502 ,44,2756834485038 ,32,2573066788434
12.3138887 ,Left ,58,5680762642545 ,44,2219058598326 ,32,2806847111179
12.3367277 ,Left ,58,5011637938781 ,44,191597665931 ,32,3016526341577
12.3518001 ,Left ,58,4873410437566 ,44,1566764467974 ,32,3259247003673
12.3743996 ,Left ,58,5185968270781 ,44,1232848718396 ,32,3259941559443
12.4037008 ,Left ,58,5479184728842 ,44,1155058903897 ,32,2965301006246
12.4271595 ,Left ,58,5074885456437 ,44,1466911528639 ,32,2802278875802
12.4418726 ,Left ,58,4673775856032 ,44,2033866794726 ,32,2756075599032
12.4566314 ,Left ,58,5034119976536 ,44,2441887460108 ,32,2901993310222
12.4792314 ,Left ,58,5896847542685 ,44,2654501713303 ,32,2921048495444
12.5016377 ,Left ,58,6388825138183 ,44,2829203950327 ,32,2724576056455
12.5241305 ,Left ,58,6172314163272 ,44,3007980734641 ,32,2539125729992
12.5542968 ,Left ,58,6114484539742 ,44,3365529382701 ,32,2436667852612
12.5838882 ,Left ,58,6705969768434 ,44,3102034658607 ,32,2508101781131
12.6066293 ,Left ,58,6873143064377 ,44,283231481282 ,32,2464697278879
12.6217022 ,Left ,58,6339978603227 ,44,2760220785369 ,32,2387731637538
12.6366221 ,Left ,58,6063456508499 ,44,2752258565904 ,32,2315091867245
12.6592569 ,Left ,58,627967493532 ,44,2798828775248 ,32,2211556369082
12.6817583 ,Left ,58,6627161216753 ,44,2444996105936 ,32,2285290828364
12.7041417 ,Left ,58,679779760559 ,44,2112215031048 ,32,2357253748067
12.7341043 ,Left ,58,6136780693981 ,44,2159701045346 ,32,2416991630904
12.7566433 ,Left ,58,6224193684598 ,44,1949908837173 ,32,2494438924867
12.7792275 ,Left ,58,6729601057813 ,44,1727735606276 ,32,2468143535901
12.794061 ,Left ,58,693814691567 ,44,1561888388534 ,32,2378147212106
12.8167772 ,Left ,58,6700502860722 ,44,1550608899641 ,32,2339311107106
12.8392332 ,Left ,58,6418196833997 ,44,1550835051459 ,32,2415031258783
12.8542204 ,Left ,58,6557999296338 ,44,15195652129 ,32,2470869301531
12.8764077 ,Left ,58,6829296349296 ,44,1323420076285 ,32,2535880920956
12.8988517 ,Left ,58,6985389424826 ,44,1074894826827 ,32,2619847753428
12.9141697 ,Left ,58,6886134048231 ,44,0988760979074 ,32,266911843045
12.9364027 ,Left ,58,6810955928618 ,44,1040954332069 ,32,2644244960338
12.9590191 ,Left ,58,6974424551918 ,44,1137062173146 ,32,2671305105068
12.9742176 ,Left ,58,7179423721501 ,44,1122819130134 ,32,2710647334124
12.9967542 ,Left ,58,7319982180549 ,44,1105960599128 ,32,2749425059555
13.0194965 ,Left ,58,7312552783281 ,44,1184457844975 ,32,2688260012051
13.0347247 ,Left ,58,7149350667541 ,44,1106480801048 ,32,2691236868773
13.0569103 ,Left ,58,7209928846904 ,44,0970975783263 ,32,2712448030129
13.079488 ,Left ,58,7429784813405 ,44,1011449691008 ,32,2602990591364
13.0945727 ,Left ,58,7516847802801 ,44,1188274033905 ,32,2501066114533
13.116517 ,Left ,58,751920805975 ,44,1182205755503 ,32,2496865290677
13.1389199 ,Left ,58,7487104095585 ,44,1189932240242 ,32,2511649945265
13.1538945 ,Left ,58,7487104095585 ,44,1189932240242 ,32,2511649945265
13.1764848 ,Left ,58,7592274241355 ,44,1311761593389 ,32,2451357038265
13.1990131 ,Left ,58,7577794505308 ,44,1329028641165 ,32,2463466160251
13.2139118 ,Left ,58,7736623575867 ,44,1257170433184 ,32,2543751071871
13.2364778 ,Left ,58,7994386616503 ,44,1181029475745 ,32,268085090711
13.2590136 ,Left ,58,8032151485321 ,44,1219132869697 ,32,2776950763575
13.274252 ,Left ,58,768976707916 ,44,1323740422482 ,32,2890935371476
13.2965125 ,Left ,58,7702110565334 ,44,1416032979463 ,32,2944921216074
13.3190104 ,Left ,58,791297148411 ,44,1419039989017 ,32,2942850519087
13.3415849 ,Left ,58,792090279317 ,44,1430710689662 ,32,2897634464369
13.3562965 ,Left ,58,7570224871749 ,44,1477582075436 ,32,2874615235103
13.3789132 ,Left ,58,7532649014009 ,44,1539841134878 ,32,2794087232346
13.4018965 ,Left ,58,7742019341685 ,44,1574690833027 ,32,273437388423
13.4168869 ,Left ,58,7538616162081 ,44,1575468342949 ,32,2782970728001
13.4394115 ,Left ,58,7263836981833 ,44,1587732987622 ,32,2814088123335
13.4619828 ,Left ,58,7260636936187 ,44,1560927903371 ,32,2804703394362
13.4767375 ,Left ,58,737498444986 ,44,1479641940847 ,32,2755965329757
13.4992005 ,Left ,58,7384271597912 ,44,1459595621129 ,32,2768634078599
13.5214832 ,Left ,58,737498444986 ,44,1479641940847 ,32,2755965329757
13.5365927 ,Left ,58,7357355904127 ,44,1470104969961 ,32,2758632355897
13.5591275 ,Left ,58,7227044577224 ,44,1417336951639 ,32,2760414613218
13.5814572 ,Left ,58,7227044577224 ,44,1417336951639 ,32,2760414613218
13.5968677 ,Left ,58,7173128622224 ,44,1520795163049 ,32,272592284687
13.6197394 ,Left ,58,7101709522522 ,44,1532227933694 ,32,2708503518932
13.6419743 ,Left ,58,7003503641337 ,44,1471676901569 ,32,269550370828
13.6569757 ,Left ,58,6861729797814 ,44,1362430563977 ,32,2703201567204
13.6793169 ,Left ,58,649796283042 ,44,1193294411081 ,32,2718334754712
13.7016662 ,Left ,58,619191597796 ,44,1202135873544 ,32,26414060584
13.7166477 ,Left ,58,6499802808486 ,44,1416477804742 ,32,2640401814675
13.7392807 ,Left ,58,6961259217041 ,44,1549020751367 ,32,2669382018495
13.7617623 ,Left ,58,6750963562651 ,44,1656711354097 ,32,2808064243518
13.7765811 ,Left ,58,6453865905085 ,44,1742249876683 ,32,2897369225565
13.7992816 ,Left ,58,6015226987827 ,44,1718646308287 ,32,2993913171579
13.8215425 ,Left ,58,5632620416268 ,44,1721400931423 ,32,2939428442568
13.8366567 ,Left ,58,5709759548051 ,44,1663309942281 ,32,2960876237468
13.8591465 ,Left ,58,6445815200104 ,44,1397844298566 ,32,2955182750079
13.8818944 ,Left ,58,6691647978441 ,44,1115792176681 ,32,311247230304
13.9037912 ,Left ,58,651320599188 ,44,0965369959385 ,32,3234137690045
13.9263217 ,Left ,58,5996100017374 ,44,081413129726 ,32,3264311954695
13.9566828 ,Left ,58,5297078183876 ,44,0708946632932 ,32,3046201015574
13.9862665 ,Left ,58,5267172183779 ,44,072722955696 ,32,2829756895072
14.0089251 ,Left ,58,5726472041957 ,44,054791677766 ,32,285932475812
14.0241564 ,Left ,58,5730536098451 ,44,0425833879893 ,32,3138304956196
14.0391214 ,Left ,58,5436391769536 ,44,0707012752921 ,32,3254186296573
14.061316 ,Left ,58,5432542124623 ,44,1309889035611 ,32,3343394004501
14.0764077 ,Left ,58,5826835008335 ,44,1663198167263 ,32,3364378182667
14.0991166 ,Left ,58,6370105849821 ,44,1496218337097 ,32,3463991955529
14.1214349 ,Left ,58,6170547633229 ,44,1227318948093 ,32,3593677946471
14.1363712 ,Left ,58,575841771079 ,44,1097371448592 ,32,3547723196839
14.1589347 ,Left ,58,5104382772147 ,44,1092343538687 ,32,3351482631606
14.1815058 ,Left ,58,4433637141002 ,44,114032557783 ,32,3111272314138
14.1966168 ,Left ,58,4259017704654 ,44,1223879492632 ,32,2711614239965
14.2195302 ,Left ,58,4369781246876 ,44,0829604380014 ,32,3062108019904
14.2418185 ,Left ,58,5219324582264 ,44,0864208913732 ,32,3178582415923
14.2719941 ,Left ,58,5699988169431 ,44,1443723074639 ,32,3068589184783
14.2867845 ,Left ,58,5697433070601 ,44,1738770257084 ,32,2923825033321
14.3240747 ,Left ,58,6178926503383 ,44,2275741771263 ,32,2750520732145
14.3393254 ,Left ,58,6471072177416 ,44,2456052404445 ,32,2718510966638
14.3619434 ,Left ,58,6800223674129 ,44,2391684466114 ,32,2767379306697
14.38427 ,Left ,58,6772042982902 ,44,2361902925065 ,32,283580282035
14.3993457 ,Left ,58,6419497479726 ,44,2149050528633 ,32,2829023215522
14.4216995 ,Left ,58,64823553231 ,44,2011731618101 ,32,2708822201409
14.4441121 ,Left ,58,6825591817478 ,44,1912014847877 ,32,271528653679
14.4591709 ,Left ,58,6944255424586 ,44,1586097976742 ,32,2853895499278
14.4818052 ,Left ,58,7128874373986 ,44,1467776924448 ,32,2884952798979
14.5042611 ,Left ,58,7113124894681 ,44,1516649149116 ,32,2839025718621
14.5193666 ,Left ,58,6803422478501 ,44,1584875843179 ,32,2784797032961
14.5490666 ,Left ,58,6881189663057 ,44,1709513630245 ,32,2806442552413
14.5711677 ,Left ,58,700865574803 ,44,1753517802382 ,32,2825337778547
14.5865207 ,Left ,58,6877066445009 ,44,1732289705328 ,32,2768945012287
14.6013349 ,Left ,58,6854311774005 ,44,171999123722 ,32,2796350165929
14.6237594 ,Left ,58,6882091598663 ,44,16599261943 ,32,2834585188584
14.6390487 ,Left ,58,6965573934652 ,44,1554818098333 ,32,2858811713607
14.6616798 ,Left ,58,6869064916103 ,44,1480794495236 ,32,2933730972443
14.6840485 ,Left ,58,6736404734626 ,44,1519754533977 ,32,2971283735879
14.699425 ,Left ,58,6725845400176 ,44,1653722584599 ,32,2885894279615
14.7218936 ,Left ,58,6559089497159 ,44,1695723426197 ,32,2820091259033
14.7441545 ,Left ,58,649158452818 ,44,18236557678 ,32,2704896245429
14.7594872 ,Left ,58,6117238735559 ,44,2106278265726 ,32,2636895679183
14.7817417 ,Left ,58,5095956138897 ,44,2285874148098 ,32,2753036418247
14.8042347 ,Left ,58,4532653508295 ,44,261737846712 ,32,2813162265745
14.8194132 ,Left ,58,4213046081442 ,44,3131166728826 ,32,2902396984531
14.8419857 ,Left ,58,3815744813451 ,44,3363733009536 ,32,3076049016158
14.8641838 ,Left ,58,3778966035653 ,44,3497339854345 ,32,3208492312338
14.879185 ,Left ,58,4164060244525 ,44,3739393402105 ,32,3261720198263
14.9017813 ,Left ,58,4376768215465 ,44,3898013857179 ,32,336589264577
14.9240128 ,Left ,58,4366053270068 ,44,407329069757 ,32,3341689867326
14.9390679 ,Left ,58,3499547628853 ,44,41419582131 ,32,3423344015126
14.9615454 ,Left ,58,2277090159355 ,44,396748857513 ,32,3719639712281
14.984239 ,Left ,58,1661838411694 ,44,4053100326848 ,32,4000467868858
15.0065494 ,Left ,58,2104908560491 ,44,3993108441659 ,32,3971366489778
15.0216281 ,Left ,58,2872431670809 ,44,3764842261525 ,32,393772071783
15.0441653 ,Left ,58,3414660353806 ,44,3874998868901 ,32,3983278025992
15.0667011 ,Left ,58,3841676720733 ,44,3804721972565 ,32,3953871648314
15.0816872 ,Left ,58,4465674045791 ,44,3528259678807 ,32,4085022802156
15.1041311 ,Left ,58,4696660590048 ,44,3191177709611 ,32,4255367514994
15.1191814 ,Left ,58,4832121470295 ,44,2862576132574 ,32,4483826443226
15.1413893 ,Left ,58,5237169215919 ,44,2101876706942 ,32,4667478574379
15.1639745 ,Left ,58,5388350684947 ,44,1531038675993 ,32,4890200371072
15.1865204 ,Left ,58,5500166142784 ,44,1419723743838 ,32,5042550949493
15.2016767 ,Left ,58,576976547865 ,44,1353582375108 ,32,5065299460125
15.224253 ,Left ,58,600076813657 ,44,117728697623 ,32,5128317523144
15.254498 ,Left ,58,6132663553749 ,44,0868943105174 ,32,5314315298837
15.2768525 ,Left ,58,6212074088049 ,44,1000628372898 ,32,5243568037029
15.3145517 ,Left ,58,6198222645982 ,44,1354192513464 ,32,5033540336762
15.3367209 ,Left ,58,6256332466207 ,44,144963754398 ,32,4956309737872
15.3742528 ,Left ,58,6814684355209 ,44,1266300399907 ,32,490393667761
15.3968881 ,Left ,58,6746504452876 ,44,1294718842576 ,32,4774600360811
15.4117352 ,Left ,58,6749829607299 ,44,1243506254043 ,32,4660854963776
15.4342606 ,Left ,58,6533997071813 ,44,1160584559715 ,32,4564303502531
15.4565241 ,Left ,58,6537135541796 ,44,1026771557437 ,32,4465025035304
15.4940626 ,Left ,58,6185711144931 ,44,1170802694019 ,32,4339065843868
15.5240747 ,Left ,58,6030403252242 ,44,1255147598771 ,32,4283652309584
15.5387988 ,Left ,58,6155774457737 ,44,1304704815623 ,32,4306512757634
15.5766909 ,Left ,58,628540101123 ,44,1256467337247 ,32,4289608528567
15.5917026 ,Left ,58,6358702848268 ,44,1152983425473 ,32,4271458210909
15.6137159 ,Left ,58,6325165635305 ,44,1109953036583 ,32,4242872287359
15.6439642 ,Left ,58,5979305997049 ,44,1134906480454 ,32,4256320140129
15.6816585 ,Left ,58,5915755791752 ,44,1007863395888 ,32,4206920336988
15.6968697 ,Left ,58,6115939901825 ,44,0847432635501 ,32,4192249204618
15.7348009 ,Left ,58,492102718521 ,44,1075642753018 ,32,4319046521989
15.756848 ,Left ,58,4328082114387 ,44,1465034591997 ,32,4225767454422
15.7942327 ,Left ,58,432407258675 ,44,2731001176442 ,32,4373418913621
15.8169038 ,Left ,58,4659900042054 ,44,3000874004195 ,32,438370788271
15.8543464 ,Left ,58,4221944107633 ,44,2694486497313 ,32,4673811101098
15.8769179 ,Left ,58,392672605107 ,44,2521434693117 ,32,4710232741241
15.9144503 ,Left ,58,4750740910754 ,44,1972455985498 ,32,4761037309549
15.9369052 ,Left ,58,471842734246 ,44,2029819807635 ,32,4746821105479
15.9742222 ,Left ,58,5187723526118 ,44,2096628780379 ,32,4471090476259
15.9962902 ,Left ,58,57238493062 ,44,189661026618 ,32,4445999998996
16.0340531 ,Left ,58,5802907597733 ,44,1539923720571 ,32,4214725775676
16.0563805 ,Left ,58,54617255844 ,44,1455895046733 ,32,4065836997779
16.0939339 ,Left ,58,5584504416659 ,44,1339803176701 ,32,3863155581885
16.1240731 ,Left ,58,5820267884446 ,44,1416979821267 ,32,3647783898659
16.1618022 ,Left ,58,5483809279029 ,44,1338664211273 ,32,3687897383116
16.1767781 ,Left ,58,553788665168 ,44,1335856190426 ,32,3738025800303
16.2142458 ,Left ,58,5665273060674 ,44,1594029053131 ,32,3698743780283
16.2366705 ,Left ,58,5850538800903 ,44,1733390758586 ,32,3640281203526
16.2741111 ,Left ,58,5487366049845 ,44,1879713444176 ,32,3611438636074
16.2965606 ,Left ,58,5333611853707 ,44,1932046933855 ,32,3613002209706
16.3339794 ,Left ,58,5253657890842 ,44,2045672503776 ,32,3567037793742
16.3566433 ,Left ,58,5375649261393 ,44,1926064446729 ,32,3502972659014
16.3940573 ,Left ,58,5178292203958 ,44,1700982757756 ,32,3416019660124
16.4165389 ,Left ,58,511792661513 ,44,1732213507763 ,32,3332207178033
16.4543077 ,Left ,58,5371850768521 ,44,1705396175799 ,32,3187726618999
16.4767887 ,Left ,58,5290580628033 ,44,1700227074275 ,32,3097327398276
16.5143651 ,Left ,58,5214157509484 ,44,176535304936 ,32,2983351667765
16.5366738 ,Left ,58,5512368531473 ,44,1749008382958 ,32,2968559159906
16.5820297 ,Left ,58,5742948161941 ,44,1624232575444 ,32,3004528582515
16.6044735 ,Left ,58,5760551582646 ,44,1633786318306 ,32,3001880083933
16.6343609 ,Left ,58,5292967091299 ,44,1544257540501 ,32,3106774978709
16.6567727 ,Left ,58,4999866221358 ,44,1327339215219 ,32,3079463481379
16.7018372 ,Left ,58,5043207778441 ,44,1207690142453 ,32,3042425142592
16.7542983 ,Left ,58,4249072456151 ,44,1577971101899 ,32,3432527440681
16.7768077 ,Left ,58,3881493843064 ,44,1758334483829 ,32,3275171405995
16.8137271 ,Left ,58,3411460275343 ,44,2537621190809 ,32,3514710978007
16.8438903 ,Left ,58,3410479180806 ,44,2516619185119 ,32,3623459653222
16.8814376 ,Left ,58,4002213832153 ,44,249051003566 ,32,3786700676488
16.8966148 ,Left ,58,3926123528446 ,44,2236092641007 ,32,3881964122725
16.9418541 ,Left ,58,3084395963368 ,44,1779157448414 ,32,3927383767563
16.9644084 ,Left ,58,3308752697277 ,44,1544977933608 ,32,3577705102722
16.9944133 ,Left ,58,317031032418 ,44,1235938440406 ,32,3136780973115
17.0166671 ,Left ,58,3512148351991 ,44,1023899069171 ,32,322050745748
17.0619987 ,Left ,58,3956390535158 ,44,1251581232291 ,32,312989703602
17.0769246 ,Left ,58,4034801545081 ,44,1330997722557 ,32,3225954046766
17.0916661 ,Left ,58,4562999223431 ,44,1422537548223 ,32,3219444561097
17.1065843 ,Left ,58,529673460302 ,44,1536308992876 ,32,3312684802346
17.1293406 ,Left ,58,5486382490356 ,44,1468238213985 ,32,3502081013828
17.1519674 ,Left ,58,5103245794323 ,44,141128221557 ,32,3706561850314
17.1668003 ,Left ,58,4475937438887 ,44,1632522406719 ,32,3888087774971
17.1890029 ,Left ,58,432398369919 ,44,1920154228694 ,32,3721227541408
17.2114349 ,Left ,58,4697906383563 ,44,1894673069548 ,32,3700553772472
17.2339265 ,Left ,58,5300624771651 ,44,1689360320613 ,32,3626676393733
17.2564354 ,Left ,58,5167520029329 ,44,1681048763818 ,32,3481890193779
17.2866394 ,Left ,58,4330914515425 ,44,2149608751846 ,32,3267923589941
17.3092149 ,Left ,58,445284035466 ,44,2461380774816 ,32,3131586691037
17.3315719 ,Left ,58,4967631276266 ,44,2527562059107 ,32,3074441301428
17.3467157 ,Left ,58,5427587513631 ,44,2353466530274 ,32,3225979841152
17.3695136 ,Left ,58,5455828826443 ,44,2097764398701 ,32,3353265013365
17.3912531 ,Left ,58,5051157522798 ,44,2035583801856 ,32,3492080999712
17.4138576 ,Left ,58,4879224181189 ,44,2123984270019 ,32,342125569892
17.4364256 ,Left ,58,5183704117289 ,44,2138765132653 ,32,3181452864804
17.4664395 ,Left ,58,4991229678374 ,44,189780736287 ,32,3039727919489
17.4888758 ,Left ,58,4571915288334 ,44,1886792166221 ,32,2993253235474
17.5114436 ,Left ,58,424963237736 ,44,2023482114025 ,32,2779836190565
17.5264828 ,Left ,58,3455265961869 ,44,2390398756624 ,32,269684982052
17.5491624 ,Left ,58,337315394234 ,44,2644478314916 ,32,2654881027771
17.5713484 ,Left ,58,4110542417962 ,44,2805017988822 ,32,3002680161393
17.5866291 ,Left ,58,50849236887 ,44,2791710941164 ,32,3390379422769
17.609015 ,Left ,58,5787967571221 ,44,2652318381426 ,32,3448855378462
17.6312555 ,Left ,58,606100116764 ,44,1957919281547 ,32,3489338417273
17.6463369 ,Left ,58,5624996434173 ,44,1046933110516 ,32,3691940386905
17.6689199 ,Left ,58,4781638348466 ,44,0619694672682 ,32,3892472253519
17.6916359 ,Left ,58,4241363958865 ,44,0569017702652 ,32,4270487589257
17.7067055 ,Left ,58,4972442286009 ,44,0124132222423 ,32,4269273538871
17.7292328 ,Left ,58,5098897460601 ,43,9814125253185 ,32,4480859245926
17.7517406 ,Left ,58,4599917280705 ,43,9873268715775 ,32,4933070857368
17.7668902 ,Left ,58,4339288459118 ,44,0267979808913 ,32,5428738882877
17.7892127 ,Left ,58,5056193218624 ,44,0730127046921 ,32,5727588749093
17.8116429 ,Left ,58,5399568694359 ,44,121196514905 ,32,579057976372
17.8268065 ,Left ,58,5763398772632 ,44,120960512711 ,32,5758546034114
17.8492769 ,Left ,58,6013101364087 ,44,1318144497923 ,32,5503415486668
17.8719193 ,Left ,58,5438368077591 ,44,161795856436 ,32,5254487209303
17.8867305 ,Left ,58,5138065577555 ,44,1713967598045 ,32,5137646953935
17.9093278 ,Left ,58,5391392026489 ,44,1422072394892 ,32,5080411264229
17.9317277 ,Left ,58,5889314680496 ,44,1296471967273 ,32,4884721716884
17.9467647 ,Left ,58,5680981012249 ,44,1206536824017 ,32,4713065452679
17.9692005 ,Left ,58,5063807318202 ,44,1081769845299 ,32,4505884674511
17.9917415 ,Left ,58,5107882011406 ,44,0983773721207 ,32,4360655513015
18.0068152 ,Left ,58,5753182360826 ,44,0748840567546 ,32,4281247417157
18.0295204 ,Left ,58,6023409464182 ,44,052234661129 ,32,4194404070976
18.0515837 ,Left ,58,559002511908 ,44,0442590609044 ,32,4174215443248
18.0736845 ,Left ,58,5198013279156 ,44,0492461762169 ,32,4214313504965
18.0891725 ,Left ,58,5182644214869 ,44,0476929993228 ,32,4212752882594
18.111534 ,Left ,58,5286491545112 ,44,0407923427743 ,32,4243883137158
18.1337374 ,Left ,58,5498427547782 ,44,0397320494937 ,32,4330195107008
18.1489438 ,Left ,58,5507378210383 ,44,0445012397863 ,32,4344468707166
18.1716375 ,Left ,58,5507159937031 ,44,0577086911981 ,32,4301437896825
18.1938453 ,Left ,58,5586510089839 ,44,0576851307604 ,32,427359873569
18.2091411 ,Left ,58,5685263432222 ,44,0505050555071 ,32,4329302016058
18.2392179 ,Left ,58,545659113017 ,44,0635970987965 ,32,4412366174004
18.2618008 ,Left ,58,5576709572897 ,44,0807559800672 ,32,4341023855875
18.2765347 ,Left ,58,594068830433 ,44,0806890298856 ,32,4308662823301
18.299234 ,Left ,58,6086800877406 ,44,0649439012666 ,32,4243941097414
18.3219003 ,Left ,58,5949954109428 ,44,0625883365642 ,32,4212744506596
18.3371372 ,Left ,58,5809955439101 ,44,0725629308723 ,32,4159063347462
18.3520844 ,Left ,58,5815473412461 ,44,0810797831973 ,32,4119593647478
18.3743946 ,Left ,58,59543350729 ,44,0742579908481 ,32,4115340767766
18.3894217 ,Left ,58,6105304032229 ,44,0663025005427 ,32,4103193752234
18.4120685 ,Left ,58,6013727411017 ,44,0738931419863 ,32,4094433975
18.4341927 ,Left ,58,5805847756389 ,44,08127210373 ,32,4077044228639
18.4492763 ,Left ,58,5676514078287 ,44,0728810702981 ,32,4136989293424
18.4717936 ,Left ,58,5488614179231 ,44,0531285399077 ,32,4244620678221
18.5016816 ,Left ,58,5273843700731 ,44,0250829653211 ,32,4235110193951
18.5239255 ,Left ,58,5137288372378 ,44,0008991663744 ,32,4215533308636
18.5464498 ,Left ,58,5374863853397 ,43,9972007994956 ,32,4072002840758
18.5766115 ,Left ,58,5016521179072 ,43,9822511968983 ,32,4303206260484
18.5916902 ,Left ,58,4860270494167 ,44,0031531182786 ,32,4296866061928
18.6140334 ,Left ,58,4498885152687 ,44,0286139877931 ,32,4191937375239
18.6289152 ,Left ,58,421554819444 ,44,0620707027048 ,32,3971280445059
18.651464 ,Left ,58,4354752811737 ,44,0785318005905 ,32,3938964755967
18.6742582 ,Left ,58,4294222363533 ,44,0567886777932 ,32,4110637895249
18.6891746 ,Left ,58,424753992195 ,44,0378840506912 ,32,4195820239202
18.7117311 ,Left ,58,370106014182 ,44,047501029509 ,32,4118028512005
18.7338756 ,Left ,58,274403673399 ,44,0718306533336 ,32,4070831352148
18.7489614 ,Left ,58,2366851601304 ,44,0796539610076 ,32,4204727806798
18.7717956 ,Left ,58,2861188459546 ,44,0843946717878 ,32,4170319143802
18.794017 ,Left ,58,3564923597161 ,44,1011570548225 ,32,4107588270471
18.8089629 ,Left ,58,3554755216506 ,44,1138085964236 ,32,4113089473527
18.8316784 ,Left ,58,3295388060297 ,44,093768832855 ,32,4219299972312
18.8542735 ,Left ,58,2813946469197 ,44,062185053876 ,32,4453387186804
18.8691768 ,Left ,58,2603560044493 ,44,0400750361304 ,32,4467165075381
18.8916083 ,Left ,58,2649154560981 ,44,0289150121412 ,32,4410488084319
18.9142684 ,Left ,58,2443438050455 ,44,0183834336951 ,32,4114694396173
18.929091 ,Left ,58,2183337106841 ,44,0303971611403 ,32,396886277205
18.9517961 ,Left ,58,2506457076226 ,44,0225540256619 ,32,4133163645566
18.9740759 ,Left ,58,3186796414352 ,44,0283919777136 ,32,4339337553637
18.9963313 ,Left ,58,385162080215 ,44,0511756860706 ,32,4289957890913
19.0116199 ,Left ,58,3870684394048 ,44,0610431831535 ,32,4179706947582
19.0341919 ,Left ,58,4101587239398 ,44,0649894857455 ,32,4185736949612
19.0641409 ,Left ,58,4826594644587 ,44,0948489680467 ,32,4024357444193
19.0791379 ,Left ,58,5510108511648 ,44,1203460868503 ,32,4001398779076
19.101266 ,Left ,58,5809148409346 ,44,1271860159254 ,32,4016644751902
19.116409 ,Left ,58,5483154715979 ,44,1574568870553 ,32,4057402085633
19.1315373 ,Left ,58,5055745865403 ,44,1985813110775 ,32,3986203682792
19.1543609 ,Left ,58,5155961539063 ,44,1957937051337 ,32,4010161542502
19.1762531 ,Left ,58,5432278817439 ,44,1336747284673 ,32,4241277968796
19.1912989 ,Left ,58,5789503642009 ,44,108287390783 ,32,4233025802716
19.2146685 ,Left ,58,5479707690736 ,44,1265768957738 ,32,4105183356316
19.2369021 ,Left ,58,5089835698499 ,44,1490778506041 ,32,4067617332798
19.2517468 ,Left ,58,5096447699898 ,44,1676266748948 ,32,4042373746453
19.2739673 ,Left ,58,5645460063174 ,44,1822560032459 ,32,3861137846425
19.2969792 ,Left ,58,6054775459474 ,44,1861541295555 ,32,3759077605042
19.3121167 ,Left ,58,5899417050662 ,44,1795467914797 ,32,3716503432845
19.3344762 ,Left ,58,537811608553 ,44,1660292006224 ,32,3799821834537
19.3640615 ,Left ,58,4968669600426 ,44,1471238489555 ,32,3915431931255
19.3793226 ,Left ,58,4724743792945 ,44,128616287671 ,32,4023082773257
19.4013556 ,Left ,58,4939545718522 ,44,1141678751275 ,32,4011638665907
19.4314554 ,Left ,58,5643354713813 ,44,0889248600783 ,32,3928665299248
19.4617463 ,Left ,58,5453417843972 ,44,0754441726356 ,32,3920029158936
19.4838302 ,Left ,58,4946164026745 ,44,0752126165717 ,32,3978968440984
19.4988873 ,Left ,58,475484505067 ,44,1194134949493 ,32,3767703973939
19.5139114 ,Left ,58,4846453222875 ,44,2031267793412 ,32,3421210756786
19.5364965 ,Left ,58,5029319063386 ,44,2473051483138 ,32,3477034985555
19.5513252 ,Left ,58,5568221293536 ,44,2575894651958 ,32,4032755394209
19.5741318 ,Left ,58,6346691530576 ,44,2577276117376 ,32,4210139960074
19.5966365 ,Left ,58,6888562900227 ,44,1943621971156 ,32,4365996408682
19.6116057 ,Left ,58,6197324273372 ,44,0687052130206 ,32,4733969778067
19.634007 ,Left ,58,5015002958519 ,44,0060455516045 ,32,4928982325669
19.6565627 ,Left ,58,4493544140383 ,43,9781607684576 ,32,5145683958129
19.6714727 ,Left ,58,4674522350911 ,43,9671862439741 ,32,5227358467556
19.694186 ,Left ,58,477925234259 ,44,0017106495249 ,32,5158412903426
19.7314413 ,Left ,58,4662053828004 ,44,0219132576174 ,32,5321488296684
19.7539713 ,Left ,58,4648233659425 ,44,0309647728568 ,32,5803034359675
19.7691855 ,Left ,58,4804935546324 ,44,1191014394297 ,32,580073973731
19.791735 ,Left ,58,4951256707464 ,44,2637660747476 ,32,5525012425995
19.8142626 ,Left ,58,464784037672 ,44,2926567180022 ,32,5524826182474
19.836326 ,Left ,58,4511188360847 ,44,3013247716394 ,32,5556197654909
19.8513422 ,Left ,58,4560341793334 ,44,283368404107 ,32,5612402105571
19.8742596 ,Left ,58,4764931846477 ,44,2484955120197 ,32,5599700189547
19.8965782 ,Left ,58,4671272884821 ,44,2200676682619 ,32,5526268200702
19.9113974 ,Left ,58,4815685632924 ,44,1933021793128 ,32,540028126803
19.9339806 ,Left ,58,5309159159733 ,44,1730659074377 ,32,5226171401528
19.9564635 ,Left ,58,5486743867403 ,44,1587144790978 ,32,5040594911324
19.9791286 ,Left ,58,5589438735012 ,44,1421307305486 ,32,4919778454575
19.9940562 ,Left ,58,5821853635519 ,44,1207111576277 ,32,4781943657961
20.016987 ,Left ,58,5757469370812 ,44,1051348446013 ,32,4581492622961
20.0396105 ,Left ,58,5820956010026 ,44,100334454299 ,32,4354881758318
20.0545159 ,Left ,58,5946423652792 ,44,0881330646509 ,32,4147445060786
20.0766812 ,Left ,58,59190098814 ,44,0723596207825 ,32,4120762362045
20.0992749 ,Left ,58,580387732673 ,44,0686689270182 ,32,4124266710932
20.1142432 ,Left ,58,5847243375414 ,44,071710091079 ,32,4073585888269
20.136757 ,Left ,58,5979586179892 ,44,0745404727721 ,32,4037593146984
20.1592662 ,Left ,58,5979586179892 ,44,0745404727721 ,32,4037593146984
20.1742848 ,Left ,58,5852422134838 ,44,0719794778421 ,32,4048824264115
20.1968934 ,Left ,58,5563721077191 ,44,0685842595535 ,32,4136181734592
20.2192577 ,Left ,58,5617997928883 ,44,0615168972152 ,32,4184622384432
20.2419428 ,Left ,58,5741834689434 ,44,0613900646366 ,32,4164115466204
20.264367 ,Left ,58,5919710651784 ,44,0459369575694 ,32,4206465047595
20.2942939 ,Left ,58,5848303158059 ,44,0320766519231 ,32,4202166644826
20.3166622 ,Left ,58,5496964040408 ,44,038149329836 ,32,4090645311899
20.3391029 ,Left ,58,5543944655344 ,44,0371015817611 ,32,4047664590332
20.3543476 ,Left ,58,5821525662748 ,44,030237606524 ,32,4040426258947
20.3765663 ,Left ,58,5768934643668 ,44,0141726333366 ,32,4091376349453
20.3990027 ,Left ,58,5550849397773 ,44,0078020531288 ,32,4166751627318
20.4141923 ,Left ,58,5181872970607 ,44,0158247524232 ,32,4209636261656
20.4440937 ,Left ,58,5152147283007 ,44,016008203711 ,32,4220083196673
20.466807 ,Left ,58,5386510240951 ,44,0143555821827 ,32,4249037160331
20.4813654 ,Left ,58,541992733223 ,44,0122408468204 ,32,4322153765609
20.5039279 ,Left ,58,5205582865699 ,44,0103919720412 ,32,4436495199482
20.5189223 ,Left ,58,5017362477966 ,43,9906460049167 ,32,4544379016443
20.5340754 ,Left ,58,5136390755625 ,43,9724120001487 ,32,4665786658038
20.5565982 ,Left ,58,5019723217973 ,43,9597597056056 ,32,4776339858077
20.5791378 ,Left ,58,4522952885113 ,43,9438279001688 ,32,4888766573541
20.5939948 ,Left ,58,4345222970003 ,43,944257530893 ,32,4859533876943
20.6164806 ,Left ,58,4671285048825 ,43,9632274165836 ,32,4840695283636
20.6391634 ,Left ,58,4695560273021 ,43,992486476014 ,32,4966191029834
20.6539252 ,Left ,58,4309397489758 ,44,0275165426127 ,32,509171434513
20.6766009 ,Left ,58,3810807066274 ,44,0496546825608 ,32,5183959470922
20.6991096 ,Left ,58,3454863448771 ,44,0653274204845 ,32,5037340900947
20.714296 ,Left ,58,3057084451449 ,44,0925525173685 ,32,4879914674977
20.7367652 ,Left ,58,2536752971235 ,44,1282017046827 ,32,4908378028586
20.7591205 ,Left ,58,241304488015 ,44,1506933870553 ,32,491691334348
20.7743892 ,Left ,58,343694885601 ,44,1565815428354 ,32,5010383874167
20.7966646 ,Left ,58,4654403674484 ,44,158968686162 ,32,4814448601899
20.8189184 ,Left ,58,4920177347911 ,44,1564999786139 ,32,4830252864501
20.8413707 ,Left ,58,4644987228782 ,44,1606252496948 ,32,493923823634
20.856353 ,Left ,58,4277804814996 ,44,1611218247339 ,32,4718458849487
20.8864616 ,Left ,58,3898522474775 ,44,1597065257122 ,32,4352979799696
20.9095619 ,Left ,58,3755278206962 ,44,1439946106616 ,32,4179784305022
20.9243655 ,Left ,58,3898413945187 ,44,1009345497537 ,32,4436192632668
20.9392828 ,Left ,58,4221308301245 ,44,1009458722249 ,32,4511598216505
20.9693434 ,Left ,58,4801396215461 ,44,1358488878818 ,32,4746435305395
20.9918593 ,Left ,58,5177628410582 ,44,1065331936006 ,32,5020274112195
21.0292019 ,Left ,58,5449058959753 ,44,1331286283081 ,32,5563006215097
21.0517351 ,Left ,58,583504678668 ,44,1329637544679 ,32,5732716850581
21.089114 ,Left ,58,6330081178403 ,44,0405530720945 ,32,5675777939533
21.1117791 ,Left ,58,6395126884272 ,43,9947289099294 ,32,5664358112123
21.1494308 ,Left ,58,5129841998486 ,44,0426740975195 ,32,5401061835243
21.1793553 ,Left ,58,5015513671691 ,44,0529483137246 ,32,5269512126732
21.2164961 ,Left ,58,5743768322934 ,44,0583281347777 ,32,508428589636
21.2314126 ,Left ,58,5443087738431 ,44,0547386947954 ,32,5012064617237
21.2773218 ,Left ,58,5468562401912 ,44,0471522459291 ,32,4811391409355
21.2996944 ,Left ,58,591447214837 ,44,0463947968949 ,32,4746356218387
21.3294752 ,Left ,58,5521319663125 ,44,0149760721892 ,32,4857960904336
21.351925 ,Left ,58,5189683293652 ,44,035759333907 ,32,481823387466
21.3893682 ,Left ,58,4519480763796 ,44,0751497308605 ,32,4265617750678
21.4117215 ,Left ,58,3966390625661 ,44,0955793059903 ,32,4277165954743
21.4493922 ,Left ,58,4235778021716 ,44,1255672697535 ,32,4412033717429
21.4717663 ,Left ,58,4701693573393 ,44,1325970126809 ,32,4629578872693
21.5088736 ,Left ,58,5713501769366 ,43,9477117772681 ,32,5210131003997
21.5315961 ,Left ,58,5120417065092 ,43,8752760059041 ,32,5445405475579
21.5763364 ,Left ,58,3545791630922 ,43,8628305409065 ,32,5180001689871
21.5998338 ,Left ,58,408343663769 ,43,8809105675023 ,32,5036804156448
21.629604 ,Left ,58,4891907883767 ,43,9235340521421 ,32,5475445677459
21.6518244 ,Left ,58,5194147514584 ,43,9733242421919 ,32,5628854306526
21.6891551 ,Left ,58,5026625523349 ,44,020054756051 ,32,5514451674872
21.7117645 ,Left ,58,4947576101411 ,44,0333159309562 ,32,5499046432088
21.7494338 ,Left ,58,5763472954192 ,44,0475870147735 ,32,5363195769234
21.7717224 ,Left ,58,5917044739745 ,44,0339984420926 ,32,5374852557949
21.8091013 ,Left ,58,5009095957801 ,44,0426180410922 ,32,5279531234592
21.8318796 ,Left ,58,4968204479324 ,44,0375470340926 ,32,5158502219033
21.8691195 ,Left ,58,5368786163236 ,44,021849014547 ,32,5099919478813
21.8915849 ,Left ,58,5186491563211 ,44,0124718705165 ,32,5198013656134
21.9289806 ,Left ,58,4832552419208 ,43,9857890417762 ,32,5568895198508
21.9515879 ,Left ,58,5121112764847 ,43,9837177135349 ,32,5647051527803
21.9889978 ,Left ,58,6120757792697 ,43,936162860523 ,32,5651835286035
22.0114116 ,Left ,58,6339811344021 ,43,9288895981925 ,32,5572061096739
22.0565541 ,Left ,58,5931963262204 ,43,9465284685619 ,32,5479474482194
22.1091624 ,Left ,58,6289250583197 ,43,9641334858018 ,32,5327681504701
22.1316684 ,Left ,58,6381285953695 ,43,9779938606122 ,32,5278965021567
22.1689424 ,Left ,58,5907521805245 ,43,9866900074556 ,32,5337589706952
22.1917178 ,Left ,58,5875460583264 ,43,9874900408658 ,32,5352418793827
22.2292961 ,Left ,58,6061405856385 ,43,9730895473249 ,32,5348554350449
22.2518588 ,Left ,58,582266042626 ,43,9571325517923 ,32,5324410679409
22.2891435 ,Left ,58,5521801332001 ,43,9203289391859 ,32,533692388848
22.311796 ,Left ,58,5496360007931 ,43,9239389855762 ,32,5264861107455
22.3491916 ,Left ,58,6045230939457 ,43,9479121419452 ,32,5328334067883
22.3717343 ,Left ,58,6036097077796 ,43,9499256935095 ,32,5315709897457
22.4091578 ,Left ,58,6217936895096 ,43,9256101707193 ,32,5437866215003
22.4317927 ,Left ,58,6233362617057 ,43,927165144027 ,32,5439366220019
22.4688767 ,Left ,58,6093286661641 ,43,8974958922972 ,32,551407181885
22.499178 ,Left ,58,5896593412931 ,43,8888027139173 ,32,5503333899116
22.5365935 ,Left ,58,5347259958051 ,43,9321048783928 ,32,5349183908786
22.5514569 ,Left ,58,5629516514915 ,43,9511136258647 ,32,5322582165483
22.588919 ,Left ,58,5685916720958 ,43,9462814838705 ,32,5517515146652
22.6114983 ,Left ,58,4790376008031 ,43,9574237712164 ,32,5476152446951
22.649408 ,Left ,58,3071312337469 ,44,0383214672944 ,32,5510611484554
22.6714081 ,Left ,58,3267261004441 ,44,0470764507076 ,32,5522807340433
22.7090048 ,Left ,58,4387360657912 ,44,0530477884871 ,32,5813109863407
22.7317226 ,Left ,58,4603501058571 ,44,0450271235064 ,32,601119313115
22.7690256 ,Left ,58,3713849876495 ,44,0316644000424 ,32,5801431583245
22.784133 ,Left ,58,3238194386071 ,44,0180922741251 ,32,5541633489202
22.806649 ,Left ,58,3305571732259 ,44,0225940494274 ,32,5325371837212
22.8215856 ,Left ,58,3850491897745 ,43,9959194664421 ,32,5387051466599
22.8440476 ,Left ,58,4229350297378 ,43,979532117203 ,32,5474513666499
22.8663939 ,Left ,58,4515379792333 ,43,9848936695324 ,32,5558830983776
22.8816879 ,Left ,58,4694351962302 ,44,0058776120171 ,32,552982760091
22.9042363 ,Left ,58,5028888022143 ,44,0269764117418 ,32,5587195771977
22.9267025 ,Left ,58,5650081024237 ,44,0390287394286 ,32,5649905873993
22.9419314 ,Left ,58,6331714052017 ,44,0337632089724 ,32,5928533140313
22.9642607 ,Left ,58,6403140404055 ,44,0271154598082 ,32,6110773768956
22.9867093 ,Left ,58,5822707176981 ,44,0466945425453 ,32,6084708390753
23.0021585 ,Left ,58,5763312525857 ,44,0275235522863 ,32,600980572601
23.0242778 ,Left ,58,6069165695113 ,43,9969765755386 ,32,6018867585224
23.0466665 ,Left ,58,5796334911373 ,43,9832433407005 ,32,592243479508
23.0618585 ,Left ,58,5117727234125 ,43,9917968832703 ,32,5911814329588
23.0842283 ,Left ,58,494585272744 ,44,0076070884293 ,32,5844642146626
23.1063921 ,Left ,58,5069551003732 ,44,0188204240613 ,32,5751229962606
23.121359 ,Left ,58,5418019175314 ,44,0141705934841 ,32,5565596146772
23.1442055 ,Left ,58,5645296723302 ,44,0052166857865 ,32,5545764055615
23.1664805 ,Left ,58,5561196423783 ,43,9857392852227 ,32,554805971869
23.1817573 ,Left ,58,515332036428 ,43,9893570636181 ,32,5587887097804
23.204879 ,Left ,58,5075942864868 ,44,0002066571924 ,32,5538811550957
23.2269288 ,Left ,58,5684500848956 ,44,0151644993573 ,32,53836576875
23.2418714 ,Left ,58,5833869108488 ,44,0349383414927 ,32,519810456322
23.2641963 ,Left ,58,5022652954202 ,44,1082017878039 ,32,4963073997785
23.2867192 ,Left ,58,419901491365 ,44,1871709112923 ,32,4795365931843
23.3016781 ,Left ,58,388631686512 ,44,1651776633845 ,32,5168807998871
23.3241796 ,Left ,58,4812541187474 ,44,1369308402908 ,32,5516454697224
23.3466756 ,Left ,58,5505074826157 ,44,1556483724746 ,32,5721199928952
23.3615872 ,Left ,58,5670791475289 ,44,112108052679 ,32,5779182078496
23.3843389 ,Left ,58,5794042150861 ,44,0009894595102 ,32,5734477578351
23.406614 ,Left ,58,5665350019081 ,43,8912203209564 ,32,5919988579426
23.4218244 ,Left ,58,4805262131045 ,43,8601951473891 ,32,6149257267649
23.4441151 ,Left ,58,413601397144 ,43,9089860308698 ,32,6311722643857
23.4666285 ,Left ,58,4757762824446 ,43,9245164142656 ,32,6177633579092
23.4818782 ,Left ,58,5186907988595 ,43,8766179094912 ,32,6357762997146
23.504233 ,Left ,58,4900043192528 ,43,8069280461188 ,32,7053277967525
23.5265847 ,Left ,58,5183474819134 ,43,846218403431 ,32,7451351340333
23.5416632 ,Left ,58,5275543538288 ,43,9316240146495 ,32,7696740912698
23.5641704 ,Left ,58,5116415272035 ,43,931832253383 ,32,7753102969541
23.5867382 ,Left ,58,5598844784511 ,43,9033026814315 ,32,7686083127416
23.6018579 ,Left ,58,585314737991 ,43,8889028536754 ,32,7357459513723
23.6248746 ,Left ,58,5224527642254 ,43,8972758370938 ,32,7074343961064
23.6469722 ,Left ,58,4614845887119 ,43,9093156957957 ,32,6937133428873
23.661876 ,Left ,58,4701825648357 ,43,8971331393971 ,32,690689855611
23.6841952 ,Left ,58,5055848001992 ,43,8705149424188 ,32,691566922796
23.7063457 ,Left ,58,5405922484555 ,43,8493247068706 ,32,6828193849632
23.7288767 ,Left ,58,5414630414522 ,43,83117334803 ,32,6732202437185
23.7439175 ,Left ,58,5424327560211 ,43,8213000137974 ,32,6621687097667
23.766627 ,Left ,58,5715202596402 ,43,8195147145013 ,32,6559665983902
23.7889423 ,Left ,58,5907097244101 ,43,8117590175071 ,32,648548404695
23.8042852 ,Left ,58,5798929378508 ,43,8010201594747 ,32,6459224759143
23.8269037 ,Left ,58,5571591439157 ,43,7907605427213 ,32,6430102182712
23.8569381 ,Left ,58,5354783781047 ,43,7903807706405 ,32,6458695701693
23.8719595 ,Left ,58,538163108867 ,43,7893006692386 ,32,6468391888249
23.909446 ,Left ,58,584960170096 ,43,8094292769064 ,32,6427076688008
23.9243818 ,Left ,58,5625608459978 ,43,8086467705195 ,32,6409079848117
23.9467413 ,Left ,58,5302903570311 ,43,8062603233996 ,32,6514153952908
23.9691815 ,Left ,58,5347951717749 ,43,8193759612221 ,32,6478647565629
23.9844555 ,Left ,58,5614948427642 ,43,8331357525626 ,32,6390108151941
24.006932 ,Left ,58,5736018597244 ,43,8234441864421 ,32,6357278901722
24.0295423 ,Left ,58,5485657963277 ,43,8005237145124 ,32,6427603424858
24.0442472 ,Left ,58,5336643844142 ,43,7944170366768 ,32,6433571938876
24.0669133 ,Left ,58,5312528806155 ,43,794566135327 ,32,637369110854
24.089147 ,Left ,58,5403774976659 ,43,785069597002 ,32,6351496790681
24.1042395 ,Left ,58,5723760799483 ,43,7683395206983 ,32,633647218628
24.1267403 ,Left ,58,5803879191436 ,43,7500128594 ,32,6377487834838
24.1568312 ,Left ,58,549458731104 ,43,7422471761661 ,32,6411515695168
24.1717133 ,Left ,58,4946441069484 ,43,7385816201081 ,32,6381973698536
24.1938837 ,Left ,58,4460774377786 ,43,7502554395055 ,32,6225402195619
24.2089331 ,Left ,58,4805284859861 ,43,7646021653588 ,32,6112457411574
24.224135 ,Left ,58,5180434716106 ,43,7727617587414 ,32,6150326069163
24.2466012 ,Left ,58,4870484754743 ,43,7910699221516 ,32,6236595570248
24.2691258 ,Left ,58,4578864066173 ,43,7939226865728 ,32,6419844573576
24.2841011 ,Left ,58,4708168126473 ,43,7921544615131 ,32,6343805978428
24.3066736 ,Left ,58,4603086338077 ,43,7986528558887 ,32,6196519962596
24.3288332 ,Left ,58,4545286805593 ,43,8108480261178 ,32,600743234346
24.3439252 ,Left ,58,4171422020659 ,43,8176961488772 ,32,5955372177031
24.3669912 ,Left ,58,3626889680958 ,43,8439588392553 ,32,5895056043016
24.3893071 ,Left ,58,3401786640442 ,43,8762233646553 ,32,5885907013541
24.4044478 ,Left ,58,3896409283958 ,43,8652635665029 ,32,5997595543774
24.4268882 ,Left ,58,4830141789516 ,43,8453951525991 ,32,6084555062474
24.4491201 ,Left ,58,5122257784644 ,43,8097659317796 ,32,6102402505188
24.4640811 ,Left ,58,4660724462562 ,43,7960546545274 ,32,6283323764427
24.4865723 ,Left ,58,4256270999636 ,43,7899031654171 ,32,6285216091179
24.509014 ,Left ,58,3770934114223 ,43,7814456913142 ,32,6167867737395
24.5240468 ,Left ,58,3384485687729 ,43,7675481004274 ,32,6135043681931
24.5466775 ,Left ,58,3453007307995 ,43,7588365280836 ,32,5961323154824
24.5693345 ,Left ,58,3445257725778 ,43,7564278821822 ,32,6094574432251
24.5842598 ,Left ,58,3826093841981 ,43,775037526325 ,32,6123835130973
24.6064343 ,Left ,58,4146659133509 ,43,7997639734949 ,32,6221872607314
24.6289117 ,Left ,58,4712721450397 ,43,8049489389335 ,32,6368330404434
24.644299 ,Left ,58,5181563355703 ,43,8141452549268 ,32,6517101362247
24.6669123 ,Left ,58,5663768467862 ,43,8189540610918 ,32,6715035359308
24.6888884 ,Left ,58,5939065754566 ,43,8116418930702 ,32,7054803739325
24.7113666 ,Left ,58,6109940076119 ,43,8259634416124 ,32,7235543123572
24.7263625 ,Left ,58,583531239593 ,43,846564983004 ,32,7108034401023
24.7489561 ,Left ,58,5864667117385 ,43,8445578003721 ,32,706772392832
24.7714461 ,Left ,58,6079279229614 ,43,8197300821845 ,32,7036116235945
24.7866536 ,Left ,58,6009559010146 ,43,81855649963 ,32,6985739497364
24.8089124 ,Left ,58,556745919345 ,43,8214121127424 ,32,701452198866
24.8314844 ,Left ,58,5060911248193 ,43,8332594721861 ,32,6911160227067
24.8465723 ,Left ,58,5215415893364 ,43,8510498834573 ,32,6808349605761
24.8693516 ,Left ,58,5576699311169 ,43,8511875000109 ,32,6705761048904
24.8917964 ,Left ,58,5610583867927 ,43,8411649318021 ,32,6655073968674
24.9066285 ,Left ,58,5449424055916 ,43,8408751581015 ,32,6595042934375
24.9292147 ,Left ,58,5069903509523 ,43,8400474409116 ,32,6491573679055
24.9591844 ,Left ,58,4805041221532 ,43,8352916965425 ,32,6473575578377
24.9741008 ,Left ,58,4995847146753 ,43,8353433076177 ,32,6268503457565
25.0115868 ,Left ,58,4398051750145 ,43,8578450029668 ,32,5631976199638
25.0266081 ,Left ,58,3829981436245 ,43,9039347448591 ,32,5212967850891
25.0491754 ,Left ,58,296886730092 ,43,9234659452288 ,32,5049006646686
25.0717319 ,Left ,58,3015211027238 ,43,8864687331814 ,32,5196991839882
25.0865768 ,Left ,58,4397552639121 ,43,8676098113313 ,32,5319765292674
25.1092454 ,Left ,58,5802182135237 ,43,8643538230225 ,32,5163838155428
25.1315574 ,Left ,58,6058483489851 ,43,8529771112128 ,32,5239450179724
25.1467445 ,Left ,58,5690835434265 ,43,8007495701994 ,32,5448279765503
25.1694488 ,Left ,58,5026353958026 ,43,6887576471071 ,32,5999234958953
25.1916004 ,Left ,58,4761375115571 ,43,6341746649492 ,32,6164332482071
25.2065633 ,Left ,58,4030288062463 ,43,6311703691601 ,32,625067274866
25.2291349 ,Left ,58,3727855565085 ,43,637369242298 ,32,6334915991615
25.2518305 ,Left ,58,3894822722141 ,43,6645254170237 ,32,6285136667869
25.2668438 ,Left ,58,4063010983145 ,43,6661646120515 ,32,6836794347268
25.2892489 ,Left ,58,4759833639346 ,43,6550424704157 ,32,7359886447338
25.3115948 ,Left ,58,5262286647996 ,43,7138343038869 ,32,7638761405855
25.3267495 ,Left ,58,5308872526074 ,43,7660312837543 ,32,7822261852334
25.3568277 ,Left ,58,5133536534332 ,43,7889906345635 ,32,7900873702506
25.379075 ,Left ,58,5195975756291 ,43,7926247311066 ,32,805533286514
25.3939996 ,Left ,58,5556550169953 ,43,7968508753631 ,32,8015350763721
25.416614 ,Left ,58,5615110711414 ,43,7902737106533 ,32,7829716399786
25.4316551 ,Left ,58,5149826236579 ,43,7651837494275 ,32,7758494500128
25.4468402 ,Left ,58,4620742891265 ,43,7534582517738 ,32,7690654787153
25.4691777 ,Left ,58,4734071421813 ,43,7365102822208 ,32,7609856847975
25.4914483 ,Left ,58,5455889972602 ,43,6949785846894 ,32,7498355745889
25.5063922 ,Left ,58,6026215408982 ,43,6754892953827 ,32,7360980681448
25.5289198 ,Left ,58,59552101464 ,43,6720937043008 ,32,7164026444088
25.5515006 ,Left ,58,553504764896 ,43,6681779089967 ,32,6972603838689
25.5666713 ,Left ,58,5438750924373 ,43,6612770464203 ,32,6910761572107
25.5892301 ,Left ,58,5613084312797 ,43,646046080153 ,32,6881997073163
25.6122157 ,Left ,58,5502529938749 ,43,6427142592502 ,32,6862348645948
25.6342881 ,Left ,58,5113623627752 ,43,6616418925692 ,32,6842474002539
25.6491241 ,Left ,58,4973856680619 ,43,6735917475098 ,32,6821262383532
25.6717064 ,Left ,58,5122043924578 ,43,6695787413928 ,32,6799217275039
25.7017876 ,Left ,58,5164371655689 ,43,6604001662474 ,32,6911845943643
25.7165726 ,Left ,58,5028614719113 ,43,6572554007201 ,32,7087276998695
25.7391428 ,Left ,58,4874103053595 ,43,6595137452914 ,32,7150205640784
25.7693857 ,Left ,58,5153173156973 ,43,6682118660646 ,32,7202161967237
25.7916163 ,Left ,58,5067472597876 ,43,6798187699469 ,32,7229870444727
25.8139452 ,Left ,58,4954983729334 ,43,6857204005411 ,32,7246029552662
25.8292044 ,Left ,58,4817900349115 ,43,6852906025075 ,32,7246345887158
25.8518493 ,Left ,58,4817900349115 ,43,6852906025075 ,32,7246345887158
25.8741048 ,Left ,58,4892794734178 ,43,6867508417719 ,32,7271990155801
25.8892146 ,Left ,58,5085804406174 ,43,6775858113999 ,32,7284602409515
25.9192304 ,Left ,58,5058954336052 ,43,6786738244914 ,32,7275029700225
25.9413974 ,Left ,58,4796945346087 ,43,6834727460308 ,32,7269661121684
25.9564104 ,Left ,58,4805735855477 ,43,6864293059672 ,32,7254223483386
25.9714753 ,Left ,58,5117517093488 ,43,679926267544 ,32,7211770620729
25.993853 ,Left ,58,5382557260916 ,43,6809904258952 ,32,7168586574835
26.0090919 ,Left ,58,5278167447097 ,43,6697746299956 ,32,7209576810783
26.0314925 ,Left ,58,5113268135619 ,43,655338667564 ,32,7212759131752
26.0614297 ,Left ,58,4733639814481 ,43,6495836378055 ,32,7139396173268
26.0764458 ,Left ,58,4543899783844 ,43,6465653837046 ,32,6939253813783
26.098964 ,Left ,58,4784888156002 ,43,6546075633579 ,32,6838264568101
26.1142119 ,Left ,58,4651770037836 ,43,67013309194 ,32,6805734779305
26.1292109 ,Left ,58,4186361804681 ,43,6688881713242 ,32,696638814554
26.1515154 ,Left ,58,4460707210178 ,43,673434718114 ,32,7025688314992
26.1816593 ,Left ,58,4573819443669 ,43,6662065461105 ,32,7097250591813
26.1964403 ,Left ,58,458329826101 ,43,6678235445969 ,32,7169313607251
26.2266096 ,Left ,58,4703020177171 ,43,6641643292087 ,32,7229657950544
26.241423 ,Left ,58,4711316415722 ,43,6488623313872 ,32,7284358253449
26.2564028 ,Left ,58,3945021905637 ,43,6248745388124 ,32,732567298123
26.2789513 ,Left ,58,3324873338406 ,43,6318745043984 ,32,7105974138971
26.2942123 ,Left ,58,3361175418338 ,43,6560778636126 ,32,6837534838162
26.3091268 ,Left ,58,3818251228198 ,43,6694845910276 ,32,668031967786
26.3316584 ,Left ,58,4567454867189 ,43,6738269688686 ,32,6709635797606
26.3541173 ,Left ,58,5157774149706 ,43,6646610009424 ,32,6791446575787
26.3689201 ,Left ,58,5357152377007 ,43,6544184158268 ,32,6866393048827
26.391719 ,Left ,58,5139832704179 ,43,6376098384201 ,32,699555760822
26.4143749 ,Left ,58,4808961498786 ,43,6408700282984 ,32,6894307892476
26.4293142 ,Left ,58,4236474891455 ,43,6783243160644 ,32,651941375212
26.4519894 ,Left ,58,4138784008399 ,43,7248407527696 ,32,6219679481339
26.4742274 ,Left ,58,4492811719551 ,43,7408268019234 ,32,6178886166552
26.4893395 ,Left ,58,4352038041027 ,43,7770235504337 ,32,6179272189646
26.5117863 ,Left ,58,463180705549 ,43,8295318300169 ,32,6210104600176
26.5343489 ,Left ,58,4785801006253 ,43,8338693555257 ,32,6359182990271
26.5493081 ,Left ,58,463358820524 ,43,7970002210329 ,32,6737707572527
26.5718229 ,Left ,58,481673056886 ,43,7831920923293 ,32,6992119148553
26.594212 ,Left ,58,4914298441239 ,43,7887538115313 ,32,7141433955506
26.6162967 ,Left ,58,5375454070703 ,43,7898558533305 ,32,7332321118397
26.631681 ,Left ,58,534115694301 ,43,7934128173156 ,32,7426994571604
26.6540239 ,Left ,58,5493125073939 ,43,7888970338632 ,32,7218225139908
26.6916191 ,Left ,58,5084377416515 ,43,7588145853199 ,32,7340321016471
26.7066658 ,Left ,58,4540139477639 ,43,7811913806324 ,32,7220903317125
26.7440802 ,Left ,58,4346528685597 ,43,8014814771491 ,32,6808283635096
26.7665793 ,Left ,58,4504211334618 ,43,7990057558296 ,32,6604561532696
26.8117277 ,Left ,58,3962368413183 ,43,7578231699696 ,32,6777869989309
26.8414366 ,Left ,58,3563426432805 ,43,7681697945555 ,32,6863238924112
26.8715934 ,Left ,58,4305129069368 ,43,781343095174 ,32,670064485435
26.8865707 ,Left ,58,4420075548338 ,43,7977152775596 ,32,6536146376403
26.9239049 ,Left ,58,2539808759845 ,43,8571078820086 ,32,6436952803153
26.9464987 ,Left ,58,164944878458 ,43,8938891848442 ,32,6393131436468
26.9842935 ,Left ,58,4088118553211 ,43,8736991562554 ,32,6497833639369
27.0065111 ,Left ,58,4876727699434 ,43,82910786243 ,32,6518500828096
27.0438926 ,Left ,58,3720886842499 ,43,677598670737 ,32,7070181114932
27.0670355 ,Left ,58,3154654083169 ,43,6352290406102 ,32,7272518402939
27.1041171 ,Left ,58,3618288625189 ,43,6067574685604 ,32,7255561014897
27.1342729 ,Left ,58,3474588332362 ,43,6090308258861 ,32,7432100207175
27.1867768 ,Left ,58,3394354636947 ,43,7604235598343 ,32,8354154248427
27.2242782 ,Left ,58,3696681810935 ,43,7623314272294 ,32,8257118014556
27.2467611 ,Left ,58,3340607570275 ,43,7606084612019 ,32,8050902463131
27.2838567 ,Left ,58,2954524559328 ,43,7220005869823 ,32,7993718743213
27.3139296 ,Left ,58,3294288775984 ,43,7283374646227 ,32,7828488512357
27.3666962 ,Left ,58,3645553304364 ,43,7494261685914 ,32,7437449628091
27.4039477 ,Left ,58,3936984479368 ,43,7057515965286 ,32,7332910430183
27.4265779 ,Left ,58,3827011498779 ,43,6830433082854 ,32,7262126884435
27.4648182 ,Left ,58,3636523481371 ,43,6726376006327 ,32,6942397246014
27.4867135 ,Left ,58,3511332985978 ,43,6791305723729 ,32,6848185762433
27.5243558 ,Left ,58,3961879096112 ,43,6694051032421 ,32,6860767530559
27.5466956 ,Left ,58,4137507984629 ,43,672622424629 ,32,6834545934066
27.5841516 ,Left ,58,4299184076888 ,43,6812457886005 ,32,6880048849112
27.6064752 ,Left ,58,428140122982 ,43,6803073929349 ,32,6882941982665
27.6514703 ,Left ,58,4142059720814 ,43,6854423116119 ,32,6859209523094
27.6740552 ,Left ,58,4156443377676 ,43,6836805201547 ,32,6847006948158
27.7044434 ,Left ,58,3817664955457 ,43,6779348122616 ,32,6921235610596
27.7268764 ,Left ,58,378552376347 ,43,6787583078332 ,32,6936304117312
27.7638459 ,Left ,58,3980927138245 ,43,6609089805018 ,32,7031527929346
27.7864017 ,Left ,58,3894781910438 ,43,6474779764202 ,32,7127661479595
27.8238989 ,Left ,58,3723444094768 ,43,6226264807218 ,32,7140337812866
27.8465353 ,Left ,58,3573124559852 ,43,6063792064455 ,32,7131318873056
27.884158 ,Left ,58,3164073398249 ,43,5761901619426 ,32,7254423801985
27.9066284 ,Left ,58,3223373751514 ,43,5661773478799 ,32,7335089462822
27.9443586 ,Left ,58,3717833677183 ,43,5510759120262 ,32,759007982544
27.9667794 ,Left ,58,4038933782509 ,43,5443609571999 ,32,7589301081025
28.0042216 ,Left ,58,3799105926551 ,43,5456779006328 ,32,726205409972
28.0266518 ,Left ,58,3571314119025 ,43,5938941543084 ,32,6968593327284
28.0639572 ,Left ,58,4399689803496 ,43,6138353937113 ,32,6959365050444
28.0866485 ,Left ,58,4764503795726 ,43,6097052312798 ,32,6790217723569
28.1239542 ,Left ,58,4096242962776 ,43,5827872137067 ,32,6740151058349
28.1464998 ,Left ,58,3995858713115 ,43,5784104539053 ,32,6968023267642
28.1839099 ,Left ,58,4167194808209 ,43,5218026566807 ,32,6712990159201
28.2063671 ,Left ,58,3354520683432 ,43,5223342804944 ,32,6448728577003
28.2439682 ,Left ,58,2842512210655 ,43,5198145197877 ,32,6295790550819
28.2667287 ,Left ,58,2993992268726 ,43,5159865768182 ,32,6459467780463
28.3039152 ,Left ,58,3586099580394 ,43,5820653957053 ,32,6361666944147
28.3265585 ,Left ,58,3360214826041 ,43,6031808321089 ,32,621929897862
28.3643016 ,Left ,58,331093564111 ,43,6413413918334 ,32,6125349321942
28.3867748 ,Left ,58,3234620581269 ,43,6604935673036 ,32,6062357940868
28.4241828 ,Left ,58,3554912071957 ,43,6558102364259 ,32,6093895686245
28.4465951 ,Left ,58,3961926829276 ,43,6400423604222 ,32,6215435489079
28.4915263 ,Left ,58,4443114555835 ,43,5790650408763 ,32,648595787638
28.5065919 ,Left ,58,470718844352 ,43,5604198302323 ,32,6528276398726
28.5293153 ,Left ,58,4948986637381 ,43,5488770846657 ,32,6583802701001
28.5443749 ,Left ,58,5223385416783 ,43,5328598121941 ,32,6563515953165
28.5596256 ,Left ,58,54669524249 ,43,5118695546481 ,32,650980353869
28.5821276 ,Left ,58,5404249270878 ,43,5106224489411 ,32,6388619139694
28.5969728 ,Left ,58,4852357701914 ,43,5294924432792 ,32,6357964588738
28.619497 ,Left ,58,4515687380603 ,43,5446763568311 ,32,637409527684
28.6419362 ,Left ,58,4423194298312 ,43,560505483017 ,32,6281583655575
28.6571882 ,Left ,58,4341266294714 ,43,598228894252 ,32,6292846381621
28.6868627 ,Left ,58,4872311507811 ,43,6197713032571 ,32,6371775776523
28.7090884 ,Left ,58,4791649088895 ,43,6347182063705 ,32,6598271803629
28.7239291 ,Left ,58,4983102798709 ,43,6585434185879 ,32,6666549606287
28.7614223 ,Left ,58,4422366821812 ,43,703524786434 ,32,685147747677
28.7767039 ,Left ,58,4611324998254 ,43,7292916299121 ,32,6836180482814
28.79933 ,Left ,58,4844846194935 ,43,7316901654373 ,32,6926214162471
28.821892 ,Left ,58,4684677247815 ,43,7204163319446 ,32,7055748381474
28.8366617 ,Left ,58,432624242372 ,43,706807579991 ,32,7059832530883
28.8592816 ,Left ,58,4424119961473 ,43,6958878271375 ,32,705465821297
28.8818511 ,Left ,58,4591331349894 ,43,6867311717268 ,32,693650846319
28.8966896 ,Left ,58,4708709143998 ,43,6774653191998 ,32,6836192560781
28.9192225 ,Left ,58,4702921419745 ,43,6735720706433 ,32,6801391503636
28.9416335 ,Left ,58,442847589633 ,43,6758110524709 ,32,6743914025026
28.9567274 ,Left ,58,4285895348716 ,43,6800659110971 ,32,6740728238097
28.9789216 ,Left ,58,4544864678502 ,43,6859034778557 ,32,6695012066745
29.0015036 ,Left ,58,4754771706809 ,43,6858580943059 ,32,6619372362756
29.0165896 ,Left ,58,4627478436537 ,43,6898561385277 ,32,6587952835497
29.0392199 ,Left ,58,4390250432954 ,43,7009171881991 ,32,6597670126573
29.0619954 ,Left ,58,4390250432954 ,43,7009171881991 ,32,6597670126573
29.0767502 ,Left ,58,4502843968663 ,43,6968668387172 ,32,6611695546377
29.09943 ,Left ,58,4761779620187 ,43,7027096661077 ,32,6566021892043
29.1219041 ,Left ,58,4731865193187 ,43,7125380098509 ,32,647487363382
29.1368271 ,Left ,58,4463236154122 ,43,7100308599727 ,32,6420176909583
29.159457 ,Left ,58,4480603946449 ,43,7073274657051 ,32,6357686474335
29.1820011 ,Left ,58,4889672306303 ,43,6999760649758 ,32,625447571125
29.1968808 ,Left ,58,507615605148 ,43,6951247281767 ,32,6146729876716
29.219313 ,Left ,58,4882880868894 ,43,7023919919159 ,32,6103919980298
29.2495609 ,Left ,58,4606261713282 ,43,7138056548512 ,32,6082051427179
29.2644461 ,Left ,58,4632528059232 ,43,7158824615328 ,32,6033889566126
29.2867249 ,Left ,58,4921835325574 ,43,7218029119145 ,32,5767966144057
29.3013348 ,Left ,58,4649599779502 ,43,742551425199 ,32,5501094776592
29.3163765 ,Left ,58,4278196631836 ,43,7455901886739 ,32,5503594235002
29.3391903 ,Left ,58,4388088066017 ,43,7438497840448 ,32,576213225777
29.3616989 ,Left ,58,5111590362455 ,43,7582057007154 ,32,5886511109198
29.384338 ,Left ,58,5372975476963 ,43,7584976328924 ,32,5864756835746
29.399592 ,Left ,58,5238478079081 ,43,7172787120244 ,32,594078725543
29.4220526 ,Left ,58,4818204554168 ,43,6730501798278 ,32,6082903227217
29.4444758 ,Left ,58,4396212846701 ,43,6395639008875 ,32,6245397834417
29.4589366 ,Left ,58,4017563681344 ,43,5848791049529 ,32,6589256728794
29.4889823 ,Left ,58,3622271154899 ,43,5464117810963 ,32,7025675234554
29.5117374 ,Left ,58,3486288234632 ,43,538876781466 ,32,7347247859603
29.5265458 ,Left ,58,3308908549355 ,43,5441551200685 ,32,7615124390766
29.5419388 ,Left ,58,3479003134404 ,43,5701569269607 ,32,7723948443972
29.5642921 ,Left ,58,3980376111488 ,43,6142577622687 ,32,7805974229211
29.5793907 ,Left ,58,4331104024053 ,43,6742451937269 ,32,777071331353
29.6019948 ,Left ,58,4292417580689 ,43,7365669043005 ,32,7741866550957
29.6243458 ,Left ,58,4048685869127 ,43,7548576256315 ,32,7781288496045
29.6394083 ,Left ,58,3948909088187 ,43,7568009306037 ,32,7892154586795
29.6613851 ,Left ,58,4157088350742 ,43,7559726991771 ,32,7909030517569
29.6838557 ,Left ,58,4322767471948 ,43,7136209130192 ,32,7947023048289
29.6989379 ,Left ,58,4318740739339 ,43,6701703913375 ,32,8015341571461
29.7215167 ,Left ,58,3948463339223 ,43,6642709707495 ,32,7983818956826
29.7439682 ,Left ,58,3897182842847 ,43,6608496727958 ,32,7988211356881
29.7593796 ,Left ,58,4478067466386 ,43,6569171456192 ,32,7791296752764
29.7965608 ,Left ,58,4812389921473 ,43,6411344147974 ,32,7659803784664
29.8190559 ,Left ,58,4680955750542 ,43,6310179271027 ,32,7691422264462
29.834272 ,Left ,58,4326860744188 ,43,6321116594335 ,32,7751074119628
29.8493252 ,Left ,58,4214503804474 ,43,6380289791978 ,32,7767131261382
29.871472 ,Left ,58,4333217834979 ,43,645648393046 ,32,768396297511
29.886477 ,Left ,58,4619166751037 ,43,6485052120461 ,32,761761119791
29.9091244 ,Left ,58,4880783393218 ,43,6468478766868 ,32,7565064655027
29.9238929 ,Left ,58,50255911717 ,43,6547462709455 ,32,7404096923806
29.939263 ,Left ,58,4849143227444 ,43,669369217925 ,32,7243627494543
29.9616738 ,Left ,58,473007352369 ,43,6795178779243 ,32,7139323591937
29.9841671 ,Left ,58,4541611952101 ,43,673827354687 ,32,7114162962856
29.9991735 ,Left ,58,4431188041639 ,43,6704820327996 ,32,709424918152
30.0216225 ,Left ,58,4171639818103 ,43,6610279815838 ,32,7080601967077
30.0440552 ,Left ,58,4166254852271 ,43,6607737690884 ,32,7105408510195
30.0592173 ,Left ,58,4126472272782 ,43,6497223638467 ,32,7146045555239
30.0893473 ,Left ,58,4108677658218 ,43,6487849879895 ,32,7148954460251
30.1113917 ,Left ,58,4108677658218 ,43,6487849879895 ,32,7148954460251
30.1264075 ,Left ,58,4108677658218 ,43,6487849879895 ,32,7148954460251
30.1414777 ,Left ,58,4067497199693 ,43,6516297308812 ,32,7151505350671
30.163971 ,Left ,58,3880630878943 ,43,6578661564477 ,32,7171247967093
30.1790138 ,Left ,58,3747395233066 ,43,6619436984659 ,32,7210264639309
30.201852 ,Left ,58,3949831420361 ,43,6640648911684 ,32,7193742558606
30.2244801 ,Left ,58,3949831420361 ,43,6640648911684 ,32,7193742558606
30.2393171 ,Left ,58,3949831420361 ,43,6640648911684 ,32,7193742558606
30.2619203 ,Left ,58,402142247633 ,43,6646662750699 ,32,723997414916
30.2844899 ,Left ,58,419714068942 ,43,6678617466535 ,32,7213643171845
30.29945 ,Left ,58,4211519632397 ,43,6660981091695 ,32,7201427742569
30.321857 ,Left ,58,3987134222788 ,43,6729123109705 ,32,7261053980864
30.3442582 ,Left ,58,4017606385456 ,43,6763559242559 ,32,7309763396325
30.3667178 ,Left ,58,4242418447704 ,43,6663858587098 ,32,7307942065121
30.3818751 ,Left ,58,4378394992968 ,43,6585233479238 ,32,7322103723718
30.4039905 ,Left ,58,4246031965054 ,43,6641114585626 ,32,7345309911853
30.4264522 ,Left ,58,3986893702107 ,43,6583200675208 ,32,7391182539696
30.4417261 ,Left ,58,389396618217 ,43,6413160346333 ,32,7498452890605
30.4639725 ,Left ,58,4061974245371 ,43,6258204936154 ,32,7495826048249
30.486647 ,Left ,58,3929175859934 ,43,6037356454339 ,32,7482296211818
30.5017177 ,Left ,58,3507595136554 ,43,5838378793574 ,32,739400848588
30.5242985 ,Left ,58,3312341881127 ,43,5708691747501 ,32,7320446170623
30.5465643 ,Left ,58,3569581953851 ,43,5791435595972 ,32,7308454219624
30.5618043 ,Left ,58,3422018970688 ,43,5886588307782 ,32,7419600871533
30.5838658 ,Left ,58,3123845300207 ,43,6122359146862 ,32,7382572859893
30.6064504 ,Left ,58,2426027765437 ,43,6555472394017 ,32,7256220158695
30.628946 ,Left ,58,1949264708298 ,43,7337838493535 ,32,7205557535541
30.6515288 ,Left ,58,2251577725214 ,43,7835502627824 ,32,7284331663983
30.6739708 ,Left ,58,2923309224243 ,43,806918049587 ,32,7463805081822
30.6890367 ,Left ,58,3456003141396 ,43,8190861536076 ,32,7509975997872
30.7040339 ,Left ,58,3618424610215 ,43,7777691168069 ,32,7600365198611
30.7266756 ,Left ,58,339830261307 ,43,7553944408813 ,32,7569048803715
30.7419429 ,Left ,58,2767554151472 ,43,7455094473515 ,32,7496821930079
30.7641369 ,Left ,58,2522463584653 ,43,745104454532 ,32,7279728052311
30.7867208 ,Left ,58,2228637817142 ,43,7658153605662 ,32,6949318022654
30.8093529 ,Left ,58,2394561502173 ,43,7480781961536 ,32,6592753195624
30.8315847 ,Left ,58,2448630776661 ,43,7058525959685 ,32,6810719927442
30.8542624 ,Left ,58,2773195343168 ,43,7139526254614 ,32,6867432947651
30.8694405 ,Left ,58,2913524970428 ,43,751934462573 ,32,6959485877919
30.8843445 ,Left ,58,3035678979132 ,43,7735230565474 ,32,7022222322786
30.9062591 ,Left ,58,3363270736799 ,43,7778095178077 ,32,7132520574983
30.9216767 ,Left ,58,3790978787066 ,43,7605904971941 ,32,7290467896677
30.9448913 ,Left ,58,4266217175108 ,43,737783295856 ,32,72688138977
30.9669915 ,Left ,58,4052765182928 ,43,718758535392 ,32,7435177924357
30.9821759 ,Left ,58,3755601549183 ,43,7070874402602 ,32,7564608454429
31.0041893 ,Left ,58,3877191380112 ,43,7155764588843 ,32,746121099238
31.0265675 ,Left ,58,4157158019366 ,43,7087950830784 ,32,7313654062949
31.0416248 ,Left ,58,4720163082733 ,43,6912437018645 ,32,7279842078818
31.0640653 ,Left ,58,5150271684916 ,43,669137313067 ,32,7252331396007
31.086571 ,Left ,58,4656430470695 ,43,6735491785897 ,32,7258850693113
31.1093659 ,Left ,58,4105193926814 ,43,7066923201369 ,32,7230451805343
31.1318865 ,Left ,58,3961154965577 ,43,734779095586 ,32,7132145239628
31.1616973 ,Left ,58,5346105049601 ,43,7149098476487 ,32,7126425362962
31.1842135 ,Left ,58,5157514412706 ,43,7024508492274 ,32,7099524256467
31.2067099 ,Left ,58,4680279433216 ,43,7026326894734 ,32,7059077681627
31.2218081 ,Left ,58,4172868572086 ,43,7155348361684 ,32,7077877620918
31.2442443 ,Left ,58,4301208126623 ,43,7294402104422 ,32,6993063512052
31.2669291 ,Left ,58,4715799852751 ,43,7355387062031 ,32,6823252243171
31.2893212 ,Left ,58,4679051458712 ,43,7235539511993 ,32,681364818167
31.3043372 ,Left ,58,4081413145034 ,43,7197815325558 ,32,6801355023752
31.3268524 ,Left ,58,3459375452955 ,43,7503121696584 ,32,6693590232284
31.3492789 ,Left ,58,3049023672359 ,43,8003697678558 ,32,642094626714
31.3644848 ,Left ,58,2479053304359 ,43,8402425911614 ,32,6396622766335
31.3867974 ,Left ,58,2251223620321 ,43,8341568759679 ,32,642962055716
31.4094283 ,Left ,58,2469060938176 ,43,8387725377203 ,32,6789459074658
31.4243922 ,Left ,58,3357983879178 ,43,8552028739725 ,32,6937934472875
31.446632 ,Left ,58,3595969068721 ,43,8774025097454 ,32,6845383248866
31.4695593 ,Left ,58,3333597743444 ,43,8070813259511 ,32,6881150418838
31.4845655 ,Left ,58,2832248110452 ,43,717463179245 ,32,7161008315435
31.5068943 ,Left ,58,2273929362972 ,43,6891785356929 ,32,7412104441175
31.5288979 ,Left ,58,1464886635643 ,43,718158391713 ,32,7546768715348
31.5516399 ,Left ,58,1770686962503 ,43,7521360892894 ,32,7451610379222
31.5745279 ,Left ,58,2350884001265 ,43,7611181222755 ,32,7676533775781
31.6047948 ,Left ,58,3135164962265 ,43,8739225418059 ,32,8243697680128
31.6269549 ,Left ,58,3459936357569 ,43,9276318796663 ,32,8331739803513
31.6488766 ,Left ,58,3128624593458 ,43,9336954943035 ,32,8305228504739
31.6641958 ,Left ,58,2854465816861 ,43,9292136037398 ,32,824382232905
31.6864529 ,Left ,58,2618158083221 ,43,9099567385678 ,32,8137280426355
31.7089672 ,Left ,58,2715122733567 ,43,8691910001211 ,32,8139208541011
31.7242666 ,Left ,58,2911924443962 ,43,8492466138181 ,32,8066569066425
31.7540515 ,Left ,58,264103902555 ,43,8505417861467 ,32,7956451469256
31.7766707 ,Left ,58,269427624531 ,43,8503585929808 ,32,7797196918379
31.7916303 ,Left ,58,317576999196 ,43,8332830377841 ,32,7660749366681
31.806568 ,Left ,58,3522738660187 ,43,7744936734323 ,32,7597619079198
31.8290752 ,Left ,58,3504012806598 ,43,7135061876347 ,32,7629688344377
31.8444596 ,Left ,58,3051340019589 ,43,6949841116741 ,32,7672676267512
31.8670096 ,Left ,58,2634191596365 ,43,7008177178554 ,32,7701607407624
31.8895927 ,Left ,58,2993463979128 ,43,6830219648457 ,32,7716576225647
31.9046054 ,Left ,58,3868483391655 ,43,6559697836308 ,32,7772485235914
31.9271328 ,Left ,58,4084373735183 ,43,6430111967142 ,32,7786027558294
31.9494451 ,Left ,58,3623365509207 ,43,6466130022598 ,32,777647428473
31.9644704 ,Left ,58,3267195039834 ,43,6496196705925 ,32,7751661235096
31.9867602 ,Left ,58,374901563818 ,43,6384308659448 ,32,7631368687372
32.0095389 ,Left ,58,4053358767662 ,43,6246882037705 ,32,7541052377412
32.02427 ,Left ,58,4346493602315 ,43,6235509862646 ,32,7386023966846
32.0463563 ,Left ,58,42368617796 ,43,6266931563746 ,32,7322183646272
32.0692627 ,Left ,58,4048051861038 ,43,6241440022915 ,32,723930021638
32.084046 ,Left ,58,4200088143977 ,43,6342780439906 ,32,7154635622973
32.1066466 ,Left ,58,4185683800588 ,43,6360429108861 ,32,7166886376883
32.1292164 ,Left ,58,413652944014 ,43,6233583345272 ,32,7135365422781
32.144298 ,Left ,58,4157713209095 ,43,6269985899932 ,32,7141789885449
32.1668307 ,Left ,58,4312542655159 ,43,6283826676524 ,32,7138571123534
32.1890792 ,Left ,58,4277506518248 ,43,6251766391357 ,32,7231983659527
32.204386 ,Left ,58,433770654552 ,43,6333901079029 ,32,7241907083661
32.2268305 ,Left ,58,4179852612874 ,43,632955208554 ,32,7295333318383
32.249412 ,Left ,58,4403730704418 ,43,6387008047643 ,32,7284793741008
32.271501 ,Left ,58,4646121247932 ,43,6440331482664 ,32,7358736352788
32.2866086 ,Left ,58,4733430159109 ,43,646171691779 ,32,7406172467325
32.3090185 ,Left ,58,4735649036257 ,43,6455455600018 ,32,7401803368507
32.3315284 ,Left ,58,4788872338088 ,43,6397393496278 ,32,7361418122014
32.3463952 ,Left ,58,4788872338088 ,43,6397393496278 ,32,7361418122014
32.3615381 ,Left ,58,4684709989066 ,43,6449699986639 ,32,7302710961818
32.3993415 ,Left ,58,4607086985613 ,43,6394625959236 ,32,7355239342444
32.4219316 ,Left ,58,4702008455386 ,43,6276420269804 ,32,7369835683877
32.4669835 ,Left ,58,4829924684192 ,43,6350718516794 ,32,7328911724358
32.5193518 ,Left ,58,5201465676945 ,43,621654559921 ,32,7307771796015
32.5420057 ,Left ,58,4945220353301 ,43,6185730170691 ,32,7363867851791
32.5795399 ,Left ,58,4965319733866 ,43,6120831381349 ,32,7354606853292
32.6018666 ,Left ,58,4851789637766 ,43,6028870586033 ,32,7383270522969
32.6393144 ,Left ,58,4768257482373 ,43,5806567854731 ,32,756024394046
32.6618449 ,Left ,58,4505175658869 ,43,5653815615557 ,32,759580253323
32.6991018 ,Left ,58,3595503215493 ,43,5475501897437 ,32,7665917425753
32.7216759 ,Left ,58,330973190819 ,43,5383914741775 ,32,7848300282094
32.7667265 ,Left ,58,3344161805102 ,43,5468982737658 ,32,805333776632
32.7891806 ,Left ,58,3405838409721 ,43,5634218167744 ,32,8048625740066
32.8192307 ,Left ,58,2770414464004 ,43,6105467072992 ,32,7825673385642
32.8417883 ,Left ,58,2310070073092 ,43,6415536450887 ,32,7778189705144
32.8793779 ,Left ,58,1869861380513 ,43,7109550325222 ,32,7912283018301
32.9018413 ,Left ,58,25080625065 ,43,7407701861336 ,32,7872030427913
32.9396662 ,Left ,58,3212703519314 ,43,6890339120099 ,32,7848750960268
32.9623893 ,Left ,58,3055184950264 ,43,6642907810871 ,32,7879580863796
32.9994698 ,Left ,58,2402253574255 ,43,6471047568518 ,32,7743211481203
33.0220022 ,Left ,58,2202606799748 ,43,6502445765991 ,32,7592811316631
33.0593308 ,Left ,58,2939572988965 ,43,6521996574416 ,32,7644158944674
33.0818948 ,Left ,58,3649132594337 ,43,6499931226664 ,32,76408071681
33.1264984 ,Left ,58,3464558319263 ,43,6438604223797 ,32,7682643552635
33.1489508 ,Left ,58,3464558319263 ,43,6438604223797 ,32,7682643552635
33.179208 ,Left ,58,3714980266376 ,43,6534825719654 ,32,7653941037174
33.2017794 ,Left ,58,4046187133994 ,43,6566928842923 ,32,7712018696295
33.2391582 ,Left ,58,3944950405209 ,43,6531635845509 ,32,7734450076333
33.2618729 ,Left ,58,3934285912041 ,43,6432377274073 ,32,7676931190588
33.2995145 ,Left ,58,3996639299293 ,43,6319588349431 ,32,7380793142455
33.3218807 ,Left ,58,3844757356585 ,43,641402660937 ,32,7307248695075
33.3592536 ,Left ,58,3821024482868 ,43,6483307049337 ,32,724898492676
33.3820214 ,Left ,58,3657521186957 ,43,643989130269 ,32,7267457437398
33.4268958 ,Left ,58,3777692833619 ,43,6277794174421 ,32,727877731023
33.4494197 ,Left ,58,3951676652404 ,43,6352531145326 ,32,7316221209002
33.4791882 ,Left ,58,382754588787 ,43,6391456782551 ,32,7397752401722
33.502021 ,Left ,58,4062288690082 ,43,6404250464444 ,32,7365852739083
33.5393947 ,Left ,58,4255284418286 ,43,6458825012713 ,32,7248895306012
33.5619558 ,Left ,58,3987973314025 ,43,6553718641458 ,32,7239788749574
33.6065298 ,Left ,58,4122956644583 ,43,6582634575937 ,32,7273783243123
33.6290054 ,Left ,58,4289130593097 ,43,6520227224805 ,32,7306937608254
33.6818244 ,Left ,58,4076086153197 ,43,652760696637 ,32,7106251277429
33.7192642 ,Left ,58,3969523500153 ,43,6865615975173 ,32,7133754810862
33.7419282 ,Left ,58,4159559691914 ,43,6947956796044 ,32,7096996710639
33.7791855 ,Left ,58,4471629790471 ,43,7015962527014 ,32,7012965883217
33.8019463 ,Left ,58,4378795129387 ,43,7041565151831 ,32,6961974387317
33.8390638 ,Left ,58,425893118218 ,43,7059683723509 ,32,6871455243713
33.8614536 ,Left ,58,4274001522481 ,43,710676356962 ,32,6815074236247
33.8993191 ,Left ,58,4268391752177 ,43,7153914686885 ,32,6811758442568
33.9220477 ,Left ,58,4099452304927 ,43,7225451835723 ,32,6828209211616
33.9669007 ,Left ,58,3740504914711 ,43,7196186563873 ,32,6851251413933
33.9896136 ,Left ,58,3742389966879 ,43,7103759658124 ,32,6815678894895
34.041946 ,Left ,58,3090894982624 ,43,7053421991121 ,32,6768716682047
34.0792064 ,Left ,58,2275424509814 ,43,728557579695 ,32,6421380427623
34.1017726 ,Left ,58,1755972508823 ,43,7555452303339 ,32,6495147943352
34.1395786 ,Left ,58,1775983101055 ,43,8179912199394 ,32,7159604755151
34.1621412 ,Left ,58,1859341925712 ,43,8528972333161 ,32,7283017093413
34.199201 ,Left ,58,2243345971999 ,43,8849035878931 ,32,7131166274137
34.2145566 ,Left ,58,2544684693924 ,43,8937095185587 ,32,7037187447302
34.2443828 ,Left ,58,2547632897521 ,43,8595841387584 ,32,6977957386859
34.2593001 ,Left ,58,25858942992 ,43,8380300628613 ,32,693143515998
34.281852 ,Left ,58,2155003894788 ,43,8885989805201 ,32,6711028626947
34.2967054 ,Left ,58,1841064106537 ,43,9414607611242 ,32,6572123473346
34.3119964 ,Left ,58,2418418325379 ,43,9577036258449 ,32,6551010133555
34.333918 ,Left ,58,3258601920951 ,43,9800145727341 ,32,646198306734
34.3565622 ,Left ,58,3940454924456 ,43,9831403763017 ,32,6378376095137
34.3717118 ,Left ,58,3858371473849 ,43,9694825517185 ,32,6332648022243
34.394104 ,Left ,58,3334920611779 ,43,9419432939381 ,32,6340585831488
34.4166287 ,Left ,58,3143716660239 ,43,8909291263579 ,32,6565446448798
34.4316144 ,Left ,58,284106634075 ,43,8350473434284 ,32,6785637732693
34.454289 ,Left ,58,2260506803601 ,43,7941870415887 ,32,7136113088209
34.4767654 ,Left ,58,2045529170758 ,43,774943635288 ,32,7440458384209
34.4916854 ,Left ,58,2044908793202 ,43,7604569217012 ,32,7572051782448
34.5213983 ,Left ,58,2097907327848 ,43,7456648967096 ,32,7753134665865
34.5439476 ,Left ,58,2145117103235 ,43,7287693461515 ,32,7929354848595
34.5591911 ,Left ,58,1812565948822 ,43,7645480222964 ,32,8108682169436
34.5741033 ,Left ,58,1859093749841 ,43,8241251930838 ,32,8219397271448
34.5964683 ,Left ,58,2278641650466 ,43,8892972713964 ,32,8223096505182
34.6117277 ,Left ,58,2596471115892 ,43,907480070164 ,32,825224112004
34.6341813 ,Left ,58,2687380843996 ,43,9077289583837 ,32,838339391436
34.6568283 ,Left ,58,2804615236694 ,43,9195598881892 ,32,8363934210988
34.671697 ,Left ,58,2806606345703 ,43,8979812624798 ,32,8353261161764
34.6942488 ,Left ,58,2948567263994 ,43,8432217126833 ,32,8401231139369
34.7166868 ,Left ,58,2978510926043 ,43,8113066640649 ,32,8365226953155
34.7315538 ,Left ,58,2859790670773 ,43,8118291125975 ,32,8361476413638
34.7542747 ,Left ,58,3043361092921 ,43,8160853263414 ,32,8291132083339
34.7766601 ,Left ,58,3296115369645 ,43,8090131638617 ,32,8223267694478
34.791845 ,Left ,58,3284647862511 ,43,7941372988817 ,32,8194989670013
34.8144401 ,Left ,58,3217264261339 ,43,7823885370883 ,32,8196704053506
34.8369297 ,Left ,58,3216718619186 ,43,7755931718846 ,32,8195668599884
34.852109 ,Left ,58,3279046034833 ,43,7763745509529 ,32,8199769330374
34.8744162 ,Left ,58,3359153734272 ,43,7681519623625 ,32,8257761340202
34.8969107 ,Left ,58,3440008857525 ,43,7410921632534 ,32,8382762955087
34.9119187 ,Left ,58,3379803688567 ,43,7347315873223 ,32,8402709410063
34.9343802 ,Left ,58,3130457126838 ,43,7415590766283 ,32,8329902791389
34.9570737 ,Left ,58,2989272582693 ,43,7397553242978 ,32,8232878134525
34.9720778 ,Left ,58,3041781252442 ,43,7388927027199 ,32,8165184954707
34.9943605 ,Left ,58,3140539585909 ,43,7255029525768 ,32,812728780821
35.0169327 ,Left ,58,3154773056243 ,43,7237383881376 ,32,8115240949329
35.0318698 ,Left ,58,3157926544082 ,43,7295736370647 ,32,8066475683413
35.0544463 ,Left ,58,3076054999193 ,43,7352667580877 ,32,8070846959958
35.0768476 ,Left ,58,3270619825675 ,43,7350837890771 ,32,7978782357448
35.0990855 ,Left ,58,3479135892052 ,43,7263469966926 ,32,7873299837165
35.1142563 ,Left ,58,3453806944087 ,43,7231573317061 ,32,7799947057075
35.1368276 ,Left ,58,3361211320657 ,43,7207523526066 ,32,7776924492537
35.1591578 ,Left ,58,3467316384771 ,43,7177375661648 ,32,7728682636132
35.1742567 ,Left ,58,3516109914954 ,43,7123605850123 ,32,7621972436722
35.1966149 ,Left ,58,3618354665539 ,43,7097936782 ,32,750650627711
35.2194104 ,Left ,58,351345664433 ,43,7017292625933 ,32,7489849098158
35.2343045 ,Left ,58,3495664656744 ,43,7007927859715 ,32,7492743765573
35.2566118 ,Left ,58,3655918089487 ,43,704250708178 ,32,7494942897697
35.2789207 ,Left ,58,3638122532897 ,43,7033145505409 ,32,7497838623943
35.2940193 ,Left ,58,3623815946834 ,43,70507787459 ,32,7509961251861
35.3164972 ,Left ,58,3623815946834 ,43,70507787459 ,32,7509961251861
35.3392513 ,Left ,58,3609511730235 ,43,7068411170737 ,32,7522081067387
35.3545414 ,Left ,58,3532336020648 ,43,7031819317037 ,32,7604130897723
35.3769381 ,Left ,58,3532336020648 ,43,7031819317037 ,32,7604130897723
35.3992223 ,Left ,58,3518040556356 ,43,7049456473912 ,32,7616242636573
35.4218413 ,Left ,58,3507168353699 ,43,7143769613825 ,32,7609277796241
35.4441316 ,Left ,58,3507168353699 ,43,7143769613825 ,32,7609277796241
35.474388 ,Left ,58,3730632750944 ,43,7250770705407 ,32,7571220473562
35.4966631 ,Left ,58,3689489403496 ,43,7328898904962 ,32,7545266403791
35.5191477 ,Left ,58,3634077957526 ,43,7424628466156 ,32,7531349770946
35.5415722 ,Left ,58,3556996133319 ,43,7465721641396 ,32,748145543108
35.5639335 ,Left ,58,3612608032417 ,43,7515630354138 ,32,7364876386542
35.586515 ,Left ,58,3558263375611 ,43,755028052131 ,32,7257624561195
35.6018904 ,Left ,58,3486161028317 ,43,7575489414623 ,32,7153175548466
35.6247425 ,Left ,58,3342563186564 ,43,7516926631301 ,32,7134176525145
35.647032 ,Left ,58,3342563186564 ,43,7516926631301 ,32,7134176525145
35.661851 ,Left ,58,3298426807591 ,43,7536599988358 ,32,715678091736
35.6843354 ,Left ,58,3423085590778 ,43,750299591487 ,32,7193444736417
35.6995665 ,Left ,58,349957951978 ,43,737578383959 ,32,7212515183567
35.7142224 ,Left ,58,3395114177189 ,43,7313340801158 ,32,7225390885576
35.7369148 ,Left ,58,3152490618892 ,43,7289130487377 ,32,7301384711258
35.7593547 ,Left ,58,3137419381519 ,43,7192638716678 ,32,738626391872
35.782054 ,Left ,58,3296195924774 ,43,70268923326 ,32,743045844733
35.8041758 ,Left ,58,3169995042237 ,43,6959415532521 ,32,737911327249
35.8190246 ,Left ,58,2966548217413 ,43,7058480985436 ,32,7326595515272
35.8341478 ,Left ,58,2893571300249 ,43,7262323095029 ,32,728809491583
35.856725 ,Left ,58,2521697646544 ,43,7463819324224 ,32,7191993565855
35.8793618 ,Left ,58,2049792416012 ,43,7697251405688 ,32,7117484443009
35.9014002 ,Left ,58,2078540001896 ,43,7806155524789 ,32,7171486982966
35.9166808 ,Left ,58,2034543093736 ,43,805053138714 ,32,7184590873703
35.9390093 ,Left ,58,1504159253263 ,43,8649774263635 ,32,7287686469245
35.9542409 ,Left ,58,1815211056782 ,43,9025302309594 ,32,7573561459006
35.9765791 ,Left ,58,2648233176687 ,43,9185578503567 ,32,7557215701097
35.9991079 ,Left ,58,326137660462 ,43,9232249505961 ,32,7572225693126
36.0139379 ,Left ,58,3652943702758 ,43,8855051216331 ,32,7597426233598
36.0366527 ,Left ,58,3330719093358 ,43,8510162153337 ,32,7557378125203
36.0590435 ,Left ,58,2413674957156 ,43,8165066169484 ,32,73508768135
36.0815613 ,Left ,58,1684056140491 ,43,7949212518984 ,32,7174932672126
36.1043749 ,Left ,58,1902448352982 ,43,7768075605134 ,32,7078970123662
36.1264795 ,Left ,58,2439349609341 ,43,7424957105776 ,32,7298783255332
36.15663 ,Left ,58,3718422449905 ,43,7260272073668 ,32,7787851694478
36.1866539 ,Left ,58,4327610114838 ,43,7413498200307 ,32,7886961040462
36.2097357 ,Left ,58,4799922479432 ,43,7689905796589 ,32,7826101054099
36.2248041 ,Left ,58,544695676605 ,43,7914653293113 ,32,7753476527799
36.2470671 ,Left ,58,5583094030013 ,43,8075506455533 ,32,7745017386565
36.2766155 ,Left ,58,5378732387975 ,43,8293430305192 ,32,7667505154266
36.2917781 ,Left ,58,5233297276171 ,43,8084946502673 ,32,7661849080235
36.306622 ,Left ,58,4942875328928 ,43,8004211689307 ,32,7779847072355
36.3216121 ,Left ,58,4222041907288 ,43,83962947804 ,32,7739262177063
36.3365981 ,Left ,58,3910108608286 ,43,8859302698531 ,32,7719017523803
36.3589943 ,Left ,58,3905458227069 ,43,8970755998573 ,32,7670925799289
36.3816703 ,Left ,58,3972662628545 ,43,9041929879284 ,32,7743148012226
36.3967098 ,Left ,58,4164312538226 ,43,9320454733838 ,32,7619431254589
36.4194214 ,Left ,58,3701845945405 ,43,9923004937881 ,32,7446769051192
36.4417758 ,Left ,58,3131644152251 ,44,0573063789296 ,32,7233908643114
36.464066 ,Left ,58,2737633852891 ,44,105472192872 ,32,6941125822132
36.4867907 ,Left ,58,2942052638306 ,44,1152417499695 ,32,6908063306919
36.5167281 ,Left ,58,4843248197776 ,44,0897492170936 ,32,7118621060484
36.5469055 ,Left ,58,510785270286 ,44,0436081900257 ,32,7062917890545
36.569486 ,Left ,58,4998887287098 ,43,9570605445573 ,32,7030859867182
36.5842408 ,Left ,58,4289715743066 ,43,9042823498647 ,32,7031210029705
36.5990685 ,Left ,58,3423534658699 ,43,9024555676171 ,32,6812666014782
36.6215926 ,Left ,58,3396238326527 ,43,9404631078813 ,32,6662416288438
36.6365689 ,Left ,58,3827017160758 ,43,9214339286658 ,32,6906680476315
36.6592121 ,Left ,58,423902051036 ,43,8941985158403 ,32,7288374701466
36.6818635 ,Left ,58,4408983173985 ,43,9228025036589 ,32,7475839145403
36.696792 ,Left ,58,4409476253884 ,43,9492268105935 ,32,7738920913487
36.7191732 ,Left ,58,4282248903621 ,43,9311491495992 ,32,776026223314
36.7419075 ,Left ,58,3993756324721 ,43,9188487135861 ,32,7813581224656
36.7569052 ,Left ,58,4022037426897 ,43,9199577058978 ,32,7715939818855
36.7793991 ,Left ,58,4039830776207 ,43,9208912136175 ,32,7713100579666
36.8016361 ,Left ,58,4034412462352 ,43,898189678297 ,32,7746381609353
36.8167999 ,Left ,58,3870975125279 ,43,8764065649549 ,32,7744035719968
36.8392544 ,Left ,58,3905825703498 ,43,8589667211134 ,32,7688862429804
36.8616095 ,Left ,58,3880960678121 ,43,8252218756967 ,32,7710054675203
36.8765923 ,Left ,58,3960418543024 ,43,7908893976955 ,32,7716843230856
36.8992618 ,Left ,58,4133349361727 ,43,7531895107225 ,32,7698452944895
36.9293163 ,Left ,58,4292014421065 ,43,7347480226202 ,32,7712258852676
36.9441119 ,Left ,58,4314258358308 ,43,7177005702906 ,32,775536201817
36.9667961 ,Left ,58,4373225850741 ,43,691218892255 ,32,7936025357506
37.0042962 ,Left ,58,4786323750574 ,43,7043500410569 ,32,7980150670092
37.0193046 ,Left ,58,4692966143979 ,43,7244774113486 ,32,7950684917839
37.0491238 ,Left ,58,4619893863463 ,43,7399317234633 ,32,7941742932165
37.0715206 ,Left ,58,4564379432894 ,43,7495233306504 ,32,7928258468323
37.0865585 ,Left ,58,4690352841686 ,43,7643333738143 ,32,7893434550586
37.1016385 ,Left ,58,461750890084 ,43,774804080975 ,32,7912334039532
37.1240674 ,Left ,58,4506109406476 ,43,7775578766005 ,32,7985418029164
37.138956 ,Left ,58,4591794371975 ,43,7745471611911 ,32,7989851501224
37.1617648 ,Left ,58,478137777628 ,43,7691363127301 ,32,7950178114809
37.1841733 ,Left ,58,4814822020061 ,43,7640648369997 ,32,787161321063
37.1995526 ,Left ,58,4490388700746 ,43,7663152023023 ,32,7831768252084
37.2222025 ,Left ,58,4301706396601 ,43,7732089188013 ,32,7855273397581
37.2444743 ,Left ,58,4526147952591 ,43,7632046854559 ,32,7854103820547
37.2597152 ,Left ,58,4787682085626 ,43,7583661032846 ,32,7860419642104
37.2814687 ,Left ,58,4801989819743 ,43,7566051030908 ,32,7848272350976
37.3039695 ,Left ,58,4784159834116 ,43,7556733046557 ,32,7851178162362
37.3191682 ,Left ,58,4801989819743 ,43,7566051030908 ,32,7848272350976
37.3417429 ,Left ,58,4639828021168 ,43,7430914933846 ,32,7831213705264
37.3641602 ,Left ,58,430929703008 ,43,719261174161 ,32,7809736771498
37.3794224 ,Left ,58,4010430190627 ,43,7003341135037 ,32,7820834935755
37.4020909 ,Left ,58,3869229920855 ,43,6985415237942 ,32,7724128754463
37.424551 ,Left ,58,3810058395567 ,43,7231514234831 ,32,7513075170736
37.4394843 ,Left ,58,3703439980832 ,43,7486482215023 ,32,755379271698
37.4620973 ,Left ,58,3599971542335 ,43,760447939663 ,32,7704254829405
37.4843693 ,Left ,58,3367057753762 ,43,7724272190824 ,32,7691757068511
37.49943 ,Left ,58,2803831111944 ,43,791051587675 ,32,7561608889571
37.5219485 ,Left ,58,2351603031011 ,43,823567040101 ,32,7677951727282
37.5444178 ,Left ,58,2320778017518 ,43,8409910422301 ,32,784501540107
37.5595814 ,Left ,58,2549709356256 ,43,8518029921245 ,32,7991819664856
37.5820647 ,Left ,58,3240251779075 ,43,8745481681167 ,32,7792798727798
37.6045103 ,Left ,58,2945619161432 ,43,8827314411979 ,32,7623569921969
37.6195829 ,Left ,58,2325237371732 ,43,8726566735563 ,32,7590829356539
37.6421182 ,Left ,58,2253484576292 ,43,8754152006265 ,32,7740174947641
37.6645085 ,Left ,58,3069906991517 ,43,8326691749233 ,32,8112196734166
37.6867656 ,Left ,58,3932772751346 ,43,786516679121 ,32,8334943369318
37.7093848 ,Left ,58,4196587817243 ,43,7504248596233 ,32,8431128300659
37.7244882 ,Left ,58,3715349507851 ,43,7266892582109 ,32,8509172657076
37.7468337 ,Left ,58,2844105177013 ,43,7332564906261 ,32,830593977903
37.7618616 ,Left ,58,2601103919442 ,43,7597828780654 ,32,8048148696469
37.7845116 ,Left ,58,3461199717086 ,43,7401343118971 ,32,8000049882071
37.7995505 ,Left ,58,41406324672 ,43,7214972135657 ,32,7854378201666
37.821773 ,Left ,58,4044129111967 ,43,7341517249567 ,32,76343441492
37.8441735 ,Left ,58,3318329565714 ,43,7359767979757 ,32,7756444090896
37.8595235 ,Left ,58,2926621211868 ,43,7225458257806 ,32,7866780044085
37.8819279 ,Left ,58,3459637836912 ,43,715301028711 ,32,7861350332396
