timestamp,event,roll,pitch,yaw
0.0355459 ,Left ,68,1914122884489 ,44,648122286673 ,69,979636878065
0.0355481 ,Left ,68,1914122884489 ,44,648122286673 ,69,979636878065
0.0507708 ,Left ,68,1914122884489 ,44,648122286673 ,69,979636878065
0.0507729 ,Left ,68,1914122884489 ,44,648122286673 ,69,979636878065
0.073264 ,Left ,68,1934271689269 ,44,6465591061563 ,69,9794063799368
0.0732669 ,Left ,68,1934271689269 ,44,6465591061563 ,69,9794063799368
0.0962693 ,Left ,68,1909731219993 ,44,6477121516878 ,69,9792791178084
0.0962774 ,Left ,68,1909731219993 ,44,6477121516878 ,69,9792791178084
0.1114314 ,Left ,68,1793130414566 ,44,6465648846466 ,69,9842825370625
0.1114408 ,Left ,68,1793130414566 ,44,6465648846466 ,69,9842825370625
0.1336749 ,Left ,68,1793130414566 ,44,6465648846466 ,69,9842825370625
0.1336828 ,Left ,68,1793130414566 ,44,6465648846466 ,69,9842825370625
0.1560989 ,Left ,68,1853512069278 ,44,6455719784959 ,69,9856790217136
0.1561031 ,Left ,68,1853512069278 ,44,6455719784959 ,69,9856790217136
0.1708224 ,Left ,68,1841261997847 ,44,6443002883321 ,69,9845713625331
0.1708295 ,Left ,68,1841261997847 ,44,6443002883321 ,69,9845713625331
0.1936578 ,Left ,68,1841261997847 ,44,6443002883321 ,69,9845713625331
0.1936652 ,Left ,68,1841261997847 ,44,6443002883321 ,69,9845713625331
0.2162553 ,Left ,68,1780882929199 ,44,6452928453608 ,69,9831754376322
0.2162615 ,Left ,68,1780882929199 ,44,6452928453608 ,69,9831754376322
0.2312518 ,Left ,68,163391544446 ,44,6531825334723 ,69,9797585440061
0.2312604 ,Left ,68,163391544446 ,44,6531825334723 ,69,9797585440061
0.2536226 ,Left ,68,1615009956883 ,44,6645008024414 ,69,9698240382588
0.2536287 ,Left ,68,1615009956883 ,44,6645008024414 ,69,9698240382588
0.276397 ,Left ,68,1473581676177 ,44,6753070793873 ,69,9619565742945
0.2764028 ,Left ,68,1473581676177 ,44,6753070793873 ,69,9619565742945
0.2910327 ,Left ,68,1251966102273 ,44,6923402322594 ,69,9550202833356
0.2910388 ,Left ,68,1251966102273 ,44,6923402322594 ,69,9550202833356
0.3361628 ,Left ,68,0988824659666 ,44,7061178742272 ,69,9418106599973
0.3361719 ,Left ,68,0988824659666 ,44,7061178742272 ,69,9418106599973
0.3809013 ,Left ,68,0551669529649 ,44,7137590219798 ,69,9259111364705
0.3809045 ,Left ,68,0551669529649 ,44,7137590219798 ,69,9259111364705
0.3956988 ,Left ,68,0231150746214 ,44,7187982353635 ,69,9029740582945
0.3957013 ,Left ,68,0231150746214 ,44,7187982353635 ,69,9029740582945
0.4255996 ,Left ,67,9723765293598 ,44,7475687831548 ,69,8687653279773
0.4256014 ,Left ,67,9723765293598 ,44,7475687831548 ,69,8687653279773
0.4559146 ,Left ,67,9126714864193 ,44,7689570342206 ,69,8309336461668
0.455917 ,Left ,67,9126714864193 ,44,7689570342206 ,69,8309336461668
0.4780524 ,Left ,67,8610781911131 ,44,7733112774558 ,69,8049803517427
0.4780544 ,Left ,67,8610781911131 ,44,7733112774558 ,69,8049803517427
0.5008133 ,Left ,67,8416968614911 ,44,7805265311273 ,69,796801639265
0.5008159 ,Left ,67,8416968614911 ,44,7805265311273 ,69,796801639265
0.5156819 ,Left ,67,8193386090993 ,44,785999610849 ,69,7929329104282
0.5156844 ,Left ,67,8193386090993 ,44,785999610849 ,69,7929329104282
0.5382218 ,Left ,67,8018842693354 ,44,7817232035791 ,69,7852534337465
0.5382245 ,Left ,67,8018842693354 ,44,7817232035791 ,69,7852534337465
0.5607243 ,Left ,67,7868976272526 ,44,775359345221 ,69,7802793130639
0.5607269 ,Left ,67,7868976272526 ,44,775359345221 ,69,7802793130639
0.5908855 ,Left ,67,7279349753703 ,44,7981979518864 ,69,7594461789598
0.5908885 ,Left ,67,7279349753703 ,44,7981979518864 ,69,7594461789598
0.620802 ,Left ,67,7019285627687 ,44,8047886854623 ,69,7305556624059
0.6208043 ,Left ,67,7019285627687 ,44,8047886854623 ,69,7305556624059
0.6433401 ,Left ,67,6737591927528 ,44,8048514057954 ,69,6976000839176
0.6433437 ,Left ,67,6737591927528 ,44,8048514057954 ,69,6976000839176
0.6581533 ,Left ,67,6185933751926 ,44,7987359672908 ,69,6595105594832
0.6581552 ,Left ,67,6185933751926 ,44,7987359672908 ,69,6595105594832
0.6731536 ,Left ,67,5533006058693 ,44,7850941132087 ,69,6238191860411
0.6731555 ,Left ,67,5533006058693 ,44,7850941132087 ,69,6238191860411
0.7032652 ,Left ,67,5046519949885 ,44,7792008117723 ,69,5851821716488
0.7032671 ,Left ,67,5046519949885 ,44,7792008117723 ,69,5851821716488
0.7181519 ,Left ,67,4531324287421 ,44,7760795111513 ,69,550483499596
0.7181537 ,Left ,67,4531324287421 ,44,7760795111513 ,69,550483499596
0.7407418 ,Left ,67,4242971364222 ,44,777673006376 ,69,509693626052
0.740744 ,Left ,67,4242971364222 ,44,777673006376 ,69,509693626052
0.7558301 ,Left ,67,3740271704811 ,44,7700817146669 ,69,4672366208875
0.755834 ,Left ,67,3740271704811 ,44,7700817146669 ,69,4672366208875
0.7785125 ,Left ,67,3210102564412 ,44,7534490379153 ,69,4346666959025
0.7785267 ,Left ,67,3210102564412 ,44,7534490379153 ,69,4346666959025
0.7934604 ,Left ,67,2825920634736 ,44,7364179934824 ,69,4120842932267
0.7934656 ,Left ,67,2825920634736 ,44,7364179934824 ,69,4120842932267
0.8159735 ,Left ,67,2631299352626 ,44,7237852309411 ,69,4032407661717
0.8159784 ,Left ,67,2631299352626 ,44,7237852309411 ,69,4032407661717
0.838245 ,Left ,67,2448370855852 ,44,7144368693427 ,69,4024328021525
0.8382486 ,Left ,67,2448370855852 ,44,7144368693427 ,69,4024328021525
0.8609831 ,Left ,67,2352057103699 ,44,6990350825593 ,69,4038030708012
0.8609872 ,Left ,67,2352057103699 ,44,6990350825593 ,69,4038030708012
0.8834198 ,Left ,67,2413598968632 ,44,6751876904256 ,69,4051186520346
0.8834239 ,Left ,67,2413598968632 ,44,6751876904256 ,69,4051186520346
0.9055838 ,Left ,67,2428769994177 ,44,6506021114689 ,69,4018283643221
0.9055858 ,Left ,67,2428769994177 ,44,6506021114689 ,69,4018283643221
0.9208614 ,Left ,67,2309218828186 ,44,6405407869313 ,69,3932806942258
0.9208643 ,Left ,67,2309218828186 ,44,6405407869313 ,69,3932806942258
0.943419 ,Left ,67,2151490395107 ,44,6327955479274 ,69,3972175110877
0.9434223 ,Left ,67,2151490395107 ,44,6327955479274 ,69,3972175110877
0.9656569 ,Left ,67,1905536048094 ,44,627558096303 ,69,3969558967245
0.9656599 ,Left ,67,1905536048094 ,44,627558096303 ,69,3969558967245
0.9883176 ,Left ,67,1552299525096 ,44,618100172219 ,69,3887382209423
0.9883218 ,Left ,67,1552299525096 ,44,618100172219 ,69,3887382209423
1.0030586 ,Left ,67,1358253907431 ,44,6077746500516 ,69,3632121418491
1.0030605 ,Left ,67,1358253907431 ,44,6077746500516 ,69,3632121418491
1.0255726 ,Left ,67,0967777929213 ,44,606007775857 ,69,333920775424
1.0255743 ,Left ,67,0967777929213 ,44,606007775857 ,69,333920775424
1.0406745 ,Left ,67,0403278831956 ,44,5974104233107 ,69,2998061347694
1.0406764 ,Left ,67,0403278831956 ,44,5974104233107 ,69,2998061347694
1.0557334 ,Left ,66,9821124346868 ,44,5849920915412 ,69,2786006991041
1.0557359 ,Left ,66,9821124346868 ,44,5849920915412 ,69,2786006991041
1.0782033 ,Left ,66,9241937290985 ,44,5639757660036 ,69,2921340713674
1.0782053 ,Left ,66,9241937290985 ,44,5639757660036 ,69,2921340713674
1.0932128 ,Left ,66,8594871946134 ,44,5746233723024 ,69,329001616219
1.0932154 ,Left ,66,8594871946134 ,44,5746233723024 ,69,329001616219
1.1157709 ,Left ,66,7953836530799 ,44,6247528867379 ,69,3618428490639
1.115773 ,Left ,66,7953836530799 ,44,6247528867379 ,69,3618428490639
1.1381622 ,Left ,66,7792088717799 ,44,6358259264547 ,69,4230296477094
1.138164 ,Left ,66,7792088717799 ,44,6358259264547 ,69,4230296477094
1.1532225 ,Left ,66,7815935466872 ,44,6810835766162 ,69,4700763904481
1.1532255 ,Left ,66,7815935466872 ,44,6810835766162 ,69,4700763904481
1.1758329 ,Left ,66,6740714263919 ,44,7967656764946 ,69,514614594292
1.1758351 ,Left ,66,6740714263919 ,44,7967656764946 ,69,514614594292
1.1981575 ,Left ,66,7083375210289 ,44,8863376779726 ,69,5353329941609
1.1981596 ,Left ,66,7083375210289 ,44,8863376779726 ,69,5353329941609
1.2131475 ,Left ,66,8011639370066 ,44,9024472733087 ,69,5083612141904
1.2131501 ,Left ,66,8011639370066 ,44,9024472733087 ,69,5083612141904
1.2430926 ,Left ,66,7908579286644 ,44,8469937477699 ,69,45981860744
1.2430947 ,Left ,66,7908579286644 ,44,8469937477699 ,69,45981860744
1.2655589 ,Left ,66,7024358335983 ,44,742277973397 ,69,4145209505548
1.2655609 ,Left ,66,7024358335983 ,44,742277973397 ,69,4145209505548
1.2806402 ,Left ,66,661316155978 ,44,6265254384313 ,69,3706974858406
1.2806428 ,Left ,66,661316155978 ,44,6265254384313 ,69,3706974858406
1.303329 ,Left ,66,6191829241697 ,44,5842261469845 ,69,345560562106
1.303331 ,Left ,66,6191829241697 ,44,5842261469845 ,69,345560562106
1.3184632 ,Left ,66,4729004090163 ,44,5968592324896 ,69,3458156109847
1.3184655 ,Left ,66,4729004090163 ,44,5968592324896 ,69,3458156109847
1.333222 ,Left ,66,4829980354677 ,44,6080164221653 ,69,3210561484444
1.3332254 ,Left ,66,4829980354677 ,44,6080164221653 ,69,3210561484444
1.3632898 ,Left ,66,4960761279778 ,44,5992581146706 ,69,2755399124339
1.3632933 ,Left ,66,4960761279778 ,44,5992581146706 ,69,2755399124339
1.3858484 ,Left ,66,4356035721651 ,44,5814252876906 ,69,243594972183
1.3858523 ,Left ,66,4356035721651 ,44,5814252876906 ,69,243594972183
1.4009995 ,Left ,66,4128713026242 ,44,5575982715224 ,69,235756853855
1.4010087 ,Left ,66,4128713026242 ,44,5575982715224 ,69,235756853855
1.4233803 ,Left ,66,4458284196049 ,44,5259084807669 ,69,2104564421631
1.423385 ,Left ,66,4458284196049 ,44,5259084807669 ,69,2104564421631
1.4459609 ,Left ,66,4679948336551 ,44,4976264363461 ,69,1784997704502
1.4459653 ,Left ,66,4679948336551 ,44,4976264363461 ,69,1784997704502
1.4608825 ,Left ,66,4803370079356 ,44,4861232813799 ,69,1491045710209
1.460889 ,Left ,66,4803370079356 ,44,4861232813799 ,69,1491045710209
1.4833154 ,Left ,66,4973958649641 ,44,4971440891008 ,69,1288651833159
1.4833191 ,Left ,66,4973958649641 ,44,4971440891008 ,69,1288651833159
1.4984517 ,Left ,66,517327673702 ,44,5328622660981 ,69,1182799842438
1.4984553 ,Left ,66,517327673702 ,44,5328622660981 ,69,1182799842438
1.5280575 ,Left ,66,5020212090079 ,44,559500463956 ,69,1070271123535
1.5280601 ,Left ,66,5020212090079 ,44,559500463956 ,69,1070271123535
1.5505971 ,Left ,66,5129751284861 ,44,570733871562 ,69,0855937609051
1.5505988 ,Left ,66,5129751284861 ,44,570733871562 ,69,0855937609051
1.5805642 ,Left ,66,466729673063 ,44,5645979610442 ,69,0305399383744
1.5805667 ,Left ,66,466729673063 ,44,5645979610442 ,69,0305399383744
1.595601 ,Left ,66,4271763072714 ,44,5693125946259 ,69,0119600654963
1.5956028 ,Left ,66,4271763072714 ,44,5693125946259 ,69,0119600654963
1.6181602 ,Left ,66,3257852864805 ,44,5651304192307 ,68,9899176932933
1.6181621 ,Left ,66,3257852864805 ,44,5651304192307 ,68,9899176932933
1.6331699 ,Left ,66,3773618241162 ,44,4867095035311 ,68,9932944569155
1.6331727 ,Left ,66,3773618241162 ,44,4867095035311 ,68,9932944569155
1.6556924 ,Left ,66,5259256674414 ,44,4535811235963 ,68,9872642536999
1.6556955 ,Left ,66,5259256674414 ,44,4535811235963 ,68,9872642536999
1.6782076 ,Left ,66,5258815208128 ,44,4885776721955 ,68,9425446075052
1.6782095 ,Left ,66,5258815208128 ,44,4885776721955 ,68,9425446075052
1.7007503 ,Left ,66,4928494644045 ,44,4785867956219 ,68,9009556047736
1.7007528 ,Left ,66,4928494644045 ,44,4785867956219 ,68,9009556047736
1.7157466 ,Left ,66,5407465813024 ,44,4840168515205 ,68,852447856203
1.7157494 ,Left ,66,5407465813024 ,44,4840168515205 ,68,852447856203
1.7384525 ,Left ,66,4941832616948 ,44,4914532038805 ,68,8194270371933
1.7384561 ,Left ,66,4941832616948 ,44,4914532038805 ,68,8194270371933
1.7609929 ,Left ,66,4304511144393 ,44,4692671285034 ,68,7652399411516
1.7609966 ,Left ,66,4304511144393 ,44,4692671285034 ,68,7652399411516
1.7757032 ,Left ,66,3557757084271 ,44,3948061387602 ,68,7249197522175
1.7757098 ,Left ,66,3557757084271 ,44,3948061387602 ,68,7249197522175
1.7983485 ,Left ,66,2673526024666 ,44,2970509847252 ,68,7388583388199
1.7983522 ,Left ,66,2673526024666 ,44,2970509847252 ,68,7388583388199
1.8208433 ,Left ,66,2068403210092 ,44,2600165960656 ,68,6945795974535
1.8208452 ,Left ,66,2068403210092 ,44,2600165960656 ,68,6945795974535
1.8357646 ,Left ,66,179955770813 ,44,2098826421088 ,68,7705753894591
1.8357665 ,Left ,66,179955770813 ,44,2098826421088 ,68,7705753894591
1.8583596 ,Left ,66,2579880658751 ,44,3807603330155 ,68,8116474267785
1.8583617 ,Left ,66,2579880658751 ,44,3807603330155 ,68,8116474267785
1.8807805 ,Left ,66,3467156630074 ,44,4964952374136 ,68,8535811585339
1.8807826 ,Left ,66,3467156630074 ,44,4964952374136 ,68,8535811585339
1.8957173 ,Left ,66,3993894900269 ,44,5368527834947 ,68,9137459398183
1.8957197 ,Left ,66,3993894900269 ,44,5368527834947 ,68,9137459398183
1.9182985 ,Left ,66,3884831604551 ,44,5433891151935 ,68,9642916431152
1.9183025 ,Left ,66,3884831604551 ,44,5433891151935 ,68,9642916431152
1.9409275 ,Left ,66,3498099543335 ,44,5199311744571 ,68,9737864561922
1.940935 ,Left ,66,3498099543335 ,44,5199311744571 ,68,9737864561922
1.9560812 ,Left ,66,3112346513087 ,44,4441804283012 ,68,9465930410418
1.9560861 ,Left ,66,3112346513087 ,44,4441804283012 ,68,9465930410418
1.9785686 ,Left ,66,3306079958149 ,44,377783342986 ,68,9135513527572
1.9785738 ,Left ,66,3306079958149 ,44,377783342986 ,68,9135513527572
2.0005084 ,Left ,66,2497959362559 ,44,3653499521081 ,68,928279757631
2.0005121 ,Left ,66,2497959362559 ,44,3653499521081 ,68,928279757631
2.016489 ,Left ,66,1979386922751 ,44,4072433137428 ,68,9339560169181
2.0164969 ,Left ,66,1979386922751 ,44,4072433137428 ,68,9339560169181
2.0388712 ,Left ,66,1726482029308 ,44,398089179073 ,68,9097581006831
2.038879 ,Left ,66,1726482029308 ,44,398089179073 ,68,9097581006831
2.0684407 ,Left ,66,1740628866193 ,44,358919240854 ,68,8388955600663
2.068446 ,Left ,66,1740628866193 ,44,358919240854 ,68,8388955600663
2.083551 ,Left ,66,1575756097653 ,44,2978217263495 ,68,7983025680577
2.0835566 ,Left ,66,1575756097653 ,44,2978217263495 ,68,7983025680577
2.1059214 ,Left ,66,1440512804928 ,44,306674313595 ,68,7764294137563
2.1059366 ,Left ,66,1440512804928 ,44,306674313595 ,68,7764294137563
2.1438267 ,Left ,66,070603975171 ,44,3204114118089 ,68,8463892307312
2.1438344 ,Left ,66,070603975171 ,44,3204114118089 ,68,8463892307312
2.1662792 ,Left ,66,1437474678285 ,44,3902587648062 ,68,9084390318765
2.1662869 ,Left ,66,1437474678285 ,44,3902587648062 ,68,9084390318765
2.1886597 ,Left ,66,2863653267487 ,44,5739901183346 ,68,9327073183841
2.1886712 ,Left ,66,2863653267487 ,44,5739901183346 ,68,9327073183841
2.2038052 ,Left ,66,3333099760914 ,44,6948401235146 ,68,9631181022132
2.203813 ,Left ,66,3333099760914 ,44,6948401235146 ,68,9631181022132
2.2187017 ,Left ,66,4045370437169 ,44,7253903009907 ,68,962009950006
2.2187073 ,Left ,66,4045370437169 ,44,7253903009907 ,68,962009950006
2.2411915 ,Left ,66,4328510774968 ,44,7025562891501 ,68,9691660769928
2.2411972 ,Left ,66,4328510774968 ,44,7025562891501 ,68,9691660769928
2.2707096 ,Left ,66,4656715744189 ,44,6552026567625 ,68,9715361490211
2.2707123 ,Left ,66,4656715744189 ,44,6552026567625 ,68,9715361490211
2.2858488 ,Left ,66,5575541272748 ,44,5962135899497 ,68,9435298651561
2.2858511 ,Left ,66,5575541272748 ,44,5962135899497 ,68,9435298651561
2.3081642 ,Left ,66,5997342171257 ,44,5566104538401 ,68,901514457197
2.308166 ,Left ,66,5997342171257 ,44,5566104538401 ,68,901514457197
2.3231006 ,Left ,66,6108127560999 ,44,5112813480349 ,68,8670120288458
2.3231026 ,Left ,66,6108127560999 ,44,5112813480349 ,68,8670120288458
2.3383768 ,Left ,66,6330181893763 ,44,4673456725214 ,68,8504899938934
2.338379 ,Left ,66,6330181893763 ,44,4673456725214 ,68,8504899938934
2.3606697 ,Left ,66,6971569421165 ,44,4553654177651 ,68,853407248398
2.3606717 ,Left ,66,6971569421165 ,44,4553654177651 ,68,853407248398
2.3831127 ,Left ,66,7723147346457 ,44,467880056343 ,68,8769890169871
2.3831146 ,Left ,66,7723147346457 ,44,467880056343 ,68,8769890169871
2.3981256 ,Left ,66,8432503650813 ,44,4358140733187 ,68,9101346251642
2.3981275 ,Left ,66,8432503650813 ,44,4358140733187 ,68,9101346251642
2.4205113 ,Left ,66,9177682039987 ,44,3665266541258 ,68,9285088034657
2.4205134 ,Left ,66,9177682039987 ,44,3665266541258 ,68,9285088034657
2.443183 ,Left ,66,9689618383489 ,44,2888541997778 ,68,9432612167668
2.4431854 ,Left ,66,9689618383489 ,44,2888541997778 ,68,9432612167668
2.4584943 ,Left ,66,9764980007493 ,44,2294918124529 ,68,9779346846433
2.4584969 ,Left ,66,9764980007493 ,44,2294918124529 ,68,9779346846433
2.4957329 ,Left ,67,0629798940388 ,44,2207677660537 ,69,0239911676834
2.4957351 ,Left ,67,0629798940388 ,44,2207677660537 ,69,0239911676834
2.5332828 ,Left ,67,1065022440813 ,44,2488574316933 ,69,0335739071803
2.5332847 ,Left ,67,1065022440813 ,44,2488574316933 ,69,0335739071803
2.5634239 ,Left ,67,1009301982685 ,44,2883162019276 ,69,0463044957116
2.5634263 ,Left ,67,1009301982685 ,44,2883162019276 ,69,0463044957116
2.623134 ,Left ,67,0594873483857 ,44,5380080123218 ,68,9544395461021
2.623136 ,Left ,67,0594873483857 ,44,5380080123218 ,68,9544395461021
2.6455619 ,Left ,67,0200440475339 ,44,3750619649698 ,68,8975863850939
2.6455644 ,Left ,67,0200440475339 ,44,3750619649698 ,68,8975863850939
2.6607665 ,Left ,67,1582020958336 ,44,3259950561362 ,68,7650363983949
2.6607686 ,Left ,67,1582020958336 ,44,3259950561362 ,68,7650363983949
2.6755813 ,Left ,67,2932734327506 ,44,4731514038674 ,68,6356485027513
2.6755833 ,Left ,67,2932734327506 ,44,4731514038674 ,68,6356485027513
2.7058756 ,Left ,67,2773013139959 ,44,3472088909483 ,68,57191636989
2.7058779 ,Left ,67,2773013139959 ,44,3472088909483 ,68,57191636989
2.7206339 ,Left ,67,2125583293531 ,44,4274723722994 ,68,5360998625354
2.7206358 ,Left ,67,2125583293531 ,44,4274723722994 ,68,5360998625354
2.7431588 ,Left ,67,136389593383 ,44,430462238548 ,68,4813579318567
2.7431611 ,Left ,67,136389593383 ,44,430462238548 ,68,4813579318567
2.7580739 ,Left ,67,1013176372198 ,44,4077170536128 ,68,4380406267803
2.7580755 ,Left ,67,1013176372198 ,44,4077170536128 ,68,4380406267803
2.7735944 ,Left ,67,0763413106265 ,44,3700188982471 ,68,3864720048616
2.773602 ,Left ,67,0763413106265 ,44,3700188982471 ,68,3864720048616
2.7961657 ,Left ,67,0020038533953 ,44,3552953472105 ,68,3418762817321
2.796176 ,Left ,67,0020038533953 ,44,3552953472105 ,68,3418762817321
2.8258151 ,Left ,66,9136290734411 ,44,4017736496741 ,68,2963314956931
2.8258194 ,Left ,66,9136290734411 ,44,4017736496741 ,68,2963314956931
2.8408657 ,Left ,66,6844706587398 ,44,5462651248799 ,68,3017320290539
2.8408699 ,Left ,66,6844706587398 ,44,5462651248799 ,68,3017320290539
2.8632879 ,Left ,66,7740500408166 ,44,6898604105414 ,68,2078827938244
2.8632898 ,Left ,66,7740500408166 ,44,6898604105414 ,68,2078827938244
2.893637 ,Left ,66,5100292282274 ,44,6376026944978 ,68,222987315067
2.8936445 ,Left ,66,5100292282274 ,44,6376026944978 ,68,222987315067
2.9232825 ,Left ,66,4399549933303 ,44,6032829601221 ,68,2031377625154
2.923286 ,Left ,66,4399549933303 ,44,6032829601221 ,68,2031377625154
2.9457523 ,Left ,66,3927257679273 ,44,600515854583 ,68,1632799690175
2.9457557 ,Left ,66,3927257679273 ,44,600515854583 ,68,1632799690175
2.9757654 ,Left ,66,3103461205009 ,44,6609211652474 ,68,0785310457559
2.9757687 ,Left ,66,3103461205009 ,44,6609211652474 ,68,0785310457559
2.9981536 ,Left ,66,2574945046225 ,44,6689520402718 ,68,0345743742086
2.9981556 ,Left ,66,2574945046225 ,44,6689520402718 ,68,0345743742086
3.0130903 ,Left ,66,1764468388262 ,44,6370351565276 ,68,0035619374835
3.0130926 ,Left ,66,1764468388262 ,44,6370351565276 ,68,0035619374835
3.0358694 ,Left ,66,0812513859489 ,44,6226801298748 ,67,9809695885072
3.0358717 ,Left ,66,0812513859489 ,44,6226801298748 ,67,9809695885072
3.0580928 ,Left ,66,0091343888073 ,44,6362910767451 ,67,9624112229701
3.0580945 ,Left ,66,0091343888073 ,44,6362910767451 ,67,9624112229701
3.073278 ,Left ,65,8911873823756 ,44,6581983885936 ,67,930554581289
3.0732801 ,Left ,65,8911873823756 ,44,6581983885936 ,67,930554581289
3.0955015 ,Left ,65,7798965539984 ,44,6542542750377 ,67,9028176672863
3.0955164 ,Left ,65,7798965539984 ,44,6542542750377 ,67,9028176672863
3.1181585 ,Left ,65,7037251019071 ,44,6661625649026 ,67,894466986905
3.1181609 ,Left ,65,7037251019071 ,44,6661625649026 ,67,894466986905
3.1331617 ,Left ,65,5389981376129 ,44,688634129379 ,67,8866852713562
3.1331648 ,Left ,65,5389981376129 ,44,688634129379 ,67,8866852713562
3.1556578 ,Left ,65,5197812437603 ,44,6694838996728 ,67,9193962746505
3.15566 ,Left ,65,5197812437603 ,44,6694838996728 ,67,9193962746505
3.1782172 ,Left ,65,7071821285783 ,44,6261494179429 ,67,9637570157568
3.1782322 ,Left ,65,7071821285783 ,44,6261494179429 ,67,9637570157568
3.1930461 ,Left ,65,8922859534988 ,44,5679676564511 ,67,9708502477409
3.1930493 ,Left ,65,8922859534988 ,44,5679676564511 ,67,9708502477409
3.215656 ,Left ,66,0138994915123 ,44,482174336245 ,67,9590699314009
3.2156587 ,Left ,66,0138994915123 ,44,482174336245 ,67,9590699314009
3.2384039 ,Left ,66,0525252507621 ,44,3940253883774 ,67,9645498943071
3.2384068 ,Left ,66,0525252507621 ,44,3940253883774 ,67,9645498943071
3.2532634 ,Left ,66,0911766009355 ,44,2948993678359 ,67,9851870937174
3.2532669 ,Left ,66,0911766009355 ,44,2948993678359 ,67,9851870937174
3.2759529 ,Left ,66,1307784460461 ,44,1826949304852 ,68,0224011909881
3.2759588 ,Left ,66,1307784460461 ,44,1826949304852 ,68,0224011909881
3.2984256 ,Left ,66,149852427511 ,44,0915536330507 ,68,0664550609025
3.2984296 ,Left ,66,149852427511 ,44,0915536330507 ,68,0664550609025
3.3132099 ,Left ,66,1924897137944 ,44,006834998543 ,68,1092622656724
3.3132194 ,Left ,66,1924897137944 ,44,006834998543 ,68,1092622656724
3.3359578 ,Left ,66,1737337989951 ,43,9416919382425 ,68,1650547220077
3.3359615 ,Left ,66,1737337989951 ,43,9416919382425 ,68,1650547220077
3.3582461 ,Left ,66,262487814625 ,43,8934615649524 ,68,201698627635
3.3582497 ,Left ,66,262487814625 ,43,8934615649524 ,68,201698627635
3.380846 ,Left ,66,3911194896672 ,43,8232589444257 ,68,2181744501278
3.3808498 ,Left ,66,3911194896672 ,43,8232589444257 ,68,2181744501278
3.4030905 ,Left ,66,4381096202824 ,43,7594384735247 ,68,2137400827831
3.4030925 ,Left ,66,4381096202824 ,43,7594384735247 ,68,2137400827831
3.4255659 ,Left ,66,4147038268324 ,43,7589985961793 ,68,1977748902233
3.4255677 ,Left ,66,4147038268324 ,43,7589985961793 ,68,1977748902233
3.4406169 ,Left ,66,3475868007054 ,43,7833989416211 ,68,185516297129
3.4406192 ,Left ,66,3475868007054 ,43,7833989416211 ,68,185516297129
3.463417 ,Left ,66,3561503250338 ,43,8228351647689 ,68,1709007746824
3.4634213 ,Left ,66,3561503250338 ,43,8228351647689 ,68,1709007746824
3.486069 ,Left ,66,4182588837885 ,43,8392766903327 ,68,1403616862848
3.4860737 ,Left ,66,4182588837885 ,43,8392766903327 ,68,1403616862848
3.5010548 ,Left ,66,4395059436491 ,43,8209881848622 ,68,1063257039648
3.5010592 ,Left ,66,4395059436491 ,43,8209881848622 ,68,1063257039648
3.5234056 ,Left ,66,4369642320791 ,43,8160265144245 ,68,0745315839169
3.5234102 ,Left ,66,4369642320791 ,43,8160265144245 ,68,0745315839169
3.5385582 ,Left ,66,3659988660936 ,43,842215807606 ,68,050907375701
3.5385625 ,Left ,66,3659988660936 ,43,842215807606 ,68,050907375701
3.5533528 ,Left ,66,321835150351 ,43,9014155079204 ,68,0217814200914
3.5533593 ,Left ,66,321835150351 ,43,9014155079204 ,68,0217814200914
3.5758809 ,Left ,66,3135068240207 ,43,9214128438074 ,67,9577925505666
3.5758829 ,Left ,66,3135068240207 ,43,9214128438074 ,67,9577925505666
3.5906323 ,Left ,66,1999535977425 ,43,9225438708861 ,67,9301174353297
3.5906341 ,Left ,66,1999535977425 ,43,9225438708861 ,67,9301174353297
3.6131328 ,Left ,66,1362755854324 ,43,9530626622661 ,67,9277695721619
3.6131346 ,Left ,66,1362755854324 ,43,9530626622661 ,67,9277695721619
3.6358079 ,Left ,66,2328885317894 ,44,0238668864441 ,67,9745375078609
3.6358227 ,Left ,66,2328885317894 ,44,0238668864441 ,67,9745375078609
3.6732659 ,Left ,66,4631888339472 ,44,1863954730552 ,67,9904803065853
3.6732687 ,Left ,66,4631888339472 ,44,1863954730552 ,67,9904803065853
3.6956052 ,Left ,66,5321506481396 ,44,2234263566324 ,68,0132315533126
3.6956085 ,Left ,66,5321506481396 ,44,2234263566324 ,68,0132315533126
3.7329282 ,Left ,66,5658639672288 ,44,287432948667 ,68,0885420503278
3.73293 ,Left ,66,5658639672288 ,44,287432948667 ,68,0885420503278
3.7558702 ,Left ,66,6722656154707 ,44,2817325210764 ,68,1156336192495
3.7558724 ,Left ,66,6722656154707 ,44,2817325210764 ,68,1156336192495
3.7930172 ,Left ,66,8138293686319 ,44,2496817856294 ,68,1577042130583
3.7930191 ,Left ,66,8138293686319 ,44,2496817856294 ,68,1577042130583
3.8159121 ,Left ,66,8481685101834 ,44,2253876868528 ,68,2080648689037
3.8159138 ,Left ,66,8481685101834 ,44,2253876868528 ,68,2080648689037
3.853724 ,Left ,67,0083380651547 ,44,1648424547121 ,68,3404462345268
3.8537319 ,Left ,67,0083380651547 ,44,1648424547121 ,68,3404462345268
3.875679 ,Left ,67,0598744418022 ,44,0697313932424 ,68,3978039343006
3.875681 ,Left ,67,0598744418022 ,44,0697313932424 ,68,3978039343006
3.9130355 ,Left ,67,1523248507325 ,43,9150100671262 ,68,5293539965852
3.9130376 ,Left ,67,1523248507325 ,43,9150100671262 ,68,5293539965852
3.9355497 ,Left ,67,2107241844505 ,43,8803285353031 ,68,602273895016
3.9355517 ,Left ,67,2107241844505 ,43,8803285353031 ,68,602273895016
3.9736404 ,Left ,67,4601659704136 ,43,8601992429322 ,68,7446719179723
3.9736479 ,Left ,67,4601659704136 ,43,8601992429322 ,68,7446719179723
3.9961908 ,Left ,67,5387286747235 ,43,8488940409481 ,68,8239210431591
3.9961985 ,Left ,67,5387286747235 ,43,8488940409481 ,68,8239210431591
4.0332991 ,Left ,67,6269902721807 ,43,8121452437281 ,68,9785424938804
4.0333027 ,Left ,67,6269902721807 ,43,8121452437281 ,68,9785424938804
4.0555262 ,Left ,67,6735716964296 ,43,8064293698343 ,69,0452441173309
4.0555281 ,Left ,67,6735716964296 ,43,8064293698343 ,69,0452441173309
4.0936418 ,Left ,67,8137244200095 ,43,7499784616738 ,69,1395702996003
4.0936496 ,Left ,67,8137244200095 ,43,7499784616738 ,69,1395702996003
4.1162271 ,Left ,67,838044238279 ,43,6930527029871 ,69,202193086779
4.1162346 ,Left ,67,838044238279 ,43,6930527029871 ,69,202193086779
4.1537944 ,Left ,67,8407284632993 ,43,6002016299821 ,69,3030747736965
4.1538021 ,Left ,67,8407284632993 ,43,6002016299821 ,69,3030747736965
4.1758964 ,Left ,67,8735081685104 ,43,5682620467793 ,69,3381112807175
4.1759019 ,Left ,67,8735081685104 ,43,5682620467793 ,69,3381112807175
4.220804 ,Left ,67,937878373127 ,43,5014284719542 ,69,359583802898
4.220807 ,Left ,67,937878373127 ,43,5014284719542 ,69,359583802898
4.2432702 ,Left ,67,9470911710272 ,43,4794187749389 ,69,3627593380697
4.2432732 ,Left ,67,9470911710272 ,43,4794187749389 ,69,3627593380697
4.2732392 ,Left ,67,9488704103746 ,43,4711846035581 ,69,3650966332301
4.2732411 ,Left ,67,9488704103746 ,43,4711846035581 ,69,3650966332301
4.2954908 ,Left ,67,9918695998943 ,43,4839546268191 ,69,34205294733
4.2954925 ,Left ,67,9918695998943 ,43,4839546268191 ,69,34205294733
4.3331425 ,Left ,68,0043871036471 ,43,5313557397064 ,69,3015325420221
4.3331451 ,Left ,68,0043871036471 ,43,5313557397064 ,69,3015325420221
4.3557048 ,Left ,67,9783454807777 ,43,5655034456543 ,69,3008085837304
4.3557075 ,Left ,67,9783454807777 ,43,5655034456543 ,69,3008085837304
4.3931344 ,Left ,67,9202562021051 ,43,6400152002508 ,69,297767827533
4.3931362 ,Left ,67,9202562021051 ,43,6400152002508 ,69,297767827533
4.4155939 ,Left ,67,9274930475279 ,43,6675954890933 ,69,2957456048557
4.4155969 ,Left ,67,9274930475279 ,43,6675954890933 ,69,2957456048557
4.453244 ,Left ,67,9305643014855 ,43,696275733123 ,69,2994628384505
4.453248 ,Left ,67,9305643014855 ,43,696275733123 ,69,2994628384505
4.4755812 ,Left ,67,92909195026 ,43,6984171138058 ,69,3127413237212
4.4755829 ,Left ,67,92909195026 ,43,6984171138058 ,69,3127413237212
4.5131747 ,Left ,67,9189201553486 ,43,6976789994911 ,69,3472697943941
4.5131772 ,Left ,67,9189201553486 ,43,6976789994911 ,69,3472697943941
4.5355969 ,Left ,67,9421458857399 ,43,690796997868 ,69,3560184989345
4.5355992 ,Left ,67,9421458857399 ,43,690796997868 ,69,3560184989345
4.5732485 ,Left ,67,9528176204687 ,43,6666204816604 ,69,37080761086
4.5732514 ,Left ,67,9528176204687 ,43,6666204816604 ,69,37080761086
4.5958642 ,Left ,67,9617990463031 ,43,656247316962 ,69,3705877894939
4.5958678 ,Left ,67,9617990463031 ,43,656247316962 ,69,3705877894939
4.6330385 ,Left ,67,977200266167 ,43,6489453370203 ,69,373976647143
4.6330403 ,Left ,67,977200266167 ,43,6489453370203 ,69,373976647143
4.6555261 ,Left ,67,9678826031987 ,43,7005303576256 ,69,3836324541329
4.6555279 ,Left ,67,9678826031987 ,43,7005303576256 ,69,3836324541329
4.6932217 ,Left ,68,2782310627235 ,43,5487294678556 ,69,2820059510729
4.6932239 ,Left ,68,2782310627235 ,43,5487294678556 ,69,2820059510729
4.7158911 ,Left ,68,1807140691051 ,43,4030414250292 ,69,3248184130207
4.7158938 ,Left ,68,1807140691051 ,43,4030414250292 ,69,3248184130207
4.7533487 ,Left ,68,2144572239876 ,43,4009760764077 ,69,3134076520983
4.7533521 ,Left ,68,2144572239876 ,43,4009760764077 ,69,3134076520983
4.7760043 ,Left ,68,1882449856098 ,43,6037348723602 ,69,3264046704833
4.7760081 ,Left ,68,1882449856098 ,43,6037348723602 ,69,3264046704833
4.8132975 ,Left ,68,2396676087227 ,43,4636203489628 ,69,3102121555975
4.8133015 ,Left ,68,2396676087227 ,43,4636203489628 ,69,3102121555975
4.8359801 ,Left ,68,3410210958099 ,43,3042394993939 ,69,2707416607928
4.835984 ,Left ,68,3410210958099 ,43,3042394993939 ,69,2707416607928
4.8734348 ,Left ,68,360161789821 ,43,3725178958083 ,69,2691812267518
4.8734387 ,Left ,68,360161789821 ,43,3725178958083 ,69,2691812267518
4.8958693 ,Left ,68,2120724019368 ,43,4670194911572 ,69,330107672957
4.8958732 ,Left ,68,2120724019368 ,43,4670194911572 ,69,330107672957
4.9331574 ,Left ,68,2101669497395 ,43,4797486928044 ,69,3651256170556
4.9331595 ,Left ,68,2101669497395 ,43,4797486928044 ,69,3651256170556
4.956212 ,Left ,68,103757080707 ,43,4636112955425 ,69,4201444258173
4.9562197 ,Left ,68,103757080707 ,43,4636112955425 ,69,4201444258173
4.9932515 ,Left ,68,0910691393506 ,43,485924150453 ,69,4637264686192
4.9932545 ,Left ,68,0910691393506 ,43,485924150453 ,69,4637264686192
5.0156902 ,Left ,68,0624611780216 ,43,4873186648794 ,69,5076866338482
5.015693 ,Left ,68,0624611780216 ,43,4873186648794 ,69,5076866338482
5.0532352 ,Left ,68,0223876796693 ,43,4820354125632 ,69,5958127351721
5.0532382 ,Left ,68,0223876796693 ,43,4820354125632 ,69,5958127351721
5.0909041 ,Left ,67,9870608341449 ,43,4604918707195 ,69,6701005486799
5.0909071 ,Left ,67,9870608341449 ,43,4604918707195 ,69,6701005486799
5.128261 ,Left ,67,980874283465 ,43,4471562283534 ,69,7026812162124
5.1282642 ,Left ,67,980874283465 ,43,4471562283534 ,69,7026812162124
5.165862 ,Left ,67,9058332142267 ,43,4224797521638 ,69,7554765256783
5.1658641 ,Left ,67,9058332142267 ,43,4224797521638 ,69,7554765256783
5.2108707 ,Left ,67,7388856096511 ,43,4638843198459 ,69,7681634843016
5.2108736 ,Left ,67,7388856096511 ,43,4638843198459 ,69,7681634843016
5.2332711 ,Left ,67,6888172653281 ,43,4812922345922 ,69,7641182568132
5.2332747 ,Left ,67,6888172653281 ,43,4812922345922 ,69,7641182568132
5.2781813 ,Left ,67,5560748631059 ,43,5258183770198 ,69,7496826648896
5.2781845 ,Left ,67,5560748631059 ,43,5258183770198 ,69,7496826648896
5.3384023 ,Left ,67,426942618629 ,43,529973606973 ,69,6877145341224
5.3384059 ,Left ,67,426942618629 ,43,529973606973 ,69,6877145341224
5.3608269 ,Left ,67,3523155936325 ,43,559046004825 ,69,6900426289674
5.3608288 ,Left ,67,3523155936325 ,43,559046004825 ,69,6900426289674
5.3830096 ,Left ,67,2547556995968 ,43,6332051024885 ,69,6689862229929
5.3830116 ,Left ,67,2547556995968 ,43,6332051024885 ,69,6689862229929
5.4058556 ,Left ,67,2204663956336 ,43,6576988975919 ,69,6418195527413
5.4058577 ,Left ,67,2204663956336 ,43,6576988975919 ,69,6418195527413
5.4281 ,Left ,67,1665445333555 ,43,6671589255447 ,69,6241231117687
5.4281027 ,Left ,67,1665445333555 ,43,6671589255447 ,69,6241231117687
5.4507542 ,Left ,67,0992515370867 ,43,6737997043572 ,69,6109394745428
5.4507568 ,Left ,67,0992515370867 ,43,6737997043572 ,69,6109394745428
5.4656193 ,Left ,66,9874999096919 ,43,6651327108486 ,69,604773084602
5.4656212 ,Left ,66,9874999096919 ,43,6651327108486 ,69,604773084602
5.4881431 ,Left ,66,8789306576125 ,43,6277414323131 ,69,5857490881747
5.488145 ,Left ,66,8789306576125 ,43,6277414323131 ,69,5857490881747
5.5106053 ,Left ,66,8304438639665 ,43,6416367955227 ,69,5753016296612
5.5106072 ,Left ,66,8304438639665 ,43,6416367955227 ,69,5753016296612
5.5256399 ,Left ,66,7163720173026 ,43,7541462665065 ,69,5633336866772
5.5256421 ,Left ,66,7163720173026 ,43,7541462665065 ,69,5633336866772
5.5484549 ,Left ,66,4857351598721 ,43,8348083676761 ,69,4950120545164
5.5484595 ,Left ,66,4857351598721 ,43,8348083676761 ,69,4950120545164
5.5706131 ,Left ,66,4355357358919 ,43,8113871397934 ,69,4878785031156
5.5706148 ,Left ,66,4355357358919 ,43,8113871397934 ,69,4878785031156
5.5859377 ,Left ,66,5319148947394 ,43,9525884361627 ,69,5002115113548
5.5859404 ,Left ,66,5319148947394 ,43,9525884361627 ,69,5002115113548
5.6084382 ,Left ,66,5660896459695 ,44,1200813417503 ,69,4552721615369
5.6084415 ,Left ,66,5660896459695 ,44,1200813417503 ,69,4552721615369
5.6308772 ,Left ,66,5861320015281 ,44,2161544400887 ,69,367893989406
5.6308804 ,Left ,66,5861320015281 ,44,2161544400887 ,69,367893989406
5.6532872 ,Left ,66,6096163863891 ,44,2657763384825 ,69,2566793615794
5.6532905 ,Left ,66,6096163863891 ,44,2657763384825 ,69,2566793615794
5.6756402 ,Left ,66,5851765726264 ,44,259798108044 ,69,1529168186212
5.6756431 ,Left ,66,5851765726264 ,44,259798108044 ,69,1529168186212
5.6984506 ,Left ,66,5709624516742 ,44,2039191651184 ,69,033527363756
5.6984538 ,Left ,66,5709624516742 ,44,2039191651184 ,69,033527363756
5.713228 ,Left ,66,4732855644034 ,44,131825636631 ,68,939104309719
5.7132313 ,Left ,66,4732855644034 ,44,131825636631 ,68,939104309719
5.7283192 ,Left ,66,4339414014389 ,44,075493309707 ,68,8475951195508
5.7283224 ,Left ,66,4339414014389 ,44,075493309707 ,68,8475951195508
5.7508706 ,Left ,66,463792345732 ,43,9914550164003 ,68,7519423107995
5.7508739 ,Left ,66,463792345732 ,43,9914550164003 ,68,7519423107995
5.7659448 ,Left ,66,465277412349 ,43,8945020900764 ,68,6677456708066
5.765948 ,Left ,66,465277412349 ,43,8945020900764 ,68,6677456708066
5.788321 ,Left ,66,4214921118701 ,43,8570701232252 ,68,6179227857682
5.7883234 ,Left ,66,4214921118701 ,43,8570701232252 ,68,6179227857682
5.8108803 ,Left ,66,3838647222601 ,43,8968435228614 ,68,605776695148
5.8108824 ,Left ,66,3838647222601 ,43,8968435228614 ,68,605776695148
5.8256145 ,Left ,66,3735156156899 ,43,9423259441728 ,68,5809513558627
5.8256162 ,Left ,66,3735156156899 ,43,9423259441728 ,68,5809513558627
5.8483207 ,Left ,66,3505534594307 ,43,945640261548 ,68,5870697888273
5.8483227 ,Left ,66,3505534594307 ,43,945640261548 ,68,5870697888273
5.8780457 ,Left ,66,3141679814683 ,43,9303754536152 ,68,6432401158011
5.8780476 ,Left ,66,3141679814683 ,43,9303754536152 ,68,6432401158011
5.893172 ,Left ,66,2253390393676 ,43,9791049076121 ,68,701315945459
5.8931743 ,Left ,66,2253390393676 ,43,9791049076121 ,68,701315945459
5.9156698 ,Left ,66,2286446589207 ,44,0441805849542 ,68,7558524349622
5.9156715 ,Left ,66,2286446589207 ,44,0441805849542 ,68,7558524349622
5.9312762 ,Left ,66,2138002866551 ,44,2051568253714 ,68,8074150402186
5.931284 ,Left ,66,2138002866551 ,44,2051568253714 ,68,8074150402186
5.9461572 ,Left ,66,2223973945906 ,44,3444695151821 ,68,8599523055949
5.9461626 ,Left ,66,2223973945906 ,44,3444695151821 ,68,8599523055949
5.9687974 ,Left ,66,2847267234547 ,44,362198057746 ,68,8815683173881
5.9688016 ,Left ,66,2847267234547 ,44,362198057746 ,68,8815683173881
5.9910619 ,Left ,66,336162530455 ,44,3652887647465 ,68,8940669736194
5.9910662 ,Left ,66,336162530455 ,44,3652887647465 ,68,8940669736194
6.0058391 ,Left ,66,4002542759892 ,44,3770745777973 ,68,8989543976764
6.0058434 ,Left ,66,4002542759892 ,44,3770745777973 ,68,8989543976764
6.0290025 ,Left ,66,4665055259058 ,44,4119381747797 ,68,8891174593647
6.0290267 ,Left ,66,4665055259058 ,44,4119381747797 ,68,8891174593647
6.0515381 ,Left ,66,4952274703642 ,44,4330770200274 ,68,8674810603663
6.0515459 ,Left ,66,4952274703642 ,44,4330770200274 ,68,8674810603663
6.0665123 ,Left ,66,5227404417092 ,44,4108759871556 ,68,8276027845382
6.0665204 ,Left ,66,5227404417092 ,44,4108759871556 ,68,8276027845382
6.0962183 ,Left ,66,5869213291185 ,44,4195440992355 ,68,7874688153205
6.0962237 ,Left ,66,5869213291185 ,44,4195440992355 ,68,7874688153205
6.1182461 ,Left ,66,5889025068023 ,44,4593049143299 ,68,7543714850426
6.1182494 ,Left ,66,5889025068023 ,44,4593049143299 ,68,7543714850426
6.133331 ,Left ,66,5806837414752 ,44,4812997007836 ,68,7368474024641
6.1333345 ,Left ,66,5806837414752 ,44,4812997007836 ,68,7368474024641
6.1560009 ,Left ,66,6205975851699 ,44,4670423434333 ,68,7181968323474
6.1560044 ,Left ,66,6205975851699 ,44,4670423434333 ,68,7181968323474
6.1783453 ,Left ,66,6446381271997 ,44,4178286712073 ,68,6964129515486
6.1783489 ,Left ,66,6446381271997 ,44,4178286712073 ,68,6964129515486
6.1933302 ,Left ,66,6265027204062 ,44,3580419983202 ,68,683772355911
6.1933337 ,Left ,66,6265027204062 ,44,3580419983202 ,68,683772355911
6.2158903 ,Left ,66,6385242896882 ,44,3154910140229 ,68,6683968962652
6.2158939 ,Left ,66,6385242896882 ,44,3154910140229 ,68,6683968962652
6.2310412 ,Left ,66,6374232928663 ,44,2850341152882 ,68,6531922522832
6.2310447 ,Left ,66,6374232928663 ,44,2850341152882 ,68,6531922522832
6.2458357 ,Left ,66,6260715494362 ,44,274657533721 ,68,6427778206326
6.2458395 ,Left ,66,6260715494362 ,44,274657533721 ,68,6427778206326
6.2685137 ,Left ,66,6195608972249 ,44,2656543112064 ,68,651622532448
6.2685174 ,Left ,66,6195608972249 ,44,2656543112064 ,68,651622532448
6.2908877 ,Left ,66,6230976195585 ,44,2492819702812 ,68,6856948928754
6.2908912 ,Left ,66,6230976195585 ,44,2492819702812 ,68,6856948928754
6.3133466 ,Left ,66,6339452881876 ,44,2154206452886 ,68,7215608347018
6.3133505 ,Left ,66,6339452881876 ,44,2154206452886 ,68,7215608347018
6.3360158 ,Left ,66,6224602879996 ,44,1647490937238 ,68,7416465877756
6.3360218 ,Left ,66,6224602879996 ,44,1647490937238 ,68,7416465877756
6.3584739 ,Left ,66,5823430489124 ,44,1065067356978 ,68,7608600838585
6.3584779 ,Left ,66,5823430489124 ,44,1065067356978 ,68,7608600838585
6.3732649 ,Left ,66,564356029823 ,44,0493987774466 ,68,7828081506209
6.373268 ,Left ,66,564356029823 ,44,0493987774466 ,68,7828081506209
6.3883544 ,Left ,66,5826142690319 ,43,9846316118039 ,68,8028230647705
6.388358 ,Left ,66,5826142690319 ,43,9846316118039 ,68,8028230647705
6.4107347 ,Left ,66,5841645220574 ,43,9122298960195 ,68,8364962727353
6.4107371 ,Left ,66,5841645220574 ,43,9122298960195 ,68,8364962727353
6.4256136 ,Left ,66,6063526253815 ,43,8446376953038 ,68,8534254387217
6.4256153 ,Left ,66,6063526253815 ,43,8446376953038 ,68,8534254387217
6.4482968 ,Left ,66,6161527721159 ,43,7994814542252 ,68,875437328359
6.4482987 ,Left ,66,6161527721159 ,43,7994814542252 ,68,875437328359
6.4705857 ,Left ,66,6521474382687 ,43,793683970648 ,68,9070727666256
6.4705874 ,Left ,66,6521474382687 ,43,793683970648 ,68,9070727666256
6.4933207 ,Left ,66,6999800011753 ,43,7968030589884 ,68,9396848349085
6.4933228 ,Left ,66,6999800011753 ,43,7968030589884 ,68,9396848349085
6.5157323 ,Left ,66,7410185668839 ,43,7992317485466 ,68,9582896877046
6.5157355 ,Left ,66,7410185668839 ,43,7992317485466 ,68,9582896877046
6.5386588 ,Left ,66,7719381869676 ,43,8128850087129 ,68,9655391441708
6.5386642 ,Left ,66,7719381869676 ,43,8128850087129 ,68,9655391441708
6.5685998 ,Left ,66,8007440713768 ,43,8739629711283 ,68,968406933918
6.5686049 ,Left ,66,8007440713768 ,43,8739629711283 ,68,968406933918
6.5910926 ,Left ,66,8005768798617 ,43,9191623220739 ,68,9636295265397
6.5910979 ,Left ,66,8005768798617 ,43,9191623220739 ,68,9636295265397
6.6134769 ,Left ,66,7873164816543 ,43,9472819284213 ,68,9475411659635
6.6134821 ,Left ,66,7873164816543 ,43,9472819284213 ,68,9475411659635
6.6285733 ,Left ,66,7774842827168 ,43,9554563071051 ,68,9344341805503
6.6285785 ,Left ,66,7774842827168 ,43,9554563071051 ,68,9344341805503
6.6511294 ,Left ,66,7659531409615 ,43,9516325610115 ,68,9061103661701
6.6511346 ,Left ,66,7659531409615 ,43,9516325610115 ,68,9061103661701
6.6731229 ,Left ,66,7183421673637 ,43,9473271355594 ,68,8638560724399
6.6731248 ,Left ,66,7183421673637 ,43,9473271355594 ,68,8638560724399
6.6882232 ,Left ,66,6097229376819 ,43,959434672044 ,68,8497327013672
6.6882249 ,Left ,66,6097229376819 ,43,959434672044 ,68,8497327013672
6.7183117 ,Left ,66,4948429703574 ,43,9959060738342 ,68,8340771364291
6.7183136 ,Left ,66,4948429703574 ,43,9959060738342 ,68,8340771364291
6.7406457 ,Left ,66,3938071752583 ,44,0586881565485 ,68,8166391078625
6.7406476 ,Left ,66,3938071752583 ,44,0586881565485 ,68,8166391078625
6.7557921 ,Left ,66,4488449708875 ,44,0948431151115 ,68,8334673601694
6.7557949 ,Left ,66,4488449708875 ,44,0948431151115 ,68,8334673601694
6.7709462 ,Left ,66,4627537768308 ,44,144663202814 ,68,8394947433881
6.7709503 ,Left ,66,4627537768308 ,44,144663202814 ,68,8394947433881
6.8007994 ,Left ,66,5274001497774 ,44,1312571379825 ,68,834963911732
6.8008029 ,Left ,66,5274001497774 ,44,1312571379825 ,68,834963911732
6.8160405 ,Left ,66,5323087601511 ,44,1378119393926 ,68,839174725523
6.8160442 ,Left ,66,5323087601511 ,44,1378119393926 ,68,839174725523
6.8384783 ,Left ,66,5096863095249 ,44,1400751033497 ,68,8503555365645
6.8384845 ,Left ,66,5096863095249 ,44,1400751033497 ,68,8503555365645
6.8533985 ,Left ,66,5591543204056 ,44,130626339377 ,68,8473120867982
6.8534022 ,Left ,66,5591543204056 ,44,130626339377 ,68,8473120867982
6.8682315 ,Left ,66,5784063688273 ,44,1289407299555 ,68,8447925628647
6.8682348 ,Left ,66,5784063688273 ,44,1289407299555 ,68,8447925628647
6.8908321 ,Left ,66,5648045062025 ,44,1265476537113 ,68,8436343077892
6.8908358 ,Left ,66,5648045062025 ,44,1265476537113 ,68,8436343077892
6.9134054 ,Left ,66,5730492331073 ,44,1291343516209 ,68,8467161396424
6.9134092 ,Left ,66,5730492331073 ,44,1291343516209 ,68,8467161396424
6.9282253 ,Left ,66,5567103697691 ,44,122928978761 ,68,8432016286693
6.9282289 ,Left ,66,5567103697691 ,44,122928978761 ,68,8432016286693
6.9508781 ,Left ,66,563555825134 ,44,0970413423098 ,68,8113415634324
6.9508818 ,Left ,66,563555825134 ,44,0970413423098 ,68,8113415634324
6.9731815 ,Left ,66,5496042531876 ,44,0492266870369 ,68,7705738270456
6.9731834 ,Left ,66,5496042531876 ,44,0492266870369 ,68,7705738270456
6.9957719 ,Left ,66,543644252143 ,43,9984030165045 ,68,7183701476836
6.9957744 ,Left ,66,543644252143 ,43,9984030165045 ,68,7183701476836
7.0189416 ,Left ,66,535880070291 ,43,9753085648022 ,68,6761504158021
7.0189493 ,Left ,66,535880070291 ,43,9753085648022 ,68,6761504158021
7.048442 ,Left ,66,5189622788857 ,43,991930567732 ,68,630612861988
7.0484476 ,Left ,66,5189622788857 ,43,991930567732 ,68,630612861988
7.0710456 ,Left ,66,5472356419896 ,44,0070711537848 ,68,6083999646804
7.0710499 ,Left ,66,5472356419896 ,44,0070711537848 ,68,6083999646804
7.0932929 ,Left ,66,5401722418173 ,44,0346587695765 ,68,5938044896
7.0932972 ,Left ,66,5401722418173 ,44,0346587695765 ,68,5938044896
7.1084582 ,Left ,66,5108334278048 ,44,0716598036551 ,68,5878520732947
7.1084625 ,Left ,66,5108334278048 ,44,0716598036551 ,68,5878520732947
7.1310207 ,Left ,66,5048271114569 ,44,1032300213774 ,68,581264394439
7.1310251 ,Left ,66,5048271114569 ,44,1032300213774 ,68,581264394439
7.1534408 ,Left ,66,5074187363605 ,44,1693912300693 ,68,601876361307
7.1534451 ,Left ,66,5074187363605 ,44,1693912300693 ,68,601876361307
7.168602 ,Left ,66,4057864161184 ,44,2791144701496 ,68,6276533029963
7.1686064 ,Left ,66,4057864161184 ,44,2791144701496 ,68,6276533029963
7.1910335 ,Left ,66,3939734344539 ,44,3229859214136 ,68,6959140159313
7.1910379 ,Left ,66,3939734344539 ,44,3229859214136 ,68,6959140159313
7.2134193 ,Left ,66,525194486133 ,44,3850164303689 ,68,7773781083128
7.2134226 ,Left ,66,525194486133 ,44,3850164303689 ,68,7773781083128
7.2365618 ,Left ,66,6028075284883 ,44,4637913564654 ,68,8037999831783
7.2365697 ,Left ,66,6028075284883 ,44,4637913564654 ,68,8037999831783
7.2514239 ,Left ,66,6365990078679 ,44,4863348265303 ,68,8018457185469
7.2514318 ,Left ,66,6365990078679 ,44,4863348265303 ,68,8018457185469
7.2738959 ,Left ,66,6691729283325 ,44,4578076496205 ,68,7892274986095
7.2739084 ,Left ,66,6691729283325 ,44,4578076496205 ,68,7892274986095
7.295944 ,Left ,66,6810071227354 ,44,4142734818602 ,68,7763573675754
7.2959485 ,Left ,66,6810071227354 ,44,4142734818602 ,68,7763573675754
7.3107852 ,Left ,66,694900794151 ,44,3498409755397 ,68,7625655122264
7.31079 ,Left ,66,694900794151 ,44,3498409755397 ,68,7625655122264
7.3332432 ,Left ,66,7269621933359 ,44,3054810271112 ,68,7359962115889
7.3332462 ,Left ,66,7269621933359 ,44,3054810271112 ,68,7359962115889
7.3557624 ,Left ,66,784707837717 ,44,28648685688 ,68,6891511203443
7.3557654 ,Left ,66,784707837717 ,44,28648685688 ,68,6891511203443
7.3709125 ,Left ,66,8395907869872 ,44,2860985351866 ,68,6450018132403
7.3709155 ,Left ,66,8395907869872 ,44,2860985351866 ,68,6450018132403
7.3932852 ,Left ,66,9187362946721 ,44,2907665192221 ,68,6295571534472
7.3932885 ,Left ,66,9187362946721 ,44,2907665192221 ,68,6295571534472
7.4158315 ,Left ,67,0213676481053 ,44,2987854186151 ,68,6301681540291
7.4158346 ,Left ,67,0213676481053 ,44,2987854186151 ,68,6301681540291
7.430736 ,Left ,67,0804279846565 ,44,2972720663053 ,68,6458845235944
7.430739 ,Left ,67,0804279846565 ,44,2972720663053 ,68,6458845235944
7.453386 ,Left ,67,1365771090535 ,44,3009394976291 ,68,6607439592412
7.4533891 ,Left ,67,1365771090535 ,44,3009394976291 ,68,6607439592412
7.4759304 ,Left ,67,1839719623851 ,44,3113515577525 ,68,6712330442863
7.4759353 ,Left ,67,1839719623851 ,44,3113515577525 ,68,6712330442863
7.4908783 ,Left ,67,2157011203128 ,44,326003660591 ,68,680289069695
7.4908824 ,Left ,67,2157011203128 ,44,326003660591 ,68,680289069695
7.5135746 ,Left ,67,2429067926964 ,44,3345253964383 ,68,6972598667598
7.5135792 ,Left ,67,2429067926964 ,44,3345253964383 ,68,6972598667598
7.5361808 ,Left ,67,2523736290883 ,44,3338960001918 ,68,7140189355351
7.5361854 ,Left ,67,2523736290883 ,44,3338960001918 ,68,7140189355351
7.5508439 ,Left ,67,2724048605877 ,44,3280431205875 ,68,7247819094648
7.5508481 ,Left ,67,2724048605877 ,44,3280431205875 ,68,7247819094648
7.5734165 ,Left ,67,281528946037 ,44,315614290346 ,68,7323391925095
7.5734209 ,Left ,67,281528946037 ,44,315614290346 ,68,7323391925095
7.5959555 ,Left ,67,2895679009325 ,44,3035469609841 ,68,7459834250964
7.59596 ,Left ,67,2895679009325 ,44,3035469609841 ,68,7459834250964
7.6110628 ,Left ,67,2937275652935 ,44,2950748745661 ,68,7603924358132
7.6110676 ,Left ,67,2937275652935 ,44,2950748745661 ,68,7603924358132
7.633216 ,Left ,67,3053318106155 ,44,2911884843329 ,68,7673700708465
7.633218 ,Left ,67,3053318106155 ,44,2911884843329 ,68,7673700708465
7.6558605 ,Left ,67,2941006127426 ,44,2884675461744 ,68,766032401512
7.6558625 ,Left ,67,2941006127426 ,44,2884675461744 ,68,766032401512
7.6787894 ,Left ,67,2999303497138 ,44,2678200845803 ,68,7538614749885
7.678804 ,Left ,67,2999303497138 ,44,2678200845803 ,68,7538614749885
7.7010061 ,Left ,67,2869030136371 ,44,2499093262778 ,68,7323634786487
7.7010091 ,Left ,67,2869030136371 ,44,2499093262778 ,68,7323634786487
7.7309571 ,Left ,67,224127940854 ,44,2443194564802 ,68,7086636418041
7.7309598 ,Left ,67,224127940854 ,44,2443194564802 ,68,7086636418041
7.7547252 ,Left ,67,2361738824493 ,44,2401013983844 ,68,6943738866961
7.7547279 ,Left ,67,2361738824493 ,44,2401013983844 ,68,6943738866961
7.7757423 ,Left ,67,2421706092485 ,44,2360671650589 ,68,666763395853
7.7757444 ,Left ,67,2421706092485 ,44,2360671650589 ,68,666763395853
7.805897 ,Left ,66,9493468746711 ,44,2827638377342 ,68,7332570769962
7.8058994 ,Left ,66,9493468746711 ,44,2827638377342 ,68,7332570769962
7.8357005 ,Left ,66,8393682550206 ,44,1150303855401 ,68,746564834646
7.8357038 ,Left ,66,8393682550206 ,44,1150303855401 ,68,746564834646
7.8585078 ,Left ,66,9785751957495 ,44,0357474835995 ,68,6630435465019
7.858511 ,Left ,66,9785751957495 ,44,0357474835995 ,68,6630435465019
7.8733226 ,Left ,67,1438908186033 ,44,152675299995 ,68,5447415104338
7.8733259 ,Left ,67,1438908186033 ,44,152675299995 ,68,5447415104338
7.888168 ,Left ,67,1418356252173 ,44,388471042093 ,68,484541617079
7.8881697 ,Left ,67,1418356252173 ,44,388471042093 ,68,484541617079
7.9106694 ,Left ,66,9135396704001 ,44,59186651728 ,68,4894008569335
7.9106713 ,Left ,66,9135396704001 ,44,59186651728 ,68,4894008569335
7.925724 ,Left ,66,7938380570683 ,44,8779891035255 ,68,4323030777105
7.9257266 ,Left ,66,7938380570683 ,44,8779891035255 ,68,4323030777105
7.9485006 ,Left ,66,706242967875 ,44,9651606475782 ,68,3174075238676
7.9485042 ,Left ,66,706242967875 ,44,9651606475782 ,68,3174075238676
7.9782427 ,Left ,66,6327556279553 ,44,99692125599 ,68,2159683262693
7.978245 ,Left ,66,6327556279553 ,44,99692125599 ,68,2159683262693
7.9932127 ,Left ,66,5302627432999 ,44,9994149901446 ,68,1086062076024
7.9932149 ,Left ,66,5302627432999 ,44,9994149901446 ,68,1086062076024
8.0231883 ,Left ,66,4208737150562 ,44,9919864050339 ,68,018459927917
8.0231905 ,Left ,66,4208737150562 ,44,9919864050339 ,68,018459927917
8.0380039 ,Left ,66,2895546215449 ,44,990720783379 ,67,9504368201275
8.0380058 ,Left ,66,2895546215449 ,44,990720783379 ,67,9504368201275
8.0532608 ,Left ,66,2027873863055 ,44,9294044212104 ,67,8774697007393
8.0532628 ,Left ,66,2027873863055 ,44,9294044212104 ,67,8774697007393
8.0985407 ,Left ,65,9741436327674 ,44,6137073112859 ,67,8436352704237
8.0985433 ,Left ,65,9741436327674 ,44,6137073112859 ,67,8436352704237
8.1132251 ,Left ,65,8494551599898 ,44,6981365445223 ,67,8709880536695
8.1132314 ,Left ,65,8494551599898 ,44,6981365445223 ,67,8709880536695
8.1359991 ,Left ,65,7399068272729 ,44,7085924290831 ,67,9147063857719
8.1360028 ,Left ,65,7399068272729 ,44,7085924290831 ,67,9147063857719
8.165922 ,Left ,65,7764824997329 ,44,6781052867269 ,67,9328074978036
8.1659256 ,Left ,65,7764824997329 ,44,6781052867269 ,67,9328074978036
8.1958806 ,Left ,65,9129064077306 ,44,5463241715973 ,67,9051006379998
8.1958843 ,Left ,65,9129064077306 ,44,5463241715973 ,67,9051006379998
8.218314 ,Left ,66,0121554109085 ,44,3901936959767 ,67,8788025337746
8.2183159 ,Left ,66,0121554109085 ,44,3901936959767 ,67,8788025337746
8.2330321 ,Left ,66,0898700235765 ,44,2774185029134 ,67,8766570290258
8.2330342 ,Left ,66,0898700235765 ,44,2774185029134 ,67,8766570290258
8.248125 ,Left ,66,1650873357597 ,44,2306670817345 ,67,8878825003896
8.2481271 ,Left ,66,1650873357597 ,44,2306670817345 ,67,8878825003896
8.2706662 ,Left ,66,2311213050706 ,44,1988211865046 ,67,9078672647708
8.2706685 ,Left ,66,2311213050706 ,44,1988211865046 ,67,9078672647708
8.2932774 ,Left ,66,2897456209768 ,44,1574359247468 ,67,9332173682347
8.2932799 ,Left ,66,2897456209768 ,44,1574359247468 ,67,9332173682347
8.3080894 ,Left ,66,3465007669065 ,44,0985946748175 ,67,952977119435
8.3080914 ,Left ,66,3465007669065 ,44,0985946748175 ,67,952977119435
8.3307844 ,Left ,66,3625991509596 ,44,0440371366394 ,67,9756076175841
8.3307867 ,Left ,66,3625991509596 ,44,0440371366394 ,67,9756076175841
8.3530343 ,Left ,66,3408557433814 ,44,0067442084701 ,68,0031113773438
8.3530362 ,Left ,66,3408557433814 ,44,0067442084701 ,68,0031113773438
8.3681023 ,Left ,66,2954059448521 ,44,0110764009267 ,68,0258323291704
8.3681043 ,Left ,66,2954059448521 ,44,0110764009267 ,68,0258323291704
8.3906213 ,Left ,66,3632050572124 ,44,043502194796 ,68,0275278705859
8.3906231 ,Left ,66,3632050572124 ,44,043502194796 ,68,0275278705859
8.4133845 ,Left ,66,3980945330714 ,44,0783078994171 ,68,0304679619965
8.413387 ,Left ,66,3980945330714 ,44,0783078994171 ,68,0304679619965
8.4282215 ,Left ,66,3048656049129 ,44,1139034717426 ,68,0879659920629
8.4282246 ,Left ,66,3048656049129 ,44,1139034717426 ,68,0879659920629
8.4507324 ,Left ,66,3639600857039 ,44,1721949567873 ,68,1641878555903
8.4507359 ,Left ,66,3639600857039 ,44,1721949567873 ,68,1641878555903
8.4732443 ,Left ,66,532973704336 ,44,2649165645488 ,68,2216204119868
8.4732502 ,Left ,66,532973704336 ,44,2649165645488 ,68,2216204119868
8.4881042 ,Left ,66,6008643238978 ,44,2903953333593 ,68,2392239878312
8.488106 ,Left ,66,6008643238978 ,44,2903953333593 ,68,2392239878312
8.5106247 ,Left ,66,7212987551105 ,44,2864396150636 ,68,2706080637392
8.5106268 ,Left ,66,7212987551105 ,44,2864396150636 ,68,2706080637392
8.533359 ,Left ,66,8040591561049 ,44,3051013610512 ,68,3206800279541
8.5333618 ,Left ,66,8040591561049 ,44,3051013610512 ,68,3206800279541
8.5486334 ,Left ,66,8528899037751 ,44,3473301788092 ,68,3786587045896
8.5486418 ,Left ,66,8528899037751 ,44,3473301788092 ,68,3786587045896
8.5711067 ,Left ,66,931354568092 ,44,4015952945544 ,68,4173626627314
8.5711118 ,Left ,66,931354568092 ,44,4015952945544 ,68,4173626627314
8.5935681 ,Left ,67,004140868602 ,44,4277855699311 ,68,4380352501647
8.5935737 ,Left ,67,004140868602 ,44,4277855699311 ,68,4380352501647
8.6161103 ,Left ,67,0620733890463 ,44,4346864559227 ,68,4547419322423
8.6161157 ,Left ,67,0620733890463 ,44,4346864559227 ,68,4547419322423
8.6385914 ,Left ,67,1486866986539 ,44,4502242886408 ,68,482834478382
8.638597 ,Left ,67,1486866986539 ,44,4502242886408 ,68,482834478382
8.6533672 ,Left ,67,1869837761053 ,44,4492348273789 ,68,5355779695082
8.6533706 ,Left ,67,1869837761053 ,44,4492348273789 ,68,5355779695082
8.6757594 ,Left ,67,2140895173336 ,44,4428609593602 ,68,591868484409
8.675762 ,Left ,67,2140895173336 ,44,4428609593602 ,68,591868484409
8.6984017 ,Left ,67,2566795347246 ,44,4064012791974 ,68,6246887482181
8.6984043 ,Left ,67,2566795347246 ,44,4064012791974 ,68,6246887482181
8.7132166 ,Left ,67,2904471867262 ,44,3330240655158 ,68,6509611231091
8.7132196 ,Left ,67,2904471867262 ,44,3330240655158 ,68,6509611231091
8.7359282 ,Left ,67,3746906970409 ,44,2606274440448 ,68,6840655381433
8.7359308 ,Left ,67,3746906970409 ,44,2606274440448 ,68,6840655381433
8.7581301 ,Left ,67,4607972423962 ,44,2096847022352 ,68,7199272910803
8.7581319 ,Left ,67,4607972423962 ,44,2096847022352 ,68,7199272910803
8.7732015 ,Left ,67,511287864177 ,44,1666208461195 ,68,7607341787693
8.7732037 ,Left ,67,511287864177 ,44,1666208461195 ,68,7607341787693
8.7956994 ,Left ,67,580218863201 ,44,151168861689 ,68,7965534801136
8.7957015 ,Left ,67,580218863201 ,44,151168861689 ,68,7965534801136
8.8183906 ,Left ,67,6316323026718 ,44,1530937029877 ,68,840584592643
8.8183928 ,Left ,67,6316323026718 ,44,1530937029877 ,68,840584592643
8.833214 ,Left ,67,6785552906373 ,44,1653492678361 ,68,8892705670045
8.8332167 ,Left ,67,6785552906373 ,44,1653492678361 ,68,8892705670045
8.8561139 ,Left ,67,75604136162 ,44,1824371866742 ,68,9488140204618
8.8561185 ,Left ,67,75604136162 ,44,1824371866742 ,68,9488140204618
8.8781837 ,Left ,67,8383360681239 ,44,1904744870308 ,69,0112799029844
8.8781862 ,Left ,67,8383360681239 ,44,1904744870308 ,69,0112799029844
8.9007131 ,Left ,67,912310822988 ,44,1932500091378 ,69,0754022434625
8.900717 ,Left ,67,912310822988 ,44,1932500091378 ,69,0754022434625
8.9157378 ,Left ,67,9571595984709 ,44,1926667395961 ,69,1518053050222
8.9157404 ,Left ,67,9571595984709 ,44,1926667395961 ,69,1518053050222
8.9383491 ,Left ,68,0056782138736 ,44,2012248144314 ,69,219238173043
8.9383533 ,Left ,68,0056782138736 ,44,2012248144314 ,69,219238173043
8.9534075 ,Left ,68,0503608643357 ,44,195339430693 ,69,2593795085698
8.9534174 ,Left ,68,0503608643357 ,44,195339430693 ,69,2593795085698
8.9758672 ,Left ,68,0987480633558 ,44,1793066780054 ,69,2795359033574
8.9758691 ,Left ,68,0987480633558 ,44,1793066780054 ,69,2795359033574
8.9983226 ,Left ,68,1618674693786 ,44,1629627463035 ,69,2974520527876
8.9983245 ,Left ,68,1618674693786 ,44,1629627463035 ,69,2974520527876
9.0131484 ,Left ,68,2164206138784 ,44,1485414846375 ,69,3235971724954
9.0131505 ,Left ,68,2164206138784 ,44,1485414846375 ,69,3235971724954
9.0357916 ,Left ,68,2656534584621 ,44,1368299168895 ,69,3467051076453
9.0357943 ,Left ,68,2656534584621 ,44,1368299168895 ,69,3467051076453
9.0585535 ,Left ,68,3128508688049 ,44,1291641003712 ,69,3748209255132
9.0585573 ,Left ,68,3128508688049 ,44,1291641003712 ,69,3748209255132
9.0733455 ,Left ,68,3479062806487 ,44,1232548645392 ,69,4004603654571
9.0733492 ,Left ,68,3479062806487 ,44,1232548645392 ,69,4004603654571
9.0957289 ,Left ,68,3723965565539 ,44,1217612107763 ,69,4225573300243
9.0957355 ,Left ,68,3723965565539 ,44,1217612107763 ,69,4225573300243
9.1183258 ,Left ,68,406154924934 ,44,1300357037901 ,69,43404984212
9.1183278 ,Left ,68,406154924934 ,44,1300357037901 ,69,43404984212
9.1332875 ,Left ,68,4481119928454 ,44,1404938881878 ,69,4366693821978
9.1332896 ,Left ,68,4481119928454 ,44,1404938881878 ,69,4366693821978
9.1555713 ,Left ,68,4994616713842 ,44,1507412905465 ,69,4389775779573
9.1555731 ,Left ,68,4994616713842 ,44,1507412905465 ,69,4389775779573
9.178843 ,Left ,68,5142779228003 ,44,1571184397583 ,69,4534784073139
9.1788508 ,Left ,68,5142779228003 ,44,1571184397583 ,69,4534784073139
9.1938096 ,Left ,68,5041187685605 ,44,1606454481817 ,69,4650432693778
9.1938172 ,Left ,68,5041187685605 ,44,1606454481817 ,69,4650432693778
9.2164743 ,Left ,68,5141347150558 ,44,1639699340909 ,69,4700253185318
9.2164823 ,Left ,68,5141347150558 ,44,1639699340909 ,69,4700253185318
9.2386367 ,Left ,68,5318675750048 ,44,1691392460749 ,69,4657090225254
9.2386423 ,Left ,68,5318675750048 ,44,1691392460749 ,69,4657090225254
9.2535962 ,Left ,68,556582083761 ,44,185679055831 ,69,4606345705399
9.2536042 ,Left ,68,556582083761 ,44,185679055831 ,69,4606345705399
9.2759828 ,Left ,68,5574414344459 ,44,1995710104261 ,69,4657759437879
9.2759881 ,Left ,68,5574414344459 ,44,1995710104261 ,69,4657759437879
9.2982369 ,Left ,68,5550960271568 ,44,2090336510774 ,69,4800080309759
9.2982392 ,Left ,68,5550960271568 ,44,2090336510774 ,69,4800080309759
9.3206498 ,Left ,68,5397412217292 ,44,2158538953303 ,69,4982508179567
9.320652 ,Left ,68,5397412217292 ,44,2158538953303 ,69,4982508179567
9.3280242 ,Left ,68,5349625556789 ,44,2201738443819 ,69,5150819766848
9.328026 ,Left ,68,5349625556789 ,44,2201738443819 ,69,5150819766848
9.3506147 ,Left ,68,5393762646913 ,44,2254007510871 ,69,5289437510504
9.3506164 ,Left ,68,5393762646913 ,44,2254007510871 ,69,5289437510504
9.3885583 ,Left ,68,5488502599848 ,44,2367276869665 ,69,5669136621847
9.3885622 ,Left ,68,5488502599848 ,44,2367276869665 ,69,5669136621847
9.4108662 ,Left ,68,5406354981886 ,44,2309207235326 ,69,583172787997
9.4108775 ,Left ,68,5406354981886 ,44,2309207235326 ,69,583172787997
9.4487402 ,Left ,68,5408331475784 ,44,2168317679565 ,69,613102284948
9.4487819 ,Left ,68,5408331475784 ,44,2168317679565 ,69,613102284948
9.4708468 ,Left ,68,5453565811829 ,44,2105258133425 ,69,6203637272516
9.4708487 ,Left ,68,5453565811829 ,44,2105258133425 ,69,6203637272516
9.5081247 ,Left ,68,5683706010491 ,44,2137772991532 ,69,6262336226203
9.5081265 ,Left ,68,5683706010491 ,44,2137772991532 ,69,6262336226203
9.5307229 ,Left ,68,5647048188298 ,44,2073648024134 ,69,6277254365144
9.5307253 ,Left ,68,5647048188298 ,44,2073648024134 ,69,6277254365144
9.5682818 ,Left ,68,5599278917304 ,44,1949710827091 ,69,638107291811
9.5682962 ,Left ,68,5599278917304 ,44,1949710827091 ,69,638107291811
9.5906364 ,Left ,68,5599278917304 ,44,1949710827091 ,69,638107291811
9.5906392 ,Left ,68,5599278917304 ,44,1949710827091 ,69,638107291811
9.6059827 ,Left ,68,571653868776 ,44,1920945055253 ,69,6305636466196
9.6059856 ,Left ,68,571653868776 ,44,1920945055253 ,69,6305636466196
9.6282152 ,Left ,68,5784994647133 ,44,1878339833164 ,69,6206707508057
9.6282175 ,Left ,68,5784994647133 ,44,1878339833164 ,69,6206707508057
9.6508233 ,Left ,68,5791132937676 ,44,1819285506044 ,69,6142726136626
9.6508254 ,Left ,68,5791132937676 ,44,1819285506044 ,69,6142726136626
9.6887493 ,Left ,68,5775495288474 ,44,1697740294382 ,69,603571747665
9.6887549 ,Left ,68,5775495288474 ,44,1697740294382 ,69,603571747665
9.7111093 ,Left ,68,5769297019885 ,44,1714934078614 ,69,5980225478876
9.7111136 ,Left ,68,5769297019885 ,44,1714934078614 ,69,5980225478876
9.7488745 ,Left ,68,5686842411002 ,44,1760940268699 ,69,5822796466208
9.7488866 ,Left ,68,5686842411002 ,44,1760940268699 ,69,5822796466208
9.7710243 ,Left ,68,5714153670693 ,44,1686334953541 ,69,575637065948
9.7710286 ,Left ,68,5714153670693 ,44,1686334953541 ,69,575637065948
9.8086832 ,Left ,68,535530436758 ,44,1794309886447 ,69,57082726423
9.8086903 ,Left ,68,535530436758 ,44,1794309886447 ,69,57082726423
9.8384903 ,Left ,68,4954028732466 ,44,2382471395841 ,69,5956313659632
9.8384982 ,Left ,68,4954028732466 ,44,2382471395841 ,69,5956313659632
9.8755852 ,Left ,68,6641947281039 ,43,9653116769331 ,69,5113443273954
9.8755875 ,Left ,68,6641947281039 ,43,9653116769331 ,69,5113443273954
9.8909227 ,Left ,68,4936519765865 ,44,0229524770489 ,69,5632726386814
9.8909257 ,Left ,68,4936519765865 ,44,0229524770489 ,69,5632726386814
9.9282055 ,Left ,68,4491055662889 ,44,0347200614883 ,69,5693938751687
9.9282076 ,Left ,68,4491055662889 ,44,0347200614883 ,69,5693938751687
9.9508244 ,Left ,68,5503055751309 ,44,1559770490379 ,69,5332836533362
9.9508267 ,Left ,68,5503055751309 ,44,1559770490379 ,69,5332836533362
9.9957664 ,Left ,68,6183318236954 ,44,2721226650285 ,69,5140324263924
9.9957693 ,Left ,68,6183318236954 ,44,2721226650285 ,69,5140324263924
10.0482871 ,Left ,68,5994629063533 ,44,2281385696431 ,69,5332263366941
10.0482928 ,Left ,68,5994629063533 ,44,2281385696431 ,69,5332263366941
10.070999 ,Left ,68,6015028920107 ,44,4335811505566 ,69,5242291534111
10.071003 ,Left ,68,6015028920107 ,44,4335811505566 ,69,5242291534111
10.1081521 ,Left ,68,5320396813565 ,44,435706538195 ,69,5194187952983
10.1081538 ,Left ,68,5320396813565 ,44,435706538195 ,69,5194187952983
10.1306352 ,Left ,68,3929662415043 ,44,4151561505594 ,69,5492551592149
10.1306377 ,Left ,68,3929662415043 ,44,4151561505594 ,69,5492551592149
10.1682366 ,Left ,68,3482592132447 ,44,4555004070139 ,69,5335808856993
10.1682385 ,Left ,68,3482592132447 ,44,4555004070139 ,69,5335808856993
10.1908722 ,Left ,68,331108988515 ,44,4552962829233 ,69,518830277785
10.1908746 ,Left ,68,331108988515 ,44,4552962829233 ,69,518830277785
10.2281481 ,Left ,68,274873391011 ,44,445808256888 ,69,5182028299325
10.228151 ,Left ,68,274873391011 ,44,445808256888 ,69,5182028299325
10.2509063 ,Left ,68,2461180333259 ,44,4360143757127 ,69,5164043724334
10.2509088 ,Left ,68,2461180333259 ,44,4360143757127 ,69,5164043724334
10.2887529 ,Left ,68,227588952956 ,44,4167215491035 ,69,5373724775343
10.2887603 ,Left ,68,227588952956 ,44,4167215491035 ,69,5373724775343
10.3110183 ,Left ,68,2256052633604 ,44,4002039225969 ,69,5555698045888
10.3110239 ,Left ,68,2256052633604 ,44,4002039225969 ,69,5555698045888
10.3487718 ,Left ,68,1956535248107 ,44,3505021330648 ,69,5936138435873
10.3487775 ,Left ,68,1956535248107 ,44,3505021330648 ,69,5936138435873
10.3711714 ,Left ,68,1813857123162 ,44,3449139689401 ,69,620635945069
10.371177 ,Left ,68,1813857123162 ,44,3449139689401 ,69,620635945069
10.4086218 ,Left ,68,1591825471812 ,44,3478230415949 ,69,6656979859659
10.4086261 ,Left ,68,1591825471812 ,44,3478230415949 ,69,6656979859659
10.4310118 ,Left ,68,1553308530119 ,44,3406945080437 ,69,6887890154966
10.4310161 ,Left ,68,1553308530119 ,44,3406945080437 ,69,6887890154966
10.4684944 ,Left ,68,1204257294059 ,44,3103905550505 ,69,7115208274566
10.4684991 ,Left ,68,1204257294059 ,44,3103905550505 ,69,7115208274566
10.491044 ,Left ,68,0904760862973 ,44,311128017699 ,69,7249195118583
10.4910484 ,Left ,68,0904760862973 ,44,311128017699 ,69,7249195118583
10.5282614 ,Left ,68,0568147481969 ,44,3181455529222 ,69,7438089328942
10.5282639 ,Left ,68,0568147481969 ,44,3181455529222 ,69,7438089328942
10.5506432 ,Left ,68,0425280178315 ,44,3263055746289 ,69,7409323002995
10.550645 ,Left ,68,0425280178315 ,44,3263055746289 ,69,7409323002995
10.5883377 ,Left ,67,9918693615992 ,44,3610279383357 ,69,7261887700483
10.5883406 ,Left ,67,9918693615992 ,44,3610279383357 ,69,7261887700483
10.6106235 ,Left ,67,9639145866373 ,44,3901647624269 ,69,7151916013103
10.6106253 ,Left ,67,9639145866373 ,44,3901647624269 ,69,7151916013103
10.6483614 ,Left ,67,8920964027811 ,44,4342007662054 ,69,6807284163557
10.6483646 ,Left ,67,8920964027811 ,44,4342007662054 ,69,6807284163557
10.6784557 ,Left ,67,8524852688609 ,44,4195746546053 ,69,6518396791384
10.67846 ,Left ,67,8524852688609 ,44,4195746546053 ,69,6518396791384
10.7158643 ,Left ,67,801270887044 ,44,3989138162621 ,69,5854748057626
10.7158684 ,Left ,67,801270887044 ,44,3989138162621 ,69,5854748057626
10.7310269 ,Left ,67,7615758712534 ,44,3925491252697 ,69,5583087621473
10.7310313 ,Left ,67,7615758712534 ,44,3925491252697 ,69,5583087621473
10.7685399 ,Left ,67,7457958161975 ,44,3519859064952 ,69,4856061967353
10.7685441 ,Left ,67,7457958161975 ,44,3519859064952 ,69,4856061967353
10.7910802 ,Left ,67,7218488188071 ,44,3241425272877 ,69,4638717824271
10.7910845 ,Left ,67,7218488188071 ,44,3241425272877 ,69,4638717824271
10.8284934 ,Left ,67,6084655013308 ,44,2833245787181 ,69,460046664744
10.8284976 ,Left ,67,6084655013308 ,44,2833245787181 ,69,460046664744
10.8510819 ,Left ,67,5189349902978 ,44,2643443014829 ,69,4688252620941
10.8510863 ,Left ,67,5189349902978 ,44,2643443014829 ,69,4688252620941
10.8885095 ,Left ,67,3260532842209 ,44,2722340311523 ,69,4736219405036
10.8885131 ,Left ,67,3260532842209 ,44,2722340311523 ,69,4736219405036
10.9109823 ,Left ,67,0941364225941 ,44,3455759612467 ,69,4540185197697
10.9109863 ,Left ,67,0941364225941 ,44,3455759612467 ,69,4540185197697
10.948441 ,Left ,67,1264738483344 ,44,4807274021576 ,69,5464127477772
10.9484449 ,Left ,67,1264738483344 ,44,4807274021576 ,69,5464127477772
10.9707176 ,Left ,67,1905051365542 ,44,568818943583 ,69,5268777197537
10.9707209 ,Left ,67,1905051365542 ,44,568818943583 ,69,5268777197537
11.0085398 ,Left ,67,1935787129539 ,44,6024407499295 ,69,4119648508507
11.0085432 ,Left ,67,1935787129539 ,44,6024407499295 ,69,4119648508507
11.0315554 ,Left ,67,1369964858473 ,44,628072971209 ,69,3648276518483
11.0315632 ,Left ,67,1369964858473 ,44,628072971209 ,69,3648276518483
11.0683939 ,Left ,66,9401367228199 ,44,6725142251239 ,69,1302664589041
11.0683985 ,Left ,66,9401367228199 ,44,6725142251239 ,69,1302664589041
11.0910305 ,Left ,66,9170254900804 ,44,6357578246348 ,68,9988737539496
11.0910351 ,Left ,66,9170254900804 ,44,6357578246348 ,68,9988737539496
11.1207161 ,Left ,66,8782306884058 ,44,4123022499979 ,68,8679898798356
11.1207177 ,Left ,66,8782306884058 ,44,4123022499979 ,68,8679898798356
11.1506182 ,Left ,66,7963417020332 ,44,3688292714012 ,68,859851966019
11.1506201 ,Left ,66,7963417020332 ,44,3688292714012 ,68,859851966019
11.165795 ,Left ,66,8211706893843 ,44,4766145513557 ,68,8483419332411
11.1657975 ,Left ,66,8211706893843 ,44,4766145513557 ,68,8483419332411
11.1812551 ,Left ,66,7948521013392 ,44,680053762455 ,68,8939803303896
11.1812627 ,Left ,66,7948521013392 ,44,680053762455 ,68,8939803303896
11.2035016 ,Left ,66,7387605473136 ,44,8320294920055 ,68,977270320903
11.2035069 ,Left ,66,7387605473136 ,44,8320294920055 ,68,977270320903
11.2258063 ,Left ,66,831809619051 ,44,8562462798562 ,69,0066617766154
11.2258082 ,Left ,66,831809619051 ,44,8562462798562 ,69,0066617766154
11.2406712 ,Left ,66,9737053517278 ,44,8368102614776 ,68,9852835002774
11.2406732 ,Left ,66,9737053517278 ,44,8368102614776 ,68,9852835002774
11.2631157 ,Left ,67,0588445682139 ,44,8130107206786 ,68,9591938562446
11.2631174 ,Left ,67,0588445682139 ,44,8130107206786 ,68,9591938562446
11.2858079 ,Left ,67,0620560229797 ,44,785562143705 ,68,9457996937685
11.2858102 ,Left ,67,0620560229797 ,44,785562143705 ,68,9457996937685
11.3009678 ,Left ,67,0786087049811 ,44,7617354811992 ,68,9288265124688
11.3009709 ,Left ,67,0786087049811 ,44,7617354811992 ,68,9288265124688
11.3232114 ,Left ,67,0967966770512 ,44,7530514961708 ,68,9169889393183
11.3232144 ,Left ,67,0967966770512 ,44,7530514961708 ,68,9169889393183
11.3458534 ,Left ,67,1350822351514 ,44,7571385445193 ,68,9170572328101
11.3458558 ,Left ,67,1350822351514 ,44,7571385445193 ,68,9170572328101
11.3607145 ,Left ,67,1737222450412 ,44,7659944232562 ,68,9077253503051
11.360717 ,Left ,67,1737222450412 ,44,7659944232562 ,68,9077253503051
11.383154 ,Left ,67,1955068793571 ,44,7665334354972 ,68,8987299632877
11.3831558 ,Left ,67,1955068793571 ,44,7665334354972 ,68,8987299632877
11.4056714 ,Left ,67,2101068279701 ,44,7349319133405 ,68,9038373847533
11.4056735 ,Left ,67,2101068279701 ,44,7349319133405 ,68,9038373847533
11.4208125 ,Left ,67,2058227303863 ,44,7047182648663 ,68,9255484112371
11.4208159 ,Left ,67,2058227303863 ,44,7047182648663 ,68,9255484112371
11.4433546 ,Left ,67,2144923211813 ,44,6598250916752 ,68,9400248365387
11.4433589 ,Left ,67,2144923211813 ,44,6598250916752 ,68,9400248365387
11.4659437 ,Left ,67,273747469926 ,44,6070442967888 ,68,936604008307
11.465948 ,Left ,67,273747469926 ,44,6070442967888 ,68,936604008307
11.4810861 ,Left ,67,2935927538394 ,44,5630384299648 ,68,9334844003704
11.4810905 ,Left ,67,2935927538394 ,44,5630384299648 ,68,9334844003704
11.5033276 ,Left ,67,2988062591705 ,44,5337735379592 ,68,9313233661443
11.5033319 ,Left ,67,2988062591705 ,44,5337735379592 ,68,9313233661443
11.5258712 ,Left ,67,3068086625548 ,44,5244133478796 ,68,9495281705876
11.5258754 ,Left ,67,3068086625548 ,44,5244133478796 ,68,9495281705876
11.5409789 ,Left ,67,3013796328079 ,44,5283546212997 ,68,9772424940568
11.5409831 ,Left ,67,3013796328079 ,44,5283546212997 ,68,9772424940568
11.5636583 ,Left ,67,3273160463618 ,44,5226143352685 ,69,0108011417875
11.5636625 ,Left ,67,3273160463618 ,44,5226143352685 ,69,0108011417875
11.5861289 ,Left ,67,3607554601871 ,44,5141148348745 ,69,0329355495796
11.5861332 ,Left ,67,3607554601871 ,44,5141148348745 ,69,0329355495796
11.6009505 ,Left ,67,3697471759233 ,44,4910935678272 ,69,0532278425575
11.6009548 ,Left ,67,3697471759233 ,44,4910935678272 ,69,0532278425575
11.6234081 ,Left ,67,3708904942202 ,44,4801102090298 ,69,0839266029885
11.6234123 ,Left ,67,3708904942202 ,44,4801102090298 ,69,0839266029885
11.6458768 ,Left ,67,3851788618735 ,44,4747676909872 ,69,105847131189
11.6458811 ,Left ,67,3851788618735 ,44,4747676909872 ,69,105847131189
11.6610155 ,Left ,67,3845434610948 ,44,4667115168462 ,69,1225977236417
11.6610199 ,Left ,67,3845434610948 ,44,4667115168462 ,69,1225977236417
11.6833776 ,Left ,67,3985627898271 ,44,435836791973 ,69,1342106514184
11.683382 ,Left ,67,3985627898271 ,44,435836791973 ,69,1342106514184
11.713341 ,Left ,67,4151266395303 ,44,4010492353315 ,69,1414477424918
11.7133451 ,Left ,67,4151266395303 ,44,4010492353315 ,69,1414477424918
11.7283316 ,Left ,67,4181083793201 ,44,3797192439474 ,69,1461039809732
11.7283357 ,Left ,67,4181083793201 ,44,3797192439474 ,69,1461039809732
11.751067 ,Left ,67,4332978552872 ,44,3563528324577 ,69,155903115936
11.7510718 ,Left ,67,4332978552872 ,44,3563528324577 ,69,155903115936
11.7808094 ,Left ,67,4061788777823 ,44,3227867390789 ,69,143440291532
11.7808135 ,Left ,67,4061788777823 ,44,3227867390789 ,69,143440291532
11.803333 ,Left ,67,3708717656134 ,44,319357594838 ,69,1325488778664
11.8033375 ,Left ,67,3708717656134 ,44,319357594838 ,69,1325488778664
11.8260877 ,Left ,67,3528595926358 ,44,3060980563585 ,69,1180094076167
11.826092 ,Left ,67,3528595926358 ,44,3060980563585 ,69,1180094076167
11.8405181 ,Left ,67,3163201799205 ,44,2766632258484 ,69,1055753863814
11.84052 ,Left ,67,3163201799205 ,44,2766632258484 ,69,1055753863814
11.8633215 ,Left ,67,2645023655134 ,44,23429160431 ,69,1008382879191
11.8633238 ,Left ,67,2645023655134 ,44,23429160431 ,69,1008382879191
11.8856759 ,Left ,67,1867207053303 ,44,2183488969393 ,69,1067729998797
11.8856873 ,Left ,67,1867207053303 ,44,2183488969393 ,69,1067729998797
11.9006366 ,Left ,67,0448942380377 ,44,216651621888 ,69,122696323557
11.9006382 ,Left ,67,0448942380377 ,44,216651621888 ,69,122696323557
11.9231206 ,Left ,66,9521876507859 ,44,2455881256527 ,69,1120278565325
11.9231234 ,Left ,66,9521876507859 ,44,2455881256527 ,69,1120278565325
11.9457275 ,Left ,66,9591324390782 ,44,2639849223962 ,69,1050216024697
11.9457294 ,Left ,66,9591324390782 ,44,2639849223962 ,69,1050216024697
11.9683609 ,Left ,66,9386145897153 ,44,303713443263 ,69,1048714739181
11.9683631 ,Left ,66,9386145897153 ,44,303713443263 ,69,1048714739181
11.9833673 ,Left ,66,934630523606 ,44,2736122101803 ,69,0917733970615
11.9833699 ,Left ,66,934630523606 ,44,2736122101803 ,69,0917733970615
12.0056781 ,Left ,66,9884404800245 ,44,2483204457304 ,69,0680805559498
12.0056799 ,Left ,66,9884404800245 ,44,2483204457304 ,69,0680805559498
12.0208034 ,Left ,66,977337453388 ,44,2552897023966 ,69,0539130725818
12.0208055 ,Left ,66,977337453388 ,44,2552897023966 ,69,0539130725818
12.0432083 ,Left ,66,9948737296027 ,44,2662785093263 ,69,0365694752838
12.0432105 ,Left ,66,9948737296027 ,44,2662785093263 ,69,0365694752838
12.0658763 ,Left ,67,0199359897315 ,44,274546807423 ,69,0197522111307
12.0658789 ,Left ,67,0199359897315 ,44,274546807423 ,69,0197522111307
12.0807496 ,Left ,67,0415078844158 ,44,262207750389 ,69,015785381092
12.0807517 ,Left ,67,0415078844158 ,44,262207750389 ,69,015785381092
12.1032248 ,Left ,67,0472598444286 ,44,2473583921379 ,69,0035382864257
12.1032273 ,Left ,67,0472598444286 ,44,2473583921379 ,69,0035382864257
12.1257212 ,Left ,66,9993406852312 ,44,2245112323204 ,68,9867130928587
12.125724 ,Left ,66,9993406852312 ,44,2245112323204 ,68,9867130928587
12.1482334 ,Left ,66,9527148298532 ,44,1921902169177 ,68,9745638398311
12.1482356 ,Left ,66,9527148298532 ,44,1921902169177 ,68,9745638398311
12.1636819 ,Left ,66,9588114664524 ,44,1681634286949 ,68,948889161297
12.1636896 ,Left ,66,9588114664524 ,44,1681634286949 ,68,948889161297
12.1863663 ,Left ,66,9459411638506 ,44,1569515018967 ,68,9224300374458
12.1863792 ,Left ,66,9459411638506 ,44,1569515018967 ,68,9224300374458
12.2088704 ,Left ,66,9344827115143 ,44,1440418864935 ,68,9072980167227
12.2088781 ,Left ,66,9344827115143 ,44,1440418864935 ,68,9072980167227
12.2238207 ,Left ,66,9447817070603 ,44,1135248594091 ,68,8764983345804
12.2238286 ,Left ,66,9447817070603 ,44,1135248594091 ,68,8764983345804
12.2465126 ,Left ,66,9449922115066 ,44,0923636855667 ,68,8420259882203
12.2465204 ,Left ,66,9449922115066 ,44,0923636855667 ,68,8420259882203
12.2687549 ,Left ,66,9224449778454 ,44,0995844816425 ,68,8286043161622
12.2687628 ,Left ,66,9224449778454 ,44,0995844816425 ,68,8286043161622
12.2838293 ,Left ,66,8888578631703 ,44,1346784355831 ,68,8236023539744
12.2838372 ,Left ,66,8888578631703 ,44,1346784355831 ,68,8236023539744
12.3060488 ,Left ,66,8778937213411 ,44,1722411844319 ,68,831118276021
12.3060532 ,Left ,66,8778937213411 ,44,1722411844319 ,68,831118276021
12.3358687 ,Left ,66,841898021985 ,44,1899934962068 ,68,849447748258
12.3358706 ,Left ,66,841898021985 ,44,1899934962068 ,68,849447748258
12.3508227 ,Left ,66,8007629863341 ,44,2227913748562 ,68,8416559637597
12.3508247 ,Left ,66,8007629863341 ,44,2227913748562 ,68,8416559637597
12.3732152 ,Left ,66,7344566461647 ,44,240584095802 ,68,8681829561044
12.3732174 ,Left ,66,7344566461647 ,44,240584095802 ,68,8681829561044
12.4031356 ,Left ,66,7439443842747 ,44,4179703424173 ,68,9254586845117
12.4031377 ,Left ,66,7439443842747 ,44,4179703424173 ,68,9254586845117
12.4257372 ,Left ,66,7425021939725 ,44,4150974328118 ,68,9147184878335
12.4257396 ,Left ,66,7425021939725 ,44,4150974328118 ,68,9147184878335
12.4485447 ,Left ,66,8316470183066 ,44,3864051315348 ,68,8886867542935
12.4485484 ,Left ,66,8316470183066 ,44,3864051315348 ,68,8886867542935
12.4635683 ,Left ,66,8586436697136 ,44,3682044228935 ,68,8620180928452
12.4635734 ,Left ,66,8586436697136 ,44,3682044228935 ,68,8620180928452
12.4855542 ,Left ,66,8472229663123 ,44,3568794789835 ,68,8419533796294
12.485556 ,Left ,66,8472229663123 ,44,3568794789835 ,68,8419533796294
12.5083438 ,Left ,66,8561073966868 ,44,3523024331341 ,68,803084839868
12.5083457 ,Left ,66,8561073966868 ,44,3523024331341 ,68,803084839868
12.5231687 ,Left ,66,8903755489207 ,44,3433797365598 ,68,7561668137803
12.5231708 ,Left ,66,8903755489207 ,44,3433797365598 ,68,7561668137803
12.5458894 ,Left ,66,9183192391372 ,44,3174514956684 ,68,7139250881082
12.5458918 ,Left ,66,9183192391372 ,44,3174514956684 ,68,7139250881082
12.5683347 ,Left ,66,949229978587 ,44,2917421488785 ,68,6961930602509
12.5683366 ,Left ,66,949229978587 ,44,2917421488785 ,68,6961930602509
12.5832127 ,Left ,66,9884635894066 ,44,2721528187975 ,68,6862363027399
12.5832148 ,Left ,66,9884635894066 ,44,2721528187975 ,68,6862363027399
12.6058568 ,Left ,67,0209198352433 ,44,2517809440835 ,68,6863690308054
12.6058593 ,Left ,67,0209198352433 ,44,2517809440835 ,68,6863690308054
12.6282217 ,Left ,67,0443719851437 ,44,2209306427169 ,68,6879360307962
12.6282254 ,Left ,67,0443719851437 ,44,2209306427169 ,68,6879360307962
12.643758 ,Left ,67,0803881642773 ,44,1841922253771 ,68,695194016369
12.6437656 ,Left ,67,0803881642773 ,44,1841922253771 ,68,695194016369
12.6663622 ,Left ,67,1161692545657 ,44,1581965321384 ,68,7110228047836
12.6663733 ,Left ,67,1161692545657 ,44,1581965321384 ,68,7110228047836
12.6892409 ,Left ,67,1396769423252 ,44,1325180706075 ,68,7242375676051
12.689254 ,Left ,67,1396769423252 ,44,1325180706075 ,68,7242375676051
12.7029946 ,Left ,67,1548784065843 ,44,0963298609662 ,68,7420862906629
12.7029964 ,Left ,67,1548784065843 ,44,0963298609662 ,68,7420862906629
12.7256211 ,Left ,67,1648457843867 ,44,06168447861 ,68,7716587937311
12.725623 ,Left ,67,1648457843867 ,44,06168447861 ,68,7716587937311
12.7481585 ,Left ,67,1775837675256 ,44,0307333452432 ,68,8037999807323
12.7481608 ,Left ,67,1775837675256 ,44,0307333452432 ,68,8037999807323
12.7635993 ,Left ,67,2057845186302 ,44,0047216534727 ,68,8241452208432
12.7636072 ,Left ,67,2057845186302 ,44,0047216534727 ,68,8241452208432
12.7865287 ,Left ,67,2455745672766 ,43,9925177280867 ,68,8330399992418
12.7865369 ,Left ,67,2455745672766 ,43,9925177280867 ,68,8330399992418
12.8083868 ,Left ,67,2703905983191 ,43,9811597593013 ,68,8390737818852
12.8083908 ,Left ,67,2703905983191 ,43,9811597593013 ,68,8390737818852
12.8231984 ,Left ,67,2594216577662 ,43,9763336766499 ,68,8431436631684
12.8232013 ,Left ,67,2594216577662 ,43,9763336766499 ,68,8431436631684
12.8457504 ,Left ,67,2240337656823 ,43,9640807663613 ,68,8405726602006
12.8457533 ,Left ,67,2240337656823 ,43,9640807663613 ,68,8405726602006
12.8683493 ,Left ,67,2161766844377 ,43,9577629925642 ,68,8234014323396
12.8683523 ,Left ,67,2161766844377 ,43,9577629925642 ,68,8234014323396
12.8832736 ,Left ,67,2086724663129 ,43,9451345302227 ,68,7971999904572
12.8832766 ,Left ,67,2086724663129 ,43,9451345302227 ,68,7971999904572
12.90581 ,Left ,67,2195941493356 ,43,9321814021336 ,68,7722001212549
12.9058133 ,Left ,67,2195941493356 ,43,9321814021336 ,68,7722001212549
12.9282592 ,Left ,67,2173801613619 ,43,9187040490132 ,68,7464645166428
12.9282715 ,Left ,67,2173801613619 ,43,9187040490132 ,68,7464645166428
12.9433389 ,Left ,67,2118057765604 ,43,9045881476935 ,68,7320470001841
12.9433427 ,Left ,67,2118057765604 ,43,9045881476935 ,68,7320470001841
12.9733504 ,Left ,67,2056522602168 ,43,8891051786936 ,68,7318873864568
12.9733541 ,Left ,67,2056522602168 ,43,8891051786936 ,68,7318873864568
12.995908 ,Left ,67,22997942673 ,43,8803098589625 ,68,7297849424371
12.9959118 ,Left ,67,22997942673 ,43,8803098589625 ,68,7297849424371
13.0110382 ,Left ,67,2643566603942 ,43,8711727384535 ,68,7328063637461
13.0110422 ,Left ,67,2643566603942 ,43,8711727384535 ,68,7328063637461
13.0332598 ,Left ,67,2967260647614 ,43,863110809806 ,68,7509740735111
13.0332617 ,Left ,67,2967260647614 ,43,863110809806 ,68,7509740735111
13.048403 ,Left ,67,3059538173798 ,43,8613161583515 ,68,7824630271275
13.048405 ,Left ,67,3059538173798 ,43,8613161583515 ,68,7824630271275
13.0633186 ,Left ,67,3042142437791 ,43,8598787653914 ,68,817736479562
13.0633205 ,Left ,67,3042142437791 ,43,8598787653914 ,68,817736479562
13.0859297 ,Left ,67,3236487310256 ,43,8611698745751 ,68,8469608954971
13.0859322 ,Left ,67,3236487310256 ,43,8611698745751 ,68,8469608954971
13.1082812 ,Left ,67,3466179145104 ,43,8532057351891 ,68,8754292950455
13.1082836 ,Left ,67,3466179145104 ,43,8532057351891 ,68,8754292950455
13.1308269 ,Left ,67,367247182551 ,43,8400275928985 ,68,9068537559488
13.1308288 ,Left ,67,367247182551 ,43,8400275928985 ,68,9068537559488
13.1457318 ,Left ,67,3458331798968 ,43,8165751659311 ,68,9537418166605
13.1457337 ,Left ,67,3458331798968 ,43,8165751659311 ,68,9537418166605
13.1681728 ,Left ,67,3298817285653 ,43,7959733778043 ,69,018459166041
13.1681746 ,Left ,67,3298817285653 ,43,7959733778043 ,69,018459166041
13.1909902 ,Left ,67,3110441688563 ,43,7889974302219 ,69,0990303078637
13.1909934 ,Left ,67,3110441688563 ,43,7889974302219 ,69,0990303078637
13.2060979 ,Left ,67,2996836233661 ,43,7998349875429 ,69,1782212415032
13.2061022 ,Left ,67,2996836233661 ,43,7998349875429 ,69,1782212415032
13.228804 ,Left ,67,3172626296164 ,43,8256470384662 ,69,247790244929
13.2288106 ,Left ,67,3172626296164 ,43,8256470384662 ,69,247790244929
13.2585649 ,Left ,67,3441689301111 ,43,8425921287421 ,69,3028023833705
13.2585712 ,Left ,67,3441689301111 ,43,8425921287421 ,69,3028023833705
13.2734934 ,Left ,67,351855560005 ,43,8400703621529 ,69,3403075267611
13.2734977 ,Left ,67,351855560005 ,43,8400703621529 ,69,3403075267611
13.3180808 ,Left ,67,3120310836564 ,43,8628785322986 ,69,369838179958
13.3180826 ,Left ,67,3120310836564 ,43,8628785322986 ,69,369838179958
13.3333825 ,Left ,67,3383429165095 ,43,8922830287075 ,69,3514741548964
13.3333844 ,Left ,67,3383429165095 ,43,8922830287075 ,69,3514741548964
13.3780987 ,Left ,67,34894694398 ,43,9569379787519 ,69,2677167935183
13.3781026 ,Left ,67,34894694398 ,43,9569379787519 ,69,2677167935183
13.3932082 ,Left ,67,325730516711 ,43,9885711003672 ,69,2049389175112
13.3932106 ,Left ,67,325730516711 ,43,9885711003672 ,69,2049389175112
13.4159772 ,Left ,67,3069251951726 ,44,0345549171647 ,69,1234826204418
13.4159801 ,Left ,67,3069251951726 ,44,0345549171647 ,69,1234826204418
13.431013 ,Left ,67,280553811192 ,44,0911190789431 ,69,0338984626473
13.4310167 ,Left ,67,280553811192 ,44,0911190789431 ,69,0338984626473
13.4531691 ,Left ,67,2511633564443 ,44,1600424111249 ,68,9235983446908
13.453171 ,Left ,67,2511633564443 ,44,1600424111249 ,68,9235983446908
13.4757217 ,Left ,67,2432571868686 ,44,2062680615087 ,68,8103388869443
13.4757239 ,Left ,67,2432571868686 ,44,2062680615087 ,68,8103388869443
13.5058504 ,Left ,67,1565859675896 ,44,229607857016 ,68,5840215339886
13.5058527 ,Left ,67,1565859675896 ,44,229607857016 ,68,5840215339886
13.5356168 ,Left ,67,0232921942657 ,44,2287479782044 ,68,4943486917447
13.5356186 ,Left ,67,0232921942657 ,44,2287479782044 ,68,4943486917447
13.5582652 ,Left ,66,9178271143073 ,44,2428083375225 ,68,3927950864873
13.5582673 ,Left ,66,9178271143073 ,44,2428083375225 ,68,3927950864873
13.5807571 ,Left ,66,8110771615544 ,44,2385806180353 ,68,2742141500217
13.5807596 ,Left ,66,8110771615544 ,44,2385806180353 ,68,2742141500217
13.5958058 ,Left ,66,6711496974324 ,44,2333512951631 ,68,1757899279913
13.5958091 ,Left ,66,6711496974324 ,44,2333512951631 ,68,1757899279913
13.6184459 ,Left ,66,6380119383047 ,44,2450606063225 ,68,1225100188113
13.6184492 ,Left ,66,6380119383047 ,44,2450606063225 ,68,1225100188113
13.6332123 ,Left ,66,6281408556399 ,44,3151940862211 ,68,088600544453
13.6332144 ,Left ,66,6281408556399 ,44,3151940862211 ,68,088600544453
13.6481406 ,Left ,66,698663439215 ,44,3474502015999 ,68,0751510644592
13.6481423 ,Left ,66,698663439215 ,44,3474502015999 ,68,0751510644592
13.6781855 ,Left ,66,7979023678632 ,44,3727651157448 ,68,076574589476
13.6781876 ,Left ,66,7979023678632 ,44,3727651157448 ,68,076574589476
13.6933401 ,Left ,66,8593037198006 ,44,4213147601411 ,68,0992111196583
13.6933422 ,Left ,66,8593037198006 ,44,4213147601411 ,68,0992111196583
13.7156495 ,Left ,66,923795279167 ,44,4439231248878 ,68,1360744047076
13.7156521 ,Left ,66,923795279167 ,44,4439231248878 ,68,1360744047076
13.7308712 ,Left ,66,998366085574 ,44,4532428779235 ,68,1861773596508
13.7308752 ,Left ,66,998366085574 ,44,4532428779235 ,68,1861773596508
13.7460969 ,Left ,67,0799520175029 ,44,4476400594499 ,68,2393082598465
13.7461047 ,Left ,67,0799520175029 ,44,4476400594499 ,68,2393082598465
13.7682142 ,Left ,67,1680703955514 ,44,4321098910231 ,68,2802895880882
13.7682162 ,Left ,67,1680703955514 ,44,4321098910231 ,68,2802895880882
13.7908769 ,Left ,67,2348629557238 ,44,407519525807 ,68,3003013724177
13.790879 ,Left ,67,2348629557238 ,44,407519525807 ,68,3003013724177
13.8132221 ,Left ,67,2615977391278 ,44,3638462854336 ,68,3219200527367
13.8132241 ,Left ,67,2615977391278 ,44,3638462854336 ,68,3219200527367
13.8282261 ,Left ,67,291521662815 ,44,3071760004401 ,68,3376643970314
13.8282285 ,Left ,67,291521662815 ,44,3071760004401 ,68,3376643970314
13.8510139 ,Left ,67,3234402753763 ,44,2500595404612 ,68,3505434717769
13.8510176 ,Left ,67,3234402753763 ,44,2500595404612 ,68,3505434717769
13.8657697 ,Left ,67,3858399853445 ,44,1998450202401 ,68,3620065937732
13.8657732 ,Left ,67,3858399853445 ,44,1998450202401 ,68,3620065937732
13.8883156 ,Left ,67,471691381294 ,44,1558521598744 ,68,3794011915109
13.8883193 ,Left ,67,471691381294 ,44,1558521598744 ,68,3794011915109
13.9113568 ,Left ,67,5668274372791 ,44,1244094940699 ,68,3786074805305
13.9113646 ,Left ,67,5668274372791 ,44,1244094940699 ,68,3786074805305
13.9263268 ,Left ,67,6206105328562 ,44,0662168095389 ,68,3687692963379
13.926335 ,Left ,67,6206105328562 ,44,0662168095389 ,68,3687692963379
13.9485635 ,Left ,67,6775409365592 ,44,0018301451889 ,68,3716711637063
13.9485672 ,Left ,67,6775409365592 ,44,0018301451889 ,68,3716711637063
13.9710311 ,Left ,67,7289685945107 ,43,9533587634254 ,68,3903829320372
13.9710346 ,Left ,67,7289685945107 ,43,9533587634254 ,68,3903829320372
13.9856605 ,Left ,67,7847922684766 ,43,9236164702953 ,68,4176656674778
13.9856626 ,Left ,67,7847922684766 ,43,9236164702953 ,68,4176656674778
14.0090696 ,Left ,67,8356229635127 ,43,9024331941565 ,68,4543930767645
14.0090778 ,Left ,67,8356229635127 ,43,9024331941565 ,68,4543930767645
14.0314808 ,Left ,67,8984007219307 ,43,8729345692927 ,68,4958772621287
14.0314887 ,Left ,67,8984007219307 ,43,8729345692927 ,68,4958772621287
14.0538334 ,Left ,67,9658856759172 ,43,8439777889995 ,68,5420029744674
14.0538413 ,Left ,67,9658856759172 ,43,8439777889995 ,68,5420029744674
14.0763195 ,Left ,68,007974738421 ,43,8177689238848 ,68,602056794016
14.0763324 ,Left ,68,007974738421 ,43,8177689238848 ,68,602056794016
14.0982852 ,Left ,68,0644115864134 ,43,7994076194487 ,68,663958155141
14.0982882 ,Left ,68,0644115864134 ,43,7994076194487 ,68,663958155141
14.1206841 ,Left ,68,1264643445933 ,43,7809698994162 ,68,7215880698333
14.120687 ,Left ,68,1264643445933 ,43,7809698994162 ,68,7215880698333
14.135776 ,Left ,68,1748798092537 ,43,7484895753509 ,68,7807903676379
14.1357793 ,Left ,68,1748798092537 ,43,7484895753509 ,68,7807903676379
14.1507213 ,Left ,68,193242032175 ,43,7189018902356 ,68,8495515866176
14.1507242 ,Left ,68,193242032175 ,43,7189018902356 ,68,8495515866176
14.1733218 ,Left ,68,1924832798617 ,43,6928431805094 ,68,9314297547919
14.1733248 ,Left ,68,1924832798617 ,43,6928431805094 ,68,9314297547919
14.1883897 ,Left ,68,2114171940351 ,43,6685339421942 ,69,0008672128309
14.1883917 ,Left ,68,2114171940351 ,43,6685339421942 ,69,0008672128309
14.2109532 ,Left ,68,2258541988736 ,43,6471639574435 ,69,0583775021871
14.2109562 ,Left ,68,2258541988736 ,43,6471639574435 ,69,0583775021871
14.2331642 ,Left ,68,2427230716345 ,43,6254559445634 ,69,1009721884757
14.2331666 ,Left ,68,2427230716345 ,43,6254559445634 ,69,1009721884757
14.2482375 ,Left ,68,2511347052106 ,43,604077728977 ,69,1351888588811
14.2482394 ,Left ,68,2511347052106 ,43,604077728977 ,69,1351888588811
14.2780991 ,Left ,68,2451491895434 ,43,5916385659388 ,69,1770795169579
14.2781011 ,Left ,68,2451491895434 ,43,5916385659388 ,69,1770795169579
14.3009023 ,Left ,68,224898964938 ,43,6012845350846 ,69,2211823344928
14.3009049 ,Left ,68,224898964938 ,43,6012845350846 ,69,2211823344928
14.3158947 ,Left ,68,2052540439147 ,43,6117513042907 ,69,2533267698291
14.3158973 ,Left ,68,2052540439147 ,43,6117513042907 ,69,2533267698291
14.3531742 ,Left ,68,2357550016888 ,43,6432072230694 ,69,2946960132635
14.3531762 ,Left ,68,2357550016888 ,43,6432072230694 ,69,2946960132635
14.3681138 ,Left ,68,2375900802608 ,43,6748498883011 ,69,3222523088714
14.3681156 ,Left ,68,2375900802608 ,43,6748498883011 ,69,3222523088714
14.3914854 ,Left ,68,2251420801368 ,43,7046313328889 ,69,3479747651307
14.3914934 ,Left ,68,2251420801368 ,43,7046313328889 ,69,3479747651307
14.413337 ,Left ,68,2189186858582 ,43,7344704192207 ,69,3723474507969
14.4133403 ,Left ,68,2189186858582 ,43,7344704192207 ,69,3723474507969
14.4288429 ,Left ,68,2202276443419 ,43,7594673451116 ,69,3896538030457
14.4288511 ,Left ,68,2202276443419 ,43,7594673451116 ,69,3896538030457
14.451512 ,Left ,68,2270021994117 ,43,7783392159073 ,69,4052446339755
14.4515197 ,Left ,68,2270021994117 ,43,7783392159073 ,69,4052446339755
14.4739303 ,Left ,68,2333969089425 ,43,7909710697306 ,69,4109250966076
14.4739381 ,Left ,68,2333969089425 ,43,7909710697306 ,69,4109250966076
14.4886504 ,Left ,68,2375534819399 ,43,8062418679444 ,69,4142496364983
14.4886558 ,Left ,68,2375534819399 ,43,8062418679444 ,69,4142496364983
14.511273 ,Left ,68,2318799229054 ,43,8248734411625 ,69,4198827863185
14.5112786 ,Left ,68,2318799229054 ,43,8248734411625 ,69,4198827863185
14.5334868 ,Left ,68,2354843241912 ,43,8424195259627 ,69,4274644973966
14.5334926 ,Left ,68,2354843241912 ,43,8424195259627 ,69,4274644973966
14.5561055 ,Left ,68,2460019165376 ,43,8546120120929 ,69,4372746275904
14.5561112 ,Left ,68,2460019165376 ,43,8546120120929 ,69,4372746275904
14.5784923 ,Left ,68,2465322531346 ,43,8529600859696 ,69,4428188821966
14.5784966 ,Left ,68,2465322531346 ,43,8529600859696 ,69,4428188821966
14.6007943 ,Left ,68,255377908225 ,43,8530379155921 ,69,451662394242
14.6007984 ,Left ,68,255377908225 ,43,8530379155921 ,69,451662394242
14.6159672 ,Left ,68,2600841460207 ,43,8614038259698 ,69,4608238584111
14.6159718 ,Left ,68,2600841460207 ,43,8614038259698 ,69,4608238584111
14.6310313 ,Left ,68,2644960656346 ,43,868291072611 ,69,4722348358981
14.6310356 ,Left ,68,2644960656346 ,43,868291072611 ,69,4722348358981
14.6534612 ,Left ,68,2834514351486 ,43,8743006055223 ,69,4810008034177
14.6534655 ,Left ,68,2834514351486 ,43,8743006055223 ,69,4810008034177
14.6686039 ,Left ,68,2900305079272 ,43,8717715395008 ,69,4877428605996
14.6686082 ,Left ,68,2900305079272 ,43,8717715395008 ,69,4877428605996
14.6908506 ,Left ,68,2967117696504 ,43,8629052794756 ,69,4973633007556
14.6908547 ,Left ,68,2967117696504 ,43,8629052794756 ,69,4973633007556
14.7134241 ,Left ,68,3104418708535 ,43,8555543659992 ,69,5066100997829
14.7134286 ,Left ,68,3104418708535 ,43,8555543659992 ,69,5066100997829
14.7284073 ,Left ,68,3153828765507 ,43,8555102056666 ,69,5238558235607
14.7284115 ,Left ,68,3153828765507 ,43,8555102056666 ,69,5238558235607
14.7579995 ,Left ,68,3128289832526 ,43,8535774703152 ,69,5410900930423
14.7580018 ,Left ,68,3128289832526 ,43,8535774703152 ,69,5410900930423
14.7806511 ,Left ,68,3224388616232 ,43,8545016725129 ,69,5506735122597
14.7806529 ,Left ,68,3224388616232 ,43,8545016725129 ,69,5506735122597
14.8032891 ,Left ,68,3301098687007 ,43,855850302943 ,69,5631796678852
14.8032916 ,Left ,68,3301098687007 ,43,855850302943 ,69,5631796678852
14.8184273 ,Left ,68,3360178736653 ,43,8523641977931 ,69,5692834373822
14.8184305 ,Left ,68,3360178736653 ,43,8523641977931 ,69,5692834373822
14.848322 ,Left ,68,34552871321 ,43,8428164599982 ,69,579355734769
14.8483252 ,Left ,68,34552871321 ,43,8428164599982 ,69,579355734769
14.8631695 ,Left ,68,3544623689198 ,43,8427958451363 ,69,5882900641565
14.8631715 ,Left ,68,3544623689198 ,43,8427958451363 ,69,5882900641565
14.8857114 ,Left ,68,3544623689198 ,43,8427958451363 ,69,5882900641565
14.8857134 ,Left ,68,3544623689198 ,43,8427958451363 ,69,5882900641565
14.9080905 ,Left ,68,3544623689198 ,43,8427958451363 ,69,5882900641565
14.9080922 ,Left ,68,3544623689198 ,43,8427958451363 ,69,5882900641565
14.9306579 ,Left ,68,3676775506505 ,43,8364774533657 ,69,5821756478551
14.9306601 ,Left ,68,3676775506505 ,43,8364774533657 ,69,5821756478551
14.9610014 ,Left ,68,3837735203243 ,43,8310334835525 ,69,5837863511266
14.9610048 ,Left ,68,3837735203243 ,43,8310334835525 ,69,5837863511266
14.975849 ,Left ,68,3849300711694 ,43,8323146592761 ,69,5848604321558
14.9758522 ,Left ,68,3849300711694 ,43,8323146592761 ,69,5848604321558
14.998376 ,Left ,68,3856734671517 ,43,8216601385177 ,69,5886460584659
14.9983793 ,Left ,68,3856734671517 ,43,8216601385177 ,69,5886460584659
15.0358655 ,Left ,68,3890040779959 ,43,8146597209177 ,69,6047341267473
15.035869 ,Left ,68,3890040779959 ,43,8146597209177 ,69,6047341267473
15.0509886 ,Left ,68,3930882783585 ,43,8095114225025 ,69,6189699828047
15.0509923 ,Left ,68,3930882783585 ,43,8095114225025 ,69,6189699828047
15.0732009 ,Left ,68,3928772740433 ,43,8100850271573 ,69,6384208986227
15.0732028 ,Left ,68,3928772740433 ,43,8100850271573 ,69,6384208986227
15.1031643 ,Left ,68,3864545652114 ,43,8044398555395 ,69,6620040549184
15.1031661 ,Left ,68,3864545652114 ,43,8044398555395 ,69,6620040549184
15.1255911 ,Left ,68,3825103597571 ,43,804362954144 ,69,6703947034704
15.1255929 ,Left ,68,3825103597571 ,43,804362954144 ,69,6703947034704
15.171053 ,Left ,68,3612732948945 ,43,8421233593275 ,69,7109421131659
15.1710572 ,Left ,68,3612732948945 ,43,8421233593275 ,69,7109421131659
15.193425 ,Left ,68,3369889451771 ,43,8523478123402 ,69,725451934687
15.193431 ,Left ,68,3369889451771 ,43,8523478123402 ,69,725451934687
15.2233115 ,Left ,68,2833990522338 ,43,8425716418052 ,69,7488828672313
15.2233155 ,Left ,68,2833990522338 ,43,8425716418052 ,69,7488828672313
15.2458015 ,Left ,68,2652371048464 ,43,8449959401207 ,69,757661705918
15.2458055 ,Left ,68,2652371048464 ,43,8449959401207 ,69,757661705918
15.2833744 ,Left ,68,2147412101374 ,43,8537258305593 ,69,7509272106123
15.2833764 ,Left ,68,2147412101374 ,43,8537258305593 ,69,7509272106123
15.3058129 ,Left ,68,1891497704053 ,43,8589379234112 ,69,7495731597034
15.3058152 ,Left ,68,1891497704053 ,43,8589379234112 ,69,7495731597034
15.3431617 ,Left ,68,1336996379851 ,43,8870967179276 ,69,7363620605072
15.3431641 ,Left ,68,1336996379851 ,43,8870967179276 ,69,7363620605072
15.3734393 ,Left ,68,1383777904447 ,43,9103867363106 ,69,7220647441505
15.3734413 ,Left ,68,1383777904447 ,43,9103867363106 ,69,7220647441505
15.4108167 ,Left ,68,076105613552 ,43,9346041518375 ,69,682624064101
15.410819 ,Left ,68,076105613552 ,43,9346041518375 ,69,682624064101
15.4258987 ,Left ,68,0452116465666 ,43,9491409977037 ,69,6628815562061
15.4259013 ,Left ,68,0452116465666 ,43,9491409977037 ,69,6628815562061
15.4632228 ,Left ,68,000278228097 ,43,9968334694921 ,69,607027021319
15.4632255 ,Left ,68,000278228097 ,43,9968334694921 ,69,607027021319
15.4857398 ,Left ,67,9943384522615 ,44,0291896534831 ,69,5791278424776
15.4857416 ,Left ,67,9943384522615 ,44,0291896534831 ,69,5791278424776
15.5231741 ,Left ,67,9433065350084 ,44,0687357696291 ,69,5300700536754
15.5231761 ,Left ,67,9433065350084 ,44,0687357696291 ,69,5300700536754
15.5456122 ,Left ,67,9066009631414 ,44,0749622188419 ,69,5075679825699
15.5456139 ,Left ,67,9066009631414 ,44,0749622188419 ,69,5075679825699
15.583203 ,Left ,67,8361242224795 ,44,0837772790739 ,69,4803469068193
15.5832055 ,Left ,67,8361242224795 ,44,0837772790739 ,69,4803469068193
15.6059259 ,Left ,67,768202436863 ,44,0902972945943 ,69,4777121028536
15.6059299 ,Left ,67,768202436863 ,44,0902972945943 ,69,4777121028536
15.6435411 ,Left ,67,6210933056662 ,44,209068544936 ,69,4886590096925
15.6435477 ,Left ,67,6210933056662 ,44,209068544936 ,69,4886590096925
15.6660229 ,Left ,67,4629049099188 ,44,2698475138217 ,69,4873156147939
15.6660292 ,Left ,67,4629049099188 ,44,2698475138217 ,69,4873156147939
15.7033607 ,Left ,67,5278474494981 ,44,4048299513089 ,69,5976571046181
15.7033639 ,Left ,67,5278474494981 ,44,4048299513089 ,69,5976571046181
15.725991 ,Left ,67,5415704827247 ,44,5200749103283 ,69,5767457712664
15.7259943 ,Left ,67,5415704827247 ,44,5200749103283 ,69,5767457712664
15.7637796 ,Left ,67,5414686172502 ,44,5965388017815 ,69,4767566252236
15.7637881 ,Left ,67,5414686172502 ,44,5965388017815 ,69,4767566252236
15.7862859 ,Left ,67,5311143413026 ,44,6112266006854 ,69,4389652202578
15.7862944 ,Left ,67,5311143413026 ,44,6112266006854 ,69,4389652202578
15.8238662 ,Left ,67,4259560184995 ,44,6148296394568 ,69,3025384145387
15.8238748 ,Left ,67,4259560184995 ,44,6148296394568 ,69,3025384145387
15.8458987 ,Left ,67,3896702112396 ,44,5901958670614 ,69,2253655551433
15.8459027 ,Left ,67,3896702112396 ,44,5901958670614 ,69,2253655551433
15.8833751 ,Left ,67,3885679043467 ,44,4618402702917 ,69,1030132532105
15.8833771 ,Left ,67,3885679043467 ,44,4618402702917 ,69,1030132532105
15.9056987 ,Left ,67,3852505773415 ,44,3750806709219 ,69,05348532244
15.9057006 ,Left ,67,3852505773415 ,44,3750806709219 ,69,05348532244
15.9432326 ,Left ,67,343136785333 ,44,3064372034225 ,68,9586448674014
15.9432354 ,Left ,67,343136785333 ,44,3064372034225 ,68,9586448674014
15.9656636 ,Left ,67,3086062784044 ,44,2968908074896 ,68,9271881108848
15.9656663 ,Left ,67,3086062784044 ,44,2968908074896 ,68,9271881108848
16.0031118 ,Left ,67,2727920296164 ,44,3045681264416 ,68,9222342839944
16.0031136 ,Left ,67,2727920296164 ,44,3045681264416 ,68,9222342839944
16.025808 ,Left ,67,2361239888423 ,44,3229689643768 ,68,9468775288469
16.0258099 ,Left ,67,2361239888423 ,44,3229689643768 ,68,9468775288469
16.0633142 ,Left ,67,1451636060524 ,44,4440547422718 ,68,9809574853531
16.0633162 ,Left ,67,1451636060524 ,44,4440547422718 ,68,9809574853531
16.0856665 ,Left ,67,1237460419997 ,44,473983703943 ,68,9762103811953
16.0856686 ,Left ,67,1237460419997 ,44,473983703943 ,68,9762103811953
16.1232758 ,Left ,67,2493330518805 ,44,4444030279728 ,68,9291603678943
16.1232792 ,Left ,67,2493330518805 ,44,4444030279728 ,68,9291603678943
16.1461106 ,Left ,67,2459766642735 ,44,456311973799 ,68,922517138419
16.1461148 ,Left ,67,2459766642735 ,44,456311973799 ,68,922517138419
16.1831519 ,Left ,67,2643576527997 ,44,4531744967204 ,68,9195356695074
16.1831539 ,Left ,67,2643576527997 ,44,4531744967204 ,68,9195356695074
16.2062475 ,Left ,67,305733046944 ,44,4238067448745 ,68,9294977536959
16.206255 ,Left ,67,305733046944 ,44,4238067448745 ,68,9294977536959
16.2442339 ,Left ,67,3085802180766 ,44,4010324353436 ,68,9724372904715
16.2442535 ,Left ,67,3085802180766 ,44,4010324353436 ,68,9724372904715
16.266213 ,Left ,67,3026710067735 ,44,3655309852806 ,68,9884691178362
16.2662203 ,Left ,67,3026710067735 ,44,3655309852806 ,68,9884691178362
16.3038102 ,Left ,67,3146763852464 ,44,2585444414471 ,68,9989999555648
16.3038179 ,Left ,67,3146763852464 ,44,2585444414471 ,68,9989999555648
16.3257856 ,Left ,67,305675055307 ,44,2197283341737 ,68,9978033196847
16.3257884 ,Left ,67,305675055307 ,44,2197283341737 ,68,9978033196847
16.363192 ,Left ,67,2847054260733 ,44,1880536085201 ,68,9792809310174
16.3631946 ,Left ,67,2847054260733 ,44,1880536085201 ,68,9792809310174
16.385951 ,Left ,67,2862463375786 ,44,1828417040795 ,68,9618244128011
16.3859536 ,Left ,67,2862463375786 ,44,1828417040795 ,68,9618244128011
16.4232786 ,Left ,67,2805831969053 ,44,2264104899289 ,68,9770352174277
16.4232812 ,Left ,67,2805831969053 ,44,2264104899289 ,68,9770352174277
16.4456263 ,Left ,67,2276583187539 ,44,3072932244226 ,68,9999270040736
16.4456282 ,Left ,67,2276583187539 ,44,3072932244226 ,68,9999270040736
16.4833025 ,Left ,67,2066801048619 ,44,3287876169193 ,69,1171340594705
16.4833051 ,Left ,67,2066801048619 ,44,3287876169193 ,69,1171340594705
16.5057035 ,Left ,67,2521947855554 ,44,3262524298147 ,69,148385134681
16.5057059 ,Left ,67,2521947855554 ,44,3262524298147 ,69,148385134681
16.5433856 ,Left ,67,1254036825137 ,44,4371138137604 ,69,1585366228826
16.5433886 ,Left ,67,1254036825137 ,44,4371138137604 ,69,1585366228826
16.5662781 ,Left ,67,1482819332258 ,44,4360577933758 ,69,1215496687614
16.5662855 ,Left ,67,1482819332258 ,44,4360577933758 ,69,1215496687614
16.6037218 ,Left ,67,2138555596112 ,44,4259216258322 ,69,0727386323101
16.6037298 ,Left ,67,2138555596112 ,44,4259216258322 ,69,0727386323101
16.6261594 ,Left ,67,1867927180873 ,44,4430455814065 ,69,065823012975
16.6261647 ,Left ,67,1867927180873 ,44,4430455814065 ,69,065823012975
16.6633212 ,Left ,67,198081217386 ,44,4242034191241 ,69,0619023446291
16.6633247 ,Left ,67,198081217386 ,44,4242034191241 ,69,0619023446291
16.6858781 ,Left ,67,1992135043864 ,44,3943788754888 ,69,0558858958846
16.6858815 ,Left ,67,1992135043864 ,44,3943788754888 ,69,0558858958846
16.7233335 ,Left ,67,1236590010815 ,44,3518431336282 ,69,0393262560182
16.7233419 ,Left ,67,1236590010815 ,44,3518431336282 ,69,0393262560182
16.7458082 ,Left ,67,1065874875642 ,44,3445531193853 ,69,0253310124587
16.7458117 ,Left ,67,1065874875642 ,44,3445531193853 ,69,0253310124587
16.7834742 ,Left ,67,1024127389641 ,44,3307473618311 ,68,9813397071823
16.7834777 ,Left ,67,1024127389641 ,44,3307473618311 ,68,9813397071823
16.8059675 ,Left ,67,0680249000627 ,44,3414754665962 ,68,9845776682831
16.8059711 ,Left ,67,0680249000627 ,44,3414754665962 ,68,9845776682831
16.8434508 ,Left ,66,9440384933523 ,44,4389250305645 ,69,0010389932729
16.8434528 ,Left ,66,9440384933523 ,44,4389250305645 ,69,0010389932729
16.865737 ,Left ,66,9242604157197 ,44,4852299394724 ,69,0225388450259
16.865739 ,Left ,66,9242604157197 ,44,4852299394724 ,69,0225388450259
16.9033742 ,Left ,67,0257164439598 ,44,6913138081231 ,69,069211270871
16.9033766 ,Left ,67,0257164439598 ,44,6913138081231 ,69,069211270871
16.9260378 ,Left ,67,0416365649944 ,44,7181530621198 ,69,0424053785209
16.9260415 ,Left ,67,0416365649944 ,44,7181530621198 ,69,0424053785209
16.9557119 ,Left ,67,0935504401224 ,44,7206525565806 ,68,9826551229503
16.9557144 ,Left ,67,0935504401224 ,44,7206525565806 ,68,9826551229503
16.9787784 ,Left ,67,0897960395524 ,44,6895431443362 ,68,9388101074529
16.9787923 ,Left ,67,0897960395524 ,44,6895431443362 ,68,9388101074529
17.0015247 ,Left ,67,0876740235596 ,44,6492721523216 ,68,8758307579815
17.0015326 ,Left ,67,0876740235596 ,44,6492721523216 ,68,8758307579815
17.0166056 ,Left ,67,1034914696647 ,44,6048649852057 ,68,8094108921654
17.0166133 ,Left ,67,1034914696647 ,44,6048649852057 ,68,8094108921654
17.0389066 ,Left ,67,1116784874293 ,44,5593562259035 ,68,7494446629573
17.0389144 ,Left ,67,1116784874293 ,44,5593562259035 ,68,7494446629573
17.0614223 ,Left ,67,1352760319111 ,44,5154908797767 ,68,6997750163645
17.0614304 ,Left ,67,1352760319111 ,44,5154908797767 ,68,6997750163645
17.0762047 ,Left ,67,1623496199644 ,44,4705747047175 ,68,6653059441922
17.0762103 ,Left ,67,1623496199644 ,44,4705747047175 ,68,6653059441922
17.0986651 ,Left ,67,2066836954319 ,44,4259193534508 ,68,640696280666
17.0986706 ,Left ,67,2066836954319 ,44,4259193534508 ,68,640696280666
17.1208658 ,Left ,67,2571209139486 ,44,3866577212471 ,68,6263557363733
17.1208691 ,Left ,67,2571209139486 ,44,3866577212471 ,68,6263557363733
17.1360074 ,Left ,67,3114962921553 ,44,3604415391349 ,68,6197623518327
17.1360101 ,Left ,67,3114962921553 ,44,3604415391349 ,68,6197623518327
17.1582181 ,Left ,67,3534338694749 ,44,3460181269551 ,68,6192170268254
17.1582205 ,Left ,67,3534338694749 ,44,3460181269551 ,68,6192170268254
17.1808482 ,Left ,67,3778904645164 ,44,3438683443043 ,68,6269409886733
17.1808505 ,Left ,67,3778904645164 ,44,3438683443043 ,68,6269409886733
17.19595 ,Left ,67,3898821306147 ,44,3420594685762 ,68,6438448165239
17.195953 ,Left ,67,3898821306147 ,44,3420594685762 ,68,6438448165239
17.2185784 ,Left ,67,387369065323 ,44,3351501025966 ,68,6634235777894
17.2185822 ,Left ,67,387369065323 ,44,3351501025966 ,68,6634235777894
17.2409006 ,Left ,67,3925925629589 ,44,317601976947 ,68,6793179863139
17.2409043 ,Left ,67,3925925629589 ,44,317601976947 ,68,6793179863139
17.2557761 ,Left ,67,4003469098253 ,44,3041142640855 ,68,6950882253498
17.255778 ,Left ,67,4003469098253 ,44,3041142640855 ,68,6950882253498
17.278169 ,Left ,67,4049073105203 ,44,3038780258643 ,68,7141213684556
17.2781752 ,Left ,67,4049073105203 ,44,3038780258643 ,68,7141213684556
17.3008122 ,Left ,67,3943855405685 ,44,3131086987011 ,68,7464495090839
17.3008142 ,Left ,67,3943855405685 ,44,3131086987011 ,68,7464495090839
17.3157248 ,Left ,67,3804234767416 ,44,3158813456352 ,68,7805351223232
17.315727 ,Left ,67,3804234767416 ,44,3158813456352 ,68,7805351223232
17.3382056 ,Left ,67,3618772689143 ,44,3057126989687 ,68,8036546622156
17.3382079 ,Left ,67,3618772689143 ,44,3057126989687 ,68,8036546622156
17.3605894 ,Left ,67,3501994782897 ,44,2963839343622 ,68,8167681669592
17.3605913 ,Left ,67,3501994782897 ,44,2963839343622 ,68,8167681669592
17.3756663 ,Left ,67,35132519715 ,44,3028800125168 ,68,8295118125579
17.3756683 ,Left ,67,35132519715 ,44,3028800125168 ,68,8295118125579
17.3983167 ,Left ,67,3393970185242 ,44,3334838197049 ,68,8275893777148
17.3983198 ,Left ,67,3393970185242 ,44,3334838197049 ,68,8275893777148
17.4210686 ,Left ,67,3213453618747 ,44,3660522099202 ,68,8193452292738
17.4210731 ,Left ,67,3213453618747 ,44,3660522099202 ,68,8193452292738
17.4359483 ,Left ,67,309884337685 ,44,4146504176817 ,68,7998573616479
17.4359527 ,Left ,67,309884337685 ,44,4146504176817 ,68,7998573616479
17.458483 ,Left ,67,2879253934775 ,44,4615005746481 ,68,7771578226097
17.458486 ,Left ,67,2879253934775 ,44,4615005746481 ,68,7771578226097
17.4809804 ,Left ,67,2840941964843 ,44,5056032453437 ,68,7368643434139
17.4809835 ,Left ,67,2840941964843 ,44,5056032453437 ,68,7368643434139
17.4957416 ,Left ,67,2890989919744 ,44,5445273034393 ,68,6868846242647
17.4957445 ,Left ,67,2890989919744 ,44,5445273034393 ,68,6868846242647
17.5187728 ,Left ,67,2749384069988 ,44,5926373625359 ,68,6315986293697
17.5187807 ,Left ,67,2749384069988 ,44,5926373625359 ,68,6315986293697
17.5415003 ,Left ,67,2551696302639 ,44,6576994275895 ,68,5722737580818
17.5415083 ,Left ,67,2551696302639 ,44,6576994275895 ,68,5722737580818
17.5565282 ,Left ,67,2056279188111 ,44,7160206903882 ,68,4933299885086
17.5565361 ,Left ,67,2056279188111 ,44,7160206903882 ,68,4933299885086
17.5789634 ,Left ,67,1705466626509 ,44,7704005592113 ,68,3960774483928
17.5789713 ,Left ,67,1705466626509 ,44,7704005592113 ,68,3960774483928
17.6084623 ,Left ,67,1301702710563 ,44,8045488201032 ,68,3019719544199
17.6084658 ,Left ,67,1301702710563 ,44,8045488201032 ,68,3019719544199
17.6309606 ,Left ,67,0438601485695 ,44,8230013618874 ,68,2241666185536
17.6309642 ,Left ,67,0438601485695 ,44,8230013618874 ,68,2241666185536
17.6459266 ,Left ,67,0258351005551 ,44,8016783530242 ,68,136455587632
17.6459301 ,Left ,67,0258351005551 ,44,8016783530242 ,68,136455587632
17.6906996 ,Left ,66,9724839129907 ,44,7045429970549 ,67,9670466545776
17.6907031 ,Left ,66,9724839129907 ,44,7045429970549 ,67,9670466545776
17.7059497 ,Left ,66,9282603479537 ,44,6707714609713 ,67,9053341904673
17.7059535 ,Left ,66,9282603479537 ,44,6707714609713 ,67,9053341904673
17.7357389 ,Left ,66,8388141497367 ,44,6506808677488 ,67,8357471025679
17.7357406 ,Left ,66,8388141497367 ,44,6506808677488 ,67,8357471025679
17.7583729 ,Left ,66,7866378236598 ,44,6438048182732 ,67,8385088556327
17.7583751 ,Left ,66,7866378236598 ,44,6438048182732 ,67,8385088556327
17.7806989 ,Left ,66,7537608500859 ,44,6690934180439 ,67,859005990791
17.780701 ,Left ,66,7537608500859 ,44,6690934180439 ,67,859005990791
17.795616 ,Left ,66,7274914208648 ,44,7266762982501 ,67,9340893266779
17.7956178 ,Left ,66,7274914208648 ,44,7266762982501 ,67,9340893266779
17.8189713 ,Left ,66,7066670737018 ,44,7770270216589 ,68,0239669821954
17.8189792 ,Left ,66,7066670737018 ,44,7770270216589 ,68,0239669821954
17.8414616 ,Left ,66,7469109757547 ,44,7255805380409 ,68,0553823499636
17.8414694 ,Left ,66,7469109757547 ,44,7255805380409 ,68,0553823499636
17.8637111 ,Left ,66,8254133879681 ,44,6422197552171 ,68,0531734790617
17.8637188 ,Left ,66,8254133879681 ,44,6422197552171 ,68,0531734790617
17.8789445 ,Left ,66,8299392945082 ,44,5887154604179 ,68,0415499536506
17.8789523 ,Left ,66,8299392945082 ,44,5887154604179 ,68,0415499536506
17.9089973 ,Left ,66,8492493232656 ,44,5270944745772 ,68,0259802734369
17.9090054 ,Left ,66,8492493232656 ,44,5270944745772 ,68,0259802734369
17.9307731 ,Left ,66,8543811652193 ,44,4644843319349 ,68,0272223975216
17.9307759 ,Left ,66,8543811652193 ,44,4644843319349 ,68,0272223975216
17.9458342 ,Left ,66,8504641304768 ,44,4163919829064 ,68,0426411227755
17.9458362 ,Left ,66,8504641304768 ,44,4163919829064 ,68,0426411227755
17.9608956 ,Left ,66,8595169822689 ,44,3956179526294 ,68,0600314656284
17.9608976 ,Left ,66,8595169822689 ,44,3956179526294 ,68,0600314656284
17.9833231 ,Left ,66,8505466201448 ,44,390976536993 ,68,0849398356556
17.9833251 ,Left ,66,8505466201448 ,44,390976536993 ,68,0849398356556
17.9982117 ,Left ,66,8664689729977 ,44,3722851786288 ,68,0586021081679
17.998214 ,Left ,66,8664689729977 ,44,3722851786288 ,68,0586021081679
18.0208127 ,Left ,66,8790211318748 ,44,306015896025 ,68,0361733599411
18.020816 ,Left ,66,8790211318748 ,44,306015896025 ,68,0361733599411
18.0434936 ,Left ,66,8683274259078 ,44,2423975532896 ,68,0602525914994
18.0434979 ,Left ,66,8683274259078 ,44,2423975532896 ,68,0602525914994
18.0585684 ,Left ,66,8316278167521 ,44,2302428624009 ,68,099223999473
18.0585727 ,Left ,66,8316278167521 ,44,2302428624009 ,68,099223999473
18.0809607 ,Left ,66,7548404153896 ,44,2648006172776 ,68,1268148239766
18.080965 ,Left ,66,7548404153896 ,44,2648006172776 ,68,1268148239766
18.1034379 ,Left ,66,7875028545577 ,44,3021500034058 ,68,1523074085301
18.1034423 ,Left ,66,7875028545577 ,44,3021500034058 ,68,1523074085301
18.1184301 ,Left ,66,8432811943218 ,44,341022375758 ,68,1454863262815
18.1184344 ,Left ,66,8432811943218 ,44,341022375758 ,68,1454863262815
18.1410038 ,Left ,66,8230149128328 ,44,3305392325545 ,68,147536655156
18.1410083 ,Left ,66,8230149128328 ,44,3305392325545 ,68,147536655156
18.1634828 ,Left ,66,8440136557199 ,44,3306814437929 ,68,1492291852576
18.163487 ,Left ,66,8440136557199 ,44,3306814437929 ,68,1492291852576
18.1785097 ,Left ,66,8565730120638 ,44,3714553563949 ,68,152153568476
18.1785186 ,Left ,66,8565730120638 ,44,3714553563949 ,68,152153568476
18.2013618 ,Left ,66,8716901133923 ,44,4300831674262 ,68,1470754886479
18.2013661 ,Left ,66,8716901133923 ,44,4300831674262 ,68,1470754886479
18.2234398 ,Left ,66,8871634808271 ,44,4676968001265 ,68,13166050615
18.223444 ,Left ,66,8871634808271 ,44,4676968001265 ,68,13166050615
18.2383766 ,Left ,66,8998454346721 ,44,4843201896765 ,68,119499382721
18.2383806 ,Left ,66,8998454346721 ,44,4843201896765 ,68,119499382721
18.2609559 ,Left ,66,9325522034602 ,44,5090125632175 ,68,1245744546611
18.2609585 ,Left ,66,9325522034602 ,44,5090125632175 ,68,1245744546611
18.2833597 ,Left ,66,961931434756 ,44,5141715304815 ,68,1393524480157
18.2833624 ,Left ,66,961931434756 ,44,5141715304815 ,68,1393524480157
18.2983767 ,Left ,66,9906835702489 ,44,4985001180288 ,68,1521902942229
18.2983793 ,Left ,66,9906835702489 ,44,4985001180288 ,68,1521902942229
18.3206677 ,Left ,67,0292232786954 ,44,4683232481898 ,68,1539808353667
18.3206694 ,Left ,67,0292232786954 ,44,4683232481898 ,68,1539808353667
18.3432177 ,Left ,67,0591342570976 ,44,4403111267323 ,68,1517711264876
18.3432196 ,Left ,67,0591342570976 ,44,4403111267323 ,68,1517711264876
18.35813 ,Left ,67,0829362603137 ,44,4167611978953 ,68,147915781313
18.358132 ,Left ,67,0829362603137 ,44,4167611978953 ,68,147915781313
18.3815958 ,Left ,67,1029642807795 ,44,4009284773785 ,68,1470875958724
18.3816036 ,Left ,67,1029642807795 ,44,4009284773785 ,68,1470875958724
18.4036996 ,Left ,67,1468848620351 ,44,4002919662492 ,68,1358217975191
18.403715 ,Left ,67,1468848620351 ,44,4002919662492 ,68,1358217975191
18.4185829 ,Left ,67,1673308497149 ,44,3858032822665 ,68,1328774305812
18.4185864 ,Left ,67,1673308497149 ,44,3858032822665 ,68,1328774305812
18.4408536 ,Left ,67,2030877103786 ,44,3684583832526 ,68,1405363896418
18.4408578 ,Left ,67,2030877103786 ,44,3684583832526 ,68,1405363896418
18.4633533 ,Left ,67,2493648905733 ,44,3665787377437 ,68,1556403459603
18.4633572 ,Left ,67,2493648905733 ,44,3665787377437 ,68,1556403459603
18.4782793 ,Left ,67,2797431810944 ,44,3714473930577 ,68,1738009683068
18.4782827 ,Left ,67,2797431810944 ,44,3714473930577 ,68,1738009683068
18.500658 ,Left ,67,3289800399364 ,44,3748877969995 ,68,1868319358792
18.5006599 ,Left ,67,3289800399364 ,44,3748877969995 ,68,1868319358792
18.5232872 ,Left ,67,3588760981111 ,44,3754785496575 ,68,1878802952093
18.5232892 ,Left ,67,3588760981111 ,44,3754785496575 ,68,1878802952093
18.538228 ,Left ,67,3908767927716 ,44,3583091684878 ,68,1892329557692
18.53823 ,Left ,67,3908767927716 ,44,3583091684878 ,68,1892329557692
18.5684217 ,Left ,67,4278950732321 ,44,3404010440734 ,68,2028386389619
18.5684237 ,Left ,67,4278950732321 ,44,3404010440734 ,68,2028386389619
18.5833339 ,Left ,67,4377578642943 ,44,3294918651146 ,68,2347649827081
18.5833361 ,Left ,67,4377578642943 ,44,3294918651146 ,68,2347649827081
18.5982126 ,Left ,67,4368624904295 ,44,3201224911185 ,68,2799847778804
18.5982145 ,Left ,67,4368624904295 ,44,3201224911185 ,68,2799847778804
18.621491 ,Left ,67,4613179110857 ,44,3063864391403 ,68,3170108039703
18.6214988 ,Left ,67,4613179110857 ,44,3063864391403 ,68,3170108039703
18.6439316 ,Left ,67,4977390753829 ,44,2698031676189 ,68,3476128897305
18.6439393 ,Left ,67,4977390753829 ,44,2698031676189 ,68,3476128897305
18.6590189 ,Left ,67,547984426633 ,44,2313867863403 ,68,3775773457196
18.6590268 ,Left ,67,547984426633 ,44,2313867863403 ,68,3775773457196
18.6815383 ,Left ,67,5926483249486 ,44,2102285270994 ,68,4157614018128
18.6815463 ,Left ,67,5926483249486 ,44,2102285270994 ,68,4157614018128
18.7033641 ,Left ,67,6024856789531 ,44,1918841681781 ,68,4650801310439
18.7033683 ,Left ,67,6024856789531 ,44,1918841681781 ,68,4650801310439
18.718331 ,Left ,67,6193173447286 ,44,1708554757242 ,68,5118542179965
18.7183343 ,Left ,67,6193173447286 ,44,1708554757242 ,68,5118542179965
18.7408939 ,Left ,67,6519538383968 ,44,1545468359238 ,68,5500171505352
18.7408965 ,Left ,67,6519538383968 ,44,1545468359238 ,68,5500171505352
18.7638279 ,Left ,67,6839106035969 ,44,1306338398606 ,68,5780885215548
18.7638356 ,Left ,67,6839106035969 ,44,1306338398606 ,68,5780885215548
18.7865151 ,Left ,67,7196627098824 ,44,0999881581992 ,68,6004887365476
18.786523 ,Left ,67,7196627098824 ,44,0999881581992 ,68,6004887365476
18.8014791 ,Left ,67,7397520253582 ,44,0826064854304 ,68,6261682148548
18.801492 ,Left ,67,7397520253582 ,44,0826064854304 ,68,6261682148548
18.8232026 ,Left ,67,7487594029174 ,44,0829734200223 ,68,6497771933325
18.823205 ,Left ,67,7487594029174 ,44,0829734200223 ,68,6497771933325
18.8456946 ,Left ,67,7702582126426 ,44,0909332945182 ,68,6685059712555
18.8456968 ,Left ,67,7702582126426 ,44,0909332945182 ,68,6685059712555
18.86094 ,Left ,67,7993728216503 ,44,1024313787498 ,68,6849797295811
18.8609423 ,Left ,67,7993728216503 ,44,1024313787498 ,68,6849797295811
18.8832514 ,Left ,67,8234773608306 ,44,1021293712527 ,68,7090913320276
18.8832534 ,Left ,67,8234773608306 ,44,1021293712527 ,68,7090913320276
18.9058006 ,Left ,67,8307745998444 ,44,0979783871165 ,68,7482055253371
18.9058027 ,Left ,67,8307745998444 ,44,0979783871165 ,68,7482055253371
18.9207132 ,Left ,67,8256171807029 ,44,0984869141981 ,68,7868345324048
18.9207154 ,Left ,67,8256171807029 ,44,0984869141981 ,68,7868345324048
18.943456 ,Left ,67,8292367411849 ,44,1074496695492 ,68,8168592130308
18.943459 ,Left ,67,8292367411849 ,44,1074496695492 ,68,8168592130308
18.9657918 ,Left ,67,8452707593524 ,44,1232926279603 ,68,8418816006132
18.9657949 ,Left ,67,8452707593524 ,44,1232926279603 ,68,8418816006132
18.9806972 ,Left ,67,8597878257772 ,44,1340902732972 ,68,8607466791032
18.9807001 ,Left ,67,8597878257772 ,44,1340902732972 ,68,8607466791032
19.0031578 ,Left ,67,8755955505579 ,44,1364082984468 ,68,8813195595631
19.0031597 ,Left ,67,8755955505579 ,44,1364082984468 ,68,8813195595631
19.0259473 ,Left ,67,8896702145586 ,44,1311841682228 ,68,9004896014213
19.0259503 ,Left ,67,8896702145586 ,44,1311841682228 ,68,9004896014213
19.0408107 ,Left ,67,8960023523139 ,44,1287183753897 ,68,9191034652034
19.0408127 ,Left ,67,8960023523139 ,44,1287183753897 ,68,9191034652034
19.0631884 ,Left ,67,8966418369894 ,44,1291518957583 ,68,9440302707668
19.0631904 ,Left ,67,8966418369894 ,44,1291518957583 ,68,9440302707668
19.0856622 ,Left ,67,9108291491772 ,44,1394945169124 ,68,9625863629608
19.0856647 ,Left ,67,9108291491772 ,44,1394945169124 ,68,9625863629608
19.1006362 ,Left ,67,923574571026 ,44,1437464116554 ,68,9775390831515
19.100638 ,Left ,67,923574571026 ,44,1437464116554 ,68,9775390831515
19.1309375 ,Left ,67,9358353453239 ,44,1353197224805 ,68,9975287083604
19.1309405 ,Left ,67,9358353453239 ,44,1353197224805 ,68,9975287083604
19.1533658 ,Left ,67,9451249791106 ,44,1327653202356 ,69,0263584630898
19.153369 ,Left ,67,9451249791106 ,44,1327653202356 ,69,0263584630898
19.1684804 ,Left ,67,9530384974241 ,44,1326436659768 ,69,0561399104911
19.1684837 ,Left ,67,9530384974241 ,44,1326436659768 ,69,0561399104911
19.1832503 ,Left ,67,9605605651189 ,44,1373530889206 ,69,0853161048904
19.1832535 ,Left ,67,9605605651189 ,44,1373530889206 ,69,0853161048904
19.2060036 ,Left ,67,9781557154183 ,44,1418240579063 ,69,1172388659539
19.2060072 ,Left ,67,9781557154183 ,44,1418240579063 ,69,1172388659539
19.2207307 ,Left ,67,9953408319256 ,44,1387525033485 ,69,1540609658747
19.2207337 ,Left ,67,9953408319256 ,44,1387525033485 ,69,1540609658747
19.2435006 ,Left ,67,9978426928554 ,44,1339503181648 ,69,2078377782641
19.2435038 ,Left ,67,9978426928554 ,44,1339503181648 ,69,2078377782641
19.2665305 ,Left ,67,9877398631084 ,44,1260462126756 ,69,2687486594165
19.2665385 ,Left ,67,9877398631084 ,44,1260462126756 ,69,2687486594165
19.2811099 ,Left ,67,9970072368224 ,44,1177159809491 ,69,331990570923
19.2811153 ,Left ,67,9970072368224 ,44,1177159809491 ,69,331990570923
19.3034931 ,Left ,68,0119796777823 ,44,0905761025018 ,69,3803053538936
19.3035055 ,Left ,68,0119796777823 ,44,0905761025018 ,69,3803053538936
19.3259168 ,Left ,68,0310565310805 ,44,0737729677451 ,69,4199735154632
19.3259209 ,Left ,68,0310565310805 ,44,0737729677451 ,69,4199735154632
19.34103 ,Left ,68,0433368014925 ,44,0684161972973 ,69,4642610277077
