timestamp,event,roll,pitch,yaw
0.0133464 ,Left ,62,66878778192 ,45,3807562471109 ,49,0690757331985
0.0133499 ,Left ,62,66878778192 ,45,3807562471109 ,49,0690757331985
0.0133515 ,Left ,62,66878778192 ,45,3807562471109 ,49,0690757331985
0.013353 ,Left ,62,66878778192 ,45,3807562471109 ,49,0690757331985
0.0133546 ,Left ,62,66878778192 ,45,3807562471109 ,49,0690757331985
0.0133561 ,Left ,62,66878778192 ,45,3807562471109 ,49,0690757331985
0.0283915 ,Left ,62,6723967446443 ,45,393958218253 ,49,0933053990614
0.0283933 ,Left ,62,6723967446443 ,45,393958218253 ,49,0933053990614
0.0283948 ,Left ,62,6723967446443 ,45,393958218253 ,49,0933053990614
0.0283963 ,Left ,62,6723967446443 ,45,393958218253 ,49,0933053990614
0.0283978 ,Left ,62,6723967446443 ,45,393958218253 ,49,0933053990614
0.0283993 ,Left ,62,6723967446443 ,45,393958218253 ,49,0933053990614
0.0510677 ,Left ,62,6769917554135 ,45,4042160130359 ,49,1140876327887
0.0510697 ,Left ,62,6769917554135 ,45,4042160130359 ,49,1140876327887
0.0510712 ,Left ,62,6769917554135 ,45,4042160130359 ,49,1140876327887
0.0510727 ,Left ,62,6769917554135 ,45,4042160130359 ,49,1140876327887
0.0510742 ,Left ,62,6769917554135 ,45,4042160130359 ,49,1140876327887
0.0510757 ,Left ,62,6769917554135 ,45,4042160130359 ,49,1140876327887
0.0735643 ,Left ,62,6672723652499 ,45,412930304581 ,49,1298906644535
0.0735665 ,Left ,62,6672723652499 ,45,412930304581 ,49,1298906644535
0.0735681 ,Left ,62,6672723652499 ,45,412930304581 ,49,1298906644535
0.0735699 ,Left ,62,6672723652499 ,45,412930304581 ,49,1298906644535
0.0735714 ,Left ,62,6672723652499 ,45,412930304581 ,49,1298906644535
0.0735729 ,Left ,62,6672723652499 ,45,412930304581 ,49,1298906644535
0.0885561 ,Left ,62,6622252371137 ,45,4233517799435 ,49,1413632099613
0.0885582 ,Left ,62,6622252371137 ,45,4233517799435 ,49,1413632099613
0.0885599 ,Left ,62,6622252371137 ,45,4233517799435 ,49,1413632099613
0.0885616 ,Left ,62,6622252371137 ,45,4233517799435 ,49,1413632099613
0.0885633 ,Left ,62,6622252371137 ,45,4233517799435 ,49,1413632099613
0.0885649 ,Left ,62,6622252371137 ,45,4233517799435 ,49,1413632099613
0.1111511 ,Left ,62,6552176188812 ,45,4292841528114 ,49,1429072548334
0.1111538 ,Left ,62,6552176188812 ,45,4292841528114 ,49,1429072548334
0.111156 ,Left ,62,6552176188812 ,45,4292841528114 ,49,1429072548334
0.1111582 ,Left ,62,6552176188812 ,45,4292841528114 ,49,1429072548334
0.1111604 ,Left ,62,6552176188812 ,45,4292841528114 ,49,1429072548334
0.1111626 ,Left ,62,6552176188812 ,45,4292841528114 ,49,1429072548334
0.1337457 ,Left ,62,6421353137112 ,45,42985068454 ,49,1429163158324
0.1337491 ,Left ,62,6421353137112 ,45,42985068454 ,49,1429163158324
0.1337519 ,Left ,62,6421353137112 ,45,42985068454 ,49,1429163158324
0.1337547 ,Left ,62,6421353137112 ,45,42985068454 ,49,1429163158324
0.1337574 ,Left ,62,6421353137112 ,45,42985068454 ,49,1429163158324
0.1337602 ,Left ,62,6421353137112 ,45,42985068454 ,49,1429163158324
0.1486959 ,Left ,62,6262852718486 ,45,4270278582245 ,49,1401881138095
0.1486994 ,Left ,62,6262852718486 ,45,4270278582245 ,49,1401881138095
0.1487022 ,Left ,62,6262852718486 ,45,4270278582245 ,49,1401881138095
0.148705 ,Left ,62,6262852718486 ,45,4270278582245 ,49,1401881138095
0.1487078 ,Left ,62,6262852718486 ,45,4270278582245 ,49,1401881138095
0.1487106 ,Left ,62,6262852718486 ,45,4270278582245 ,49,1401881138095
0.1709818 ,Left ,62,6076390966596 ,45,4185467426066 ,49,1416240245013
0.170985 ,Left ,62,6076390966596 ,45,4185467426066 ,49,1416240245013
0.1709878 ,Left ,62,6076390966596 ,45,4185467426066 ,49,1416240245013
0.1709906 ,Left ,62,6076390966596 ,45,4185467426066 ,49,1416240245013
0.1709933 ,Left ,62,6076390966596 ,45,4185467426066 ,49,1416240245013
0.1709961 ,Left ,62,6076390966596 ,45,4185467426066 ,49,1416240245013
0.1937518 ,Left ,62,5827317168244 ,45,4081080075478 ,49,1432042676095
0.1937556 ,Left ,62,5827317168244 ,45,4081080075478 ,49,1432042676095
0.1937583 ,Left ,62,5827317168244 ,45,4081080075478 ,49,1432042676095
0.193761 ,Left ,62,5827317168244 ,45,4081080075478 ,49,1432042676095
0.1937638 ,Left ,62,5827317168244 ,45,4081080075478 ,49,1432042676095
0.1937666 ,Left ,62,5827317168244 ,45,4081080075478 ,49,1432042676095
0.2086029 ,Left ,62,5661149357097 ,45,3972318803388 ,49,1453609230145
0.2086062 ,Left ,62,5661149357097 ,45,3972318803388 ,49,1453609230145
0.208609 ,Left ,62,5661149357097 ,45,3972318803388 ,49,1453609230145
0.2086118 ,Left ,62,5661149357097 ,45,3972318803388 ,49,1453609230145
0.2086145 ,Left ,62,5661149357097 ,45,3972318803388 ,49,1453609230145
0.2086174 ,Left ,62,5661149357097 ,45,3972318803388 ,49,1453609230145
0.2310448 ,Left ,62,5559290210238 ,45,3856938654837 ,49,1484395803539
0.2310482 ,Left ,62,5559290210238 ,45,3856938654837 ,49,1484395803539
0.231051 ,Left ,62,5559290210238 ,45,3856938654837 ,49,1484395803539
0.2310539 ,Left ,62,5559290210238 ,45,3856938654837 ,49,1484395803539
0.2310566 ,Left ,62,5559290210238 ,45,3856938654837 ,49,1484395803539
0.2310594 ,Left ,62,5559290210238 ,45,3856938654837 ,49,1484395803539
0.2537348 ,Left ,62,5562143258716 ,45,3770762482791 ,49,1534393173064
0.2537369 ,Left ,62,5562143258716 ,45,3770762482791 ,49,1534393173064
0.2537384 ,Left ,62,5562143258716 ,45,3770762482791 ,49,1534393173064
0.2537401 ,Left ,62,5562143258716 ,45,3770762482791 ,49,1534393173064
0.2537419 ,Left ,62,5562143258716 ,45,3770762482791 ,49,1534393173064
0.2537434 ,Left ,62,5562143258716 ,45,3770762482791 ,49,1534393173064
0.268444 ,Left ,62,5553866781327 ,45,3698400110453 ,49,1610152835137
0.2684462 ,Left ,62,5553866781327 ,45,3698400110453 ,49,1610152835137
0.2684479 ,Left ,62,5553866781327 ,45,3698400110453 ,49,1610152835137
0.2684496 ,Left ,62,5553866781327 ,45,3698400110453 ,49,1610152835137
0.2684513 ,Left ,62,5553866781327 ,45,3698400110453 ,49,1610152835137
0.268453 ,Left ,62,5553866781327 ,45,3698400110453 ,49,1610152835137
0.290997 ,Left ,62,5565803134394 ,45,3643933700317 ,49,1690936010161
0.2910001 ,Left ,62,5565803134394 ,45,3643933700317 ,49,1690936010161
0.2910026 ,Left ,62,5565803134394 ,45,3643933700317 ,49,1690936010161
0.2910052 ,Left ,62,5565803134394 ,45,3643933700317 ,49,1690936010161
0.2910077 ,Left ,62,5565803134394 ,45,3643933700317 ,49,1690936010161
0.2910102 ,Left ,62,5565803134394 ,45,3643933700317 ,49,1690936010161
0.313606 ,Left ,62,5630882492278 ,45,3543401260663 ,49,1768471965814
0.3136096 ,Left ,62,5630882492278 ,45,3543401260663 ,49,1768471965814
0.3136125 ,Left ,62,5630882492278 ,45,3543401260663 ,49,1768471965814
0.3136155 ,Left ,62,5630882492278 ,45,3543401260663 ,49,1768471965814
0.3136184 ,Left ,62,5630882492278 ,45,3543401260663 ,49,1768471965814
0.3136212 ,Left ,62,5630882492278 ,45,3543401260663 ,49,1768471965814
0.3361047 ,Left ,62,572362316015 ,45,3476787176618 ,49,1873164893376
0.3361083 ,Left ,62,572362316015 ,45,3476787176618 ,49,1873164893376
0.3361112 ,Left ,62,572362316015 ,45,3476787176618 ,49,1873164893376
0.3361142 ,Left ,62,572362316015 ,45,3476787176618 ,49,1873164893376
0.336117 ,Left ,62,572362316015 ,45,3476787176618 ,49,1873164893376
0.3361199 ,Left ,62,572362316015 ,45,3476787176618 ,49,1873164893376
0.3511348 ,Left ,62,5700981869198 ,45,3392612626625 ,49,2076216709778
0.3511383 ,Left ,62,5700981869198 ,45,3392612626625 ,49,2076216709778
0.3511412 ,Left ,62,5700981869198 ,45,3392612626625 ,49,2076216709778
0.3511441 ,Left ,62,5700981869198 ,45,3392612626625 ,49,2076216709778
0.351147 ,Left ,62,5700981869198 ,45,3392612626625 ,49,2076216709778
0.3511499 ,Left ,62,5700981869198 ,45,3392612626625 ,49,2076216709778
0.3736059 ,Left ,62,5692761939821 ,45,3295347300859 ,49,2312636046839
0.3736093 ,Left ,62,5692761939821 ,45,3295347300859 ,49,2312636046839
0.3736122 ,Left ,62,5692761939821 ,45,3295347300859 ,49,2312636046839
0.3736152 ,Left ,62,5692761939821 ,45,3295347300859 ,49,2312636046839
0.3736184 ,Left ,62,5692761939821 ,45,3295347300859 ,49,2312636046839
0.373659 ,Left ,62,5692761939821 ,45,3295347300859 ,49,2312636046839
0.3959845 ,Left ,62,5753036178062 ,45,3206489018699 ,49,2521147471749
0.395988 ,Left ,62,5753036178062 ,45,3206489018699 ,49,2521147471749
0.3959938 ,Left ,62,5753036178062 ,45,3206489018699 ,49,2521147471749
0.3959967 ,Left ,62,5753036178062 ,45,3206489018699 ,49,2521147471749
0.3959996 ,Left ,62,5753036178062 ,45,3206489018699 ,49,2521147471749
0.3960024 ,Left ,62,5753036178062 ,45,3206489018699 ,49,2521147471749
0.4112883 ,Left ,62,5765598837432 ,45,3160795352434 ,49,2733598925753
0.4112923 ,Left ,62,5765598837432 ,45,3160795352434 ,49,2733598925753
0.4112952 ,Left ,62,5765598837432 ,45,3160795352434 ,49,2733598925753
0.4112981 ,Left ,62,5765598837432 ,45,3160795352434 ,49,2733598925753
0.411301 ,Left ,62,5765598837432 ,45,3160795352434 ,49,2733598925753
0.4113039 ,Left ,62,5765598837432 ,45,3160795352434 ,49,2733598925753
0.4338311 ,Left ,62,5798534717424 ,45,3132857303105 ,49,2951058518453
0.433835 ,Left ,62,5798534717424 ,45,3132857303105 ,49,2951058518453
0.433838 ,Left ,62,5798534717424 ,45,3132857303105 ,49,2951058518453
0.4338409 ,Left ,62,5798534717424 ,45,3132857303105 ,49,2951058518453
0.4338438 ,Left ,62,5798534717424 ,45,3132857303105 ,49,2951058518453
0.4338468 ,Left ,62,5798534717424 ,45,3132857303105 ,49,2951058518453
0.4634445 ,Left ,62,5848552529813 ,45,3133221608877 ,49,3154305675892
0.4634463 ,Left ,62,5848552529813 ,45,3133221608877 ,49,3154305675892
0.4634478 ,Left ,62,5848552529813 ,45,3133221608877 ,49,3154305675892
0.4634493 ,Left ,62,5848552529813 ,45,3133221608877 ,49,3154305675892
0.4634508 ,Left ,62,5848552529813 ,45,3133221608877 ,49,3154305675892
0.4634523 ,Left ,62,5848552529813 ,45,3133221608877 ,49,3154305675892
0.4784181 ,Left ,62,575255380495 ,45,3127154769572 ,49,3380921226918
0.4784201 ,Left ,62,575255380495 ,45,3127154769572 ,49,3380921226918
0.4784216 ,Left ,62,575255380495 ,45,3127154769572 ,49,3380921226918
0.4784231 ,Left ,62,575255380495 ,45,3127154769572 ,49,3380921226918
0.4784246 ,Left ,62,575255380495 ,45,3127154769572 ,49,3380921226918
0.4784261 ,Left ,62,575255380495 ,45,3127154769572 ,49,3380921226918
0.5008519 ,Left ,62,5581223523657 ,45,3142059044229 ,49,3624144746848
0.5008541 ,Left ,62,5581223523657 ,45,3142059044229 ,49,3624144746848
0.5008557 ,Left ,62,5581223523657 ,45,3142059044229 ,49,3624144746848
0.5008573 ,Left ,62,5581223523657 ,45,3142059044229 ,49,3624144746848
0.5008718 ,Left ,62,5581223523657 ,45,3142059044229 ,49,3624144746848
0.5008733 ,Left ,62,5581223523657 ,45,3142059044229 ,49,3624144746848
0.5159032 ,Left ,62,5515013221759 ,45,3124535201669 ,49,3821497421318
0.5159051 ,Left ,62,5515013221759 ,45,3124535201669 ,49,3821497421318
0.5159066 ,Left ,62,5515013221759 ,45,3124535201669 ,49,3821497421318
0.515908 ,Left ,62,5515013221759 ,45,3124535201669 ,49,3821497421318
0.5159095 ,Left ,62,5515013221759 ,45,3124535201669 ,49,3821497421318
0.515911 ,Left ,62,5515013221759 ,45,3124535201669 ,49,3821497421318
0.5311112 ,Left ,62,5523417242759 ,45,3157355683506 ,49,4002186730521
0.5311132 ,Left ,62,5523417242759 ,45,3157355683506 ,49,4002186730521
0.5311147 ,Left ,62,5523417242759 ,45,3157355683506 ,49,4002186730521
0.5311162 ,Left ,62,5523417242759 ,45,3157355683506 ,49,4002186730521
0.5311177 ,Left ,62,5523417242759 ,45,3157355683506 ,49,4002186730521
0.5311192 ,Left ,62,5523417242759 ,45,3157355683506 ,49,4002186730521
0.5534833 ,Left ,62,5488324239163 ,45,3256949519648 ,49,4176858837252
0.5534855 ,Left ,62,5488324239163 ,45,3256949519648 ,49,4176858837252
0.5534871 ,Left ,62,5488324239163 ,45,3256949519648 ,49,4176858837252
0.5534888 ,Left ,62,5488324239163 ,45,3256949519648 ,49,4176858837252
0.5534905 ,Left ,62,5488324239163 ,45,3256949519648 ,49,4176858837252
0.553492 ,Left ,62,5488324239163 ,45,3256949519648 ,49,4176858837252
0.5761515 ,Left ,62,5421823545635 ,45,3368614434361 ,49,4426317740716
0.5761545 ,Left ,62,5421823545635 ,45,3368614434361 ,49,4426317740716
0.5761568 ,Left ,62,5421823545635 ,45,3368614434361 ,49,4426317740716
0.5761592 ,Left ,62,5421823545635 ,45,3368614434361 ,49,4426317740716
0.5761616 ,Left ,62,5421823545635 ,45,3368614434361 ,49,4426317740716
0.5761639 ,Left ,62,5421823545635 ,45,3368614434361 ,49,4426317740716
0.5910079 ,Left ,62,5243418285892 ,45,348923716969 ,49,4672284778533
0.5910107 ,Left ,62,5243418285892 ,45,348923716969 ,49,4672284778533
0.591013 ,Left ,62,5243418285892 ,45,348923716969 ,49,4672284778533
0.5910154 ,Left ,62,5243418285892 ,45,348923716969 ,49,4672284778533
0.5910178 ,Left ,62,5243418285892 ,45,348923716969 ,49,4672284778533
0.5910201 ,Left ,62,5243418285892 ,45,348923716969 ,49,4672284778533
0.6217417 ,Left ,62,5096814590453 ,45,3605922738945 ,49,4870396137679
0.6217495 ,Left ,62,5096814590453 ,45,3605922738945 ,49,4870396137679
0.6217563 ,Left ,62,5096814590453 ,45,3605922738945 ,49,4870396137679
0.621763 ,Left ,62,5096814590453 ,45,3605922738945 ,49,4870396137679
0.6217697 ,Left ,62,5096814590453 ,45,3605922738945 ,49,4870396137679
0.6217764 ,Left ,62,5096814590453 ,45,3605922738945 ,49,4870396137679
0.6440452 ,Left ,62,491834415772 ,45,3665899190046 ,49,5051434422642
0.644053 ,Left ,62,491834415772 ,45,3665899190046 ,49,5051434422642
0.6440597 ,Left ,62,491834415772 ,45,3665899190046 ,49,5051434422642
0.6440665 ,Left ,62,491834415772 ,45,3665899190046 ,49,5051434422642
0.6440732 ,Left ,62,491834415772 ,45,3665899190046 ,49,5051434422642
0.64408 ,Left ,62,491834415772 ,45,3665899190046 ,49,5051434422642
0.6589116 ,Left ,62,4832887107205 ,45,3629759138911 ,49,5093648783342
0.6589194 ,Left ,62,4832887107205 ,45,3629759138911 ,49,5093648783342
0.6589262 ,Left ,62,4832887107205 ,45,3629759138911 ,49,5093648783342
0.658933 ,Left ,62,4832887107205 ,45,3629759138911 ,49,5093648783342
0.6589398 ,Left ,62,4832887107205 ,45,3629759138911 ,49,5093648783342
0.6589466 ,Left ,62,4832887107205 ,45,3629759138911 ,49,5093648783342
0.6811873 ,Left ,62,4727189139671 ,45,3465908362076 ,49,5145798098138
0.6811904 ,Left ,62,4727189139671 ,45,3465908362076 ,49,5145798098138
0.6811929 ,Left ,62,4727189139671 ,45,3465908362076 ,49,5145798098138
0.6811954 ,Left ,62,4727189139671 ,45,3465908362076 ,49,5145798098138
0.6811979 ,Left ,62,4727189139671 ,45,3465908362076 ,49,5145798098138
0.6812003 ,Left ,62,4727189139671 ,45,3465908362076 ,49,5145798098138
0.6959684 ,Left ,62,4759549364238 ,45,3264512602624 ,49,5059186916426
0.6959703 ,Left ,62,4759549364238 ,45,3264512602624 ,49,5059186916426
0.6959718 ,Left ,62,4759549364238 ,45,3264512602624 ,49,5059186916426
0.6959734 ,Left ,62,4759549364238 ,45,3264512602624 ,49,5059186916426
0.6959908 ,Left ,62,4759549364238 ,45,3264512602624 ,49,5059186916426
0.6960111 ,Left ,62,4759549364238 ,45,3264512602624 ,49,5059186916426
0.7110244 ,Left ,62,4045671224565 ,45,2835546379951 ,49,5202853294807
0.7110266 ,Left ,62,4045671224565 ,45,2835546379951 ,49,5202853294807
0.7110281 ,Left ,62,4045671224565 ,45,2835546379951 ,49,5202853294807
0.7110297 ,Left ,62,4045671224565 ,45,2835546379951 ,49,5202853294807
0.7110311 ,Left ,62,4045671224565 ,45,2835546379951 ,49,5202853294807
0.7110326 ,Left ,62,4045671224565 ,45,2835546379951 ,49,5202853294807
0.7409316 ,Left ,62,3775162036449 ,45,2387968405964 ,49,5654231234601
0.7409338 ,Left ,62,3775162036449 ,45,2387968405964 ,49,5654231234601
0.7409377 ,Left ,62,3775162036449 ,45,2387968405964 ,49,5654231234601
0.7409394 ,Left ,62,3775162036449 ,45,2387968405964 ,49,5654231234601
0.7409411 ,Left ,62,3775162036449 ,45,2387968405964 ,49,5654231234601
0.7409429 ,Left ,62,3775162036449 ,45,2387968405964 ,49,5654231234601
0.7635477 ,Left ,62,3657469954548 ,45,212692756441 ,49,6518882140394
0.7635509 ,Left ,62,3657469954548 ,45,212692756441 ,49,6518882140394
0.7635536 ,Left ,62,3657469954548 ,45,212692756441 ,49,6518882140394
0.7635566 ,Left ,62,3657469954548 ,45,212692756441 ,49,6518882140394
0.7635593 ,Left ,62,3657469954548 ,45,212692756441 ,49,6518882140394
0.7635619 ,Left ,62,3657469954548 ,45,212692756441 ,49,6518882140394
0.7861031 ,Left ,62,3352680371936 ,45,1960397516673 ,49,7222205500449
0.7861074 ,Left ,62,3352680371936 ,45,1960397516673 ,49,7222205500449
0.7861109 ,Left ,62,3352680371936 ,45,1960397516673 ,49,7222205500449
0.7861146 ,Left ,62,3352680371936 ,45,1960397516673 ,49,7222205500449
0.7861181 ,Left ,62,3352680371936 ,45,1960397516673 ,49,7222205500449
0.7861218 ,Left ,62,3352680371936 ,45,1960397516673 ,49,7222205500449
0.8013971 ,Left ,62,3075739586195 ,45,2356393706384 ,49,774568141935
0.8014014 ,Left ,62,3075739586195 ,45,2356393706384 ,49,774568141935
0.801405 ,Left ,62,3075739586195 ,45,2356393706384 ,49,774568141935
0.8014089 ,Left ,62,3075739586195 ,45,2356393706384 ,49,774568141935
0.8014125 ,Left ,62,3075739586195 ,45,2356393706384 ,49,774568141935
0.8014161 ,Left ,62,3075739586195 ,45,2356393706384 ,49,774568141935
0.8235883 ,Left ,62,2481359796438 ,45,3118854882724 ,49,7782197093758
0.8235927 ,Left ,62,2481359796438 ,45,3118854882724 ,49,7782197093758
0.8235962 ,Left ,62,2481359796438 ,45,3118854882724 ,49,7782197093758
0.8235999 ,Left ,62,2481359796438 ,45,3118854882724 ,49,7782197093758
0.8236035 ,Left ,62,2481359796438 ,45,3118854882724 ,49,7782197093758
0.823607 ,Left ,62,2481359796438 ,45,3118854882724 ,49,7782197093758
0.8386833 ,Left ,62,2435403215672 ,45,3956627497849 ,49,7178762767792
0.8386868 ,Left ,62,2435403215672 ,45,3956627497849 ,49,7178762767792
0.8386897 ,Left ,62,2435403215672 ,45,3956627497849 ,49,7178762767792
0.8386927 ,Left ,62,2435403215672 ,45,3956627497849 ,49,7178762767792
0.8386956 ,Left ,62,2435403215672 ,45,3956627497849 ,49,7178762767792
0.8386985 ,Left ,62,2435403215672 ,45,3956627497849 ,49,7178762767792
0.8535828 ,Left ,62,2529053912482 ,45,4393764779696 ,49,6347423931764
0.8535847 ,Left ,62,2529053912482 ,45,4393764779696 ,49,6347423931764
0.8535862 ,Left ,62,2529053912482 ,45,4393764779696 ,49,6347423931764
0.8535877 ,Left ,62,2529053912482 ,45,4393764779696 ,49,6347423931764
0.8535893 ,Left ,62,2529053912482 ,45,4393764779696 ,49,6347423931764
0.8535907 ,Left ,62,2529053912482 ,45,4393764779696 ,49,6347423931764
0.8761269 ,Left ,62,2431785968003 ,45,4571729114691 ,49,5652418285505
0.8761289 ,Left ,62,2431785968003 ,45,4571729114691 ,49,5652418285505
0.8761305 ,Left ,62,2431785968003 ,45,4571729114691 ,49,5652418285505
0.8761322 ,Left ,62,2431785968003 ,45,4571729114691 ,49,5652418285505
0.8761338 ,Left ,62,2431785968003 ,45,4571729114691 ,49,5652418285505
0.8761353 ,Left ,62,2431785968003 ,45,4571729114691 ,49,5652418285505
0.8908505 ,Left ,62,2811903587565 ,45,4687812484152 ,49,4857092952081
0.8908525 ,Left ,62,2811903587565 ,45,4687812484152 ,49,4857092952081
0.8908541 ,Left ,62,2811903587565 ,45,4687812484152 ,49,4857092952081
0.8908557 ,Left ,62,2811903587565 ,45,4687812484152 ,49,4857092952081
0.8908573 ,Left ,62,2811903587565 ,45,4687812484152 ,49,4857092952081
0.8908588 ,Left ,62,2811903587565 ,45,4687812484152 ,49,4857092952081
0.9134741 ,Left ,62,2942261824613 ,45,4544570543661 ,49,4356678445809
0.9134762 ,Left ,62,2942261824613 ,45,4544570543661 ,49,4356678445809
0.9134779 ,Left ,62,2942261824613 ,45,4544570543661 ,49,4356678445809
0.9134796 ,Left ,62,2942261824613 ,45,4544570543661 ,49,4356678445809
0.9134813 ,Left ,62,2942261824613 ,45,4544570543661 ,49,4356678445809
0.913483 ,Left ,62,2942261824613 ,45,4544570543661 ,49,4356678445809
0.9360896 ,Left ,62,3387368579953 ,45,4228658050971 ,49,409637842325
0.9360917 ,Left ,62,3387368579953 ,45,4228658050971 ,49,409637842325
0.9360933 ,Left ,62,3387368579953 ,45,4228658050971 ,49,409637842325
0.9360951 ,Left ,62,3387368579953 ,45,4228658050971 ,49,409637842325
0.9360968 ,Left ,62,3387368579953 ,45,4228658050971 ,49,409637842325
0.9360984 ,Left ,62,3387368579953 ,45,4228658050971 ,49,409637842325
0.9509176 ,Left ,62,4231239431834 ,45,3535918939564 ,49,3936724628847
0.9509201 ,Left ,62,4231239431834 ,45,3535918939564 ,49,3936724628847
0.9509222 ,Left ,62,4231239431834 ,45,3535918939564 ,49,3936724628847
0.9509244 ,Left ,62,4231239431834 ,45,3535918939564 ,49,3936724628847
0.9509265 ,Left ,62,4231239431834 ,45,3535918939564 ,49,3936724628847
0.9509286 ,Left ,62,4231239431834 ,45,3535918939564 ,49,3936724628847
0.9735405 ,Left ,62,4895557428368 ,45,2704120359619 ,49,4292242527649
0.9735442 ,Left ,62,4895557428368 ,45,2704120359619 ,49,4292242527649
0.9735472 ,Left ,62,4895557428368 ,45,2704120359619 ,49,4292242527649
0.9735504 ,Left ,62,4895557428368 ,45,2704120359619 ,49,4292242527649
0.9735534 ,Left ,62,4895557428368 ,45,2704120359619 ,49,4292242527649
0.9735564 ,Left ,62,4895557428368 ,45,2704120359619 ,49,4292242527649
0.9959015 ,Left ,62,5558640917172 ,45,241520940105 ,49,4557071203785
0.9959035 ,Left ,62,5558640917172 ,45,241520940105 ,49,4557071203785
0.9959052 ,Left ,62,5558640917172 ,45,241520940105 ,49,4557071203785
0.9959068 ,Left ,62,5558640917172 ,45,241520940105 ,49,4557071203785
0.9959083 ,Left ,62,5558640917172 ,45,241520940105 ,49,4557071203785
0.9959098 ,Left ,62,5558640917172 ,45,241520940105 ,49,4557071203785
1.0259345 ,Left ,62,5700858862498 ,45,2863517667281 ,49,4383303070277
1.0259368 ,Left ,62,5700858862498 ,45,2863517667281 ,49,4383303070277
1.0259383 ,Left ,62,5700858862498 ,45,2863517667281 ,49,4383303070277
1.0259399 ,Left ,62,5700858862498 ,45,2863517667281 ,49,4383303070277
1.0259413 ,Left ,62,5700858862498 ,45,2863517667281 ,49,4383303070277
1.0259428 ,Left ,62,5700858862498 ,45,2863517667281 ,49,4383303070277
1.0409323 ,Left ,62,5213370489056 ,45,3572140909809 ,49,4161312629352
1.0409342 ,Left ,62,5213370489056 ,45,3572140909809 ,49,4161312629352
1.0409357 ,Left ,62,5213370489056 ,45,3572140909809 ,49,4161312629352
1.0409372 ,Left ,62,5213370489056 ,45,3572140909809 ,49,4161312629352
1.0409387 ,Left ,62,5213370489056 ,45,3572140909809 ,49,4161312629352
1.0409402 ,Left ,62,5213370489056 ,45,3572140909809 ,49,4161312629352
1.0785843 ,Left ,62,5144746241646 ,45,4471795768616 ,49,3695195867598
1.0785867 ,Left ,62,5144746241646 ,45,4471795768616 ,49,3695195867598
1.0785886 ,Left ,62,5144746241646 ,45,4471795768616 ,49,3695195867598
1.0785906 ,Left ,62,5144746241646 ,45,4471795768616 ,49,3695195867598
1.0785925 ,Left ,62,5144746241646 ,45,4471795768616 ,49,3695195867598
1.0785944 ,Left ,62,5144746241646 ,45,4471795768616 ,49,3695195867598
1.0938021 ,Left ,62,4711773812724 ,45,4681535937168 ,49,3532319098194
1.093805 ,Left ,62,4711773812724 ,45,4681535937168 ,49,3532319098194
1.0938073 ,Left ,62,4711773812724 ,45,4681535937168 ,49,3532319098194
1.0938097 ,Left ,62,4711773812724 ,45,4681535937168 ,49,3532319098194
1.093812 ,Left ,62,4711773812724 ,45,4681535937168 ,49,3532319098194
1.0938144 ,Left ,62,4711773812724 ,45,4681535937168 ,49,3532319098194
1.1162424 ,Left ,62,4669550170589 ,45,4438244046064 ,49,3247226157515
1.1162456 ,Left ,62,4669550170589 ,45,4438244046064 ,49,3247226157515
1.1162482 ,Left ,62,4669550170589 ,45,4438244046064 ,49,3247226157515
1.1162509 ,Left ,62,4669550170589 ,45,4438244046064 ,49,3247226157515
1.1162535 ,Left ,62,4669550170589 ,45,4438244046064 ,49,3247226157515
1.1162561 ,Left ,62,4669550170589 ,45,4438244046064 ,49,3247226157515
1.1308628 ,Left ,62,5030864728434 ,45,3961001017682 ,49,2928058678127
1.1308647 ,Left ,62,5030864728434 ,45,3961001017682 ,49,2928058678127
1.1308663 ,Left ,62,5030864728434 ,45,3961001017682 ,49,2928058678127
1.1308682 ,Left ,62,5030864728434 ,45,3961001017682 ,49,2928058678127
1.1308697 ,Left ,62,5030864728434 ,45,3961001017682 ,49,2928058678127
1.1308712 ,Left ,62,5030864728434 ,45,3961001017682 ,49,2928058678127
1.1536124 ,Left ,62,5362640334855 ,45,3282090001743 ,49,2529210717447
1.1536143 ,Left ,62,5362640334855 ,45,3282090001743 ,49,2529210717447
1.1536158 ,Left ,62,5362640334855 ,45,3282090001743 ,49,2529210717447
1.1536174 ,Left ,62,5362640334855 ,45,3282090001743 ,49,2529210717447
1.1536189 ,Left ,62,5362640334855 ,45,3282090001743 ,49,2529210717447
1.1536203 ,Left ,62,5362640334855 ,45,3282090001743 ,49,2529210717447
1.1843951 ,Left ,62,6142584514037 ,45,2518850535896 ,49,2446297551208
1.1844028 ,Left ,62,6142584514037 ,45,2518850535896 ,49,2446297551208
1.1844096 ,Left ,62,6142584514037 ,45,2518850535896 ,49,2446297551208
1.1844164 ,Left ,62,6142584514037 ,45,2518850535896 ,49,2446297551208
1.1844231 ,Left ,62,6142584514037 ,45,2518850535896 ,49,2446297551208
1.1844299 ,Left ,62,6142584514037 ,45,2518850535896 ,49,2446297551208
1.1991121 ,Left ,62,6938512776408 ,45,2278672294283 ,49,264156253837
1.1991198 ,Left ,62,6938512776408 ,45,2278672294283 ,49,264156253837
1.1991266 ,Left ,62,6938512776408 ,45,2278672294283 ,49,264156253837
1.1991335 ,Left ,62,6938512776408 ,45,2278672294283 ,49,264156253837
1.1991402 ,Left ,62,6938512776408 ,45,2278672294283 ,49,264156253837
1.1991469 ,Left ,62,6938512776408 ,45,2278672294283 ,49,264156253837
1.221222 ,Left ,62,6993304196478 ,45,269176952473 ,49,2617231278879
1.2212264 ,Left ,62,6993304196478 ,45,269176952473 ,49,2617231278879
1.22123 ,Left ,62,6993304196478 ,45,269176952473 ,49,2617231278879
1.2212336 ,Left ,62,6993304196478 ,45,269176952473 ,49,2617231278879
1.2212371 ,Left ,62,6993304196478 ,45,269176952473 ,49,2617231278879
1.2212407 ,Left ,62,6993304196478 ,45,269176952473 ,49,2617231278879
1.2361486 ,Left ,62,6496753045731 ,45,3249111300772 ,49,2761355491927
1.2361505 ,Left ,62,6496753045731 ,45,3249111300772 ,49,2761355491927
1.236152 ,Left ,62,6496753045731 ,45,3249111300772 ,49,2761355491927
1.2361535 ,Left ,62,6496753045731 ,45,3249111300772 ,49,2761355491927
1.2361551 ,Left ,62,6496753045731 ,45,3249111300772 ,49,2761355491927
1.2361566 ,Left ,62,6496753045731 ,45,3249111300772 ,49,2761355491927
1.2586169 ,Left ,62,6460080166843 ,45,3833525756303 ,49,2949780517392
1.2586188 ,Left ,62,6460080166843 ,45,3833525756303 ,49,2949780517392
1.2586203 ,Left ,62,6460080166843 ,45,3833525756303 ,49,2949780517392
1.2586219 ,Left ,62,6460080166843 ,45,3833525756303 ,49,2949780517392
1.2586233 ,Left ,62,6460080166843 ,45,3833525756303 ,49,2949780517392
1.2586248 ,Left ,62,6460080166843 ,45,3833525756303 ,49,2949780517392
1.2735091 ,Left ,62,6157541355016 ,45,4457115291993 ,49,32182531738
1.2735112 ,Left ,62,6157541355016 ,45,4457115291993 ,49,32182531738
1.2735127 ,Left ,62,6157541355016 ,45,4457115291993 ,49,32182531738
1.2735143 ,Left ,62,6157541355016 ,45,4457115291993 ,49,32182531738
1.2735158 ,Left ,62,6157541355016 ,45,4457115291993 ,49,32182531738
1.2735207 ,Left ,62,6157541355016 ,45,4457115291993 ,49,32182531738
1.3036082 ,Left ,62,5224623686238 ,45,5514170552937 ,49,363202232516
1.3036101 ,Left ,62,5224623686238 ,45,5514170552937 ,49,363202232516
1.3036116 ,Left ,62,5224623686238 ,45,5514170552937 ,49,363202232516
1.3036132 ,Left ,62,5224623686238 ,45,5514170552937 ,49,363202232516
1.3036146 ,Left ,62,5224623686238 ,45,5514170552937 ,49,363202232516
1.3036161 ,Left ,62,5224623686238 ,45,5514170552937 ,49,363202232516
1.3261205 ,Left ,62,4355746592231 ,45,6395652443432 ,49,3893598043815
1.3261225 ,Left ,62,4355746592231 ,45,6395652443432 ,49,3893598043815
1.3261241 ,Left ,62,4355746592231 ,45,6395652443432 ,49,3893598043815
1.3261258 ,Left ,62,4355746592231 ,45,6395652443432 ,49,3893598043815
1.3261274 ,Left ,62,4355746592231 ,45,6395652443432 ,49,3893598043815
1.326129 ,Left ,62,4355746592231 ,45,6395652443432 ,49,3893598043815
1.3409068 ,Left ,62,3790046975566 ,45,6842832076796 ,49,4202289101375
1.340909 ,Left ,62,3790046975566 ,45,6842832076796 ,49,4202289101375
1.3409106 ,Left ,62,3790046975566 ,45,6842832076796 ,49,4202289101375
1.3409122 ,Left ,62,3790046975566 ,45,6842832076796 ,49,4202289101375
1.3409138 ,Left ,62,3790046975566 ,45,6842832076796 ,49,4202289101375
1.3409154 ,Left ,62,3790046975566 ,45,6842832076796 ,49,4202289101375
1.3560896 ,Left ,62,2994620737422 ,45,7154437375031 ,49,4399878686741
1.3560917 ,Left ,62,2994620737422 ,45,7154437375031 ,49,4399878686741
1.3560934 ,Left ,62,2994620737422 ,45,7154437375031 ,49,4399878686741
1.356095 ,Left ,62,2994620737422 ,45,7154437375031 ,49,4399878686741
1.3560967 ,Left ,62,2994620737422 ,45,7154437375031 ,49,4399878686741
1.3560983 ,Left ,62,2994620737422 ,45,7154437375031 ,49,4399878686741
1.3785147 ,Left ,62,2558435335698 ,45,7327400758903 ,49,4428291280231
1.3785171 ,Left ,62,2558435335698 ,45,7327400758903 ,49,4428291280231
1.3785216 ,Left ,62,2558435335698 ,45,7327400758903 ,49,4428291280231
1.3785235 ,Left ,62,2558435335698 ,45,7327400758903 ,49,4428291280231
1.3785254 ,Left ,62,2558435335698 ,45,7327400758903 ,49,4428291280231
1.3785273 ,Left ,62,2558435335698 ,45,7327400758903 ,49,4428291280231
1.3936163 ,Left ,62,2497372422055 ,45,7020373847091 ,49,4565486368483
1.3936182 ,Left ,62,2497372422055 ,45,7020373847091 ,49,4565486368483
1.3936197 ,Left ,62,2497372422055 ,45,7020373847091 ,49,4565486368483
1.3936212 ,Left ,62,2497372422055 ,45,7020373847091 ,49,4565486368483
1.3936227 ,Left ,62,2497372422055 ,45,7020373847091 ,49,4565486368483
1.3936242 ,Left ,62,2497372422055 ,45,7020373847091 ,49,4565486368483
1.415856 ,Left ,62,2447961875512 ,45,6202999445239 ,49,5022112133006
1.4158579 ,Left ,62,2447961875512 ,45,6202999445239 ,49,5022112133006
1.4158595 ,Left ,62,2447961875512 ,45,6202999445239 ,49,5022112133006
1.4158609 ,Left ,62,2447961875512 ,45,6202999445239 ,49,5022112133006
1.4158625 ,Left ,62,2447961875512 ,45,6202999445239 ,49,5022112133006
1.415864 ,Left ,62,2447961875512 ,45,6202999445239 ,49,5022112133006
1.4385814 ,Left ,62,3348639544955 ,45,4583844740328 ,49,5158977050397
1.4385841 ,Left ,62,3348639544955 ,45,4583844740328 ,49,5158977050397
1.4385862 ,Left ,62,3348639544955 ,45,4583844740328 ,49,5158977050397
1.4385883 ,Left ,62,3348639544955 ,45,4583844740328 ,49,5158977050397
1.4385905 ,Left ,62,3348639544955 ,45,4583844740328 ,49,5158977050397
1.4385926 ,Left ,62,3348639544955 ,45,4583844740328 ,49,5158977050397
1.4536012 ,Left ,62,4828128931912 ,45,3803556488406 ,49,5142491151894
1.4536039 ,Left ,62,4828128931912 ,45,3803556488406 ,49,5142491151894
1.453606 ,Left ,62,4828128931912 ,45,3803556488406 ,49,5142491151894
1.4536081 ,Left ,62,4828128931912 ,45,3803556488406 ,49,5142491151894
1.4536103 ,Left ,62,4828128931912 ,45,3803556488406 ,49,5142491151894
1.4536124 ,Left ,62,4828128931912 ,45,3803556488406 ,49,5142491151894
1.4761205 ,Left ,62,5140531889011 ,45,3955676082433 ,49,4840777989645
1.4761231 ,Left ,62,5140531889011 ,45,3955676082433 ,49,4840777989645
1.4761252 ,Left ,62,5140531889011 ,45,3955676082433 ,49,4840777989645
1.4761273 ,Left ,62,5140531889011 ,45,3955676082433 ,49,4840777989645
1.4761294 ,Left ,62,5140531889011 ,45,3955676082433 ,49,4840777989645
1.4761315 ,Left ,62,5140531889011 ,45,3955676082433 ,49,4840777989645
1.4983278 ,Left ,62,444287111811 ,45,3970210655071 ,49,4826593012635
1.4983303 ,Left ,62,444287111811 ,45,3970210655071 ,49,4826593012635
1.4983319 ,Left ,62,444287111811 ,45,3970210655071 ,49,4826593012635
1.4983335 ,Left ,62,444287111811 ,45,3970210655071 ,49,4826593012635
1.498335 ,Left ,62,444287111811 ,45,3970210655071 ,49,4826593012635
1.4983366 ,Left ,62,444287111811 ,45,3970210655071 ,49,4826593012635
1.5133852 ,Left ,62,4426234678744 ,45,3867518670923 ,49,4976718360824
1.5133871 ,Left ,62,4426234678744 ,45,3867518670923 ,49,4976718360824
1.5133888 ,Left ,62,4426234678744 ,45,3867518670923 ,49,4976718360824
1.5133904 ,Left ,62,4426234678744 ,45,3867518670923 ,49,4976718360824
1.5133919 ,Left ,62,4426234678744 ,45,3867518670923 ,49,4976718360824
1.5133935 ,Left ,62,4426234678744 ,45,3867518670923 ,49,4976718360824
1.5358519 ,Left ,62,5609438490531 ,45,3618749762024 ,49,498871577813
1.535854 ,Left ,62,5609438490531 ,45,3618749762024 ,49,498871577813
1.5358555 ,Left ,62,5609438490531 ,45,3618749762024 ,49,498871577813
1.5358571 ,Left ,62,5609438490531 ,45,3618749762024 ,49,498871577813
1.5358586 ,Left ,62,5609438490531 ,45,3618749762024 ,49,498871577813
1.5358601 ,Left ,62,5609438490531 ,45,3618749762024 ,49,498871577813
1.5661186 ,Left ,62,6533413161329 ,45,3322221356935 ,49,4934500361565
1.5661206 ,Left ,62,6533413161329 ,45,3322221356935 ,49,4934500361565
1.5661222 ,Left ,62,6533413161329 ,45,3322221356935 ,49,4934500361565
1.5661263 ,Left ,62,6533413161329 ,45,3322221356935 ,49,4934500361565
1.5661279 ,Left ,62,6533413161329 ,45,3322221356935 ,49,4934500361565
1.5661295 ,Left ,62,6533413161329 ,45,3322221356935 ,49,4934500361565
1.5811097 ,Left ,62,6668323426757 ,45,2955013633485 ,49,4824632553807
1.5811121 ,Left ,62,6668323426757 ,45,2955013633485 ,49,4824632553807
1.581114 ,Left ,62,6668323426757 ,45,2955013633485 ,49,4824632553807
1.5811159 ,Left ,62,6668323426757 ,45,2955013633485 ,49,4824632553807
1.5811179 ,Left ,62,6668323426757 ,45,2955013633485 ,49,4824632553807
1.5811198 ,Left ,62,6668323426757 ,45,2955013633485 ,49,4824632553807
1.6040325 ,Left ,62,6881734982377 ,45,2516655915971 ,49,4626393518922
1.6040404 ,Left ,62,6881734982377 ,45,2516655915971 ,49,4626393518922
1.6040473 ,Left ,62,6881734982377 ,45,2516655915971 ,49,4626393518922
1.6040542 ,Left ,62,6881734982377 ,45,2516655915971 ,49,4626393518922
1.604061 ,Left ,62,6881734982377 ,45,2516655915971 ,49,4626393518922
1.6040677 ,Left ,62,6881734982377 ,45,2516655915971 ,49,4626393518922
1.6335245 ,Left ,62,7232586700339 ,45,2078338818556 ,49,4107331718953
1.6335285 ,Left ,62,7232586700339 ,45,2078338818556 ,49,4107331718953
1.6335321 ,Left ,62,7232586700339 ,45,2078338818556 ,49,4107331718953
1.6335382 ,Left ,62,7232586700339 ,45,2078338818556 ,49,4107331718953
1.6335418 ,Left ,62,7232586700339 ,45,2078338818556 ,49,4107331718953
1.6335453 ,Left ,62,7232586700339 ,45,2078338818556 ,49,4107331718953
1.6561304 ,Left ,62,7119090378558 ,45,2018388057342 ,49,3907554970855
1.6561328 ,Left ,62,7119090378558 ,45,2018388057342 ,49,3907554970855
1.6561344 ,Left ,62,7119090378558 ,45,2018388057342 ,49,3907554970855
1.6561359 ,Left ,62,7119090378558 ,45,2018388057342 ,49,3907554970855
1.6561374 ,Left ,62,7119090378558 ,45,2018388057342 ,49,3907554970855
1.6561389 ,Left ,62,7119090378558 ,45,2018388057342 ,49,3907554970855
1.6786906 ,Left ,62,7189179710231 ,45,2178596635941 ,49,3818154830131
1.6786925 ,Left ,62,7189179710231 ,45,2178596635941 ,49,3818154830131
1.678694 ,Left ,62,7189179710231 ,45,2178596635941 ,49,3818154830131
1.6786956 ,Left ,62,7189179710231 ,45,2178596635941 ,49,3818154830131
1.6786971 ,Left ,62,7189179710231 ,45,2178596635941 ,49,3818154830131
1.6786985 ,Left ,62,7189179710231 ,45,2178596635941 ,49,3818154830131
1.6934535 ,Left ,62,6963718028816 ,45,2561102289178 ,49,3800585134328
1.6934555 ,Left ,62,6963718028816 ,45,2561102289178 ,49,3800585134328
1.6934572 ,Left ,62,6963718028816 ,45,2561102289178 ,49,3800585134328
1.693459 ,Left ,62,6963718028816 ,45,2561102289178 ,49,3800585134328
1.6934608 ,Left ,62,6963718028816 ,45,2561102289178 ,49,3800585134328
1.6934625 ,Left ,62,6963718028816 ,45,2561102289178 ,49,3800585134328
1.7160693 ,Left ,62,6420839225393 ,45,3239005809757 ,49,3812969402457
1.7160713 ,Left ,62,6420839225393 ,45,3239005809757 ,49,3812969402457
1.7160728 ,Left ,62,6420839225393 ,45,3239005809757 ,49,3812969402457
1.7160743 ,Left ,62,6420839225393 ,45,3239005809757 ,49,3812969402457
1.7160759 ,Left ,62,6420839225393 ,45,3239005809757 ,49,3812969402457
1.7160774 ,Left ,62,6420839225393 ,45,3239005809757 ,49,3812969402457
1.738499 ,Left ,62,5871995256066 ,45,4006524328484 ,49,3921845230209
1.7385012 ,Left ,62,5871995256066 ,45,4006524328484 ,49,3921845230209
1.7385028 ,Left ,62,5871995256066 ,45,4006524328484 ,49,3921845230209
1.7385044 ,Left ,62,5871995256066 ,45,4006524328484 ,49,3921845230209
1.738506 ,Left ,62,5871995256066 ,45,4006524328484 ,49,3921845230209
1.7385076 ,Left ,62,5871995256066 ,45,4006524328484 ,49,3921845230209
1.753548 ,Left ,62,5252736589279 ,45,4640663712424 ,49,4152379600064
1.7535502 ,Left ,62,5252736589279 ,45,4640663712424 ,49,4152379600064
1.7535518 ,Left ,62,5252736589279 ,45,4640663712424 ,49,4152379600064
1.7535535 ,Left ,62,5252736589279 ,45,4640663712424 ,49,4152379600064
1.7535551 ,Left ,62,5252736589279 ,45,4640663712424 ,49,4152379600064
1.7535567 ,Left ,62,5252736589279 ,45,4640663712424 ,49,4152379600064
1.7758905 ,Left ,62,47167680925 ,45,5107755736689 ,49,4408779421651
1.7758928 ,Left ,62,47167680925 ,45,5107755736689 ,49,4408779421651
1.7758946 ,Left ,62,47167680925 ,45,5107755736689 ,49,4408779421651
1.7758964 ,Left ,62,47167680925 ,45,5107755736689 ,49,4408779421651
1.7758981 ,Left ,62,47167680925 ,45,5107755736689 ,49,4408779421651
1.7758999 ,Left ,62,47167680925 ,45,5107755736689 ,49,4408779421651
1.7985877 ,Left ,62,4277915265557 ,45,5539367806016 ,49,4544449846703
1.79859 ,Left ,62,4277915265557 ,45,5539367806016 ,49,4544449846703
1.7985917 ,Left ,62,4277915265557 ,45,5539367806016 ,49,4544449846703
1.7985935 ,Left ,62,4277915265557 ,45,5539367806016 ,49,4544449846703
1.7985953 ,Left ,62,4277915265557 ,45,5539367806016 ,49,4544449846703
1.7985971 ,Left ,62,4277915265557 ,45,5539367806016 ,49,4544449846703
1.8134834 ,Left ,62,3620334905563 ,45,5967025255272 ,49,4649855689244
1.8134872 ,Left ,62,3620334905563 ,45,5967025255272 ,49,4649855689244
1.8134906 ,Left ,62,3620334905563 ,45,5967025255272 ,49,4649855689244
1.8134941 ,Left ,62,3620334905563 ,45,5967025255272 ,49,4649855689244
1.8135045 ,Left ,62,3620334905563 ,45,5967025255272 ,49,4649855689244
1.8135087 ,Left ,62,3620334905563 ,45,5967025255272 ,49,4649855689244
1.8364865 ,Left ,62,2997143201225 ,45,6381089435833 ,49,4633745545134
1.8364942 ,Left ,62,2997143201225 ,45,6381089435833 ,49,4633745545134
1.836501 ,Left ,62,2997143201225 ,45,6381089435833 ,49,4633745545134
1.8365077 ,Left ,62,2997143201225 ,45,6381089435833 ,49,4633745545134
1.836531 ,Left ,62,2997143201225 ,45,6381089435833 ,49,4633745545134
1.8365379 ,Left ,62,2997143201225 ,45,6381089435833 ,49,4633745545134
1.8589916 ,Left ,62,2669673428187 ,45,6360964449944 ,49,4715248198561
1.8589993 ,Left ,62,2669673428187 ,45,6360964449944 ,49,4715248198561
1.8590061 ,Left ,62,2669673428187 ,45,6360964449944 ,49,4715248198561
1.8590603 ,Left ,62,2669673428187 ,45,6360964449944 ,49,4715248198561
1.8590872 ,Left ,62,2669673428187 ,45,6360964449944 ,49,4715248198561
1.859094 ,Left ,62,2669673428187 ,45,6360964449944 ,49,4715248198561
1.8741543 ,Left ,62,2532411337947 ,45,5818828373845 ,49,4916531528796
1.8741623 ,Left ,62,2532411337947 ,45,5818828373845 ,49,4916531528796
1.8741691 ,Left ,62,2532411337947 ,45,5818828373845 ,49,4916531528796
1.874176 ,Left ,62,2532411337947 ,45,5818828373845 ,49,4916531528796
1.8741827 ,Left ,62,2532411337947 ,45,5818828373845 ,49,4916531528796
1.8741894 ,Left ,62,2532411337947 ,45,5818828373845 ,49,4916531528796
1.8964846 ,Left ,62,2689177968977 ,45,5257122649531 ,49,4981211394953
1.8964924 ,Left ,62,2689177968977 ,45,5257122649531 ,49,4981211394953
1.8964992 ,Left ,62,2689177968977 ,45,5257122649531 ,49,4981211394953
1.896506 ,Left ,62,2689177968977 ,45,5257122649531 ,49,4981211394953
1.8965127 ,Left ,62,2689177968977 ,45,5257122649531 ,49,4981211394953
1.8965195 ,Left ,62,2689177968977 ,45,5257122649531 ,49,4981211394953
1.9192774 ,Left ,62,2858567456825 ,45,5504271451024 ,49,4718870444761
1.9192858 ,Left ,62,2858567456825 ,45,5504271451024 ,49,4718870444761
1.9192927 ,Left ,62,2858567456825 ,45,5504271451024 ,49,4718870444761
1.9192997 ,Left ,62,2858567456825 ,45,5504271451024 ,49,4718870444761
1.9193064 ,Left ,62,2858567456825 ,45,5504271451024 ,49,4718870444761
1.9193131 ,Left ,62,2858567456825 ,45,5504271451024 ,49,4718870444761
1.9339659 ,Left ,62,2322531990554 ,45,6263636769737 ,49,4832068074126
1.9339734 ,Left ,62,2322531990554 ,45,6263636769737 ,49,4832068074126
1.9339802 ,Left ,62,2322531990554 ,45,6263636769737 ,49,4832068074126
1.9339871 ,Left ,62,2322531990554 ,45,6263636769737 ,49,4832068074126
1.9339938 ,Left ,62,2322531990554 ,45,6263636769737 ,49,4832068074126
1.9340006 ,Left ,62,2322531990554 ,45,6263636769737 ,49,4832068074126
1.9561535 ,Left ,62,2112349667954 ,45,6565992024477 ,49,5259647940181
1.9561571 ,Left ,62,2112349667954 ,45,6565992024477 ,49,5259647940181
1.95616 ,Left ,62,2112349667954 ,45,6565992024477 ,49,5259647940181
1.956163 ,Left ,62,2112349667954 ,45,6565992024477 ,49,5259647940181
1.9561659 ,Left ,62,2112349667954 ,45,6565992024477 ,49,5259647940181
1.9561688 ,Left ,62,2112349667954 ,45,6565992024477 ,49,5259647940181
1.9711771 ,Left ,62,2467040501308 ,45,6199490252466 ,49,5608877878176
1.9711802 ,Left ,62,2467040501308 ,45,6199490252466 ,49,5608877878176
1.9711826 ,Left ,62,2467040501308 ,45,6199490252466 ,49,5608877878176
1.971185 ,Left ,62,2467040501308 ,45,6199490252466 ,49,5608877878176
1.9711875 ,Left ,62,2467040501308 ,45,6199490252466 ,49,5608877878176
1.9711899 ,Left ,62,2467040501308 ,45,6199490252466 ,49,5608877878176
1.9859787 ,Left ,62,3356380366932 ,45,5367565808914 ,49,5733925549218
1.9859818 ,Left ,62,3356380366932 ,45,5367565808914 ,49,5733925549218
1.9859842 ,Left ,62,3356380366932 ,45,5367565808914 ,49,5733925549218
1.9859867 ,Left ,62,3356380366932 ,45,5367565808914 ,49,5733925549218
1.9859891 ,Left ,62,3356380366932 ,45,5367565808914 ,49,5733925549218
1.9859915 ,Left ,62,3356380366932 ,45,5367565808914 ,49,5733925549218
2.0083772 ,Left ,62,3971054242984 ,45,4734792856796 ,49,5868605907254
2.008379 ,Left ,62,3971054242984 ,45,4734792856796 ,49,5868605907254
2.0083805 ,Left ,62,3971054242984 ,45,4734792856796 ,49,5868605907254
2.0083821 ,Left ,62,3971054242984 ,45,4734792856796 ,49,5868605907254
2.0083836 ,Left ,62,3971054242984 ,45,4734792856796 ,49,5868605907254
2.0083851 ,Left ,62,3971054242984 ,45,4734792856796 ,49,5868605907254
2.0311522 ,Left ,62,4008156505454 ,45,4294619519306 ,49,6001936385226
2.0311558 ,Left ,62,4008156505454 ,45,4294619519306 ,49,6001936385226
2.0311577 ,Left ,62,4008156505454 ,45,4294619519306 ,49,6001936385226
2.0311594 ,Left ,62,4008156505454 ,45,4294619519306 ,49,6001936385226
2.0311612 ,Left ,62,4008156505454 ,45,4294619519306 ,49,6001936385226
2.0311659 ,Left ,62,4008156505454 ,45,4294619519306 ,49,6001936385226
2.0461002 ,Left ,62,357678969399 ,45,4229277578598 ,49,6058979314944
2.0461029 ,Left ,62,357678969399 ,45,4229277578598 ,49,6058979314944
2.046105 ,Left ,62,357678969399 ,45,4229277578598 ,49,6058979314944
2.0461072 ,Left ,62,357678969399 ,45,4229277578598 ,49,6058979314944
2.0461093 ,Left ,62,357678969399 ,45,4229277578598 ,49,6058979314944
2.0461114 ,Left ,62,357678969399 ,45,4229277578598 ,49,6058979314944
2.0759627 ,Left ,62,3692861741513 ,45,4063581046056 ,49,5931202556647
2.0759647 ,Left ,62,3692861741513 ,45,4063581046056 ,49,5931202556647
2.0759663 ,Left ,62,3692861741513 ,45,4063581046056 ,49,5931202556647
2.075968 ,Left ,62,3692861741513 ,45,4063581046056 ,49,5931202556647
2.0759696 ,Left ,62,3692861741513 ,45,4063581046056 ,49,5931202556647
2.0759712 ,Left ,62,3692861741513 ,45,4063581046056 ,49,5931202556647
2.0985209 ,Left ,62,4541609954205 ,45,3493148938129 ,49,5928343010707
2.0985236 ,Left ,62,4541609954205 ,45,3493148938129 ,49,5928343010707
2.0985256 ,Left ,62,4541609954205 ,45,3493148938129 ,49,5928343010707
2.0985275 ,Left ,62,4541609954205 ,45,3493148938129 ,49,5928343010707
2.0985294 ,Left ,62,4541609954205 ,45,3493148938129 ,49,5928343010707
2.0985313 ,Left ,62,4541609954205 ,45,3493148938129 ,49,5928343010707
2.1284381 ,Left ,62,6240561322694 ,45,2070865223915 ,49,5817087351724
2.1284405 ,Left ,62,6240561322694 ,45,2070865223915 ,49,5817087351724
2.1284425 ,Left ,62,6240561322694 ,45,2070865223915 ,49,5817087351724
2.1284445 ,Left ,62,6240561322694 ,45,2070865223915 ,49,5817087351724
2.1284463 ,Left ,62,6240561322694 ,45,2070865223915 ,49,5817087351724
2.1284482 ,Left ,62,6240561322694 ,45,2070865223915 ,49,5817087351724
2.1510102 ,Left ,62,5683927174225 ,45,2698581804838 ,49,5505564096377
2.151013 ,Left ,62,5683927174225 ,45,2698581804838 ,49,5505564096377
2.1510154 ,Left ,62,5683927174225 ,45,2698581804838 ,49,5505564096377
2.1510178 ,Left ,62,5683927174225 ,45,2698581804838 ,49,5505564096377
2.1510201 ,Left ,62,5683927174225 ,45,2698581804838 ,49,5505564096377
2.1510224 ,Left ,62,5683927174225 ,45,2698581804838 ,49,5505564096377
2.1660115 ,Left ,62,4394873219828 ,45,3677824842459 ,49,5285670233358
2.1660146 ,Left ,62,4394873219828 ,45,3677824842459 ,49,5285670233358
2.1660172 ,Left ,62,4394873219828 ,45,3677824842459 ,49,5285670233358
2.1660199 ,Left ,62,4394873219828 ,45,3677824842459 ,49,5285670233358
2.1660225 ,Left ,62,4394873219828 ,45,3677824842459 ,49,5285670233358
2.1660251 ,Left ,62,4394873219828 ,45,3677824842459 ,49,5285670233358
2.1886774 ,Left ,62,3927311856621 ,45,3972214880778 ,49,5138344821002
2.1886807 ,Left ,62,3927311856621 ,45,3972214880778 ,49,5138344821002
2.1886834 ,Left ,62,3927311856621 ,45,3972214880778 ,49,5138344821002
2.1886861 ,Left ,62,3927311856621 ,45,3972214880778 ,49,5138344821002
2.1886888 ,Left ,62,3927311856621 ,45,3972214880778 ,49,5138344821002
2.1886914 ,Left ,62,3927311856621 ,45,3972214880778 ,49,5138344821002
2.2112835 ,Left ,62,3978619548879 ,45,4043686601495 ,49,4905665574314
2.2112868 ,Left ,62,3978619548879 ,45,4043686601495 ,49,4905665574314
2.2112895 ,Left ,62,3978619548879 ,45,4043686601495 ,49,4905665574314
2.2112922 ,Left ,62,3978619548879 ,45,4043686601495 ,49,4905665574314
2.2112948 ,Left ,62,3978619548879 ,45,4043686601495 ,49,4905665574314
2.2112975 ,Left ,62,3978619548879 ,45,4043686601495 ,49,4905665574314
2.2336549 ,Left ,62,3971187894452 ,45,4111313322222 ,49,463752358597
2.2336581 ,Left ,62,3971187894452 ,45,4111313322222 ,49,463752358597
2.2336608 ,Left ,62,3971187894452 ,45,4111313322222 ,49,463752358597
2.2336635 ,Left ,62,3971187894452 ,45,4111313322222 ,49,463752358597
2.2336662 ,Left ,62,3971187894452 ,45,4111313322222 ,49,463752358597
2.2336688 ,Left ,62,3971187894452 ,45,4111313322222 ,49,463752358597
2.2559619 ,Left ,62,3803861013776 ,45,4408739949024 ,49,4341007414708
2.255965 ,Left ,62,3803861013776 ,45,4408739949024 ,49,4341007414708
2.2559677 ,Left ,62,3803861013776 ,45,4408739949024 ,49,4341007414708
2.2559704 ,Left ,62,3803861013776 ,45,4408739949024 ,49,4341007414708
2.255973 ,Left ,62,3803861013776 ,45,4408739949024 ,49,4341007414708
2.2559756 ,Left ,62,3803861013776 ,45,4408739949024 ,49,4341007414708
2.2790815 ,Left ,62,3316477774716 ,45,4611107616021 ,49,3946150526139
2.2790894 ,Left ,62,3316477774716 ,45,4611107616021 ,49,3946150526139
2.2790961 ,Left ,62,3316477774716 ,45,4611107616021 ,49,3946150526139
2.2791029 ,Left ,62,3316477774716 ,45,4611107616021 ,49,3946150526139
2.2791096 ,Left ,62,3316477774716 ,45,4611107616021 ,49,3946150526139
2.2791163 ,Left ,62,3316477774716 ,45,4611107616021 ,49,3946150526139
2.2866057 ,Left ,62,323825237854 ,45,4658050135865 ,49,346982671371
2.2866139 ,Left ,62,323825237854 ,45,4658050135865 ,49,346982671371
2.2866208 ,Left ,62,323825237854 ,45,4658050135865 ,49,346982671371
2.2866276 ,Left ,62,323825237854 ,45,4658050135865 ,49,346982671371
2.2866343 ,Left ,62,323825237854 ,45,4658050135865 ,49,346982671371
2.286641 ,Left ,62,323825237854 ,45,4658050135865 ,49,346982671371
2.3085643 ,Left ,62,3038538689378 ,45,4605357836018 ,49,2990894301638
2.3085662 ,Left ,62,3038538689378 ,45,4605357836018 ,49,2990894301638
2.3085677 ,Left ,62,3038538689378 ,45,4605357836018 ,49,2990894301638
2.3085692 ,Left ,62,3038538689378 ,45,4605357836018 ,49,2990894301638
2.3085707 ,Left ,62,3038538689378 ,45,4605357836018 ,49,2990894301638
2.3085722 ,Left ,62,3038538689378 ,45,4605357836018 ,49,2990894301638
2.3311091 ,Left ,62,3153143431509 ,45,4688405539964 ,49,2352616419693
2.3311111 ,Left ,62,3153143431509 ,45,4688405539964 ,49,2352616419693
2.3311126 ,Left ,62,3153143431509 ,45,4688405539964 ,49,2352616419693
2.3311142 ,Left ,62,3153143431509 ,45,4688405539964 ,49,2352616419693
2.3311156 ,Left ,62,3153143431509 ,45,4688405539964 ,49,2352616419693
2.3311171 ,Left ,62,3153143431509 ,45,4688405539964 ,49,2352616419693
2.3459453 ,Left ,62,2932940374762 ,45,4539007910906 ,49,1795689337533
2.3459602 ,Left ,62,2932940374762 ,45,4539007910906 ,49,1795689337533
2.3459617 ,Left ,62,2932940374762 ,45,4539007910906 ,49,1795689337533
2.3459632 ,Left ,62,2932940374762 ,45,4539007910906 ,49,1795689337533
2.3459646 ,Left ,62,2932940374762 ,45,4539007910906 ,49,1795689337533
2.3459661 ,Left ,62,2932940374762 ,45,4539007910906 ,49,1795689337533
2.3686013 ,Left ,62,2574049423899 ,45,4210977099542 ,49,1271461582243
2.368604 ,Left ,62,2574049423899 ,45,4210977099542 ,49,1271461582243
2.3686061 ,Left ,62,2574049423899 ,45,4210977099542 ,49,1271461582243
2.3686082 ,Left ,62,2574049423899 ,45,4210977099542 ,49,1271461582243
2.3686103 ,Left ,62,2574049423899 ,45,4210977099542 ,49,1271461582243
2.3686124 ,Left ,62,2574049423899 ,45,4210977099542 ,49,1271461582243
2.3987867 ,Left ,62,2450401564554 ,45,3968247248902 ,49,0830982046541
2.3987901 ,Left ,62,2450401564554 ,45,3968247248902 ,49,0830982046541
2.3987928 ,Left ,62,2450401564554 ,45,3968247248902 ,49,0830982046541
2.3987955 ,Left ,62,2450401564554 ,45,3968247248902 ,49,0830982046541
2.3987982 ,Left ,62,2450401564554 ,45,3968247248902 ,49,0830982046541
2.3988008 ,Left ,62,2450401564554 ,45,3968247248902 ,49,0830982046541
2.4137622 ,Left ,62,2413429622872 ,45,3710842426066 ,49,0415187565304
2.4137659 ,Left ,62,2413429622872 ,45,3710842426066 ,49,0415187565304
2.4137689 ,Left ,62,2413429622872 ,45,3710842426066 ,49,0415187565304
2.413772 ,Left ,62,2413429622872 ,45,3710842426066 ,49,0415187565304
2.413775 ,Left ,62,2413429622872 ,45,3710842426066 ,49,0415187565304
2.4137781 ,Left ,62,2413429622872 ,45,3710842426066 ,49,0415187565304
2.435884 ,Left ,62,1942718344007 ,45,3323669383082 ,49,0142424951794
2.435886 ,Left ,62,1942718344007 ,45,3323669383082 ,49,0142424951794
2.4358875 ,Left ,62,1942718344007 ,45,3323669383082 ,49,0142424951794
2.435889 ,Left ,62,1942718344007 ,45,3323669383082 ,49,0142424951794
2.4358905 ,Left ,62,1942718344007 ,45,3323669383082 ,49,0142424951794
2.435892 ,Left ,62,1942718344007 ,45,3323669383082 ,49,0142424951794
2.4509195 ,Left ,62,1565118283138 ,45,2946388727632 ,48,9944245100966
2.4509214 ,Left ,62,1565118283138 ,45,2946388727632 ,48,9944245100966
2.4509229 ,Left ,62,1565118283138 ,45,2946388727632 ,48,9944245100966
2.4509244 ,Left ,62,1565118283138 ,45,2946388727632 ,48,9944245100966
2.4509259 ,Left ,62,1565118283138 ,45,2946388727632 ,48,9944245100966
2.4509274 ,Left ,62,1565118283138 ,45,2946388727632 ,48,9944245100966
2.4659214 ,Left ,62,1394339157938 ,45,2646946139851 ,48,9745935558896
2.4659237 ,Left ,62,1394339157938 ,45,2646946139851 ,48,9745935558896
2.4659254 ,Left ,62,1394339157938 ,45,2646946139851 ,48,9745935558896
2.4659271 ,Left ,62,1394339157938 ,45,2646946139851 ,48,9745935558896
2.4659289 ,Left ,62,1394339157938 ,45,2646946139851 ,48,9745935558896
2.4659306 ,Left ,62,1394339157938 ,45,2646946139851 ,48,9745935558896
2.489243 ,Left ,62,1215629663324 ,45,2642027126532 ,48,9666361687257
2.4892508 ,Left ,62,1215629663324 ,45,2642027126532 ,48,9666361687257
2.4892576 ,Left ,62,1215629663324 ,45,2642027126532 ,48,9666361687257
2.4892644 ,Left ,62,1215629663324 ,45,2642027126532 ,48,9666361687257
2.4892712 ,Left ,62,1215629663324 ,45,2642027126532 ,48,9666361687257
2.4892779 ,Left ,62,1215629663324 ,45,2642027126532 ,48,9666361687257
2.5116367 ,Left ,62,1075280631656 ,45,2819265782298 ,48,9655654508916
2.5116423 ,Left ,62,1075280631656 ,45,2819265782298 ,48,9655654508916
2.5116471 ,Left ,62,1075280631656 ,45,2819265782298 ,48,9655654508916
2.5116519 ,Left ,62,1075280631656 ,45,2819265782298 ,48,9655654508916
2.5116565 ,Left ,62,1075280631656 ,45,2819265782298 ,48,9655654508916
2.5116612 ,Left ,62,1075280631656 ,45,2819265782298 ,48,9655654508916
2.5262909 ,Left ,62,1034130384921 ,45,2928829823851 ,48,9705614960294
2.5262969 ,Left ,62,1034130384921 ,45,2928829823851 ,48,9705614960294
2.5263016 ,Left ,62,1034130384921 ,45,2928829823851 ,48,9705614960294
2.5263063 ,Left ,62,1034130384921 ,45,2928829823851 ,48,9705614960294
2.5263109 ,Left ,62,1034130384921 ,45,2928829823851 ,48,9705614960294
2.5263156 ,Left ,62,1034130384921 ,45,2928829823851 ,48,9705614960294
2.5489393 ,Left ,62,1127107017743 ,45,2955871405934 ,48,9787562270354
2.5489449 ,Left ,62,1127107017743 ,45,2955871405934 ,48,9787562270354
2.5489496 ,Left ,62,1127107017743 ,45,2955871405934 ,48,9787562270354
2.5489543 ,Left ,62,1127107017743 ,45,2955871405934 ,48,9787562270354
2.548959 ,Left ,62,1127107017743 ,45,2955871405934 ,48,9787562270354
2.5489637 ,Left ,62,1127107017743 ,45,2955871405934 ,48,9787562270354
2.5787414 ,Left ,62,1176589685475 ,45,2923505634404 ,48,9870367884472
2.5787468 ,Left ,62,1176589685475 ,45,2923505634404 ,48,9870367884472
2.5787516 ,Left ,62,1176589685475 ,45,2923505634404 ,48,9870367884472
2.5787608 ,Left ,62,1176589685475 ,45,2923505634404 ,48,9870367884472
2.5787655 ,Left ,62,1176589685475 ,45,2923505634404 ,48,9870367884472
2.5787701 ,Left ,62,1176589685475 ,45,2923505634404 ,48,9870367884472
2.5935198 ,Left ,62,1127995739518 ,45,2899417802371 ,48,9932622380295
2.5935229 ,Left ,62,1127995739518 ,45,2899417802371 ,48,9932622380295
2.5935253 ,Left ,62,1127995739518 ,45,2899417802371 ,48,9932622380295
2.593528 ,Left ,62,1127995739518 ,45,2899417802371 ,48,9932622380295
2.5935304 ,Left ,62,1127995739518 ,45,2899417802371 ,48,9932622380295
2.5935329 ,Left ,62,1127995739518 ,45,2899417802371 ,48,9932622380295
2.6384057 ,Left ,62,0966691139129 ,45,2782099081521 ,49,0080181495255
2.6384077 ,Left ,62,0966691139129 ,45,2782099081521 ,49,0080181495255
2.6384093 ,Left ,62,0966691139129 ,45,2782099081521 ,49,0080181495255
2.6384108 ,Left ,62,0966691139129 ,45,2782099081521 ,49,0080181495255
2.6384126 ,Left ,62,0966691139129 ,45,2782099081521 ,49,0080181495255
2.6384141 ,Left ,62,0966691139129 ,45,2782099081521 ,49,0080181495255
2.6908912 ,Left ,62,0831460822622 ,45,306042977652 ,49,0510430192003
2.6908929 ,Left ,62,0831460822622 ,45,306042977652 ,49,0510430192003
2.6908944 ,Left ,62,0831460822622 ,45,306042977652 ,49,0510430192003
2.690896 ,Left ,62,0831460822622 ,45,306042977652 ,49,0510430192003
2.6908975 ,Left ,62,0831460822622 ,45,306042977652 ,49,0510430192003
2.690899 ,Left ,62,0831460822622 ,45,306042977652 ,49,0510430192003
2.7288024 ,Left ,62,0439760780311 ,45,3662137243517 ,49,0897509588174
2.7288057 ,Left ,62,0439760780311 ,45,3662137243517 ,49,0897509588174
2.7288084 ,Left ,62,0439760780311 ,45,3662137243517 ,49,0897509588174
2.7288111 ,Left ,62,0439760780311 ,45,3662137243517 ,49,0897509588174
2.7288138 ,Left ,62,0439760780311 ,45,3662137243517 ,49,0897509588174
2.7288164 ,Left ,62,0439760780311 ,45,3662137243517 ,49,0897509588174
2.7508756 ,Left ,62,017695229116 ,45,4061318636023 ,49,1140638108664
2.7508775 ,Left ,62,017695229116 ,45,4061318636023 ,49,1140638108664
2.750879 ,Left ,62,017695229116 ,45,4061318636023 ,49,1140638108664
2.7508805 ,Left ,62,017695229116 ,45,4061318636023 ,49,1140638108664
2.750882 ,Left ,62,017695229116 ,45,4061318636023 ,49,1140638108664
2.7508835 ,Left ,62,017695229116 ,45,4061318636023 ,49,1140638108664
2.7886695 ,Left ,61,9693165284433 ,45,4458776553085 ,49,1458618153402
2.7886718 ,Left ,61,9693165284433 ,45,4458776553085 ,49,1458618153402
2.7886734 ,Left ,61,9693165284433 ,45,4458776553085 ,49,1458618153402
2.7886752 ,Left ,61,9693165284433 ,45,4458776553085 ,49,1458618153402
2.7886768 ,Left ,61,9693165284433 ,45,4458776553085 ,49,1458618153402
2.7886785 ,Left ,61,9693165284433 ,45,4458776553085 ,49,1458618153402
2.8109046 ,Left ,61,9466356118036 ,45,454330996537 ,49,1528049622669
2.8109066 ,Left ,61,9466356118036 ,45,454330996537 ,49,1528049622669
2.8109082 ,Left ,61,9466356118036 ,45,454330996537 ,49,1528049622669
2.8109097 ,Left ,61,9466356118036 ,45,454330996537 ,49,1528049622669
2.8109112 ,Left ,61,9466356118036 ,45,454330996537 ,49,1528049622669
2.8109127 ,Left ,61,9466356118036 ,45,454330996537 ,49,1528049622669
2.8486487 ,Left ,61,8899958452852 ,45,4566467062428 ,49,1623375976834
2.8486508 ,Left ,61,8899958452852 ,45,4566467062428 ,49,1623375976834
2.8486524 ,Left ,61,8899958452852 ,45,4566467062428 ,49,1623375976834
2.8486539 ,Left ,61,8899958452852 ,45,4566467062428 ,49,1623375976834
2.8486554 ,Left ,61,8899958452852 ,45,4566467062428 ,49,1623375976834
2.8486569 ,Left ,61,8899958452852 ,45,4566467062428 ,49,1623375976834
2.8710751 ,Left ,61,8988941686554 ,45,4261153229404 ,49,1637706431683
2.8710771 ,Left ,61,8988941686554 ,45,4261153229404 ,49,1637706431683
2.8710786 ,Left ,61,8988941686554 ,45,4261153229404 ,49,1637706431683
2.8710801 ,Left ,61,8988941686554 ,45,4261153229404 ,49,1637706431683
2.8710816 ,Left ,61,8988941686554 ,45,4261153229404 ,49,1637706431683
2.8710831 ,Left ,61,8988941686554 ,45,4261153229404 ,49,1637706431683
2.9089273 ,Left ,61,9796672116871 ,45,342045020321 ,49,161877056091
2.9089331 ,Left ,61,9796672116871 ,45,342045020321 ,49,161877056091
2.9089379 ,Left ,61,9796672116871 ,45,342045020321 ,49,161877056091
2.9089427 ,Left ,61,9796672116871 ,45,342045020321 ,49,161877056091
2.9089473 ,Left ,61,9796672116871 ,45,342045020321 ,49,161877056091
2.9089519 ,Left ,61,9796672116871 ,45,342045020321 ,49,161877056091
2.9312617 ,Left ,61,9917453632042 ,45,3204090382797 ,49,1938001662004
2.9312652 ,Left ,61,9917453632042 ,45,3204090382797 ,49,1938001662004
2.9312681 ,Left ,61,9917453632042 ,45,3204090382797 ,49,1938001662004
2.9312711 ,Left ,61,9917453632042 ,45,3204090382797 ,49,1938001662004
2.9312741 ,Left ,61,9917453632042 ,45,3204090382797 ,49,1938001662004
2.931277 ,Left ,61,9917453632042 ,45,3204090382797 ,49,1938001662004
2.9684782 ,Left ,61,955090708077 ,45,3378495737973 ,49,282310848954
2.96848 ,Left ,61,955090708077 ,45,3378495737973 ,49,282310848954
2.9684815 ,Left ,61,955090708077 ,45,3378495737973 ,49,282310848954
2.968483 ,Left ,61,955090708077 ,45,3378495737973 ,49,282310848954
2.9684844 ,Left ,61,955090708077 ,45,3378495737973 ,49,282310848954
2.9684859 ,Left ,61,955090708077 ,45,3378495737973 ,49,282310848954
3.0062663 ,Left ,61,9922615818194 ,45,5323939631545 ,49,2252998507955
3.0062698 ,Left ,61,9922615818194 ,45,5323939631545 ,49,2252998507955
3.0062724 ,Left ,61,9922615818194 ,45,5323939631545 ,49,2252998507955
3.0062752 ,Left ,61,9922615818194 ,45,5323939631545 ,49,2252998507955
3.0062778 ,Left ,61,9922615818194 ,45,5323939631545 ,49,2252998507955
3.0062804 ,Left ,61,9922615818194 ,45,5323939631545 ,49,2252998507955
3.0291719 ,Left ,62,0194401154403 ,45,5949093260648 ,49,1661557086261
3.0291797 ,Left ,62,0194401154403 ,45,5949093260648 ,49,1661557086261
3.0291864 ,Left ,62,0194401154403 ,45,5949093260648 ,49,1661557086261
3.0291933 ,Left ,62,0194401154403 ,45,5949093260648 ,49,1661557086261
3.0292 ,Left ,62,0194401154403 ,45,5949093260648 ,49,1661557086261
3.0292067 ,Left ,62,0194401154403 ,45,5949093260648 ,49,1661557086261
3.0664611 ,Left ,62,0137544588108 ,45,6050687991286 ,49,0868241984956
3.0664732 ,Left ,62,0137544588108 ,45,6050687991286 ,49,0868241984956
3.0664838 ,Left ,62,0137544588108 ,45,6050687991286 ,49,0868241984956
3.0664948 ,Left ,62,0137544588108 ,45,6050687991286 ,49,0868241984956
3.0665047 ,Left ,62,0137544588108 ,45,6050687991286 ,49,0868241984956
3.0665145 ,Left ,62,0137544588108 ,45,6050687991286 ,49,0868241984956
3.0886797 ,Left ,62,0440267361975 ,45,5762420684541 ,49,0559608178345
3.0886827 ,Left ,62,0440267361975 ,45,5762420684541 ,49,0559608178345
3.0886852 ,Left ,62,0440267361975 ,45,5762420684541 ,49,0559608178345
3.0886876 ,Left ,62,0440267361975 ,45,5762420684541 ,49,0559608178345
3.08869 ,Left ,62,0440267361975 ,45,5762420684541 ,49,0559608178345
3.0886924 ,Left ,62,0440267361975 ,45,5762420684541 ,49,0559608178345
3.1262235 ,Left ,62,1117683024726 ,45,4426441611604 ,49,0042551638554
3.1262265 ,Left ,62,1117683024726 ,45,4426441611604 ,49,0042551638554
3.1262289 ,Left ,62,1117683024726 ,45,4426441611604 ,49,0042551638554
3.1262314 ,Left ,62,1117683024726 ,45,4426441611604 ,49,0042551638554
3.1262339 ,Left ,62,1117683024726 ,45,4426441611604 ,49,0042551638554
3.1262364 ,Left ,62,1117683024726 ,45,4426441611604 ,49,0042551638554
3.1488185 ,Left ,62,1886647756891 ,45,3781102874237 ,49,0380487438949
3.1488215 ,Left ,62,1886647756891 ,45,3781102874237 ,49,0380487438949
3.1488239 ,Left ,62,1886647756891 ,45,3781102874237 ,49,0380487438949
3.1488264 ,Left ,62,1886647756891 ,45,3781102874237 ,49,0380487438949
3.1488288 ,Left ,62,1886647756891 ,45,3781102874237 ,49,0380487438949
3.1488312 ,Left ,62,1886647756891 ,45,3781102874237 ,49,0380487438949
3.1712815 ,Left ,62,2630306473531 ,45,3289497877748 ,49,0759266925941
3.1712846 ,Left ,62,2630306473531 ,45,3289497877748 ,49,0759266925941
3.1712871 ,Left ,62,2630306473531 ,45,3289497877748 ,49,0759266925941
3.1712896 ,Left ,62,2630306473531 ,45,3289497877748 ,49,0759266925941
3.171292 ,Left ,62,2630306473531 ,45,3289497877748 ,49,0759266925941
3.1712944 ,Left ,62,2630306473531 ,45,3289497877748 ,49,0759266925941
3.2087324 ,Left ,62,2641374230583 ,45,3539378427326 ,49,0668065350562
3.2087348 ,Left ,62,2641374230583 ,45,3539378427326 ,49,0668065350562
3.2087367 ,Left ,62,2641374230583 ,45,3539378427326 ,49,0668065350562
3.2087387 ,Left ,62,2641374230583 ,45,3539378427326 ,49,0668065350562
3.2087405 ,Left ,62,2641374230583 ,45,3539378427326 ,49,0668065350562
3.2087424 ,Left ,62,2641374230583 ,45,3539378427326 ,49,0668065350562
3.2458299 ,Left ,62,2704666726118 ,45,421503444576 ,49,0300874917659
3.2458319 ,Left ,62,2704666726118 ,45,421503444576 ,49,0300874917659
3.2458334 ,Left ,62,2704666726118 ,45,421503444576 ,49,0300874917659
3.2458349 ,Left ,62,2704666726118 ,45,421503444576 ,49,0300874917659
3.2458364 ,Left ,62,2704666726118 ,45,421503444576 ,49,0300874917659
3.2458379 ,Left ,62,2704666726118 ,45,421503444576 ,49,0300874917659
3.2761153 ,Left ,62,2624070683415 ,45,4171466765489 ,49,0042762015222
3.2761174 ,Left ,62,2624070683415 ,45,4171466765489 ,49,0042762015222
3.276119 ,Left ,62,2624070683415 ,45,4171466765489 ,49,0042762015222
3.2761206 ,Left ,62,2624070683415 ,45,4171466765489 ,49,0042762015222
3.2761229 ,Left ,62,2624070683415 ,45,4171466765489 ,49,0042762015222
3.2761565 ,Left ,62,2624070683415 ,45,4171466765489 ,49,0042762015222
3.3135772 ,Left ,62,2623277391915 ,45,3688211602702 ,48,9504991000284
3.3135802 ,Left ,62,2623277391915 ,45,3688211602702 ,48,9504991000284
3.3135826 ,Left ,62,2623277391915 ,45,3688211602702 ,48,9504991000284
3.313585 ,Left ,62,2623277391915 ,45,3688211602702 ,48,9504991000284
3.3135873 ,Left ,62,2623277391915 ,45,3688211602702 ,48,9504991000284
3.3135897 ,Left ,62,2623277391915 ,45,3688211602702 ,48,9504991000284
3.3287613 ,Left ,62,3117462586575 ,45,2910723639285 ,48,9657892282889
3.3287642 ,Left ,62,3117462586575 ,45,2910723639285 ,48,9657892282889
3.3287666 ,Left ,62,3117462586575 ,45,2910723639285 ,48,9657892282889
3.3287692 ,Left ,62,3117462586575 ,45,2910723639285 ,48,9657892282889
3.3287715 ,Left ,62,3117462586575 ,45,2910723639285 ,48,9657892282889
3.3287738 ,Left ,62,3117462586575 ,45,2910723639285 ,48,9657892282889
3.3660797 ,Left ,62,3192158264582 ,45,2863784218584 ,48,9984568969387
3.3660817 ,Left ,62,3192158264582 ,45,2863784218584 ,48,9984568969387
3.3660832 ,Left ,62,3192158264582 ,45,2863784218584 ,48,9984568969387
3.3660848 ,Left ,62,3192158264582 ,45,2863784218584 ,48,9984568969387
3.3660864 ,Left ,62,3192158264582 ,45,2863784218584 ,48,9984568969387
3.3660879 ,Left ,62,3192158264582 ,45,2863784218584 ,48,9984568969387
3.3884794 ,Left ,62,2314206360646 ,45,333505774089 ,49,0193409813465
3.3884816 ,Left ,62,2314206360646 ,45,333505774089 ,49,0193409813465
3.3884832 ,Left ,62,2314206360646 ,45,333505774089 ,49,0193409813465
3.3884849 ,Left ,62,2314206360646 ,45,333505774089 ,49,0193409813465
3.3884866 ,Left ,62,2314206360646 ,45,333505774089 ,49,0193409813465
3.3884882 ,Left ,62,2314206360646 ,45,333505774089 ,49,0193409813465
3.4259942 ,Left ,62,1769990276501 ,45,5061303761548 ,49,0686714867214
3.4259967 ,Left ,62,1769990276501 ,45,5061303761548 ,49,0686714867214
3.4259987 ,Left ,62,1769990276501 ,45,5061303761548 ,49,0686714867214
3.4260007 ,Left ,62,1769990276501 ,45,5061303761548 ,49,0686714867214
3.4260027 ,Left ,62,1769990276501 ,45,5061303761548 ,49,0686714867214
3.4260046 ,Left ,62,1769990276501 ,45,5061303761548 ,49,0686714867214
3.4487294 ,Left ,62,1458367050196 ,45,5963268052524 ,49,0949521872209
3.4487321 ,Left ,62,1458367050196 ,45,5963268052524 ,49,0949521872209
3.4487343 ,Left ,62,1458367050196 ,45,5963268052524 ,49,0949521872209
3.4487365 ,Left ,62,1458367050196 ,45,5963268052524 ,49,0949521872209
3.4487387 ,Left ,62,1458367050196 ,45,5963268052524 ,49,0949521872209
3.4487409 ,Left ,62,1458367050196 ,45,5963268052524 ,49,0949521872209
3.4859568 ,Left ,62,0573833709536 ,45,7199347890946 ,49,141111751047
3.4859586 ,Left ,62,0573833709536 ,45,7199347890946 ,49,141111751047
3.4859601 ,Left ,62,0573833709536 ,45,7199347890946 ,49,141111751047
3.4859616 ,Left ,62,0573833709536 ,45,7199347890946 ,49,141111751047
3.4859631 ,Left ,62,0573833709536 ,45,7199347890946 ,49,141111751047
3.4859646 ,Left ,62,0573833709536 ,45,7199347890946 ,49,141111751047
3.5085305 ,Left ,62,0388154664957 ,45,7504306719307 ,49,1348883970949
3.5085331 ,Left ,62,0388154664957 ,45,7504306719307 ,49,1348883970949
3.5085352 ,Left ,62,0388154664957 ,45,7504306719307 ,49,1348883970949
3.5085373 ,Left ,62,0388154664957 ,45,7504306719307 ,49,1348883970949
3.5085394 ,Left ,62,0388154664957 ,45,7504306719307 ,49,1348883970949
3.5085414 ,Left ,62,0388154664957 ,45,7504306719307 ,49,1348883970949
3.5458917 ,Left ,62,0484611185195 ,45,611967362473 ,49,2171688403264
3.5458936 ,Left ,62,0484611185195 ,45,611967362473 ,49,2171688403264
3.5458952 ,Left ,62,0484611185195 ,45,611967362473 ,49,2171688403264
3.5458967 ,Left ,62,0484611185195 ,45,611967362473 ,49,2171688403264
3.5458982 ,Left ,62,0484611185195 ,45,611967362473 ,49,2171688403264
3.5458997 ,Left ,62,0484611185195 ,45,611967362473 ,49,2171688403264
3.5685686 ,Left ,62,1526284211874 ,45,5006074573563 ,49,2283725483886
3.5685707 ,Left ,62,1526284211874 ,45,5006074573563 ,49,2283725483886
3.5685723 ,Left ,62,1526284211874 ,45,5006074573563 ,49,2283725483886
3.5685739 ,Left ,62,1526284211874 ,45,5006074573563 ,49,2283725483886
3.5685756 ,Left ,62,1526284211874 ,45,5006074573563 ,49,2283725483886
3.5685772 ,Left ,62,1526284211874 ,45,5006074573563 ,49,2283725483886
3.5910978 ,Left ,62,2033124454493 ,45,4970576241233 ,49,174837697619
3.5911007 ,Left ,62,2033124454493 ,45,4970576241233 ,49,174837697619
3.5911031 ,Left ,62,2033124454493 ,45,4970576241233 ,49,174837697619
3.5911055 ,Left ,62,2033124454493 ,45,4970576241233 ,49,174837697619
3.5911079 ,Left ,62,2033124454493 ,45,4970576241233 ,49,174837697619
3.5911102 ,Left ,62,2033124454493 ,45,4970576241233 ,49,174837697619
3.6289128 ,Left ,62,0974564789089 ,45,4722790551738 ,49,1494055777855
3.6289171 ,Left ,62,0974564789089 ,45,4722790551738 ,49,1494055777855
3.6289207 ,Left ,62,0974564789089 ,45,4722790551738 ,49,1494055777855
3.6289243 ,Left ,62,0974564789089 ,45,4722790551738 ,49,1494055777855
3.6289279 ,Left ,62,0974564789089 ,45,4722790551738 ,49,1494055777855
3.6289315 ,Left ,62,0974564789089 ,45,4722790551738 ,49,1494055777855
3.6660625 ,Left ,62,2838077034444 ,45,4049259297534 ,49,1439872889618
3.6660793 ,Left ,62,2838077034444 ,45,4049259297534 ,49,1439872889618
3.6660829 ,Left ,62,2838077034444 ,45,4049259297534 ,49,1439872889618
3.6660865 ,Left ,62,2838077034444 ,45,4049259297534 ,49,1439872889618
3.6660901 ,Left ,62,2838077034444 ,45,4049259297534 ,49,1439872889618
3.6660937 ,Left ,62,2838077034444 ,45,4049259297534 ,49,1439872889618
3.6888951 ,Left ,62,2997742515851 ,45,3733428965757 ,49,1263696254103
3.6888995 ,Left ,62,2997742515851 ,45,3733428965757 ,49,1263696254103
3.6889031 ,Left ,62,2997742515851 ,45,3733428965757 ,49,1263696254103
3.6889067 ,Left ,62,2997742515851 ,45,3733428965757 ,49,1263696254103
3.6889104 ,Left ,62,2997742515851 ,45,3733428965757 ,49,1263696254103
3.6889139 ,Left ,62,2997742515851 ,45,3733428965757 ,49,1263696254103
3.7261572 ,Left ,62,3445443718838 ,45,3463139398703 ,49,0847968122385
3.7261614 ,Left ,62,3445443718838 ,45,3463139398703 ,49,0847968122385
3.726165 ,Left ,62,3445443718838 ,45,3463139398703 ,49,0847968122385
3.7261687 ,Left ,62,3445443718838 ,45,3463139398703 ,49,0847968122385
3.7261722 ,Left ,62,3445443718838 ,45,3463139398703 ,49,0847968122385
3.7261758 ,Left ,62,3445443718838 ,45,3463139398703 ,49,0847968122385
3.748831 ,Left ,62,3448604578918 ,45,3621420110899 ,49,0766601308036
3.7488353 ,Left ,62,3448604578918 ,45,3621420110899 ,49,0766601308036
3.7488389 ,Left ,62,3448604578918 ,45,3621420110899 ,49,0766601308036
3.7488426 ,Left ,62,3448604578918 ,45,3621420110899 ,49,0766601308036
3.7488461 ,Left ,62,3448604578918 ,45,3621420110899 ,49,0766601308036
3.7488496 ,Left ,62,3448604578918 ,45,3621420110899 ,49,0766601308036
3.7938227 ,Left ,62,3348040545337 ,45,4286441700409 ,49,0759528495469
3.793827 ,Left ,62,3348040545337 ,45,4286441700409 ,49,0759528495469
3.7938305 ,Left ,62,3348040545337 ,45,4286441700409 ,49,0759528495469
3.7938341 ,Left ,62,3348040545337 ,45,4286441700409 ,49,0759528495469
3.7938377 ,Left ,62,3348040545337 ,45,4286441700409 ,49,0759528495469
3.7938413 ,Left ,62,3348040545337 ,45,4286441700409 ,49,0759528495469
3.8161383 ,Left ,62,3008812905661 ,45,4777135469161 ,49,0886124844897
3.8161426 ,Left ,62,3008812905661 ,45,4777135469161 ,49,0886124844897
3.8161462 ,Left ,62,3008812905661 ,45,4777135469161 ,49,0886124844897
3.8161498 ,Left ,62,3008812905661 ,45,4777135469161 ,49,0886124844897
3.8161534 ,Left ,62,3008812905661 ,45,4777135469161 ,49,0886124844897
3.8161569 ,Left ,62,3008812905661 ,45,4777135469161 ,49,0886124844897
3.8461247 ,Left ,62,1869918852325 ,45,6024203618575 ,49,1294342553241
3.8461309 ,Left ,62,1869918852325 ,45,6024203618575 ,49,1294342553241
3.8461344 ,Left ,62,1869918852325 ,45,6024203618575 ,49,1294342553241
3.8461379 ,Left ,62,1869918852325 ,45,6024203618575 ,49,1294342553241
3.8461415 ,Left ,62,1869918852325 ,45,6024203618575 ,49,1294342553241
3.846145 ,Left ,62,1869918852325 ,45,6024203618575 ,49,1294342553241
3.86111 ,Left ,62,1117826341015 ,45,6546366161782 ,49,1636731801553
3.8611144 ,Left ,62,1117826341015 ,45,6546366161782 ,49,1636731801553
3.861118 ,Left ,62,1117826341015 ,45,6546366161782 ,49,1636731801553
3.861122 ,Left ,62,1117826341015 ,45,6546366161782 ,49,1636731801553
3.8611256 ,Left ,62,1117826341015 ,45,6546366161782 ,49,1636731801553
3.8611291 ,Left ,62,1117826341015 ,45,6546366161782 ,49,1636731801553
3.8837228 ,Left ,62,0636248267183 ,45,6970127499967 ,49,1985236150324
3.8837264 ,Left ,62,0636248267183 ,45,6970127499967 ,49,1985236150324
3.8837293 ,Left ,62,0636248267183 ,45,6970127499967 ,49,1985236150324
3.8837323 ,Left ,62,0636248267183 ,45,6970127499967 ,49,1985236150324
3.8837352 ,Left ,62,0636248267183 ,45,6970127499967 ,49,1985236150324
3.883738 ,Left ,62,0636248267183 ,45,6970127499967 ,49,1985236150324
3.9060991 ,Left ,62,0223417239656 ,45,7251711816493 ,49,232453210171
3.9061026 ,Left ,62,0223417239656 ,45,7251711816493 ,49,232453210171
3.9061055 ,Left ,62,0223417239656 ,45,7251711816493 ,49,232453210171
3.9061084 ,Left ,62,0223417239656 ,45,7251711816493 ,49,232453210171
3.9061113 ,Left ,62,0223417239656 ,45,7251711816493 ,49,232453210171
3.9061143 ,Left ,62,0223417239656 ,45,7251711816493 ,49,232453210171
3.9209875 ,Left ,61,9895280458704 ,45,7256246421911 ,49,271159798692
3.9209908 ,Left ,61,9895280458704 ,45,7256246421911 ,49,271159798692
3.9209937 ,Left ,61,9895280458704 ,45,7256246421911 ,49,271159798692
3.9209967 ,Left ,61,9895280458704 ,45,7256246421911 ,49,271159798692
3.9209995 ,Left ,61,9895280458704 ,45,7256246421911 ,49,271159798692
3.9210024 ,Left ,61,9895280458704 ,45,7256246421911 ,49,271159798692
3.951202 ,Left ,62,0139757132326 ,45,6865924538526 ,49,2984840442855
3.951204 ,Left ,62,0139757132326 ,45,6865924538526 ,49,2984840442855
3.9512055 ,Left ,62,0139757132326 ,45,6865924538526 ,49,2984840442855
3.9512071 ,Left ,62,0139757132326 ,45,6865924538526 ,49,2984840442855
3.9512085 ,Left ,62,0139757132326 ,45,6865924538526 ,49,2984840442855
3.95121 ,Left ,62,0139757132326 ,45,6865924538526 ,49,2984840442855
3.9660052 ,Left ,62,0565160719259 ,45,6306335878812 ,49,297387623448
3.9660075 ,Left ,62,0565160719259 ,45,6306335878812 ,49,297387623448
3.966009 ,Left ,62,0565160719259 ,45,6306335878812 ,49,297387623448
3.9660106 ,Left ,62,0565160719259 ,45,6306335878812 ,49,297387623448
3.9660121 ,Left ,62,0565160719259 ,45,6306335878812 ,49,297387623448
3.9660136 ,Left ,62,0565160719259 ,45,6306335878812 ,49,297387623448
3.9887357 ,Left ,62,0576261712983 ,45,6368562215079 ,49,2552539363037
3.9887383 ,Left ,62,0576261712983 ,45,6368562215079 ,49,2552539363037
3.9887404 ,Left ,62,0576261712983 ,45,6368562215079 ,49,2552539363037
3.9887425 ,Left ,62,0576261712983 ,45,6368562215079 ,49,2552539363037
3.9887447 ,Left ,62,0576261712983 ,45,6368562215079 ,49,2552539363037
3.9887467 ,Left ,62,0576261712983 ,45,6368562215079 ,49,2552539363037
4.0183795 ,Left ,62,0045558006006 ,45,6265678229987 ,49,2210699267417
4.0183813 ,Left ,62,0045558006006 ,45,6265678229987 ,49,2210699267417
4.0183828 ,Left ,62,0045558006006 ,45,6265678229987 ,49,2210699267417
4.0183843 ,Left ,62,0045558006006 ,45,6265678229987 ,49,2210699267417
4.0183858 ,Left ,62,0045558006006 ,45,6265678229987 ,49,2210699267417
4.0183873 ,Left ,62,0045558006006 ,45,6265678229987 ,49,2210699267417
4.0409246 ,Left ,62,0756602083443 ,45,5578604158418 ,49,1914084605105
4.0409265 ,Left ,62,0756602083443 ,45,5578604158418 ,49,1914084605105
4.040928 ,Left ,62,0756602083443 ,45,5578604158418 ,49,1914084605105
4.0409295 ,Left ,62,0756602083443 ,45,5578604158418 ,49,1914084605105
4.040931 ,Left ,62,0756602083443 ,45,5578604158418 ,49,1914084605105
4.0409325 ,Left ,62,0756602083443 ,45,5578604158418 ,49,1914084605105
4.0710852 ,Left ,62,1397833729982 ,45,4614619486937 ,49,1680694444408
4.0710877 ,Left ,62,1397833729982 ,45,4614619486937 ,49,1680694444408
4.0710893 ,Left ,62,1397833729982 ,45,4614619486937 ,49,1680694444408
4.0710909 ,Left ,62,1397833729982 ,45,4614619486937 ,49,1680694444408
4.0710925 ,Left ,62,1397833729982 ,45,4614619486937 ,49,1680694444408
4.0710942 ,Left ,62,1397833729982 ,45,4614619486937 ,49,1680694444408
4.0860701 ,Left ,62,1733109366167 ,45,3829286080294 ,49,1333539671655
4.0860723 ,Left ,62,1733109366167 ,45,3829286080294 ,49,1333539671655
4.086074 ,Left ,62,1733109366167 ,45,3829286080294 ,49,1333539671655
4.0860758 ,Left ,62,1733109366167 ,45,3829286080294 ,49,1333539671655
4.0860775 ,Left ,62,1733109366167 ,45,3829286080294 ,49,1333539671655
4.0860793 ,Left ,62,1733109366167 ,45,3829286080294 ,49,1333539671655
4.1086841 ,Left ,62,1665236539679 ,45,3370308809921 ,49,09469528254
4.1086874 ,Left ,62,1665236539679 ,45,3370308809921 ,49,09469528254
4.1086901 ,Left ,62,1665236539679 ,45,3370308809921 ,49,09469528254
4.1086928 ,Left ,62,1665236539679 ,45,3370308809921 ,49,09469528254
4.1086954 ,Left ,62,1665236539679 ,45,3370308809921 ,49,09469528254
4.108698 ,Left ,62,1665236539679 ,45,3370308809921 ,49,09469528254
4.1238601 ,Left ,62,1554029696329 ,45,3143020595801 ,49,0679918234935
4.1238644 ,Left ,62,1554029696329 ,45,3143020595801 ,49,0679918234935
4.123868 ,Left ,62,1554029696329 ,45,3143020595801 ,49,0679918234935
4.1238716 ,Left ,62,1554029696329 ,45,3143020595801 ,49,0679918234935
4.1238752 ,Left ,62,1554029696329 ,45,3143020595801 ,49,0679918234935
4.1238788 ,Left ,62,1554029696329 ,45,3143020595801 ,49,0679918234935
4.1461906 ,Left ,62,1684115422474 ,45,2948029925053 ,49,0517687838042
4.1461949 ,Left ,62,1684115422474 ,45,2948029925053 ,49,0517687838042
4.1461985 ,Left ,62,1684115422474 ,45,2948029925053 ,49,0517687838042
4.1462021 ,Left ,62,1684115422474 ,45,2948029925053 ,49,0517687838042
4.1462057 ,Left ,62,1684115422474 ,45,2948029925053 ,49,0517687838042
4.1462092 ,Left ,62,1684115422474 ,45,2948029925053 ,49,0517687838042
4.1610428 ,Left ,62,1997136507496 ,45,2876122295421 ,49,0459914446029
4.161047 ,Left ,62,1997136507496 ,45,2876122295421 ,49,0459914446029
4.1610507 ,Left ,62,1997136507496 ,45,2876122295421 ,49,0459914446029
4.1610543 ,Left ,62,1997136507496 ,45,2876122295421 ,49,0459914446029
4.1610579 ,Left ,62,1997136507496 ,45,2876122295421 ,49,0459914446029
4.1610615 ,Left ,62,1997136507496 ,45,2876122295421 ,49,0459914446029
4.183723 ,Left ,62,294183936152 ,45,2602422781024 ,49,0384809803249
4.1837273 ,Left ,62,294183936152 ,45,2602422781024 ,49,0384809803249
4.183731 ,Left ,62,294183936152 ,45,2602422781024 ,49,0384809803249
4.1837346 ,Left ,62,294183936152 ,45,2602422781024 ,49,0384809803249
4.1837381 ,Left ,62,294183936152 ,45,2602422781024 ,49,0384809803249
4.1837417 ,Left ,62,294183936152 ,45,2602422781024 ,49,0384809803249
4.2061794 ,Left ,62,4034400133614 ,45,1894893177874 ,49,0467126839096
4.2061838 ,Left ,62,4034400133614 ,45,1894893177874 ,49,0467126839096
4.2061874 ,Left ,62,4034400133614 ,45,1894893177874 ,49,0467126839096
4.2061911 ,Left ,62,4034400133614 ,45,1894893177874 ,49,0467126839096
4.2061946 ,Left ,62,4034400133614 ,45,1894893177874 ,49,0467126839096
4.2061982 ,Left ,62,4034400133614 ,45,1894893177874 ,49,0467126839096
4.2291184 ,Left ,62,4332630229019 ,45,2042557949214 ,49,0500175878151
4.2291261 ,Left ,62,4332630229019 ,45,2042557949214 ,49,0500175878151
4.2291328 ,Left ,62,4332630229019 ,45,2042557949214 ,49,0500175878151
4.2291397 ,Left ,62,4332630229019 ,45,2042557949214 ,49,0500175878151
4.2291463 ,Left ,62,4332630229019 ,45,2042557949214 ,49,0500175878151
4.2291531 ,Left ,62,4332630229019 ,45,2042557949214 ,49,0500175878151
4.2518215 ,Left ,62,3437437035662 ,45,3008806382283 ,49,0389153372412
4.2518295 ,Left ,62,3437437035662 ,45,3008806382283 ,49,0389153372412
4.2518363 ,Left ,62,3437437035662 ,45,3008806382283 ,49,0389153372412
4.2518432 ,Left ,62,3437437035662 ,45,3008806382283 ,49,0389153372412
4.2518499 ,Left ,62,3437437035662 ,45,3008806382283 ,49,0389153372412
4.2518567 ,Left ,62,3437437035662 ,45,3008806382283 ,49,0389153372412
4.2742573 ,Left ,62,2154368989422 ,45,3762141004699 ,49,0413170631282
4.2742694 ,Left ,62,2154368989422 ,45,3762141004699 ,49,0413170631282
4.2742795 ,Left ,62,2154368989422 ,45,3762141004699 ,49,0413170631282
4.2742894 ,Left ,62,2154368989422 ,45,3762141004699 ,49,0413170631282
4.2743103 ,Left ,62,2154368989422 ,45,3762141004699 ,49,0413170631282
4.2743218 ,Left ,62,2154368989422 ,45,3762141004699 ,49,0413170631282
4.2891698 ,Left ,62,1712113730957 ,45,4026013164052 ,49,0527168145062
4.2891778 ,Left ,62,1712113730957 ,45,4026013164052 ,49,0527168145062
4.2891846 ,Left ,62,1712113730957 ,45,4026013164052 ,49,0527168145062
4.2891915 ,Left ,62,1712113730957 ,45,4026013164052 ,49,0527168145062
4.2891982 ,Left ,62,1712113730957 ,45,4026013164052 ,49,0527168145062
4.2892049 ,Left ,62,1712113730957 ,45,4026013164052 ,49,0527168145062
4.3043821 ,Left ,62,1926679464182 ,45,4289992773391 ,49,0644267970741
4.3043902 ,Left ,62,1926679464182 ,45,4289992773391 ,49,0644267970741
4.3043971 ,Left ,62,1926679464182 ,45,4289992773391 ,49,0644267970741
4.3044039 ,Left ,62,1926679464182 ,45,4289992773391 ,49,0644267970741
4.3044106 ,Left ,62,1926679464182 ,45,4289992773391 ,49,0644267970741
4.3044174 ,Left ,62,1926679464182 ,45,4289992773391 ,49,0644267970741
4.3262316 ,Left ,62,177741318993 ,45,4318452442771 ,49,0636872022787
4.3262374 ,Left ,62,177741318993 ,45,4318452442771 ,49,0636872022787
4.3262421 ,Left ,62,177741318993 ,45,4318452442771 ,49,0636872022787
4.3262468 ,Left ,62,177741318993 ,45,4318452442771 ,49,0636872022787
4.3262514 ,Left ,62,177741318993 ,45,4318452442771 ,49,0636872022787
4.3262561 ,Left ,62,177741318993 ,45,4318452442771 ,49,0636872022787
4.3487139 ,Left ,62,1240280340197 ,45,4234995500508 ,49,0728202444614
4.3487181 ,Left ,62,1240280340197 ,45,4234995500508 ,49,0728202444614
4.3487217 ,Left ,62,1240280340197 ,45,4234995500508 ,49,0728202444614
4.3487253 ,Left ,62,1240280340197 ,45,4234995500508 ,49,0728202444614
4.3487289 ,Left ,62,1240280340197 ,45,4234995500508 ,49,0728202444614
4.3487325 ,Left ,62,1240280340197 ,45,4234995500508 ,49,0728202444614
4.3713402 ,Left ,62,1023679841468 ,45,4265939731186 ,49,0879974824835
4.3713439 ,Left ,62,1023679841468 ,45,4265939731186 ,49,0879974824835
4.3713468 ,Left ,62,1023679841468 ,45,4265939731186 ,49,0879974824835
4.3713497 ,Left ,62,1023679841468 ,45,4265939731186 ,49,0879974824835
4.3713527 ,Left ,62,1023679841468 ,45,4265939731186 ,49,0879974824835
4.3713555 ,Left ,62,1023679841468 ,45,4265939731186 ,49,0879974824835
4.4008846 ,Left ,62,1699039342418 ,45,3915256065424 ,49,0273206234834
4.4008865 ,Left ,62,1699039342418 ,45,3915256065424 ,49,0273206234834
4.400888 ,Left ,62,1699039342418 ,45,3915256065424 ,49,0273206234834
4.4008896 ,Left ,62,1699039342418 ,45,3915256065424 ,49,0273206234834
4.400891 ,Left ,62,1699039342418 ,45,3915256065424 ,49,0273206234834
4.4008925 ,Left ,62,1699039342418 ,45,3915256065424 ,49,0273206234834
4.4234186 ,Left ,62,180134718853 ,45,3726048342627 ,48,9885666691122
4.4234206 ,Left ,62,180134718853 ,45,3726048342627 ,48,9885666691122
4.4234221 ,Left ,62,180134718853 ,45,3726048342627 ,48,9885666691122
4.4234236 ,Left ,62,180134718853 ,45,3726048342627 ,48,9885666691122
4.4234251 ,Left ,62,180134718853 ,45,3726048342627 ,48,9885666691122
4.4234266 ,Left ,62,180134718853 ,45,3726048342627 ,48,9885666691122
4.4460162 ,Left ,62,2000870030536 ,45,3764455426108 ,48,9404275410719
4.4460182 ,Left ,62,2000870030536 ,45,3764455426108 ,48,9404275410719
4.4460197 ,Left ,62,2000870030536 ,45,3764455426108 ,48,9404275410719
4.4460212 ,Left ,62,2000870030536 ,45,3764455426108 ,48,9404275410719
4.4460227 ,Left ,62,2000870030536 ,45,3764455426108 ,48,9404275410719
4.4460242 ,Left ,62,2000870030536 ,45,3764455426108 ,48,9404275410719
4.4609052 ,Left ,62,2014560635185 ,45,3667315328858 ,48,8959340881528
4.4609071 ,Left ,62,2014560635185 ,45,3667315328858 ,48,8959340881528
4.4609087 ,Left ,62,2014560635185 ,45,3667315328858 ,48,8959340881528
4.4609103 ,Left ,62,2014560635185 ,45,3667315328858 ,48,8959340881528
4.4609119 ,Left ,62,2014560635185 ,45,3667315328858 ,48,8959340881528
4.4609134 ,Left ,62,2014560635185 ,45,3667315328858 ,48,8959340881528
4.483376 ,Left ,62,1776693771875 ,45,3557196783956 ,48,8552822426525
4.4833778 ,Left ,62,1776693771875 ,45,3557196783956 ,48,8552822426525
4.4833793 ,Left ,62,1776693771875 ,45,3557196783956 ,48,8552822426525
4.4833808 ,Left ,62,1776693771875 ,45,3557196783956 ,48,8552822426525
4.4833823 ,Left ,62,1776693771875 ,45,3557196783956 ,48,8552822426525
4.4833838 ,Left ,62,1776693771875 ,45,3557196783956 ,48,8552822426525
4.5060227 ,Left ,62,1576071046617 ,45,3447966807048 ,48,8413483685327
4.5060252 ,Left ,62,1576071046617 ,45,3447966807048 ,48,8413483685327
4.5060271 ,Left ,62,1576071046617 ,45,3447966807048 ,48,8413483685327
4.5060291 ,Left ,62,1576071046617 ,45,3447966807048 ,48,8413483685327
4.5060309 ,Left ,62,1576071046617 ,45,3447966807048 ,48,8413483685327
4.5060328 ,Left ,62,1576071046617 ,45,3447966807048 ,48,8413483685327
4.521022 ,Left ,62,1121886000125 ,45,3312879077204 ,48,8409639132435
4.5210245 ,Left ,62,1121886000125 ,45,3312879077204 ,48,8409639132435
4.5210265 ,Left ,62,1121886000125 ,45,3312879077204 ,48,8409639132435
4.5210284 ,Left ,62,1121886000125 ,45,3312879077204 ,48,8409639132435
4.5210303 ,Left ,62,1121886000125 ,45,3312879077204 ,48,8409639132435
4.5210322 ,Left ,62,1121886000125 ,45,3312879077204 ,48,8409639132435
4.5436957 ,Left ,62,0779110831862 ,45,3246177668356 ,48,8377147924825
4.543699 ,Left ,62,0779110831862 ,45,3246177668356 ,48,8377147924825
4.5437017 ,Left ,62,0779110831862 ,45,3246177668356 ,48,8377147924825
4.5437043 ,Left ,62,0779110831862 ,45,3246177668356 ,48,8377147924825
4.5437069 ,Left ,62,0779110831862 ,45,3246177668356 ,48,8377147924825
4.5437095 ,Left ,62,0779110831862 ,45,3246177668356 ,48,8377147924825
4.5662008 ,Left ,62,0647407859238 ,45,3256949519648 ,48,8253646203272
4.5662045 ,Left ,62,0647407859238 ,45,3256949519648 ,48,8253646203272
4.5662075 ,Left ,62,0647407859238 ,45,3256949519648 ,48,8253646203272
4.5662106 ,Left ,62,0647407859238 ,45,3256949519648 ,48,8253646203272
4.5662139 ,Left ,62,0647407859238 ,45,3256949519648 ,48,8253646203272
4.5662169 ,Left ,62,0647407859238 ,45,3256949519648 ,48,8253646203272
4.5812411 ,Left ,62,022032248565 ,45,3203028586446 ,48,8196603835377
4.581246 ,Left ,62,022032248565 ,45,3203028586446 ,48,8196603835377
4.5812505 ,Left ,62,022032248565 ,45,3203028586446 ,48,8196603835377
4.5812549 ,Left ,62,022032248565 ,45,3203028586446 ,48,8196603835377
4.5812592 ,Left ,62,022032248565 ,45,3203028586446 ,48,8196603835377
4.5812636 ,Left ,62,022032248565 ,45,3203028586446 ,48,8196603835377
4.604032 ,Left ,62,0221981362375 ,45,3177038066765 ,48,8207457822976
4.6040372 ,Left ,62,0221981362375 ,45,3177038066765 ,48,8207457822976
4.6040415 ,Left ,62,0221981362375 ,45,3177038066765 ,48,8207457822976
4.6040459 ,Left ,62,0221981362375 ,45,3177038066765 ,48,8207457822976
4.6040503 ,Left ,62,0221981362375 ,45,3177038066765 ,48,8207457822976
4.6040546 ,Left ,62,0221981362375 ,45,3177038066765 ,48,8207457822976
4.6339375 ,Left ,62,0084853117324 ,45,3184798063371 ,48,8252748590843
4.6339427 ,Left ,62,0084853117324 ,45,3184798063371 ,48,8252748590843
4.6339471 ,Left ,62,0084853117324 ,45,3184798063371 ,48,8252748590843
4.6339515 ,Left ,62,0084853117324 ,45,3184798063371 ,48,8252748590843
4.6339558 ,Left ,62,0084853117324 ,45,3184798063371 ,48,8252748590843
4.6339602 ,Left ,62,0084853117324 ,45,3184798063371 ,48,8252748590843
4.6489046 ,Left ,61,998629927434 ,45,3209892436291 ,48,8194354620324
4.6489098 ,Left ,61,998629927434 ,45,3209892436291 ,48,8194354620324
4.6489141 ,Left ,61,998629927434 ,45,3209892436291 ,48,8194354620324
4.6489185 ,Left ,61,998629927434 ,45,3209892436291 ,48,8194354620324
4.6489229 ,Left ,61,998629927434 ,45,3209892436291 ,48,8194354620324
4.6489272 ,Left ,61,998629927434 ,45,3209892436291 ,48,8194354620324
4.6713933 ,Left ,61,9760125006295 ,45,3179296816228 ,48,8176682906971
4.6713975 ,Left ,61,9760125006295 ,45,3179296816228 ,48,8176682906971
4.6714008 ,Left ,61,9760125006295 ,45,3179296816228 ,48,8176682906971
4.6714043 ,Left ,61,9760125006295 ,45,3179296816228 ,48,8176682906971
4.6714076 ,Left ,61,9760125006295 ,45,3179296816228 ,48,8176682906971
4.671411 ,Left ,61,9760125006295 ,45,3179296816228 ,48,8176682906971
4.6861683 ,Left ,61,9641372639557 ,45,3152726468138 ,48,8143083628367
4.6861718 ,Left ,61,9641372639557 ,45,3152726468138 ,48,8143083628367
4.6861745 ,Left ,61,9641372639557 ,45,3152726468138 ,48,8143083628367
4.6861774 ,Left ,61,9641372639557 ,45,3152726468138 ,48,8143083628367
4.6861802 ,Left ,61,9641372639557 ,45,3152726468138 ,48,8143083628367
4.686183 ,Left ,61,9641372639557 ,45,3152726468138 ,48,8143083628367
4.7012083 ,Left ,61,9483698144477 ,45,2997067617735 ,48,8170135343764
4.7012117 ,Left ,61,9483698144477 ,45,2997067617735 ,48,8170135343764
4.7012145 ,Left ,61,9483698144477 ,45,2997067617735 ,48,8170135343764
4.7012174 ,Left ,61,9483698144477 ,45,2997067617735 ,48,8170135343764
4.7012202 ,Left ,61,9483698144477 ,45,2997067617735 ,48,8170135343764
4.7012229 ,Left ,61,9483698144477 ,45,2997067617735 ,48,8170135343764
4.7237579 ,Left ,61,9288424232838 ,45,2932341651821 ,48,8239194492879
4.7237613 ,Left ,61,9288424232838 ,45,2932341651821 ,48,8239194492879
4.7237641 ,Left ,61,9288424232838 ,45,2932341651821 ,48,8239194492879
4.7237762 ,Left ,61,9288424232838 ,45,2932341651821 ,48,8239194492879
4.723779 ,Left ,61,9288424232838 ,45,2932341651821 ,48,8239194492879
4.7237818 ,Left ,61,9288424232838 ,45,2932341651821 ,48,8239194492879
4.7458917 ,Left ,61,909138628299 ,45,293525224885 ,48,8294501154257
4.7458935 ,Left ,61,909138628299 ,45,293525224885 ,48,8294501154257
4.745895 ,Left ,61,909138628299 ,45,293525224885 ,48,8294501154257
4.7458965 ,Left ,61,909138628299 ,45,293525224885 ,48,8294501154257
4.745898 ,Left ,61,909138628299 ,45,293525224885 ,48,8294501154257
4.7458995 ,Left ,61,909138628299 ,45,293525224885 ,48,8294501154257
4.7609751 ,Left ,61,8963829813347 ,45,2879665471353 ,48,8335506072835
4.7609772 ,Left ,61,8963829813347 ,45,2879665471353 ,48,8335506072835
4.7609789 ,Left ,61,8963829813347 ,45,2879665471353 ,48,8335506072835
4.7609806 ,Left ,61,8963829813347 ,45,2879665471353 ,48,8335506072835
4.7609823 ,Left ,61,8963829813347 ,45,2879665471353 ,48,8335506072835
4.7609861 ,Left ,61,8963829813347 ,45,2879665471353 ,48,8335506072835
4.7838342 ,Left ,61,8788528426472 ,45,2791740979853 ,48,8412264449432
4.7838379 ,Left ,61,8788528426472 ,45,2791740979853 ,48,8412264449432
4.783841 ,Left ,61,8788528426472 ,45,2791740979853 ,48,8412264449432
4.7838442 ,Left ,61,8788528426472 ,45,2791740979853 ,48,8412264449432
4.7838473 ,Left ,61,8788528426472 ,45,2791740979853 ,48,8412264449432
4.7838503 ,Left ,61,8788528426472 ,45,2791740979853 ,48,8412264449432
4.806224 ,Left ,61,8758228855758 ,45,2770500295916 ,48,8471196074389
4.8062283 ,Left ,61,8758228855758 ,45,2770500295916 ,48,8471196074389
4.8062319 ,Left ,61,8758228855758 ,45,2770500295916 ,48,8471196074389
4.8062354 ,Left ,61,8758228855758 ,45,2770500295916 ,48,8471196074389
4.806239 ,Left ,61,8758228855758 ,45,2770500295916 ,48,8471196074389
4.8062426 ,Left ,61,8758228855758 ,45,2770500295916 ,48,8471196074389
4.8210687 ,Left ,61,870568835795 ,45,2806997034522 ,48,8538303478829
4.8210728 ,Left ,61,870568835795 ,45,2806997034522 ,48,8538303478829
4.8210764 ,Left ,61,870568835795 ,45,2806997034522 ,48,8538303478829
4.82108 ,Left ,61,870568835795 ,45,2806997034522 ,48,8538303478829
4.8210836 ,Left ,61,870568835795 ,45,2806997034522 ,48,8538303478829
4.8210871 ,Left ,61,870568835795 ,45,2806997034522 ,48,8538303478829
4.8437254 ,Left ,61,8653230250971 ,45,2880718005685 ,48,8680703683187
4.8437297 ,Left ,61,8653230250971 ,45,2880718005685 ,48,8680703683187
4.8437333 ,Left ,61,8653230250971 ,45,2880718005685 ,48,8680703683187
4.843737 ,Left ,61,8653230250971 ,45,2880718005685 ,48,8680703683187
4.8437405 ,Left ,61,8653230250971 ,45,2880718005685 ,48,8680703683187
4.8437441 ,Left ,61,8653230250971 ,45,2880718005685 ,48,8680703683187
4.866129 ,Left ,61,840338119797 ,45,3095642259444 ,48,8909885271068
4.8661334 ,Left ,61,840338119797 ,45,3095642259444 ,48,8909885271068
4.8661369 ,Left ,61,840338119797 ,45,3095642259444 ,48,8909885271068
4.8661406 ,Left ,61,840338119797 ,45,3095642259444 ,48,8909885271068
4.8661441 ,Left ,61,840338119797 ,45,3095642259444 ,48,8909885271068
4.8661477 ,Left ,61,840338119797 ,45,3095642259444 ,48,8909885271068
4.881237 ,Left ,61,8252757951547 ,45,3323393155989 ,48,9089316506612
4.8812413 ,Left ,61,8252757951547 ,45,3323393155989 ,48,9089316506612
4.8812449 ,Left ,61,8252757951547 ,45,3323393155989 ,48,9089316506612
4.8812486 ,Left ,61,8252757951547 ,45,3323393155989 ,48,9089316506612
4.8812522 ,Left ,61,8252757951547 ,45,3323393155989 ,48,9089316506612
4.8812558 ,Left ,61,8252757951547 ,45,3323393155989 ,48,9089316506612
4.9114066 ,Left ,61,8119324743428 ,45,3538074621599 ,48,9256991152991
4.9114108 ,Left ,61,8119324743428 ,45,3538074621599 ,48,9256991152991
4.9114144 ,Left ,61,8119324743428 ,45,3538074621599 ,48,9256991152991
4.9114181 ,Left ,61,8119324743428 ,45,3538074621599 ,48,9256991152991
4.9114216 ,Left ,61,8119324743428 ,45,3538074621599 ,48,9256991152991
4.9114252 ,Left ,61,8119324743428 ,45,3538074621599 ,48,9256991152991
4.9335622 ,Left ,61,7900744447434 ,45,3741440718627 ,48,9455785072677
4.9335642 ,Left ,61,7900744447434 ,45,3741440718627 ,48,9455785072677
4.9335657 ,Left ,61,7900744447434 ,45,3741440718627 ,48,9455785072677
4.9335672 ,Left ,61,7900744447434 ,45,3741440718627 ,48,9455785072677
4.9335687 ,Left ,61,7900744447434 ,45,3741440718627 ,48,9455785072677
4.9335702 ,Left ,61,7900744447434 ,45,3741440718627 ,48,9455785072677
4.9485225 ,Left ,61,790526868246 ,45,3888991127726 ,48,9618875245867
4.9485244 ,Left ,61,790526868246 ,45,3888991127726 ,48,9618875245867
4.9485258 ,Left ,61,790526868246 ,45,3888991127726 ,48,9618875245867
4.9485273 ,Left ,61,790526868246 ,45,3888991127726 ,48,9618875245867
4.9485288 ,Left ,61,790526868246 ,45,3888991127726 ,48,9618875245867
4.9485314 ,Left ,61,790526868246 ,45,3888991127726 ,48,9618875245867
4.9633995 ,Left ,61,7798607153075 ,45,4064745026939 ,48,9662588206262
4.9634018 ,Left ,61,7798607153075 ,45,4064745026939 ,48,9662588206262
4.9634038 ,Left ,61,7798607153075 ,45,4064745026939 ,48,9662588206262
4.9634057 ,Left ,61,7798607153075 ,45,4064745026939 ,48,9662588206262
4.9634076 ,Left ,61,7798607153075 ,45,4064745026939 ,48,9662588206262
4.9634095 ,Left ,61,7798607153075 ,45,4064745026939 ,48,9662588206262
4.9859988 ,Left ,61,7500169029668 ,45,4171061123035 ,48,9624760105695
4.9860018 ,Left ,61,7500169029668 ,45,4171061123035 ,48,9624760105695
4.9860066 ,Left ,61,7500169029668 ,45,4171061123035 ,48,9624760105695
4.986009 ,Left ,61,7500169029668 ,45,4171061123035 ,48,9624760105695
4.9860114 ,Left ,61,7500169029668 ,45,4171061123035 ,48,9624760105695
4.9860137 ,Left ,61,7500169029668 ,45,4171061123035 ,48,9624760105695
5.0010482 ,Left ,61,7320875773221 ,45,4157245599187 ,48,9562998349437
5.0010511 ,Left ,61,7320875773221 ,45,4157245599187 ,48,9562998349437
5.0010536 ,Left ,61,7320875773221 ,45,4157245599187 ,48,9562998349437
5.001056 ,Left ,61,7320875773221 ,45,4157245599187 ,48,9562998349437
5.0010584 ,Left ,61,7320875773221 ,45,4157245599187 ,48,9562998349437
5.0010607 ,Left ,61,7320875773221 ,45,4157245599187 ,48,9562998349437
5.0235466 ,Left ,61,7387312141135 ,45,4087085301023 ,48,9463242845428
5.0235494 ,Left ,61,7387312141135 ,45,4087085301023 ,48,9463242845428
5.0235518 ,Left ,61,7387312141135 ,45,4087085301023 ,48,9463242845428
5.0235541 ,Left ,61,7387312141135 ,45,4087085301023 ,48,9463242845428
5.0235565 ,Left ,61,7387312141135 ,45,4087085301023 ,48,9463242845428
5.0235588 ,Left ,61,7387312141135 ,45,4087085301023 ,48,9463242845428
5.046034 ,Left ,61,7552383266917 ,45,3804051514158 ,48,9367810190596
5.0460369 ,Left ,61,7552383266917 ,45,3804051514158 ,48,9367810190596
5.0460393 ,Left ,61,7552383266917 ,45,3804051514158 ,48,9367810190596
5.0460417 ,Left ,61,7552383266917 ,45,3804051514158 ,48,9367810190596
5.046044 ,Left ,61,7552383266917 ,45,3804051514158 ,48,9367810190596
5.0460464 ,Left ,61,7552383266917 ,45,3804051514158 ,48,9367810190596
5.0687625 ,Left ,61,7459045691756 ,45,3295769715387 ,48,9709456128529
5.0687658 ,Left ,61,7459045691756 ,45,3295769715387 ,48,9709456128529
5.0687685 ,Left ,61,7459045691756 ,45,3295769715387 ,48,9709456128529
5.0687713 ,Left ,61,7459045691756 ,45,3295769715387 ,48,9709456128529
5.0687739 ,Left ,61,7459045691756 ,45,3295769715387 ,48,9709456128529
5.0687766 ,Left ,61,7459045691756 ,45,3295769715387 ,48,9709456128529
5.0836092 ,Left ,61,7841341718983 ,45,2999510581568 ,49,0396339389265
5.0836124 ,Left ,61,7841341718983 ,45,2999510581568 ,49,0396339389265
5.0836151 ,Left ,61,7841341718983 ,45,2999510581568 ,49,0396339389265
5.0836178 ,Left ,61,7841341718983 ,45,2999510581568 ,49,0396339389265
5.0836205 ,Left ,61,7841341718983 ,45,2999510581568 ,49,0396339389265
5.0836231 ,Left ,61,7841341718983 ,45,2999510581568 ,49,0396339389265
5.106028 ,Left ,61,8066001653741 ,45,2822297277787 ,49,1173259937228
5.1060313 ,Left ,61,8066001653741 ,45,2822297277787 ,49,1173259937228
5.1060339 ,Left ,61,8066001653741 ,45,2822297277787 ,49,1173259937228
5.1060366 ,Left ,61,8066001653741 ,45,2822297277787 ,49,1173259937228
5.1060393 ,Left ,61,8066001653741 ,45,2822297277787 ,49,1173259937228
5.1060419 ,Left ,61,8066001653741 ,45,2822297277787 ,49,1173259937228
5.1287982 ,Left ,61,8213746080648 ,45,3157101672479 ,49,1660642092527
5.1288015 ,Left ,61,8213746080648 ,45,3157101672479 ,49,1660642092527
5.1288044 ,Left ,61,8213746080648 ,45,3157101672479 ,49,1660642092527
5.1288071 ,Left ,61,8213746080648 ,45,3157101672479 ,49,1660642092527
5.1288099 ,Left ,61,8213746080648 ,45,3157101672479 ,49,1660642092527
5.1288125 ,Left ,61,8213746080648 ,45,3157101672479 ,49,1660642092527
5.1434806 ,Left ,61,8435690208769 ,45,381650992336 ,49,1631784068117
5.1434837 ,Left ,61,8435690208769 ,45,381650992336 ,49,1631784068117
5.1434863 ,Left ,61,8435690208769 ,45,381650992336 ,49,1631784068117
5.143489 ,Left ,61,8435690208769 ,45,381650992336 ,49,1631784068117
5.1434916 ,Left ,61,8435690208769 ,45,381650992336 ,49,1631784068117
5.1434942 ,Left ,61,8435690208769 ,45,381650992336 ,49,1631784068117
5.1736687 ,Left ,61,8280269734258 ,45,4306105843994 ,49,1302546043634
5.173672 ,Left ,61,8280269734258 ,45,4306105843994 ,49,1302546043634
5.1736773 ,Left ,61,8280269734258 ,45,4306105843994 ,49,1302546043634
5.17368 ,Left ,61,8280269734258 ,45,4306105843994 ,49,1302546043634
5.1736826 ,Left ,61,8280269734258 ,45,4306105843994 ,49,1302546043634
5.1736852 ,Left ,61,8280269734258 ,45,4306105843994 ,49,1302546043634
5.1960395 ,Left ,61,8450131813371 ,45,4500916987106 ,49,0785106371832
5.1960415 ,Left ,61,8450131813371 ,45,4500916987106 ,49,0785106371832
5.196043 ,Left ,61,8450131813371 ,45,4500916987106 ,49,0785106371832
5.1960445 ,Left ,61,8450131813371 ,45,4500916987106 ,49,0785106371832
5.1960459 ,Left ,61,8450131813371 ,45,4500916987106 ,49,0785106371832
5.1960474 ,Left ,61,8450131813371 ,45,4500916987106 ,49,0785106371832
5.2109478 ,Left ,61,8898913624584 ,45,4674809572929 ,49,0362360091652
5.2109498 ,Left ,61,8898913624584 ,45,4674809572929 ,49,0362360091652
5.2109513 ,Left ,61,8898913624584 ,45,4674809572929 ,49,0362360091652
5.2109528 ,Left ,61,8898913624584 ,45,4674809572929 ,49,0362360091652
5.2109543 ,Left ,61,8898913624584 ,45,4674809572929 ,49,0362360091652
5.2109557 ,Left ,61,8898913624584 ,45,4674809572929 ,49,0362360091652
5.2485985 ,Left ,61,9131871255747 ,45,4515312012841 ,48,9505428581116
5.2486009 ,Left ,61,9131871255747 ,45,4515312012841 ,48,9505428581116
5.2486028 ,Left ,61,9131871255747 ,45,4515312012841 ,48,9505428581116
5.2486048 ,Left ,61,9131871255747 ,45,4515312012841 ,48,9505428581116
5.2486067 ,Left ,61,9131871255747 ,45,4515312012841 ,48,9505428581116
5.2486086 ,Left ,61,9131871255747 ,45,4515312012841 ,48,9505428581116
5.2635606 ,Left ,61,9128406902754 ,45,4072497000939 ,48,9120203862167
5.2635625 ,Left ,61,9128406902754 ,45,4072497000939 ,48,9120203862167
5.263564 ,Left ,61,9128406902754 ,45,4072497000939 ,48,9120203862167
5.2635655 ,Left ,61,9128406902754 ,45,4072497000939 ,48,9120203862167
5.263567 ,Left ,61,9128406902754 ,45,4072497000939 ,48,9120203862167
5.2635685 ,Left ,61,9128406902754 ,45,4072497000939 ,48,9120203862167
5.286128 ,Left ,61,8951249550246 ,45,3451913555584 ,48,9259944622893
5.2861304 ,Left ,61,8951249550246 ,45,3451913555584 ,48,9259944622893
5.2861323 ,Left ,61,8951249550246 ,45,3451913555584 ,48,9259944622893
5.2861343 ,Left ,61,8951249550246 ,45,3451913555584 ,48,9259944622893
5.2861362 ,Left ,61,8951249550246 ,45,3451913555584 ,48,9259944622893
5.2861381 ,Left ,61,8951249550246 ,45,3451913555584 ,48,9259944622893
5.3086979 ,Left ,61,9829925928893 ,45,2720916726437 ,48,9563378127856
5.3086999 ,Left ,61,9829925928893 ,45,2720916726437 ,48,9563378127856
5.3087014 ,Left ,61,9829925928893 ,45,2720916726437 ,48,9563378127856
5.308703 ,Left ,61,9829925928893 ,45,2720916726437 ,48,9563378127856
5.3087044 ,Left ,61,9829925928893 ,45,2720916726437 ,48,9563378127856
5.3087059 ,Left ,61,9829925928893 ,45,2720916726437 ,48,9563378127856
5.323575 ,Left ,62,0806482182487 ,45,2533574966753 ,48,9647020282352
5.323577 ,Left ,62,0806482182487 ,45,2533574966753 ,48,9647020282352
5.3235784 ,Left ,62,0806482182487 ,45,2533574966753 ,48,9647020282352
5.3235799 ,Left ,62,0806482182487 ,45,2533574966753 ,48,9647020282352
5.3235814 ,Left ,62,0806482182487 ,45,2533574966753 ,48,9647020282352
5.3235829 ,Left ,62,0806482182487 ,45,2533574966753 ,48,9647020282352
5.3458913 ,Left ,62,0473232200924 ,45,2855273106211 ,48,9555201627382
5.3458937 ,Left ,62,0473232200924 ,45,2855273106211 ,48,9555201627382
5.3458956 ,Left ,62,0473232200924 ,45,2855273106211 ,48,9555201627382
5.3458975 ,Left ,62,0473232200924 ,45,2855273106211 ,48,9555201627382
5.3458994 ,Left ,62,0473232200924 ,45,2855273106211 ,48,9555201627382
5.3459013 ,Left ,62,0473232200924 ,45,2855273106211 ,48,9555201627382
5.368823 ,Left ,61,9740010187951 ,45,3242648120176 ,48,9427319464639
5.3688266 ,Left ,61,9740010187951 ,45,3242648120176 ,48,9427319464639
5.3688297 ,Left ,61,9740010187951 ,45,3242648120176 ,48,9427319464639
5.3688328 ,Left ,61,9740010187951 ,45,3242648120176 ,48,9427319464639
5.3688358 ,Left ,61,9740010187951 ,45,3242648120176 ,48,9427319464639
5.3688389 ,Left ,61,9740010187951 ,45,3242648120176 ,48,9427319464639
5.3836694 ,Left ,61,9649176382558 ,45,3697549734637 ,48,9350067248632
5.3836735 ,Left ,61,9649176382558 ,45,3697549734637 ,48,9350067248632
5.3836771 ,Left ,61,9649176382558 ,45,3697549734637 ,48,9350067248632
5.3836806 ,Left ,61,9649176382558 ,45,3697549734637 ,48,9350067248632
5.3836842 ,Left ,61,9649176382558 ,45,3697549734637 ,48,9350067248632
5.3836878 ,Left ,61,9649176382558 ,45,3697549734637 ,48,9350067248632
5.4061809 ,Left ,61,9341113423282 ,45,41096732528 ,48,9182817973894
5.4061853 ,Left ,61,9341113423282 ,45,41096732528 ,48,9182817973894
5.4061889 ,Left ,61,9341113423282 ,45,41096732528 ,48,9182817973894
5.4061924 ,Left ,61,9341113423282 ,45,41096732528 ,48,9182817973894
5.406196 ,Left ,61,9341113423282 ,45,41096732528 ,48,9182817973894
5.4061996 ,Left ,61,9341113423282 ,45,41096732528 ,48,9182817973894
5.428758 ,Left ,61,8841240908646 ,45,419281326764 ,48,9105785713446
5.4287604 ,Left ,61,8841240908646 ,45,419281326764 ,48,9105785713446
5.4287622 ,Left ,61,8841240908646 ,45,419281326764 ,48,9105785713446
5.4287639 ,Left ,61,8841240908646 ,45,419281326764 ,48,9105785713446
5.4287656 ,Left ,61,8841240908646 ,45,419281326764 ,48,9105785713446
5.4287673 ,Left ,61,8841240908646 ,45,419281326764 ,48,9105785713446
5.451173 ,Left ,61,7900779620192 ,45,3875493760761 ,48,910826697302
5.4511754 ,Left ,61,7900779620192 ,45,3875493760761 ,48,910826697302
5.4511773 ,Left ,61,7900779620192 ,45,3875493760761 ,48,910826697302
5.4511792 ,Left ,61,7900779620192 ,45,3875493760761 ,48,910826697302
5.4511812 ,Left ,61,7900779620192 ,45,3875493760761 ,48,910826697302
5.451183 ,Left ,61,7900779620192 ,45,3875493760761 ,48,910826697302
5.4735035 ,Left ,61,778097105116 ,45,2989634541937 ,48,9328352200449
5.4735067 ,Left ,61,778097105116 ,45,2989634541937 ,48,9328352200449
5.473541 ,Left ,61,778097105116 ,45,2989634541937 ,48,9328352200449
5.4735435 ,Left ,61,778097105116 ,45,2989634541937 ,48,9328352200449
5.4735455 ,Left ,61,778097105116 ,45,2989634541937 ,48,9328352200449
5.4735476 ,Left ,61,778097105116 ,45,2989634541937 ,48,9328352200449
5.4960543 ,Left ,61,8997490831898 ,45,2010112612207 ,48,964938016028
5.4960569 ,Left ,61,8997490831898 ,45,2010112612207 ,48,964938016028
5.4960591 ,Left ,61,8997490831898 ,45,2010112612207 ,48,964938016028
5.4960612 ,Left ,61,8997490831898 ,45,2010112612207 ,48,964938016028
5.4960634 ,Left ,61,8997490831898 ,45,2010112612207 ,48,964938016028
5.4960655 ,Left ,61,8997490831898 ,45,2010112612207 ,48,964938016028
5.5109641 ,Left ,61,9147519697649 ,45,2049075826357 ,48,9596695923455
5.5109658 ,Left ,61,9147519697649 ,45,2049075826357 ,48,9596695923455
5.5109673 ,Left ,61,9147519697649 ,45,2049075826357 ,48,9596695923455
5.5109689 ,Left ,61,9147519697649 ,45,2049075826357 ,48,9596695923455
5.5109704 ,Left ,61,9147519697649 ,45,2049075826357 ,48,9596695923455
5.5109718 ,Left ,61,9147519697649 ,45,2049075826357 ,48,9596695923455
5.526138 ,Left ,61,8102344990585 ,45,2465627447503 ,48,9574476106247
5.5261401 ,Left ,61,8102344990585 ,45,2465627447503 ,48,9574476106247
5.5261417 ,Left ,61,8102344990585 ,45,2465627447503 ,48,9574476106247
5.5261434 ,Left ,61,8102344990585 ,45,2465627447503 ,48,9574476106247
5.526145 ,Left ,61,8102344990585 ,45,2465627447503 ,48,9574476106247
5.5261466 ,Left ,61,8102344990585 ,45,2465627447503 ,48,9574476106247
5.5486772 ,Left ,61,7479119073798 ,45,3125706202183 ,48,9933574613857
5.5486794 ,Left ,61,7479119073798 ,45,3125706202183 ,48,9933574613857
5.5486812 ,Left ,61,7479119073798 ,45,3125706202183 ,48,9933574613857
5.5486831 ,Left ,61,7479119073798 ,45,3125706202183 ,48,9933574613857
5.5486848 ,Left ,61,7479119073798 ,45,3125706202183 ,48,9933574613857
5.5486866 ,Left ,61,7479119073798 ,45,3125706202183 ,48,9933574613857
5.5635104 ,Left ,61,7051656312005 ,45,4015054028651 ,49,0559005327249
5.5635125 ,Left ,61,7051656312005 ,45,4015054028651 ,49,0559005327249
5.5635142 ,Left ,61,7051656312005 ,45,4015054028651 ,49,0559005327249
5.5635163 ,Left ,61,7051656312005 ,45,4015054028651 ,49,0559005327249
5.563518 ,Left ,61,7051656312005 ,45,4015054028651 ,49,0559005327249
5.5635198 ,Left ,61,7051656312005 ,45,4015054028651 ,49,0559005327249
5.5859805 ,Left ,61,6779658445029 ,45,513076791111 ,49,0909394086377
5.5859828 ,Left ,61,6779658445029 ,45,513076791111 ,49,0909394086377
5.5859845 ,Left ,61,6779658445029 ,45,513076791111 ,49,0909394086377
5.5859863 ,Left ,61,6779658445029 ,45,513076791111 ,49,0909394086377
5.5859881 ,Left ,61,6779658445029 ,45,513076791111 ,49,0909394086377
5.5859898 ,Left ,61,6779658445029 ,45,513076791111 ,49,0909394086377
5.6087107 ,Left ,61,6535584675832 ,45,5970172262995 ,49,1376173077111
5.608713 ,Left ,61,6535584675832 ,45,5970172262995 ,49,1376173077111
5.6087147 ,Left ,61,6535584675832 ,45,5970172262995 ,49,1376173077111
5.6087168 ,Left ,61,6535584675832 ,45,5970172262995 ,49,1376173077111
5.6087186 ,Left ,61,6535584675832 ,45,5970172262995 ,49,1376173077111
5.6087203 ,Left ,61,6535584675832 ,45,5970172262995 ,49,1376173077111
5.6235008 ,Left ,61,5664465574313 ,45,6829468225987 ,49,1834913320479
5.6235029 ,Left ,61,5664465574313 ,45,6829468225987 ,49,1834913320479
5.6235046 ,Left ,61,5664465574313 ,45,6829468225987 ,49,1834913320479
5.6235064 ,Left ,61,5664465574313 ,45,6829468225987 ,49,1834913320479
5.6235081 ,Left ,61,5664465574313 ,45,6829468225987 ,49,1834913320479
5.6235099 ,Left ,61,5664465574313 ,45,6829468225987 ,49,1834913320479
5.6459859 ,Left ,61,6085420550599 ,45,7322988455577 ,49,1836736488405
5.6459882 ,Left ,61,6085420550599 ,45,7322988455577 ,49,1836736488405
5.6459922 ,Left ,61,6085420550599 ,45,7322988455577 ,49,1836736488405
5.6459941 ,Left ,61,6085420550599 ,45,7322988455577 ,49,1836736488405
5.645996 ,Left ,61,6085420550599 ,45,7322988455577 ,49,1836736488405
5.6459979 ,Left ,61,6085420550599 ,45,7322988455577 ,49,1836736488405
5.668549 ,Left ,61,6242082964732 ,45,7497878362442 ,49,1694050980026
5.6685513 ,Left ,61,6242082964732 ,45,7497878362442 ,49,1694050980026
5.6685532 ,Left ,61,6242082964732 ,45,7497878362442 ,49,1694050980026
5.6685551 ,Left ,61,6242082964732 ,45,7497878362442 ,49,1694050980026
5.668557 ,Left ,61,6242082964732 ,45,7497878362442 ,49,1694050980026
5.6685589 ,Left ,61,6242082964732 ,45,7497878362442 ,49,1694050980026
5.6836985 ,Left ,61,5959702389922 ,45,7084605161088 ,49,1973579519615
5.6837077 ,Left ,61,5959702389922 ,45,7084605161088 ,49,1973579519615
5.6837099 ,Left ,61,5959702389922 ,45,7084605161088 ,49,1973579519615
5.683712 ,Left ,61,5959702389922 ,45,7084605161088 ,49,1973579519615
5.6837142 ,Left ,61,5959702389922 ,45,7084605161088 ,49,1973579519615
5.6837163 ,Left ,61,5959702389922 ,45,7084605161088 ,49,1973579519615
5.7059704 ,Left ,61,6732736213175 ,45,566304290595 ,49,2171359934092
5.7059732 ,Left ,61,6732736213175 ,45,566304290595 ,49,2171359934092
5.7059753 ,Left ,61,6732736213175 ,45,566304290595 ,49,2171359934092
5.7059774 ,Left ,61,6732736213175 ,45,566304290595 ,49,2171359934092
5.7059796 ,Left ,61,6732736213175 ,45,566304290595 ,49,2171359934092
5.7059817 ,Left ,61,6732736213175 ,45,566304290595 ,49,2171359934092
5.7360042 ,Left ,61,7923792647559 ,45,4518205308746 ,49,2260028805621
5.7360067 ,Left ,61,7923792647559 ,45,4518205308746 ,49,2260028805621
5.7360089 ,Left ,61,7923792647559 ,45,4518205308746 ,49,2260028805621
5.7360111 ,Left ,61,7923792647559 ,45,4518205308746 ,49,2260028805621
5.7360131 ,Left ,61,7923792647559 ,45,4518205308746 ,49,2260028805621
5.7360152 ,Left ,61,7923792647559 ,45,4518205308746 ,49,2260028805621
5.7513538 ,Left ,61,8365347177048 ,45,4492712627629 ,49,1741530322056
5.7513575 ,Left ,61,8365347177048 ,45,4492712627629 ,49,1741530322056
5.7513606 ,Left ,61,8365347177048 ,45,4492712627629 ,49,1741530322056
5.7513637 ,Left ,61,8365347177048 ,45,4492712627629 ,49,1741530322056
5.7513667 ,Left ,61,8365347177048 ,45,4492712627629 ,49,1741530322056
5.7513698 ,Left ,61,8365347177048 ,45,4492712627629 ,49,1741530322056
5.7736509 ,Left ,61,7577309073594 ,45,4535667337736 ,49,1477689385955
5.7736533 ,Left ,61,7577309073594 ,45,4535667337736 ,49,1477689385955
5.7736552 ,Left ,61,7577309073594 ,45,4535667337736 ,49,1477689385955
5.7736572 ,Left ,61,7577309073594 ,45,4535667337736 ,49,1477689385955
5.7736591 ,Left ,61,7577309073594 ,45,4535667337736 ,49,1477689385955
5.773661 ,Left ,61,7577309073594 ,45,4535667337736 ,49,1477689385955
5.7884686 ,Left ,61,7611240541904 ,45,4478994334519 ,49,1452425577525
5.7884706 ,Left ,61,7611240541904 ,45,4478994334519 ,49,1452425577525
5.788472 ,Left ,61,7611240541904 ,45,4478994334519 ,49,1452425577525
5.7884788 ,Left ,61,7611240541904 ,45,4478994334519 ,49,1452425577525
5.7884804 ,Left ,61,7611240541904 ,45,4478994334519 ,49,1452425577525
5.7884819 ,Left ,61,7611240541904 ,45,4478994334519 ,49,1452425577525
5.8111768 ,Left ,61,8630316284097 ,45,4273839653605 ,49,1361204298127
5.8111788 ,Left ,61,8630316284097 ,45,4273839653605 ,49,1361204298127
5.8111803 ,Left ,61,8630316284097 ,45,4273839653605 ,49,1361204298127
5.8111817 ,Left ,61,8630316284097 ,45,4273839653605 ,49,1361204298127
5.8111832 ,Left ,61,8630316284097 ,45,4273839653605 ,49,1361204298127
5.8111847 ,Left ,61,8630316284097 ,45,4273839653605 ,49,1361204298127
5.8259619 ,Left ,61,9609569027784 ,45,402146327594 ,49,1172939032467
5.8259642 ,Left ,61,9609569027784 ,45,402146327594 ,49,1172939032467
5.8259659 ,Left ,61,9609569027784 ,45,402146327594 ,49,1172939032467
5.8259677 ,Left ,61,9609569027784 ,45,402146327594 ,49,1172939032467
5.8259694 ,Left ,61,9609569027784 ,45,402146327594 ,49,1172939032467
5.8259711 ,Left ,61,9609569027784 ,45,402146327594 ,49,1172939032467
5.8484494 ,Left ,61,9442360122385 ,45,3847837198263 ,49,0981959029117
5.8484513 ,Left ,61,9442360122385 ,45,3847837198263 ,49,0981959029117
5.8484528 ,Left ,61,9442360122385 ,45,3847837198263 ,49,0981959029117
5.8484543 ,Left ,61,9442360122385 ,45,3847837198263 ,49,0981959029117
5.8484558 ,Left ,61,9442360122385 ,45,3847837198263 ,49,0981959029117
5.8484573 ,Left ,61,9442360122385 ,45,3847837198263 ,49,0981959029117
5.8636758 ,Left ,61,9432665408809 ,45,3728487932725 ,49,0852669730894
5.863678 ,Left ,61,9432665408809 ,45,3728487932725 ,49,0852669730894
5.8636797 ,Left ,61,9432665408809 ,45,3728487932725 ,49,0852669730894
5.8636815 ,Left ,61,9432665408809 ,45,3728487932725 ,49,0852669730894
5.8636833 ,Left ,61,9432665408809 ,45,3728487932725 ,49,0852669730894
5.8636851 ,Left ,61,9432665408809 ,45,3728487932725 ,49,0852669730894
5.8859976 ,Left ,61,9824912351908 ,45,361128212257 ,49,0804958590534
5.8859997 ,Left ,61,9824912351908 ,45,361128212257 ,49,0804958590534
5.8860013 ,Left ,61,9824912351908 ,45,361128212257 ,49,0804958590534
5.886003 ,Left ,61,9824912351908 ,45,361128212257 ,49,0804958590534
5.8860046 ,Left ,61,9824912351908 ,45,361128212257 ,49,0804958590534
5.8860062 ,Left ,61,9824912351908 ,45,361128212257 ,49,0804958590534
5.9087337 ,Left ,62,0087501892993 ,45,3661494776145 ,49,0869382743253
5.9087363 ,Left ,62,0087501892993 ,45,3661494776145 ,49,0869382743253
5.9087384 ,Left ,62,0087501892993 ,45,3661494776145 ,49,0869382743253
5.908741 ,Left ,62,0087501892993 ,45,3661494776145 ,49,0869382743253
5.908743 ,Left ,62,0087501892993 ,45,3661494776145 ,49,0869382743253
5.9087451 ,Left ,62,0087501892993 ,45,3661494776145 ,49,0869382743253
5.9235729 ,Left ,62,0216157001088 ,45,3760956561615 ,49,0930722248961
5.9235766 ,Left ,62,0216157001088 ,45,3760956561615 ,49,0930722248961
5.9235788 ,Left ,62,0216157001088 ,45,3760956561615 ,49,0930722248961
5.9235806 ,Left ,62,0216157001088 ,45,3760956561615 ,49,0930722248961
5.9235824 ,Left ,62,0216157001088 ,45,3760956561615 ,49,0930722248961
5.9235841 ,Left ,62,0216157001088 ,45,3760956561615 ,49,0930722248961
5.9459432 ,Left ,62,0016194388474 ,45,3951768951697 ,49,0890818267728
5.9459455 ,Left ,62,0016194388474 ,45,3951768951697 ,49,0890818267728
5.9459474 ,Left ,62,0016194388474 ,45,3951768951697 ,49,0890818267728
5.9459493 ,Left ,62,0016194388474 ,45,3951768951697 ,49,0890818267728
5.9459512 ,Left ,62,0016194388474 ,45,3951768951697 ,49,0890818267728
5.9459531 ,Left ,62,0016194388474 ,45,3951768951697 ,49,0890818267728
5.9687012 ,Left ,61,9667323715863 ,45,4375798726153 ,49,0860994245478
5.9687036 ,Left ,61,9667323715863 ,45,4375798726153 ,49,0860994245478
5.9687055 ,Left ,61,9667323715863 ,45,4375798726153 ,49,0860994245478
5.9687075 ,Left ,61,9667323715863 ,45,4375798726153 ,49,0860994245478
5.9687094 ,Left ,61,9667323715863 ,45,4375798726153 ,49,0860994245478
5.9687113 ,Left ,61,9667323715863 ,45,4375798726153 ,49,0860994245478
5.991027 ,Left ,61,9337233485667 ,45,4810369798789 ,49,0853456187199
5.9910299 ,Left ,61,9337233485667 ,45,4810369798789 ,49,0853456187199
5.9910322 ,Left ,61,9337233485667 ,45,4810369798789 ,49,0853456187199
5.9910346 ,Left ,61,9337233485667 ,45,4810369798789 ,49,0853456187199
5.9910369 ,Left ,61,9337233485667 ,45,4810369798789 ,49,0853456187199
5.9910392 ,Left ,61,9337233485667 ,45,4810369798789 ,49,0853456187199
6.0137014 ,Left ,61,8960721760344 ,45,5254239435302 ,49,0877226099366
6.0137046 ,Left ,61,8960721760344 ,45,5254239435302 ,49,0877226099366
6.0137073 ,Left ,61,8960721760344 ,45,5254239435302 ,49,0877226099366
6.01371 ,Left ,61,8960721760344 ,45,5254239435302 ,49,0877226099366
6.0137126 ,Left ,61,8960721760344 ,45,5254239435302 ,49,0877226099366
6.0137153 ,Left ,61,8960721760344 ,45,5254239435302 ,49,0877226099366
6.0362111 ,Left ,61,8536280412814 ,45,5691645909929 ,49,0924007880732
6.0362143 ,Left ,61,8536280412814 ,45,5691645909929 ,49,0924007880732
6.036217 ,Left ,61,8536280412814 ,45,5691645909929 ,49,0924007880732
6.0362197 ,Left ,61,8536280412814 ,45,5691645909929 ,49,0924007880732
6.0362224 ,Left ,61,8536280412814 ,45,5691645909929 ,49,0924007880732
6.036225 ,Left ,61,8536280412814 ,45,5691645909929 ,49,0924007880732
6.0659411 ,Left ,61,7691533202702 ,45,6545437678408 ,49,1174408211065
6.0659444 ,Left ,61,7691533202702 ,45,6545437678408 ,49,1174408211065
6.065947 ,Left ,61,7691533202702 ,45,6545437678408 ,49,1174408211065
6.0659498 ,Left ,61,7691533202702 ,45,6545437678408 ,49,1174408211065
6.0659524 ,Left ,61,7691533202702 ,45,6545437678408 ,49,1174408211065
6.065955 ,Left ,61,7691533202702 ,45,6545437678408 ,49,1174408211065
6.0887476 ,Left ,61,7459589893869 ,45,6903079996158 ,49,1410994168558
6.0887509 ,Left ,61,7459589893869 ,45,6903079996158 ,49,1410994168558
6.0887535 ,Left ,61,7459589893869 ,45,6903079996158 ,49,1410994168558
6.0887562 ,Left ,61,7459589893869 ,45,6903079996158 ,49,1410994168558
6.0887617 ,Left ,61,7459589893869 ,45,6903079996158 ,49,1410994168558
6.0887643 ,Left ,61,7459589893869 ,45,6903079996158 ,49,1410994168558
6.1112407 ,Left ,61,731693751407 ,45,7108132006616 ,49,1870194658161
6.1112439 ,Left ,61,731693751407 ,45,7108132006616 ,49,1870194658161
6.1112466 ,Left ,61,731693751407 ,45,7108132006616 ,49,1870194658161
6.1112493 ,Left ,61,731693751407 ,45,7108132006616 ,49,1870194658161
6.1112519 ,Left ,61,731693751407 ,45,7108132006616 ,49,1870194658161
6.1112545 ,Left ,61,731693751407 ,45,7108132006616 ,49,1870194658161
6.1263415 ,Left ,61,7776846328498 ,45,6682649609667 ,49,2120881124351
6.1263475 ,Left ,61,7776846328498 ,45,6682649609667 ,49,2120881124351
6.1263501 ,Left ,61,7776846328498 ,45,6682649609667 ,49,2120881124351
6.1263528 ,Left ,61,7776846328498 ,45,6682649609667 ,49,2120881124351
6.1263555 ,Left ,61,7776846328498 ,45,6682649609667 ,49,2120881124351
6.1263582 ,Left ,61,7776846328498 ,45,6682649609667 ,49,2120881124351
6.1487725 ,Left ,61,846263995275 ,45,636357711707 ,49,2188536340616
6.1487758 ,Left ,61,846263995275 ,45,636357711707 ,49,2188536340616
6.1487785 ,Left ,61,846263995275 ,45,636357711707 ,49,2188536340616
6.1487812 ,Left ,61,846263995275 ,45,636357711707 ,49,2188536340616
6.1487839 ,Left ,61,846263995275 ,45,636357711707 ,49,2188536340616
6.1487865 ,Left ,61,846263995275 ,45,636357711707 ,49,2188536340616
6.1710878 ,Left ,61,8570813580784 ,45,6441146035099 ,49,2140999330195
6.1710898 ,Left ,61,8570813580784 ,45,6441146035099 ,49,2140999330195
6.1710914 ,Left ,61,8570813580784 ,45,6441146035099 ,49,2140999330195
6.171093 ,Left ,61,8570813580784 ,45,6441146035099 ,49,2140999330195
6.1710945 ,Left ,61,8570813580784 ,45,6441146035099 ,49,2140999330195
6.171096 ,Left ,61,8570813580784 ,45,6441146035099 ,49,2140999330195
6.1858524 ,Left ,61,8200325534441 ,45,6452547189558 ,49,2198268724614
6.1858547 ,Left ,61,8200325534441 ,45,6452547189558 ,49,2198268724614
6.1858567 ,Left ,61,8200325534441 ,45,6452547189558 ,49,2198268724614
6.1858586 ,Left ,61,8200325534441 ,45,6452547189558 ,49,2198268724614
6.1858606 ,Left ,61,8200325534441 ,45,6452547189558 ,49,2198268724614
6.1858625 ,Left ,61,8200325534441 ,45,6452547189558 ,49,2198268724614
6.2086021 ,Left ,61,8438105396891 ,45,5861097730124 ,49,2183061662014
6.208606 ,Left ,61,8438105396891 ,45,5861097730124 ,49,2183061662014
6.2086092 ,Left ,61,8438105396891 ,45,5861097730124 ,49,2183061662014
6.2086125 ,Left ,61,8438105396891 ,45,5861097730124 ,49,2183061662014
6.2086157 ,Left ,61,8438105396891 ,45,5861097730124 ,49,2183061662014
6.2086189 ,Left ,61,8438105396891 ,45,5861097730124 ,49,2183061662014
6.2313303 ,Left ,61,9126498144163 ,45,4928987153139 ,49,2027971241728
6.2313343 ,Left ,61,9126498144163 ,45,4928987153139 ,49,2027971241728
6.2313374 ,Left ,61,9126498144163 ,45,4928987153139 ,49,2027971241728
6.2313406 ,Left ,61,9126498144163 ,45,4928987153139 ,49,2027971241728
6.2313438 ,Left ,61,9126498144163 ,45,4928987153139 ,49,2027971241728
6.231347 ,Left ,61,9126498144163 ,45,4928987153139 ,49,2027971241728
6.246019 ,Left ,61,9590837158563 ,45,4288783531807 ,49,1681951423049
6.2460227 ,Left ,61,9590837158563 ,45,4288783531807 ,49,1681951423049
6.246026 ,Left ,61,9590837158563 ,45,4288783531807 ,49,1681951423049
6.2460292 ,Left ,61,9590837158563 ,45,4288783531807 ,49,1681951423049
6.2460323 ,Left ,61,9590837158563 ,45,4288783531807 ,49,1681951423049
6.2460355 ,Left ,61,9590837158563 ,45,4288783531807 ,49,1681951423049
