timestamp,event,roll,pitch,yaw
3.389439 ,Left ,44.6767084117445 ,49.6535102271104 ,63.8229601321442
3.4043272 ,Left ,44.7170830127056 ,49.6205812152123 ,63.8553861332899
3.426864 ,Left ,44.7221234562343 ,49.5874693281446 ,63.89309160031
3.4494009 ,Left ,44.7074473260082 ,49.559552999707 ,63.9340469620435
3.4646049 ,Left ,44.7138286237767 ,49.5309103610216 ,63.9775738282024
3.4867575 ,Left ,44.7325100254282 ,49.492385841238 ,64.0240583012658
3.509413 ,Left ,44.7529321375409 ,49.437985376271 ,64.0861411359375
3.5243187 ,Left ,44.7733085305073 ,49.3800904173269 ,64.1527992009012
3.5470557 ,Left ,44.7780363982361 ,49.3195303069782 ,64.228521587906
3.5697206 ,Left ,44.772571776976 ,49.2719581770687 ,64.313710407301
3.5842887 ,Left ,44.74320056677 ,49.2321479287631 ,64.389192209697
3.6067618 ,Left ,44.7190236018611 ,49.1919104212694 ,64.4516018431677
3.6442492 ,Left ,44.8521921839365 ,49.0981326399381 ,64.5940999336902
3.6668484 ,Left ,44.9319316208962 ,49.0408015760514 ,64.6657483788449
3.6892529 ,Left ,44.9624187792064 ,49.0032824690047 ,64.7365636689564
3.7041492 ,Left ,45.0022148447924 ,48.9712813498514 ,64.8059154863141
3.7269849 ,Left ,45.0714870026258 ,48.9283284239625 ,64.8561583299595
3.7644125 ,Left ,45.1711476706435 ,48.8596628390245 ,64.9292769949391
3.7884935 ,Left ,45.2188012163896 ,48.8272792331399 ,64.9643726723735
3.8319059 ,Left ,45.2394370787639 ,48.7594925120445 ,65.0178320498611
3.8543285 ,Left ,45.2506503549784 ,48.7349136919686 ,65.0401324057113
3.9066555 ,Left ,45.2425319922364 ,48.6780692520454 ,65.084063340634
3.9444169 ,Left ,45.2705715581293 ,48.6633292861504 ,65.098895899405
3.9670135 ,Left ,45.2765963721591 ,48.6542483647047 ,65.1015876726995
4.0044004 ,Left ,45.2485802424551 ,48.6269835525703 ,65.1252846339537
4.0269426 ,Left ,45.2557661359285 ,48.6047510983337 ,65.1346161428232
4.0792934 ,Left ,45.2848294736092 ,48.5162707591031 ,65.1334146013688
4.1019806 ,Left ,45.2927140141731 ,48.4638542725698 ,65.1345443245291
4.1469637 ,Left ,45.3266808875669 ,48.2661408034255 ,65.1493542480941
4.1843483 ,Left ,45.3640500403807 ,48.128184661188 ,65.1226793057303
4.2066759 ,Left ,45.2658022514544 ,48.1344690135314 ,65.1079190246982
4.2443655 ,Left ,45.1530367362835 ,48.2024688070159 ,64.9809772210215
4.2668893 ,Left ,45.1652793266219 ,48.1890480216485 ,64.8872905670049
4.3044317 ,Left ,45.2143221344689 ,48.1577123291968 ,64.7616949180893
4.3268215 ,Left ,45.1451087204974 ,48.1763219468194 ,64.7434528959252
4.3643038 ,Left ,45.1013163462461 ,48.1807523698955 ,64.7109923572356
4.3942358 ,Left ,45.0995731883988 ,48.1501911537501 ,64.6906623396952
4.4843027 ,Left ,44.80446527516 ,48.0116790814234 ,64.657073519269
4.5067056 ,Left ,44.7722754810774 ,48.0377597050422 ,64.652272528471
4.544463 ,Left ,44.9362605530587 ,48.0248009603753 ,64.5924100656476
4.5667968 ,Left ,45.0360724438202 ,48.0185479149448 ,64.5599511523092
4.6043856 ,Left ,44.9993801422258 ,48.0449295412595 ,64.5728982805404
4.6266819 ,Left ,44.9462328238069 ,48.048718674446 ,64.5754893522987
4.6643973 ,Left ,44.8531302071798 ,48.1071816727961 ,64.5902069756463
4.6867278 ,Left ,44.8559237444563 ,48.1382524748675 ,64.6190872935815
4.733105 ,Left ,45.100981682271 ,48.1550176898494 ,64.6656688813931
4.7842963 ,Left ,45.1144981810549 ,48.1740103550307 ,64.8485586995403
4.8069906 ,Left ,45.1236166615991 ,48.1490831358431 ,64.865464396273
4.8369982 ,Left ,45.0672465951298 ,48.1277596998255 ,64.8769128349682
4.8593802 ,Left ,45.0822273769104 ,48.1367273066085 ,64.8490425234701
4.8824579 ,Left ,45.0655216177674 ,48.1663748799533 ,64.808608341047
4.8969717 ,Left ,45.0452366793447 ,48.1886913990108 ,64.7503627329122
4.9193489 ,Left ,45.1073034980155 ,48.1939272628958 ,64.6665367761299
4.9417427 ,Left ,45.2308231909043 ,48.1745970298501 ,64.5854536961382
4.9644812 ,Left ,45.2696966496251 ,48.1607962007648 ,64.5195681280817
4.9795263 ,Left ,45.2187880330232 ,48.1678794240763 ,64.4685111093894
5.0023227 ,Left ,45.1672972660386 ,48.1730468421679 ,64.4151822610021
5.0242308 ,Left ,45.1527658849578 ,48.172700443804 ,64.3585061762998
5.039465 ,Left ,45.1573448815 ,48.1686543700902 ,64.3084946747557
5.0619837 ,Left ,45.1666412894106 ,48.1632516210728 ,64.2670935933615
5.0769889 ,Left ,45.2000704961534 ,48.1570015474169 ,64.2376311113518
5.0999651 ,Left ,45.2041960879756 ,48.1321780862559 ,64.2134353377636
5.1218801 ,Left ,45.1718551938617 ,48.0932256169519 ,64.1834807768928
5.1368782 ,Left ,45.1450531783192 ,48.0473308280189 ,64.1689791155216
5.1667948 ,Left ,45.1523681136204 ,47.9964959586873 ,64.1576839151725
5.1893108 ,Left ,45.1566662319497 ,47.9498121744081 ,64.1355666163655
5.2044409 ,Left ,45.1250467720898 ,47.9218799783846 ,64.1253095145832
5.2270373 ,Left ,45.0795928797623 ,47.9076907878538 ,64.1061997728848
5.2418598 ,Left ,45.0692989202519 ,47.9168006755284 ,64.0712896424717
5.264297 ,Left ,45.1952919424834 ,47.8931123357698 ,64.0343989605863
5.2792993 ,Left ,45.3971389943755 ,47.827940145056 ,63.9773450095179
5.3017851 ,Left ,45.4711025433457 ,47.7775186403961 ,63.909027757417
5.3243468 ,Left ,45.305541169475 ,47.7877058729663 ,63.906174901369
5.3392614 ,Left ,45.168944971351 ,47.8477588313861 ,63.989568523229
5.3617226 ,Left ,45.1409434675061 ,47.8866683700875 ,64.0602277119163
5.3843837 ,Left ,45.198591412045 ,47.8869005771026 ,64.0675331418749
5.3993287 ,Left ,45.2974560145471 ,47.8630033636832 ,64.0690774987426
5.4218731 ,Left ,45.3505273153337 ,47.858486476495 ,64.0930881355899
5.4443437 ,Left ,45.2781436476632 ,47.8779525630179 ,64.1360030428127
5.4594957 ,Left ,45.1186820813154 ,47.9565760839708 ,64.167358088578
5.4891526 ,Left ,45.0647186020595 ,48.0219141961934 ,64.1738504424763
5.5117494 ,Left ,45.2496164074407 ,48.0325630054152 ,64.1618286433549
5.5275634 ,Left ,45.5211509236941 ,48.017869843896 ,64.138007679052
5.5495903 ,Left ,45.6379144876514 ,48.0231554518573 ,64.1263134250203
5.5643724 ,Left ,45.5600061689123 ,48.046890312694 ,64.147219235247
5.5799882 ,Left ,45.4304046742886 ,48.0652612894179 ,64.1782875895928
5.6020444 ,Left ,45.3854178768213 ,48.0621594408634 ,64.19555802422
5.6247008 ,Left ,45.4215910010229 ,48.0477184133537 ,64.1974744259517
5.6396571 ,Left ,45.4736725230083 ,48.0423087207239 ,64.1940190540874
5.6619033 ,Left ,45.513977735637 ,48.0365821585928 ,64.1964693923821
5.68494 ,Left ,45.5230656817566 ,48.0450380290573 ,64.1914772803596
5.7012618 ,Left ,45.5206372068316 ,48.0478112472763 ,64.1870502961668
5.7223552 ,Left ,45.5197254254817 ,48.0460585028723 ,64.1875241907479
5.7446245 ,Left ,45.5296591300365 ,48.0476209197415 ,64.1836765189978
5.7668998 ,Left ,45.5364291005358 ,48.0538055251036 ,64.1881149257301
5.789328 ,Left ,45.5549777412833 ,48.0646361471458 ,64.1859201690475
5.8116032 ,Left ,45.5787357760923 ,48.0723709519891 ,64.1819835985622
5.8268358 ,Left ,45.5884981027194 ,48.0827811394945 ,64.1789511921777
5.84189 ,Left ,45.5583829166291 ,48.097561901739 ,64.1821501468082
5.8644908 ,Left ,45.529444286953 ,48.111698899975 ,64.1904741768468
5.879507 ,Left ,45.5288050316877 ,48.1231363821434 ,64.1880354294056
5.9019442 ,Left ,45.5446861488447 ,48.1369357735517 ,64.1838439857561
5.9243416 ,Left ,45.5584897664808 ,48.148261995759 ,64.1867013683861
5.9393939 ,Left ,45.5626100636105 ,48.1574123305518 ,64.1891358443285
5.9631717 ,Left ,45.5527696074639 ,48.1688179055832 ,64.1905663692035
5.9844435 ,Left ,45.5510431194936 ,48.1778660103564 ,64.1872657584601
5.9995696 ,Left ,45.5265562932599 ,48.1891559153322 ,64.1839120673695
6.021979 ,Left ,45.4966617713765 ,48.1985745691271 ,64.1817620192307
6.0444068 ,Left ,45.4964817921257 ,48.2078343506461 ,64.1844110581309
6.0594246 ,Left ,45.5253255346347 ,48.2098237779089 ,64.1870395483623
6.0819843 ,Left ,45.5446441067712 ,48.2007931439507 ,64.1884356896611
6.1045043 ,Left ,45.5499766311033 ,48.1896921600223 ,64.1896011255165
6.1194771 ,Left ,45.5305682075546 ,48.1814407091876 ,64.1913658058877
6.1419236 ,Left ,45.5043593544404 ,48.1721643721204 ,64.1916055347308
6.1645404 ,Left ,45.5079137063838 ,48.1614648233866 ,64.1910606177938
6.1793847 ,Left ,45.5441070254551 ,48.1509106860374 ,64.1904528971922
6.2021048 ,Left ,45.5802432324677 ,48.1364432609269 ,64.1925053548452
6.2244929 ,Left ,45.5595026987232 ,48.1315709308795 ,64.2005779374487
6.2468885 ,Left ,45.4983154185706 ,48.1460335031037 ,64.2079305231522
6.2619621 ,Left ,45.4698146410391 ,48.1645391801353 ,64.2125497843107
6.2845052 ,Left ,45.4876525731573 ,48.1686585480066 ,64.2074255240762
6.3069889 ,Left ,45.4939858436629 ,48.1718496036082 ,64.2038869546549
6.3219838 ,Left ,45.4742370380742 ,48.180789132337 ,64.2226758211338
6.3444609 ,Left ,45.4456772124046 ,48.1953446241272 ,64.2472285038618
6.3684981 ,Left ,45.4326436744554 ,48.2027190627902 ,64.2758262098314
6.3821893 ,Left ,45.4346793833933 ,48.2046166720533 ,64.3015241939191
6.4045163 ,Left ,45.4369229706786 ,48.2063048198458 ,64.3248583076974
6.4269637 ,Left ,45.4544140828441 ,48.2026908985956 ,64.3447792742226
6.4419982 ,Left ,45.4488157181961 ,48.1878204864073 ,64.3657430701015
6.4644476 ,Left ,45.4177048254271 ,48.1748473357238 ,64.3892074489968
6.4869955 ,Left ,45.3930995064014 ,48.160107519637 ,64.4057194394679
6.5018748 ,Left ,45.3908207093602 ,48.144719742659 ,64.4152608967643
6.524366 ,Left ,45.416874152544 ,48.1242234773063 ,64.4219722837781
6.5469598 ,Left ,45.4106175876348 ,48.099068765383 ,64.4249008979301
6.562019 ,Left ,45.3431978016214 ,48.0883814506681 ,64.4335788161113
6.5864477 ,Left ,45.2629068066899 ,48.0850601354839 ,64.4514146988876
6.6070029 ,Left ,45.2304916169011 ,48.0852020339289 ,64.4662258401342
6.6220369 ,Left ,45.2443657801644 ,48.0824324782919 ,64.4826422914198
6.6445219 ,Left ,45.2707449354226 ,48.0874149371166 ,64.4997948931523
6.666847 ,Left ,45.2948654053984 ,48.0940513935432 ,64.5237765368812
6.6817117 ,Left ,45.3031584523229 ,48.0995664314955 ,64.5478457387986
6.704427 ,Left ,45.2816488534932 ,48.1148164212623 ,64.569869894483
6.7268381 ,Left ,45.2647699443195 ,48.134031296234 ,64.5884005064277
6.7418866 ,Left ,45.2762702145531 ,48.1475582086263 ,64.6021584702365
6.7644473 ,Left ,45.2951901824095 ,48.1482211654599 ,64.6103976462772
6.7870983 ,Left ,45.3112933961553 ,48.1436560936073 ,64.6201129854478
6.8019425 ,Left ,45.3046319149675 ,48.1416364627168 ,64.6298957957557
6.824409 ,Left ,45.294210712372 ,48.1326681070107 ,64.641644082319
6.8468697 ,Left ,45.3055524036288 ,48.0973832315047 ,64.6532453593516
6.8618626 ,Left ,45.3206853241488 ,48.0424978612788 ,64.6607895563157
6.8994503 ,Left ,45.3953832775617 ,47.9949066185351 ,64.6589279184776
6.9218342 ,Left ,45.480904918243 ,47.9629674401746 ,64.6511277134337
6.9368611 ,Left ,45.4862451236232 ,47.9437730049984 ,64.6209783556861
6.9517646 ,Left ,45.328106443997 ,47.9574162558855 ,64.5653486397351
6.966947 ,Left ,45.188513487609 ,47.9884060951505 ,64.5178354289933
6.9894829 ,Left ,45.2441428613165 ,47.969466301432 ,64.4571495393672
7.0044785 ,Left ,45.3419341814531 ,47.9277652403123 ,64.3879044515175
7.0269051 ,Left ,45.3663765941958 ,47.9258716067972 ,64.3613410749718
7.0497036 ,Left ,45.3493681889168 ,47.9542640572063 ,64.3650498212555
7.064572 ,Left ,45.318165198629 ,47.9642474172684 ,64.3584946621848
7.0869883 ,Left ,45.3092771977696 ,47.964491192462 ,64.3445995938888
7.109338 ,Left ,45.3117143981684 ,47.9628090262469 ,64.3204904404713
7.1245002 ,Left ,45.3428295773064 ,47.9632528238479 ,64.3010392634713
7.154289 ,Left ,45.3170674440907 ,47.9786618496496 ,64.2737036313079
7.1770085 ,Left ,45.2366018145769 ,48.0066091999467 ,64.2621233255908
7.1918053 ,Left ,45.2244067259753 ,48.008059158265 ,64.2611177609346
7.2294021 ,Left ,45.3157803681821 ,47.9544318082422 ,64.2278498155243
7.2443707 ,Left ,45.29703157251 ,47.947957504477 ,64.2467769944644
7.2669394 ,Left ,45.3051640267983 ,47.9444861556829 ,64.27046878404
7.2895024 ,Left ,45.2853739302888 ,47.9369126035987 ,64.2768544754959
7.3044154 ,Left ,45.2686676980058 ,47.938266155609 ,64.2766588839107
7.3269704 ,Left ,45.2631697740821 ,47.9640519424528 ,64.2658700358278
7.3494881 ,Left ,45.2081905917375 ,47.9992989191431 ,64.2690729027715
7.364445 ,Left ,45.1894873302218 ,48.0352456810662 ,64.29594255843
7.3942228 ,Left ,45.2359637937632 ,48.0458716376472 ,64.3289865996304
7.4170973 ,Left ,45.2742438179237 ,48.0540674070161 ,64.3659326840406
7.4320011 ,Left ,45.2575661468072 ,48.0704816419685 ,64.4373424996643
7.4469847 ,Left ,45.2778543451264 ,48.0601353447547 ,64.5410200713449
7.4694064 ,Left ,45.3792723598322 ,47.9916134876438 ,64.620261907502
7.4844702 ,Left ,45.4771425438876 ,47.8985872682743 ,64.6496357982471
7.5070369 ,Left ,45.4795469905992 ,47.7700482032579 ,64.6543460561302
7.5295743 ,Left ,45.3436869153644 ,47.6972142547096 ,64.6146848880466
7.5444602 ,Left ,45.1897828171562 ,47.6750993261081 ,64.5604241839181
7.5669975 ,Left ,45.0785957357575 ,47.6704754152445 ,64.4993959850566
7.5899364 ,Left ,45.0409839289175 ,47.6541711245644 ,64.433851019157
7.604513 ,Left ,45.0699341026755 ,47.6373455547034 ,64.3740545936505
7.6269406 ,Left ,45.138013453434 ,47.6410288887897 ,64.3238318963749
7.650287 ,Left ,45.1841972767883 ,47.6643953985327 ,64.2949729872126
7.6644831 ,Left ,45.2029430252979 ,47.6963286940822 ,64.2887248095023
7.6869149 ,Left ,45.2130901189937 ,47.7276344936587 ,64.2794686129978
7.7168741 ,Left ,45.2108954283416 ,47.7619046909163 ,64.259996691466
7.7318704 ,Left ,45.188205425829 ,47.7906053278078 ,64.2276107531623
7.7543817 ,Left ,45.1806055951812 ,47.8136537118377 ,64.2070632119464
7.7692611 ,Left ,45.2296336717352 ,47.8057309636875 ,64.1863634579142
7.7843004 ,Left ,45.2749129825663 ,47.7743913290867 ,64.1576497411029
7.8067511 ,Left ,45.2837395867499 ,47.7287719760928 ,64.1384441544795
7.8293183 ,Left ,45.2222607091741 ,47.6745912545389 ,64.142025491633
7.844457 ,Left ,45.1527177215708 ,47.6215851833049 ,64.1597080247147
7.867443 ,Left ,45.1368737621875 ,47.5720658670968 ,64.1629465010035
7.8892894 ,Left ,45.1397498989501 ,47.5296463208875 ,64.1511735577905
7.9044439 ,Left ,45.0668413728314 ,47.5312141637505 ,64.135665860245
7.9267969 ,Left ,45.0125890277904 ,47.5695122109307 ,64.1145585674265
7.9494081 ,Left ,45.1410751244353 ,47.5656940263825 ,64.07023842283
7.9719655 ,Left ,45.3386139698675 ,47.5153862769469 ,64.0068418308697
7.9942801 ,Left ,45.4794108968427 ,47.4762245443574 ,63.9220889393366
8.0191627 ,Left ,45.4460143323416 ,47.4698027206504 ,63.8634304689732
8.0467944 ,Left ,45.1252441098065 ,47.5341871538277 ,63.9439398241438
8.0693182 ,Left ,45.1007098127836 ,47.5384523567926 ,63.9624146614466
8.0918744 ,Left ,45.1511091979822 ,47.5221856835534 ,63.9643653067352
8.1067771 ,Left ,45.2546803128287 ,47.5185224992063 ,63.9841977502657
8.1294538 ,Left ,45.2393541496434 ,47.5360640859354 ,63.9982429719932
8.1517974 ,Left ,45.1344982110079 ,47.6129102098985 ,64.0191237986352
8.1668822 ,Left ,45.0787651161908 ,47.704318252479 ,64.033502550224
8.1893543 ,Left ,45.1901244916596 ,47.750956844598 ,64.0329544970235
8.2118028 ,Left ,45.4102615943815 ,47.7552481291394 ,64.022645862812
8.2267486 ,Left ,45.5511821420426 ,47.7594543364201 ,64.0200055206018
8.2498467 ,Left ,45.5304486712762 ,47.7783499091774 ,64.0480788498691
8.2869306 ,Left ,45.402937090554 ,47.8109186046374 ,64.0812505384405
8.3017601 ,Left ,45.2935166534437 ,47.8385396374527 ,64.1066167004179
8.3244518 ,Left ,45.2744574909179 ,47.8540424119275 ,64.1260460771178
8.3470532 ,Left ,45.4059290881265 ,47.8804754177277 ,64.1465351949085
8.3695311 ,Left ,45.4310338057587 ,47.8934348479156 ,64.1516376840936
8.3920506 ,Left ,45.415961937992 ,47.9152701093618 ,64.1648805509963
8.4069073 ,Left ,45.3768032789284 ,47.9418932519084 ,64.1808523895249
8.4293173 ,Left ,45.3363499379681 ,47.9732773003067 ,64.1913736767221
8.4519788 ,Left ,45.2815997391912 ,48.0150987256641 ,64.2003486132123
8.4676374 ,Left ,45.2904164545674 ,48.0498926451545 ,64.2122252049045
8.489406 ,Left ,45.3517458724636 ,48.0697414875251 ,64.2156654544399
8.5117805 ,Left ,45.408550352949 ,48.0890179458991 ,64.2181868617918
8.5269351 ,Left ,45.4168433372359 ,48.1120837875054 ,64.2239474266285
8.5495481 ,Left ,45.4107030516785 ,48.1334968636996 ,64.2343392687018
8.5718469 ,Left ,45.4087117416342 ,48.1392696023483 ,64.2379038215623
8.5870449 ,Left ,45.4207830123012 ,48.126191546164 ,64.2297379381634
8.609432 ,Left ,45.438936374666 ,48.1126098265341 ,64.2230483469742
8.6319185 ,Left ,45.463740724234 ,48.1088950270958 ,64.2186323785896
8.6468469 ,Left ,45.5109318578099 ,48.1099374551355 ,64.1929064741041
8.6692595 ,Left ,45.5945240289671 ,48.1046418743879 ,64.1634557032506
8.6919431 ,Left ,45.6145736522873 ,48.0981243053355 ,64.1513296482456
8.7069764 ,Left ,45.5607202668515 ,48.0956423784275 ,64.156274221753
8.7216819 ,Left ,45.4934888928519 ,48.0843920879716 ,64.1646507042016
8.7444679 ,Left ,45.4555534154425 ,48.0739199125946 ,64.1671667127482
8.7593978 ,Left ,45.443986485052 ,48.0690794542861 ,64.1714651933131
8.7818005 ,Left ,45.4265818437402 ,48.0722769410649 ,64.1838488504762
8.8047196 ,Left ,45.4001146604065 ,48.0713677671278 ,64.2004499193234
8.8268226 ,Left ,45.3858080873085 ,48.0642901852178 ,64.2171008257468
8.8495202 ,Left ,45.3870799816235 ,48.0604195539781 ,64.2262532792764
8.8791424 ,Left ,45.4199142838964 ,48.0598714441669 ,64.2390542022803
8.9017172 ,Left ,45.4201674963012 ,48.0674065570632 ,64.2486084793443
8.9244113 ,Left ,45.4204238956282 ,48.0749409957468 ,64.2581659917069
8.9391461 ,Left ,45.4297100165431 ,48.0822556987061 ,64.2643384532579
8.9616449 ,Left ,45.4229782055819 ,48.0885548777084 ,64.2729074444128
8.984275 ,Left ,45.4039426715754 ,48.1051674650862 ,64.2811310921801
8.9993399 ,Left ,45.4076900836957 ,48.1194729833649 ,64.2892951560698
9.0218692 ,Left ,45.4325358762202 ,48.1252003509053 ,64.2869701505843
9.0444265 ,Left ,45.4334527963661 ,48.1269488187198 ,64.2864940916254
9.0593601 ,Left ,45.4305297074738 ,48.1262265322022 ,64.289488284351
9.0817308 ,Left ,45.4237726387047 ,48.1295437165974 ,64.2871543982506
9.1118837 ,Left ,45.4175007355788 ,48.129839955902 ,64.286185265637
9.1269879 ,Left ,45.4001637529233 ,48.1335728019633 ,64.2831281876763
9.1644541 ,Left ,45.3603812797891 ,48.1201919626689 ,64.2712104606591
9.1791935 ,Left ,45.3817040869537 ,48.0762474402 ,64.2433621735859
9.2017414 ,Left ,45.373384489001 ,48.0449890422877 ,64.2238892336574
9.2243419 ,Left ,45.3605155814247 ,48.0474789803804 ,64.2318218110438
9.2392219 ,Left ,45.3668354897282 ,48.0631475247346 ,64.2584570463755
9.2616088 ,Left ,45.3935851230086 ,48.0699357247168 ,64.2953061297617
9.2842664 ,Left ,45.4078617868405 ,48.0710354410333 ,64.3234366651613
9.2992504 ,Left ,45.3978831926014 ,48.0733724568004 ,64.3419598530096
9.3294048 ,Left ,45.3979959112044 ,48.0731266205709 ,64.3569181211716
9.3518193 ,Left ,45.4099726464149 ,48.0590935973505 ,64.3623415920245
9.374201 ,Left ,45.4244364949144 ,48.0252757280592 ,64.3576593175576
9.3893926 ,Left ,45.4401977207048 ,48.0012266876805 ,64.346585417842
9.4119782 ,Left ,45.469263755134 ,47.9981299807054 ,64.3455675854945
9.4417923 ,Left ,45.3955818891559 ,47.9845857567514 ,64.3425200964323
9.4642014 ,Left ,45.2783133065967 ,48.0307661990806 ,64.3149774913263
9.5017222 ,Left ,45.3108014534744 ,48.0454387640298 ,64.2388023913041
9.524358 ,Left ,45.3985073624376 ,48.0285972599871 ,64.1867934914401
9.5618079 ,Left ,45.5099746417968 ,48.0713431592576 ,64.1389780780545
9.5992019 ,Left ,45.40942406487 ,48.1095155408618 ,64.1365938004799
9.6219728 ,Left ,45.4862514902772 ,48.0889484320262 ,64.119544125821
9.6670651 ,Left ,45.3762400499127 ,48.0907475395928 ,64.1050573557731
9.6893594 ,Left ,45.4352971814509 ,48.0828712011965 ,64.1052665166065
9.7193597 ,Left ,45.5447612888811 ,48.0234111822435 ,64.1101056019631
9.7416647 ,Left ,45.4782965098647 ,48.0012662491168 ,64.1225063401834
9.7793084 ,Left ,45.3851490583514 ,47.9872681342059 ,64.1692636622525
9.8020195 ,Left ,45.3806425682118 ,47.9871483608242 ,64.1700440862197
9.839265 ,Left ,45.4489380379514 ,48.0156068721054 ,64.184549247221
9.8618669 ,Left ,45.3190603326146 ,48.0831754277364 ,64.183163401282
9.8850854 ,Left ,45.23594796965 ,48.1437049244622 ,64.1962009549579
9.9219082 ,Left ,45.4366844437453 ,48.1618242619098 ,64.2065184787649
9.9441675 ,Left ,45.4783273476887 ,48.1645749919152 ,64.2485192425308
9.982791 ,Left ,45.4377090510689 ,48.203107274608 ,64.3753212742167
10.0043407 ,Left ,45.3909850922161 ,48.2190083603677 ,64.3935678253007
10.0419524 ,Left ,45.4296564121702 ,48.2444440054819 ,64.3583889495046
10.0792474 ,Left ,45.3582707446962 ,48.2772201015514 ,64.2919224005209
10.1018342 ,Left ,45.3369481633112 ,48.3007238193843 ,64.2406183596026
10.1393873 ,Left ,45.4507684687737 ,48.310173584399 ,64.0926563087453
10.1620096 ,Left ,45.4860255432512 ,48.3153675996442 ,64.0183083991675
10.1995197 ,Left ,45.4670823631162 ,48.323289688416 ,63.9369336233145
10.221932 ,Left ,45.4738306419478 ,48.3130849549516 ,63.8944182388135
10.2593423 ,Left ,45.3996773045821 ,48.2631730359976 ,63.8126310134077
10.2819816 ,Left ,45.3536401208942 ,48.2467853418199 ,63.790786053582
10.31945 ,Left ,45.3512682910929 ,48.2205672267535 ,63.7804007895719
10.3418643 ,Left ,45.3604721448576 ,48.1945816425567 ,63.7818447525003
10.3793848 ,Left ,45.407516479135 ,48.1421508052396 ,63.7958307096032
10.4017543 ,Left ,45.4147962338065 ,48.1341972612245 ,63.8113214602404
10.4469849 ,Left ,45.3403865384925 ,48.1675073481693 ,63.8063523345105
10.4697998 ,Left ,45.3719692695198 ,48.2038699710596 ,63.7939047710651
10.5291969 ,Left ,45.7432101861493 ,48.1401670895251 ,63.7052512490162
10.5593427 ,Left ,45.5151579219748 ,48.1570668478117 ,63.7670927108914
10.5816808 ,Left ,45.3803484015418 ,48.1843098071187 ,63.8436930942863
10.6120673 ,Left ,45.5699553606521 ,48.1383317535369 ,63.9165564001162
10.6344102 ,Left ,45.6239897265162 ,48.128321737509 ,63.9306638243266
10.6570248 ,Left ,45.5410830704271 ,48.1773455950722 ,63.9502607909005
10.6793214 ,Left ,45.4880998558767 ,48.2431379706232 ,63.9672334389475
10.6943241 ,Left ,45.5322432293697 ,48.268686123642 ,63.9708163704098
10.7170438 ,Left ,45.6085297625957 ,48.2623217852785 ,63.9585353419486
10.7317637 ,Left ,45.6665606955784 ,48.2619590240315 ,63.9600604025717
10.7543128 ,Left ,45.6484503611476 ,48.2622378051164 ,63.9861486237008
10.7768362 ,Left ,45.551303488621 ,48.2690228640998 ,64.0116064045649
10.793138 ,Left ,45.46308379188 ,48.2883082223752 ,64.0297415300865
10.8141555 ,Left ,45.4457746531285 ,48.3078459019821 ,64.0351318044654
10.8369025 ,Left ,45.4877045855599 ,48.3103682022386 ,64.0385068783055
10.8519573 ,Left ,45.5424001779992 ,48.310898868466 ,64.0360125699112
10.8745107 ,Left ,45.5534678997219 ,48.3127066970195 ,64.0410986432735
10.8969684 ,Left ,45.5361820615546 ,48.3157922378362 ,64.0532901641026
10.9118717 ,Left ,45.510813834024 ,48.3160725866261 ,64.0672475285782
10.9344739 ,Left ,45.469666365773 ,48.3236980875076 ,64.0795386725886
10.9570412 ,Left ,45.4431002954601 ,48.3281077732652 ,64.0839257330675
10.9794168 ,Left ,45.4658564924825 ,48.3134167049736 ,64.0882229239708
10.9943728 ,Left ,45.5020823747825 ,48.2990869837084 ,64.0903463862579
11.0168652 ,Left ,45.5113605449855 ,48.3060138058873 ,64.0947780533979
11.0393323 ,Left ,45.5059757632234 ,48.3218238544604 ,64.0947031291653
11.0544841 ,Left ,45.5037843581522 ,48.3359989078784 ,64.0972501883766
11.0769785 ,Left ,45.5213524351395 ,48.3537495419574 ,64.0941839762511
11.0993498 ,Left ,45.5382130155068 ,48.3691351393123 ,64.0873767812612
11.114373 ,Left ,45.5982674220681 ,48.3451320659707 ,64.0866093528008
11.1369061 ,Left ,45.6283799948129 ,48.2967140467581 ,64.093358406864
11.1592512 ,Left ,45.5603436311347 ,48.2719832361182 ,64.092223018437
11.1742942 ,Left ,45.4265611131669 ,48.273891020814 ,64.0950722262921
11.1967669 ,Left ,45.3626354979559 ,48.2997295556692 ,64.0986942889611
11.2194337 ,Left ,45.4141082416832 ,48.3218624888422 ,64.1016305705279
11.2342774 ,Left ,45.4810100790531 ,48.3165857034485 ,64.1010146269829
11.2574424 ,Left ,45.4567296982181 ,48.3184644138975 ,64.1121871781271
11.2794256 ,Left ,45.3480390500604 ,48.3372809906365 ,64.1352327532566
11.294442 ,Left ,45.234352094113 ,48.3530958744968 ,64.1684456608154
11.3241559 ,Left ,45.1714925259394 ,48.3552426066981 ,64.1932396951062
11.3467453 ,Left ,45.1339936147823 ,48.3448982683454 ,64.2101257686804
11.3619337 ,Left ,45.0963223676798 ,48.3464066799712 ,64.2213838584351
11.3769544 ,Left ,45.0635730987929 ,48.347584236921 ,64.2271704176297
11.3994924 ,Left ,45.0573618402591 ,48.3527534818199 ,64.244492805538
11.4142512 ,Left ,45.0776433408975 ,48.3541552364099 ,64.2787541723035
11.4369347 ,Left ,45.0995363824352 ,48.3420811039478 ,64.2999949947994
11.4600675 ,Left ,45.0992533209774 ,48.3341343660601 ,64.3058988748757
11.4746689 ,Left ,45.0685401830667 ,48.3377586242042 ,64.304628719747
11.4979628 ,Left ,45.0662848115623 ,48.335176928911 ,64.312214016091
11.5194892 ,Left ,45.1186523173189 ,48.3256358515773 ,64.3264311392684
11.5358853 ,Left ,45.158409641455 ,48.3213730000311 ,64.3397894267795
11.5569389 ,Left ,45.1577871538216 ,48.3280302692207 ,64.3362374680428
11.5793431 ,Left ,45.1816265240118 ,48.340378786024 ,64.3332540493211
11.6017841 ,Left ,45.3047387553987 ,48.3513511183124 ,64.331528286424
11.6243013 ,Left ,45.4778517279641 ,48.3540223099003 ,64.3319567855733
11.6616455 ,Left ,45.5858640663343 ,48.3535410315199 ,64.3361658894473
11.6767883 ,Left ,45.5006537614662 ,48.3607316765052 ,64.3324141369528
11.6993188 ,Left ,45.3613034773888 ,48.3675916658223 ,64.3433851686813
11.7218847 ,Left ,45.2500000948359 ,48.3820248320845 ,64.3852654179721
11.7368142 ,Left ,45.2010905600313 ,48.3911527624209 ,64.4291628607389
11.7593948 ,Left ,45.1731498833889 ,48.3869025757641 ,64.4616274587269
11.7819271 ,Left ,45.1489134659916 ,48.3765034994335 ,64.4923205945849
11.79682 ,Left ,45.0908937221491 ,48.3734023796114 ,64.5244096117615
11.8192768 ,Left ,45.0273872709111 ,48.3695072967427 ,64.5616145956306
11.8343411 ,Left ,44.9667580371763 ,48.3659516189518 ,64.5940636349896
11.8568363 ,Left ,44.9724646444475 ,48.3444985105349 ,64.6191303321753
11.8793067 ,Left ,45.0459200556409 ,48.3093592157001 ,64.6423933836004
11.902399 ,Left ,45.1300261661137 ,48.259740208111 ,64.6622938447852
11.9167742 ,Left ,45.1610815057548 ,48.2143630419753 ,64.6686772496576
11.9393698 ,Left ,45.1389493348428 ,48.1783778297182 ,64.6825029045261
11.9618033 ,Left ,45.2028548232948 ,48.1585291148539 ,64.6863765155114
11.9769207 ,Left ,45.373479522513 ,48.1148881905085 ,64.6692144459287
11.9991742 ,Left ,45.502209923548 ,48.0706042042589 ,64.6010093881172
12.0218744 ,Left ,45.4563682490653 ,48.0641081247733 ,64.5428382482932
12.0369933 ,Left ,45.3762631884038 ,48.0792389422974 ,64.5290016589851
12.059396 ,Left ,45.3934229257846 ,48.0730722689612 ,64.5079622216405
12.0817296 ,Left ,45.4138862537044 ,48.0487144927686 ,64.4594386482428
12.0968116 ,Left ,45.4154897393595 ,48.0581624688019 ,64.4164050000151
12.1195899 ,Left ,45.4442588130764 ,48.0874886322328 ,64.3901025817191
12.1418649 ,Left ,45.479266382995 ,48.0982032494591 ,64.3620145607032
12.15673 ,Left ,45.4663887327268 ,48.1028663632501 ,64.3277615637107
12.1794366 ,Left ,45.4029112851149 ,48.120861501963 ,64.2980274275528
12.2018895 ,Left ,45.3975361746978 ,48.123334362124 ,64.2984478219402
12.2169237 ,Left ,45.3783431205226 ,48.1406299790191 ,64.2935948287074
12.2392866 ,Left ,45.3438349888999 ,48.1597467634686 ,64.2794444793088
12.2618182 ,Left ,45.3829481768148 ,48.16216603204 ,64.2546689909836
12.2768394 ,Left ,45.4728496900174 ,48.1254774946593 ,64.2274613412397
12.2993389 ,Left ,45.4814289990713 ,48.0880059301793 ,64.2047459486501
12.3217817 ,Left ,45.3874655966097 ,48.0856808803304 ,64.2343688532525
12.3369919 ,Left ,45.3455338383711 ,48.1032387364891 ,64.271679537295
12.3592353 ,Left ,45.3014144306854 ,48.115632152306 ,64.2729704678051
12.3817594 ,Left ,45.3376745094291 ,48.1132052452825 ,64.286004587609
12.396833 ,Left ,45.3493875177292 ,48.1514425429532 ,64.2891804811223
12.4267021 ,Left ,45.2736315782084 ,48.1618724893916 ,64.2923382065709
12.4491132 ,Left ,45.2062450160892 ,48.1980550666737 ,64.3275485920028
12.4643928 ,Left ,45.2302031578505 ,48.2055926163219 ,64.3730293962124
12.4869251 ,Left ,45.2625163444158 ,48.1972255056912 ,64.4115439967404
12.5017326 ,Left ,45.2479665471767 ,48.2035858250486 ,64.4976307974441
12.5167975 ,Left ,45.2083980342179 ,48.2141400141667 ,64.6406701298541
12.5392723 ,Left ,45.2311027412484 ,48.2098664993907 ,64.7850971371094
12.5619964 ,Left ,45.2253431324659 ,48.197667437582 ,64.8979416836143
12.5767949 ,Left ,45.2031923826833 ,48.1878182187094 ,64.9769669545609
12.5994139 ,Left ,45.2527638650704 ,48.2009879090359 ,65.0189342143074
12.6219852 ,Left ,45.2558186009108 ,48.2335678928115 ,65.023395031932
12.6444153 ,Left ,45.2270223704406 ,48.292454304734 ,64.9881821535599
12.6594354 ,Left ,45.2262776047114 ,48.3368490206913 ,64.9495358682336
12.6819655 ,Left ,45.2756039683702 ,48.352035313079 ,64.8992289380257
12.6969257 ,Left ,45.3365594485971 ,48.359911261142 ,64.8306246039295
12.7193891 ,Left ,45.3776430251448 ,48.3607502734898 ,64.7682721986141
12.7421593 ,Left ,45.4015369862307 ,48.3594148612312 ,64.711169857592
12.7569378 ,Left ,45.4115969208532 ,48.356080690808 ,64.6514910722773
12.7793436 ,Left ,45.4551363815807 ,48.3630891840387 ,64.5923538436552
12.8020191 ,Left ,45.4891106974276 ,48.3675561423865 ,64.5285863642093
12.824263 ,Left ,45.477008941798 ,48.3648894772587 ,64.4736024562987
12.8394313 ,Left ,45.4848997002766 ,48.3548567049794 ,64.4394577041346
12.8616565 ,Left ,45.4987394389341 ,48.3313347679059 ,64.4092281161815
12.8843479 ,Left ,45.4823125121957 ,48.2977098810831 ,64.3905611059211
12.8994189 ,Left ,45.4584386681225 ,48.2593650339994 ,64.378350830443
12.9218179 ,Left ,45.4436916489609 ,48.2119044660956 ,64.362125501262
12.9442616 ,Left ,45.4326726599643 ,48.1748117653412 ,64.3569008233581
12.9594482 ,Left ,45.4146142939567 ,48.1411881426089 ,64.3691208440799
12.9819515 ,Left ,45.3507117488562 ,48.1473217019046 ,64.3479279035551
13.0042644 ,Left ,45.2702183555865 ,48.1877806226604 ,64.3494373583067
13.0193323 ,Left ,45.3279130348984 ,48.2003772384356 ,64.3551105989513
13.041886 ,Left ,45.4994840307455 ,48.1746477594987 ,64.3093948796344
13.0644187 ,Left ,45.6394438730623 ,48.1513822540019 ,64.245824503841
13.079368 ,Left ,45.6323616307566 ,48.1601522858061 ,64.2147302095769
13.1022712 ,Left ,45.5032994199673 ,48.1825488244296 ,64.2228905642444
13.1246828 ,Left ,45.4080350453751 ,48.1972539096733 ,64.2602693688342
13.139283 ,Left ,45.4424829114984 ,48.1951179857381 ,64.28904961522
13.1617609 ,Left ,45.5204451017768 ,48.15269690525 ,64.2994578014972
13.1844437 ,Left ,45.5300956926956 ,48.1324960507056 ,64.31695461803
13.1992636 ,Left ,45.4448476740478 ,48.1520068701226 ,64.3442225074915
13.2218476 ,Left ,45.373240277338 ,48.2019059984079 ,64.3641047450017
13.2443993 ,Left ,45.3596775027869 ,48.2545023555562 ,64.3656050003097
13.2594285 ,Left ,45.4958091309695 ,48.2584720083433 ,64.3541858410765
13.2820606 ,Left ,45.6796440367467 ,48.2549336114263 ,64.3480370979192
13.3044543 ,Left ,45.7187395119447 ,48.2578844884623 ,64.3423766351605
13.3192891 ,Left ,45.6246871919313 ,48.2691194844913 ,64.3566004302545
13.341759 ,Left ,45.5491389869726 ,48.2744609419095 ,64.3734499580439
13.3643756 ,Left ,45.5433832373193 ,48.2658400810059 ,64.3860664128339
13.3794093 ,Left ,45.5685033477967 ,48.2563343788809 ,64.3914261041729
13.4018501 ,Left ,45.5965717589039 ,48.2518580071836 ,64.3930356221748
13.424678 ,Left ,45.6264182133353 ,48.2465442306764 ,64.3945260705962
13.4391751 ,Left ,45.6223732233555 ,48.2446801093564 ,64.4022117335352
13.4619375 ,Left ,45.5982877940355 ,48.2465453044034 ,64.4110430275499
13.484316 ,Left ,45.5782936173046 ,48.2484844421468 ,64.4220654103093
13.499206 ,Left ,45.5744316416246 ,48.2468465441388 ,64.4292478867863
13.5217034 ,Left ,45.5839508358305 ,48.2538696060251 ,64.4332106227871
13.544397 ,Left ,45.5991957867352 ,48.2646308628426 ,64.4408407154285
13.5594141 ,Left ,45.607424985799 ,48.2750207220202 ,64.4511522290573
13.5819042 ,Left ,45.6193738532084 ,48.279217513662 ,64.4596031749604
13.6043546 ,Left ,45.6591918616022 ,48.2782378953235 ,64.4683757210795
13.6192671 ,Left ,45.6808323790561 ,48.2840836615854 ,64.475506701696
13.6418655 ,Left ,45.6681059651089 ,48.2913363063616 ,64.4844305004063
13.6643855 ,Left ,45.6550360135531 ,48.3033030064693 ,64.4973672751879
13.6794354 ,Left ,45.6422316072835 ,48.3194059663124 ,64.5071415206929
13.7018125 ,Left ,45.6339177658085 ,48.3355789766215 ,64.5162099922053
13.7242306 ,Left ,45.6413264700982 ,48.3481085729147 ,64.5243940187206
13.7392189 ,Left ,45.6415324569426 ,48.3604758485278 ,64.5376217924204
13.7618114 ,Left ,45.5488247467905 ,48.3823197204092 ,64.5647380340327
13.7845097 ,Left ,45.3832079744705 ,48.4203804654689 ,64.6109090990024
13.8067905 ,Left ,45.2340271829529 ,48.4622450004593 ,64.6613259126724
13.8219466 ,Left ,45.1568119929952 ,48.4867801699885 ,64.6951257271984
13.8443906 ,Left ,45.1850206633672 ,48.5041363831495 ,64.7148769870425
13.8667897 ,Left ,45.2903641395611 ,48.5145431317235 ,64.7200473204495
13.8819352 ,Left ,45.3740501290602 ,48.519759188621 ,64.7197789170597
13.9043186 ,Left ,45.379901763081 ,48.5286245834839 ,64.7264519784306
13.9269409 ,Left ,45.3760353449807 ,48.535478688613 ,64.7325946092238
13.9419998 ,Left ,45.3807248447794 ,48.5352986342986 ,64.7294930633858
13.9643268 ,Left ,45.3748306426746 ,48.5348526656269 ,64.7217486402913
13.9869445 ,Left ,45.3690524223626 ,48.5298781015416 ,64.7123992819115
14.0020227 ,Left ,45.3902906657683 ,48.5229705386979 ,64.7068616840976
14.0242999 ,Left ,45.4209825207915 ,48.5152283013614 ,64.7107104358131
14.0470041 ,Left ,45.4271360047828 ,48.5145407497627 ,64.729759873315
14.0617757 ,Left ,45.4209154060959 ,48.5241120331739 ,64.7488974659566
14.0844087 ,Left ,45.4569443424522 ,48.5309245189316 ,64.7696880225737
14.1070627 ,Left ,45.5178952698012 ,48.5376649283566 ,64.7832546321986
14.1217993 ,Left ,45.5540692157964 ,48.5525878766531 ,64.8007710309329
14.1441271 ,Left ,45.5834474152108 ,48.5569354888494 ,64.8120132200986
14.1669549 ,Left ,45.634948670819 ,48.5525253639805 ,64.8020166257346
14.1819533 ,Left ,45.6690733473615 ,48.5505674557366 ,64.8010202567933
14.2043911 ,Left ,45.6679532068574 ,48.5494272078521 ,64.8057549926465
14.2268902 ,Left ,45.6369936792674 ,48.549680120621 ,64.8094332529679
14.2419849 ,Left ,45.6131084622644 ,48.5557464640308 ,64.8154447928869
14.2644599 ,Left ,45.6190697482139 ,48.5600238674904 ,64.8206026963694
14.2869166 ,Left ,45.6249523572114 ,48.5507526143327 ,64.8237289176899
14.3018503 ,Left ,45.6213359575806 ,48.5308806950467 ,64.8248378461995
14.331584 ,Left ,45.6093913274969 ,48.5178177007955 ,64.8328293513474
14.354111 ,Left ,45.5992057207028 ,48.5127356902733 ,64.8415965906375
14.369364 ,Left ,45.5750199205876 ,48.497451939032 ,64.8509819040353
14.3844509 ,Left ,45.5317383762947 ,48.4814097824235 ,64.8698370135573
14.4068972 ,Left ,45.5176520152913 ,48.4663480890306 ,64.8869425049995
14.421935 ,Left ,45.5489738192906 ,48.4416865497893 ,64.9048788195715
14.4518909 ,Left ,45.5809355553519 ,48.4016465683592 ,64.9249842077033
14.4742256 ,Left ,45.614288844066 ,48.3561650950423 ,64.9462630419331
14.4892772 ,Left ,45.6974166579106 ,48.3105259712937 ,64.9722802842657
14.4968585 ,Left ,45.7698656387776 ,48.2702263201862 ,65.0181010258208
14.5193401 ,Left ,45.8086201982307 ,48.2348486013151 ,65.0366764892675
14.5343012 ,Left ,45.7039662629283 ,48.1917131144017 ,65.0280405071757
14.5566182 ,Left ,45.5874263486419 ,48.1732207572144 ,64.9886616055926
14.5794075 ,Left ,45.6084596585583 ,48.1325801087752 ,64.9355981331509
14.5941839 ,Left ,45.7124200620492 ,48.0799708011554 ,64.8894574850631
14.6166641 ,Left ,45.7722507941281 ,48.0416091491687 ,64.851007779362
14.6469561 ,Left ,45.7312081722885 ,48.0116111991056 ,64.8132260565668
14.6618842 ,Left ,45.625297031053 ,47.9781470986153 ,64.7736623452656
14.6842625 ,Left ,45.530988463769 ,47.9546066134264 ,64.7351490204348
14.6992578 ,Left ,45.531379007287 ,47.9331931581384 ,64.6843761661866
14.7143959 ,Left ,45.5894406518546 ,47.9068932138011 ,64.6416057856491
14.7368358 ,Left ,45.5809756660152 ,47.889064830005 ,64.6217829705279
14.7593859 ,Left ,45.480151695607 ,47.9050743711298 ,64.6193603264618
14.7743055 ,Left ,45.4796965369107 ,47.9054573757991 ,64.6241529700736
14.7966951 ,Left ,45.5671956631708 ,47.8954330640153 ,64.6181300309134
14.8194141 ,Left ,45.6159749109052 ,47.8863009772294 ,64.6109555228134
14.834435 ,Left ,45.5905764428535 ,47.9040535775837 ,64.6225761244446
14.8567296 ,Left ,45.603596112696 ,47.926678144726 ,64.6427150694895
14.8794336 ,Left ,45.6066134657849 ,47.9434673677199 ,64.6506270514532
14.8940938 ,Left ,45.5969291314884 ,47.9693902667614 ,64.6406761908153
14.9169682 ,Left ,45.543574149227 ,48.0054657863692 ,64.6526518631297
14.9392627 ,Left ,45.475194326863 ,48.0506055529581 ,64.6804592071688
14.9543523 ,Left ,45.503672146531 ,48.0750682124978 ,64.7073464182311
14.9765669 ,Left ,45.5824164112928 ,48.0895120666508 ,64.7296663498154
14.9992147 ,Left ,45.5881381583987 ,48.1062267610939 ,64.7677995017843
15.0143844 ,Left ,45.5622318688879 ,48.1201125539167 ,64.8365932246164
15.0367121 ,Left ,45.6012130353061 ,48.1028169204131 ,64.8736455907444
15.059129 ,Left ,45.6008237675945 ,48.0591786577729 ,64.8569855361409
15.0743168 ,Left ,45.5224397522284 ,48.0340311890987 ,64.839017604861
15.0969125 ,Left ,45.4912186055826 ,48.0266258128685 ,64.8312127587977
15.1192124 ,Left ,45.4555988419206 ,48.0115821578917 ,64.7945894557111
15.1569174 ,Left ,45.2820618723095 ,48.0285132548296 ,64.7163801714105
15.1791213 ,Left ,45.2829756211049 ,48.0358645131151 ,64.6886059056696
15.216775 ,Left ,45.3708392666684 ,48.0348849432617 ,64.6332305460379
15.2394126 ,Left ,45.3715396170358 ,48.0506742509215 ,64.6218187298215
15.2768079 ,Left ,45.4140653713309 ,48.0743727594162 ,64.5881867569212
15.2993219 ,Left ,45.4355113989842 ,48.0866567230574 ,64.554678221304
15.3366794 ,Left ,45.4135123481563 ,48.1185247272357 ,64.4934595709164
15.3593887 ,Left ,45.4090649868186 ,48.1286959503789 ,64.4658002518271
15.3965348 ,Left ,45.3994464639476 ,48.1317003620678 ,64.4167205992818
15.4193486 ,Left ,45.4022794736055 ,48.1335701751688 ,64.3851284688942
15.4569345 ,Left ,45.3958836887313 ,48.1316135572163 ,64.3428076225728
15.4943307 ,Left ,45.4095664327217 ,48.0872202480375 ,64.3378503539555
15.516586 ,Left ,45.3868451851408 ,48.0623388758274 ,64.3517201580872
15.5541347 ,Left ,45.41013332162 ,47.9725872692773 ,64.3360785268976
15.5769278 ,Left ,45.3586062165674 ,47.945844885182 ,64.3304696404628
15.6141428 ,Left ,45.3797768264822 ,48.0540749337238 ,64.3083806491055
15.6368035 ,Left ,45.5636450268274 ,48.0484212971069 ,64.2770422772486
15.6591941 ,Left ,45.6853630395941 ,48.0145896211221 ,64.2320519482043
15.696638 ,Left ,45.5142390988987 ,47.987602710141 ,64.2286083071158
15.7192049 ,Left ,45.4474724191965 ,48.0037693512537 ,64.2843526371478
15.7566435 ,Left ,45.4976426570565 ,47.9341232992057 ,64.3048721668395
15.779085 ,Left ,45.6317059817951 ,47.92167953241 ,64.3132145924442
15.8166363 ,Left ,45.6438805587584 ,48.0149814883907 ,64.3371263182263
15.839328 ,Left ,45.6277544956916 ,48.0659074537694 ,64.3525275635157
15.8769073 ,Left ,45.8575850168787 ,48.0450301433835 ,64.3444740432621
15.8990134 ,Left ,45.99329445164 ,48.0226849783067 ,64.3528024615229
15.9365709 ,Left ,45.9290759763616 ,48.0221130464748 ,64.4130023849396
15.959271 ,Left ,45.8505009680314 ,48.0388583801973 ,64.4466331056329
15.9966873 ,Left ,45.8523527852017 ,48.0455094958933 ,64.4755015419073
16.0343365 ,Left ,45.9295579912086 ,48.0563222935172 ,64.4752387026509
16.0581289 ,Left ,45.899772026935 ,48.0749322757208 ,64.4738213263418
16.0942378 ,Left ,45.8785709696223 ,48.1162494105675 ,64.4762314938696
16.1166791 ,Left ,45.8817573639344 ,48.1288031751896 ,64.4653450753502
16.1542589 ,Left ,45.839605628297 ,48.1582642151579 ,64.4485385290512
16.1766377 ,Left ,45.8414090389273 ,48.176000384109 ,64.4341298252406
16.2143063 ,Left ,45.8259965653929 ,48.2310052481798 ,64.4077366242025
16.2367342 ,Left ,45.8430751119853 ,48.2502205054187 ,64.3984075374619
16.2743276 ,Left ,45.8246833535085 ,48.2525040076128 ,64.3979701533784
16.2969437 ,Left ,45.7857528722094 ,48.2625950783388 ,64.401264867173
16.3342204 ,Left ,45.8097268932084 ,48.2790479028708 ,64.3956831777017
16.3569108 ,Left ,45.8354277910646 ,48.2903473466181 ,64.390765163861
16.3719168 ,Left ,45.8696671158489 ,48.3021763841306 ,64.3892955783929
16.3867742 ,Left ,45.8818169044898 ,48.3053587393091 ,64.3917210691203
16.4093586 ,Left ,45.8672748980843 ,48.309036877587 ,64.4014743225197
16.4320729 ,Left ,45.8394516832616 ,48.3083708530501 ,64.4135114663364
16.4469794 ,Left ,45.8028692471631 ,48.3073864192149 ,64.4245592987307
16.4703632 ,Left ,45.7900578791704 ,48.3059405835874 ,64.4349587765819
16.4919595 ,Left ,45.8008921146802 ,48.308131632052 ,64.4444520992656
16.5069721 ,Left ,45.8332015449923 ,48.3085428152654 ,64.4490750829166
16.5293381 ,Left ,45.8608117092829 ,48.3094363716306 ,64.4586788689429
16.5517353 ,Left ,45.8617917839848 ,48.3148097608414 ,64.4730189938736
16.5668603 ,Left ,45.8399238109919 ,48.3224504695195 ,64.4875605980297
16.5892456 ,Left ,45.8330780244987 ,48.3292604325671 ,64.500445089403
16.6119091 ,Left ,45.8352695442159 ,48.3273687407717 ,64.5110589368599
16.6343534 ,Left ,45.8476945017855 ,48.3160886849031 ,64.5245817395207
16.6492309 ,Left ,45.8531156247508 ,48.3168113168893 ,64.5371204644655
16.6717808 ,Left ,45.8453953989668 ,48.3265945294061 ,64.5515932001414
16.6941988 ,Left ,45.8445919240911 ,48.3331961248999 ,64.5679708692975
16.7092133 ,Left ,45.8687349656984 ,48.3264481048784 ,64.5750871783574
16.7319086 ,Left ,45.9089558893952 ,48.3156564157541 ,64.5765931007279
16.7542381 ,Left ,45.9467927627057 ,48.3124355241301 ,64.5748020288448
16.7694131 ,Left ,45.9485673153837 ,48.3115918322458 ,64.5746791819435
16.7919899 ,Left ,45.9446742070911 ,48.305180691405 ,64.5806754945908
16.8142442 ,Left ,45.9446742070911 ,48.305180691405 ,64.5806754945908
16.8294396 ,Left ,45.948832982422 ,48.3018407928473 ,64.5869056981316
16.8541984 ,Left ,45.9402197097264 ,48.2963140414815 ,64.599755949374
16.8743204 ,Left ,45.8854241239607 ,48.2923198925331 ,64.622289692791
16.8893192 ,Left ,45.7905047942044 ,48.2856310910054 ,64.6584242227867
16.9119135 ,Left ,45.6872121939864 ,48.2817745336 ,64.7019848519413
16.9342898 ,Left ,45.5889103806534 ,48.2762125586662 ,64.7497731605677
16.9494388 ,Left ,45.5361884353554 ,48.2700809135407 ,64.7968303249889
16.971804 ,Left ,45.5523101849264 ,48.2555698158703 ,64.836688485832
16.9943347 ,Left ,45.5792889870425 ,48.2344418636651 ,64.8677103983003
17.0096773 ,Left ,45.630110352702 ,48.2079264775848 ,64.8963265614035
17.0318094 ,Left ,45.7599008004098 ,48.1818244446255 ,64.9086093404159
17.0541763 ,Left ,45.8728420695715 ,48.1678083990771 ,64.9119753366517
17.0692731 ,Left ,45.8812554456168 ,48.1602555463804 ,64.9012467092813
17.0919011 ,Left ,45.7286982218671 ,48.1890270157889 ,64.8719802044334
17.1143526 ,Left ,45.6068834322657 ,48.2360436325488 ,64.8463771920522
17.1294375 ,Left ,45.5983790971754 ,48.2367698811763 ,64.7946759757967
17.1593244 ,Left ,45.6972853196092 ,48.2145271205289 ,64.7356116372532
17.1819258 ,Left ,45.8175935794219 ,48.2068840792342 ,64.6853094114757
17.2118167 ,Left ,45.8333009474444 ,48.2226046812797 ,64.6568750676192
17.2344379 ,Left ,45.8047177893037 ,48.2293646446363 ,64.650511589363
17.2492277 ,Left ,45.7696857015834 ,48.2381518551999 ,64.6336955986638
17.2719478 ,Left ,45.7942306676255 ,48.2401214106009 ,64.6193504874624
17.2952502 ,Left ,45.7422134741209 ,48.2555125540061 ,64.6079178831976
17.3092396 ,Left ,45.6920135855505 ,48.2743354592638 ,64.5956163773325
17.3317524 ,Left ,45.7191818839808 ,48.2728780873378 ,64.5814564029559
17.3543612 ,Left ,45.7795150704563 ,48.2504908388432 ,64.5671922133122
17.3692135 ,Left ,45.8290087662227 ,48.2263994593371 ,64.5453234744984
17.3917461 ,Left ,45.8043149980735 ,48.2120604329396 ,64.5463694513918
17.4215781 ,Left ,45.7869740548454 ,48.21059932592 ,64.557546723352
17.4442833 ,Left ,45.8062532368253 ,48.210360540166 ,64.5593960466723
17.4668093 ,Left ,45.8253536537106 ,48.2099069535193 ,64.5617679192322
17.4817025 ,Left ,45.7652314221829 ,48.2407931149093 ,64.5552023701106
17.4968762 ,Left ,45.655321989447 ,48.2704751453321 ,64.5765308942125
17.5118805 ,Left ,45.5883842177448 ,48.2894082342347 ,64.6123302698798
17.5343888 ,Left ,45.5511592521803 ,48.2860083445313 ,64.6349005708944
17.5491983 ,Left ,45.511604673687 ,48.2804087197899 ,64.6670168858071
17.5718088 ,Left ,45.4976902775797 ,48.2771579578141 ,64.7130114709994
17.594235 ,Left ,45.495021825571 ,48.3068303394224 ,64.7847115491466
17.6168761 ,Left ,45.3842843193884 ,48.3668310095273 ,64.8277860151169
17.6317491 ,Left ,45.2782632117816 ,48.4087917349925 ,64.8117073729754
17.6542778 ,Left ,45.3895033623603 ,48.3555460103645 ,64.7395726637541
17.6766847 ,Left ,45.4731750609459 ,48.2681981289161 ,64.6280838576382
17.6918333 ,Left ,45.3285732580269 ,48.2662647423934 ,64.5547027096191
17.7141732 ,Left ,45.1578274624874 ,48.3100034128327 ,64.5403061171935
17.7367639 ,Left ,45.141970333007 ,48.3350482781877 ,64.5052806484218
17.7519216 ,Left ,45.2667638617887 ,48.3371481686534 ,64.4584383460773
17.7743785 ,Left ,45.3776178112988 ,48.3491732150426 ,64.4384770054689
17.7969494 ,Left ,45.3864063781615 ,48.3840528038321 ,64.4359229554965
17.8119081 ,Left ,45.367230977711 ,48.4018402360194 ,64.4328667960596
17.8344391 ,Left ,45.4002422092835 ,48.3953323956676 ,64.4215078474773
17.8568841 ,Left ,45.4379998385809 ,48.3803672966319 ,64.3907826202915
17.871887 ,Left ,45.4449631857531 ,48.3685618816093 ,64.3571721172158
17.8944018 ,Left ,45.471801647224 ,48.3592869462011 ,64.3315079382661
17.9167059 ,Left ,45.5108443219787 ,48.352483095976 ,64.3044168054546
17.9317467 ,Left ,45.5160135974342 ,48.3380942544817 ,64.2754888374563
17.9542723 ,Left ,45.5302723929883 ,48.32688248928 ,64.2560636383363
17.9770346 ,Left ,45.5605376739985 ,48.3118512009291 ,64.2506217047697
17.9920915 ,Left ,45.5648657444534 ,48.286445709328 ,64.2564208651732
18.0143845 ,Left ,45.5629812870786 ,48.2698566601854 ,64.276961006965
18.0368248 ,Left ,45.5720898534853 ,48.2563448768314 ,64.2909167572118
18.0519185 ,Left ,45.59289042398 ,48.2431155411275 ,64.2991116239133
18.0743263 ,Left ,45.55690823171 ,48.2445448179467 ,64.2969166963243
18.0968249 ,Left ,45.4568778808834 ,48.2912282510246 ,64.2881841351768
18.1192372 ,Left ,45.4877876627972 ,48.3255986490312 ,64.2788664102361
18.1343782 ,Left ,45.6513630539083 ,48.3141224166286 ,64.2264024855135
18.1567854 ,Left ,45.7823563291148 ,48.3077452523613 ,64.1556788347194
18.1717664 ,Left ,45.7336410633633 ,48.3462413181535 ,64.1378043426868
18.1943309 ,Left ,45.6098221770821 ,48.3920374933152 ,64.1621341773981
18.217007 ,Left ,45.5581318799744 ,48.4174961426633 ,64.1900186984521
18.2319034 ,Left ,45.6457913627737 ,48.4282833674787 ,64.2087008513511
18.2621073 ,Left ,45.7687326162608 ,48.409891476166 ,64.232131141613
18.2841234 ,Left ,45.8313394344458 ,48.4160030763906 ,64.2610556582019
18.3143528 ,Left ,45.6584908113508 ,48.5460253524974 ,64.3140901635496
18.3442581 ,Left ,45.6910327800443 ,48.6007478465879 ,64.3196639359183
18.366602 ,Left ,45.8356357751245 ,48.6130985997144 ,64.3039599158746
18.3818147 ,Left ,45.9716371213653 ,48.6069637407884 ,64.3035515323386
18.3968448 ,Left ,45.9894598131003 ,48.5977393379532 ,64.318369220904
18.4194563 ,Left ,45.9171476912929 ,48.5857892059503 ,64.3515705135292
18.4343688 ,Left ,45.8368838896263 ,48.5706754878611 ,64.3823131604711
18.4569353 ,Left ,45.8003479245948 ,48.5574671301191 ,64.3989428581209
18.4793645 ,Left ,45.8125856633542 ,48.5431819080668 ,64.4019446636052
18.4942432 ,Left ,45.8612909932296 ,48.5299017999234 ,64.3941885343966
18.5169016 ,Left ,45.8976764899501 ,48.5179662131283 ,64.3855989607009
18.5465977 ,Left ,45.8996212741238 ,48.5122486925135 ,64.381930162166
18.5619128 ,Left ,45.8708480079397 ,48.5061833153689 ,64.3794116100048
18.599412 ,Left ,45.7890015391975 ,48.5044592774567 ,64.3844603384753
18.6143866 ,Left ,45.7970684441105 ,48.5068059894716 ,64.3809593123755
18.6368166 ,Left ,45.826211920105 ,48.5074166318751 ,64.3756127828488
18.6593728 ,Left ,45.845498050712 ,48.5072757329165 ,64.3776365625442
18.67428 ,Left ,45.8417704713114 ,48.5138322340425 ,64.3814160118505
18.6969661 ,Left ,45.8284395618658 ,48.5269425731815 ,64.3831006878415
18.7196457 ,Left ,45.8218944139332 ,48.5414216855517 ,64.3883663548921
18.7343878 ,Left ,45.8305144259203 ,48.550594842551 ,64.3904002404244
18.7569387 ,Left ,45.8482272866645 ,48.5550283538994 ,64.3875956034611
18.7791156 ,Left ,45.8589435979177 ,48.5539681507599 ,64.3843065631614
18.7942207 ,Left ,45.8616290653107 ,48.5541213948054 ,64.3800298363838
18.8168305 ,Left ,45.8566484298754 ,48.5558638666006 ,64.3737334676335
18.8392224 ,Left ,45.846458768049 ,48.5516513749364 ,64.3687007775823
18.8543096 ,Left ,45.8369658932774 ,48.5450501154873 ,64.3663604560699
18.876795 ,Left ,45.8236985683573 ,48.536364191091 ,64.3692406597528
18.8992304 ,Left ,45.8125556590493 ,48.5299297854453 ,64.3825012823473
18.9143933 ,Left ,45.8032137237924 ,48.5273730807872 ,64.3968050656306
18.9370838 ,Left ,45.7630619454695 ,48.5158652339154 ,64.4137905386412
18.95919 ,Left ,45.6567172325678 ,48.486443900466 ,64.4371206003995
18.9743626 ,Left ,45.5159192619416 ,48.4500952483201 ,64.4637014766049
18.9968458 ,Left ,45.3570844871741 ,48.43259238243 ,64.4983328957747
19.0193478 ,Left ,45.2459906228771 ,48.4212743280348 ,64.5576124383469
19.0343684 ,Left ,45.2396386688663 ,48.409635251931 ,64.615045939123
19.0643828 ,Left ,45.3401331874214 ,48.3907111698281 ,64.6451771945537
19.0867623 ,Left ,45.4766811661242 ,48.3687939743475 ,64.6541583024643
19.1019081 ,Left ,45.5935706779196 ,48.3397686986848 ,64.6513446215974
19.1168198 ,Left ,45.639122447681 ,48.2996701643908 ,64.6502827178803
19.1393001 ,Left ,45.59409067901 ,48.2623467168797 ,64.65111408503
19.1542312 ,Left ,45.4873907308447 ,48.2515527217641 ,64.6573879576833
19.1767229 ,Left ,45.4014220234515 ,48.2579825477837 ,64.6713855856972
19.1991699 ,Left ,45.3971707249739 ,48.2699774946159 ,64.6833791333211
19.2142898 ,Left ,45.4640726779155 ,48.2817911126957 ,64.6856900201061
19.2368513 ,Left ,45.5422178026064 ,48.2945299857086 ,64.6890461064017
19.2592271 ,Left ,45.5873722125433 ,48.313141478911 ,64.7002073313651
19.2744132 ,Left ,45.5858147095652 ,48.3352090021512 ,64.7144154680166
19.2967178 ,Left ,45.5589964540361 ,48.3540967010732 ,64.7254937707678
19.3195815 ,Left ,45.5385959242477 ,48.3584188378466 ,64.7313986172832
19.3342405 ,Left ,45.5333889690461 ,48.356039203964 ,64.7282759931121
19.3643589 ,Left ,45.5497099488527 ,48.3512849519026 ,64.718277159865
19.3869038 ,Left ,45.5818352521981 ,48.338691114166 ,64.7076508781505
19.4019338 ,Left ,34.2018650217234 ,36.24371383227675 ,48.522468526275006
19.4242609 ,Left ,22.8020352610346 ,24.1624423818898 ,32.34165294757565
19.4393669 ,Left ,11.4005446858673 ,12.0827081081209 ,16.1673665663388
21.3217232 ,Left ,46.1623068321751 ,48.4487483178314 ,64.3975322913341
21.374285 ,Left ,46.1116090718509 ,48.4765287068195 ,64.4098706588064
21.4118742 ,Left ,46.1403982573253 ,48.4908233321441 ,64.4093393002917
21.4343836 ,Left ,46.1582507413062 ,48.495083299269 ,64.4042766417419
21.4719353 ,Left ,46.1239414145613 ,48.5092365165895 ,64.4039362021319
21.5093757 ,Left ,46.124831772668 ,48.533062110632 ,64.3827826375124
21.5317184 ,Left ,46.1585676609263 ,48.5372226573509 ,64.3702668507003
21.5691246 ,Left ,46.1536475706348 ,48.552001447368 ,64.3619300923374
21.5991677 ,Left ,46.1529273518022 ,48.5500828274829 ,64.3599317397959
21.6519415 ,Left ,46.1386044319188 ,48.5358404638431 ,64.3679562466612
21.6894086 ,Left ,46.1600757413678 ,48.507289191571 ,64.3612825635197
21.7119094 ,Left ,46.1530588736972 ,48.4935042272275 ,64.3639329992769
21.7493273 ,Left ,46.0971579221779 ,48.4801306507228 ,64.378646393825
21.7724771 ,Left ,46.0890599613691 ,48.4741572682201 ,64.3865160724803
21.8091596 ,Left ,46.0794386987006 ,48.4586791222482 ,64.4052356730761
21.8318658 ,Left ,46.0649061283385 ,48.4536558331649 ,64.4162776807763
21.8768799 ,Left ,46.0771019777294 ,48.4516843856026 ,64.4350431154048
21.8993366 ,Left ,46.0636679857965 ,48.4529339527606 ,64.4444769298599
21.9294031 ,Left ,46.0449707132931 ,48.4512355732466 ,64.4685964455018
21.9516862 ,Left ,46.0436790494571 ,48.4502103415542 ,64.4756754194617
21.9895508 ,Left ,46.0549112182482 ,48.451593956029 ,64.478654520574
22.0118651 ,Left ,46.077940691569 ,48.4534684233585 ,64.47555827913
22.0494163 ,Left ,46.0407144895379 ,48.4633682044791 ,64.4826498087943
22.0717515 ,Left ,46.0284535165815 ,48.4694359707088 ,64.4829518710171
22.1020199 ,Left ,46.0250855809872 ,48.4709379564524 ,64.4807900976902
22.1242825 ,Left ,46.0188880362468 ,48.4760385066675 ,64.4808478586828
22.1468981 ,Left ,46.0135973002047 ,48.4828814030549 ,64.4804959347749
22.169198 ,Left ,45.9834591280016 ,48.4898043020246 ,64.4890107203204
22.1842522 ,Left ,45.939500611014 ,48.4933471172625 ,64.5087420471088
22.2068101 ,Left ,45.9124491766839 ,48.4903517560317 ,64.5232775094226
22.229463 ,Left ,45.8943613948185 ,48.474338578986 ,64.5362924274668
22.244314 ,Left ,45.8683685770279 ,48.4554605797872 ,64.548573797383
22.2669888 ,Left ,45.8657216837331 ,48.4363867748971 ,64.565171314922
22.2893454 ,Left ,45.8793875995975 ,48.4042652925736 ,64.5728700614429
22.3042819 ,Left ,45.8718132741446 ,48.365744674746 ,64.5858354639249
22.3268391 ,Left ,45.8737066850314 ,48.3279566999601 ,64.6136681744621
22.3492084 ,Left ,45.9312397377442 ,48.2870452798467 ,64.6369972172579
22.3641786 ,Left ,46.0432001536128 ,48.2446851201469 ,64.6546729169538
22.3869044 ,Left ,46.1474933172262 ,48.2116706945045 ,64.6845926430304
22.409294 ,Left ,46.1344707376234 ,48.1980640174559 ,64.6815361093328
22.4242382 ,Left ,45.9831030878473 ,48.2280831709821 ,64.6313203717191
22.4467437 ,Left ,45.880991020646 ,48.2538353678022 ,64.5894644948886
22.4691958 ,Left ,45.9917263008559 ,48.2313970811713 ,64.5536490518809
22.484308 ,Left ,46.1283716540998 ,48.2019898947452 ,64.5075859276009
22.5068088 ,Left ,46.1604329517358 ,48.2207477649017 ,64.4987906242735
22.5293929 ,Left ,46.1076373352713 ,48.2639747769633 ,64.5197797567084
22.5443521 ,Left ,46.1069823181772 ,48.2958570275714 ,64.5305530429223
22.5667999 ,Left ,46.1388061264922 ,48.2980896082421 ,64.5091476574598
22.5892605 ,Left ,46.1676675895487 ,48.2790040091882 ,64.4781771370768
22.6065907 ,Left ,46.1619229502967 ,48.3010200578797 ,64.4518785626375
22.6269547 ,Left ,46.0519806540018 ,48.3225579060163 ,64.4413559359401
22.6492312 ,Left ,45.9546421919467 ,48.3317574533144 ,64.4383503928069
22.6643043 ,Left ,45.9945455738658 ,48.3141540173599 ,64.4319826973652
22.6867703 ,Left ,46.0851342564507 ,48.2818815224081 ,64.4133333949414
22.7094787 ,Left ,46.1180383660373 ,48.2588271435707 ,64.4064944551819
22.7243806 ,Left ,46.0812884574943 ,48.258311558988 ,64.4216189648998
22.746918 ,Left ,46.0435077192777 ,48.264909400225 ,64.438155841756
22.7691689 ,Left ,46.0304104639194 ,48.277878751979 ,64.4374872879006
22.7843979 ,Left ,45.9530976941977 ,48.336742190507 ,64.4353559560412
22.807468 ,Left ,45.8662672497083 ,48.4108543988967 ,64.4488826371354
22.829375 ,Left ,45.9129672379736 ,48.4412514121512 ,64.4763686157604
22.8442224 ,Left ,46.0329522466778 ,48.4251173677741 ,64.5000705723873
22.8668946 ,Left ,46.0957881595288 ,48.407423244948 ,64.5415701242952
22.8891606 ,Left ,46.0598430993351 ,48.4037357829568 ,64.613484333935
22.9042528 ,Left ,46.0009642129225 ,48.3982899423122 ,64.6863277598792
22.9267759 ,Left ,45.9518055324069 ,48.4048341290867 ,64.7060818420365
22.9493709 ,Left ,45.9125201234566 ,48.4263337749146 ,64.6855814536509
22.9643339 ,Left ,45.9750458622376 ,48.4415307010653 ,64.6631876116919
22.9868673 ,Left ,46.0143741476208 ,48.4777615269922 ,64.6491308286224
23.0092576 ,Left ,45.9382308234411 ,48.5132753283706 ,64.6302022373537
23.0242942 ,Left ,45.8364078750442 ,48.5593531636234 ,64.6147140572397
23.0469411 ,Left ,45.7999542402597 ,48.5849896687476 ,64.6061100714304
23.0692809 ,Left ,45.8788906399243 ,48.5596096340363 ,64.5664620834461
23.0919143 ,Left ,45.9886174532798 ,48.5177055125641 ,64.5083202660655
23.1067601 ,Left ,46.0274966717902 ,48.5075986212269 ,64.4446952130303
23.1293952 ,Left ,45.9836581447516 ,48.5201102785268 ,64.4041753577571
23.1443852 ,Left ,45.9636064951021 ,48.5269994979006 ,64.3794692964626
23.1667302 ,Left ,46.0181313943505 ,48.5269482894721 ,64.336695769497
23.190429 ,Left ,46.0811865461597 ,48.5151953113343 ,64.2817698216815
23.2042415 ,Left ,46.0939262967358 ,48.4963888781993 ,64.2393913116978
23.2269558 ,Left ,46.0540630716581 ,48.475279080725 ,64.2124256566188
23.2565905 ,Left ,45.9920261817766 ,48.4336207044954 ,64.1992618847975
23.2865141 ,Left ,45.9599573929901 ,48.3822204310719 ,64.1865008578485
23.3015383 ,Left ,45.9429200066356 ,48.3297119788166 ,64.1704485589196
23.316672 ,Left ,45.9288956019035 ,48.2980843607629 ,64.1596487117596
23.331624 ,Left ,45.8602088117 ,48.2962213746309 ,64.1463449378172
23.3466722 ,Left ,45.7944127107247 ,48.3457303287367 ,64.1157991431932
23.3691264 ,Left ,45.8626902737193 ,48.3664388188763 ,64.078716264719
23.3916006 ,Left ,46.0281868421278 ,48.3290789551888 ,64.0249229006679
23.4067398 ,Left ,46.1325176903173 ,48.2736083257668 ,63.9760407341565
23.429343 ,Left ,46.0823857160295 ,48.2366829033438 ,63.9588797498475
23.4516232 ,Left ,45.9952823928274 ,48.2352204985874 ,63.9781069308011
23.4668585 ,Left ,45.9419708059172 ,48.2304787059875 ,64.0087431446684
23.4892195 ,Left ,45.9610397410813 ,48.2098945428144 ,64.0393876423095
23.5118933 ,Left ,46.0232115343102 ,48.1781533121761 ,64.0806589062646
23.5269312 ,Left ,46.0394584702133 ,48.1600597690405 ,64.126590158466
23.5492492 ,Left ,45.9044740384904 ,48.1807912807911 ,64.180826908712
23.5717591 ,Left ,45.847633992408 ,48.2202865747936 ,64.2181706533073
23.5868112 ,Left ,45.9677286828235 ,48.2262797815337 ,64.2357283891997
23.6092125 ,Left ,46.1638718594055 ,48.204232999272 ,64.2465806980959
23.6317595 ,Left ,46.3031938414065 ,48.1920236606328 ,64.2651308798113
23.6468775 ,Left ,46.3357734156475 ,48.1899975786772 ,64.2942816220996
23.669377 ,Left ,46.3061159045592 ,48.1841534512834 ,64.3397291269693
23.6917313 ,Left ,46.3013874888685 ,48.1703193194522 ,64.3790763629501
23.7070048 ,Left ,46.3364545905941 ,48.1311692635598 ,64.3979771793864
23.7293918 ,Left ,46.3248045936776 ,48.0773798328261 ,64.4203079399119
23.7519293 ,Left ,46.287810706134 ,48.0466458600911 ,64.4399295334659
23.7667778 ,Left ,46.3180225978639 ,48.0226506815893 ,64.4335357954767
23.7892915 ,Left ,46.3818852988512 ,48.000999597625 ,64.4092642801684
23.8117021 ,Left ,46.3686718829044 ,47.9881553143097 ,64.41236286048
23.8268076 ,Left ,46.3002858032846 ,47.9750832937446 ,64.4401584386428
23.8493778 ,Left ,46.2166160325862 ,47.9471863811267 ,64.4609821714739
23.871743 ,Left ,46.1748996952505 ,47.9174727215499 ,64.4686365200199
23.886663 ,Left ,46.2397813838661 ,47.8873454897434 ,64.4563740558247
23.9093701 ,Left ,46.3082580164815 ,47.8784978879832 ,64.4294516263016
23.9317558 ,Left ,46.2686794495159 ,47.9053247237891 ,64.4171759782838
23.9469297 ,Left ,46.1764555344342 ,47.9682322864426 ,64.4300227434809
23.9691708 ,Left ,46.0808654194207 ,48.0308985974553 ,64.4693417629546
23.9918924 ,Left ,45.9903387526768 ,48.0829390460453 ,64.5309149350238
24.0146648 ,Left ,45.9656772053337 ,48.1147028562034 ,64.5770413368431
24.0292725 ,Left ,46.1020544559357 ,48.1219735722412 ,64.5417380836725
24.0518187 ,Left ,46.2910481488262 ,48.0839241063068 ,64.4579015407626
24.0742414 ,Left ,46.3733585952504 ,48.0449828293302 ,64.3885864799216
24.0891838 ,Left ,46.2883206328974 ,48.0417551574145 ,64.3600043890404
24.1118715 ,Left ,46.082548459817 ,48.0723652181608 ,64.3366907018417
24.134288 ,Left ,45.8605613859611 ,48.1228548154199 ,64.3298517191167
24.1493987 ,Left ,45.74946335112 ,48.1590843400892 ,64.3352707247418
24.1723603 ,Left ,45.7662097186133 ,48.1706502060459 ,64.3334620314481
24.1943582 ,Left ,45.8778829597484 ,48.172426857714 ,64.3152090097302
24.2092573 ,Left ,46.0428346965629 ,48.1656126938712 ,64.2685908102282
24.2317369 ,Left ,46.1524483076879 ,48.1449578059715 ,64.2091657813482
24.2547243 ,Left ,46.1031920043212 ,48.1228533825088 ,64.1685614670484
24.2692301 ,Left ,45.9565201331502 ,48.1134162564645 ,64.1437555872916
24.2918888 ,Left ,45.8265724574363 ,48.1093921787515 ,64.1278615353921
24.3141963 ,Left ,45.7573764773728 ,48.1095846856927 ,64.1101000069047
24.3294411 ,Left ,45.7838823539542 ,48.0979489799428 ,64.0955607566064
24.3593596 ,Left ,45.8728980472599 ,48.0759821387828 ,64.0777514252993
24.3815466 ,Left ,45.9187212333019 ,48.059742062198 ,64.0638772937945
24.3968619 ,Left ,45.9052590126366 ,48.0521735300817 ,64.0558540312414
24.434198 ,Left ,45.8390264427354 ,48.0472479104132 ,64.0475809966788
24.4493552 ,Left ,45.8100099846199 ,48.04576637649 ,64.0491107336493
24.4719527 ,Left ,45.8250395339643 ,48.0498576388547 ,64.048407824019
24.4943661 ,Left ,45.858321188593 ,48.0516479659569 ,64.0485456694355
24.5091847 ,Left ,45.8897676620289 ,48.0546401523826 ,64.0507083399844
24.5318277 ,Left ,45.8899646071766 ,48.0533811605882 ,64.0618537322965
24.5542077 ,Left ,45.8594135519277 ,48.0597468408511 ,64.0712536724308
24.5693714 ,Left ,45.821172073515 ,48.0633350818219 ,64.0795297309905
24.5993632 ,Left ,45.8006553007709 ,48.0585693754275 ,64.086975730581
24.6216424 ,Left ,45.8057620404176 ,48.0480450642089 ,64.0923254699483
24.6367362 ,Left ,45.8061854096907 ,48.0342968153908 ,64.0880140811157
24.6516644 ,Left ,45.7687288434957 ,48.0114547589075 ,64.0575345007743
24.6743378 ,Left ,45.7178146703115 ,47.9828884419316 ,63.9756198642134
24.6892462 ,Left ,45.6045067774713 ,47.9590639422937 ,63.8943955291546
24.7118328 ,Left ,45.4754630051089 ,47.9420222765959 ,63.8777525005053
24.734282 ,Left ,45.396336724667 ,47.9046965086753 ,63.9012067206154
24.749332 ,Left ,45.360545617843 ,47.8632926931922 ,63.9087798437637
24.771781 ,Left ,45.3375821957749 ,47.8225351800413 ,63.9193290457747
24.7943164 ,Left ,45.3152171148487 ,47.7796957086676 ,63.949373783893
24.8092301 ,Left ,45.293581495284 ,47.7507727524887 ,63.9899765055601
24.8317012 ,Left ,45.3046137479954 ,47.7291487383678 ,64.0380706164122
24.8544297 ,Left ,45.3328682137081 ,47.7090712090121 ,64.0918888047424
24.869364 ,Left ,45.3830808633963 ,47.7026599952642 ,64.1443460073739
24.8916932 ,Left ,45.5314511365633 ,47.6916339043979 ,64.1774167582224
24.9217992 ,Left ,45.7028061818832 ,47.6521251218995 ,64.1955061145804
24.9443097 ,Left ,45.8168948008642 ,47.6168206858535 ,64.2029246152126
24.9590701 ,Left ,45.8316570268631 ,47.5995651916788 ,64.2079181745904
24.9743061 ,Left ,45.8401143709361 ,47.6085782720383 ,64.2100003644109
24.9967391 ,Left ,45.8233722123002 ,47.6231362877995 ,64.2097080195504
25.0124155 ,Left ,45.7411683849642 ,47.6494668304862 ,64.2381568748537
25.0343563 ,Left ,45.6342757669071 ,47.7126815307237 ,64.2768805847792
25.0492236 ,Left ,45.686891793884 ,47.7684969095349 ,64.3142637957546
25.0718761 ,Left ,45.8958502636104 ,47.7776919117042 ,64.3284619445657
25.0943237 ,Left ,46.0357707115548 ,47.7706897193704 ,64.3113787983715
25.1168752 ,Left ,46.0603086099773 ,47.7656480252896 ,64.2871862527311
25.1318145 ,Left ,46.1137799913539 ,47.7480524178857 ,64.2265505960365
25.1544122 ,Left ,46.1560466669594 ,47.700930415458 ,64.14192937166
25.1767839 ,Left ,46.0676914221793 ,47.6637266524665 ,64.0684874094286
25.1993365 ,Left ,45.9115774092164 ,47.6522704185085 ,64.0303599135685
25.221756 ,Left ,45.8185981126361 ,47.6394676147859 ,64.0170609895417
25.2518354 ,Left ,45.7726671090138 ,47.5422991556193 ,63.9661271016052
25.2742327 ,Left ,45.8972648734656 ,47.4121551056635 ,63.9598155351788
25.2967374 ,Left ,46.2291205372729 ,47.3225965147193 ,63.9059987398448
25.3117711 ,Left ,46.4747699398384 ,47.2886101023018 ,63.8839251422208
25.3342909 ,Left ,46.4468495891633 ,47.301151807523 ,63.8792836862359
25.3568921 ,Left ,46.2951640206281 ,47.331601265857 ,63.8803754322393
25.3718321 ,Left ,46.144138802736 ,47.3744566592529 ,63.9030886226099
25.394268 ,Left ,46.0087026120551 ,47.4480445650489 ,63.9337702983453
25.4169013 ,Left ,45.9100599685488 ,47.5464540974178 ,63.9396980135174
25.4317912 ,Left ,45.8431366015116 ,47.6291366357034 ,63.9591194495403
25.4542429 ,Left ,45.8308167701325 ,47.686401534619 ,63.9967773283802
25.4841764 ,Left ,45.9288091174425 ,47.7045515496047 ,64.0241434263061
25.4993629 ,Left ,46.0095322952621 ,47.7133982610915 ,64.0506560679317
25.523132 ,Left ,46.0376232554301 ,47.7212509576563 ,64.1128157874397
25.5367817 ,Left ,46.0723784902043 ,47.7045146438778 ,64.1826315303344
25.551839 ,Left ,46.1520580772424 ,47.6837891503378 ,64.2253411297529
25.5742522 ,Left ,46.1517931338017 ,47.6691608881954 ,64.2556991099146
25.596781 ,Left ,46.152267684123 ,47.6745816659985 ,64.2723643514195
25.6117329 ,Left ,46.1644643915603 ,47.6517848968902 ,64.2762934333
25.6341519 ,Left ,46.0549484586872 ,47.6441241530135 ,64.2727780320294
25.6567618 ,Left ,45.8527988595702 ,47.691581055856 ,64.270444404374
25.6717801 ,Left ,45.706054553171 ,47.7629672131742 ,64.2650126078642
25.6942542 ,Left ,45.6949063187606 ,47.8175184004495 ,64.2552695054711
25.7168139 ,Left ,45.7883959649791 ,47.8314403825106 ,64.2230685704008
25.7318579 ,Left ,45.9105869431552 ,47.8255631454027 ,64.1952688842597
25.7542688 ,Left ,45.9523158817333 ,47.8381100991224 ,64.1876544413221
25.7768776 ,Left ,45.9761944676613 ,47.8632165917028 ,64.1807637313901
25.7917231 ,Left ,45.9888818810162 ,47.8679383807222 ,64.1329876982552
25.8143702 ,Left ,46.0188291119504 ,47.8552160882768 ,64.0531648235125
25.8366937 ,Left ,45.9987936062083 ,47.8235338176902 ,63.989554952939
25.8517054 ,Left ,45.9433733242179 ,47.7896183768041 ,63.9588784857367
25.8741913 ,Left ,45.9224441234072 ,47.7712189045488 ,63.9361369607898
25.8969818 ,Left ,45.9638784055896 ,47.761130906835 ,63.8959941927332
25.9192113 ,Left ,45.9605925225229 ,47.7472180504937 ,63.8705358367485
25.9343005 ,Left ,45.8857296728524 ,47.7440542010953 ,63.8872146419422
25.9568622 ,Left ,45.8469527937068 ,47.7469408848676 ,63.9135376930531
25.9717834 ,Left ,45.8898435188935 ,47.7243511230744 ,63.8834516271056
25.9869013 ,Left ,45.8081273644473 ,47.6799019768328 ,63.8691962914746
26.0092013 ,Left ,45.5624068173988 ,47.6858459378254 ,63.8713525700293
26.0543457 ,Left ,45.6143397494607 ,47.7769686489241 ,63.8056494769462
26.1067991 ,Left ,46.1196679444753 ,47.8177695378803 ,63.7271022412492
26.1292411 ,Left ,46.0319858747021 ,47.9409947388672 ,63.8764409433697
26.1667075 ,Left ,46.5252061758304 ,48.0434226506426 ,64.0014475763183
26.1892317 ,Left ,46.7153110569603 ,48.0626896214869 ,64.0233548749009
26.2268734 ,Left ,46.3460712550137 ,48.2000690975996 ,64.1683239963384
26.2492338 ,Left ,46.0811671438455 ,48.3246650052036 ,64.2294853545132
26.2868041 ,Left ,46.3568471942934 ,48.4799265938797 ,64.2385605856722
26.3168387 ,Left ,46.6724065065119 ,48.4821809732946 ,64.2106488671395
26.3690233 ,Left ,46.7151404902637 ,48.5226395812849 ,64.26182160015
26.4067508 ,Left ,46.4232497690488 ,48.4863850562078 ,64.3192708391033
26.4293516 ,Left ,46.4030451100088 ,48.4508512163684 ,64.3262946134043
26.4666811 ,Left ,46.5648955829171 ,48.4342962000894 ,64.2752479170639
26.4892815 ,Left ,46.6020850657501 ,48.4590370121595 ,64.2616067678779
26.5268857 ,Left ,46.5213568332596 ,48.5216206238157 ,64.289807300075
26.5492234 ,Left ,46.4950402325183 ,48.5301160379093 ,64.2910181254226
26.6018613 ,Left ,46.5365343308939 ,48.4905974903526 ,64.2688683032566
26.6240568 ,Left ,46.5543565122119 ,48.4611605079981 ,64.2512001433861
26.6692976 ,Left ,46.5129087006024 ,48.3958450092841 ,64.1992314516361
26.7091822 ,Left ,46.6802138279481 ,48.3618933876733 ,64.1154715211438
26.7292283 ,Left ,46.7091188518422 ,48.3065963631314 ,64.0805500405628
26.7667757 ,Left ,46.6002551731132 ,48.1422244702 ,64.1006104196497
26.7893335 ,Left ,46.4028066961867 ,48.0772677885066 ,64.1379994814792
26.826894 ,Left ,46.1900655273394 ,48.052447243128 ,64.1533350439538
26.8567975 ,Left ,46.2443584527557 ,48.0450380290573 ,64.1397241333732
26.8942588 ,Left ,46.3603940966753 ,48.0648827161358 ,64.1165486524385
26.9091466 ,Left ,46.4146271272542 ,48.0662575925149 ,64.1017805253811
26.9466182 ,Left ,46.4585957870432 ,48.0114659929694 ,64.0545175256907
26.9693272 ,Left ,46.4146159581946 ,47.9857129838741 ,64.0483379313384
27.0066425 ,Left ,46.2744498290478 ,47.951632978436 ,64.0547116997365
27.0293016 ,Left ,46.2361573362269 ,47.947487943665 ,64.051197635308
27.0669935 ,Left ,46.2881045497254 ,47.9715958510434 ,64.0565277420518
27.0900873 ,Left ,46.2899763045138 ,47.9901944181372 ,64.079411112298
27.1343767 ,Left ,46.2381099643668 ,48.0339567467237 ,64.1291122781851
27.1571387 ,Left ,46.2660110560819 ,48.0507815391462 ,64.1446417538191
27.1868253 ,Left ,46.3787642982531 ,48.0762135160505 ,64.1736211174162
27.2091255 ,Left ,46.4222670573074 ,48.0857729705711 ,64.1930422185077
27.2466171 ,Left ,46.4803986782282 ,48.1165388725441 ,64.2124174113093
27.2693538 ,Left ,46.4928405863362 ,48.1479421580881 ,64.2177588902968
27.3068224 ,Left ,46.5511197514421 ,48.2116259449214 ,64.2439492900575
27.3290731 ,Left ,46.5835096514249 ,48.2278932159916 ,64.2576460555282
27.3668884 ,Left ,46.5630050841306 ,48.238559894707 ,64.2952159634454
27.4191404 ,Left ,46.4721813530248 ,48.2522315305914 ,64.3550025384699
27.4418369 ,Left ,46.4483879741701 ,48.2642568942543 ,64.3886077126291
27.4865152 ,Left ,46.230518687666 ,48.2440083039331 ,64.5001627953769
27.5244434 ,Left ,46.2469841311648 ,48.2346301395532 ,64.5826165496621
27.5466498 ,Left ,46.2419157688602 ,48.2226333187922 ,64.6128073366509
27.5843299 ,Left ,46.25802745191 ,48.1693138824786 ,64.6953523285469
27.6067488 ,Left ,46.2973912707052 ,48.1459321419946 ,64.7247349029311
27.6442686 ,Left ,46.4367794432353 ,48.0933870940644 ,64.7619425579472
27.6665873 ,Left ,46.5345770060686 ,48.0648465192639 ,64.7918513152269
27.7042375 ,Left ,46.5320149594891 ,47.9589333811953 ,64.7106596218541
27.726861 ,Left ,46.3421506005028 ,47.9132468665608 ,64.6486588594594
27.749267 ,Left ,46.2454279891266 ,47.8459103596021 ,64.5948874389455
27.7866801 ,Left ,46.2665328503093 ,47.7734588428631 ,64.4527006450553
27.8094089 ,Left ,46.3250047449127 ,47.7807519566884 ,64.431174095282
27.8468933 ,Left ,46.1768869649868 ,47.8253074764882 ,64.4018903307034
27.8619197 ,Left ,46.0625527441939 ,47.8515609955359 ,64.3777119289159
27.8843493 ,Left ,46.0478040110395 ,47.8377445893596 ,64.3379107123015
27.8993514 ,Left ,46.1049446383777 ,47.8025220603825 ,64.2993698166426
27.9217729 ,Left ,46.0789203635337 ,47.7651590527944 ,64.2588640370859
27.9442992 ,Left ,45.9437178090997 ,47.7698379164285 ,64.2323428572992
27.966916 ,Left ,45.888618606706 ,47.779981774317 ,64.2272029268478
27.9892649 ,Left ,45.9783387885632 ,47.7685060109035 ,64.227838854414
28.0118392 ,Left ,46.1003232715059 ,47.7362678072985 ,64.2193212940271
28.0269869 ,Left ,46.1587903732293 ,47.7113635589779 ,64.2266068014741
28.0423725 ,Left ,46.1653422870135 ,47.7195704320276 ,64.2571154693583
28.0642921 ,Left ,46.0893796411664 ,47.7365645250889 ,64.2880411028145
28.0792447 ,Left ,46.0618656311973 ,47.7758732083503 ,64.3138602961988
28.1018539 ,Left ,45.9694306759036 ,47.8334892004683 ,64.3403406228857
28.1242408 ,Left ,45.7972395471899 ,47.8978091320801 ,64.3369638746434
28.1392608 ,Left ,45.6762947031452 ,47.9451387973237 ,64.3426545723003
28.1617618 ,Left ,45.7060427246679 ,47.9738341520764 ,64.3559530536717
28.1842184 ,Left ,45.8281541532756 ,47.9697706787505 ,64.3712339956092
28.1993958 ,Left ,45.9478984078413 ,47.9618390503524 ,64.4075563393729
28.2217135 ,Left ,45.9877066918704 ,47.9582254554721 ,64.4744525405473
28.2443434 ,Left ,46.0164989000214 ,47.963747790199 ,64.544469444883
28.2593483 ,Left ,46.1093696613881 ,47.985190731129 ,64.5487705219189
28.2817003 ,Left ,46.2980273723781 ,48.0089289818614 ,64.4897593005213
28.3043409 ,Left ,46.6418709728889 ,47.990742707762 ,64.4262028191766
28.3192126 ,Left ,46.8989920303537 ,47.9842332421749 ,64.3873307274249
28.3418348 ,Left ,46.8890910793232 ,48.0360448210227 ,64.3730338716081
28.3642406 ,Left ,46.754184427198 ,48.134244065703 ,64.3813868546453
28.3792421 ,Left ,46.6860839741302 ,48.2305386027953 ,64.3846646444773
28.401675 ,Left ,46.8136365360403 ,48.274516764953 ,64.3658097728375
28.4242938 ,Left ,47.0370650294006 ,48.2462845078299 ,64.3119890860802
28.4393154 ,Left ,47.1461554359828 ,48.2273388609706 ,64.2536379668123
28.4618122 ,Left ,47.0551112181401 ,48.2457125671198 ,64.2366701391759
28.4842807 ,Left ,46.9183973960597 ,48.2588320345772 ,64.2401561081091
28.4993815 ,Left ,46.8471091052961 ,48.2447316489076 ,64.2359766827093
28.5218906 ,Left ,46.8377662072553 ,48.2173180973821 ,64.2190750173251
28.5441759 ,Left ,46.8235461953549 ,48.1842603939196 ,64.1817031580075
28.5593825 ,Left ,46.7769666792746 ,48.1474358364465 ,64.1478443627663
28.5817959 ,Left ,46.6903017675769 ,48.1191287173706 ,64.1241150502777
28.604165 ,Left ,46.5873137035095 ,48.0858324529492 ,64.1099604822215
28.619183 ,Left ,46.5048897717306 ,48.0610222570629 ,64.1029998667187
28.641892 ,Left ,46.4393803881377 ,48.0345243239322 ,64.092250130746
28.6643589 ,Left ,46.3893273969724 ,48.0180492211678 ,64.0830890481079
28.6794527 ,Left ,46.3885438716731 ,48.0199241227593 ,64.0790814081048
28.7018004 ,Left ,46.4587321019545 ,48.0060185510974 ,64.0682117509565
28.7243542 ,Left ,46.4556650201055 ,48.0153543527381 ,64.0586149724236
28.7399234 ,Left ,46.3925323106108 ,48.0035705917235 ,64.0330246702688
28.7617362 ,Left ,46.3358363009191 ,47.9722172666534 ,64.0207305916553
28.7843321 ,Left ,46.3124324173311 ,47.9443980284673 ,63.9968926137452
28.7993546 ,Left ,46.2996538978348 ,47.9244225996339 ,63.9521616172144
28.8216518 ,Left ,46.2535873283185 ,47.9353571781419 ,63.9297773152089
28.8443049 ,Left ,46.2038275570287 ,47.9541020451192 ,63.9332518563433
28.8597316 ,Left ,46.1691229550585 ,47.9791379864865 ,63.961905560437
28.8818768 ,Left ,46.1754968046007 ,48.0048417867828 ,64.0108887718811
28.9041826 ,Left ,46.1567839971685 ,48.0127005386003 ,64.0724232400453
28.9268726 ,Left ,46.0789799555647 ,48.0330032113553 ,64.135253859508
28.9417087 ,Left ,45.9230926444723 ,48.0811006532621 ,64.1659526385541
28.9643383 ,Left ,45.8490643163004 ,48.1497844080011 ,64.1746669397221
28.9868337 ,Left ,45.9422299188629 ,48.1955322360386 ,64.1782944897613
29.0018103 ,Left ,46.0869521184655 ,48.2160584713991 ,64.1737141167994
29.0241988 ,Left ,46.1669977478103 ,48.244282824696 ,64.1798460282837
29.0467818 ,Left ,46.1114256972467 ,48.2933825446622 ,64.2110464414942
29.0617171 ,Left ,46.0056634172542 ,48.3461094577725 ,64.2609071747321
29.0843044 ,Left ,45.9510784392959 ,48.3846059799871 ,64.2956324512649
29.1072216 ,Left ,45.9856990337808 ,48.3950531450919 ,64.3032387441361
29.1217001 ,Left ,46.0634059557011 ,48.4004893246518 ,64.2916087219547
29.1442529 ,Left ,46.1499971935845 ,48.4010978618956 ,64.2758225729815
29.1668468 ,Left ,46.2092391942869 ,48.4045198569982 ,64.2645682005439
29.1816659 ,Left ,46.2315688967637 ,48.4082556858707 ,64.2551282272764
29.2040856 ,Left ,46.2141315959162 ,48.4118746377637 ,64.2522001557524
29.2267967 ,Left ,46.180607853567 ,48.419679171315 ,64.2566180543078
29.2416987 ,Left ,46.148670089207 ,48.4225055407628 ,64.2640011775649
29.2641191 ,Left ,46.143293600568 ,48.4166949723565 ,64.2675938621247
29.2867955 ,Left ,46.15107680675 ,48.4026775926598 ,64.273033191005
29.3018045 ,Left ,46.1476681069329 ,48.3911814867543 ,64.272944797111
29.3241163 ,Left ,46.1362532823167 ,48.3855771623462 ,64.2730539268079
29.3542747 ,Left ,46.1261043586229 ,48.3813801046181 ,64.267992093791
29.3692431 ,Left ,46.1384229604179 ,48.3750300699561 ,64.2658031218621
29.391657 ,Left ,46.1350253635952 ,48.3678596410085 ,64.2650386886758
29.4215817 ,Left ,46.1126532693366 ,48.3688430868906 ,64.2757503558801
29.4443306 ,Left ,46.1361471463145 ,48.3646592859912 ,64.2802503669062
29.466783 ,Left ,46.1639052018204 ,48.3607260735671 ,64.2865033829289
29.481698 ,Left ,46.171871258674 ,48.3711217963912 ,64.2995249371447
29.5043406 ,Left ,46.1862603879681 ,48.3805998485121 ,64.3094137183886
29.5268249 ,Left ,46.2174101549298 ,48.383788551571 ,64.316506493105
29.5418854 ,Left ,46.2504969388417 ,48.381634944523 ,64.3218008545394
29.5642131 ,Left ,46.2636324680182 ,48.3733933202838 ,64.3236507305568
29.586733 ,Left ,46.2519953719279 ,48.3639973202725 ,64.3286580378868
29.6016816 ,Left ,46.2317252823907 ,48.3461547624371 ,64.3352828602267
29.6241671 ,Left ,46.2200012065151 ,48.3284591641803 ,64.3435738584526
29.6466779 ,Left ,46.2178890161998 ,48.3081571521568 ,64.3514021621828
29.6618751 ,Left ,46.1996986353555 ,48.2749677618799 ,64.3689178491135
29.6843775 ,Left ,46.0399396306674 ,48.2423985112549 ,64.3919557885014
29.7067795 ,Left ,45.6352278720089 ,48.2506380546256 ,64.4101904554682
29.7292156 ,Left ,45.1550660052228 ,48.3095860325566 ,64.457784092966
29.744333 ,Left ,44.8492757790526 ,48.3758775826719 ,64.5093766609188
29.7666977 ,Left ,44.8079687641331 ,48.4207739515123 ,64.5279217304211
29.7904334 ,Left ,44.9725084852266 ,48.4357133136868 ,64.5130086831852
29.8042899 ,Left ,45.2167023056845 ,48.4418291726875 ,64.4879849864579
29.8267257 ,Left ,45.3998957480479 ,48.4533573832445 ,64.481383052991
29.8493523 ,Left ,45.4485480315885 ,48.4663493994865 ,64.4930502418344
29.8641949 ,Left ,45.3974265826514 ,48.4737035139281 ,64.5133031342782
29.886652 ,Left ,45.3310347348243 ,48.4750666790894 ,64.5270659019229
29.9167995 ,Left ,45.3096232892999 ,48.4728180402332 ,64.5323542053398
29.9318024 ,Left ,45.3574250770571 ,48.4616617128636 ,64.5243010381675
29.9543762 ,Left ,45.4268979441794 ,48.443328194906 ,64.5059447950047
29.969306 ,Left ,45.4790936784443 ,48.4105045058669 ,64.4987611834226
29.9845465 ,Left ,45.5058549016575 ,48.379656408056 ,64.4938295963402
30.0073665 ,Left ,45.5270247776342 ,48.364678478544 ,64.4917080972675
30.0293472 ,Left ,45.5270247776342 ,48.364678478544 ,64.4917080972675
30.0442913 ,Left ,45.5514587387165 ,48.3704902553401 ,64.5118754132131
30.0666907 ,Left ,45.6435606997123 ,48.3765153001633 ,64.5325527894466
30.0894524 ,Left ,45.804186814134 ,48.3746826003263 ,64.5491515590505
30.1041791 ,Left ,45.9805363553628 ,48.3657612445976 ,64.5690836622256
30.1268902 ,Left ,46.1191259398343 ,48.3448841999404 ,64.6003888827703
30.1492085 ,Left ,46.2267476335375 ,48.3026448272705 ,64.6185902347044
30.1642859 ,Left ,46.1652029660308 ,48.2601465164037 ,64.5900152624751
30.1867436 ,Left ,45.8900863666861 ,48.2318966547428 ,64.5676977735788
30.2092735 ,Left ,45.6519668811669 ,48.2012299329192 ,64.5537043279473
30.2242212 ,Left ,45.6388263676232 ,48.1230652143589 ,64.5222304901728
30.246915 ,Left ,45.8105261106822 ,48.0305574443252 ,64.4550457747704
30.2692253 ,Left ,45.949661014492 ,47.9837590373767 ,64.3928694055627
30.284333 ,Left ,45.9917096485284 ,47.9621597063589 ,64.3539401278535
30.3070407 ,Left ,45.9144634219627 ,47.9519598785367 ,64.3412341945039
30.3293995 ,Left ,45.7852316857194 ,47.9502063972685 ,64.3428904952824
30.3442925 ,Left ,45.7726624854806 ,47.9218024790257 ,64.3491562807596
30.3668976 ,Left ,45.7602864221726 ,47.8936428773581 ,64.3381021691803
30.3893549 ,Left ,45.7268929555353 ,47.8754520281127 ,64.3259139440431
30.4042432 ,Left ,45.7603440582947 ,47.8856254068771 ,64.3242048538307
30.42693 ,Left ,45.8528630019816 ,47.8991462552302 ,64.3318603613447
30.4493098 ,Left ,45.9418588516079 ,47.9101350299568 ,64.3403495829412
30.4642896 ,Left ,45.9683427821482 ,47.935159265662 ,64.3652855264394
30.4943599 ,Left ,45.9475127476554 ,47.9636963807426 ,64.4005792138335
30.5168726 ,Left ,45.9342225432217 ,47.9970382445525 ,64.4295411269552
30.5318127 ,Left ,45.9046794036862 ,48.0388770199558 ,64.4658757243619
30.5468579 ,Left ,45.9329359651425 ,48.0789872640876 ,64.5213312166554
30.5692526 ,Left ,45.836315873968 ,48.1340451465575 ,64.5376085501774
30.5843323 ,Left ,45.635993243534 ,48.2135227181334 ,64.5559847482992
30.6067356 ,Left ,45.5448365333874 ,48.3057308146169 ,64.5888150143148
30.6293457 ,Left ,45.6118666481709 ,48.3691303711139 ,64.6030564013106
30.6516485 ,Left ,45.7357326058982 ,48.3987313944414 ,64.6032961513524
30.6669191 ,Left ,45.8485992397415 ,48.4257801487492 ,64.592689769873
30.6891476 ,Left ,45.8889576129708 ,48.4546320763202 ,64.5944240739125
30.7117412 ,Left ,45.8729572264281 ,48.4583473228138 ,64.6174355747753
30.7269814 ,Left ,45.8723483379294 ,48.4418582453431 ,64.6463817041254
30.7493342 ,Left ,45.8556290521094 ,48.4081658277481 ,64.6642360617262
30.7642785 ,Left ,45.8269949357502 ,48.3883238069605 ,64.6748436153642
30.7868417 ,Left ,45.8481340757975 ,48.3771695836711 ,64.6701184305932
30.8092303 ,Left ,45.8137264945944 ,48.3757463436635 ,64.6219067618245
30.8318427 ,Left ,45.7754588365389 ,48.4034406964771 ,64.5630880869451
30.8466344 ,Left ,45.7973181165621 ,48.4227943953387 ,64.5135623727115
30.8693717 ,Left ,45.8473859697411 ,48.422752449492 ,64.4559397399196
30.8916587 ,Left ,45.9284099278679 ,48.4102484017948 ,64.3964892275149
30.9067619 ,Left ,45.9916526011766 ,48.3899658826676 ,64.3444733011289
30.9297457 ,Left ,46.0252776787076 ,48.3826691993029 ,64.3028733473293
30.9518802 ,Left ,46.0022717010553 ,48.3772961727294 ,64.271618396642
30.9668014 ,Left ,45.9761565805743 ,48.3677293488608 ,64.2501639880543
30.9893519 ,Left ,46.0061730703111 ,48.3546155308144 ,64.2158798007772
31.0267201 ,Left ,45.9996803811668 ,48.3402705275933 ,64.1732694420075
31.041755 ,Left ,45.946666516448 ,48.3188213125633 ,64.1482726231051
31.0642301 ,Left ,45.9317538563867 ,48.2987868057641 ,64.1376005341274
31.086649 ,Left ,45.9271306393935 ,48.2532647693242 ,64.1191997478079
31.1093593 ,Left ,45.9183525660228 ,48.2315993209817 ,64.1237025493644
31.1317343 ,Left ,45.9166431734899 ,48.1944452291762 ,64.1336384564299
31.1466665 ,Left ,45.8922656222333 ,48.1576664878229 ,64.1532229644702
31.1693706 ,Left ,45.7428757693742 ,48.1537663334226 ,64.1547246580898
31.1917619 ,Left ,45.5220967566023 ,48.1557333765305 ,64.1596652146322
31.2068643 ,Left ,45.3541757373958 ,48.1533779832139 ,64.1403998425059
31.2293789 ,Left ,45.3244382788242 ,48.162514128161 ,64.1359890277961
31.2517741 ,Left ,45.4074490835527 ,48.1625767996939 ,64.1317602440829
31.2666775 ,Left ,45.5567431746236 ,48.1293187605601 ,64.1100911859692
31.2968559 ,Left ,45.6995841639328 ,48.0776564791581 ,64.0682252903965
31.3191925 ,Left ,45.7283522115503 ,48.0590986149613 ,64.0612135690018
31.3342582 ,Left ,45.6155799078047 ,48.0800956240722 ,64.0913780735172
31.3568235 ,Left ,45.5009405579678 ,48.1058816249892 ,64.1364406270042
31.371855 ,Left ,45.5580005370563 ,48.1328571179524 ,64.1656608713203
31.3869839 ,Left ,45.7417409551039 ,48.1223060093717 ,64.1815315612531
31.4094214 ,Left ,45.8023213239224 ,48.1211205042286 ,64.2132998479778
31.4319284 ,Left ,45.7316774741506 ,48.1916989118481 ,64.2733169289163
31.4468656 ,Left ,45.6684276509107 ,48.2843074160677 ,64.3441527074733
31.4691795 ,Left ,45.6992856090584 ,48.3528008112153 ,64.3667134621592
31.4918166 ,Left ,45.8753699046111 ,48.3635092781777 ,64.355458455308
31.5071173 ,Left ,46.1207966496957 ,48.3522316653251 ,64.3251803129463
31.5292811 ,Left ,46.2277578457442 ,48.3285574151754 ,64.2930721115802
31.5516787 ,Left ,46.1706173585445 ,48.3198018553821 ,64.2810523136157
31.5742521 ,Left ,46.0785996414439 ,48.3268101118396 ,64.2812353159343
31.5893519 ,Left ,46.0202887813063 ,48.3460808442932 ,64.2851340233057
31.612063 ,Left ,46.0161025391869 ,48.3627469328314 ,64.2787011220366
31.6269651 ,Left ,46.0488861416826 ,48.3830776785868 ,64.2677574929544
31.6493634 ,Left ,46.1062543969729 ,48.404805883953 ,64.2560477655318
31.6718768 ,Left ,46.1492610673905 ,48.4256030737694 ,64.2524213874395
31.6868093 ,Left ,46.1489026249063 ,48.4302716629863 ,64.2565099153675
31.7091904 ,Left ,46.0914639441758 ,48.4343064474871 ,64.2644355420283
31.7318795 ,Left ,46.0386888136195 ,48.4508819554205 ,64.2654373737445
31.7393544 ,Left ,46.0042818639956 ,48.4742559051135 ,64.2675349296702
31.7615531 ,Left ,45.994629858616 ,48.4888723396444 ,64.2818727798291
31.7843582 ,Left ,46.0152772880012 ,48.4847073905269 ,64.2930430600522
31.7993345 ,Left ,46.0243320895622 ,48.4837580081891 ,64.3053335555008
31.8218131 ,Left ,46.0229329604966 ,48.5002111014182 ,64.3119913082351
31.8440538 ,Left ,46.0229722127268 ,48.5131825502808 ,64.3099116311431
31.8592447 ,Left ,46.034915082086 ,48.5169201928759 ,64.3167466627764
31.8818213 ,Left ,46.0379263896617 ,48.5212139204176 ,64.3286001356266
31.9043436 ,Left ,46.0415094207307 ,48.5362549920666 ,64.3434554174638
31.9190404 ,Left ,46.0493981546571 ,48.5558726777436 ,64.3593987262661
31.9418512 ,Left ,46.0791883921489 ,48.5675694370071 ,64.3783925850373
31.9642079 ,Left ,46.1284948448155 ,48.5610273585644 ,64.3956841709278
31.9791305 ,Left ,46.1631131188874 ,48.5412010313123 ,64.4079478570094
32.0015306 ,Left ,46.1585323274215 ,48.5198556550511 ,64.4138195031304
32.0243561 ,Left ,46.1482503221888 ,48.4937210125324 ,64.4101952370373
32.039364 ,Left ,46.1356261867177 ,48.4620007728579 ,64.4030222754023
32.0617586 ,Left ,46.1258847062108 ,48.4306505874242 ,64.3911148124801
32.0841809 ,Left ,46.1019071401461 ,48.4016371531253 ,64.3808980807663
32.0991824 ,Left ,46.0734662145207 ,48.3822741879718 ,64.3756325439735
32.1291876 ,Left ,46.045970204051 ,48.3591751247737 ,64.3843326109636
32.1518347 ,Left ,46.0368443379182 ,48.3381216771714 ,64.3929506748147
32.1667387 ,Left ,46.0411488718463 ,48.3212591235993 ,64.3970161616286
32.1818931 ,Left ,46.0522597964387 ,48.3049873786037 ,64.4009125255646
32.2042248 ,Left ,46.066034737213 ,48.2946912302188 ,64.407306858848
32.2418316 ,Left ,46.0411407888669 ,48.2939312804422 ,64.4317895154961
32.2643616 ,Left ,46.0759853855103 ,48.2865402906363 ,64.4374796363956
32.3016499 ,Left ,46.3009662444389 ,48.2296277390578 ,64.4292526154085
32.3245049 ,Left ,46.495424119043 ,48.159734587036 ,64.402354801439
32.3618354 ,Left ,46.7824027374029 ,48.1659697341108 ,64.343738476369
32.3840478 ,Left ,46.7592145170027 ,48.1870841987723 ,64.3327712703229
32.4217138 ,Left ,46.6686106039987 ,48.2337500848559 ,64.3189696583847
32.4443077 ,Left ,46.5908016275423 ,48.2627873732785 ,64.3280555432509
32.4818049 ,Left ,46.4749726043255 ,48.2996714762466 ,64.3632510148921
32.504072 ,Left ,46.4081857571398 ,48.321931887614 ,64.3997806779355
32.5415831 ,Left ,46.2667735575251 ,48.3834519481334 ,64.5413026805371
32.5643664 ,Left ,46.2572964225458 ,48.4086859077416 ,64.6240629395053
32.6016609 ,Left ,46.4052924025933 ,48.4308255119894 ,64.7510060329175
32.6241057 ,Left ,46.4837171971992 ,48.413313281422 ,64.7928452014134
32.6691653 ,Left ,46.6031775982971 ,48.354181821698 ,64.8256515824391
32.7218294 ,Left ,46.6051726607583 ,48.267765600325 ,64.7451695958139
32.7441687 ,Left ,46.3742864955317 ,48.3266775191405 ,64.7141230581982
32.7817508 ,Left ,46.3644952017218 ,48.3383337855477 ,64.6175470486395
32.8042714 ,Left ,46.5250931288371 ,48.2950337549562 ,64.5430657925803
32.8416126 ,Left ,46.6220278438758 ,48.2601250438859 ,64.4504021681347
32.864325 ,Left ,46.5323656969945 ,48.2567678958846 ,64.4410358679836
32.9017136 ,Left ,46.4116127887061 ,48.2337901742333 ,64.4094921360282
32.9243747 ,Left ,46.4699913863601 ,48.213425940954 ,64.3996155614153
32.9616815 ,Left ,46.2377239689386 ,48.2529339571735 ,64.3981586744763
32.9843428 ,Left ,46.180867866066 ,48.2726491863013 ,64.4104358665977
33.0218111 ,Left ,46.4786448584636 ,48.2195036817588 ,64.367721396062
33.0443243 ,Left ,46.6786482093943 ,48.1647415165692 ,64.3358988381036
33.0818326 ,Left ,46.9312757004037 ,48.1542893449775 ,64.2950809499796
33.1043232 ,Left ,46.9565809273373 ,48.1757473349766 ,64.276851437148
33.1417967 ,Left ,46.8507775715744 ,48.3209892778464 ,64.2655035509812
33.164726 ,Left ,46.7038109685897 ,48.4135053856043 ,64.3009672888655
33.201787 ,Left ,46.6231048582072 ,48.525386425054 ,64.4201144766946
33.2242677 ,Left ,46.6234407305465 ,48.5533460047496 ,64.468503414324
33.2693747 ,Left ,46.5022698434727 ,48.604475408904 ,64.6544976431605
33.3218507 ,Left ,46.7587885202298 ,48.4734048621569 ,64.7901518343777
33.3442103 ,Left ,46.9364852435354 ,48.4297234125574 ,64.7994669986105
33.3819235 ,Left ,46.8669089901969 ,48.5149111442657 ,64.8591305216882
33.404323 ,Left ,46.6867352746367 ,48.5924328695013 ,64.8933124345836
33.4419929 ,Left ,46.7600226897658 ,48.6280007143285 ,64.8642844669893
33.4642188 ,Left ,46.8210195593471 ,48.6207722689108 ,64.8267751688622
33.5100901 ,Left ,46.8527265807071 ,48.620585040405 ,64.7193780645793
33.5618844 ,Left ,46.6281011858136 ,48.6337721024427 ,64.5163350826898
33.5840626 ,Left ,46.5935075036649 ,48.628458828057 ,64.4641256955446
33.599363 ,Left ,46.6028742386783 ,48.6144442438794 ,64.4303154833452
33.614109 ,Left ,46.5916500342871 ,48.5960313236011 ,64.4078849175053
33.6369037 ,Left ,46.5279907611398 ,48.5729376033866 ,64.3884922310613
33.6593517 ,Left ,46.4310542142271 ,48.5520476473507 ,64.3877084393556
33.6742822 ,Left ,46.387947180421 ,48.5316151009037 ,64.3930179115547
33.6968391 ,Left ,46.369307194506 ,48.4918966720621 ,64.3851006531178
33.7198616 ,Left ,46.3652243689312 ,48.4358180506731 ,64.3691461700271
33.734368 ,Left ,46.3878350880746 ,48.3827365442249 ,64.3611598840368
33.756644 ,Left ,46.4657322183326 ,48.3184653678543 ,64.3530461418085
33.7793638 ,Left ,46.468052286045 ,48.2727034593779 ,64.3654139858677
33.8015528 ,Left ,46.3725665837631 ,48.2811779234543 ,64.3639690515323
33.8240782 ,Left ,46.3669043465964 ,48.3231500574067 ,64.3654715457958
33.8543351 ,Left ,46.7612163707323 ,48.3072762290027 ,64.2932759428966
33.8770496 ,Left ,46.8697645242625 ,48.2921594802966 ,64.2603862866715
33.8993315 ,Left ,46.8519574673132 ,48.2915588571709 ,64.2837856310698
33.9142864 ,Left ,46.7439785507789 ,48.2875860481398 ,64.3256112843213
33.9367295 ,Left ,46.6106681513733 ,48.2680827801317 ,64.3490274802865
33.9595541 ,Left ,46.5312180140723 ,48.2378678971958 ,64.3658012776719
33.9742559 ,Left ,46.5663661914895 ,48.1949318054278 ,64.3678986762597
33.9966591 ,Left ,46.6291337960085 ,48.1568383559832 ,64.3769374024193
34.0193033 ,Left ,46.5662358887738 ,48.1640504677792 ,64.3893695731161
34.0342181 ,Left ,46.4513237448989 ,48.2465552065512 ,64.4014685943662
34.0718288 ,Left ,46.4606755186581 ,48.3175915408808 ,64.4167304122779
34.0942881 ,Left ,46.5780030865624 ,48.3347480529981 ,64.4131458901219
34.1093664 ,Left ,46.7195247686533 ,48.3374905963662 ,64.4002931521239
34.1243169 ,Left ,46.7449679827024 ,48.3542818443326 ,64.3802206626445
34.1400309 ,Left ,46.6424863048726 ,48.3833190467889 ,64.3975516191519
34.1543458 ,Left ,46.5696276571155 ,48.4069557175137 ,64.4171352043668
34.1767703 ,Left ,46.5757032273483 ,48.4150016928758 ,64.4175660657183
34.1993948 ,Left ,46.6260540955706 ,48.418268112864 ,64.4076286143367
34.2144217 ,Left ,46.6620271207403 ,48.428724498091 ,64.4029122398049
34.2367098 ,Left ,46.6819529716305 ,48.4433469013194 ,64.4054794239259
34.2593955 ,Left ,46.672017255128 ,48.4552374299281 ,64.4113110731208
34.2743053 ,Left ,46.629558407905 ,48.4635065195895 ,64.420866919386
34.2967331 ,Left ,46.5727205037914 ,48.4746527154999 ,64.436218268237
34.3191881 ,Left ,46.5572231716828 ,48.4765634913195 ,64.4485251523705
34.3342124 ,Left ,46.554135102421 ,48.472270528497 ,64.4581976310169
34.3643203 ,Left ,46.5308060446856 ,48.4759952641543 ,64.4708033531527
34.3868191 ,Left ,46.4982426336255 ,48.4895703589912 ,64.4937828172641
34.4018128 ,Left ,46.4719778832987 ,48.5060704048231 ,64.5116651547971
34.4167023 ,Left ,46.4649606243933 ,48.5262751949391 ,64.5293652759177
34.439439 ,Left ,46.4580332057036 ,48.5551470667212 ,64.5458003110656
34.4542576 ,Left ,46.4319154453474 ,48.5850239551097 ,64.5636489321103
34.4767288 ,Left ,46.3776669992659 ,48.6068575612316 ,64.583457112186
34.499212 ,Left ,46.3242914733254 ,48.6436328318949 ,64.6033679147457
34.5142939 ,Left ,46.2946854983743 ,48.6881163752624 ,64.6199678265462
34.5366719 ,Left ,46.2924631280354 ,48.729748825238 ,64.6319785019777
34.5592602 ,Left ,46.3097851801794 ,48.7696608631237 ,64.6359703501226
34.5752781 ,Left ,46.3757915691999 ,48.7956580356599 ,64.6281938692971
34.5968593 ,Left ,46.4469338142684 ,48.8058193839257 ,64.6203012624323
34.6266965 ,Left ,46.4632456405157 ,48.809854343842 ,64.6071081631983
34.6494001 ,Left ,46.438880887719 ,48.8079616133037 ,64.6012010259234
34.6641987 ,Left ,46.4067933547989 ,48.7990609033784 ,64.5943764451373
34.7016902 ,Left ,46.334621285202 ,48.7610725152398 ,64.5823812603809
34.7168603 ,Left ,46.3067931364654 ,48.7523356004673 ,64.5775619223368
34.7392293 ,Left ,46.3040536299153 ,48.7427944424229 ,64.5793056666653
34.7618478 ,Left ,46.3214203545419 ,48.7349918455653 ,64.5849747435134
34.7841137 ,Left ,46.3307298000994 ,48.7201842244443 ,64.5926952317594
34.8068303 ,Left ,46.3199604990412 ,48.7086429418783 ,64.5996399551167
34.8290563 ,Left ,46.2924818938129 ,48.6988507820547 ,64.608036003727
34.8442426 ,Left ,46.2765138496524 ,48.6853743774846 ,64.6135776944099
34.8593539 ,Left ,46.2852780151346 ,48.6721385852587 ,64.6124601214728
34.8817712 ,Left ,46.3083599428294 ,48.6519469159423 ,64.6080942202733
34.8968299 ,Left ,46.3159616211939 ,48.6284840605806 ,64.6110494126385
34.9220531 ,Left ,46.2990658050176 ,48.6132646483376 ,64.6170123342757
34.9425401 ,Left ,46.2698930874961 ,48.5998443350416 ,64.6239006145115
34.960867 ,Left ,46.2554660154495 ,48.5860389713053 ,64.6337351664593
34.979207 ,Left ,46.2665873717905 ,48.5786853899459 ,64.6381732158597
35.0016982 ,Left ,46.2967723171061 ,48.5757947330475 ,64.6485542786244
35.0166787 ,Left ,46.3040458055348 ,48.5936267671336 ,64.6647184269828
35.0391129 ,Left ,46.2971294202037 ,48.6274281003207 ,64.6847498575416
35.0616062 ,Left ,46.2833368285653 ,48.6772345362076 ,64.723168608029
35.0767403 ,Left ,46.2882011728492 ,48.720171257358 ,64.7820591457573
35.0991014 ,Left ,46.3251403036187 ,48.758443094842 ,64.8478046107549
35.1216676 ,Left ,46.3933224381013 ,48.7910585170796 ,64.90239059906
35.136849 ,Left ,46.465050337675 ,48.8034101675086 ,64.9509507011308
35.1601779 ,Left ,46.5211537129042 ,48.7919781434635 ,64.990847935977
35.1816646 ,Left ,46.5532388114561 ,48.7646280724089 ,65.0130833346131
35.2042446 ,Left ,46.5719702405307 ,48.7199342807324 ,65.0125835403907
35.2267996 ,Left ,46.5965101555152 ,48.6574254101312 ,64.9704936309979
35.2490909 ,Left ,46.6753233923556 ,48.5552270817371 ,64.9057674465098
35.2641922 ,Left ,46.6554479366139 ,48.4640943277266 ,64.7945918054521
35.2791653 ,Left ,46.5407439974269 ,48.3988684541112 ,64.6996702557612
35.3018295 ,Left ,46.468679660535 ,48.359303755172 ,64.6168078424165
35.3242984 ,Left ,46.4922521829286 ,48.3048384285935 ,64.5499447699408
35.3391562 ,Left ,46.5516259870911 ,48.2445977892017 ,64.4887527212307
35.3616626 ,Left ,46.5779209545675 ,48.1956926368624 ,64.4444205583198
35.384256 ,Left ,46.5462993489076 ,48.1693752378597 ,64.4167812872478
35.3992196 ,Left ,46.4871367063079 ,48.1634877421162 ,64.39576178709
35.4217484 ,Left ,46.4144353947566 ,48.1630558480089 ,64.3648982081326
35.4367148 ,Left ,46.3792014154077 ,48.1543651522383 ,64.3511531623573
35.4668287 ,Left ,46.3516413177478 ,48.141847548742 ,64.329791001896
35.4890356 ,Left ,46.1959106555552 ,48.1418181781948 ,64.3257961090396
35.5192944 ,Left ,46.016953478368 ,48.2026759811174 ,64.3660185475535
35.5416855 ,Left ,46.1829833721503 ,48.1818298157205 ,64.3628966235359
35.5642916 ,Left ,46.3058154828118 ,48.1592014492311 ,64.3495140145186
35.5827823 ,Left ,46.3378145717247 ,48.1516197087471 ,64.3407896091102
35.6016398 ,Left ,46.2669358630368 ,48.1571407434677 ,64.3392094949647
35.6247168 ,Left ,46.1861624892861 ,48.1610769725253 ,64.3413610967294
35.6396539 ,Left ,46.1398932324965 ,48.1628045657098 ,64.335954466902
35.6618542 ,Left ,46.1256192568205 ,48.1710097399291 ,64.3252362629804
35.6843667 ,Left ,46.1079474018116 ,48.1966454903433 ,64.3236339604852
35.6992661 ,Left ,46.0443695973126 ,48.2310789854084 ,64.3432416832236
35.721804 ,Left ,45.9959193044701 ,48.2563335438167 ,64.3621357096868
35.744188 ,Left ,45.9756694618438 ,48.2725976566804 ,64.3619716432804
35.7592522 ,Left ,45.8954590027696 ,48.3049748567911 ,64.3661871274252
35.7833302 ,Left ,45.5904491346323 ,48.3435602141506 ,64.4026088869604
35.8043797 ,Left ,45.270251004053 ,48.3443240856085 ,64.4589218154119
35.8194706 ,Left ,45.1927832799444 ,48.2934667455031 ,64.4757177104548
35.8417479 ,Left ,45.2024655107123 ,48.2167255161125 ,64.4444827235376
35.8641983 ,Left ,45.2121341736262 ,48.1492687811051 ,64.4159174111328
35.8793143 ,Left ,45.2899268463367 ,48.095179811189 ,64.3672939523009
35.9017262 ,Left ,45.3209049327195 ,48.0666365201828 ,64.290093147321
35.924337 ,Left ,45.2236514677681 ,48.0925763623103 ,64.2331529679552
35.9393017 ,Left ,45.1184486736387 ,48.1197599307243 ,64.1918785335921
35.9617938 ,Left ,45.1182724127939 ,48.1118878210175 ,64.1479223136131
35.9842165 ,Left ,45.186569812453 ,48.0953415247838 ,64.0962925970576
35.9993539 ,Left ,45.2643746019973 ,48.0940000364569 ,64.0602908989538
36.0218705 ,Left ,45.3583547632756 ,48.092865398067 ,64.0331615120799
36.0442444 ,Left ,45.4217702314585 ,48.077755861463 ,64.0058653863549
36.0595374 ,Left ,45.4497841003622 ,48.0704803279472 ,63.9796947661083
36.0818774 ,Left ,45.4473696520364 ,48.0646274264317 ,63.9597281496299
36.1043433 ,Left ,45.4395149787743 ,48.0629354773835 ,63.9304268271842
36.1192663 ,Left ,45.4366597193193 ,48.0544749238478 ,63.9043977483611
36.1417107 ,Left ,45.4389691664361 ,48.0403409494656 ,63.8848059873616
36.1644012 ,Left ,45.4625047411406 ,48.0208992662135 ,63.8655414944806
36.1793885 ,Left ,45.4594459775745 ,47.9966380743848 ,63.8506642529098
36.2017212 ,Left ,45.4107587403099 ,47.9750420503927 ,63.8477428894638
36.2243196 ,Left ,45.3949646651421 ,47.9567614077115 ,63.8529649521579
36.2391805 ,Left ,45.4085587737863 ,47.9308794941144 ,63.8536963131333
36.2621192 ,Left ,45.4105177906845 ,47.9207790762056 ,63.8681321010391
36.2918961 ,Left ,45.4722444135244 ,47.901265788558 ,63.8870172054572
36.3069773 ,Left ,45.5181762068709 ,47.884948516713 ,63.8732634651273
36.3291583 ,Left ,45.4088667209913 ,47.8887595328763 ,63.8479670885
36.3592729 ,Left ,45.3714618207387 ,47.7996385918136 ,63.7976665544341
36.3817482 ,Left ,45.4398453527753 ,47.6991140516256 ,63.7413181205858
36.4043942 ,Left ,45.453821415809 ,47.6490702510008 ,63.7202272674302
36.4268675 ,Left ,45.3918724241396 ,47.6507427562642 ,63.7370870929333
36.4417414 ,Left ,45.2501217194465 ,47.66092216502 ,63.7814324490654
36.4643426 ,Left ,45.250444659991 ,47.6552319328602 ,63.8058185572353
36.4868363 ,Left ,45.3805935218751 ,47.610303465086 ,63.8196689272967
36.5018942 ,Left ,45.4911017272576 ,47.5600455561365 ,63.8168816318578
36.524157 ,Left ,45.4060226193175 ,47.5556298221778 ,63.8236202506895
36.5469031 ,Left ,45.2458978249841 ,47.6192700560479 ,63.8395403519854
36.561664 ,Left ,45.1859474583781 ,47.6752886987176 ,63.839623913221
36.5851703 ,Left ,45.2810396060379 ,47.6888584224739 ,63.8238229793165
36.606696 ,Left ,45.4716332990729 ,47.6656073778169 ,63.8029614239314
36.6218124 ,Left ,45.6094330169429 ,47.6459783671494 ,63.8005686585103
36.6442733 ,Left ,45.5961795289053 ,47.6445425708879 ,63.8135765897899
36.6666879 ,Left ,45.5122607260065 ,47.6574253236346 ,63.8400627289189
36.681842 ,Left ,45.4748734409151 ,47.6685582164785 ,63.8672727800734
36.7043526 ,Left ,45.5019918776687 ,47.6752928936767 ,63.8816107210534
36.7270008 ,Left ,45.5623795186169 ,47.6812263208728 ,63.8869966932982
36.7417444 ,Left ,45.623774816748 ,47.6872907712056 ,63.9012844393829
36.7642397 ,Left ,45.6427661951012 ,47.6996877948265 ,63.9160761942881
36.7868573 ,Left ,45.613904986006 ,47.7083225783998 ,63.9360465404874
36.8016846 ,Left ,45.5923216165588 ,47.7220053708001 ,63.951910821164
36.824376 ,Left ,45.598528708695 ,47.7333765342496 ,63.9619998562559
36.8543888 ,Left ,45.6126060300928 ,47.7434634398403 ,63.9733702806607
36.8693703 ,Left ,45.6196834034975 ,47.7638411038618 ,63.9930258722558
36.8917807 ,Left ,45.6207312608794 ,47.8024392148004 ,64.0098722095863
36.9068161 ,Left ,45.621616125279 ,47.8498744975112 ,64.0275108832137
36.9218163 ,Left ,45.6368009193735 ,47.9031476070766 ,64.0402910664295
36.9448528 ,Left ,45.6391796945593 ,47.9626820558428 ,64.0584295278963
36.9666821 ,Left ,45.6338471850348 ,48.0154926229887 ,64.0782447379791
36.9819592 ,Left ,45.6383909553386 ,48.060666250425 ,64.1112660130255
37.0042573 ,Left ,45.6405586631522 ,48.1086054291323 ,64.1399489690574
37.0266969 ,Left ,45.6208077501865 ,48.1647841325235 ,64.1506429800121
37.0418826 ,Left ,45.6361017082911 ,48.2145889333454 ,64.151223177627
37.0641983 ,Left ,45.7120651052483 ,48.2641838897478 ,64.1511099444144
37.0868509 ,Left ,45.7698097374259 ,48.3095527613358 ,64.159181147544
37.1015983 ,Left ,45.7912789600338 ,48.3538909330933 ,64.1583607194884
37.1243464 ,Left ,45.8043471523036 ,48.3931114877053 ,64.1526127718973
37.1483836 ,Left ,45.8181010556357 ,48.4209189762574 ,64.1492062424116
37.1616767 ,Left ,45.8445489182383 ,48.4345422566101 ,64.1459128801637
37.184161 ,Left ,45.8835261031778 ,48.4369633612704 ,64.1369431607287
37.2069016 ,Left ,45.8894837884385 ,48.4324277073018 ,64.1220094740255
37.2218237 ,Left ,45.851275113395 ,48.4324078080528 ,64.1151792525035
37.2441742 ,Left ,45.8196491664164 ,48.4257312922803 ,64.1175979384985
37.2667282 ,Left ,45.8142962942372 ,48.4152222766468 ,64.1201435148401
37.2818608 ,Left ,45.8318176502541 ,48.4030948391672 ,64.1243757136441
37.3041931 ,Left ,45.8489271736281 ,48.4007484240314 ,64.1356311999702
37.326752 ,Left ,45.8450582581733 ,48.4071837013673 ,64.1590168975756
37.3417829 ,Left ,45.8438801594718 ,48.4188731261092 ,64.1811441121657
37.3644474 ,Left ,45.8366544803665 ,48.4397366426834 ,64.2002507838252
37.3869934 ,Left ,45.8190953337032 ,48.4561434903308 ,64.2149196732333
37.4094026 ,Left ,45.8095601434349 ,48.4537324411802 ,64.2315740731031
37.4316383 ,Left ,45.808029468919 ,48.4368138231547 ,64.2495051894636
37.4691996 ,Left ,45.7568626774213 ,48.4571651106029 ,64.2714071896967
37.4842665 ,Left ,45.7153894961437 ,48.4832342374742 ,64.2894537938185
37.4993225 ,Left ,45.7406452308938 ,48.5126145662361 ,64.3080706785325
37.536591 ,Left ,45.7601931486229 ,48.5456116812037 ,64.3356437034872
37.5595718 ,Left ,45.7645049787957 ,48.5584014574611 ,64.3530328961258
37.5964786 ,Left ,45.7363698259938 ,48.5506446150983 ,64.3767362545385
37.6193353 ,Left ,45.7059176293002 ,48.5451594280401 ,64.3917826881213
37.656588 ,Left ,45.6767018171585 ,48.5188583562629 ,64.420839856887
37.6790814 ,Left ,45.6876040444827 ,48.4997013178619 ,64.4335588196522
37.7168017 ,Left ,45.8105171550861 ,48.4233392136893 ,64.4382393843631
37.7391884 ,Left ,45.8239823145079 ,48.3835066581608 ,64.4343033232909
37.7766583 ,Left ,45.8167658118623 ,48.3051199904969 ,64.4449603133492
37.7992492 ,Left ,45.8770872408615 ,48.2837883433146 ,64.4345889368804
37.8368408 ,Left ,45.8935373507076 ,48.288180366187 ,64.3866080319619
37.8597392 ,Left ,45.786825357078 ,48.3039731083725 ,64.3617439515346
37.8966276 ,Left ,45.8001073435461 ,48.261335731051 ,64.3300895526443
37.92675 ,Left ,45.8436140914571 ,48.2301891248502 ,64.292792917472
37.9791695 ,Left ,45.8412889828653 ,48.2151434575388 ,64.2870975947545
38.0165251 ,Left ,45.9025071932673 ,48.201389133806 ,64.2450729183522
38.0393643 ,Left ,45.8627159109815 ,48.2275402713097 ,64.2304088930216
38.0766239 ,Left ,45.7675016719932 ,48.2590761075192 ,64.2477366905144
38.0991356 ,Left ,45.845876746052 ,48.2247593993147 ,64.2329832588552
38.1368294 ,Left ,45.9269833134033 ,48.1620398529468 ,64.2068993760474
38.1592438 ,Left ,45.9153572935744 ,48.1699391331177 ,64.2092444553737
38.1968482 ,Left ,45.8460763135273 ,48.2255396383048 ,64.1978906949638
38.2193406 ,Left ,45.9019626440017 ,48.2683526031017 ,64.1935514486397
38.2567016 ,Left ,45.7682786091273 ,48.3858192418402 ,64.2099655323609
38.2792071 ,Left ,45.7328915143437 ,48.4365477522049 ,64.2602666436593
38.3165954 ,Left ,45.8383674484855 ,48.4676959469677 ,64.3650867303221
38.3392592 ,Left ,45.8707950716826 ,48.4798787065983 ,64.440050915074
38.3765648 ,Left ,46.0223942838403 ,48.4614323763847 ,64.7397091406158
38.3993358 ,Left ,46.0881834374218 ,48.4189903866344 ,64.8199282706564
38.4367974 ,Left ,45.9598712802803 ,48.4105670719455 ,64.9296902180237
38.4598073 ,Left ,45.9367122906437 ,48.4411272571124 ,64.9431592976477
38.496875 ,Left ,45.9401515014059 ,48.4630660790786 ,64.9151644207743
38.5192256 ,Left ,46.0011907615752 ,48.4605019222392 ,64.8866410064198
38.5564549 ,Left ,46.1027801188877 ,48.4413967758953 ,64.8302269387068
38.5793401 ,Left ,46.0778576637251 ,48.4287458277145 ,64.7999570285788
38.6167673 ,Left ,45.9259276429182 ,48.4125568987419 ,64.6989716540391
38.6390393 ,Left ,45.8988247944212 ,48.406965132431 ,64.6439490069394
38.6770123 ,Left ,45.9475785117256 ,48.3628550561615 ,64.5778337365847
38.6994628 ,Left ,45.9423798708221 ,48.3484658786079 ,64.5607587541322
38.7367506 ,Left ,45.8596130370914 ,48.3329450201035 ,64.5314655038067
38.7592056 ,Left ,45.7986831777863 ,48.307952871943 ,64.5363658140668
38.7965495 ,Left ,45.8158026169749 ,48.2381435035019 ,64.5950715387919
38.8193585 ,Left ,45.7967639439426 ,48.1763471322859 ,64.5876287216667
38.856728 ,Left ,45.6907966379373 ,48.1681167308668 ,64.5823862724489
38.8791454 ,Left ,45.7399438651692 ,48.144319785804 ,64.5651830476118
38.9168912 ,Left ,45.9038556445894 ,48.0541254701786 ,64.4806834310396
38.9390688 ,Left ,45.8243350375357 ,48.0665208828523 ,64.4868491350159
38.9765869 ,Left ,45.5895225453013 ,48.1232703589776 ,64.5679222202945
38.9993595 ,Left ,45.6433002367127 ,48.1333196742514 ,64.5963825736601
39.0367839 ,Left ,45.7777101149328 ,48.2093969203814 ,64.6287641109849
39.0597512 ,Left ,45.7455908993081 ,48.2841444903963 ,64.6444205768326
39.0967494 ,Left ,45.8484608835672 ,48.3585536679605 ,64.6621020117324
39.1193653 ,Left ,46.0227170509715 ,48.3511592952546 ,64.651695259416
39.1568223 ,Left ,46.1140193269759 ,48.3497427299656 ,64.6675182220846
39.1793139 ,Left ,46.0420200558725 ,48.3751291254784 ,64.702937666472
39.2165699 ,Left ,46.051798123916 ,48.3861322401776 ,64.704085619765
39.2393676 ,Left ,46.1086726904676 ,48.387331187269 ,64.6888160980418
39.2770719 ,Left ,46.1935747708264 ,48.3915550217982 ,64.6899266612792
39.2993104 ,Left ,46.1905099357549 ,48.3963956409762 ,64.7002509843091
39.3367663 ,Left ,46.2170453480199 ,48.3903272633547 ,64.7288755942747
39.3592783 ,Left ,46.2510587632291 ,48.3803006658652 ,64.7309375133749
39.3741513 ,Left ,46.3005039204586 ,48.3500844140575 ,64.7383425963495
39.3892553 ,Left ,46.3146952345329 ,48.2875714972766 ,64.759178030463
39.4117333 ,Left ,46.2119575660299 ,48.2105680606419 ,64.8015504053392
39.4342301 ,Left ,46.091389562401 ,48.127427634394 ,64.8719622443168
39.4491606 ,Left ,46.0523530230017 ,48.0454449769653 ,64.9202134699796
39.4716372 ,Left ,45.9913226775988 ,47.9696525622678 ,64.9397801369424
39.4941816 ,Left ,45.8822354527242 ,47.9169048494845 ,64.9467251318296
39.5093497 ,Left ,45.843110544104 ,47.8787332216117 ,64.9451200312546
39.5317896 ,Left ,45.9043911149546 ,47.8478583986343 ,64.941878795994
39.5545935 ,Left ,45.998408757378 ,47.8369607860679 ,64.950968901983
39.5692796 ,Left ,46.0544893813497 ,47.8522220415699 ,64.967670699401
39.5916279 ,Left ,46.0738182007156 ,47.8864297024366 ,64.9881896602475
39.6142264 ,Left ,46.0655976350888 ,47.9251765256251 ,65.0027354661122
39.6290886 ,Left ,46.0596796845215 ,47.9558934923835 ,65.0187731647458
39.6518184 ,Left ,46.0639397503099 ,47.9878043637294 ,65.0286282347695
39.6743205 ,Left ,46.066855271451 ,48.0243775755717 ,65.033543391089
39.6892005 ,Left ,46.0535515274377 ,48.0577186452353 ,65.0318999386888
39.7116661 ,Left ,46.0062362029107 ,48.0864820991005 ,65.0378629057941
39.7342069 ,Left ,45.9596355073048 ,48.1134161370469 ,65.0479648779009
39.7491412 ,Left ,45.946721938472 ,48.1347030352911 ,65.063891489226
39.7715461 ,Left ,45.9369647311056 ,48.1602531588535 ,65.0722279376078
39.7941661 ,Left ,45.9532309680154 ,48.1920721162852 ,65.0739395264694
39.8092473 ,Left ,46.0673285496524 ,48.200914633478 ,65.0761537916705
39.8317902 ,Left ,46.2393920555817 ,48.1686522214474 ,65.0762018117439
39.8543274 ,Left ,46.3002542958962 ,48.1423359823977 ,65.077181974048
39.8692626 ,Left ,46.2295431402989 ,48.1563530781851 ,65.1055823806512
39.8990679 ,Left ,46.1769332929162 ,48.1866334011938 ,65.1447541356067
39.92142 ,Left ,46.1682276761379 ,48.199523106654 ,65.1635243334402
39.9366277 ,Left ,46.2102392871571 ,48.2007676048814 ,65.1667575320313
39.9591816 ,Left ,46.2909674152786 ,48.1895318716522 ,65.1593428740335
39.9745532 ,Left ,46.3320253874408 ,48.1658380674236 ,65.1536058184108
39.9889975 ,Left ,46.2939220442657 ,48.152636019938 ,65.1575613723048
40.0116704 ,Left ,46.2215114965338 ,48.1410639737951 ,65.1616145472424
40.0343447 ,Left ,46.1813135046909 ,48.1303160150413 ,65.1568660667365
40.0491862 ,Left ,46.1721622187408 ,48.12331012213 ,65.1477355278216
40.0718307 ,Left ,46.1802848594503 ,48.1204428462523 ,65.1410530704215
40.0942515 ,Left ,46.2066454139231 ,48.117190517946 ,65.1268249804851
40.1103121 ,Left ,46.2094857261668 ,48.1036432343963 ,65.1178608010134
40.1317374 ,Left ,46.1323015089832 ,48.0986053740911 ,65.116994641148
40.1543688 ,Left ,46.0218493354725 ,48.0960418833009 ,65.1289557012696
40.1693483 ,Left ,45.9465978581304 ,48.0844821485706 ,65.1376680186521
40.1919064 ,Left ,45.9239016790639 ,48.0584610184442 ,65.1405120927393
40.2142514 ,Left ,45.9360778524396 ,48.0205711121546 ,65.1315512256643
40.2292913 ,Left ,45.9630248516873 ,47.9765993659622 ,65.1202016684483
40.2517559 ,Left ,46.004343959406 ,47.9356865133635 ,65.0947820145161
40.2743714 ,Left ,46.008241624558 ,47.9192981945044 ,65.0838392585518
40.2966631 ,Left ,46.0067230783565 ,47.8970703465978 ,65.0743613453012
40.3117482 ,Left ,45.9377236697909 ,47.8752500687334 ,65.0121728583038
40.3342441 ,Left ,45.7903659588175 ,47.8630624740707 ,64.9024216050216
40.3568526 ,Left ,45.6587732447476 ,47.8447401802353 ,64.818174857906
40.3718271 ,Left ,45.647065081407 ,47.8140607162817 ,64.7416398674218
40.3942152 ,Left ,45.6974632726017 ,47.7832778834712 ,64.6588426739561
40.4166748 ,Left ,45.7578519284251 ,47.7637878107361 ,64.6085148852714
40.4318356 ,Left ,45.768585692481 ,47.7604196339641 ,64.5812450541769
40.4615144 ,Left ,45.7770509691411 ,47.763405297089 ,64.5618888236287
40.4843543 ,Left ,45.763608656845 ,47.764044216307 ,64.551010002559
40.4993596 ,Left ,45.7443192730803 ,47.7482183084491 ,64.5385191153715
40.5141986 ,Left ,45.670580081807 ,47.7625766727401 ,64.5244803134295
40.5368066 ,Left ,45.6091048124551 ,47.7831577849783 ,64.5230688668956
40.5516229 ,Left ,45.5982142440627 ,47.807494960294 ,64.5159907974403
40.5742205 ,Left ,45.6352345397241 ,47.8258601084471 ,64.503213694052
40.597473 ,Left ,45.7167297083874 ,47.8294876403033 ,64.4938385127355
40.6117103 ,Left ,45.8581652827845 ,47.8171730556633 ,64.4813503109197
40.6341201 ,Left ,45.9638931293513 ,47.8098462352456 ,64.4771334843152
40.6568579 ,Left ,46.027334270614 ,47.8364103612702 ,64.4586130686297
40.671652 ,Left ,46.1544807785011 ,47.8724870910605 ,64.4194373806382
40.6942651 ,Left ,46.30041153947 ,47.9002783363856 ,64.3862195452188
40.71671 ,Left ,46.3199833240097 ,47.9775903856862 ,64.3767434435493
40.7317609 ,Left ,46.1980548230475 ,48.0797657090814 ,64.3999556738372
40.7541254 ,Left ,46.0625138325085 ,48.177366483338 ,64.4643068176381
40.7775293 ,Left ,46.0111484288854 ,48.2362538596541 ,64.5200082187136
40.7917059 ,Left ,46.0644469034342 ,48.2556551121468 ,64.5564942355288
40.8141181 ,Left ,46.1481907988061 ,48.257715807187 ,64.594830935595
40.8367006 ,Left ,46.1996482201508 ,48.2648460583661 ,64.6334342836373
40.851629 ,Left ,46.1318296000217 ,48.2686740758818 ,64.6713026156165
40.8740048 ,Left ,45.9380421282676 ,48.2543744697507 ,64.7179216104366
40.8966563 ,Left ,45.6140228112253 ,48.2208271157004 ,64.7799723789525
40.9115772 ,Left ,45.3911321947379 ,48.1633547599405 ,64.8555280857
40.934097 ,Left ,45.3267932444936 ,48.0981382788071 ,64.8581743970044
40.9565581 ,Left ,45.3984108138527 ,48.0339679788023 ,64.7832101130443
40.9715748 ,Left ,45.5652403968094 ,47.9998655754766 ,64.6988997387392
40.9942149 ,Left ,45.6751368921603 ,47.9869331987727 ,64.6275755432654
41.0167038 ,Left ,45.6534639996124 ,48.0010723860084 ,64.5802626026429
41.0392292 ,Left ,45.5819642589387 ,48.0232313345255 ,64.544241178209
41.0616396 ,Left ,45.5772970921071 ,48.0396039684268 ,64.4918307135173
41.0841294 ,Left ,45.6441644556801 ,48.0438730947367 ,64.4456910581414
41.09914 ,Left ,45.766607861085 ,48.0590116430144 ,64.396961524987
41.1142998 ,Left ,45.8384927181458 ,48.0704397127375 ,64.3536005208283
41.1367606 ,Left ,45.8619018636992 ,48.0805968257088 ,64.3274517241834
41.1592296 ,Left ,45.8704733475078 ,48.0775021497564 ,64.3160807475863
41.1742685 ,Left ,45.8461037948483 ,48.0624056561536 ,64.3129944192857
41.1966605 ,Left ,45.8019909346266 ,48.0404968763327 ,64.3196332731767
41.2116348 ,Left ,45.757661023011 ,48.0060132923741 ,64.3306152254615
41.2341024 ,Left ,45.7221992789538 ,47.970294430747 ,64.3520274546516
41.2566603 ,Left ,45.6542252554144 ,47.9476558235199 ,64.3713276585252
41.2866254 ,Left ,45.5554788088646 ,47.9475315876665 ,64.377481108922
41.309232 ,Left ,45.4768384618938 ,47.9623934427821 ,64.3529809856304
41.3317311 ,Left ,45.4925129159235 ,47.970976703772 ,64.2992288081201
41.3616213 ,Left ,45.6851447008581 ,47.8559619554126 ,64.076703394826
41.3783532 ,Left ,45.6356508262746 ,47.8084209429118 ,63.9681004157842
41.3992944 ,Left ,45.4216449283371 ,47.7987451028741 ,63.9335294812698
41.4142521 ,Left ,45.2050950108176 ,47.8048454235737 ,63.9559298579641
41.4368522 ,Left ,45.133477140445 ,47.8089882607004 ,63.9866412863246
41.4593199 ,Left ,45.2257830265096 ,47.7829404578709 ,63.9809137061063
41.4743439 ,Left ,45.3555264412616 ,47.7529259045598 ,63.9722799334792
41.4968336 ,Left ,45.3961691662196 ,47.7632802672994 ,63.9801614564277
41.519219 ,Left ,45.2998276925754 ,47.8218613969914 ,63.9871152427909
41.5419166 ,Left ,45.2198718228002 ,47.9051279583649 ,63.9918804071565
41.571811 ,Left ,45.2246305579567 ,47.9635917684108 ,63.9871104021899
41.5942922 ,Left ,45.3481535696021 ,47.9804531810258 ,63.9653438340937
41.6092821 ,Left ,45.5050991836465 ,47.9948372928698 ,63.9422876889145
41.6241421 ,Left ,45.5571740868649 ,48.0061917302954 ,63.9491097261889
41.6393635 ,Left ,45.5250186771314 ,48.0296128457108 ,63.9834414825486
41.65433 ,Left ,45.4935981455076 ,48.0459800051733 ,64.0194304642167
41.6766739 ,Left ,45.5167891549163 ,48.0593064872356 ,64.0402837299413
41.6992891 ,Left ,45.5616508464129 ,48.0788962441321 ,64.0507530475974
41.7141789 ,Left ,45.6137226257371 ,48.1077559779501 ,64.056577815071
41.736758 ,Left ,45.6486831575063 ,48.133904255269 ,64.0676788194227
41.7593177 ,Left ,45.6451218442316 ,48.156576318124 ,64.0794479583207
41.774307 ,Left ,45.5866378942666 ,48.1664636919644 ,64.1003817578259
41.7968658 ,Left ,45.5376115333178 ,48.1883888419403 ,64.1090754309625
41.8193281 ,Left ,45.4861632675768 ,48.2212306705039 ,64.1271518920467
41.8340845 ,Left ,45.4478160844541 ,48.2544591702502 ,64.1458896440298
41.8568383 ,Left ,45.4207352178665 ,48.2810875133086 ,64.170730790875
41.8791718 ,Left ,45.4184460479828 ,48.3049075967513 ,64.1949895313001
41.8941717 ,Left ,45.4343645156198 ,48.3229468708048 ,64.2073343753173
41.9168429 ,Left ,45.4470785157594 ,48.3323111753745 ,64.2112204267699
41.939368 ,Left ,45.470495122431 ,48.3423932372178 ,64.2018634842338
41.9540881 ,Left ,45.4972607702198 ,48.3415864345937 ,64.1924851373785
41.9770988 ,Left ,45.4843948982846 ,48.340228678774 ,64.1856593822528
41.9991826 ,Left ,45.4598499653635 ,48.3428638204303 ,64.1838070858112
42.0142011 ,Left ,45.4584303292512 ,48.3346366905248 ,64.1807582492048
42.0368974 ,Left ,45.4745638891198 ,48.3173819075066 ,64.1755548077016
42.0593122 ,Left ,45.4839034130245 ,48.299510117896 ,64.1706333575896
42.074234 ,Left ,45.4853617018276 ,48.2782244170273 ,64.1632600485006
42.0968021 ,Left ,45.501919387898 ,48.2605710751443 ,64.153301200488
42.1192442 ,Left ,45.524372620255 ,48.2469475935247 ,64.1464366781354
42.1342944 ,Left ,45.524769351737 ,48.2374913536966 ,64.1414002967269
42.1566505 ,Left ,45.53799686233 ,48.2250843104897 ,64.143933833482
42.1791997 ,Left ,45.5606773632444 ,48.2107356042649 ,64.1500759752225
42.2017252 ,Left ,45.5638175443765 ,48.2055882008397 ,64.1571930869512
42.2170226 ,Left ,45.5682796645977 ,48.1965194619989 ,64.1734268467792
42.2392209 ,Left ,45.5704028846611 ,48.1774756990767 ,64.1870829406652
42.2616488 ,Left ,45.5764538860587 ,48.1467892319606 ,64.210857305054
42.2767132 ,Left ,45.6007233571458 ,48.1146715690724 ,64.2218740253505
42.2992261 ,Left ,45.6055237743584 ,48.1004442397423 ,64.2323135563404
42.3216756 ,Left ,45.5571023071109 ,48.1029042216418 ,64.2469591119868
42.3368105 ,Left ,45.4986609204109 ,48.1265133457287 ,64.2675785978698
42.3593616 ,Left ,45.4968498390138 ,48.1529514294371 ,64.280725090105
42.3817251 ,Left ,45.5623370026063 ,48.1728782983448 ,64.2865153494033
42.3968655 ,Left ,45.6306382308494 ,48.1844390691 ,64.289226120861
42.4195474 ,Left ,45.6342488963338 ,48.1871112919347 ,64.2881781823065
42.4417956 ,Left ,45.5948517926751 ,48.1860797190337 ,64.2865500828602
42.4566819 ,Left ,45.5341833067043 ,48.1733495520871 ,64.287659491005
42.4795342 ,Left ,45.4901782420767 ,48.1635580531068 ,64.2884936487582
42.5017506 ,Left ,45.4841034228437 ,48.1640829372423 ,64.2869957041804
42.5168497 ,Left ,45.5067079777222 ,48.1710282418134 ,64.2896670578788
42.5391938 ,Left ,45.5281645625894 ,48.1819899936141 ,64.3000122190871
42.5616753 ,Left ,45.5404480071858 ,48.1976773431417 ,64.3153133730335
42.5788779 ,Left ,45.5430504260251 ,48.211221169381 ,64.3301825756752
42.5991969 ,Left ,45.5439528643385 ,48.2124282132924 ,64.3451826883203
42.6291893 ,Left ,45.5379662223046 ,48.2040045851808 ,64.3602030556139
42.6443356 ,Left ,45.5232788578267 ,48.1987033405145 ,64.3697861461825
42.6666105 ,Left ,45.5117106051258 ,48.193926546812 ,64.3740119306872
42.7040244 ,Left ,45.4969428669486 ,48.1805141299409 ,64.3697406657313
42.7267835 ,Left ,45.4566614032534 ,48.1868760467227 ,64.3689774734269
42.756796 ,Left ,45.4229135004621 ,48.1867533514467 ,64.3428444894474
