timestamp,event,roll,pitch,yaw
0.0357344 ,Left ,61,8282243584458 ,45,1121527064729 ,56,8985899249079
0.0357363 ,Left ,61,8282243584458 ,45,1121527064729 ,56,8985899249079
0.0357378 ,Left ,61,8282243584458 ,45,1121527064729 ,56,8985899249079
0.0357393 ,Left ,61,8282243584458 ,45,1121527064729 ,56,8985899249079
0.0357408 ,Left ,61,8282243584458 ,45,1121527064729 ,56,8985899249079
0.0357422 ,Left ,61,8282243584458 ,45,1121527064729 ,56,8985899249079
0.0582652 ,Left ,61,8245962158217 ,45,1071016754571 ,56,9080060448683
0.0582672 ,Left ,61,8245962158217 ,45,1071016754571 ,56,9080060448683
0.0582687 ,Left ,61,8245962158217 ,45,1071016754571 ,56,9080060448683
0.0582703 ,Left ,61,8245962158217 ,45,1071016754571 ,56,9080060448683
0.0582718 ,Left ,61,8245962158217 ,45,1071016754571 ,56,9080060448683
0.0582733 ,Left ,61,8245962158217 ,45,1071016754571 ,56,9080060448683
0.1038907 ,Left ,61,8247334778852 ,45,1083882120488 ,56,9154241321699
0.1039063 ,Left ,61,8247334778852 ,45,1083882120488 ,56,9154241321699
0.1039201 ,Left ,61,8247334778852 ,45,1083882120488 ,56,9154241321699
0.1039337 ,Left ,61,8247334778852 ,45,1083882120488 ,56,9154241321699
0.1039459 ,Left ,61,8247334778852 ,45,1083882120488 ,56,9154241321699
0.1039555 ,Left ,61,8247334778852 ,45,1083882120488 ,56,9154241321699
0.1255152 ,Left ,61,8178564101562 ,45,1072227289968 ,56,9177114991002
0.1255173 ,Left ,61,8178564101562 ,45,1072227289968 ,56,9177114991002
0.125519 ,Left ,61,8178564101562 ,45,1072227289968 ,56,9177114991002
0.1255207 ,Left ,61,8178564101562 ,45,1072227289968 ,56,9177114991002
0.1255224 ,Left ,61,8178564101562 ,45,1072227289968 ,56,9177114991002
0.125524 ,Left ,61,8178564101562 ,45,1072227289968 ,56,9177114991002
0.1557378 ,Left ,61,8179806104438 ,45,0973970321878 ,56,9204949427164
0.1557397 ,Left ,61,8179806104438 ,45,0973970321878 ,56,9204949427164
0.1557412 ,Left ,61,8179806104438 ,45,0973970321878 ,56,9204949427164
0.1557427 ,Left ,61,8179806104438 ,45,0973970321878 ,56,9204949427164
0.1557442 ,Left ,61,8179806104438 ,45,0973970321878 ,56,9204949427164
0.1557457 ,Left ,61,8179806104438 ,45,0973970321878 ,56,9204949427164
0.1784285 ,Left ,61,8126111245196 ,45,0932585858713 ,56,9236811984294
0.1784308 ,Left ,61,8126111245196 ,45,0932585858713 ,56,9236811984294
0.1784327 ,Left ,61,8126111245196 ,45,0932585858713 ,56,9236811984294
0.1784346 ,Left ,61,8126111245196 ,45,0932585858713 ,56,9236811984294
0.1784365 ,Left ,61,8126111245196 ,45,0932585858713 ,56,9236811984294
0.1784384 ,Left ,61,8126111245196 ,45,0932585858713 ,56,9236811984294
0.2235428 ,Left ,61,809530007246 ,45,0878280351425 ,56,928829952431
0.2235473 ,Left ,61,809530007246 ,45,0878280351425 ,56,928829952431
0.2235509 ,Left ,61,809530007246 ,45,0878280351425 ,56,928829952431
0.2235545 ,Left ,61,809530007246 ,45,0878280351425 ,56,928829952431
0.2235581 ,Left ,61,809530007246 ,45,0878280351425 ,56,928829952431
0.2235616 ,Left ,61,809530007246 ,45,0878280351425 ,56,928829952431
0.2758129 ,Left ,61,7971924463204 ,45,0761868559148 ,56,9494111227672
0.2758155 ,Left ,61,7971924463204 ,45,0761868559148 ,56,9494111227672
0.2758176 ,Left ,61,7971924463204 ,45,0761868559148 ,56,9494111227672
0.2758197 ,Left ,61,7971924463204 ,45,0761868559148 ,56,9494111227672
0.2758218 ,Left ,61,7971924463204 ,45,0761868559148 ,56,9494111227672
0.2758239 ,Left ,61,7971924463204 ,45,0761868559148 ,56,9494111227672
0.2982188 ,Left ,61,7919142431661 ,45,0728287536535 ,56,9505308875368
0.2982207 ,Left ,61,7919142431661 ,45,0728287536535 ,56,9505308875368
0.2982222 ,Left ,61,7919142431661 ,45,0728287536535 ,56,9505308875368
0.2982237 ,Left ,61,7919142431661 ,45,0728287536535 ,56,9505308875368
0.2982252 ,Left ,61,7919142431661 ,45,0728287536535 ,56,9505308875368
0.2982267 ,Left ,61,7919142431661 ,45,0728287536535 ,56,9505308875368
0.3358981 ,Left ,61,7958030062394 ,45,0693352103327 ,56,9513120745857
0.3359002 ,Left ,61,7958030062394 ,45,0693352103327 ,56,9513120745857
0.3359018 ,Left ,61,7958030062394 ,45,0693352103327 ,56,9513120745857
0.3359034 ,Left ,61,7958030062394 ,45,0693352103327 ,56,9513120745857
0.3359051 ,Left ,61,7958030062394 ,45,0693352103327 ,56,9513120745857
0.3359067 ,Left ,61,7958030062394 ,45,0693352103327 ,56,9513120745857
0.358921 ,Left ,61,7888093153134 ,45,0671432165144 ,56,9509415782599
0.3589288 ,Left ,61,7888093153134 ,45,0671432165144 ,56,9509415782599
0.3589356 ,Left ,61,7888093153134 ,45,0671432165144 ,56,9509415782599
0.3589423 ,Left ,61,7888093153134 ,45,0671432165144 ,56,9509415782599
0.358949 ,Left ,61,7888093153134 ,45,0671432165144 ,56,9509415782599
0.3589557 ,Left ,61,7888093153134 ,45,0671432165144 ,56,9509415782599
0.3964494 ,Left ,61,7853793042104 ,45,0694740354284 ,56,9479575331524
0.3964573 ,Left ,61,7853793042104 ,45,0694740354284 ,56,9479575331524
0.396464 ,Left ,61,7853793042104 ,45,0694740354284 ,56,9479575331524
0.3964776 ,Left ,61,7853793042104 ,45,0694740354284 ,56,9479575331524
0.3964865 ,Left ,61,7853793042104 ,45,0694740354284 ,56,9479575331524
0.3964962 ,Left ,61,7853793042104 ,45,0694740354284 ,56,9479575331524
0.418913 ,Left ,61,7853793042104 ,45,0694740354284 ,56,9479575331524
0.418921 ,Left ,61,7853793042104 ,45,0694740354284 ,56,9479575331524
0.4189277 ,Left ,61,7853793042104 ,45,0694740354284 ,56,9479575331524
0.4189345 ,Left ,61,7853793042104 ,45,0694740354284 ,56,9479575331524
0.4189412 ,Left ,61,7853793042104 ,45,0694740354284 ,56,9479575331524
0.4189479 ,Left ,61,7853793042104 ,45,0694740354284 ,56,9479575331524
0.4334185 ,Left ,61,7942046345317 ,45,0662393722252 ,56,9395995513836
0.433433 ,Left ,61,7942046345317 ,45,0662393722252 ,56,9395995513836
0.4334399 ,Left ,61,7942046345317 ,45,0662393722252 ,56,9395995513836
0.4334457 ,Left ,61,7942046345317 ,45,0662393722252 ,56,9395995513836
0.4334511 ,Left ,61,7942046345317 ,45,0662393722252 ,56,9395995513836
0.4334564 ,Left ,61,7942046345317 ,45,0662393722252 ,56,9395995513836
0.4557558 ,Left ,61,7934522618095 ,45,0595193550325 ,56,9303935003677
0.4557577 ,Left ,61,7934522618095 ,45,0595193550325 ,56,9303935003677
0.4557592 ,Left ,61,7934522618095 ,45,0595193550325 ,56,9303935003677
0.4557607 ,Left ,61,7934522618095 ,45,0595193550325 ,56,9303935003677
0.4557622 ,Left ,61,7934522618095 ,45,0595193550325 ,56,9303935003677
0.4557637 ,Left ,61,7934522618095 ,45,0595193550325 ,56,9303935003677
0.4706843 ,Left ,61,7939937409239 ,45,0588748998386 ,56,9213639350187
0.4706862 ,Left ,61,7939937409239 ,45,0588748998386 ,56,9213639350187
0.4706878 ,Left ,61,7939937409239 ,45,0588748998386 ,56,9213639350187
0.4706894 ,Left ,61,7939937409239 ,45,0588748998386 ,56,9213639350187
0.4706909 ,Left ,61,7939937409239 ,45,0588748998386 ,56,9213639350187
0.4706924 ,Left ,61,7939937409239 ,45,0588748998386 ,56,9213639350187
0.4934658 ,Left ,61,7948844861081 ,45,0504711845065 ,56,9204758492699
0.4934683 ,Left ,61,7948844861081 ,45,0504711845065 ,56,9204758492699
0.4934698 ,Left ,61,7948844861081 ,45,0504711845065 ,56,9204758492699
0.4934714 ,Left ,61,7948844861081 ,45,0504711845065 ,56,9204758492699
0.4934729 ,Left ,61,7948844861081 ,45,0504711845065 ,56,9204758492699
0.4934743 ,Left ,61,7948844861081 ,45,0504711845065 ,56,9204758492699
0.5159414 ,Left ,61,7940751913559 ,45,0434873040809 ,56,9228480190322
0.5159438 ,Left ,61,7940751913559 ,45,0434873040809 ,56,9228480190322
0.5159456 ,Left ,61,7940751913559 ,45,0434873040809 ,56,9228480190322
0.5159473 ,Left ,61,7940751913559 ,45,0434873040809 ,56,9228480190322
0.515949 ,Left ,61,7940751913559 ,45,0434873040809 ,56,9228480190322
0.5159636 ,Left ,61,7940751913559 ,45,0434873040809 ,56,9228480190322
0.530662 ,Left ,61,7861259443572 ,45,0383138109129 ,56,9303290060976
0.5306638 ,Left ,61,7861259443572 ,45,0383138109129 ,56,9303290060976
0.5306653 ,Left ,61,7861259443572 ,45,0383138109129 ,56,9303290060976
0.5306668 ,Left ,61,7861259443572 ,45,0383138109129 ,56,9303290060976
0.5306683 ,Left ,61,7861259443572 ,45,0383138109129 ,56,9303290060976
0.5306698 ,Left ,61,7861259443572 ,45,0383138109129 ,56,9303290060976
0.5530818 ,Left ,61,7735182729921 ,45,0352149120615 ,56,9407245710633
0.5530854 ,Left ,61,7735182729921 ,45,0352149120615 ,56,9407245710633
0.5530871 ,Left ,61,7735182729921 ,45,0352149120615 ,56,9407245710633
0.5530887 ,Left ,61,7735182729921 ,45,0352149120615 ,56,9407245710633
0.5530903 ,Left ,61,7735182729921 ,45,0352149120615 ,56,9407245710633
0.5530918 ,Left ,61,7735182729921 ,45,0352149120615 ,56,9407245710633
0.568441 ,Left ,61,7616922418951 ,45,033801885158 ,56,9521876243769
0.5684437 ,Left ,61,7616922418951 ,45,033801885158 ,56,9521876243769
0.5684457 ,Left ,61,7616922418951 ,45,033801885158 ,56,9521876243769
0.5684478 ,Left ,61,7616922418951 ,45,033801885158 ,56,9521876243769
0.56845 ,Left ,61,7616922418951 ,45,033801885158 ,56,9521876243769
0.5684521 ,Left ,61,7616922418951 ,45,033801885158 ,56,9521876243769
0.5908856 ,Left ,61,7500627756388 ,45,0339440493815 ,56,95949311164
0.5908875 ,Left ,61,7500627756388 ,45,0339440493815 ,56,95949311164
0.590889 ,Left ,61,7500627756388 ,45,0339440493815 ,56,95949311164
0.5908906 ,Left ,61,7500627756388 ,45,0339440493815 ,56,95949311164
0.590892 ,Left ,61,7500627756388 ,45,0339440493815 ,56,95949311164
0.5908935 ,Left ,61,7500627756388 ,45,0339440493815 ,56,95949311164
0.6132437 ,Left ,61,7498690574673 ,45,0323950477809 ,56,9636549873184
0.6132482 ,Left ,61,7498690574673 ,45,0323950477809 ,56,9636549873184
0.6132498 ,Left ,61,7498690574673 ,45,0323950477809 ,56,9636549873184
0.6132515 ,Left ,61,7498690574673 ,45,0323950477809 ,56,9636549873184
0.6132531 ,Left ,61,7498690574673 ,45,0323950477809 ,56,9636549873184
0.6132547 ,Left ,61,7498690574673 ,45,0323950477809 ,56,9636549873184
0.6282078 ,Left ,61,7445914855521 ,45,0290384615171 ,56,964792952029
0.6282103 ,Left ,61,7445914855521 ,45,0290384615171 ,56,964792952029
0.6282124 ,Left ,61,7445914855521 ,45,0290384615171 ,56,964792952029
0.6282145 ,Left ,61,7445914855521 ,45,0290384615171 ,56,964792952029
0.6282167 ,Left ,61,7445914855521 ,45,0290384615171 ,56,964792952029
0.6282187 ,Left ,61,7445914855521 ,45,0290384615171 ,56,964792952029
0.6510705 ,Left ,61,7465266621833 ,45,0299483435076 ,56,9716278113609
0.6510742 ,Left ,61,7465266621833 ,45,0299483435076 ,56,9716278113609
0.6510772 ,Left ,61,7465266621833 ,45,0299483435076 ,56,9716278113609
0.6510803 ,Left ,61,7465266621833 ,45,0299483435076 ,56,9716278113609
0.6510833 ,Left ,61,7465266621833 ,45,0299483435076 ,56,9716278113609
0.6510864 ,Left ,61,7465266621833 ,45,0299483435076 ,56,9716278113609
0.6733092 ,Left ,61,7398573763558 ,45,030604763965 ,56,9745366738352
0.673313 ,Left ,61,7398573763558 ,45,030604763965 ,56,9745366738352
0.6733161 ,Left ,61,7398573763558 ,45,030604763965 ,56,9745366738352
0.6733192 ,Left ,61,7398573763558 ,45,030604763965 ,56,9745366738352
0.6733222 ,Left ,61,7398573763558 ,45,030604763965 ,56,9745366738352
0.6733252 ,Left ,61,7398573763558 ,45,030604763965 ,56,9745366738352
0.7035684 ,Left ,61,7400665802895 ,45,0324158559593 ,56,9751264734181
0.7035721 ,Left ,61,7400665802895 ,45,0324158559593 ,56,9751264734181
0.7035752 ,Left ,61,7400665802895 ,45,0324158559593 ,56,9751264734181
0.7035783 ,Left ,61,7400665802895 ,45,0324158559593 ,56,9751264734181
0.7035813 ,Left ,61,7400665802895 ,45,0324158559593 ,56,9751264734181
0.7035843 ,Left ,61,7400665802895 ,45,0324158559593 ,56,9751264734181
0.718628 ,Left ,61,7400665802895 ,45,0324158559593 ,56,9751264734181
0.7186316 ,Left ,61,7400665802895 ,45,0324158559593 ,56,9751264734181
0.7186347 ,Left ,61,7400665802895 ,45,0324158559593 ,56,9751264734181
0.7186377 ,Left ,61,7400665802895 ,45,0324158559593 ,56,9751264734181
0.7186407 ,Left ,61,7400665802895 ,45,0324158559593 ,56,9751264734181
0.7186438 ,Left ,61,7400665802895 ,45,0324158559593 ,56,9751264734181
0.7482188 ,Left ,61,7378946252217 ,45,0347474377515 ,56,9758346841261
0.7482206 ,Left ,61,7378946252217 ,45,0347474377515 ,56,9758346841261
0.7482221 ,Left ,61,7378946252217 ,45,0347474377515 ,56,9758346841261
0.7482236 ,Left ,61,7378946252217 ,45,0347474377515 ,56,9758346841261
0.7482251 ,Left ,61,7378946252217 ,45,0347474377515 ,56,9758346841261
0.7482266 ,Left ,61,7378946252217 ,45,0347474377515 ,56,9758346841261
0.7633668 ,Left ,61,7356432759433 ,45,0365687186006 ,56,9833777733379
0.7633688 ,Left ,61,7356432759433 ,45,0365687186006 ,56,9833777733379
0.7633703 ,Left ,61,7356432759433 ,45,0365687186006 ,56,9833777733379
0.7633719 ,Left ,61,7356432759433 ,45,0365687186006 ,56,9833777733379
0.7633734 ,Left ,61,7356432759433 ,45,0365687186006 ,56,9833777733379
0.7633749 ,Left ,61,7356432759433 ,45,0365687186006 ,56,9833777733379
0.7784483 ,Left ,61,7366066353761 ,45,0342501807666 ,56,9933169565554
0.7784502 ,Left ,61,7366066353761 ,45,0342501807666 ,56,9933169565554
0.7784517 ,Left ,61,7366066353761 ,45,0342501807666 ,56,9933169565554
0.7784533 ,Left ,61,7366066353761 ,45,0342501807666 ,56,9933169565554
0.7784548 ,Left ,61,7366066353761 ,45,0342501807666 ,56,9933169565554
0.7784562 ,Left ,61,7366066353761 ,45,0342501807666 ,56,9933169565554
0.8159301 ,Left ,61,7119989768632 ,45,0439052410829 ,57,0225895232407
0.8159321 ,Left ,61,7119989768632 ,45,0439052410829 ,57,0225895232407
0.8159338 ,Left ,61,7119989768632 ,45,0439052410829 ,57,0225895232407
0.8159355 ,Left ,61,7119989768632 ,45,0439052410829 ,57,0225895232407
0.8159371 ,Left ,61,7119989768632 ,45,0439052410829 ,57,0225895232407
0.8159387 ,Left ,61,7119989768632 ,45,0439052410829 ,57,0225895232407
0.8309203 ,Left ,61,693147595084 ,45,0554995612945 ,57,043757924402
0.8309227 ,Left ,61,693147595084 ,45,0554995612945 ,57,043757924402
0.8309246 ,Left ,61,693147595084 ,45,0554995612945 ,57,043757924402
0.8309266 ,Left ,61,693147595084 ,45,0554995612945 ,57,043757924402
0.8309286 ,Left ,61,693147595084 ,45,0554995612945 ,57,043757924402
0.8309305 ,Left ,61,693147595084 ,45,0554995612945 ,57,043757924402
0.8534221 ,Left ,61,676448851674 ,45,0692956170953 ,57,0628286546541
0.8534247 ,Left ,61,676448851674 ,45,0692956170953 ,57,0628286546541
0.8534268 ,Left ,61,676448851674 ,45,0692956170953 ,57,0628286546541
0.853429 ,Left ,61,676448851674 ,45,0692956170953 ,57,0628286546541
0.853431 ,Left ,61,676448851674 ,45,0692956170953 ,57,0628286546541
0.8534331 ,Left ,61,676448851674 ,45,0692956170953 ,57,0628286546541
0.8760606 ,Left ,61,6582050863292 ,45,0853122460469 ,57,083060572107
0.8760643 ,Left ,61,6582050863292 ,45,0853122460469 ,57,083060572107
0.8760674 ,Left ,61,6582050863292 ,45,0853122460469 ,57,083060572107
0.8760735 ,Left ,61,6582050863292 ,45,0853122460469 ,57,083060572107
0.8760766 ,Left ,61,6582050863292 ,45,0853122460469 ,57,083060572107
0.8760796 ,Left ,61,6582050863292 ,45,0853122460469 ,57,083060572107
0.8908003 ,Left ,61,6497060879681 ,45,0954733244435 ,57,1001223954489
0.8908038 ,Left ,61,6497060879681 ,45,0954733244435 ,57,1001223954489
0.8908069 ,Left ,61,6497060879681 ,45,0954733244435 ,57,1001223954489
0.89081 ,Left ,61,6497060879681 ,45,0954733244435 ,57,1001223954489
0.890813 ,Left ,61,6497060879681 ,45,0954733244435 ,57,1001223954489
0.8908161 ,Left ,61,6497060879681 ,45,0954733244435 ,57,1001223954489
0.9208036 ,Left ,61,663255361695 ,45,0906600598083 ,57,112733245826
0.9208059 ,Left ,61,663255361695 ,45,0906600598083 ,57,112733245826
0.9208075 ,Left ,61,663255361695 ,45,0906600598083 ,57,112733245826
0.920809 ,Left ,61,663255361695 ,45,0906600598083 ,57,112733245826
0.9208105 ,Left ,61,663255361695 ,45,0906600598083 ,57,112733245826
0.9208119 ,Left ,61,663255361695 ,45,0906600598083 ,57,112733245826
0.943264 ,Left ,61,6832868582495 ,45,0687306007315 ,57,1213465851915
0.9432663 ,Left ,61,6832868582495 ,45,0687306007315 ,57,1213465851915
0.943268 ,Left ,61,6832868582495 ,45,0687306007315 ,57,1213465851915
0.9432697 ,Left ,61,6832868582495 ,45,0687306007315 ,57,1213465851915
0.9432714 ,Left ,61,6832868582495 ,45,0687306007315 ,57,1213465851915
0.9432731 ,Left ,61,6832868582495 ,45,0687306007315 ,57,1213465851915
0.9582936 ,Left ,61,70689608094 ,45,0255446925223 ,57,1222068766951
0.9582955 ,Left ,61,70689608094 ,45,0255446925223 ,57,1222068766951
0.958297 ,Left ,61,70689608094 ,45,0255446925223 ,57,1222068766951
0.9582985 ,Left ,61,70689608094 ,45,0255446925223 ,57,1222068766951
0.9583 ,Left ,61,70689608094 ,45,0255446925223 ,57,1222068766951
0.9583014 ,Left ,61,70689608094 ,45,0255446925223 ,57,1222068766951
0.9732034 ,Left ,61,7406305783524 ,44,9684228029996 ,57,1232800278629
0.9732055 ,Left ,61,7406305783524 ,44,9684228029996 ,57,1232800278629
0.9732071 ,Left ,61,7406305783524 ,44,9684228029996 ,57,1232800278629
0.9732087 ,Left ,61,7406305783524 ,44,9684228029996 ,57,1232800278629
0.9732103 ,Left ,61,7406305783524 ,44,9684228029996 ,57,1232800278629
0.9732154 ,Left ,61,7406305783524 ,44,9684228029996 ,57,1232800278629
0.9956932 ,Left ,61,7040157681195 ,44,9184245717999 ,57,1453213268737
0.9956951 ,Left ,61,7040157681195 ,44,9184245717999 ,57,1453213268737
0.9956966 ,Left ,61,7040157681195 ,44,9184245717999 ,57,1453213268737
0.9956981 ,Left ,61,7040157681195 ,44,9184245717999 ,57,1453213268737
0.9956996 ,Left ,61,7040157681195 ,44,9184245717999 ,57,1453213268737
0.9957011 ,Left ,61,7040157681195 ,44,9184245717999 ,57,1453213268737
1.0105927 ,Left ,61,6704425266659 ,44,8946073239047 ,57,1899884718682
1.0105947 ,Left ,61,6704425266659 ,44,8946073239047 ,57,1899884718682
1.0105964 ,Left ,61,6704425266659 ,44,8946073239047 ,57,1899884718682
1.010598 ,Left ,61,6704425266659 ,44,8946073239047 ,57,1899884718682
1.0105995 ,Left ,61,6704425266659 ,44,8946073239047 ,57,1899884718682
1.010601 ,Left ,61,6704425266659 ,44,8946073239047 ,57,1899884718682
1.0331798 ,Left ,61,6286444412518 ,44,9096355164735 ,57,2293034634627
1.0331817 ,Left ,61,6286444412518 ,44,9096355164735 ,57,2293034634627
1.0331831 ,Left ,61,6286444412518 ,44,9096355164735 ,57,2293034634627
1.0331847 ,Left ,61,6286444412518 ,44,9096355164735 ,57,2293034634627
1.0331862 ,Left ,61,6286444412518 ,44,9096355164735 ,57,2293034634627
1.0331876 ,Left ,61,6286444412518 ,44,9096355164735 ,57,2293034634627
1.0557836 ,Left ,61,6085434622182 ,44,9456005870822 ,57,2539940767928
1.0557858 ,Left ,61,6085434622182 ,44,9456005870822 ,57,2539940767928
1.0557876 ,Left ,61,6085434622182 ,44,9456005870822 ,57,2539940767928
1.0557894 ,Left ,61,6085434622182 ,44,9456005870822 ,57,2539940767928
1.0557911 ,Left ,61,6085434622182 ,44,9456005870822 ,57,2539940767928
1.0557928 ,Left ,61,6085434622182 ,44,9456005870822 ,57,2539940767928
1.0708027 ,Left ,61,618723705312 ,44,993021923305 ,57,2613405781935
1.0708049 ,Left ,61,618723705312 ,44,993021923305 ,57,2613405781935
1.0708066 ,Left ,61,618723705312 ,44,993021923305 ,57,2613405781935
1.0708085 ,Left ,61,618723705312 ,44,993021923305 ,57,2613405781935
1.0708102 ,Left ,61,618723705312 ,44,993021923305 ,57,2613405781935
1.0708119 ,Left ,61,618723705312 ,44,993021923305 ,57,2613405781935
1.093164 ,Left ,61,6381951853047 ,45,051029060214 ,57,2517680966588
1.0931659 ,Left ,61,6381951853047 ,45,051029060214 ,57,2517680966588
1.0931674 ,Left ,61,6381951853047 ,45,051029060214 ,57,2517680966588
1.0931691 ,Left ,61,6381951853047 ,45,051029060214 ,57,2517680966588
1.0931707 ,Left ,61,6381951853047 ,45,051029060214 ,57,2517680966588
1.0931722 ,Left ,61,6381951853047 ,45,051029060214 ,57,2517680966588
1.1159358 ,Left ,61,6399639764683 ,45,1050149799946 ,57,2332567954247
1.1159382 ,Left ,61,6399639764683 ,45,1050149799946 ,57,2332567954247
1.1159401 ,Left ,61,6399639764683 ,45,1050149799946 ,57,2332567954247
1.1159421 ,Left ,61,6399639764683 ,45,1050149799946 ,57,2332567954247
1.115944 ,Left ,61,6399639764683 ,45,1050149799946 ,57,2332567954247
1.1159459 ,Left ,61,6399639764683 ,45,1050149799946 ,57,2332567954247
1.1307005 ,Left ,61,6453518721041 ,45,1352688042522 ,57,1974828217489
1.1307029 ,Left ,61,6453518721041 ,45,1352688042522 ,57,1974828217489
1.130705 ,Left ,61,6453518721041 ,45,1352688042522 ,57,1974828217489
1.1307072 ,Left ,61,6453518721041 ,45,1352688042522 ,57,1974828217489
1.1307093 ,Left ,61,6453518721041 ,45,1352688042522 ,57,1974828217489
1.1307114 ,Left ,61,6453518721041 ,45,1352688042522 ,57,1974828217489
1.1532107 ,Left ,61,6595805451837 ,45,1443786052843 ,57,1453805108515
1.1532139 ,Left ,61,6595805451837 ,45,1443786052843 ,57,1453805108515
1.1532163 ,Left ,61,6595805451837 ,45,1443786052843 ,57,1453805108515
1.1532186 ,Left ,61,6595805451837 ,45,1443786052843 ,57,1453805108515
1.1532209 ,Left ,61,6595805451837 ,45,1443786052843 ,57,1453805108515
1.1532233 ,Left ,61,6595805451837 ,45,1443786052843 ,57,1453805108515
1.1760016 ,Left ,61,6542664054526 ,45,13773049004 ,57,108272858963
1.1760053 ,Left ,61,6542664054526 ,45,13773049004 ,57,108272858963
1.1760083 ,Left ,61,6542664054526 ,45,13773049004 ,57,108272858963
1.1760114 ,Left ,61,6542664054526 ,45,13773049004 ,57,108272858963
1.1760144 ,Left ,61,6542664054526 ,45,13773049004 ,57,108272858963
1.1760175 ,Left ,61,6542664054526 ,45,13773049004 ,57,108272858963
1.191057 ,Left ,61,6759749123885 ,45,1468395984377 ,57,0660844956043
1.1910608 ,Left ,61,6759749123885 ,45,1468395984377 ,57,0660844956043
1.1910638 ,Left ,61,6759749123885 ,45,1468395984377 ,57,0660844956043
1.191067 ,Left ,61,6759749123885 ,45,1468395984377 ,57,0660844956043
1.19107 ,Left ,61,6759749123885 ,45,1468395984377 ,57,0660844956043
1.191073 ,Left ,61,6759749123885 ,45,1468395984377 ,57,0660844956043
1.2141472 ,Left ,61,7029643032895 ,45,1182457124115 ,57,0192040499308
1.2141552 ,Left ,61,7029643032895 ,45,1182457124115 ,57,0192040499308
1.214162 ,Left ,61,7029643032895 ,45,1182457124115 ,57,0192040499308
1.2141687 ,Left ,61,7029643032895 ,45,1182457124115 ,57,0192040499308
1.2141754 ,Left ,61,7029643032895 ,45,1182457124115 ,57,0192040499308
1.2141821 ,Left ,61,7029643032895 ,45,1182457124115 ,57,0192040499308
1.2359836 ,Left ,61,6765327741653 ,45,0602690295755 ,56,9763032762287
1.2359873 ,Left ,61,6765327741653 ,45,0602690295755 ,56,9763032762287
1.2359903 ,Left ,61,6765327741653 ,45,0602690295755 ,56,9763032762287
1.2359933 ,Left ,61,6765327741653 ,45,0602690295755 ,56,9763032762287
1.2359962 ,Left ,61,6765327741653 ,45,0602690295755 ,56,9763032762287
1.2359992 ,Left ,61,6765327741653 ,45,0602690295755 ,56,9763032762287
1.2509657 ,Left ,61,6800065549351 ,44,9995136147198 ,56,9460424638985
1.2509683 ,Left ,61,6800065549351 ,44,9995136147198 ,56,9460424638985
1.2509704 ,Left ,61,6800065549351 ,44,9995136147198 ,56,9460424638985
1.2509725 ,Left ,61,6800065549351 ,44,9995136147198 ,56,9460424638985
1.2509747 ,Left ,61,6800065549351 ,44,9995136147198 ,56,9460424638985
1.2509767 ,Left ,61,6800065549351 ,44,9995136147198 ,56,9460424638985
1.2733295 ,Left ,61,6845240052517 ,44,9794079192323 ,56,9298482356885
1.2733321 ,Left ,61,6845240052517 ,44,9794079192323 ,56,9298482356885
1.2733342 ,Left ,61,6845240052517 ,44,9794079192323 ,56,9298482356885
1.2733364 ,Left ,61,6845240052517 ,44,9794079192323 ,56,9298482356885
1.2733385 ,Left ,61,6845240052517 ,44,9794079192323 ,56,9298482356885
1.2733405 ,Left ,61,6845240052517 ,44,9794079192323 ,56,9298482356885
1.2958705 ,Left ,61,6988308941758 ,44,9381702726883 ,56,942682361774
1.2958731 ,Left ,61,6988308941758 ,44,9381702726883 ,56,942682361774
1.2958752 ,Left ,61,6988308941758 ,44,9381702726883 ,56,942682361774
1.2958773 ,Left ,61,6988308941758 ,44,9381702726883 ,56,942682361774
1.2958794 ,Left ,61,6988308941758 ,44,9381702726883 ,56,942682361774
1.2958815 ,Left ,61,6988308941758 ,44,9381702726883 ,56,942682361774
1.3108238 ,Left ,61,7919100729424 ,44,9259975325979 ,56,9550129322897
1.3108264 ,Left ,61,7919100729424 ,44,9259975325979 ,56,9550129322897
1.3108286 ,Left ,61,7919100729424 ,44,9259975325979 ,56,9550129322897
1.3108307 ,Left ,61,7919100729424 ,44,9259975325979 ,56,9550129322897
1.3108328 ,Left ,61,7919100729424 ,44,9259975325979 ,56,9550129322897
1.3108349 ,Left ,61,7919100729424 ,44,9259975325979 ,56,9550129322897
1.3332819 ,Left ,61,8425193431194 ,44,9388893490137 ,56,9514470200772
1.3332838 ,Left ,61,8425193431194 ,44,9388893490137 ,56,9514470200772
1.3332853 ,Left ,61,8425193431194 ,44,9388893490137 ,56,9514470200772
1.3332868 ,Left ,61,8425193431194 ,44,9388893490137 ,56,9514470200772
1.3332883 ,Left ,61,8425193431194 ,44,9388893490137 ,56,9514470200772
1.3332898 ,Left ,61,8425193431194 ,44,9388893490137 ,56,9514470200772
1.3559195 ,Left ,61,7913138155697 ,44,9698796354551 ,56,9423685915512
1.3559217 ,Left ,61,7913138155697 ,44,9698796354551 ,56,9423685915512
1.3559235 ,Left ,61,7913138155697 ,44,9698796354551 ,56,9423685915512
1.3559253 ,Left ,61,7913138155697 ,44,9698796354551 ,56,9423685915512
1.355927 ,Left ,61,7913138155697 ,44,9698796354551 ,56,9423685915512
1.3559287 ,Left ,61,7913138155697 ,44,9698796354551 ,56,9423685915512
1.3706562 ,Left ,61,7492913744811 ,44,9887695992267 ,56,9303591786097
1.3706583 ,Left ,61,7492913744811 ,44,9887695992267 ,56,9303591786097
1.3706601 ,Left ,61,7492913744811 ,44,9887695992267 ,56,9303591786097
1.3706619 ,Left ,61,7492913744811 ,44,9887695992267 ,56,9303591786097
1.3706637 ,Left ,61,7492913744811 ,44,9887695992267 ,56,9303591786097
1.3706655 ,Left ,61,7492913744811 ,44,9887695992267 ,56,9303591786097
1.393217 ,Left ,61,7883814200767 ,44,975319197537 ,56,9003870818989
1.3932201 ,Left ,61,7883814200767 ,44,975319197537 ,56,9003870818989
1.3932219 ,Left ,61,7883814200767 ,44,975319197537 ,56,9003870818989
1.3932237 ,Left ,61,7883814200767 ,44,975319197537 ,56,9003870818989
1.3932254 ,Left ,61,7883814200767 ,44,975319197537 ,56,9003870818989
1.3932271 ,Left ,61,7883814200767 ,44,975319197537 ,56,9003870818989
1.4156683 ,Left ,61,7678375239298 ,44,9373353317574 ,56,8622147592217
1.4156708 ,Left ,61,7678375239298 ,44,9373353317574 ,56,8622147592217
1.4156729 ,Left ,61,7678375239298 ,44,9373353317574 ,56,8622147592217
1.415675 ,Left ,61,7678375239298 ,44,9373353317574 ,56,8622147592217
1.4156771 ,Left ,61,7678375239298 ,44,9373353317574 ,56,8622147592217
1.4156792 ,Left ,61,7678375239298 ,44,9373353317574 ,56,8622147592217
1.4306421 ,Left ,61,7216988009706 ,44,8694682924952 ,56,8156798672251
1.4306438 ,Left ,61,7216988009706 ,44,8694682924952 ,56,8156798672251
1.4306453 ,Left ,61,7216988009706 ,44,8694682924952 ,56,8156798672251
1.4306469 ,Left ,61,7216988009706 ,44,8694682924952 ,56,8156798672251
1.4306519 ,Left ,61,7216988009706 ,44,8694682924952 ,56,8156798672251
1.4306534 ,Left ,61,7216988009706 ,44,8694682924952 ,56,8156798672251
1.4533235 ,Left ,61,6781780354814 ,44,7823852807125 ,56,7771922653831
1.4533257 ,Left ,61,6781780354814 ,44,7823852807125 ,56,7771922653831
1.4533273 ,Left ,61,6781780354814 ,44,7823852807125 ,56,7771922653831
1.4533289 ,Left ,61,6781780354814 ,44,7823852807125 ,56,7771922653831
1.4533305 ,Left ,61,6781780354814 ,44,7823852807125 ,56,7771922653831
1.4533321 ,Left ,61,6781780354814 ,44,7823852807125 ,56,7771922653831
1.4834743 ,Left ,61,7312343337898 ,44,6860878378444 ,56,7588321303919
1.4834766 ,Left ,61,7312343337898 ,44,6860878378444 ,56,7588321303919
1.4834784 ,Left ,61,7312343337898 ,44,6860878378444 ,56,7588321303919
1.4834803 ,Left ,61,7312343337898 ,44,6860878378444 ,56,7588321303919
1.4834821 ,Left ,61,7312343337898 ,44,6860878378444 ,56,7588321303919
1.4834838 ,Left ,61,7312343337898 ,44,6860878378444 ,56,7588321303919
1.4983374 ,Left ,61,7976416730679 ,44,6466722890618 ,56,7780947580491
1.4983403 ,Left ,61,7976416730679 ,44,6466722890618 ,56,7780947580491
1.4983428 ,Left ,61,7976416730679 ,44,6466722890618 ,56,7780947580491
1.4983452 ,Left ,61,7976416730679 ,44,6466722890618 ,56,7780947580491
1.4983476 ,Left ,61,7976416730679 ,44,6466722890618 ,56,7780947580491
1.4983501 ,Left ,61,7976416730679 ,44,6466722890618 ,56,7780947580491
1.520832 ,Left ,61,7968041644261 ,44,6788680165117 ,56,7988124946262
1.5208342 ,Left ,61,7968041644261 ,44,6788680165117 ,56,7988124946262
1.5208357 ,Left ,61,7968041644261 ,44,6788680165117 ,56,7988124946262
1.5208372 ,Left ,61,7968041644261 ,44,6788680165117 ,56,7988124946262
1.5208387 ,Left ,61,7968041644261 ,44,6788680165117 ,56,7988124946262
1.5208401 ,Left ,61,7968041644261 ,44,6788680165117 ,56,7988124946262
1.535703 ,Left ,61,7398025720512 ,44,716363110697 ,56,8387804063055
1.5357051 ,Left ,61,7398025720512 ,44,716363110697 ,56,8387804063055
1.5357066 ,Left ,61,7398025720512 ,44,716363110697 ,56,8387804063055
1.5357082 ,Left ,61,7398025720512 ,44,716363110697 ,56,8387804063055
1.5357097 ,Left ,61,7398025720512 ,44,716363110697 ,56,8387804063055
1.5357112 ,Left ,61,7398025720512 ,44,716363110697 ,56,8387804063055
1.5584658 ,Left ,61,7598793369116 ,44,7661733429334 ,56,8744587811847
1.5584677 ,Left ,61,7598793369116 ,44,7661733429334 ,56,8744587811847
1.5584692 ,Left ,61,7598793369116 ,44,7661733429334 ,56,8744587811847
1.5584707 ,Left ,61,7598793369116 ,44,7661733429334 ,56,8744587811847
1.5584722 ,Left ,61,7598793369116 ,44,7661733429334 ,56,8744587811847
1.5584736 ,Left ,61,7598793369116 ,44,7661733429334 ,56,8744587811847
1.5733359 ,Left ,61,7839298526842 ,44,8100679173931 ,56,9008782564811
1.5733377 ,Left ,61,7839298526842 ,44,8100679173931 ,56,9008782564811
1.5733392 ,Left ,61,7839298526842 ,44,8100679173931 ,56,9008782564811
1.5733408 ,Left ,61,7839298526842 ,44,8100679173931 ,56,9008782564811
1.5733423 ,Left ,61,7839298526842 ,44,8100679173931 ,56,9008782564811
1.5733438 ,Left ,61,7839298526842 ,44,8100679173931 ,56,9008782564811
1.5959301 ,Left ,61,736213039003 ,44,8977315627197 ,56,9122754020101
1.5959323 ,Left ,61,736213039003 ,44,8977315627197 ,56,9122754020101
1.5959342 ,Left ,61,736213039003 ,44,8977315627197 ,56,9122754020101
1.595936 ,Left ,61,736213039003 ,44,8977315627197 ,56,9122754020101
1.5959377 ,Left ,61,736213039003 ,44,8977315627197 ,56,9122754020101
1.5959394 ,Left ,61,736213039003 ,44,8977315627197 ,56,9122754020101
1.6109213 ,Left ,61,7288844996334 ,44,9584222922116 ,56,8988686774906
1.6109239 ,Left ,61,7288844996334 ,44,9584222922116 ,56,8988686774906
1.6109284 ,Left ,61,7288844996334 ,44,9584222922116 ,56,8988686774906
1.6109305 ,Left ,61,7288844996334 ,44,9584222922116 ,56,8988686774906
1.6109326 ,Left ,61,7288844996334 ,44,9584222922116 ,56,8988686774906
1.6109347 ,Left ,61,7288844996334 ,44,9584222922116 ,56,8988686774906
1.6411537 ,Left ,61,6678944153571 ,44,9990618851065 ,56,8984169815594
1.6411575 ,Left ,61,6678944153571 ,44,9990618851065 ,56,8984169815594
1.6411605 ,Left ,61,6678944153571 ,44,9990618851065 ,56,8984169815594
1.6411635 ,Left ,61,6678944153571 ,44,9990618851065 ,56,8984169815594
1.6411665 ,Left ,61,6678944153571 ,44,9990618851065 ,56,8984169815594
1.6411695 ,Left ,61,6678944153571 ,44,9990618851065 ,56,8984169815594
1.6640424 ,Left ,61,6824024831968 ,45,0459202582642 ,56,8683355942836
1.6640513 ,Left ,61,6824024831968 ,45,0459202582642 ,56,8683355942836
1.6640579 ,Left ,61,6824024831968 ,45,0459202582642 ,56,8683355942836
1.6640645 ,Left ,61,6824024831968 ,45,0459202582642 ,56,8683355942836
1.6640711 ,Left ,61,6824024831968 ,45,0459202582642 ,56,8683355942836
1.6640778 ,Left ,61,6824024831968 ,45,0459202582642 ,56,8683355942836
1.693649 ,Left ,61,6431610779438 ,45,0875250966915 ,56,8401236244886
1.6936632 ,Left ,61,6431610779438 ,45,0875250966915 ,56,8401236244886
1.6936844 ,Left ,61,6431610779438 ,45,0875250966915 ,56,8401236244886
1.6936949 ,Left ,61,6431610779438 ,45,0875250966915 ,56,8401236244886
1.6937018 ,Left ,61,6431610779438 ,45,0875250966915 ,56,8401236244886
1.6937084 ,Left ,61,6431610779438 ,45,0875250966915 ,56,8401236244886
1.7159027 ,Left ,61,6722118456991 ,45,0308280545811 ,56,8549872688044
1.7159053 ,Left ,61,6722118456991 ,45,0308280545811 ,56,8549872688044
1.7159075 ,Left ,61,6722118456991 ,45,0308280545811 ,56,8549872688044
1.7159096 ,Left ,61,6722118456991 ,45,0308280545811 ,56,8549872688044
1.7159118 ,Left ,61,6722118456991 ,45,0308280545811 ,56,8549872688044
1.7159139 ,Left ,61,6722118456991 ,45,0308280545811 ,56,8549872688044
1.7458841 ,Left ,61,739704992549 ,44,9555311086341 ,56,8734715234535
1.7458865 ,Left ,61,739704992549 ,44,9555311086341 ,56,8734715234535
1.7458883 ,Left ,61,739704992549 ,44,9555311086341 ,56,8734715234535
1.7458902 ,Left ,61,739704992549 ,44,9555311086341 ,56,8734715234535
1.7458921 ,Left ,61,739704992549 ,44,9555311086341 ,56,8734715234535
1.745894 ,Left ,61,739704992549 ,44,9555311086341 ,56,8734715234535
1.7607315 ,Left ,61,8159980952719 ,44,9567201486971 ,56,850498589216
1.7607337 ,Left ,61,8159980952719 ,44,9567201486971 ,56,850498589216
1.7607355 ,Left ,61,8159980952719 ,44,9567201486971 ,56,850498589216
1.7607374 ,Left ,61,8159980952719 ,44,9567201486971 ,56,850498589216
1.7607392 ,Left ,61,8159980952719 ,44,9567201486971 ,56,850498589216
1.7607411 ,Left ,61,8159980952719 ,44,9567201486971 ,56,850498589216
1.7834579 ,Left ,61,7875952491068 ,44,9988087750557 ,56,8194053325608
1.7834598 ,Left ,61,7875952491068 ,44,9988087750557 ,56,8194053325608
1.7834613 ,Left ,61,7875952491068 ,44,9988087750557 ,56,8194053325608
1.7834628 ,Left ,61,7875952491068 ,44,9988087750557 ,56,8194053325608
1.7834644 ,Left ,61,7875952491068 ,44,9988087750557 ,56,8194053325608
1.7834658 ,Left ,61,7875952491068 ,44,9988087750557 ,56,8194053325608
1.8134438 ,Left ,61,7747445027246 ,45,0171773061014 ,56,8554375445783
1.813447 ,Left ,61,7747445027246 ,45,0171773061014 ,56,8554375445783
1.8134497 ,Left ,61,7747445027246 ,45,0171773061014 ,56,8554375445783
1.8134524 ,Left ,61,7747445027246 ,45,0171773061014 ,56,8554375445783
1.813455 ,Left ,61,7747445027246 ,45,0171773061014 ,56,8554375445783
1.8134577 ,Left ,61,7747445027246 ,45,0171773061014 ,56,8554375445783
1.8361063 ,Left ,61,8054470793592 ,44,9854237468702 ,56,9006603044596
1.8361106 ,Left ,61,8054470793592 ,44,9854237468702 ,56,9006603044596
1.8361176 ,Left ,61,8054470793592 ,44,9854237468702 ,56,9006603044596
1.8361211 ,Left ,61,8054470793592 ,44,9854237468702 ,56,9006603044596
1.8361247 ,Left ,61,8054470793592 ,44,9854237468702 ,56,9006603044596
1.8361283 ,Left ,61,8054470793592 ,44,9854237468702 ,56,9006603044596
1.865733 ,Left ,61,8286127997709 ,44,951743157826 ,56,9355068614988
1.865735 ,Left ,61,8286127997709 ,44,951743157826 ,56,9355068614988
1.8657365 ,Left ,61,8286127997709 ,44,951743157826 ,56,9355068614988
1.865738 ,Left ,61,8286127997709 ,44,951743157826 ,56,9355068614988
1.8657395 ,Left ,61,8286127997709 ,44,951743157826 ,56,9355068614988
1.865741 ,Left ,61,8286127997709 ,44,951743157826 ,56,9355068614988
1.8807062 ,Left ,61,825049042639 ,44,9312604774046 ,56,9608265638039
1.880708 ,Left ,61,825049042639 ,44,9312604774046 ,56,9608265638039
1.8807095 ,Left ,61,825049042639 ,44,9312604774046 ,56,9608265638039
1.880711 ,Left ,61,825049042639 ,44,9312604774046 ,56,9608265638039
1.8807125 ,Left ,61,825049042639 ,44,9312604774046 ,56,9608265638039
1.880714 ,Left ,61,825049042639 ,44,9312604774046 ,56,9608265638039
1.9109573 ,Left ,61,8693223799385 ,44,8982543317899 ,56,9742857710637
1.9109598 ,Left ,61,8693223799385 ,44,8982543317899 ,56,9742857710637
1.9109616 ,Left ,61,8693223799385 ,44,8982543317899 ,56,9742857710637
1.9109636 ,Left ,61,8693223799385 ,44,8982543317899 ,56,9742857710637
1.9109656 ,Left ,61,8693223799385 ,44,8982543317899 ,56,9742857710637
1.9109675 ,Left ,61,8693223799385 ,44,8982543317899 ,56,9742857710637
1.925816 ,Left ,61,9158797708422 ,44,8565651668579 ,56,9713659605245
1.9258186 ,Left ,61,9158797708422 ,44,8565651668579 ,56,9713659605245
1.9258205 ,Left ,61,9158797708422 ,44,8565651668579 ,56,9713659605245
1.9258225 ,Left ,61,9158797708422 ,44,8565651668579 ,56,9713659605245
1.9258243 ,Left ,61,9158797708422 ,44,8565651668579 ,56,9713659605245
1.9258262 ,Left ,61,9158797708422 ,44,8565651668579 ,56,9713659605245
1.9410384 ,Left ,61,9553208537705 ,44,821054237781 ,56,9530173660853
1.9410436 ,Left ,61,9553208537705 ,44,821054237781 ,56,9530173660853
1.9410455 ,Left ,61,9553208537705 ,44,821054237781 ,56,9530173660853
1.9410475 ,Left ,61,9553208537705 ,44,821054237781 ,56,9530173660853
1.9410494 ,Left ,61,9553208537705 ,44,821054237781 ,56,9530173660853
1.9410513 ,Left ,61,9553208537705 ,44,821054237781 ,56,9530173660853
1.9633814 ,Left ,61,977454128781 ,44,8022687861691 ,56,9423454528715
1.9633838 ,Left ,61,977454128781 ,44,8022687861691 ,56,9423454528715
1.9633857 ,Left ,61,977454128781 ,44,8022687861691 ,56,9423454528715
1.9633876 ,Left ,61,977454128781 ,44,8022687861691 ,56,9423454528715
1.9633895 ,Left ,61,977454128781 ,44,8022687861691 ,56,9423454528715
1.9633914 ,Left ,61,977454128781 ,44,8022687861691 ,56,9423454528715
1.978311 ,Left ,61,9809572866083 ,44,8055667371683 ,56,9322618488857
1.9783129 ,Left ,61,9809572866083 ,44,8055667371683 ,56,9322618488857
1.9783144 ,Left ,61,9809572866083 ,44,8055667371683 ,56,9322618488857
1.9783159 ,Left ,61,9809572866083 ,44,8055667371683 ,56,9322618488857
1.9783174 ,Left ,61,9809572866083 ,44,8055667371683 ,56,9322618488857
1.9783189 ,Left ,61,9809572866083 ,44,8055667371683 ,56,9322618488857
1.993841 ,Left ,61,9954711216574 ,44,830446221627 ,56,9093950656568
1.9938488 ,Left ,61,9954711216574 ,44,830446221627 ,56,9093950656568
1.9938609 ,Left ,61,9954711216574 ,44,830446221627 ,56,9093950656568
1.9938679 ,Left ,61,9954711216574 ,44,830446221627 ,56,9093950656568
1.9938746 ,Left ,61,9954711216574 ,44,830446221627 ,56,9093950656568
1.9938813 ,Left ,61,9954711216574 ,44,830446221627 ,56,9093950656568
2.023899 ,Left ,61,9835974447933 ,44,8749754540729 ,56,897966601797
2.0239118 ,Left ,61,9835974447933 ,44,8749754540729 ,56,897966601797
2.0239233 ,Left ,61,9835974447933 ,44,8749754540729 ,56,897966601797
2.0239342 ,Left ,61,9835974447933 ,44,8749754540729 ,56,897966601797
2.0239454 ,Left ,61,9835974447933 ,44,8749754540729 ,56,897966601797
2.0239565 ,Left ,61,9835974447933 ,44,8749754540729 ,56,897966601797
2.0459879 ,Left ,61,9608058547973 ,44,9272693376302 ,56,9058029298945
2.0459906 ,Left ,61,9608058547973 ,44,9272693376302 ,56,9058029298945
2.0459927 ,Left ,61,9608058547973 ,44,9272693376302 ,56,9058029298945
2.0460015 ,Left ,61,9608058547973 ,44,9272693376302 ,56,9058029298945
2.0460037 ,Left ,61,9608058547973 ,44,9272693376302 ,56,9058029298945
2.0460058 ,Left ,61,9608058547973 ,44,9272693376302 ,56,9058029298945
2.0609965 ,Left ,61,911012886884 ,44,9792753261874 ,56,9219552275572
2.0609992 ,Left ,61,911012886884 ,44,9792753261874 ,56,9219552275572
2.0610013 ,Left ,61,911012886884 ,44,9792753261874 ,56,9219552275572
2.0610035 ,Left ,61,911012886884 ,44,9792753261874 ,56,9219552275572
2.0610056 ,Left ,61,911012886884 ,44,9792753261874 ,56,9219552275572
2.0610076 ,Left ,61,911012886884 ,44,9792753261874 ,56,9219552275572
2.0832232 ,Left ,61,857364538391 ,45,0167559018375 ,56,954499451797
2.0832251 ,Left ,61,857364538391 ,45,0167559018375 ,56,954499451797
2.0832266 ,Left ,61,857364538391 ,45,0167559018375 ,56,954499451797
2.0832282 ,Left ,61,857364538391 ,45,0167559018375 ,56,954499451797
2.0832296 ,Left ,61,857364538391 ,45,0167559018375 ,56,954499451797
2.0832311 ,Left ,61,857364538391 ,45,0167559018375 ,56,954499451797
2.098308 ,Left ,61,8146296898778 ,45,0461398672555 ,56,9793543537883
2.098313 ,Left ,61,8146296898778 ,45,0461398672555 ,56,9793543537883
2.0983147 ,Left ,61,8146296898778 ,45,0461398672555 ,56,9793543537883
2.0983163 ,Left ,61,8146296898778 ,45,0461398672555 ,56,9793543537883
2.0983178 ,Left ,61,8146296898778 ,45,0461398672555 ,56,9793543537883
2.0983194 ,Left ,61,8146296898778 ,45,0461398672555 ,56,9793543537883
2.1132832 ,Left ,61,7822639651854 ,45,0900232260706 ,56,9774138046932
2.1132856 ,Left ,61,7822639651854 ,45,0900232260706 ,56,9774138046932
2.1132877 ,Left ,61,7822639651854 ,45,0900232260706 ,56,9774138046932
2.1132898 ,Left ,61,7822639651854 ,45,0900232260706 ,56,9774138046932
2.1132919 ,Left ,61,7822639651854 ,45,0900232260706 ,56,9774138046932
2.113294 ,Left ,61,7822639651854 ,45,0900232260706 ,56,9774138046932
2.1359188 ,Left ,61,7549573686709 ,45,1510267162402 ,56,946333727869
2.1359217 ,Left ,61,7549573686709 ,45,1510267162402 ,56,946333727869
2.1359241 ,Left ,61,7549573686709 ,45,1510267162402 ,56,946333727869
2.1359265 ,Left ,61,7549573686709 ,45,1510267162402 ,56,946333727869
2.1359288 ,Left ,61,7549573686709 ,45,1510267162402 ,56,946333727869
2.1359312 ,Left ,61,7549573686709 ,45,1510267162402 ,56,946333727869
2.1582911 ,Left ,61,700499960469 ,45,1886089072129 ,56,902036657726
2.158293 ,Left ,61,700499960469 ,45,1886089072129 ,56,902036657726
2.1582946 ,Left ,61,700499960469 ,45,1886089072129 ,56,902036657726
2.1582961 ,Left ,61,700499960469 ,45,1886089072129 ,56,902036657726
2.1582976 ,Left ,61,700499960469 ,45,1886089072129 ,56,902036657726
2.158299 ,Left ,61,700499960469 ,45,1886089072129 ,56,902036657726
2.1734638 ,Left ,61,6578212728757 ,45,1685212784395 ,56,8762862921942
2.1734658 ,Left ,61,6578212728757 ,45,1685212784395 ,56,8762862921942
2.1734673 ,Left ,61,6578212728757 ,45,1685212784395 ,56,8762862921942
2.1734688 ,Left ,61,6578212728757 ,45,1685212784395 ,56,8762862921942
2.1734703 ,Left ,61,6578212728757 ,45,1685212784395 ,56,8762862921942
2.1734717 ,Left ,61,6578212728757 ,45,1685212784395 ,56,8762862921942
2.1957702 ,Left ,61,6464010087016 ,45,0952026629424 ,56,8708733214177
2.1957722 ,Left ,61,6464010087016 ,45,0952026629424 ,56,8708733214177
2.1957737 ,Left ,61,6464010087016 ,45,0952026629424 ,56,8708733214177
2.1957752 ,Left ,61,6464010087016 ,45,0952026629424 ,56,8708733214177
2.1957767 ,Left ,61,6464010087016 ,45,0952026629424 ,56,8708733214177
2.1957782 ,Left ,61,6464010087016 ,45,0952026629424 ,56,8708733214177
2.2184594 ,Left ,61,6572401416977 ,45,0285264430254 ,56,8702709380964
2.2184614 ,Left ,61,6572401416977 ,45,0285264430254 ,56,8702709380964
2.2184629 ,Left ,61,6572401416977 ,45,0285264430254 ,56,8702709380964
2.2184644 ,Left ,61,6572401416977 ,45,0285264430254 ,56,8702709380964
2.2184659 ,Left ,61,6572401416977 ,45,0285264430254 ,56,8702709380964
2.2184674 ,Left ,61,6572401416977 ,45,0285264430254 ,56,8702709380964
2.2333175 ,Left ,61,634764363107 ,45,0137562366588 ,56,8801148586438
2.2333196 ,Left ,61,634764363107 ,45,0137562366588 ,56,8801148586438
2.2333212 ,Left ,61,634764363107 ,45,0137562366588 ,56,8801148586438
2.2333228 ,Left ,61,634764363107 ,45,0137562366588 ,56,8801148586438
2.2333244 ,Left ,61,634764363107 ,45,0137562366588 ,56,8801148586438
2.233326 ,Left ,61,634764363107 ,45,0137562366588 ,56,8801148586438
2.2560023 ,Left ,61,6213211445298 ,45,0363704965324 ,56,9067186556633
2.2560052 ,Left ,61,6213211445298 ,45,0363704965324 ,56,9067186556633
2.2560074 ,Left ,61,6213211445298 ,45,0363704965324 ,56,9067186556633
2.2560096 ,Left ,61,6213211445298 ,45,0363704965324 ,56,9067186556633
2.2560116 ,Left ,61,6213211445298 ,45,0363704965324 ,56,9067186556633
2.2560137 ,Left ,61,6213211445298 ,45,0363704965324 ,56,9067186556633
2.2785362 ,Left ,61,6830697412071 ,45,0261134422124 ,56,9310001792565
2.2785383 ,Left ,61,6830697412071 ,45,0261134422124 ,56,9310001792565
2.2785399 ,Left ,61,6830697412071 ,45,0261134422124 ,56,9310001792565
2.2785416 ,Left ,61,6830697412071 ,45,0261134422124 ,56,9310001792565
2.2785432 ,Left ,61,6830697412071 ,45,0261134422124 ,56,9310001792565
2.2785448 ,Left ,61,6830697412071 ,45,0261134422124 ,56,9310001792565
2.293182 ,Left ,61,8002253668232 ,44,9727209383806 ,56,9447953704826
2.2931839 ,Left ,61,8002253668232 ,44,9727209383806 ,56,9447953704826
2.2931854 ,Left ,61,8002253668232 ,44,9727209383806 ,56,9447953704826
2.2931869 ,Left ,61,8002253668232 ,44,9727209383806 ,56,9447953704826
2.2931884 ,Left ,61,8002253668232 ,44,9727209383806 ,56,9447953704826
2.2931899 ,Left ,61,8002253668232 ,44,9727209383806 ,56,9447953704826
2.3159635 ,Left ,61,8630878921624 ,44,91373715892 ,56,9523161185862
2.3159661 ,Left ,61,8630878921624 ,44,91373715892 ,56,9523161185862
2.3159682 ,Left ,61,8630878921624 ,44,91373715892 ,56,9523161185862
2.3159703 ,Left ,61,8630878921624 ,44,91373715892 ,56,9523161185862
2.3159725 ,Left ,61,8630878921624 ,44,91373715892 ,56,9523161185862
2.3159746 ,Left ,61,8630878921624 ,44,91373715892 ,56,9523161185862
2.3384136 ,Left ,61,8920937466689 ,44,8806577163372 ,56,9552308724987
2.3384167 ,Left ,61,8920937466689 ,44,8806577163372 ,56,9552308724987
2.3384191 ,Left ,61,8920937466689 ,44,8806577163372 ,56,9552308724987
2.3384215 ,Left ,61,8920937466689 ,44,8806577163372 ,56,9552308724987
2.3384238 ,Left ,61,8920937466689 ,44,8806577163372 ,56,9552308724987
2.3384262 ,Left ,61,8920937466689 ,44,8806577163372 ,56,9552308724987
2.3534187 ,Left ,61,9376294159211 ,44,8690934828538 ,56,9673282243965
2.3534211 ,Left ,61,9376294159211 ,44,8690934828538 ,56,9673282243965
2.3534226 ,Left ,61,9376294159211 ,44,8690934828538 ,56,9673282243965
2.3534242 ,Left ,61,9376294159211 ,44,8690934828538 ,56,9673282243965
2.3534256 ,Left ,61,9376294159211 ,44,8690934828538 ,56,9673282243965
2.3534271 ,Left ,61,9376294159211 ,44,8690934828538 ,56,9673282243965
2.3757179 ,Left ,62,0056729301624 ,44,8648548531593 ,56,9677322123631
2.37572 ,Left ,62,0056729301624 ,44,8648548531593 ,56,9677322123631
2.3757218 ,Left ,62,0056729301624 ,44,8648548531593 ,56,9677322123631
2.3757236 ,Left ,62,0056729301624 ,44,8648548531593 ,56,9677322123631
2.3757253 ,Left ,62,0056729301624 ,44,8648548531593 ,56,9677322123631
2.3757271 ,Left ,62,0056729301624 ,44,8648548531593 ,56,9677322123631
2.3983822 ,Left ,62,0427250787324 ,44,864229816523 ,56,9642275624098
2.3983851 ,Left ,62,0427250787324 ,44,864229816523 ,56,9642275624098
2.3983872 ,Left ,62,0427250787324 ,44,864229816523 ,56,9642275624098
2.3983893 ,Left ,62,0427250787324 ,44,864229816523 ,56,9642275624098
2.3983915 ,Left ,62,0427250787324 ,44,864229816523 ,56,9642275624098
2.3983936 ,Left ,62,0427250787324 ,44,864229816523 ,56,9642275624098
2.4132926 ,Left ,62,0725496243905 ,44,8425921553618 ,56,9653360575146
2.4132946 ,Left ,62,0725496243905 ,44,8425921553618 ,56,9653360575146
2.413296 ,Left ,62,0725496243905 ,44,8425921553618 ,56,9653360575146
2.4132976 ,Left ,62,0725496243905 ,44,8425921553618 ,56,9653360575146
2.4132991 ,Left ,62,0725496243905 ,44,8425921553618 ,56,9653360575146
2.4133006 ,Left ,62,0725496243905 ,44,8425921553618 ,56,9653360575146
2.4360204 ,Left ,62,1105463529155 ,44,8267622288662 ,56,9520667167478
2.4360233 ,Left ,62,1105463529155 ,44,8267622288662 ,56,9520667167478
2.4360256 ,Left ,62,1105463529155 ,44,8267622288662 ,56,9520667167478
2.4360279 ,Left ,62,1105463529155 ,44,8267622288662 ,56,9520667167478
2.4360302 ,Left ,62,1105463529155 ,44,8267622288662 ,56,9520667167478
2.4360326 ,Left ,62,1105463529155 ,44,8267622288662 ,56,9520667167478
2.4586542 ,Left ,62,1783932309914 ,44,7874776760222 ,56,9391952864165
2.4586579 ,Left ,62,1783932309914 ,44,7874776760222 ,56,9391952864165
2.458661 ,Left ,62,1783932309914 ,44,7874776760222 ,56,9391952864165
2.4586641 ,Left ,62,1783932309914 ,44,7874776760222 ,56,9391952864165
2.4586671 ,Left ,62,1783932309914 ,44,7874776760222 ,56,9391952864165
2.4586701 ,Left ,62,1783932309914 ,44,7874776760222 ,56,9391952864165
2.4734182 ,Left ,62,1893455649478 ,44,7962271376547 ,56,9211690872739
2.4734218 ,Left ,62,1893455649478 ,44,7962271376547 ,56,9211690872739
2.4734248 ,Left ,62,1893455649478 ,44,7962271376547 ,56,9211690872739
2.473428 ,Left ,62,1893455649478 ,44,7962271376547 ,56,9211690872739
2.473431 ,Left ,62,1893455649478 ,44,7962271376547 ,56,9211690872739
2.473434 ,Left ,62,1893455649478 ,44,7962271376547 ,56,9211690872739
2.4957969 ,Left ,62,0875729951736 ,44,8714283063733 ,56,9130365576654
2.4958004 ,Left ,62,0875729951736 ,44,8714283063733 ,56,9130365576654
2.4958035 ,Left ,62,0875729951736 ,44,8714283063733 ,56,9130365576654
2.4958066 ,Left ,62,0875729951736 ,44,8714283063733 ,56,9130365576654
2.4958097 ,Left ,62,0875729951736 ,44,8714283063733 ,56,9130365576654
2.4958127 ,Left ,62,0875729951736 ,44,8714283063733 ,56,9130365576654
2.5184478 ,Left ,61,9565952612913 ,44,93420192747 ,56,9173760046816
2.5184518 ,Left ,61,9565952612913 ,44,93420192747 ,56,9173760046816
2.5184549 ,Left ,61,9565952612913 ,44,93420192747 ,56,9173760046816
2.5184579 ,Left ,61,9565952612913 ,44,93420192747 ,56,9173760046816
2.5184609 ,Left ,61,9565952612913 ,44,93420192747 ,56,9173760046816
2.5184639 ,Left ,61,9565952612913 ,44,93420192747 ,56,9173760046816
2.5406573 ,Left ,61,9144330583854 ,44,9488425895277 ,56,9258714439506
2.5406591 ,Left ,61,9144330583854 ,44,9488425895277 ,56,9258714439506
2.5406606 ,Left ,61,9144330583854 ,44,9488425895277 ,56,9258714439506
2.5406621 ,Left ,61,9144330583854 ,44,9488425895277 ,56,9258714439506
2.5406654 ,Left ,61,9144330583854 ,44,9488425895277 ,56,9258714439506
2.5406669 ,Left ,61,9144330583854 ,44,9488425895277 ,56,9258714439506
2.5559546 ,Left ,61,958674919332 ,44,9533081944531 ,56,9260786083058
2.5559566 ,Left ,61,958674919332 ,44,9533081944531 ,56,9260786083058
2.5559581 ,Left ,61,958674919332 ,44,9533081944531 ,56,9260786083058
2.5559595 ,Left ,61,958674919332 ,44,9533081944531 ,56,9260786083058
2.555961 ,Left ,61,958674919332 ,44,9533081944531 ,56,9260786083058
2.5559625 ,Left ,61,958674919332 ,44,9533081944531 ,56,9260786083058
2.5784814 ,Left ,61,9743542948722 ,44,9328047017244 ,56,9087419792463
2.5784836 ,Left ,61,9743542948722 ,44,9328047017244 ,56,9087419792463
2.5784876 ,Left ,61,9743542948722 ,44,9328047017244 ,56,9087419792463
2.5784894 ,Left ,61,9743542948722 ,44,9328047017244 ,56,9087419792463
2.5784912 ,Left ,61,9743542948722 ,44,9328047017244 ,56,9087419792463
2.5784929 ,Left ,61,9743542948722 ,44,9328047017244 ,56,9087419792463
2.6007616 ,Left ,61,9681120778557 ,44,9200091713133 ,56,8829774890374
2.6007636 ,Left ,61,9681120778557 ,44,9200091713133 ,56,8829774890374
2.6007652 ,Left ,61,9681120778557 ,44,9200091713133 ,56,8829774890374
2.6007669 ,Left ,61,9681120778557 ,44,9200091713133 ,56,8829774890374
2.6007684 ,Left ,61,9681120778557 ,44,9200091713133 ,56,8829774890374
2.60077 ,Left ,61,9681120778557 ,44,9200091713133 ,56,8829774890374
2.6158332 ,Left ,61,9443625254163 ,44,9096694932056 ,56,8522024180961
2.6158357 ,Left ,61,9443625254163 ,44,9096694932056 ,56,8522024180961
2.6158375 ,Left ,61,9443625254163 ,44,9096694932056 ,56,8522024180961
2.6158394 ,Left ,61,9443625254163 ,44,9096694932056 ,56,8522024180961
2.6158412 ,Left ,61,9443625254163 ,44,9096694932056 ,56,8522024180961
2.6158432 ,Left ,61,9443625254163 ,44,9096694932056 ,56,8522024180961
2.6391488 ,Left ,61,9378074690591 ,44,8989991179346 ,56,8313595312827
2.6391566 ,Left ,61,9378074690591 ,44,8989991179346 ,56,8313595312827
2.6391634 ,Left ,61,9378074690591 ,44,8989991179346 ,56,8313595312827
2.6391701 ,Left ,61,9378074690591 ,44,8989991179346 ,56,8313595312827
2.6391769 ,Left ,61,9378074690591 ,44,8989991179346 ,56,8313595312827
2.6391836 ,Left ,61,9378074690591 ,44,8989991179346 ,56,8313595312827
2.6611971 ,Left ,61,9808902069031 ,44,9085507467061 ,56,8005396265672
2.6612027 ,Left ,61,9808902069031 ,44,9085507467061 ,56,8005396265672
2.6612074 ,Left ,61,9808902069031 ,44,9085507467061 ,56,8005396265672
2.6612121 ,Left ,61,9808902069031 ,44,9085507467061 ,56,8005396265672
2.6612172 ,Left ,61,9808902069031 ,44,9085507467061 ,56,8005396265672
2.6612218 ,Left ,61,9808902069031 ,44,9085507467061 ,56,8005396265672
2.6758797 ,Left ,61,9950968959747 ,44,9172924154404 ,56,7454309453856
2.6758836 ,Left ,61,9950968959747 ,44,9172924154404 ,56,7454309453856
2.6758867 ,Left ,61,9950968959747 ,44,9172924154404 ,56,7454309453856
2.6758896 ,Left ,61,9950968959747 ,44,9172924154404 ,56,7454309453856
2.6758926 ,Left ,61,9950968959747 ,44,9172924154404 ,56,7454309453856
2.6758956 ,Left ,61,9950968959747 ,44,9172924154404 ,56,7454309453856
2.6984601 ,Left ,61,9778739004954 ,44,9001333296675 ,56,6813937155519
2.698462 ,Left ,61,9778739004954 ,44,9001333296675 ,56,6813937155519
2.6984636 ,Left ,61,9778739004954 ,44,9001333296675 ,56,6813937155519
2.6984651 ,Left ,61,9778739004954 ,44,9001333296675 ,56,6813937155519
2.6984667 ,Left ,61,9778739004954 ,44,9001333296675 ,56,6813937155519
2.6984682 ,Left ,61,9778739004954 ,44,9001333296675 ,56,6813937155519
2.7208036 ,Left ,61,9859116107079 ,44,8752800901923 ,56,6192596323202
2.7208055 ,Left ,61,9859116107079 ,44,8752800901923 ,56,6192596323202
2.7208071 ,Left ,61,9859116107079 ,44,8752800901923 ,56,6192596323202
2.7208086 ,Left ,61,9859116107079 ,44,8752800901923 ,56,6192596323202
2.7208101 ,Left ,61,9859116107079 ,44,8752800901923 ,56,6192596323202
2.7208116 ,Left ,61,9859116107079 ,44,8752800901923 ,56,6192596323202
2.7356782 ,Left ,61,975326368561 ,44,8549955968841 ,56,5729044631115
2.7356803 ,Left ,61,975326368561 ,44,8549955968841 ,56,5729044631115
2.7356821 ,Left ,61,975326368561 ,44,8549955968841 ,56,5729044631115
2.7356839 ,Left ,61,975326368561 ,44,8549955968841 ,56,5729044631115
2.7356856 ,Left ,61,975326368561 ,44,8549955968841 ,56,5729044631115
2.7356874 ,Left ,61,975326368561 ,44,8549955968841 ,56,5729044631115
2.7585771 ,Left ,61,9720937938243 ,44,853250263219 ,56,5286853541082
2.7585796 ,Left ,61,9720937938243 ,44,853250263219 ,56,5286853541082
2.758584 ,Left ,61,9720937938243 ,44,853250263219 ,56,5286853541082
2.7585858 ,Left ,61,9720937938243 ,44,853250263219 ,56,5286853541082
2.7585878 ,Left ,61,9720937938243 ,44,853250263219 ,56,5286853541082
2.7585897 ,Left ,61,9720937938243 ,44,853250263219 ,56,5286853541082
2.7810238 ,Left ,61,9560000934795 ,44,8511724371376 ,56,4834211081492
2.7810261 ,Left ,61,9560000934795 ,44,8511724371376 ,56,4834211081492
2.781028 ,Left ,61,9560000934795 ,44,8511724371376 ,56,4834211081492
2.78103 ,Left ,61,9560000934795 ,44,8511724371376 ,56,4834211081492
2.7810319 ,Left ,61,9560000934795 ,44,8511724371376 ,56,4834211081492
2.7810339 ,Left ,61,9560000934795 ,44,8511724371376 ,56,4834211081492
2.7959389 ,Left ,61,9298031488748 ,44,8259247129478 ,56,4439006065142
2.7959412 ,Left ,61,9298031488748 ,44,8259247129478 ,56,4439006065142
2.795943 ,Left ,61,9298031488748 ,44,8259247129478 ,56,4439006065142
2.7959448 ,Left ,61,9298031488748 ,44,8259247129478 ,56,4439006065142
2.7959466 ,Left ,61,9298031488748 ,44,8259247129478 ,56,4439006065142
2.7959483 ,Left ,61,9298031488748 ,44,8259247129478 ,56,4439006065142
2.8182328 ,Left ,61,9198980069651 ,44,8055659860385 ,56,4171603896974
2.8182354 ,Left ,61,9198980069651 ,44,8055659860385 ,56,4171603896974
2.8182373 ,Left ,61,9198980069651 ,44,8055659860385 ,56,4171603896974
2.8182392 ,Left ,61,9198980069651 ,44,8055659860385 ,56,4171603896974
2.8182411 ,Left ,61,9198980069651 ,44,8055659860385 ,56,4171603896974
2.818243 ,Left ,61,9198980069651 ,44,8055659860385 ,56,4171603896974
2.8410585 ,Left ,61,9211045657844 ,44,7881868852797 ,56,402134755676
2.8410609 ,Left ,61,9211045657844 ,44,7881868852797 ,56,402134755676
2.8410628 ,Left ,61,9211045657844 ,44,7881868852797 ,56,402134755676
2.8410648 ,Left ,61,9211045657844 ,44,7881868852797 ,56,402134755676
2.8410666 ,Left ,61,9211045657844 ,44,7881868852797 ,56,402134755676
2.8410686 ,Left ,61,9211045657844 ,44,7881868852797 ,56,402134755676
2.856197 ,Left ,61,9140939353237 ,44,7838068486609 ,56,3964889708984
2.8562048 ,Left ,61,9140939353237 ,44,7838068486609 ,56,3964889708984
2.8562116 ,Left ,61,9140939353237 ,44,7838068486609 ,56,3964889708984
2.8562184 ,Left ,61,9140939353237 ,44,7838068486609 ,56,3964889708984
2.8562252 ,Left ,61,9140939353237 ,44,7838068486609 ,56,3964889708984
2.856232 ,Left ,61,9140939353237 ,44,7838068486609 ,56,3964889708984
2.8790624 ,Left ,61,9069117685042 ,44,793393477603 ,56,3987782357585
2.8790701 ,Left ,61,9069117685042 ,44,793393477603 ,56,3987782357585
2.8790768 ,Left ,61,9069117685042 ,44,793393477603 ,56,3987782357585
2.8790835 ,Left ,61,9069117685042 ,44,793393477603 ,56,3987782357585
2.8790902 ,Left ,61,9069117685042 ,44,793393477603 ,56,3987782357585
2.8790969 ,Left ,61,9069117685042 ,44,793393477603 ,56,3987782357585
2.9015373 ,Left ,61,888627593903 ,44,80998167083 ,56,406105573946
2.901545 ,Left ,61,888627593903 ,44,80998167083 ,56,406105573946
2.9015517 ,Left ,61,888627593903 ,44,80998167083 ,56,406105573946
2.9015585 ,Left ,61,888627593903 ,44,80998167083 ,56,406105573946
2.9015654 ,Left ,61,888627593903 ,44,80998167083 ,56,406105573946
2.901572 ,Left ,61,888627593903 ,44,80998167083 ,56,406105573946
2.9162517 ,Left ,61,8814646363746 ,44,8282981992205 ,56,4177219562511
2.9162594 ,Left ,61,8814646363746 ,44,8282981992205 ,56,4177219562511
2.9162662 ,Left ,61,8814646363746 ,44,8282981992205 ,56,4177219562511
2.9162729 ,Left ,61,8814646363746 ,44,8282981992205 ,56,4177219562511
2.9162796 ,Left ,61,8814646363746 ,44,8282981992205 ,56,4177219562511
2.9162863 ,Left ,61,8814646363746 ,44,8282981992205 ,56,4177219562511
2.9390154 ,Left ,61,8904376978813 ,44,8354452166604 ,56,4307674179733
2.9390233 ,Left ,61,8904376978813 ,44,8354452166604 ,56,4307674179733
2.9390301 ,Left ,61,8904376978813 ,44,8354452166604 ,56,4307674179733
2.9390369 ,Left ,61,8904376978813 ,44,8354452166604 ,56,4307674179733
2.9390491 ,Left ,61,8904376978813 ,44,8354452166604 ,56,4307674179733
2.9390559 ,Left ,61,8904376978813 ,44,8354452166604 ,56,4307674179733
2.9613712 ,Left ,61,8846654499468 ,44,8368107618992 ,56,4515788884782
2.9613789 ,Left ,61,8846654499468 ,44,8368107618992 ,56,4515788884782
2.9613856 ,Left ,61,8846654499468 ,44,8368107618992 ,56,4515788884782
2.9613923 ,Left ,61,8846654499468 ,44,8368107618992 ,56,4515788884782
2.961399 ,Left ,61,8846654499468 ,44,8368107618992 ,56,4515788884782
2.9614057 ,Left ,61,8846654499468 ,44,8368107618992 ,56,4515788884782
2.9760558 ,Left ,61,8974423588731 ,44,8316030877517 ,56,4655738305976
2.9760612 ,Left ,61,8974423588731 ,44,8316030877517 ,56,4655738305976
2.9760658 ,Left ,61,8974423588731 ,44,8316030877517 ,56,4655738305976
2.9760704 ,Left ,61,8974423588731 ,44,8316030877517 ,56,4655738305976
2.9760751 ,Left ,61,8974423588731 ,44,8316030877517 ,56,4655738305976
2.9760797 ,Left ,61,8974423588731 ,44,8316030877517 ,56,4655738305976
2.9985894 ,Left ,61,8879002368754 ,44,8181165675691 ,56,4838044137593
2.9985924 ,Left ,61,8879002368754 ,44,8181165675691 ,56,4838044137593
2.9985949 ,Left ,61,8879002368754 ,44,8181165675691 ,56,4838044137593
2.9985974 ,Left ,61,8879002368754 ,44,8181165675691 ,56,4838044137593
2.9985998 ,Left ,61,8879002368754 ,44,8181165675691 ,56,4838044137593
2.9986023 ,Left ,61,8879002368754 ,44,8181165675691 ,56,4838044137593
3.0208105 ,Left ,61,8833287352432 ,44,8118541495797 ,56,501639638583
3.0208138 ,Left ,61,8833287352432 ,44,8118541495797 ,56,501639638583
3.0208163 ,Left ,61,8833287352432 ,44,8118541495797 ,56,501639638583
3.0208188 ,Left ,61,8833287352432 ,44,8118541495797 ,56,501639638583
3.0208212 ,Left ,61,8833287352432 ,44,8118541495797 ,56,501639638583
3.0208236 ,Left ,61,8833287352432 ,44,8118541495797 ,56,501639638583
3.0357011 ,Left ,61,8667126315943 ,44,8154274119837 ,56,5241012442846
3.0357029 ,Left ,61,8667126315943 ,44,8154274119837 ,56,5241012442846
3.0357044 ,Left ,61,8667126315943 ,44,8154274119837 ,56,5241012442846
3.035706 ,Left ,61,8667126315943 ,44,8154274119837 ,56,5241012442846
3.0357074 ,Left ,61,8667126315943 ,44,8154274119837 ,56,5241012442846
3.0357089 ,Left ,61,8667126315943 ,44,8154274119837 ,56,5241012442846
3.0585453 ,Left ,61,8395415630972 ,44,8238314212832 ,56,5467115311279
3.0585473 ,Left ,61,8395415630972 ,44,8238314212832 ,56,5467115311279
3.058549 ,Left ,61,8395415630972 ,44,8238314212832 ,56,5467115311279
3.0585506 ,Left ,61,8395415630972 ,44,8238314212832 ,56,5467115311279
3.0585522 ,Left ,61,8395415630972 ,44,8238314212832 ,56,5467115311279
3.0585538 ,Left ,61,8395415630972 ,44,8238314212832 ,56,5467115311279
3.0810221 ,Left ,61,8260908108585 ,44,8339641529089 ,56,5666743188599
3.0810243 ,Left ,61,8260908108585 ,44,8339641529089 ,56,5666743188599
3.081026 ,Left ,61,8260908108585 ,44,8339641529089 ,56,5666743188599
3.0810278 ,Left ,61,8260908108585 ,44,8339641529089 ,56,5666743188599
3.0810297 ,Left ,61,8260908108585 ,44,8339641529089 ,56,5666743188599
3.0810314 ,Left ,61,8260908108585 ,44,8339641529089 ,56,5666743188599
3.0957195 ,Left ,61,8150085222199 ,44,8425637598925 ,56,5838262811228
3.095722 ,Left ,61,8150085222199 ,44,8425637598925 ,56,5838262811228
3.0957239 ,Left ,61,8150085222199 ,44,8425637598925 ,56,5838262811228
3.0957259 ,Left ,61,8150085222199 ,44,8425637598925 ,56,5838262811228
3.0957278 ,Left ,61,8150085222199 ,44,8425637598925 ,56,5838262811228
3.0957297 ,Left ,61,8150085222199 ,44,8425637598925 ,56,5838262811228
3.1183526 ,Left ,61,8024653533906 ,44,8551654245809 ,56,6027600943126
3.1183552 ,Left ,61,8024653533906 ,44,8551654245809 ,56,6027600943126
3.1183574 ,Left ,61,8024653533906 ,44,8551654245809 ,56,6027600943126
3.1183595 ,Left ,61,8024653533906 ,44,8551654245809 ,56,6027600943126
3.1183616 ,Left ,61,8024653533906 ,44,8551654245809 ,56,6027600943126
3.118366 ,Left ,61,8024653533906 ,44,8551654245809 ,56,6027600943126
3.1409005 ,Left ,61,791944709862 ,44,8692391313803 ,56,621679591103
3.1409034 ,Left ,61,791944709862 ,44,8692391313803 ,56,621679591103
3.1409058 ,Left ,61,791944709862 ,44,8692391313803 ,56,621679591103
3.1409082 ,Left ,61,791944709862 ,44,8692391313803 ,56,621679591103
3.1409105 ,Left ,61,791944709862 ,44,8692391313803 ,56,621679591103
3.1409128 ,Left ,61,791944709862 ,44,8692391313803 ,56,621679591103
3.1555682 ,Left ,61,7724173452878 ,44,8854588440987 ,56,6463317030016
3.1555711 ,Left ,61,7724173452878 ,44,8854588440987 ,56,6463317030016
3.1555759 ,Left ,61,7724173452878 ,44,8854588440987 ,56,6463317030016
3.1555783 ,Left ,61,7724173452878 ,44,8854588440987 ,56,6463317030016
3.1555806 ,Left ,61,7724173452878 ,44,8854588440987 ,56,6463317030016
3.155583 ,Left ,61,7724173452878 ,44,8854588440987 ,56,6463317030016
3.17848 ,Left ,61,7567324631623 ,44,9090936343148 ,56,6715866156823
3.1784819 ,Left ,61,7567324631623 ,44,9090936343148 ,56,6715866156823
3.1784834 ,Left ,61,7567324631623 ,44,9090936343148 ,56,6715866156823
3.1784849 ,Left ,61,7567324631623 ,44,9090936343148 ,56,6715866156823
3.1784864 ,Left ,61,7567324631623 ,44,9090936343148 ,56,6715866156823
3.1784879 ,Left ,61,7567324631623 ,44,9090936343148 ,56,6715866156823
3.2010232 ,Left ,61,7369796904211 ,44,9330775078896 ,56,6880700473649
3.2010254 ,Left ,61,7369796904211 ,44,9330775078896 ,56,6880700473649
3.2010271 ,Left ,61,7369796904211 ,44,9330775078896 ,56,6880700473649
3.2010289 ,Left ,61,7369796904211 ,44,9330775078896 ,56,6880700473649
3.2010307 ,Left ,61,7369796904211 ,44,9330775078896 ,56,6880700473649
3.2010324 ,Left ,61,7369796904211 ,44,9330775078896 ,56,6880700473649
3.2159354 ,Left ,61,7179648882258 ,44,957700011623 ,56,7029176022934
3.2159376 ,Left ,61,7179648882258 ,44,957700011623 ,56,7029176022934
3.2159394 ,Left ,61,7179648882258 ,44,957700011623 ,56,7029176022934
3.2159412 ,Left ,61,7179648882258 ,44,957700011623 ,56,7029176022934
3.215943 ,Left ,61,7179648882258 ,44,957700011623 ,56,7029176022934
3.2159447 ,Left ,61,7179648882258 ,44,957700011623 ,56,7029176022934
3.2384205 ,Left ,61,6924505617654 ,44,983436305812 ,56,7138527506852
3.2384235 ,Left ,61,6924505617654 ,44,983436305812 ,56,7138527506852
3.2384258 ,Left ,61,6924505617654 ,44,983436305812 ,56,7138527506852
3.2384282 ,Left ,61,6924505617654 ,44,983436305812 ,56,7138527506852
3.2384305 ,Left ,61,6924505617654 ,44,983436305812 ,56,7138527506852
3.2384329 ,Left ,61,6924505617654 ,44,983436305812 ,56,7138527506852
3.2610287 ,Left ,61,6706603345962 ,45,0086023078582 ,56,7140134685542
3.261032 ,Left ,61,6706603345962 ,45,0086023078582 ,56,7140134685542
3.2610346 ,Left ,61,6706603345962 ,45,0086023078582 ,56,7140134685542
3.2610373 ,Left ,61,6706603345962 ,45,0086023078582 ,56,7140134685542
3.2610399 ,Left ,61,6706603345962 ,45,0086023078582 ,56,7140134685542
3.2610425 ,Left ,61,6706603345962 ,45,0086023078582 ,56,7140134685542
3.2757581 ,Left ,61,6537728767443 ,45,0269249334685 ,56,7058966094637
3.2757612 ,Left ,61,6537728767443 ,45,0269249334685 ,56,7058966094637
3.2757638 ,Left ,61,6537728767443 ,45,0269249334685 ,56,7058966094637
3.2757665 ,Left ,61,6537728767443 ,45,0269249334685 ,56,7058966094637
3.2757691 ,Left ,61,6537728767443 ,45,0269249334685 ,56,7058966094637
3.2757718 ,Left ,61,6537728767443 ,45,0269249334685 ,56,7058966094637
3.2984035 ,Left ,61,6337462094941 ,45,0331568456693 ,56,6989853130288
3.2984066 ,Left ,61,6337462094941 ,45,0331568456693 ,56,6989853130288
3.2984093 ,Left ,61,6337462094941 ,45,0331568456693 ,56,6989853130288
3.2984119 ,Left ,61,6337462094941 ,45,0331568456693 ,56,6989853130288
3.2984146 ,Left ,61,6337462094941 ,45,0331568456693 ,56,6989853130288
3.2984172 ,Left ,61,6337462094941 ,45,0331568456693 ,56,6989853130288
3.3209186 ,Left ,61,640161860176 ,45,0238033853772 ,56,6867997403107
3.3209219 ,Left ,61,640161860176 ,45,0238033853772 ,56,6867997403107
3.3209245 ,Left ,61,640161860176 ,45,0238033853772 ,56,6867997403107
3.3209271 ,Left ,61,640161860176 ,45,0238033853772 ,56,6867997403107
3.3209298 ,Left ,61,640161860176 ,45,0238033853772 ,56,6867997403107
3.3209324 ,Left ,61,640161860176 ,45,0238033853772 ,56,6867997403107
3.336013 ,Left ,61,6427344762765 ,45,005718584078 ,56,6666184798196
3.3360163 ,Left ,61,6427344762765 ,45,005718584078 ,56,6666184798196
3.3360189 ,Left ,61,6427344762765 ,45,005718584078 ,56,6666184798196
3.3360242 ,Left ,61,6427344762765 ,45,005718584078 ,56,6666184798196
3.3360269 ,Left ,61,6427344762765 ,45,005718584078 ,56,6666184798196
3.3360295 ,Left ,61,6427344762765 ,45,005718584078 ,56,6666184798196
3.3583019 ,Left ,61,646450879979 ,44,9743923330108 ,56,6422015445543
3.358305 ,Left ,61,646450879979 ,44,9743923330108 ,56,6422015445543
3.3583077 ,Left ,61,646450879979 ,44,9743923330108 ,56,6422015445543
3.3583104 ,Left ,61,646450879979 ,44,9743923330108 ,56,6422015445543
3.3583131 ,Left ,61,646450879979 ,44,9743923330108 ,56,6422015445543
3.3583157 ,Left ,61,646450879979 ,44,9743923330108 ,56,6422015445543
3.3810356 ,Left ,61,6780047293508 ,44,9291982715803 ,56,6282150443667
3.3810389 ,Left ,61,6780047293508 ,44,9291982715803 ,56,6282150443667
3.3810416 ,Left ,61,6780047293508 ,44,9291982715803 ,56,6282150443667
3.3810443 ,Left ,61,6780047293508 ,44,9291982715803 ,56,6282150443667
3.3810469 ,Left ,61,6780047293508 ,44,9291982715803 ,56,6282150443667
3.3810496 ,Left ,61,6780047293508 ,44,9291982715803 ,56,6282150443667
3.3958068 ,Left ,61,6743072384215 ,44,8815703851948 ,56,6377516036103
3.39581 ,Left ,61,6743072384215 ,44,8815703851948 ,56,6377516036103
3.3958128 ,Left ,61,6743072384215 ,44,8815703851948 ,56,6377516036103
3.3958155 ,Left ,61,6743072384215 ,44,8815703851948 ,56,6377516036103
3.3958182 ,Left ,61,6743072384215 ,44,8815703851948 ,56,6377516036103
3.3958208 ,Left ,61,6743072384215 ,44,8815703851948 ,56,6377516036103
3.4258998 ,Left ,61,6924065102528 ,44,8522169894593 ,56,6611978123486
3.4259031 ,Left ,61,6924065102528 ,44,8522169894593 ,56,6611978123486
3.4259058 ,Left ,61,6924065102528 ,44,8522169894593 ,56,6611978123486
3.4259085 ,Left ,61,6924065102528 ,44,8522169894593 ,56,6611978123486
3.4259112 ,Left ,61,6924065102528 ,44,8522169894593 ,56,6611978123486
3.4259138 ,Left ,61,6924065102528 ,44,8522169894593 ,56,6611978123486
3.4484766 ,Left ,61,6997690750731 ,44,8544672262714 ,56,676261914768
3.4484798 ,Left ,61,6997690750731 ,44,8544672262714 ,56,676261914768
3.4484825 ,Left ,61,6997690750731 ,44,8544672262714 ,56,676261914768
3.4484851 ,Left ,61,6997690750731 ,44,8544672262714 ,56,676261914768
3.4484877 ,Left ,61,6997690750731 ,44,8544672262714 ,56,676261914768
3.4484904 ,Left ,61,6997690750731 ,44,8544672262714 ,56,676261914768
3.470795 ,Left ,61,6939537530992 ,44,8871740048797 ,56,6729290953173
3.4707969 ,Left ,61,6939537530992 ,44,8871740048797 ,56,6729290953173
3.4707984 ,Left ,61,6939537530992 ,44,8871740048797 ,56,6729290953173
3.4708 ,Left ,61,6939537530992 ,44,8871740048797 ,56,6729290953173
3.4708014 ,Left ,61,6939537530992 ,44,8871740048797 ,56,6729290953173
3.4708029 ,Left ,61,6939537530992 ,44,8871740048797 ,56,6729290953173
3.4866407 ,Left ,61,7425613796178 ,44,9590763037719 ,56,6424573341425
3.4866486 ,Left ,61,7425613796178 ,44,9590763037719 ,56,6424573341425
3.4866553 ,Left ,61,7425613796178 ,44,9590763037719 ,56,6424573341425
3.486662 ,Left ,61,7425613796178 ,44,9590763037719 ,56,6424573341425
3.4866687 ,Left ,61,7425613796178 ,44,9590763037719 ,56,6424573341425
3.4866754 ,Left ,61,7425613796178 ,44,9590763037719 ,56,6424573341425
3.5085893 ,Left ,61,7483385963886 ,44,9995515184228 ,56,5979799265022
3.5085916 ,Left ,61,7483385963886 ,44,9995515184228 ,56,5979799265022
3.5085931 ,Left ,61,7483385963886 ,44,9995515184228 ,56,5979799265022
3.5085946 ,Left ,61,7483385963886 ,44,9995515184228 ,56,5979799265022
3.5085962 ,Left ,61,7483385963886 ,44,9995515184228 ,56,5979799265022
3.5085976 ,Left ,61,7483385963886 ,44,9995515184228 ,56,5979799265022
3.5307652 ,Left ,61,7510228050692 ,45,0086717435233 ,56,5483104121651
3.5307673 ,Left ,61,7510228050692 ,45,0086717435233 ,56,5483104121651
3.5307691 ,Left ,61,7510228050692 ,45,0086717435233 ,56,5483104121651
3.5307709 ,Left ,61,7510228050692 ,45,0086717435233 ,56,5483104121651
3.5307727 ,Left ,61,7510228050692 ,45,0086717435233 ,56,5483104121651
3.5307744 ,Left ,61,7510228050692 ,45,0086717435233 ,56,5483104121651
3.5458994 ,Left ,61,7688164372543 ,45,0126654379104 ,56,5220418037966
3.5459018 ,Left ,61,7688164372543 ,45,0126654379104 ,56,5220418037966
3.5459037 ,Left ,61,7688164372543 ,45,0126654379104 ,56,5220418037966
3.5459057 ,Left ,61,7688164372543 ,45,0126654379104 ,56,5220418037966
3.5459077 ,Left ,61,7688164372543 ,45,0126654379104 ,56,5220418037966
3.5459096 ,Left ,61,7688164372543 ,45,0126654379104 ,56,5220418037966
3.5684824 ,Left ,61,7750478324234 ,45,0301229163161 ,56,5015207543832
3.5684851 ,Left ,61,7750478324234 ,45,0301229163161 ,56,5015207543832
3.5684872 ,Left ,61,7750478324234 ,45,0301229163161 ,56,5015207543832
3.5684893 ,Left ,61,7750478324234 ,45,0301229163161 ,56,5015207543832
3.5684914 ,Left ,61,7750478324234 ,45,0301229163161 ,56,5015207543832
3.5684935 ,Left ,61,7750478324234 ,45,0301229163161 ,56,5015207543832
3.5834965 ,Left ,61,7787569407602 ,45,0169144429959 ,56,4902966333058
3.5834992 ,Left ,61,7787569407602 ,45,0169144429959 ,56,4902966333058
3.5835013 ,Left ,61,7787569407602 ,45,0169144429959 ,56,4902966333058
3.5835035 ,Left ,61,7787569407602 ,45,0169144429959 ,56,4902966333058
3.5835056 ,Left ,61,7787569407602 ,45,0169144429959 ,56,4902966333058
3.5835077 ,Left ,61,7787569407602 ,45,0169144429959 ,56,4902966333058
3.5986622 ,Left ,61,7851526764698 ,44,9680657307889 ,56,4806909884785
3.5986655 ,Left ,61,7851526764698 ,44,9680657307889 ,56,4806909884785
3.5986681 ,Left ,61,7851526764698 ,44,9680657307889 ,56,4806909884785
3.598671 ,Left ,61,7851526764698 ,44,9680657307889 ,56,4806909884785
3.5986736 ,Left ,61,7851526764698 ,44,9680657307889 ,56,4806909884785
3.5986763 ,Left ,61,7851526764698 ,44,9680657307889 ,56,4806909884785
3.6208353 ,Left ,61,8257365220597 ,44,9210417306422 ,56,4912717768557
3.6208373 ,Left ,61,8257365220597 ,44,9210417306422 ,56,4912717768557
3.6208388 ,Left ,61,8257365220597 ,44,9210417306422 ,56,4912717768557
3.6208404 ,Left ,61,8257365220597 ,44,9210417306422 ,56,4912717768557
3.6208419 ,Left ,61,8257365220597 ,44,9210417306422 ,56,4912717768557
3.6208434 ,Left ,61,8257365220597 ,44,9210417306422 ,56,4912717768557
3.6433606 ,Left ,61,8915117693169 ,44,8752134629266 ,56,5129346008458
3.6433627 ,Left ,61,8915117693169 ,44,8752134629266 ,56,5129346008458
3.6433643 ,Left ,61,8915117693169 ,44,8752134629266 ,56,5129346008458
3.643366 ,Left ,61,8915117693169 ,44,8752134629266 ,56,5129346008458
3.6433677 ,Left ,61,8915117693169 ,44,8752134629266 ,56,5129346008458
3.6433693 ,Left ,61,8915117693169 ,44,8752134629266 ,56,5129346008458
3.658525 ,Left ,61,942462411669 ,44,8579599909711 ,56,5264126566784
3.6585278 ,Left ,61,942462411669 ,44,8579599909711 ,56,5264126566784
3.65853 ,Left ,61,942462411669 ,44,8579599909711 ,56,5264126566784
3.6585321 ,Left ,61,942462411669 ,44,8579599909711 ,56,5264126566784
3.6585343 ,Left ,61,942462411669 ,44,8579599909711 ,56,5264126566784
3.6585364 ,Left ,61,942462411669 ,44,8579599909711 ,56,5264126566784
3.6808409 ,Left ,61,9296384131042 ,44,8788022025257 ,56,5305038592364
3.6808439 ,Left ,61,9296384131042 ,44,8788022025257 ,56,5305038592364
3.6808464 ,Left ,61,9296384131042 ,44,8788022025257 ,56,5305038592364
3.680849 ,Left ,61,9296384131042 ,44,8788022025257 ,56,5305038592364
3.6808539 ,Left ,61,9296384131042 ,44,8788022025257 ,56,5305038592364
3.6808563 ,Left ,61,9296384131042 ,44,8788022025257 ,56,5305038592364
3.7035189 ,Left ,61,8784459918456 ,44,913794864461 ,56,5256640433965
3.7035223 ,Left ,61,8784459918456 ,44,913794864461 ,56,5256640433965
3.703525 ,Left ,61,8784459918456 ,44,913794864461 ,56,5256640433965
3.7035279 ,Left ,61,8784459918456 ,44,913794864461 ,56,5256640433965
3.7035306 ,Left ,61,8784459918456 ,44,913794864461 ,56,5256640433965
3.7035333 ,Left ,61,8784459918456 ,44,913794864461 ,56,5256640433965
3.718782 ,Left ,61,8782290368017 ,44,9484634060215 ,56,5145246472957
3.7187859 ,Left ,61,8782290368017 ,44,9484634060215 ,56,5145246472957
3.7187892 ,Left ,61,8782290368017 ,44,9484634060215 ,56,5145246472957
3.7187925 ,Left ,61,8782290368017 ,44,9484634060215 ,56,5145246472957
3.7187956 ,Left ,61,8782290368017 ,44,9484634060215 ,56,5145246472957
3.7187991 ,Left ,61,8782290368017 ,44,9484634060215 ,56,5145246472957
3.7410377 ,Left ,61,8339501327046 ,44,9698719003975 ,56,501431840512
3.7410416 ,Left ,61,8339501327046 ,44,9698719003975 ,56,501431840512
3.7410448 ,Left ,61,8339501327046 ,44,9698719003975 ,56,501431840512
3.7410481 ,Left ,61,8339501327046 ,44,9698719003975 ,56,501431840512
3.7410512 ,Left ,61,8339501327046 ,44,9698719003975 ,56,501431840512
3.7410544 ,Left ,61,8339501327046 ,44,9698719003975 ,56,501431840512
3.7634672 ,Left ,61,8185888162442 ,44,9375479384498 ,56,502235777412
3.7634711 ,Left ,61,8185888162442 ,44,9375479384498 ,56,502235777412
3.7634743 ,Left ,61,8185888162442 ,44,9375479384498 ,56,502235777412
3.7634776 ,Left ,61,8185888162442 ,44,9375479384498 ,56,502235777412
3.7634808 ,Left ,61,8185888162442 ,44,9375479384498 ,56,502235777412
3.7634839 ,Left ,61,8185888162442 ,44,9375479384498 ,56,502235777412
3.7784256 ,Left ,61,7959050579444 ,44,8845083805781 ,56,4957626382156
3.7784294 ,Left ,61,7959050579444 ,44,8845083805781 ,56,4957626382156
3.7784326 ,Left ,61,7959050579444 ,44,8845083805781 ,56,4957626382156
3.7784359 ,Left ,61,7959050579444 ,44,8845083805781 ,56,4957626382156
3.7784391 ,Left ,61,7959050579444 ,44,8845083805781 ,56,4957626382156
3.7784423 ,Left ,61,7959050579444 ,44,8845083805781 ,56,4957626382156
3.8087059 ,Left ,61,7878232505855 ,44,8218840811403 ,56,4825965276261
3.8087098 ,Left ,61,7878232505855 ,44,8218840811403 ,56,4825965276261
3.8087223 ,Left ,61,7878232505855 ,44,8218840811403 ,56,4825965276261
3.8087257 ,Left ,61,7878232505855 ,44,8218840811403 ,56,4825965276261
3.808729 ,Left ,61,7878232505855 ,44,8218840811403 ,56,4825965276261
3.8087322 ,Left ,61,7878232505855 ,44,8218840811403 ,56,4825965276261
3.8311842 ,Left ,61,8575894549522 ,44,7477461442031 ,56,5133476877078
3.8311883 ,Left ,61,8575894549522 ,44,7477461442031 ,56,5133476877078
3.8311916 ,Left ,61,8575894549522 ,44,7477461442031 ,56,5133476877078
3.8311949 ,Left ,61,8575894549522 ,44,7477461442031 ,56,5133476877078
3.8311981 ,Left ,61,8575894549522 ,44,7477461442031 ,56,5133476877078
3.8312013 ,Left ,61,8575894549522 ,44,7477461442031 ,56,5133476877078
3.8461055 ,Left ,61,9092550351859 ,44,7498404575036 ,56,5511466902876
3.8461094 ,Left ,61,9092550351859 ,44,7498404575036 ,56,5511466902876
3.8461126 ,Left ,61,9092550351859 ,44,7498404575036 ,56,5511466902876
3.846116 ,Left ,61,9092550351859 ,44,7498404575036 ,56,5511466902876
3.8461192 ,Left ,61,9092550351859 ,44,7498404575036 ,56,5511466902876
3.8461224 ,Left ,61,9092550351859 ,44,7498404575036 ,56,5511466902876
3.8607251 ,Left ,61,845264980927 ,44,7964430046976 ,56,5627420334675
3.8607269 ,Left ,61,845264980927 ,44,7964430046976 ,56,5627420334675
3.8607284 ,Left ,61,845264980927 ,44,7964430046976 ,56,5627420334675
3.8607299 ,Left ,61,845264980927 ,44,7964430046976 ,56,5627420334675
3.8607313 ,Left ,61,845264980927 ,44,7964430046976 ,56,5627420334675
3.8607328 ,Left ,61,845264980927 ,44,7964430046976 ,56,5627420334675
3.8832814 ,Left ,61,7507369757606 ,44,8565127694936 ,56,5918997806802
3.8832834 ,Left ,61,7507369757606 ,44,8565127694936 ,56,5918997806802
3.883285 ,Left ,61,7507369757606 ,44,8565127694936 ,56,5918997806802
3.8832866 ,Left ,61,7507369757606 ,44,8565127694936 ,56,5918997806802
3.8832882 ,Left ,61,7507369757606 ,44,8565127694936 ,56,5918997806802
3.8832898 ,Left ,61,7507369757606 ,44,8565127694936 ,56,5918997806802
3.8983202 ,Left ,61,7423168103408 ,44,9408067087706 ,56,6096586012143
3.8983226 ,Left ,61,7423168103408 ,44,9408067087706 ,56,6096586012143
3.8983247 ,Left ,61,7423168103408 ,44,9408067087706 ,56,6096586012143
3.8983269 ,Left ,61,7423168103408 ,44,9408067087706 ,56,6096586012143
3.8983289 ,Left ,61,7423168103408 ,44,9408067087706 ,56,6096586012143
3.898338 ,Left ,61,7423168103408 ,44,9408067087706 ,56,6096586012143
3.920991 ,Left ,61,6609427086822 ,45,0488545674479 ,56,6327357130587
3.9209948 ,Left ,61,6609427086822 ,45,0488545674479 ,56,6327357130587
3.9209978 ,Left ,61,6609427086822 ,45,0488545674479 ,56,6327357130587
3.921001 ,Left ,61,6609427086822 ,45,0488545674479 ,56,6327357130587
3.921004 ,Left ,61,6609427086822 ,45,0488545674479 ,56,6327357130587
3.921007 ,Left ,61,6609427086822 ,45,0488545674479 ,56,6327357130587
3.9435839 ,Left ,61,6069848294889 ,45,1274715121708 ,56,6475996033871
3.9435891 ,Left ,61,6069848294889 ,45,1274715121708 ,56,6475996033871
3.9435936 ,Left ,61,6069848294889 ,45,1274715121708 ,56,6475996033871
3.943598 ,Left ,61,6069848294889 ,45,1274715121708 ,56,6475996033871
3.9436023 ,Left ,61,6069848294889 ,45,1274715121708 ,56,6475996033871
3.9436066 ,Left ,61,6069848294889 ,45,1274715121708 ,56,6475996033871
3.958381 ,Left ,61,5966739507681 ,45,178829216607 ,56,65302866808
3.9583842 ,Left ,61,5966739507681 ,45,178829216607 ,56,65302866808
3.9583871 ,Left ,61,5966739507681 ,45,178829216607 ,56,65302866808
3.95839 ,Left ,61,5966739507681 ,45,178829216607 ,56,65302866808
3.9583928 ,Left ,61,5966739507681 ,45,178829216607 ,56,65302866808
3.9583955 ,Left ,61,5966739507681 ,45,178829216607 ,56,65302866808
3.9811408 ,Left ,61,5715302000529 ,45,2214920410964 ,56,6485941663754
3.9811442 ,Left ,61,5715302000529 ,45,2214920410964 ,56,6485941663754
3.9811474 ,Left ,61,5715302000529 ,45,2214920410964 ,56,6485941663754
3.9811521 ,Left ,61,5715302000529 ,45,2214920410964 ,56,6485941663754
3.9811561 ,Left ,61,5715302000529 ,45,2214920410964 ,56,6485941663754
3.9811603 ,Left ,61,5715302000529 ,45,2214920410964 ,56,6485941663754
4.0034252 ,Left ,61,5508338493705 ,45,253645057974 ,56,6347715643491
4.0034303 ,Left ,61,5508338493705 ,45,253645057974 ,56,6347715643491
4.0034331 ,Left ,61,5508338493705 ,45,253645057974 ,56,6347715643491
4.0034359 ,Left ,61,5508338493705 ,45,253645057974 ,56,6347715643491
4.0034386 ,Left ,61,5508338493705 ,45,253645057974 ,56,6347715643491
4.0034413 ,Left ,61,5508338493705 ,45,253645057974 ,56,6347715643491
4.0184821 ,Left ,61,5343543368722 ,45,2643293473045 ,56,650889728387
4.0184855 ,Left ,61,5343543368722 ,45,2643293473045 ,56,650889728387
4.0184883 ,Left ,61,5343543368722 ,45,2643293473045 ,56,650889728387
4.0184911 ,Left ,61,5343543368722 ,45,2643293473045 ,56,650889728387
4.018494 ,Left ,61,5343543368722 ,45,2643293473045 ,56,650889728387
4.0184967 ,Left ,61,5343543368722 ,45,2643293473045 ,56,650889728387
4.0410809 ,Left ,61,6063865865238 ,45,1906951376513 ,56,6699085312743
4.0410842 ,Left ,61,6063865865238 ,45,1906951376513 ,56,6699085312743
4.041087 ,Left ,61,6063865865238 ,45,1906951376513 ,56,6699085312743
4.0410899 ,Left ,61,6063865865238 ,45,1906951376513 ,56,6699085312743
4.0410928 ,Left ,61,6063865865238 ,45,1906951376513 ,56,6699085312743
4.0410956 ,Left ,61,6063865865238 ,45,1906951376513 ,56,6699085312743
4.0635642 ,Left ,61,6826799961952 ,45,0629022650566 ,56,6929206895171
4.0635677 ,Left ,61,6826799961952 ,45,0629022650566 ,56,6929206895171
4.0635705 ,Left ,61,6826799961952 ,45,0629022650566 ,56,6929206895171
4.0635821 ,Left ,61,6826799961952 ,45,0629022650566 ,56,6929206895171
4.0635849 ,Left ,61,6826799961952 ,45,0629022650566 ,56,6929206895171
4.0635877 ,Left ,61,6826799961952 ,45,0629022650566 ,56,6929206895171
4.0783648 ,Left ,61,8113874514224 ,45,0012166340615 ,56,6804426400313
4.078368 ,Left ,61,8113874514224 ,45,0012166340615 ,56,6804426400313
4.0783707 ,Left ,61,8113874514224 ,45,0012166340615 ,56,6804426400313
4.0783738 ,Left ,61,8113874514224 ,45,0012166340615 ,56,6804426400313
4.0783765 ,Left ,61,8113874514224 ,45,0012166340615 ,56,6804426400313
4.0783793 ,Left ,61,8113874514224 ,45,0012166340615 ,56,6804426400313
4.1008444 ,Left ,61,8094170752077 ,44,973586956999 ,56,6509451476184
4.1008481 ,Left ,61,8094170752077 ,44,973586956999 ,56,6509451476184
4.1008508 ,Left ,61,8094170752077 ,44,973586956999 ,56,6509451476184
4.1008537 ,Left ,61,8094170752077 ,44,973586956999 ,56,6509451476184
4.1008564 ,Left ,61,8094170752077 ,44,973586956999 ,56,6509451476184
4.1008592 ,Left ,61,8094170752077 ,44,973586956999 ,56,6509451476184
4.123431 ,Left ,61,7706287467501 ,44,939525273228 ,56,6353130644533
4.1234344 ,Left ,61,7706287467501 ,44,939525273228 ,56,6353130644533
4.1234372 ,Left ,61,7706287467501 ,44,939525273228 ,56,6353130644533
4.1234454 ,Left ,61,7706287467501 ,44,939525273228 ,56,6353130644533
4.1234482 ,Left ,61,7706287467501 ,44,939525273228 ,56,6353130644533
4.123451 ,Left ,61,7706287467501 ,44,939525273228 ,56,6353130644533
4.1384487 ,Left ,61,8041362134127 ,44,9125198306566 ,56,6271085282408
4.138452 ,Left ,61,8041362134127 ,44,9125198306566 ,56,6271085282408
4.1384547 ,Left ,61,8041362134127 ,44,9125198306566 ,56,6271085282408
4.1384575 ,Left ,61,8041362134127 ,44,9125198306566 ,56,6271085282408
4.1384603 ,Left ,61,8041362134127 ,44,9125198306566 ,56,6271085282408
4.138463 ,Left ,61,8041362134127 ,44,9125198306566 ,56,6271085282408
4.1609467 ,Left ,61,9463302746329 ,44,8591763332259 ,56,6117135338831
4.1609501 ,Left ,61,9463302746329 ,44,8591763332259 ,56,6117135338831
4.1609529 ,Left ,61,9463302746329 ,44,8591763332259 ,56,6117135338831
4.1609557 ,Left ,61,9463302746329 ,44,8591763332259 ,56,6117135338831
4.1609585 ,Left ,61,9463302746329 ,44,8591763332259 ,56,6117135338831
4.1609612 ,Left ,61,9463302746329 ,44,8591763332259 ,56,6117135338831
4.183396 ,Left ,62,0177047667618 ,44,8127672673262 ,56,6003707334246
4.1833994 ,Left ,62,0177047667618 ,44,8127672673262 ,56,6003707334246
4.1834022 ,Left ,62,0177047667618 ,44,8127672673262 ,56,6003707334246
4.183405 ,Left ,62,0177047667618 ,44,8127672673262 ,56,6003707334246
4.1834078 ,Left ,62,0177047667618 ,44,8127672673262 ,56,6003707334246
4.1834105 ,Left ,62,0177047667618 ,44,8127672673262 ,56,6003707334246
4.1983553 ,Left ,62,0363895230407 ,44,7654517712135 ,56,5789762875965
4.1983584 ,Left ,62,0363895230407 ,44,7654517712135 ,56,5789762875965
4.1983612 ,Left ,62,0363895230407 ,44,7654517712135 ,56,5789762875965
4.198364 ,Left ,62,0363895230407 ,44,7654517712135 ,56,5789762875965
4.1983668 ,Left ,62,0363895230407 ,44,7654517712135 ,56,5789762875965
4.1983695 ,Left ,62,0363895230407 ,44,7654517712135 ,56,5789762875965
4.2209288 ,Left ,62,0737352917306 ,44,7266726616432 ,56,5660810699966
4.2209321 ,Left ,62,0737352917306 ,44,7266726616432 ,56,5660810699966
4.2209349 ,Left ,62,0737352917306 ,44,7266726616432 ,56,5660810699966
4.2209378 ,Left ,62,0737352917306 ,44,7266726616432 ,56,5660810699966
4.2209406 ,Left ,62,0737352917306 ,44,7266726616432 ,56,5660810699966
4.2209433 ,Left ,62,0737352917306 ,44,7266726616432 ,56,5660810699966
4.2434258 ,Left ,62,1010348127287 ,44,7127088657275 ,56,5563273471954
4.2434291 ,Left ,62,1010348127287 ,44,7127088657275 ,56,5563273471954
4.2434319 ,Left ,62,1010348127287 ,44,7127088657275 ,56,5563273471954
4.2434347 ,Left ,62,1010348127287 ,44,7127088657275 ,56,5563273471954
4.2434375 ,Left ,62,1010348127287 ,44,7127088657275 ,56,5563273471954
4.2434403 ,Left ,62,1010348127287 ,44,7127088657275 ,56,5563273471954
4.2658043 ,Left ,62,1132441920313 ,44,7173735493753 ,56,5528397397104
4.2658065 ,Left ,62,1132441920313 ,44,7173735493753 ,56,5528397397104
4.265808 ,Left ,62,1132441920313 ,44,7173735493753 ,56,5528397397104
4.2658115 ,Left ,62,1132441920313 ,44,7173735493753 ,56,5528397397104
4.265813 ,Left ,62,1132441920313 ,44,7173735493753 ,56,5528397397104
4.2658145 ,Left ,62,1132441920313 ,44,7173735493753 ,56,5528397397104
4.2809199 ,Left ,62,0991486050079 ,44,7466750737197 ,56,558018366144
4.2809218 ,Left ,62,0991486050079 ,44,7466750737197 ,56,558018366144
4.2809233 ,Left ,62,0991486050079 ,44,7466750737197 ,56,558018366144
4.2809249 ,Left ,62,0991486050079 ,44,7466750737197 ,56,558018366144
4.2809264 ,Left ,62,0991486050079 ,44,7466750737197 ,56,558018366144
4.2809279 ,Left ,62,0991486050079 ,44,7466750737197 ,56,558018366144
4.304066 ,Left ,62,0699011751189 ,44,7927706254427 ,56,5688063124937
4.3040741 ,Left ,62,0699011751189 ,44,7927706254427 ,56,5688063124937
4.3040808 ,Left ,62,0699011751189 ,44,7927706254427 ,56,5688063124937
4.3040876 ,Left ,62,0699011751189 ,44,7927706254427 ,56,5688063124937
4.3040943 ,Left ,62,0699011751189 ,44,7927706254427 ,56,5688063124937
4.304101 ,Left ,62,0699011751189 ,44,7927706254427 ,56,5688063124937
4.3189832 ,Left ,62,0230096488743 ,44,8599372347088 ,56,586002786031
4.3189911 ,Left ,62,0230096488743 ,44,8599372347088 ,56,586002786031
4.3189979 ,Left ,62,0230096488743 ,44,8599372347088 ,56,586002786031
4.3190048 ,Left ,62,0230096488743 ,44,8599372347088 ,56,586002786031
4.3190115 ,Left ,62,0230096488743 ,44,8599372347088 ,56,586002786031
4.3190182 ,Left ,62,0230096488743 ,44,8599372347088 ,56,586002786031
4.3339223 ,Left ,61,9789490802511 ,44,9286251435107 ,56,608271157915
4.3339303 ,Left ,61,9789490802511 ,44,9286251435107 ,56,608271157915
4.3339371 ,Left ,61,9789490802511 ,44,9286251435107 ,56,608271157915
4.3339441 ,Left ,61,9789490802511 ,44,9286251435107 ,56,608271157915
4.3339509 ,Left ,61,9789490802511 ,44,9286251435107 ,56,608271157915
4.3339577 ,Left ,61,9789490802511 ,44,9286251435107 ,56,608271157915
4.3564385 ,Left ,61,9378992304814 ,44,9879993800743 ,56,6356639229487
4.3564548 ,Left ,61,9378992304814 ,44,9879993800743 ,56,6356639229487
4.3564736 ,Left ,61,9378992304814 ,44,9879993800743 ,56,6356639229487
4.3564823 ,Left ,61,9378992304814 ,44,9879993800743 ,56,6356639229487
4.3564891 ,Left ,61,9378992304814 ,44,9879993800743 ,56,6356639229487
4.3564957 ,Left ,61,9378992304814 ,44,9879993800743 ,56,6356639229487
4.3937494 ,Left ,61,8576739600509 ,45,0872978294157 ,56,6844959813505
4.393755 ,Left ,61,8576739600509 ,45,0872978294157 ,56,6844959813505
4.3937596 ,Left ,61,8576739600509 ,45,0872978294157 ,56,6844959813505
4.3937644 ,Left ,61,8576739600509 ,45,0872978294157 ,56,6844959813505
4.3937691 ,Left ,61,8576739600509 ,45,0872978294157 ,56,6844959813505
4.3937739 ,Left ,61,8576739600509 ,45,0872978294157 ,56,6844959813505
4.4235406 ,Left ,61,8174415721688 ,45,1408888020276 ,56,6892203416509
4.4235449 ,Left ,61,8174415721688 ,45,1408888020276 ,56,6892203416509
4.4235484 ,Left ,61,8174415721688 ,45,1408888020276 ,56,6892203416509
4.4235521 ,Left ,61,8174415721688 ,45,1408888020276 ,56,6892203416509
4.4235556 ,Left ,61,8174415721688 ,45,1408888020276 ,56,6892203416509
4.4235592 ,Left ,61,8174415721688 ,45,1408888020276 ,56,6892203416509
4.4384004 ,Left ,61,8017703284999 ,45,1769166866689 ,56,6791887800171
4.4384034 ,Left ,61,8017703284999 ,45,1769166866689 ,56,6791887800171
4.4384059 ,Left ,61,8017703284999 ,45,1769166866689 ,56,6791887800171
4.4384084 ,Left ,61,8017703284999 ,45,1769166866689 ,56,6791887800171
4.4384108 ,Left ,61,8017703284999 ,45,1769166866689 ,56,6791887800171
4.4384132 ,Left ,61,8017703284999 ,45,1769166866689 ,56,6791887800171
4.4758437 ,Left ,61,8014396571393 ,45,1616114958103 ,56,6496168382835
4.4758466 ,Left ,61,8014396571393 ,45,1616114958103 ,56,6496168382835
4.475849 ,Left ,61,8014396571393 ,45,1616114958103 ,56,6496168382835
4.4758516 ,Left ,61,8014396571393 ,45,1616114958103 ,56,6496168382835
4.475854 ,Left ,61,8014396571393 ,45,1616114958103 ,56,6496168382835
4.4758564 ,Left ,61,8014396571393 ,45,1616114958103 ,56,6496168382835
4.4910502 ,Left ,61,8060304170378 ,45,1117456670281 ,56,6336355170219
4.4910534 ,Left ,61,8060304170378 ,45,1117456670281 ,56,6336355170219
4.4910558 ,Left ,61,8060304170378 ,45,1117456670281 ,56,6336355170219
4.4910583 ,Left ,61,8060304170378 ,45,1117456670281 ,56,6336355170219
4.4910607 ,Left ,61,8060304170378 ,45,1117456670281 ,56,6336355170219
4.4910631 ,Left ,61,8060304170378 ,45,1117456670281 ,56,6336355170219
4.5209037 ,Left ,61,8278104367123 ,45,0612556686932 ,56,6180962184567
4.5209067 ,Left ,61,8278104367123 ,45,0612556686932 ,56,6180962184567
4.5209091 ,Left ,61,8278104367123 ,45,0612556686932 ,56,6180962184567
4.5209116 ,Left ,61,8278104367123 ,45,0612556686932 ,56,6180962184567
4.520914 ,Left ,61,8278104367123 ,45,0612556686932 ,56,6180962184567
4.5209165 ,Left ,61,8278104367123 ,45,0612556686932 ,56,6180962184567
4.543389 ,Left ,61,8216605898186 ,45,0374111846584 ,56,6230908460914
4.5433926 ,Left ,61,8216605898186 ,45,0374111846584 ,56,6230908460914
4.543395 ,Left ,61,8216605898186 ,45,0374111846584 ,56,6230908460914
4.5433974 ,Left ,61,8216605898186 ,45,0374111846584 ,56,6230908460914
4.5433998 ,Left ,61,8216605898186 ,45,0374111846584 ,56,6230908460914
4.5434022 ,Left ,61,8216605898186 ,45,0374111846584 ,56,6230908460914
4.5584197 ,Left ,61,798692484974 ,45,0411175157769 ,56,6388534496261
4.5584227 ,Left ,61,798692484974 ,45,0411175157769 ,56,6388534496261
4.5584251 ,Left ,61,798692484974 ,45,0411175157769 ,56,6388534496261
4.5584276 ,Left ,61,798692484974 ,45,0411175157769 ,56,6388534496261
4.5584301 ,Left ,61,798692484974 ,45,0411175157769 ,56,6388534496261
4.5584325 ,Left ,61,798692484974 ,45,0411175157769 ,56,6388534496261
4.5731969 ,Left ,61,7758808392258 ,45,0474521445701 ,56,6694009726965
4.5731988 ,Left ,61,7758808392258 ,45,0474521445701 ,56,6694009726965
4.5732005 ,Left ,61,7758808392258 ,45,0474521445701 ,56,6694009726965
4.5732022 ,Left ,61,7758808392258 ,45,0474521445701 ,56,6694009726965
4.5732038 ,Left ,61,7758808392258 ,45,0474521445701 ,56,6694009726965
4.5732053 ,Left ,61,7758808392258 ,45,0474521445701 ,56,6694009726965
4.5956863 ,Left ,61,8201470843889 ,45,0033609403594 ,56,684943478356
4.595688 ,Left ,61,8201470843889 ,45,0033609403594 ,56,684943478356
4.5956895 ,Left ,61,8201470843889 ,45,0033609403594 ,56,684943478356
4.5956911 ,Left ,61,8201470843889 ,45,0033609403594 ,56,684943478356
4.5956925 ,Left ,61,8201470843889 ,45,0033609403594 ,56,684943478356
4.595694 ,Left ,61,8201470843889 ,45,0033609403594 ,56,684943478356
4.6108469 ,Left ,61,8927928909545 ,44,9459287414224 ,56,6782192640249
4.6108489 ,Left ,61,8927928909545 ,44,9459287414224 ,56,6782192640249
4.6108504 ,Left ,61,8927928909545 ,44,9459287414224 ,56,6782192640249
4.6108519 ,Left ,61,8927928909545 ,44,9459287414224 ,56,6782192640249
4.6108533 ,Left ,61,8927928909545 ,44,9459287414224 ,56,6782192640249
4.6108548 ,Left ,61,8927928909545 ,44,9459287414224 ,56,6782192640249
4.6407758 ,Left ,61,9101964797932 ,44,8918109048748 ,56,6641341632165
4.6407785 ,Left ,61,9101964797932 ,44,8918109048748 ,56,6641341632165
4.6407839 ,Left ,61,9101964797932 ,44,8918109048748 ,56,6641341632165
4.6407863 ,Left ,61,9101964797932 ,44,8918109048748 ,56,6641341632165
4.6407886 ,Left ,61,9101964797932 ,44,8918109048748 ,56,6641341632165
4.640791 ,Left ,61,9101964797932 ,44,8918109048748 ,56,6641341632165
4.6634625 ,Left ,61,8917928656139 ,44,8657785770145 ,56,6516529489125
4.6634663 ,Left ,61,8917928656139 ,44,8657785770145 ,56,6516529489125
4.6634694 ,Left ,61,8917928656139 ,44,8657785770145 ,56,6516529489125
4.6634725 ,Left ,61,8917928656139 ,44,8657785770145 ,56,6516529489125
4.6634755 ,Left ,61,8917928656139 ,44,8657785770145 ,56,6516529489125
4.6634785 ,Left ,61,8917928656139 ,44,8657785770145 ,56,6516529489125
4.6785396 ,Left ,61,9215683696673 ,44,8467478427588 ,56,6269460347951
4.6785445 ,Left ,61,9215683696673 ,44,8467478427588 ,56,6269460347951
4.6785488 ,Left ,61,9215683696673 ,44,8467478427588 ,56,6269460347951
4.6785531 ,Left ,61,9215683696673 ,44,8467478427588 ,56,6269460347951
4.6785574 ,Left ,61,9215683696673 ,44,8467478427588 ,56,6269460347951
4.6785617 ,Left ,61,9215683696673 ,44,8467478427588 ,56,6269460347951
4.6936815 ,Left ,61,9768907365664 ,44,8205077170724 ,56,5781282894813
4.6936867 ,Left ,61,9768907365664 ,44,8205077170724 ,56,5781282894813
4.6936911 ,Left ,61,9768907365664 ,44,8205077170724 ,56,5781282894813
4.6936956 ,Left ,61,9768907365664 ,44,8205077170724 ,56,5781282894813
4.6936999 ,Left ,61,9768907365664 ,44,8205077170724 ,56,5781282894813
4.6937043 ,Left ,61,9768907365664 ,44,8205077170724 ,56,5781282894813
4.7161556 ,Left ,61,9771506862412 ,44,804026520317 ,56,5410192928327
4.716161 ,Left ,61,9771506862412 ,44,804026520317 ,56,5410192928327
4.7161654 ,Left ,61,9771506862412 ,44,804026520317 ,56,5410192928327
4.7161698 ,Left ,61,9771506862412 ,44,804026520317 ,56,5410192928327
4.7161741 ,Left ,61,9771506862412 ,44,804026520317 ,56,5410192928327
4.7161784 ,Left ,61,9771506862412 ,44,804026520317 ,56,5410192928327
4.7312781 ,Left ,61,9836108265145 ,44,790905024779 ,56,5227480742706
4.7312833 ,Left ,61,9836108265145 ,44,790905024779 ,56,5227480742706
4.7312876 ,Left ,61,9836108265145 ,44,790905024779 ,56,5227480742706
4.7312921 ,Left ,61,9836108265145 ,44,790905024779 ,56,5227480742706
4.7312964 ,Left ,61,9836108265145 ,44,790905024779 ,56,5227480742706
4.7313007 ,Left ,61,9836108265145 ,44,790905024779 ,56,5227480742706
4.7534509 ,Left ,61,995173585862 ,44,7710480136517 ,56,5319170682072
4.7534546 ,Left ,61,995173585862 ,44,7710480136517 ,56,5319170682072
4.753461 ,Left ,61,995173585862 ,44,7710480136517 ,56,5319170682072
4.7534638 ,Left ,61,995173585862 ,44,7710480136517 ,56,5319170682072
4.7534665 ,Left ,61,995173585862 ,44,7710480136517 ,56,5319170682072
4.7534693 ,Left ,61,995173585862 ,44,7710480136517 ,56,5319170682072
4.7759301 ,Left ,62,0419854996626 ,44,7524554278443 ,56,5406747534117
4.7759335 ,Left ,62,0419854996626 ,44,7524554278443 ,56,5406747534117
4.7759363 ,Left ,62,0419854996626 ,44,7524554278443 ,56,5406747534117
4.775939 ,Left ,62,0419854996626 ,44,7524554278443 ,56,5406747534117
4.7759418 ,Left ,62,0419854996626 ,44,7524554278443 ,56,5406747534117
4.7759445 ,Left ,62,0419854996626 ,44,7524554278443 ,56,5406747534117
4.7911752 ,Left ,62,0820623051562 ,44,7356105788155 ,56,5598056688715
4.7911787 ,Left ,62,0820623051562 ,44,7356105788155 ,56,5598056688715
4.7911816 ,Left ,62,0820623051562 ,44,7356105788155 ,56,5598056688715
4.7911844 ,Left ,62,0820623051562 ,44,7356105788155 ,56,5598056688715
4.7911872 ,Left ,62,0820623051562 ,44,7356105788155 ,56,5598056688715
4.79119 ,Left ,62,0820623051562 ,44,7356105788155 ,56,5598056688715
4.8134523 ,Left ,62,0759507107252 ,44,7296142070316 ,56,5978138821487
4.8134557 ,Left ,62,0759507107252 ,44,7296142070316 ,56,5978138821487
4.8134585 ,Left ,62,0759507107252 ,44,7296142070316 ,56,5978138821487
4.8134613 ,Left ,62,0759507107252 ,44,7296142070316 ,56,5978138821487
4.813464 ,Left ,62,0759507107252 ,44,7296142070316 ,56,5978138821487
4.8134668 ,Left ,62,0759507107252 ,44,7296142070316 ,56,5978138821487
4.8363268 ,Left ,62,1029781517582 ,44,7305091230261 ,56,6131032953272
4.8363343 ,Left ,62,1029781517582 ,44,7305091230261 ,56,6131032953272
4.8363409 ,Left ,62,1029781517582 ,44,7305091230261 ,56,6131032953272
4.8363499 ,Left ,62,1029781517582 ,44,7305091230261 ,56,6131032953272
4.8363662 ,Left ,62,1029781517582 ,44,7305091230261 ,56,6131032953272
4.8363761 ,Left ,62,1029781517582 ,44,7305091230261 ,56,6131032953272
4.8515934 ,Left ,62,1230312645021 ,44,7511269049264 ,56,5973701310052
4.8516016 ,Left ,62,1230312645021 ,44,7511269049264 ,56,5973701310052
4.8516084 ,Left ,62,1230312645021 ,44,7511269049264 ,56,5973701310052
4.8516154 ,Left ,62,1230312645021 ,44,7511269049264 ,56,5973701310052
4.8516222 ,Left ,62,1230312645021 ,44,7511269049264 ,56,5973701310052
4.8516289 ,Left ,62,1230312645021 ,44,7511269049264 ,56,5973701310052
4.8739929 ,Left ,62,1555163105768 ,44,7544654359456 ,56,5539354347164
4.8740008 ,Left ,62,1555163105768 ,44,7544654359456 ,56,5539354347164
4.8740076 ,Left ,62,1555163105768 ,44,7544654359456 ,56,5539354347164
4.8740144 ,Left ,62,1555163105768 ,44,7544654359456 ,56,5539354347164
4.8740211 ,Left ,62,1555163105768 ,44,7544654359456 ,56,5539354347164
4.8740278 ,Left ,62,1555163105768 ,44,7544654359456 ,56,5539354347164
4.8963588 ,Left ,62,1305813656946 ,44,8075357826749 ,56,5206436686126
4.8963737 ,Left ,62,1305813656946 ,44,8075357826749 ,56,5206436686126
4.8963805 ,Left ,62,1305813656946 ,44,8075357826749 ,56,5206436686126
4.8963873 ,Left ,62,1305813656946 ,44,8075357826749 ,56,5206436686126
4.896394 ,Left ,62,1305813656946 ,44,8075357826749 ,56,5206436686126
4.8964008 ,Left ,62,1305813656946 ,44,8075357826749 ,56,5206436686126
4.9333806 ,Left ,61,9452136258199 ,44,9003995744251 ,56,4845237867333
4.9333843 ,Left ,61,9452136258199 ,44,9003995744251 ,56,4845237867333
4.9333873 ,Left ,61,9452136258199 ,44,9003995744251 ,56,4845237867333
4.9333902 ,Left ,61,9452136258199 ,44,9003995744251 ,56,4845237867333
4.9333942 ,Left ,61,9452136258199 ,44,9003995744251 ,56,4845237867333
4.9333995 ,Left ,61,9452136258199 ,44,9003995744251 ,56,4845237867333
4.963421 ,Left ,61,8973300071799 ,44,8759208572321 ,56,4974567146597
4.9634236 ,Left ,61,8973300071799 ,44,8759208572321 ,56,4974567146597
4.9634257 ,Left ,61,8973300071799 ,44,8759208572321 ,56,4974567146597
4.9634278 ,Left ,61,8973300071799 ,44,8759208572321 ,56,4974567146597
4.9634299 ,Left ,61,8973300071799 ,44,8759208572321 ,56,4974567146597
4.963432 ,Left ,61,8973300071799 ,44,8759208572321 ,56,4974567146597
5.0008051 ,Left ,61,9100559929332 ,44,8010543587861 ,56,5305687791574
5.0008081 ,Left ,61,9100559929332 ,44,8010543587861 ,56,5305687791574
5.0008107 ,Left ,61,9100559929332 ,44,8010543587861 ,56,5305687791574
5.0008135 ,Left ,61,9100559929332 ,44,8010543587861 ,56,5305687791574
5.0008162 ,Left ,61,9100559929332 ,44,8010543587861 ,56,5305687791574
5.0008217 ,Left ,61,9100559929332 ,44,8010543587861 ,56,5305687791574
5.0158687 ,Left ,61,9538716305582 ,44,7811060831426 ,56,5193868233661
5.0158719 ,Left ,61,9538716305582 ,44,7811060831426 ,56,5193868233661
5.0158746 ,Left ,61,9538716305582 ,44,7811060831426 ,56,5193868233661
5.0158773 ,Left ,61,9538716305582 ,44,7811060831426 ,56,5193868233661
5.0158799 ,Left ,61,9538716305582 ,44,7811060831426 ,56,5193868233661
5.0158826 ,Left ,61,9538716305582 ,44,7811060831426 ,56,5193868233661
5.0534983 ,Left ,61,9582208513143 ,44,7648631288169 ,56,4694669907021
5.0535016 ,Left ,61,9582208513143 ,44,7648631288169 ,56,4694669907021
5.0535043 ,Left ,61,9582208513143 ,44,7648631288169 ,56,4694669907021
5.0535071 ,Left ,61,9582208513143 ,44,7648631288169 ,56,4694669907021
5.0535098 ,Left ,61,9582208513143 ,44,7648631288169 ,56,4694669907021
5.0535124 ,Left ,61,9582208513143 ,44,7648631288169 ,56,4694669907021
5.0834635 ,Left ,62,0040689556349 ,44,7761705802219 ,56,4389957276675
5.0834654 ,Left ,62,0040689556349 ,44,7761705802219 ,56,4389957276675
5.0834669 ,Left ,62,0040689556349 ,44,7761705802219 ,56,4389957276675
5.0834684 ,Left ,62,0040689556349 ,44,7761705802219 ,56,4389957276675
5.08347 ,Left ,62,0040689556349 ,44,7761705802219 ,56,4389957276675
5.0834714 ,Left ,62,0040689556349 ,44,7761705802219 ,56,4389957276675
5.1207583 ,Left ,62,0161907502335 ,44,7815521091001 ,56,3782069825689
5.1207611 ,Left ,62,0161907502335 ,44,7815521091001 ,56,3782069825689
5.120764 ,Left ,62,0161907502335 ,44,7815521091001 ,56,3782069825689
5.1207668 ,Left ,62,0161907502335 ,44,7815521091001 ,56,3782069825689
5.1207695 ,Left ,62,0161907502335 ,44,7815521091001 ,56,3782069825689
5.1207724 ,Left ,62,0161907502335 ,44,7815521091001 ,56,3782069825689
5.1433995 ,Left ,62,0089962378709 ,44,766903298034 ,56,3672868843522
5.1434028 ,Left ,62,0089962378709 ,44,766903298034 ,56,3672868843522
5.1434055 ,Left ,62,0089962378709 ,44,766903298034 ,56,3672868843522
5.1434082 ,Left ,62,0089962378709 ,44,766903298034 ,56,3672868843522
5.1434108 ,Left ,62,0089962378709 ,44,766903298034 ,56,3672868843522
5.1434134 ,Left ,62,0089962378709 ,44,766903298034 ,56,3672868843522
5.188594 ,Left ,62,0111653981961 ,44,7567241162229 ,56,3693844444217
5.188599 ,Left ,62,0111653981961 ,44,7567241162229 ,56,3693844444217
5.1886033 ,Left ,62,0111653981961 ,44,7567241162229 ,56,3693844444217
5.1886077 ,Left ,62,0111653981961 ,44,7567241162229 ,56,3693844444217
5.188612 ,Left ,62,0111653981961 ,44,7567241162229 ,56,3693844444217
5.1886164 ,Left ,62,0111653981961 ,44,7567241162229 ,56,3693844444217
5.2037063 ,Left ,62,0035789611078 ,44,7483902787401 ,56,3740417805044
5.2037114 ,Left ,62,0035789611078 ,44,7483902787401 ,56,3740417805044
5.2037158 ,Left ,62,0035789611078 ,44,7483902787401 ,56,3740417805044
5.2037203 ,Left ,62,0035789611078 ,44,7483902787401 ,56,3740417805044
5.2037247 ,Left ,62,0035789611078 ,44,7483902787401 ,56,3740417805044
5.203729 ,Left ,62,0035789611078 ,44,7483902787401 ,56,3740417805044
5.2560914 ,Left ,61,9517659636807 ,44,7511791692339 ,56,3949156266043
5.2560949 ,Left ,61,9517659636807 ,44,7511791692339 ,56,3949156266043
5.2560977 ,Left ,61,9517659636807 ,44,7511791692339 ,56,3949156266043
5.2561005 ,Left ,61,9517659636807 ,44,7511791692339 ,56,3949156266043
5.2561033 ,Left ,61,9517659636807 ,44,7511791692339 ,56,3949156266043
5.2561061 ,Left ,61,9517659636807 ,44,7511791692339 ,56,3949156266043
5.2934862 ,Left ,61,937875182412 ,44,7708213805628 ,56,4074682217382
5.2934896 ,Left ,61,937875182412 ,44,7708213805628 ,56,4074682217382
5.2934924 ,Left ,61,937875182412 ,44,7708213805628 ,56,4074682217382
5.2934952 ,Left ,61,937875182412 ,44,7708213805628 ,56,4074682217382
5.2934979 ,Left ,61,937875182412 ,44,7708213805628 ,56,4074682217382
5.2935007 ,Left ,61,937875182412 ,44,7708213805628 ,56,4074682217382
5.3160484 ,Left ,61,937875182412 ,44,7708213805628 ,56,4074682217382
5.3160518 ,Left ,61,937875182412 ,44,7708213805628 ,56,4074682217382
5.3160546 ,Left ,61,937875182412 ,44,7708213805628 ,56,4074682217382
5.3160574 ,Left ,61,937875182412 ,44,7708213805628 ,56,4074682217382
5.3160601 ,Left ,61,937875182412 ,44,7708213805628 ,56,4074682217382
5.3160629 ,Left ,61,937875182412 ,44,7708213805628 ,56,4074682217382
5.3533118 ,Left ,61,9433037205426 ,44,7636331955577 ,56,4111090356757
5.3533139 ,Left ,61,9433037205426 ,44,7636331955577 ,56,4111090356757
5.3533154 ,Left ,61,9433037205426 ,44,7636331955577 ,56,4111090356757
5.353317 ,Left ,61,9433037205426 ,44,7636331955577 ,56,4111090356757
5.3533186 ,Left ,61,9433037205426 ,44,7636331955577 ,56,4111090356757
5.3533201 ,Left ,61,9433037205426 ,44,7636331955577 ,56,4111090356757
5.3758401 ,Left ,61,9318190836403 ,44,7585183999892 ,56,4103438402637
5.3758428 ,Left ,61,9318190836403 ,44,7585183999892 ,56,4103438402637
5.3758447 ,Left ,61,9318190836403 ,44,7585183999892 ,56,4103438402637
5.3758466 ,Left ,61,9318190836403 ,44,7585183999892 ,56,4103438402637
5.3758485 ,Left ,61,9318190836403 ,44,7585183999892 ,56,4103438402637
5.3758504 ,Left ,61,9318190836403 ,44,7585183999892 ,56,4103438402637
5.4133468 ,Left ,61,9184897898587 ,44,7601540979534 ,56,4094671177772
5.4133493 ,Left ,61,9184897898587 ,44,7601540979534 ,56,4094671177772
5.4133512 ,Left ,61,9184897898587 ,44,7601540979534 ,56,4094671177772
5.4133531 ,Left ,61,9184897898587 ,44,7601540979534 ,56,4094671177772
5.413355 ,Left ,61,9184897898587 ,44,7601540979534 ,56,4094671177772
5.4133569 ,Left ,61,9184897898587 ,44,7601540979534 ,56,4094671177772
5.4359451 ,Left ,61,9004292878509 ,44,7584390760119 ,56,4149420801074
5.435948 ,Left ,61,9004292878509 ,44,7584390760119 ,56,4149420801074
5.4359504 ,Left ,61,9004292878509 ,44,7584390760119 ,56,4149420801074
5.4359528 ,Left ,61,9004292878509 ,44,7584390760119 ,56,4149420801074
5.4359551 ,Left ,61,9004292878509 ,44,7584390760119 ,56,4149420801074
5.4359575 ,Left ,61,9004292878509 ,44,7584390760119 ,56,4149420801074
5.473404 ,Left ,61,8827901378528 ,44,7611588213554 ,56,4195526255251
5.4734073 ,Left ,61,8827901378528 ,44,7611588213554 ,56,4195526255251
5.4734099 ,Left ,61,8827901378528 ,44,7611588213554 ,56,4195526255251
5.4734125 ,Left ,61,8827901378528 ,44,7611588213554 ,56,4195526255251
5.4734152 ,Left ,61,8827901378528 ,44,7611588213554 ,56,4195526255251
5.4734179 ,Left ,61,8827901378528 ,44,7611588213554 ,56,4195526255251
5.4959442 ,Left ,61,8827901378528 ,44,7611588213554 ,56,4195526255251
5.4959478 ,Left ,61,8827901378528 ,44,7611588213554 ,56,4195526255251
5.4959505 ,Left ,61,8827901378528 ,44,7611588213554 ,56,4195526255251
5.4959533 ,Left ,61,8827901378528 ,44,7611588213554 ,56,4195526255251
5.4959559 ,Left ,61,8827901378528 ,44,7611588213554 ,56,4195526255251
5.4959586 ,Left ,61,8827901378528 ,44,7611588213554 ,56,4195526255251
5.5334354 ,Left ,61,8730764799888 ,44,779200937031 ,56,4333828491281
5.5334373 ,Left ,61,8730764799888 ,44,779200937031 ,56,4333828491281
5.5334388 ,Left ,61,8730764799888 ,44,779200937031 ,56,4333828491281
5.5334403 ,Left ,61,8730764799888 ,44,779200937031 ,56,4333828491281
5.5334418 ,Left ,61,8730764799888 ,44,779200937031 ,56,4333828491281
5.5334433 ,Left ,61,8730764799888 ,44,779200937031 ,56,4333828491281
5.5557585 ,Left ,61,8606456480093 ,44,786653361747 ,56,4442190634179
5.5557604 ,Left ,61,8606456480093 ,44,786653361747 ,56,4442190634179
5.5557619 ,Left ,61,8606456480093 ,44,786653361747 ,56,4442190634179
5.5557634 ,Left ,61,8606456480093 ,44,786653361747 ,56,4442190634179
5.5557649 ,Left ,61,8606456480093 ,44,786653361747 ,56,4442190634179
5.5557664 ,Left ,61,8606456480093 ,44,786653361747 ,56,4442190634179
5.5939772 ,Left ,61,8349347295735 ,44,814529490711 ,56,480208047889
5.593985 ,Left ,61,8349347295735 ,44,814529490711 ,56,480208047889
5.5939919 ,Left ,61,8349347295735 ,44,814529490711 ,56,480208047889
5.5939988 ,Left ,61,8349347295735 ,44,814529490711 ,56,480208047889
5.5940055 ,Left ,61,8349347295735 ,44,814529490711 ,56,480208047889
5.5940122 ,Left ,61,8349347295735 ,44,814529490711 ,56,480208047889
5.61646 ,Left ,61,8251783641209 ,44,8307667837329 ,56,4934017577784
5.6164678 ,Left ,61,8251783641209 ,44,8307667837329 ,56,4934017577784
5.6164746 ,Left ,61,8251783641209 ,44,8307667837329 ,56,4934017577784
5.6164815 ,Left ,61,8251783641209 ,44,8307667837329 ,56,4934017577784
5.6164881 ,Left ,61,8251783641209 ,44,8307667837329 ,56,4934017577784
5.6164949 ,Left ,61,8251783641209 ,44,8307667837329 ,56,4934017577784
5.654003 ,Left ,61,7977529340469 ,44,8740904107325 ,56,5094605000068
5.6540112 ,Left ,61,7977529340469 ,44,8740904107325 ,56,5094605000068
5.6540179 ,Left ,61,7977529340469 ,44,8740904107325 ,56,5094605000068
5.6540247 ,Left ,61,7977529340469 ,44,8740904107325 ,56,5094605000068
5.6540314 ,Left ,61,7977529340469 ,44,8740904107325 ,56,5094605000068
5.6540381 ,Left ,61,7977529340469 ,44,8740904107325 ,56,5094605000068
5.6915191 ,Left ,61,7750134308956 ,44,9062212320222 ,56,5180464628275
5.6915269 ,Left ,61,7750134308956 ,44,9062212320222 ,56,5180464628275
5.6915335 ,Left ,61,7750134308956 ,44,9062212320222 ,56,5180464628275
5.6915402 ,Left ,61,7750134308956 ,44,9062212320222 ,56,5180464628275
5.6915468 ,Left ,61,7750134308956 ,44,9062212320222 ,56,5180464628275
5.6915534 ,Left ,61,7750134308956 ,44,9062212320222 ,56,5180464628275
5.7134641 ,Left ,61,7573581052919 ,44,9195728121798 ,56,5177357509073
5.7134707 ,Left ,61,7573581052919 ,44,9195728121798 ,56,5177357509073
5.7134765 ,Left ,61,7573581052919 ,44,9195728121798 ,56,5177357509073
5.713482 ,Left ,61,7573581052919 ,44,9195728121798 ,56,5177357509073
5.7134876 ,Left ,61,7573581052919 ,44,9195728121798 ,56,5177357509073
5.713493 ,Left ,61,7573581052919 ,44,9195728121798 ,56,5177357509073
5.735938 ,Left ,61,7409267964947 ,44,9276503106952 ,56,5244975260761
5.7359407 ,Left ,61,7409267964947 ,44,9276503106952 ,56,5244975260761
5.7359427 ,Left ,61,7409267964947 ,44,9276503106952 ,56,5244975260761
5.7359449 ,Left ,61,7409267964947 ,44,9276503106952 ,56,5244975260761
5.7359469 ,Left ,61,7409267964947 ,44,9276503106952 ,56,5244975260761
5.7359491 ,Left ,61,7409267964947 ,44,9276503106952 ,56,5244975260761
5.773351 ,Left ,61,7408740590183 ,44,9345768530297 ,56,5332033317454
5.7733537 ,Left ,61,7408740590183 ,44,9345768530297 ,56,5332033317454
5.7733558 ,Left ,61,7408740590183 ,44,9345768530297 ,56,5332033317454
5.7733579 ,Left ,61,7408740590183 ,44,9345768530297 ,56,5332033317454
5.77336 ,Left ,61,7408740590183 ,44,9345768530297 ,56,5332033317454
5.7733621 ,Left ,61,7408740590183 ,44,9345768530297 ,56,5332033317454
5.8108634 ,Left ,61,7460832787743 ,44,8571220259695 ,56,5421218103962
5.8108658 ,Left ,61,7460832787743 ,44,8571220259695 ,56,5421218103962
5.8108677 ,Left ,61,7460832787743 ,44,8571220259695 ,56,5421218103962
5.8108697 ,Left ,61,7460832787743 ,44,8571220259695 ,56,5421218103962
5.8108743 ,Left ,61,7460832787743 ,44,8571220259695 ,56,5421218103962
5.8108762 ,Left ,61,7460832787743 ,44,8571220259695 ,56,5421218103962
5.8333582 ,Left ,61,7842036896641 ,44,7959380195087 ,56,5828607444232
5.8333613 ,Left ,61,7842036896641 ,44,7959380195087 ,56,5828607444232
5.8333635 ,Left ,61,7842036896641 ,44,7959380195087 ,56,5828607444232
5.8333656 ,Left ,61,7842036896641 ,44,7959380195087 ,56,5828607444232
5.8333677 ,Left ,61,7842036896641 ,44,7959380195087 ,56,5828607444232
5.8333698 ,Left ,61,7842036896641 ,44,7959380195087 ,56,5828607444232
5.8707903 ,Left ,61,7284801973254 ,44,7851502220084 ,56,62981104234
5.8707926 ,Left ,61,7284801973254 ,44,7851502220084 ,56,62981104234
5.8707944 ,Left ,61,7284801973254 ,44,7851502220084 ,56,62981104234
5.8707962 ,Left ,61,7284801973254 ,44,7851502220084 ,56,62981104234
5.8707999 ,Left ,61,7284801973254 ,44,7851502220084 ,56,62981104234
5.8708016 ,Left ,61,7284801973254 ,44,7851502220084 ,56,62981104234
5.8932972 ,Left ,61,688708124821 ,44,8296164036098 ,56,63582005515
5.893299 ,Left ,61,688708124821 ,44,8296164036098 ,56,63582005515
5.8933005 ,Left ,61,688708124821 ,44,8296164036098 ,56,63582005515
5.893302 ,Left ,61,688708124821 ,44,8296164036098 ,56,63582005515
5.8933035 ,Left ,61,688708124821 ,44,8296164036098 ,56,63582005515
5.893305 ,Left ,61,688708124821 ,44,8296164036098 ,56,63582005515
5.9310628 ,Left ,61,7282742323547 ,44,9388724957847 ,56,5927835643622
5.9310659 ,Left ,61,7282742323547 ,44,9388724957847 ,56,5927835643622
5.9310687 ,Left ,61,7282742323547 ,44,9388724957847 ,56,5927835643622
5.9310714 ,Left ,61,7282742323547 ,44,9388724957847 ,56,5927835643622
5.9310741 ,Left ,61,7282742323547 ,44,9388724957847 ,56,5927835643622
5.9310768 ,Left ,61,7282742323547 ,44,9388724957847 ,56,5927835643622
5.9536056 ,Left ,61,7786147326249 ,44,9448563961951 ,56,5257044172631
5.9536101 ,Left ,61,7786147326249 ,44,9448563961951 ,56,5257044172631
5.9536138 ,Left ,61,7786147326249 ,44,9448563961951 ,56,5257044172631
5.9536174 ,Left ,61,7786147326249 ,44,9448563961951 ,56,5257044172631
5.953621 ,Left ,61,7786147326249 ,44,9448563961951 ,56,5257044172631
5.9536245 ,Left ,61,7786147326249 ,44,9448563961951 ,56,5257044172631
5.991203 ,Left ,61,774449157931 ,44,9571672791263 ,56,4318341145933
5.9912073 ,Left ,61,774449157931 ,44,9571672791263 ,56,4318341145933
5.9912109 ,Left ,61,774449157931 ,44,9571672791263 ,56,4318341145933
5.9912146 ,Left ,61,774449157931 ,44,9571672791263 ,56,4318341145933
5.9912182 ,Left ,61,774449157931 ,44,9571672791263 ,56,4318341145933
5.9912218 ,Left ,61,774449157931 ,44,9571672791263 ,56,4318341145933
6.0135699 ,Left ,61,7967547149428 ,44,9418373253308 ,56,3982670860238
6.0135742 ,Left ,61,7967547149428 ,44,9418373253308 ,56,3982670860238
6.0135777 ,Left ,61,7967547149428 ,44,9418373253308 ,56,3982670860238
6.0135813 ,Left ,61,7967547149428 ,44,9418373253308 ,56,3982670860238
6.0135849 ,Left ,61,7967547149428 ,44,9418373253308 ,56,3982670860238
6.0135884 ,Left ,61,7967547149428 ,44,9418373253308 ,56,3982670860238
6.0508172 ,Left ,61,7941834108066 ,44,8979139827847 ,56,3519516899005
6.0508191 ,Left ,61,7941834108066 ,44,8979139827847 ,56,3519516899005
6.0508206 ,Left ,61,7941834108066 ,44,8979139827847 ,56,3519516899005
6.050822 ,Left ,61,7941834108066 ,44,8979139827847 ,56,3519516899005
6.0508235 ,Left ,61,7941834108066 ,44,8979139827847 ,56,3519516899005
6.050825 ,Left ,61,7941834108066 ,44,8979139827847 ,56,3519516899005
6.0733786 ,Left ,61,8116886591195 ,44,8474216394623 ,56,3501164379671
6.0733806 ,Left ,61,8116886591195 ,44,8474216394623 ,56,3501164379671
6.0733821 ,Left ,61,8116886591195 ,44,8474216394623 ,56,3501164379671
6.0733836 ,Left ,61,8116886591195 ,44,8474216394623 ,56,3501164379671
6.0733851 ,Left ,61,8116886591195 ,44,8474216394623 ,56,3501164379671
6.0733866 ,Left ,61,8116886591195 ,44,8474216394623 ,56,3501164379671
6.1110557 ,Left ,61,9304684232866 ,44,7765249587268 ,56,4038266992188
6.111059 ,Left ,61,9304684232866 ,44,7765249587268 ,56,4038266992188
6.1110618 ,Left ,61,9304684232866 ,44,7765249587268 ,56,4038266992188
6.1110646 ,Left ,61,9304684232866 ,44,7765249587268 ,56,4038266992188
6.1110673 ,Left ,61,9304684232866 ,44,7765249587268 ,56,4038266992188
6.1110701 ,Left ,61,9304684232866 ,44,7765249587268 ,56,4038266992188
6.1335932 ,Left ,61,9323759769881 ,44,8126404708143 ,56,4074768556065
6.1335979 ,Left ,61,9323759769881 ,44,8126404708143 ,56,4074768556065
6.1336017 ,Left ,61,9323759769881 ,44,8126404708143 ,56,4074768556065
6.1336056 ,Left ,61,9323759769881 ,44,8126404708143 ,56,4074768556065
6.1336094 ,Left ,61,9323759769881 ,44,8126404708143 ,56,4074768556065
6.1336132 ,Left ,61,9323759769881 ,44,8126404708143 ,56,4074768556065
6.1711261 ,Left ,61,8368208647123 ,44,8852836252885 ,56,3963135158533
6.1711307 ,Left ,61,8368208647123 ,44,8852836252885 ,56,3963135158533
6.1711345 ,Left ,61,8368208647123 ,44,8852836252885 ,56,3963135158533
6.1711384 ,Left ,61,8368208647123 ,44,8852836252885 ,56,3963135158533
6.1711422 ,Left ,61,8368208647123 ,44,8852836252885 ,56,3963135158533
6.171146 ,Left ,61,8368208647123 ,44,8852836252885 ,56,3963135158533
6.2010873 ,Left ,61,8311852587387 ,44,9032936882874 ,56,3925738277623
6.2010912 ,Left ,61,8311852587387 ,44,9032936882874 ,56,3925738277623
6.2010942 ,Left ,61,8311852587387 ,44,9032936882874 ,56,3925738277623
6.2010973 ,Left ,61,8311852587387 ,44,9032936882874 ,56,3925738277623
6.2011005 ,Left ,61,8311852587387 ,44,9032936882874 ,56,3925738277623
6.2011035 ,Left ,61,8311852587387 ,44,9032936882874 ,56,3925738277623
6.2160729 ,Left ,61,8248352974524 ,44,8971719286128 ,56,3752809925834
6.2160766 ,Left ,61,8248352974524 ,44,8971719286128 ,56,3752809925834
6.2160797 ,Left ,61,8248352974524 ,44,8971719286128 ,56,3752809925834
6.2160828 ,Left ,61,8248352974524 ,44,8971719286128 ,56,3752809925834
6.2160859 ,Left ,61,8248352974524 ,44,8971719286128 ,56,3752809925834
6.2160889 ,Left ,61,8248352974524 ,44,8971719286128 ,56,3752809925834
6.245794 ,Left ,61,7906138105366 ,44,8256744438413 ,56,3596093510079
6.245796 ,Left ,61,7906138105366 ,44,8256744438413 ,56,3596093510079
6.2457974 ,Left ,61,7906138105366 ,44,8256744438413 ,56,3596093510079
6.245799 ,Left ,61,7906138105366 ,44,8256744438413 ,56,3596093510079
6.2458005 ,Left ,61,7906138105366 ,44,8256744438413 ,56,3596093510079
6.245802 ,Left ,61,7906138105366 ,44,8256744438413 ,56,3596093510079
6.2682902 ,Left ,61,7875615506562 ,44,7761343780954 ,56,3830318743871
6.268292 ,Left ,61,7875615506562 ,44,7761343780954 ,56,3830318743871
6.2682935 ,Left ,61,7875615506562 ,44,7761343780954 ,56,3830318743871
6.268295 ,Left ,61,7875615506562 ,44,7761343780954 ,56,3830318743871
6.2682995 ,Left ,61,7875615506562 ,44,7761343780954 ,56,3830318743871
6.2683011 ,Left ,61,7875615506562 ,44,7761343780954 ,56,3830318743871
6.2983028 ,Left ,61,8784924822714 ,44,7255105630007 ,56,4161450793239
6.2983046 ,Left ,61,8784924822714 ,44,7255105630007 ,56,4161450793239
6.2983061 ,Left ,61,8784924822714 ,44,7255105630007 ,56,4161450793239
6.2983076 ,Left ,61,8784924822714 ,44,7255105630007 ,56,4161450793239
6.298309 ,Left ,61,8784924822714 ,44,7255105630007 ,56,4161450793239
6.2983105 ,Left ,61,8784924822714 ,44,7255105630007 ,56,4161450793239
6.3133588 ,Left ,61,913199380242 ,44,7468298759539 ,56,4296349084906
6.3133613 ,Left ,61,913199380242 ,44,7468298759539 ,56,4296349084906
6.3133632 ,Left ,61,913199380242 ,44,7468298759539 ,56,4296349084906
6.3133652 ,Left ,61,913199380242 ,44,7468298759539 ,56,4296349084906
6.3133671 ,Left ,61,913199380242 ,44,7468298759539 ,56,4296349084906
6.313369 ,Left ,61,913199380242 ,44,7468298759539 ,56,4296349084906
6.3357716 ,Left ,61,8549131978631 ,44,8026199626698 ,56,4351426896958
6.3357735 ,Left ,61,8549131978631 ,44,8026199626698 ,56,4351426896958
6.335775 ,Left ,61,8549131978631 ,44,8026199626698 ,56,4351426896958
6.3357766 ,Left ,61,8549131978631 ,44,8026199626698 ,56,4351426896958
6.3357781 ,Left ,61,8549131978631 ,44,8026199626698 ,56,4351426896958
6.3357795 ,Left ,61,8549131978631 ,44,8026199626698 ,56,4351426896958
6.3733136 ,Left ,61,857040240608 ,44,9366707893659 ,56,4596346178907
6.3733161 ,Left ,61,857040240608 ,44,9366707893659 ,56,4596346178907
6.373318 ,Left ,61,857040240608 ,44,9366707893659 ,56,4596346178907
6.3733199 ,Left ,61,857040240608 ,44,9366707893659 ,56,4596346178907
6.3733218 ,Left ,61,857040240608 ,44,9366707893659 ,56,4596346178907
6.3733237 ,Left ,61,857040240608 ,44,9366707893659 ,56,4596346178907
6.3959912 ,Left ,61,752145340319 ,45,0351724259065 ,56,4679622633418
6.3959948 ,Left ,61,752145340319 ,45,0351724259065 ,56,4679622633418
6.3959975 ,Left ,61,752145340319 ,45,0351724259065 ,56,4679622633418
6.3960002 ,Left ,61,752145340319 ,45,0351724259065 ,56,4679622633418
6.3960029 ,Left ,61,752145340319 ,45,0351724259065 ,56,4679622633418
6.3960056 ,Left ,61,752145340319 ,45,0351724259065 ,56,4679622633418
6.4108525 ,Left ,61,7195305217765 ,45,0937311098308 ,56,4653059025613
6.4108556 ,Left ,61,7195305217765 ,45,0937311098308 ,56,4653059025613
6.4108583 ,Left ,61,7195305217765 ,45,0937311098308 ,56,4653059025613
6.4108611 ,Left ,61,7195305217765 ,45,0937311098308 ,56,4653059025613
6.4108637 ,Left ,61,7195305217765 ,45,0937311098308 ,56,4653059025613
6.4108663 ,Left ,61,7195305217765 ,45,0937311098308 ,56,4653059025613
6.4259218 ,Left ,61,6958365503929 ,45,1259704356379 ,56,4747858406708
6.4259252 ,Left ,61,6958365503929 ,45,1259704356379 ,56,4747858406708
