timestamp,event,roll,pitch,yaw
0.0105298 ,Left ,63,1743239030428 ,47,0119051982146 ,64,2581040706828
0.0105332 ,Left ,63,1743239030428 ,47,0119051982146 ,64,2581040706828
0.0105358 ,Left ,63,1743239030428 ,47,0119051982146 ,64,2581040706828
0.063379 ,Left ,63,1288125529555 ,46,9088372465217 ,64,2449838603402
0.0633808 ,Left ,63,1288125529555 ,46,9088372465217 ,64,2449838603402
0.0633829 ,Left ,63,1288125529555 ,46,9088372465217 ,64,2449838603402
0.1008864 ,Left ,63,1657213611355 ,46,8857274081896 ,64,2547260666549
0.1008884 ,Left ,63,1657213611355 ,46,8857274081896 ,64,2547260666549
0.1008899 ,Left ,63,1657213611355 ,46,8857274081896 ,64,2547260666549
0.1231878 ,Left ,63,2103403462008 ,46,8683344115883 ,64,2480566488023
0.1231895 ,Left ,63,2103403462008 ,46,8683344115883 ,64,2480566488023
0.1231911 ,Left ,63,2103403462008 ,46,8683344115883 ,64,2480566488023
0.1610293 ,Left ,63,2445680611796 ,46,8346546210604 ,64,2337181901647
0.161033 ,Left ,63,2445680611796 ,46,8346546210604 ,64,2337181901647
0.1610362 ,Left ,63,2445680611796 ,46,8346546210604 ,64,2337181901647
0.1834267 ,Left ,63,253809896033 ,46,8250188738358 ,64,2281281478069
0.1834305 ,Left ,63,253809896033 ,46,8250188738358 ,64,2281281478069
0.1834347 ,Left ,63,253809896033 ,46,8250188738358 ,64,2281281478069
0.220868 ,Left ,63,2566271719239 ,46,8236139327407 ,64,2375099033841
0.2208702 ,Left ,63,2566271719239 ,46,8236139327407 ,64,2375099033841
0.2208719 ,Left ,63,2566271719239 ,46,8236139327407 ,64,2375099033841
0.2434482 ,Left ,63,2771388671996 ,46,8246317402412 ,64,2427894138518
0.2434512 ,Left ,63,2771388671996 ,46,8246317402412 ,64,2427894138518
0.2434535 ,Left ,63,2771388671996 ,46,8246317402412 ,64,2427894138518
0.2807065 ,Left ,63,3131343051286 ,46,8285397665103 ,64,2482532853246
0.2807093 ,Left ,63,3131343051286 ,46,8285397665103 ,64,2482532853246
0.2807116 ,Left ,63,3131343051286 ,46,8285397665103 ,64,2482532853246
0.303306 ,Left ,63,3153876025649 ,46,8276875032911 ,64,2483685807544
0.3033088 ,Left ,63,3153876025649 ,46,8276875032911 ,64,2483685807544
0.3033111 ,Left ,63,3153876025649 ,46,8276875032911 ,64,2483685807544
0.3407493 ,Left ,63,32924238566 ,46,8388692630824 ,64,2596560481204
0.3407519 ,Left ,63,32924238566 ,46,8388692630824 ,64,2596560481204
0.3407542 ,Left ,63,32924238566 ,46,8388692630824 ,64,2596560481204
0.3632143 ,Left ,63,3424506702474 ,46,8468250987838 ,64,2617343086495
0.363217 ,Left ,63,3424506702474 ,46,8468250987838 ,64,2617343086495
0.3632194 ,Left ,63,3424506702474 ,46,8468250987838 ,64,2617343086495
0.4007103 ,Left ,63,3641227251629 ,46,8553962896731 ,64,2657637401962
0.400712 ,Left ,63,3641227251629 ,46,8553962896731 ,64,2657637401962
0.4007135 ,Left ,63,3641227251629 ,46,8553962896731 ,64,2657637401962
0.4232138 ,Left ,63,3713854001012 ,46,856443195469 ,64,2643161490695
0.4232167 ,Left ,63,3713854001012 ,46,856443195469 ,64,2643161490695
0.4232182 ,Left ,63,3713854001012 ,46,856443195469 ,64,2643161490695
0.4606465 ,Left ,63,4196608488207 ,46,8568023594664 ,64,2605527233801
0.4606489 ,Left ,63,4196608488207 ,46,8568023594664 ,64,2605527233801
0.460651 ,Left ,63,4196608488207 ,46,8568023594664 ,64,2605527233801
0.4835006 ,Left ,63,4436890087872 ,46,8675138926598 ,64,2603995487536
0.4835038 ,Left ,63,4436890087872 ,46,8675138926598 ,64,2603995487536
0.4835064 ,Left ,63,4436890087872 ,46,8675138926598 ,64,2603995487536
0.5205945 ,Left ,63,4438684826317 ,46,9013991920789 ,64,2768332691067
0.5205961 ,Left ,63,4438684826317 ,46,9013991920789 ,64,2768332691067
0.5205977 ,Left ,63,4438684826317 ,46,9013991920789 ,64,2768332691067
0.54318 ,Left ,63,4617854665119 ,46,9026010455194 ,64,2795650061353
0.5431821 ,Left ,63,4617854665119 ,46,9026010455194 ,64,2795650061353
0.543184 ,Left ,63,4617854665119 ,46,9026010455194 ,64,2795650061353
0.5806921 ,Left ,63,5024547913618 ,46,90088431375 ,64,2791731319097
0.5806945 ,Left ,63,5024547913618 ,46,90088431375 ,64,2791731319097
0.5806966 ,Left ,63,5024547913618 ,46,90088431375 ,64,2791731319097
0.6034565 ,Left ,63,4883084257086 ,46,9150116996647 ,64,2927226586424
0.6034591 ,Left ,63,4883084257086 ,46,9150116996647 ,64,2927226586424
0.6034612 ,Left ,63,4883084257086 ,46,9150116996647 ,64,2927226586424
0.6411374 ,Left ,63,500894514118 ,46,9601908512405 ,64,3104003182808
0.641145 ,Left ,63,500894514118 ,46,9601908512405 ,64,3104003182808
0.6411517 ,Left ,63,500894514118 ,46,9601908512405 ,64,3104003182808
0.6634475 ,Left ,63,5021300118156 ,46,9711630963845 ,64,3199305679769
0.6634547 ,Left ,63,5021300118156 ,46,9711630963845 ,64,3199305679769
0.6634606 ,Left ,63,5021300118156 ,46,9711630963845 ,64,3199305679769
0.7006783 ,Left ,63,4631377065862 ,47,0017413383626 ,64,3425085918138
0.7006799 ,Left ,63,4631377065862 ,47,0017413383626 ,64,3425085918138
0.7006814 ,Left ,63,4631377065862 ,47,0017413383626 ,64,3425085918138
0.7232425 ,Left ,63,4756991800212 ,47,0355070817963 ,64,3410252240887
0.7232443 ,Left ,63,4756991800212 ,47,0355070817963 ,64,3410252240887
0.7232458 ,Left ,63,4756991800212 ,47,0355070817963 ,64,3410252240887
0.7606832 ,Left ,63,5309498508011 ,46,9617540391518 ,64,290752699979
0.7606852 ,Left ,63,5309498508011 ,46,9617540391518 ,64,290752699979
0.760687 ,Left ,63,5309498508011 ,46,9617540391518 ,64,290752699979
0.7833033 ,Left ,63,4876915397577 ,46,9121661658248 ,64,3181504441891
0.783307 ,Left ,63,4876915397577 ,46,9121661658248 ,64,3181504441891
0.78331 ,Left ,63,4876915397577 ,46,9121661658248 ,64,3181504441891
0.8209018 ,Left ,63,4528997132817 ,46,8158466827494 ,64,3667655321107
0.820907 ,Left ,63,4528997132817 ,46,8158466827494 ,64,3667655321107
0.8209113 ,Left ,63,4528997132817 ,46,8158466827494 ,64,3667655321107
0.8434108 ,Left ,63,500886830472 ,46,7296046268706 ,64,3393704710381
0.8434144 ,Left ,63,500886830472 ,46,7296046268706 ,64,3393704710381
0.8434172 ,Left ,63,500886830472 ,46,7296046268706 ,64,3393704710381
0.8806213 ,Left ,63,5806778093517 ,46,4613028147686 ,64,2430826076593
0.880623 ,Left ,63,5806778093517 ,46,4613028147686 ,64,2430826076593
0.8806245 ,Left ,63,5806778093517 ,46,4613028147686 ,64,2430826076593
0.9032451 ,Left ,63,5749181588319 ,46,3422558671461 ,64,2183299405185
0.9032471 ,Left ,63,5749181588319 ,46,3422558671461 ,64,2183299405185
0.9032485 ,Left ,63,5749181588319 ,46,3422558671461 ,64,2183299405185
0.9412293 ,Left ,63,4740379995653 ,46,192609942498 ,64,208054333707
0.941237 ,Left ,63,4740379995653 ,46,192609942498 ,64,208054333707
0.9412438 ,Left ,63,4740379995653 ,46,192609942498 ,64,208054333707
0.9708035 ,Left ,63,4796880503507 ,46,1252282165912 ,64,1889221976046
0.970807 ,Left ,63,4796880503507 ,46,1252282165912 ,64,1889221976046
0.9708099 ,Left ,63,4796880503507 ,46,1252282165912 ,64,1889221976046
1.0232558 ,Left ,63,543767872138 ,45,9348139701409 ,64,0764133230346
1.0232581 ,Left ,63,543767872138 ,45,9348139701409 ,64,0764133230346
1.02326 ,Left ,63,543767872138 ,45,9348139701409 ,64,0764133230346
1.0609838 ,Left ,63,4500436079251 ,45,8679293734604 ,64,0292197929613
1.0609963 ,Left ,63,4500436079251 ,45,8679293734604 ,64,0292197929613
1.0609984 ,Left ,63,4500436079251 ,45,8679293734604 ,64,0292197929613
1.083147 ,Left ,63,4270300685557 ,45,8365320924451 ,64,000180180814
1.0831486 ,Left ,63,4270300685557 ,45,8365320924451 ,64,000180180814
1.0831501 ,Left ,63,4270300685557 ,45,8365320924451 ,64,000180180814
1.1211436 ,Left ,63,4043946204833 ,45,7858494497054 ,63,9538615238169
1.1211513 ,Left ,63,4043946204833 ,45,7858494497054 ,63,9538615238169
1.121158 ,Left ,63,4043946204833 ,45,7858494497054 ,63,9538615238169
1.143456 ,Left ,63,3838325147681 ,45,7636289334714 ,63,9360649686248
1.1434614 ,Left ,63,3838325147681 ,45,7636289334714 ,63,9360649686248
1.1434662 ,Left ,63,3838325147681 ,45,7636289334714 ,63,9360649686248
1.1808396 ,Left ,63,3002928613848 ,45,721694778645 ,63,9351078462137
1.1808437 ,Left ,63,3002928613848 ,45,721694778645 ,63,9351078462137
1.1808472 ,Left ,63,3002928613848 ,45,721694778645 ,63,9351078462137
1.2033577 ,Left ,63,2472731786442 ,45,6992902303362 ,63,9416861196244
1.203362 ,Left ,63,2472731786442 ,45,6992902303362 ,63,9416861196244
1.2033655 ,Left ,63,2472731786442 ,45,6992902303362 ,63,9416861196244
1.2483636 ,Left ,63,1728476549043 ,45,6580465325604 ,63,9548441784715
1.2483671 ,Left ,63,1728476549043 ,45,6580465325604 ,63,9548441784715
1.24837 ,Left ,63,1728476549043 ,45,6580465325604 ,63,9548441784715
1.270934 ,Left ,63,1309952266217 ,45,6448872045006 ,63,9634680897451
1.2709376 ,Left ,63,1309952266217 ,45,6448872045006 ,63,9634680897451
1.2709405 ,Left ,63,1309952266217 ,45,6448872045006 ,63,9634680897451
1.3006067 ,Left ,63,0750280853149 ,45,6262291397812 ,63,9673436418107
1.3006085 ,Left ,63,0750280853149 ,45,6262291397812 ,63,9673436418107
1.30061 ,Left ,63,0750280853149 ,45,6262291397812 ,63,9673436418107
1.3231142 ,Left ,63,0389303083438 ,45,6106380228089 ,63,9660001539497
1.3231161 ,Left ,63,0389303083438 ,45,6106380228089 ,63,9660001539497
1.3231177 ,Left ,63,0389303083438 ,45,6106380228089 ,63,9660001539497
1.3609604 ,Left ,62,9578815606969 ,45,5868167175379 ,63,9588554843299
1.3609637 ,Left ,62,9578815606969 ,45,5868167175379 ,63,9588554843299
1.3609663 ,Left ,62,9578815606969 ,45,5868167175379 ,63,9588554843299
1.3833905 ,Left ,62,9389481556011 ,45,5716821553549 ,63,9451177905545
1.3833937 ,Left ,62,9389481556011 ,45,5716821553549 ,63,9451177905545
1.3833963 ,Left ,62,9389481556011 ,45,5716821553549 ,63,9451177905545
1.4207032 ,Left ,62,8744166655441 ,45,5550044681136 ,63,9155452084158
1.4207061 ,Left ,62,8744166655441 ,45,5550044681136 ,63,9155452084158
1.4207088 ,Left ,62,8744166655441 ,45,5550044681136 ,63,9155452084158
1.4432087 ,Left ,62,8325871030957 ,45,5566113268567 ,63,8987680838632
1.4432116 ,Left ,62,8325871030957 ,45,5566113268567 ,63,8987680838632
1.4432143 ,Left ,62,8325871030957 ,45,5566113268567 ,63,8987680838632
1.4732395 ,Left ,62,7170989238666 ,45,5377996733191 ,63,8755493040101
1.4732415 ,Left ,62,7170989238666 ,45,5377996733191 ,63,8755493040101
1.4732429 ,Left ,62,7170989238666 ,45,5377996733191 ,63,8755493040101
1.495886 ,Left ,62,6691363713117 ,45,5236602870573 ,63,8602933505912
1.495888 ,Left ,62,6691363713117 ,45,5236602870573 ,63,8602933505912
1.4958895 ,Left ,62,6691363713117 ,45,5236602870573 ,63,8602933505912
1.5183337 ,Left ,62,6144512774818 ,45,5107134740298 ,63,8405829040166
1.5183358 ,Left ,62,6144512774818 ,45,5107134740298 ,63,8405829040166
1.5183374 ,Left ,62,6144512774818 ,45,5107134740298 ,63,8405829040166
1.533166 ,Left ,62,549599538161 ,45,4964479538154 ,63,8199756416689
1.533168 ,Left ,62,549599538161 ,45,4964479538154 ,63,8199756416689
1.5331695 ,Left ,62,549599538161 ,45,4964479538154 ,63,8199756416689
1.5559064 ,Left ,62,4881067892624 ,45,4793870240069 ,63,7960605284056
1.5559088 ,Left ,62,4881067892624 ,45,4793870240069 ,63,7960605284056
1.5559104 ,Left ,62,4881067892624 ,45,4793870240069 ,63,7960605284056
1.5781767 ,Left ,62,4409988905966 ,45,46160566042 ,63,7728647777253
1.578179 ,Left ,62,4409988905966 ,45,46160566042 ,63,7728647777253
1.5781809 ,Left ,62,4409988905966 ,45,46160566042 ,63,7728647777253
1.5932882 ,Left ,62,3836059838298 ,45,4409048991403 ,63,7487719060248
1.5932913 ,Left ,62,3836059838298 ,45,4409048991403 ,63,7487719060248
1.5932939 ,Left ,62,3836059838298 ,45,4409048991403 ,63,7487719060248
1.6159529 ,Left ,62,3110055744205 ,45,4081002149349 ,63,7171404387822
1.615958 ,Left ,62,3110055744205 ,45,4081002149349 ,63,7171404387822
1.6159623 ,Left ,62,3110055744205 ,45,4081002149349 ,63,7171404387822
1.6385194 ,Left ,62,2042457069437 ,45,3612756593529 ,63,6891851719998
1.6385229 ,Left ,62,2042457069437 ,45,3612756593529 ,63,6891851719998
1.6385258 ,Left ,62,2042457069437 ,45,3612756593529 ,63,6891851719998
1.6534051 ,Left ,62,1017588470319 ,45,3064798315097 ,63,6548100142159
1.6534084 ,Left ,62,1017588470319 ,45,3064798315097 ,63,6548100142159
1.6534111 ,Left ,62,1017588470319 ,45,3064798315097 ,63,6548100142159
1.6757105 ,Left ,61,9867771909155 ,45,2148875047283 ,63,6293620293374
1.6757125 ,Left ,61,9867771909155 ,45,2148875047283 ,63,6293620293374
1.6757142 ,Left ,61,9867771909155 ,45,2148875047283 ,63,6293620293374
1.6982294 ,Left ,61,8507137807881 ,45,1271603564871 ,63,634489820295
1.6982315 ,Left ,61,8507137807881 ,45,1271603564871 ,63,634489820295
1.6982329 ,Left ,61,8507137807881 ,45,1271603564871 ,63,634489820295
1.7208717 ,Left ,61,8408015471097 ,45,0495595629634 ,63,628210612021
1.7208739 ,Left ,61,8408015471097 ,45,0495595629634 ,63,628210612021
1.7208757 ,Left ,61,8408015471097 ,45,0495595629634 ,63,628210612021
1.7356657 ,Left ,61,8599729565202 ,45,0520366831523 ,63,6004790626337
1.7356675 ,Left ,61,8599729565202 ,45,0520366831523 ,63,6004790626337
1.735669 ,Left ,61,8599729565202 ,45,0520366831523 ,63,6004790626337
1.7581934 ,Left ,61,8751914700649 ,45,0738712910036 ,63,5650637736196
1.7581957 ,Left ,61,8751914700649 ,45,0738712910036 ,63,5650637736196
1.7581978 ,Left ,61,8751914700649 ,45,0738712910036 ,63,5650637736196
1.7809623 ,Left ,61,8675861274479 ,45,121470171182 ,63,5283927890372
1.7809651 ,Left ,61,8675861274479 ,45,121470171182 ,63,5283927890372
1.7809675 ,Left ,61,8675861274479 ,45,121470171182 ,63,5283927890372
1.7959712 ,Left ,61,8790651127897 ,45,1715504351632 ,63,4642956917553
1.7959741 ,Left ,61,8790651127897 ,45,1715504351632 ,63,4642956917553
1.7959765 ,Left ,61,8790651127897 ,45,1715504351632 ,63,4642956917553
1.8184431 ,Left ,61,8562909079456 ,45,2145766353513 ,63,3736920290651
1.818446 ,Left ,61,8562909079456 ,45,2145766353513 ,63,3736920290651
1.8184483 ,Left ,61,8562909079456 ,45,2145766353513 ,63,3736920290651
1.8332356 ,Left ,61,8384818701541 ,45,2404946267752 ,63,2801055836736
1.8332382 ,Left ,61,8384818701541 ,45,2404946267752 ,63,2801055836736
1.8332406 ,Left ,61,8384818701541 ,45,2404946267752 ,63,2801055836736
1.8557611 ,Left ,61,8333985034099 ,45,2576642981351 ,63,1906708037497
1.8557639 ,Left ,61,8333985034099 ,45,2576642981351 ,63,1906708037497
1.8557662 ,Left ,61,8333985034099 ,45,2576642981351 ,63,1906708037497
1.8783486 ,Left ,61,8302273613361 ,45,271762793538 ,63,1265688047367
1.8783514 ,Left ,61,8302273613361 ,45,271762793538 ,63,1265688047367
1.8783538 ,Left ,61,8302273613361 ,45,271762793538 ,63,1265688047367
1.8932405 ,Left ,61,8368382103551 ,45,2769740178321 ,63,0889797044092
1.893243 ,Left ,61,8368382103551 ,45,2769740178321 ,63,0889797044092
1.8932453 ,Left ,61,8368382103551 ,45,2769740178321 ,63,0889797044092
1.9159337 ,Left ,61,8282213474165 ,45,2500671755555 ,63,0725382713757
1.9159366 ,Left ,61,8282213474165 ,45,2500671755555 ,63,0725382713757
1.915939 ,Left ,61,8282213474165 ,45,2500671755555 ,63,0725382713757
1.9388948 ,Left ,61,7730814825744 ,45,1989459428145 ,63,0757727954129
1.9389025 ,Left ,61,7730814825744 ,45,1989459428145 ,63,0757727954129
1.9389092 ,Left ,61,7730814825744 ,45,1989459428145 ,63,0757727954129
1.9611343 ,Left ,61,7354822080325 ,45,1252264720869 ,63,0911515778717
1.961156 ,Left ,61,7354822080325 ,45,1252264720869 ,63,0911515778717
1.9611664 ,Left ,61,7354822080325 ,45,1252264720869 ,63,0911515778717
1.9761882 ,Left ,61,6616255636703 ,45,0864335571153 ,63,117447943261
1.976194 ,Left ,61,6616255636703 ,45,0864335571153 ,63,117447943261
1.9761997 ,Left ,61,6616255636703 ,45,0864335571153 ,63,117447943261
1.9986439 ,Left ,61,6112943916804 ,45,0295919688318 ,63,1337802426765
1.9986494 ,Left ,61,6112943916804 ,45,0295919688318 ,63,1337802426765
1.9986541 ,Left ,61,6112943916804 ,45,0295919688318 ,63,1337802426765
2.0208543 ,Left ,61,6516830669278 ,44,9937386926207 ,63,1250424436398
2.0208584 ,Left ,61,6516830669278 ,44,9937386926207 ,63,1250424436398
2.020862 ,Left ,61,6516830669278 ,44,9937386926207 ,63,1250424436398
2.0358942 ,Left ,61,6696147111181 ,45,0275774066085 ,63,1104421492974
2.0358974 ,Left ,61,6696147111181 ,45,0275774066085 ,63,1104421492974
2.0358999 ,Left ,61,6696147111181 ,45,0275774066085 ,63,1104421492974
2.0584331 ,Left ,61,6958557691966 ,45,0781106847725 ,63,0985703983251
2.0584361 ,Left ,61,6958557691966 ,45,0781106847725 ,63,0985703983251
2.0584385 ,Left ,61,6958557691966 ,45,0781106847725 ,63,0985703983251
2.08065 ,Left ,61,7637354089335 ,45,0961239015896 ,63,074506212827
2.0806517 ,Left ,61,7637354089335 ,45,0961239015896 ,63,074506212827
2.0806532 ,Left ,61,7637354089335 ,45,0961239015896 ,63,074506212827
2.0958925 ,Left ,61,8046764291345 ,45,1038502894408 ,63,0637836191412
2.0958945 ,Left ,61,8046764291345 ,45,1038502894408 ,63,0637836191412
2.0958959 ,Left ,61,8046764291345 ,45,1038502894408 ,63,0637836191412
2.118294 ,Left ,61,7692383606831 ,45,1173896860997 ,63,0508839662937
2.1182975 ,Left ,61,7692383606831 ,45,1173896860997 ,63,0508839662937
2.118299 ,Left ,61,7692383606831 ,45,1173896860997 ,63,0508839662937
2.1405901 ,Left ,61,720917190126 ,45,102439336504 ,63,0313329997442
2.1405919 ,Left ,61,720917190126 ,45,102439336504 ,63,0313329997442
2.1405934 ,Left ,61,720917190126 ,45,102439336504 ,63,0313329997442
2.1556882 ,Left ,61,6728496883118 ,45,0756906369319 ,63,0127541389887
2.1556899 ,Left ,61,6728496883118 ,45,0756906369319 ,63,0127541389887
2.1556914 ,Left ,61,6728496883118 ,45,0756906369319 ,63,0127541389887
2.1861541 ,Left ,61,6320823573518 ,45,0379236092895 ,62,9951876288904
2.1861616 ,Left ,61,6320823573518 ,45,0379236092895 ,62,9951876288904
2.1861683 ,Left ,61,6320823573518 ,45,0379236092895 ,62,9951876288904
2.2083949 ,Left ,61,5838948797322 ,44,9914138926846 ,63,0316556508457
2.2083983 ,Left ,61,5838948797322 ,44,9914138926846 ,63,0316556508457
2.2084012 ,Left ,61,5838948797322 ,44,9914138926846 ,63,0316556508457
2.2234207 ,Left ,61,5701455107708 ,44,9663473309038 ,63,0640015485103
2.2234244 ,Left ,61,5701455107708 ,44,9663473309038 ,63,0640015485103
2.2234273 ,Left ,61,5701455107708 ,44,9663473309038 ,63,0640015485103
2.2385713 ,Left ,61,5568323886863 ,44,9998755689496 ,63,0929737994684
2.2385747 ,Left ,61,5568323886863 ,44,9998755689496 ,63,0929737994684
2.2385815 ,Left ,61,5568323886863 ,44,9998755689496 ,63,0929737994684
2.2606632 ,Left ,61,5895238669255 ,45,0462812485917 ,63,1202554784973
2.2606651 ,Left ,61,5895238669255 ,45,0462812485917 ,63,1202554784973
2.2606666 ,Left ,61,5895238669255 ,45,0462812485917 ,63,1202554784973
2.2759214 ,Left ,61,6917476005911 ,45,1022479713954 ,63,1302765797309
2.2759232 ,Left ,61,6917476005911 ,45,1022479713954 ,63,1302765797309
2.2759246 ,Left ,61,6917476005911 ,45,1022479713954 ,63,1302765797309
2.2983196 ,Left ,61,705092181812 ,45,1669937087737 ,63,1558888675745
2.2983217 ,Left ,61,705092181812 ,45,1669937087737 ,63,1558888675745
2.2983235 ,Left ,61,705092181812 ,45,1669937087737 ,63,1558888675745
2.320722 ,Left ,61,6573639939612 ,45,2235954279483 ,63,1927212934794
2.3207246 ,Left ,61,6573639939612 ,45,2235954279483 ,63,1927212934794
2.3207269 ,Left ,61,6573639939612 ,45,2235954279483 ,63,1927212934794
2.3357543 ,Left ,61,6222734134585 ,45,2841048762295 ,63,2253399596202
2.3357574 ,Left ,61,6222734134585 ,45,2841048762295 ,63,2253399596202
2.33576 ,Left ,61,6222734134585 ,45,2841048762295 ,63,2253399596202
2.3583657 ,Left ,61,590535064131 ,45,3262551538475 ,63,2576701235184
2.358369 ,Left ,61,590535064131 ,45,3262551538475 ,63,2576701235184
2.3583716 ,Left ,61,590535064131 ,45,3262551538475 ,63,2576701235184
2.3810962 ,Left ,61,5813615417644 ,45,3324900635718 ,63,2688218475565
2.3810995 ,Left ,61,5813615417644 ,45,3324900635718 ,63,2688218475565
2.3811021 ,Left ,61,5813615417644 ,45,3324900635718 ,63,2688218475565
2.3959946 ,Left ,61,5646624571446 ,45,3014211504611 ,63,2866939563677
2.3959978 ,Left ,61,5646624571446 ,45,3014211504611 ,63,2866939563677
2.3960005 ,Left ,61,5646624571446 ,45,3014211504611 ,63,2866939563677
2.4182729 ,Left ,61,5447529670589 ,45,2327330219318 ,63,3019492610653
2.418276 ,Left ,61,5447529670589 ,45,2327330219318 ,63,3019492610653
2.4182787 ,Left ,61,5447529670589 ,45,2327330219318 ,63,3019492610653
2.440857 ,Left ,61,5133038300427 ,45,1533415838471 ,63,3183295714831
2.4408604 ,Left ,61,5133038300427 ,45,1533415838471 ,63,3183295714831
2.4408634 ,Left ,61,5133038300427 ,45,1533415838471 ,63,3183295714831
2.463253 ,Left ,61,453562587217 ,45,0721887040788 ,63,3465837031476
2.4632559 ,Left ,61,453562587217 ,45,0721887040788 ,63,3465837031476
2.4632586 ,Left ,61,453562587217 ,45,0721887040788 ,63,3465837031476
2.485985 ,Left ,61,3904669081124 ,44,9967707550696 ,63,3692863434892
2.4859882 ,Left ,61,3904669081124 ,44,9967707550696 ,63,3692863434892
2.4859908 ,Left ,61,3904669081124 ,44,9967707550696 ,63,3692863434892
2.5081723 ,Left ,61,3668609126955 ,44,9552088847412 ,63,3680211531154
2.5081743 ,Left ,61,3668609126955 ,44,9552088847412 ,63,3680211531154
2.5081757 ,Left ,61,3668609126955 ,44,9552088847412 ,63,3680211531154
2.5230945 ,Left ,61,3693406516653 ,45,0032228019356 ,63,3476080830894
2.5230962 ,Left ,61,3693406516653 ,45,0032228019356 ,63,3476080830894
2.5230977 ,Left ,61,3693406516653 ,45,0032228019356 ,63,3476080830894
2.538311 ,Left ,61,4220063816577 ,45,0844555319743 ,63,3163538362193
2.5383134 ,Left ,61,4220063816577 ,45,0844555319743 ,63,3163538362193
2.5383151 ,Left ,61,4220063816577 ,45,0844555319743 ,63,3163538362193
2.5607965 ,Left ,61,5354967387604 ,45,1148814773605 ,63,2643129200509
2.5607995 ,Left ,61,5354967387604 ,45,1148814773605 ,63,2643129200509
2.5608021 ,Left ,61,5354967387604 ,45,1148814773605 ,63,2643129200509
2.5756397 ,Left ,61,6280054885795 ,45,1614731737401 ,63,2022969521173
2.5756416 ,Left ,61,6280054885795 ,45,1614731737401 ,63,2022969521173
2.5756431 ,Left ,61,6280054885795 ,45,1614731737401 ,63,2022969521173
2.5982802 ,Left ,61,586133940721 ,45,2060920542604 ,63,1527892008112
2.5982822 ,Left ,61,586133940721 ,45,2060920542604 ,63,1527892008112
2.5982838 ,Left ,61,586133940721 ,45,2060920542604 ,63,1527892008112
2.6215755 ,Left ,61,476563158159 ,45,2402944740652 ,63,1034721681222
2.6215835 ,Left ,61,476563158159 ,45,2402944740652 ,63,1034721681222
2.6215902 ,Left ,61,476563158159 ,45,2402944740652 ,63,1034721681222
2.6363708 ,Left ,61,4168734507534 ,45,2530209313148 ,63,0359514648734
2.6363785 ,Left ,61,4168734507534 ,45,2530209313148 ,63,0359514648734
2.6363852 ,Left ,61,4168734507534 ,45,2530209313148 ,63,0359514648734
2.6584321 ,Left ,61,417311012877 ,45,2381855643348 ,62,9609747835818
2.6584374 ,Left ,61,417311012877 ,45,2381855643348 ,62,9609747835818
2.6584421 ,Left ,61,417311012877 ,45,2381855643348 ,62,9609747835818
2.6807567 ,Left ,61,3984941566192 ,45,2085731597607 ,62,8954118143384
2.6807586 ,Left ,61,3984941566192 ,45,2085731597607 ,62,8954118143384
2.6807601 ,Left ,61,3984941566192 ,45,2085731597607 ,62,8954118143384
2.7031829 ,Left ,61,3505363176936 ,45,1702878735683 ,62,8499014361468
2.7031847 ,Left ,61,3505363176936 ,45,1702878735683 ,62,8499014361468
2.7031862 ,Left ,61,3505363176936 ,45,1702878735683 ,62,8499014361468
2.718198 ,Left ,61,2980220570953 ,45,1365493981857 ,62,8204924755724
2.7181999 ,Left ,61,2980220570953 ,45,1365493981857 ,62,8204924755724
2.7182013 ,Left ,61,2980220570953 ,45,1365493981857 ,62,8204924755724
2.7408177 ,Left ,61,2609690362893 ,45,1248289905636 ,62,8004982358111
2.7408198 ,Left ,61,2609690362893 ,45,1248289905636 ,62,8004982358111
2.7408215 ,Left ,61,2609690362893 ,45,1248289905636 ,62,8004982358111
2.7558565 ,Left ,61,2458255490511 ,45,1153065282931 ,62,7720165831278
2.7558586 ,Left ,61,2458255490511 ,45,1153065282931 ,62,7720165831278
2.7558602 ,Left ,61,2458255490511 ,45,1153065282931 ,62,7720165831278
2.7862687 ,Left ,61,2264535702313 ,45,0951674457291 ,62,7516342433122
2.7862763 ,Left ,61,2264535702313 ,45,0951674457291 ,62,7516342433122
2.7862831 ,Left ,61,2264535702313 ,45,0951674457291 ,62,7516342433122
2.8087364 ,Left ,61,2071901911487 ,45,0751825862311 ,62,7360139635664
2.8087578 ,Left ,61,2071901911487 ,45,0751825862311 ,62,7360139635664
2.8087684 ,Left ,61,2071901911487 ,45,0751825862311 ,62,7360139635664
2.8231829 ,Left ,61,186486957286 ,45,0443193128882 ,62,7220187738169
2.823189 ,Left ,61,186486957286 ,45,0443193128882 ,62,7220187738169
2.8231939 ,Left ,61,186486957286 ,45,0443193128882 ,62,7220187738169
2.8383374 ,Left ,61,1413409318513 ,44,9995192254672 ,62,7196236459427
2.8383403 ,Left ,61,1413409318513 ,44,9995192254672 ,62,7196236459427
2.8383428 ,Left ,61,1413409318513 ,44,9995192254672 ,62,7196236459427
2.8609669 ,Left ,61,0833743374084 ,44,9251088100456 ,62,7348504296061
2.8609702 ,Left ,61,0833743374084 ,44,9251088100456 ,62,7348504296061
2.8609727 ,Left ,61,0833743374084 ,44,9251088100456 ,62,7348504296061
2.8834876 ,Left ,61,0751705115401 ,44,8788914488285 ,62,7535014783596
2.8834907 ,Left ,61,0751705115401 ,44,8788914488285 ,62,7535014783596
2.8834931 ,Left ,61,0751705115401 ,44,8788914488285 ,62,7535014783596
2.8984051 ,Left ,61,1331636327898 ,44,8907142351767 ,62,7659515753049
2.8984082 ,Left ,61,1331636327898 ,44,8907142351767 ,62,7659515753049
2.8984106 ,Left ,61,1331636327898 ,44,8907142351767 ,62,7659515753049
2.9209331 ,Left ,61,2711944790388 ,44,9156510224345 ,62,763645655926
2.9209363 ,Left ,61,2711944790388 ,44,9156510224345 ,62,763645655926
2.9209387 ,Left ,61,2711944790388 ,44,9156510224345 ,62,763645655926
2.9434861 ,Left ,61,3925869732349 ,44,9599008873615 ,62,7438954955535
2.9434914 ,Left ,61,3925869732349 ,44,9599008873615 ,62,7438954955535
2.9434939 ,Left ,61,3925869732349 ,44,9599008873615 ,62,7438954955535
2.9582949 ,Left ,61,463291001287 ,44,992721271114 ,62,7144035677779
2.9582981 ,Left ,61,463291001287 ,44,992721271114 ,62,7144035677779
2.9583009 ,Left ,61,463291001287 ,44,992721271114 ,62,7144035677779
2.9809426 ,Left ,61,4838782161141 ,45,0091321107176 ,62,7013741770312
2.9809456 ,Left ,61,4838782161141 ,45,0091321107176 ,62,7013741770312
2.980948 ,Left ,61,4838782161141 ,45,0091321107176 ,62,7013741770312
3.0035046 ,Left ,61,4649135033523 ,45,0405291309205 ,62,6900969949444
3.0035076 ,Left ,61,4649135033523 ,45,0405291309205 ,62,6900969949444
3.00351 ,Left ,61,4649135033523 ,45,0405291309205 ,62,6900969949444
3.0183733 ,Left ,61,467209650385 ,45,0474698323607 ,62,6710171504083
3.0183767 ,Left ,61,467209650385 ,45,0474698323607 ,62,6710171504083
3.0183794 ,Left ,61,467209650385 ,45,0474698323607 ,62,6710171504083
3.0407625 ,Left ,61,5484842099544 ,45,0209472241635 ,62,6391771810959
3.0407646 ,Left ,61,5484842099544 ,45,0209472241635 ,62,6391771810959
3.0407664 ,Left ,61,5484842099544 ,45,0209472241635 ,62,6391771810959
3.0631828 ,Left ,61,6295724754073 ,44,974412916331 ,62,6077535310228
3.0631902 ,Left ,61,6295724754073 ,44,974412916331 ,62,6077535310228
3.0631929 ,Left ,61,6295724754073 ,44,974412916331 ,62,6077535310228
3.0782704 ,Left ,61,6609933110472 ,44,9246977219352 ,62,5920261310114
3.0782728 ,Left ,61,6609933110472 ,44,9246977219352 ,62,5920261310114
3.0782747 ,Left ,61,6609933110472 ,44,9246977219352 ,62,5920261310114
3.1007852 ,Left ,61,6231984034142 ,44,8656788036986 ,62,5895553883883
3.1007883 ,Left ,61,6231984034142 ,44,8656788036986 ,62,5895553883883
3.1007909 ,Left ,61,6231984034142 ,44,8656788036986 ,62,5895553883883
3.1232754 ,Left ,61,5604682228346 ,44,8037543512539 ,62,6096314642007
3.1232789 ,Left ,61,5604682228346 ,44,8037543512539 ,62,6096314642007
3.1232819 ,Left ,61,5604682228346 ,44,8037543512539 ,62,6096314642007
3.1382807 ,Left ,61,5516816888018 ,44,7347290514927 ,62,6347863734023
3.1382843 ,Left ,61,5516816888018 ,44,7347290514927 ,62,6347863734023
3.1382874 ,Left ,61,5516816888018 ,44,7347290514927 ,62,6347863734023
3.1613386 ,Left ,61,5445977099579 ,44,6962975045282 ,62,6437577862516
3.1613473 ,Left ,61,5445977099579 ,44,6962975045282 ,62,6437577862516
3.161354 ,Left ,61,5445977099579 ,44,6962975045282 ,62,6437577862516
3.1914375 ,Left ,61,6076872818428 ,44,7404509696771 ,62,6479471588341
3.1914454 ,Left ,61,6076872818428 ,44,7404509696771 ,62,6479471588341
3.1914521 ,Left ,61,6076872818428 ,44,7404509696771 ,62,6479471588341
3.2061949 ,Left ,61,7237709609711 ,44,8461186903591 ,62,6226904108588
3.2062025 ,Left ,61,7237709609711 ,44,8461186903591 ,62,6226904108588
3.2062092 ,Left ,61,7237709609711 ,44,8461186903591 ,62,6226904108588
3.2284394 ,Left ,61,825602048021 ,44,9316432918219 ,62,6039310976497
3.2284421 ,Left ,61,825602048021 ,44,9316432918219 ,62,6039310976497
3.2284441 ,Left ,61,825602048021 ,44,9316432918219 ,62,6039310976497
3.2439054 ,Left ,61,9043036966303 ,45,0254071149236 ,62,5860679906232
3.2439134 ,Left ,61,9043036966303 ,45,0254071149236 ,62,5860679906232
3.2439202 ,Left ,61,9043036966303 ,45,0254071149236 ,62,5860679906232
3.2589035 ,Left ,61,944045004422 ,45,1150489107883 ,62,583638783874
3.258912 ,Left ,61,944045004422 ,45,1150489107883 ,62,583638783874
3.2589188 ,Left ,61,944045004422 ,45,1150489107883 ,62,583638783874
3.2813995 ,Left ,61,9589987908877 ,45,1870018206383 ,62,5827128465073
3.2814051 ,Left ,61,9589987908877 ,45,1870018206383 ,62,5827128465073
3.2814098 ,Left ,61,9589987908877 ,45,1870018206383 ,62,5827128465073
3.3033987 ,Left ,61,9856981500481 ,45,2482087873366 ,62,5915940972501
3.3034022 ,Left ,61,9856981500481 ,45,2482087873366 ,62,5915940972501
3.303405 ,Left ,61,9856981500481 ,45,2482087873366 ,62,5915940972501
3.3184771 ,Left ,62,0313510707511 ,45,2877766193195 ,62,6062142815082
3.3184825 ,Left ,62,0313510707511 ,45,2877766193195 ,62,6062142815082
3.3184851 ,Left ,62,0313510707511 ,45,2877766193195 ,62,6062142815082
3.3408503 ,Left ,62,0761841529351 ,45,3056685817024 ,62,629847688844
3.3408531 ,Left ,62,0761841529351 ,45,3056685817024 ,62,629847688844
3.3408556 ,Left ,62,0761841529351 ,45,3056685817024 ,62,629847688844
3.3632239 ,Left ,62,1082598327875 ,45,3077986743091 ,62,6711008893816
3.3632266 ,Left ,62,1082598327875 ,45,3077986743091 ,62,6711008893816
3.363229 ,Left ,62,1082598327875 ,45,3077986743091 ,62,6711008893816
3.3781821 ,Left ,62,1354872825512 ,45,2965129556844 ,62,71706187633
3.3781839 ,Left ,62,1354872825512 ,45,2965129556844 ,62,71706187633
3.3781854 ,Left ,62,1354872825512 ,45,2965129556844 ,62,71706187633
3.4008131 ,Left ,62,1296424899306 ,45,2719619566235 ,62,7672760525499
3.400815 ,Left ,62,1296424899306 ,45,2719619566235 ,62,7672760525499
3.4008165 ,Left ,62,1296424899306 ,45,2719619566235 ,62,7672760525499
3.4233844 ,Left ,62,1289317034683 ,45,2473602761112 ,62,8134951337377
3.4233871 ,Left ,62,1289317034683 ,45,2473602761112 ,62,8134951337377
3.4233892 ,Left ,62,1289317034683 ,45,2473602761112 ,62,8134951337377
3.4383006 ,Left ,62,1341150000073 ,45,2292362260693 ,62,8516128170453
3.4383032 ,Left ,62,1341150000073 ,45,2292362260693 ,62,8516128170453
3.4383053 ,Left ,62,1341150000073 ,45,2292362260693 ,62,8516128170453
3.460653 ,Left ,62,1561485301465 ,45,2109078868266 ,62,8834738466677
3.4606549 ,Left ,62,1561485301465 ,45,2109078868266 ,62,8834738466677
3.4606564 ,Left ,62,1561485301465 ,45,2109078868266 ,62,8834738466677
3.4832138 ,Left ,62,1988039730374 ,45,1956621992201 ,62,9126950973362
3.4832162 ,Left ,62,1988039730374 ,45,1956621992201 ,62,9126950973362
3.4832179 ,Left ,62,1988039730374 ,45,1956621992201 ,62,9126950973362
3.4981903 ,Left ,62,2451523167199 ,45,1918902474507 ,62,9313356120823
3.498192 ,Left ,62,2451523167199 ,45,1918902474507 ,62,9313356120823
3.4981936 ,Left ,62,2451523167199 ,45,1918902474507 ,62,9313356120823
3.5207161 ,Left ,62,2891398282827 ,45,1880613755952 ,62,9476085729798
3.5207188 ,Left ,62,2891398282827 ,45,1880613755952 ,62,9476085729798
3.5207212 ,Left ,62,2891398282827 ,45,1880613755952 ,62,9476085729798
3.5432177 ,Left ,62,3246116115189 ,45,1750544043368 ,62,9625643626439
3.5432194 ,Left ,62,3246116115189 ,45,1750544043368 ,62,9625643626439
3.5432209 ,Left ,62,3246116115189 ,45,1750544043368 ,62,9625643626439
3.5582864 ,Left ,62,3643643921379 ,45,1594461466773 ,62,9841699673518
3.5582891 ,Left ,62,3643643921379 ,45,1594461466773 ,62,9841699673518
3.5582909 ,Left ,62,3643643921379 ,45,1594461466773 ,62,9841699673518
3.5807794 ,Left ,62,3905093495975 ,45,1448378439543 ,63,0037340789337
3.5807835 ,Left ,62,3905093495975 ,45,1448378439543 ,63,0037340789337
3.5807856 ,Left ,62,3905093495975 ,45,1448378439543 ,63,0037340789337
3.6035466 ,Left ,62,4212524125033 ,45,1309373729742 ,63,0162468014901
3.6035499 ,Left ,62,4212524125033 ,45,1309373729742 ,63,0162468014901
3.6035525 ,Left ,62,4212524125033 ,45,1309373729742 ,63,0162468014901
3.6183542 ,Left ,62,4295322435223 ,45,1148314711318 ,63,0319157272936
3.6183561 ,Left ,62,4295322435223 ,45,1148314711318 ,63,0319157272936
3.6183576 ,Left ,62,4295322435223 ,45,1148314711318 ,63,0319157272936
3.6409178 ,Left ,62,4486886117397 ,45,1002257773159 ,63,0537781592463
3.6409198 ,Left ,62,4486886117397 ,45,1002257773159 ,63,0537781592463
3.6409212 ,Left ,62,4486886117397 ,45,1002257773159 ,63,0537781592463
3.6632204 ,Left ,62,450200243774 ,45,0841595433643 ,63,0813285366198
3.6632229 ,Left ,62,450200243774 ,45,0841595433643 ,63,0813285366198
3.6632248 ,Left ,62,450200243774 ,45,0841595433643 ,63,0813285366198
3.6784112 ,Left ,62,4551871212597 ,45,063025791826 ,63,1125348815348
3.6784138 ,Left ,62,4551871212597 ,45,063025791826 ,63,1125348815348
3.6784159 ,Left ,62,4551871212597 ,45,063025791826 ,63,1125348815348
3.7007858 ,Left ,62,4782690974883 ,45,0472614398906 ,63,1453950488988
3.7007883 ,Left ,62,4782690974883 ,45,0472614398906 ,63,1453950488988
3.7007904 ,Left ,62,4782690974883 ,45,0472614398906 ,63,1453950488988
3.7240009 ,Left ,62,4984325208998 ,45,028980643195 ,63,1824285334342
3.7240088 ,Left ,62,4984325208998 ,45,028980643195 ,63,1824285334342
3.7240155 ,Left ,62,4984325208998 ,45,028980643195 ,63,1824285334342
3.7387124 ,Left ,62,5047307632184 ,45,0168062561602 ,63,2264639313368
3.7387203 ,Left ,62,5047307632184 ,45,0168062561602 ,63,2264639313368
3.7387271 ,Left ,62,5047307632184 ,45,0168062561602 ,63,2264639313368
3.7614697 ,Left ,62,4979624847897 ,45,0224452401974 ,63,2685669104844
3.7614779 ,Left ,62,4979624847897 ,45,0224452401974 ,63,2685669104844
3.7614847 ,Left ,62,4979624847897 ,45,0224452401974 ,63,2685669104844
3.7832713 ,Left ,62,4907246731753 ,45,0366438459269 ,63,3052075693875
3.7832766 ,Left ,62,4907246731753 ,45,0366438459269 ,63,3052075693875
3.7832813 ,Left ,62,4907246731753 ,45,0366438459269 ,63,3052075693875
3.7982518 ,Left ,62,4763276634984 ,45,0551373927358 ,63,3321450278791
3.7982555 ,Left ,62,4763276634984 ,45,0551373927358 ,63,3321450278791
3.798257 ,Left ,62,4763276634984 ,45,0551373927358 ,63,3321450278791
3.8207181 ,Left ,62,4657010620514 ,45,0686830384617 ,63,3536555530051
3.82072 ,Left ,62,4657010620514 ,45,0686830384617 ,63,3536555530051
3.8207215 ,Left ,62,4657010620514 ,45,0686830384617 ,63,3536555530051
3.8582274 ,Left ,62,4617192115683 ,45,0753973350771 ,63,3680614939516
3.8582296 ,Left ,62,4617192115683 ,45,0753973350771 ,63,3680614939516
3.8582313 ,Left ,62,4617192115683 ,45,0753973350771 ,63,3680614939516
3.8807256 ,Left ,62,4618238155727 ,45,0803250998154 ,63,3819545076012
3.8807278 ,Left ,62,4618238155727 ,45,0803250998154 ,63,3819545076012
3.8807297 ,Left ,62,4618238155727 ,45,0803250998154 ,63,3819545076012
3.9032287 ,Left ,62,4136441800822 ,45,1024699448996 ,63,4050656549163
3.9032305 ,Left ,62,4136441800822 ,45,1024699448996 ,63,4050656549163
3.9032337 ,Left ,62,4136441800822 ,45,1024699448996 ,63,4050656549163
3.92577 ,Left ,62,4125545270521 ,45,1058581537721 ,63,4038316951875
3.925773 ,Left ,62,4125545270521 ,45,1058581537721 ,63,4038316951875
3.9257753 ,Left ,62,4125545270521 ,45,1058581537721 ,63,4038316951875
3.9408752 ,Left ,62,431646257547 ,45,1128493433391 ,63,3970289981252
3.940878 ,Left ,62,431646257547 ,45,1128493433391 ,63,3970289981252
3.9408804 ,Left ,62,431646257547 ,45,1128493433391 ,63,3970289981252
3.9633529 ,Left ,62,4360808970485 ,45,1119633688534 ,63,3898654845807
3.9633558 ,Left ,62,4360808970485 ,45,1119633688534 ,63,3898654845807
3.9633581 ,Left ,62,4360808970485 ,45,1119633688534 ,63,3898654845807
3.9858875 ,Left ,62,4259695393335 ,45,1047926445127 ,63,3823757287327
3.9858903 ,Left ,62,4259695393335 ,45,1047926445127 ,63,3823757287327
3.9859037 ,Left ,62,4259695393335 ,45,1047926445127 ,63,3823757287327
4.0007418 ,Left ,62,3913103189448 ,45,0899039977457 ,63,3786089556515
4.0007445 ,Left ,62,3913103189448 ,45,0899039977457 ,63,3786089556515
4.0007468 ,Left ,62,3913103189448 ,45,0899039977457 ,63,3786089556515
4.0233107 ,Left ,62,3378158677767 ,45,063777156705 ,63,3751964085214
4.0233133 ,Left ,62,3378158677767 ,45,063777156705 ,63,3751964085214
4.0233156 ,Left ,62,3378158677767 ,45,063777156705 ,63,3751964085214
4.0457767 ,Left ,62,2517335660265 ,45,0342473150766 ,63,374498823676
4.0457795 ,Left ,62,2517335660265 ,45,0342473150766 ,63,374498823676
4.0457818 ,Left ,62,2517335660265 ,45,0342473150766 ,63,374498823676
4.0607722 ,Left ,62,1877516086148 ,44,9956440408522 ,63,3498173652904
4.060775 ,Left ,62,1877516086148 ,44,9956440408522 ,63,3498173652904
4.0607774 ,Left ,62,1877516086148 ,44,9956440408522 ,63,3498173652904
4.0834935 ,Left ,62,1353607627436 ,44,9231609805923 ,63,3386323936869
4.0834967 ,Left ,62,1353607627436 ,44,9231609805923 ,63,3386323936869
4.083499 ,Left ,62,1353607627436 ,44,9231609805923 ,63,3386323936869
4.1059892 ,Left ,62,1155544490691 ,44,8917219326088 ,63,3298734363294
4.105992 ,Left ,62,1155544490691 ,44,8917219326088 ,63,3298734363294
4.1059944 ,Left ,62,1155544490691 ,44,8917219326088 ,63,3298734363294
4.1208236 ,Left ,62,140347662498 ,44,9623024322663 ,63,2923804635364
4.120827 ,Left ,62,140347662498 ,44,9623024322663 ,63,2923804635364
4.1208296 ,Left ,62,140347662498 ,44,9623024322663 ,63,2923804635364
4.1438914 ,Left ,62,2059705575649 ,45,046216973074 ,63,2418027697326
4.1438993 ,Left ,62,2059705575649 ,45,046216973074 ,63,2418027697326
4.1439061 ,Left ,62,2059705575649 ,45,046216973074 ,63,2418027697326
4.1735281 ,Left ,62,2935644136085 ,45,1229591933621 ,63,1864261701948
4.1735336 ,Left ,62,2935644136085 ,45,1229591933621 ,63,1864261701948
4.1735382 ,Left ,62,2935644136085 ,45,1229591933621 ,63,1864261701948
4.1883035 ,Left ,62,354525036924 ,45,1987620209936 ,63,1193167425152
4.1883063 ,Left ,62,354525036924 ,45,1987620209936 ,63,1193167425152
4.1883087 ,Left ,62,354525036924 ,45,1987620209936 ,63,1193167425152
4.2107275 ,Left ,62,3155957618452 ,45,2696902616469 ,63,0457269189713
4.2107299 ,Left ,62,3155957618452 ,45,2696902616469 ,63,0457269189713
4.210732 ,Left ,62,3155957618452 ,45,2696902616469 ,63,0457269189713
4.2258117 ,Left ,62,2544675564578 ,45,3080035244741 ,62,9580341268007
4.2258144 ,Left ,62,2544675564578 ,45,3080035244741 ,62,9580341268007
4.2258165 ,Left ,62,2544675564578 ,45,3080035244741 ,62,9580341268007
4.2409827 ,Left ,62,2096582823 ,45,3222188910703 ,62,8643792601608
4.2409853 ,Left ,62,2096582823 ,45,3222188910703 ,62,8643792601608
4.2409874 ,Left ,62,2096582823 ,45,3222188910703 ,62,8643792601608
4.2632233 ,Left ,62,1760334651083 ,45,319425536555 ,62,7824078585762
4.2632257 ,Left ,62,1760334651083 ,45,319425536555 ,62,7824078585762
4.2632279 ,Left ,62,1760334651083 ,45,319425536555 ,62,7824078585762
4.2859477 ,Left ,62,2013137460301 ,45,2896482211691 ,62,7276475615413
4.2859503 ,Left ,62,2013137460301 ,45,2896482211691 ,62,7276475615413
4.2859524 ,Left ,62,2013137460301 ,45,2896482211691 ,62,7276475615413
4.3008814 ,Left ,62,1606727891026 ,45,2378667695989 ,62,7066774253727
4.3008835 ,Left ,62,1606727891026 ,45,2378667695989 ,62,7066774253727
4.3008867 ,Left ,62,1606727891026 ,45,2378667695989 ,62,7066774253727
4.3232031 ,Left ,62,1215691813169 ,45,1703591971435 ,62,7132384136504
4.3232051 ,Left ,62,1215691813169 ,45,1703591971435 ,62,7132384136504
4.3232067 ,Left ,62,1215691813169 ,45,1703591971435 ,62,7132384136504
4.3457081 ,Left ,62,0307506155234 ,45,0896833374749 ,62,7292603477312
4.345712 ,Left ,62,0307506155234 ,45,0896833374749 ,62,7292603477312
4.3457135 ,Left ,62,0307506155234 ,45,0896833374749 ,62,7292603477312
4.3607076 ,Left ,62,0073290885907 ,45,0256022656424 ,62,7521394748761
4.3607093 ,Left ,62,0073290885907 ,45,0256022656424 ,62,7521394748761
4.3607108 ,Left ,62,0073290885907 ,45,0256022656424 ,62,7521394748761
4.3832423 ,Left ,62,0939043290261 ,45,0629391238828 ,62,751252373293
4.3832449 ,Left ,62,0939043290261 ,45,0629391238828 ,62,751252373293
4.3832472 ,Left ,62,0939043290261 ,45,0629391238828 ,62,751252373293
4.4132322 ,Left ,62,140008166945 ,45,1555104254214 ,62,7413411969608
4.4132353 ,Left ,62,140008166945 ,45,1555104254214 ,62,7413411969608
4.4132381 ,Left ,62,140008166945 ,45,1555104254214 ,62,7413411969608
4.4284926 ,Left ,62,1884019132408 ,45,2162597023711 ,62,7349089013858
4.4284959 ,Left ,62,1884019132408 ,45,2162597023711 ,62,7349089013858
4.4284986 ,Left ,62,1884019132408 ,45,2162597023711 ,62,7349089013858
4.4508061 ,Left ,62,2670396688212 ,45,2634340919842 ,62,7269341763534
4.4508091 ,Left ,62,2670396688212 ,45,2634340919842 ,62,7269341763534
4.4508118 ,Left ,62,2670396688212 ,45,2634340919842 ,62,7269341763534
4.4660088 ,Left ,62,2666531080592 ,45,3001656067033 ,62,7212165772655
4.466012 ,Left ,62,2666531080592 ,45,3001656067033 ,62,7212165772655
4.4660147 ,Left ,62,2666531080592 ,45,3001656067033 ,62,7212165772655
4.4809888 ,Left ,62,1757068503578 ,45,3156727470645 ,62,7314403345402
4.4809921 ,Left ,62,1757068503578 ,45,3156727470645 ,62,7314403345402
4.4809949 ,Left ,62,1757068503578 ,45,3156727470645 ,62,7314403345402
4.5034114 ,Left ,62,1107697888727 ,45,3176615556873 ,62,7356383078165
4.5034147 ,Left ,62,1107697888727 ,45,3176615556873 ,62,7356383078165
4.5034173 ,Left ,62,1107697888727 ,45,3176615556873 ,62,7356383078165
4.5260574 ,Left ,62,0905142275684 ,45,2884845060335 ,62,7323193064464
4.5260607 ,Left ,62,0905142275684 ,45,2884845060335 ,62,7323193064464
4.5260633 ,Left ,62,0905142275684 ,45,2884845060335 ,62,7323193064464
4.5408319 ,Left ,62,0927271602092 ,45,244167098955 ,62,7288019398351
4.5408352 ,Left ,62,0927271602092 ,45,244167098955 ,62,7288019398351
4.5408379 ,Left ,62,0927271602092 ,45,244167098955 ,62,7288019398351
4.5635458 ,Left ,62,0791411369585 ,45,1706749332314 ,62,7311351844617
4.563549 ,Left ,62,0791411369585 ,45,1706749332314 ,62,7311351844617
4.5635517 ,Left ,62,0791411369585 ,45,1706749332314 ,62,7311351844617
4.5860386 ,Left ,61,9846598911781 ,45,0800931939659 ,62,753348976373
4.5860418 ,Left ,61,9846598911781 ,45,0800931939659 ,62,753348976373
4.5860445 ,Left ,61,9846598911781 ,45,0800931939659 ,62,753348976373
4.6085374 ,Left ,61,9003823637836 ,45,0422216372427 ,62,7776787672505
4.6085407 ,Left ,61,9003823637836 ,45,0422216372427 ,62,7776787672505
4.6085433 ,Left ,61,9003823637836 ,45,0422216372427 ,62,7776787672505
4.6235145 ,Left ,61,9204647267086 ,45,115785437091 ,62,7763757004553
4.6235178 ,Left ,61,9204647267086 ,45,115785437091 ,62,7763757004553
4.6235205 ,Left ,61,9204647267086 ,45,115785437091 ,62,7763757004553
4.6458235 ,Left ,61,9925761554222 ,45,2201280520638 ,62,7821438882427
4.6458265 ,Left ,61,9925761554222 ,45,2201280520638 ,62,7821438882427
4.6458291 ,Left ,61,9925761554222 ,45,2201280520638 ,62,7821438882427
4.6684096 ,Left ,62,1111991148288 ,45,2965621651051 ,62,7966394803669
4.6684128 ,Left ,62,1111991148288 ,45,2965621651051 ,62,7966394803669
4.6684154 ,Left ,62,1111991148288 ,45,2965621651051 ,62,7966394803669
4.6834022 ,Left ,62,1660211848571 ,45,3714673343046 ,62,8078786017289
4.6834053 ,Left ,62,1660211848571 ,45,3714673343046 ,62,8078786017289
4.683408 ,Left ,62,1660211848571 ,45,3714673343046 ,62,8078786017289
4.7059959 ,Left ,62,0877944850565 ,45,4521459475723 ,62,8237842973034
4.7059992 ,Left ,62,0877944850565 ,45,4521459475723 ,62,8237842973034
4.7060018 ,Left ,62,0877944850565 ,45,4521459475723 ,62,8237842973034
4.728287 ,Left ,61,9828979540905 ,45,5015081228795 ,62,8501071175181
4.7282906 ,Left ,61,9828979540905 ,45,5015081228795 ,62,8501071175181
4.7282937 ,Left ,61,9828979540905 ,45,5015081228795 ,62,8501071175181
4.7434541 ,Left ,61,9383263019261 ,45,5193994579223 ,62,8574900324522
4.7434602 ,Left ,61,9383263019261 ,45,5193994579223 ,62,8574900324522
4.7434633 ,Left ,61,9383263019261 ,45,5193994579223 ,62,8574900324522
4.7660552 ,Left ,61,9323600168007 ,45,4985975146419 ,62,8591876206547
4.7660589 ,Left ,61,9323600168007 ,45,4985975146419 ,62,8591876206547
4.766062 ,Left ,61,9323600168007 ,45,4985975146419 ,62,8591876206547
4.7885605 ,Left ,61,9433862251431 ,45,4461249894412 ,62,8653752371494
4.7885642 ,Left ,61,9433862251431 ,45,4461249894412 ,62,8653752371494
4.7885672 ,Left ,61,9433862251431 ,45,4461249894412 ,62,8653752371494
4.803604 ,Left ,61,9046377329821 ,45,3681254934348 ,62,8756956885375
4.8036077 ,Left ,61,9046377329821 ,45,3681254934348 ,62,8756956885375
4.8036108 ,Left ,61,9046377329821 ,45,3681254934348 ,62,8756956885375
4.8259341 ,Left ,61,8331601762209 ,45,2779508782881 ,62,8980510328223
4.825938 ,Left ,61,8331601762209 ,45,2779508782881 ,62,8980510328223
4.8259411 ,Left ,61,8331601762209 ,45,2779508782881 ,62,8980510328223
4.8484472 ,Left ,61,7994588228912 ,45,1828576686836 ,62,8965165295987
4.848451 ,Left ,61,7994588228912 ,45,1828576686836 ,62,8965165295987
4.848454 ,Left ,61,7994588228912 ,45,1828576686836 ,62,8965165295987
4.8635995 ,Left ,61,8054403511142 ,45,1248767482092 ,62,884290188082
4.8636036 ,Left ,61,8054403511142 ,45,1248767482092 ,62,884290188082
4.8636067 ,Left ,61,8054403511142 ,45,1248767482092 ,62,884290188082
4.8857753 ,Left ,61,8072884436182 ,45,1501434015813 ,62,8501174624343
4.8857776 ,Left ,61,8072884436182 ,45,1501434015813 ,62,8501174624343
4.8857791 ,Left ,61,8072884436182 ,45,1501434015813 ,62,8501174624343
4.9081146 ,Left ,61,8214078087856 ,45,221128330778 ,62,8054856635867
4.9081163 ,Left ,61,8214078087856 ,45,221128330778 ,62,8054856635867
4.9081178 ,Left ,61,8214078087856 ,45,221128330778 ,62,8054856635867
4.9232507 ,Left ,61,896122980492 ,45,2703619337387 ,62,7672037692722
4.9232526 ,Left ,61,896122980492 ,45,2703619337387 ,62,7672037692722
4.9232541 ,Left ,61,896122980492 ,45,2703619337387 ,62,7672037692722
4.9459026 ,Left ,61,9546278420473 ,45,3087987519201 ,62,7250774965337
4.9459053 ,Left ,61,9546278420473 ,45,3087987519201 ,62,7250774965337
4.9459074 ,Left ,61,9546278420473 ,45,3087987519201 ,62,7250774965337
4.9683362 ,Left ,61,938339054941 ,45,3313790768119 ,62,6757811547186
4.9683405 ,Left ,61,938339054941 ,45,3313790768119 ,62,6757811547186
4.9683442 ,Left ,61,938339054941 ,45,3313790768119 ,62,6757811547186
4.9836679 ,Left ,61,8238522541941 ,45,3538273969122 ,62,6342824059135
4.9836725 ,Left ,61,8238522541941 ,45,3538273969122 ,62,6342824059135
4.9836761 ,Left ,61,8238522541941 ,45,3538273969122 ,62,6342824059135
5.0085606 ,Left ,61,7650607428101 ,45,341067124044 ,62,5943637437752
5.0085646 ,Left ,61,7650607428101 ,45,341067124044 ,62,5943637437752
5.0085682 ,Left ,61,7650607428101 ,45,341067124044 ,62,5943637437752
5.0282399 ,Left ,61,752497863881 ,45,3165771433025 ,62,5503655640443
5.0282431 ,Left ,61,752497863881 ,45,3165771433025 ,62,5503655640443
5.0282455 ,Left ,61,752497863881 ,45,3165771433025 ,62,5503655640443
5.0433742 ,Left ,61,7353862630749 ,45,2831080455951 ,62,5182207546038
5.0433764 ,Left ,61,7353862630749 ,45,2831080455951 ,62,5182207546038
5.043378 ,Left ,61,7353862630749 ,45,2831080455951 ,62,5182207546038
5.0659071 ,Left ,61,6947839075187 ,45,2480576717198 ,62,4996070532243
5.065909 ,Left ,61,6947839075187 ,45,2480576717198 ,62,4996070532243
5.0659105 ,Left ,61,6947839075187 ,45,2480576717198 ,62,4996070532243
5.088108 ,Left ,61,6629215634681 ,45,2331678863584 ,62,4844531561824
5.0881097 ,Left ,61,6629215634681 ,45,2331678863584 ,62,4844531561824
5.0881112 ,Left ,61,6629215634681 ,45,2331678863584 ,62,4844531561824
5.1031611 ,Left ,61,6236552768991 ,45,2215447974989 ,62,4710686085465
5.1031628 ,Left ,61,6236552768991 ,45,2215447974989 ,62,4710686085465
5.1031643 ,Left ,61,6236552768991 ,45,2215447974989 ,62,4710686085465
5.1259247 ,Left ,61,5895536406863 ,45,2041593112571 ,62,4607738549777
5.1259271 ,Left ,61,5895536406863 ,45,2041593112571 ,62,4607738549777
5.125929 ,Left ,61,5895536406863 ,45,2041593112571 ,62,4607738549777
5.1482629 ,Left ,61,5724011522975 ,45,163639803362 ,62,4544174251924
5.1482648 ,Left ,61,5724011522975 ,45,163639803362 ,62,4544174251924
5.1482663 ,Left ,61,5724011522975 ,45,163639803362 ,62,4544174251924
5.1642143 ,Left ,61,5505806180688 ,45,1102609153907 ,62,4671949596615
5.1642221 ,Left ,61,5505806180688 ,45,1102609153907 ,62,4671949596615
5.1642289 ,Left ,61,5505806180688 ,45,1102609153907 ,62,4671949596615
5.1865003 ,Left ,61,5020166628396 ,45,0461074802846 ,62,4935094834201
5.1865083 ,Left ,61,5020166628396 ,45,0461074802846 ,62,4935094834201
5.186515 ,Left ,61,5020166628396 ,45,0461074802846 ,62,4935094834201
5.2085532 ,Left ,61,5216912327233 ,45,0177750682728 ,62,4910296835237
5.2085587 ,Left ,61,5216912327233 ,45,0177750682728 ,62,4910296835237
5.2085634 ,Left ,61,5216912327233 ,45,0177750682728 ,62,4910296835237
5.2233684 ,Left ,61,538082882996 ,45,0294149019946 ,62,483584892687
5.2233726 ,Left ,61,538082882996 ,45,0294149019946 ,62,483584892687
5.2233762 ,Left ,61,538082882996 ,45,0294149019946 ,62,483584892687
5.2459184 ,Left ,61,6004454014186 ,45,0531115413929 ,62,47033259015
5.2459213 ,Left ,61,6004454014186 ,45,0531115413929 ,62,47033259015
5.2459238 ,Left ,61,6004454014186 ,45,0531115413929 ,62,47033259015
5.2683107 ,Left ,61,6580733159127 ,45,0771436756479 ,62,4408421590338
5.2683134 ,Left ,61,6580733159127 ,45,0771436756479 ,62,4408421590338
5.2683158 ,Left ,61,6580733159127 ,45,0771436756479 ,62,4408421590338
5.283501 ,Left ,61,7184399477291 ,45,0576092526426 ,62,4062534159218
5.2835039 ,Left ,61,7184399477291 ,45,0576092526426 ,62,4062534159218
5.2835063 ,Left ,61,7184399477291 ,45,0576092526426 ,62,4062534159218
5.3134127 ,Left ,61,7605946485116 ,45,012053527972 ,62,3749950479623
5.3134157 ,Left ,61,7605946485116 ,45,012053527972 ,62,3749950479623
5.3134185 ,Left ,61,7605946485116 ,45,012053527972 ,62,3749950479623
5.3283541 ,Left ,61,7417166150378 ,44,992513644196 ,62,3730042595231
5.3283572 ,Left ,61,7417166150378 ,44,992513644196 ,62,3730042595231
5.3283596 ,Left ,61,7417166150378 ,44,992513644196 ,62,3730042595231
5.3434766 ,Left ,61,7716304062385 ,44,9714511989986 ,62,3543434588071
5.3434786 ,Left ,61,7716304062385 ,44,9714511989986 ,62,3543434588071
5.34348 ,Left ,61,7716304062385 ,44,9714511989986 ,62,3543434588071
5.358142 ,Left ,61,8682948164564 ,44,9141914320525 ,62,3281083469924
5.3581436 ,Left ,61,8682948164564 ,44,9141914320525 ,62,3281083469924
5.3581451 ,Left ,61,8682948164564 ,44,9141914320525 ,62,3281083469924
5.3808037 ,Left ,61,9310361018443 ,44,8719791160235 ,62,3188331197178
5.3808056 ,Left ,61,9310361018443 ,44,8719791160235 ,62,3188331197178
5.3808071 ,Left ,61,9310361018443 ,44,8719791160235 ,62,3188331197178
5.3957402 ,Left ,61,9021327748363 ,44,8306789484307 ,62,3259493024778
5.395742 ,Left ,61,9021327748363 ,44,8306789484307 ,62,3259493024778
5.3957436 ,Left ,61,9021327748363 ,44,8306789484307 ,62,3259493024778
5.4181861 ,Left ,61,7973180113858 ,44,7849994294567 ,62,3328786417463
5.4181881 ,Left ,61,7973180113858 ,44,7849994294567 ,62,3328786417463
5.4181897 ,Left ,61,7973180113858 ,44,7849994294567 ,62,3328786417463
5.4409537 ,Left ,61,8113442620644 ,44,7921339903591 ,62,3420193967548
5.4409557 ,Left ,61,8113442620644 ,44,7921339903591 ,62,3420193967548
5.4409573 ,Left ,61,8113442620644 ,44,7921339903591 ,62,3420193967548
5.4559408 ,Left ,61,8715197062433 ,44,8777511085154 ,62,3461622240841
5.4559431 ,Left ,61,8715197062433 ,44,8777511085154 ,62,3461622240841
5.455945 ,Left ,61,8715197062433 ,44,8777511085154 ,62,3461622240841
5.4782658 ,Left ,61,946977047347 ,44,9509616190286 ,62,3592092150596
5.4782677 ,Left ,61,946977047347 ,44,9509616190286 ,62,3592092150596
5.4782692 ,Left ,61,946977047347 ,44,9509616190286 ,62,3592092150596
5.5007081 ,Left ,62,0288019552615 ,44,9956151120358 ,62,3747794315182
5.5007103 ,Left ,62,0288019552615 ,44,9956151120358 ,62,3747794315182
5.5007122 ,Left ,62,0288019552615 ,44,9956151120358 ,62,3747794315182
5.5158169 ,Left ,62,0714640761404 ,45,036336732669 ,62,3841621657495
5.51582 ,Left ,62,0714640761404 ,45,036336732669 ,62,3841621657495
5.5158226 ,Left ,62,0714640761404 ,45,036336732669 ,62,3841621657495
5.5382678 ,Left ,62,0645463053496 ,45,0759746002818 ,62,4069963275673
5.538271 ,Left ,62,0645463053496 ,45,0759746002818 ,62,4069963275673
5.5382737 ,Left ,62,0645463053496 ,45,0759746002818 ,62,4069963275673
5.560825 ,Left ,62,0694074471165 ,45,1074239036573 ,62,4369877181282
5.5608269 ,Left ,62,0694074471165 ,45,1074239036573 ,62,4369877181282
5.5608284 ,Left ,62,0694074471165 ,45,1074239036573 ,62,4369877181282
5.5757853 ,Left ,62,105739478903 ,45,1305053658743 ,62,4566853433138
5.5757875 ,Left ,62,105739478903 ,45,1305053658743 ,62,4566853433138
5.5757893 ,Left ,62,105739478903 ,45,1305053658743 ,62,4566853433138
5.5982127 ,Left ,62,1471432888878 ,45,1268994418856 ,62,486520596549
5.5982148 ,Left ,62,1471432888878 ,45,1268994418856 ,62,486520596549
5.5982165 ,Left ,62,1471432888878 ,45,1268994418856 ,62,486520596549
5.620801 ,Left ,62,1990696409765 ,45,1123797365138 ,62,5200507245732
5.6208031 ,Left ,62,1990696409765 ,45,1123797365138 ,62,5200507245732
5.6208049 ,Left ,62,1990696409765 ,45,1123797365138 ,62,5200507245732
5.6356967 ,Left ,62,2423148349101 ,45,0943774785366 ,62,5588881765584
5.6356984 ,Left ,62,2423148349101 ,45,0943774785366 ,62,5588881765584
5.6356999 ,Left ,62,2423148349101 ,45,0943774785366 ,62,5588881765584
5.6581939 ,Left ,62,2587715834541 ,45,0796698354154 ,62,6081553547232
5.6581957 ,Left ,62,2587715834541 ,45,0796698354154 ,62,6081553547232
5.6581974 ,Left ,62,2587715834541 ,45,0796698354154 ,62,6081553547232
5.6806753 ,Left ,62,2569418219537 ,45,0582887185391 ,62,662603986213
5.6806775 ,Left ,62,2569418219537 ,45,0582887185391 ,62,662603986213
5.680679 ,Left ,62,2569418219537 ,45,0582887185391 ,62,662603986213
5.6959424 ,Left ,62,2844855785861 ,45,0416773656234 ,62,7044373553588
5.6959445 ,Left ,62,2844855785861 ,45,0416773656234 ,62,7044373553588
5.6959461 ,Left ,62,2844855785861 ,45,0416773656234 ,62,7044373553588
5.7184007 ,Left ,62,3597891773211 ,45,0271250627033 ,62,7356460265397
5.7184029 ,Left ,62,3597891773211 ,45,0271250627033 ,62,7356460265397
5.7184047 ,Left ,62,3597891773211 ,45,0271250627033 ,62,7356460265397
5.7407184 ,Left ,62,4406977262324 ,45,0123266384424 ,62,7724094186746
5.7407208 ,Left ,62,4406977262324 ,45,0123266384424 ,62,7724094186746
5.7407229 ,Left ,62,4406977262324 ,45,0123266384424 ,62,7724094186746
5.7557513 ,Left ,62,4969813195063 ,45,0025030545531 ,62,8078002216189
5.7557545 ,Left ,62,4969813195063 ,45,0025030545531 ,62,8078002216189
5.7557569 ,Left ,62,4969813195063 ,45,0025030545531 ,62,8078002216189
5.7782873 ,Left ,62,5184774427894 ,45,0004693027516 ,62,8433474410838
5.7782901 ,Left ,62,5184774427894 ,45,0004693027516 ,62,8433474410838
5.7782925 ,Left ,62,5184774427894 ,45,0004693027516 ,62,8433474410838
5.8159251 ,Left ,62,5549465509484 ,44,9871884918031 ,62,8916964006647
5.8159329 ,Left ,62,5549465509484 ,44,9871884918031 ,62,8916964006647
5.8159354 ,Left ,62,5549465509484 ,44,9871884918031 ,62,8916964006647
5.8382415 ,Left ,62,5937325355837 ,44,9823862407427 ,62,900144028392
5.8382446 ,Left ,62,5937325355837 ,44,9823862407427 ,62,900144028392
5.8382469 ,Left ,62,5937325355837 ,44,9823862407427 ,62,900144028392
5.875776 ,Left ,62,6483277264808 ,44,9789376675768 ,62,9196937455351
5.8757779 ,Left ,62,6483277264808 ,44,9789376675768 ,62,9196937455351
5.8757794 ,Left ,62,6483277264808 ,44,9789376675768 ,62,9196937455351
5.8984287 ,Left ,62,6567128657914 ,44,9819009256865 ,62,9420787181864
5.898431 ,Left ,62,6567128657914 ,44,9819009256865 ,62,9420787181864
5.8984327 ,Left ,62,6567128657914 ,44,9819009256865 ,62,9420787181864
5.935665 ,Left ,62,6304097582741 ,44,9785392598406 ,62,9906810433271
5.9356668 ,Left ,62,6304097582741 ,44,9785392598406 ,62,9906810433271
5.9356683 ,Left ,62,6304097582741 ,44,9785392598406 ,62,9906810433271
5.9581382 ,Left ,62,6249125214175 ,44,9759117329146 ,63,0109625836624
5.9581401 ,Left ,62,6249125214175 ,44,9759117329146 ,63,0109625836624
5.9581416 ,Left ,62,6249125214175 ,44,9759117329146 ,63,0109625836624
5.9960311 ,Left ,62,6084577002306 ,44,9934577472355 ,63,0479900376657
5.9960343 ,Left ,62,6084577002306 ,44,9934577472355 ,63,0479900376657
5.9960369 ,Left ,62,6084577002306 ,44,9934577472355 ,63,0479900376657
6.0182673 ,Left ,62,5909244107287 ,45,0087110114054 ,63,0675519981245
6.0182714 ,Left ,62,5909244107287 ,45,0087110114054 ,63,0675519981245
6.0182746 ,Left ,62,5909244107287 ,45,0087110114054 ,63,0675519981245
6.0559688 ,Left ,62,5596856745246 ,45,0325007083804 ,63,0965133112048
6.0559723 ,Left ,62,5596856745246 ,45,0325007083804 ,63,0965133112048
6.0559753 ,Left ,62,5596856745246 ,45,0325007083804 ,63,0965133112048
6.0857212 ,Left ,62,5484164174373 ,45,0452532039885 ,63,1059458880631
6.0857229 ,Left ,62,5484164174373 ,45,0452532039885 ,63,1059458880631
6.0857244 ,Left ,62,5484164174373 ,45,0452532039885 ,63,1059458880631
6.1232085 ,Left ,62,4975333661552 ,45,0620968430613 ,63,1176043780733
6.1232105 ,Left ,62,4975333661552 ,45,0620968430613 ,63,1176043780733
6.1232119 ,Left ,62,4975333661552 ,45,0620968430613 ,63,1176043780733
6.1463893 ,Left ,62,4865791381098 ,45,0581802487097 ,63,1137503109782
6.1463971 ,Left ,62,4865791381098 ,45,0581802487097 ,63,1137503109782
6.1464039 ,Left ,62,4865791381098 ,45,0581802487097 ,63,1137503109782
6.1834594 ,Left ,62,4913682114006 ,45,0172735268583 ,63,0752652883501
6.1834614 ,Left ,62,4913682114006 ,45,0172735268583 ,63,0752652883501
6.1834629 ,Left ,62,4913682114006 ,45,0172735268583 ,63,0752652883501
6.1983595 ,Left ,62,4692704050078 ,44,9842744458258 ,63,063358309644
6.1983614 ,Left ,62,4692704050078 ,44,9842744458258 ,63,063358309644
6.1983629 ,Left ,62,4692704050078 ,44,9842744458258 ,63,063358309644
6.2432438 ,Left ,62,4153295956784 ,44,919911134474 ,63,0439191792159
6.2432457 ,Left ,62,4153295956784 ,44,919911134474 ,63,0439191792159
6.2432472 ,Left ,62,4153295956784 ,44,919911134474 ,63,0439191792159
6.2657649 ,Left ,62,3843172377777 ,44,8575707098582 ,63,0310817656223
6.2657673 ,Left ,62,3843172377777 ,44,8575707098582 ,63,0310817656223
6.2657694 ,Left ,62,3843172377777 ,44,8575707098582 ,63,0310817656223
6.2961157 ,Left ,62,3053385788156 ,44,7303957704647 ,63,0006617973564
6.2961221 ,Left ,62,3053385788156 ,44,7303957704647 ,63,0006617973564
6.2961276 ,Left ,62,3053385788156 ,44,7303957704647 ,63,0006617973564
6.3186507 ,Left ,62,27360054236 ,44,7299571536248 ,62,9807644732545
6.3186572 ,Left ,62,27360054236 ,44,7299571536248 ,62,9807644732545
6.3186628 ,Left ,62,27360054236 ,44,7299571536248 ,62,9807644732545
6.3559936 ,Left ,62,2785451822108 ,44,8908773126508 ,62,9149754409584
6.3559969 ,Left ,62,2785451822108 ,44,8908773126508 ,62,9149754409584
6.3559995 ,Left ,62,2785451822108 ,44,8908773126508 ,62,9149754409584
6.3782648 ,Left ,62,3956260286248 ,44,976672912 ,62,8658948386621
6.3782682 ,Left ,62,3956260286248 ,44,976672912 ,62,8658948386621
6.3782709 ,Left ,62,3956260286248 ,44,976672912 ,62,8658948386621
6.4008719 ,Left ,62,4230965954053 ,45,052612849925 ,62,8241934866485
6.4008767 ,Left ,62,4230965954053 ,45,052612849925 ,62,8241934866485
6.4008794 ,Left ,62,4230965954053 ,45,052612849925 ,62,8241934866485
6.4381699 ,Left ,62,2979385947906 ,45,1589435407976 ,62,7482813004767
6.4381716 ,Left ,62,2979385947906 ,45,1589435407976 ,62,7482813004767
6.4381731 ,Left ,62,2979385947906 ,45,1589435407976 ,62,7482813004767
6.4756971 ,Left ,62,3307616349713 ,45,1917077906966 ,62,6274726011185
6.4756995 ,Left ,62,3307616349713 ,45,1917077906966 ,62,6274726011185
6.4757014 ,Left ,62,3307616349713 ,45,1917077906966 ,62,6274726011185
6.4983279 ,Left ,62,3204836046952 ,45,1781083923354 ,62,5709785163151
6.4983303 ,Left ,62,3204836046952 ,45,1781083923354 ,62,5709785163151
6.4983322 ,Left ,62,3204836046952 ,45,1781083923354 ,62,5709785163151
6.5360852 ,Left ,62,1610298710942 ,45,0730696571669 ,62,5314825660645
6.5361058 ,Left ,62,1610298710942 ,45,0730696571669 ,62,5314825660645
6.5361132 ,Left ,62,1610298710942 ,45,0730696571669 ,62,5314825660645
6.5584979 ,Left ,62,1459121551745 ,44,9969845984097 ,62,5432983946626
6.5585033 ,Left ,62,1459121551745 ,44,9969845984097 ,62,5432983946626
6.5585126 ,Left ,62,1459121551745 ,44,9969845984097 ,62,5432983946626
6.5959677 ,Left ,62,0975665641596 ,44,9226682039774 ,62,573628482377
6.5959708 ,Left ,62,0975665641596 ,44,9226682039774 ,62,573628482377
6.5959732 ,Left ,62,0975665641596 ,44,9226682039774 ,62,573628482377
6.6182064 ,Left ,62,1079912654618 ,45,0103350536229 ,62,5472018487859
6.6182082 ,Left ,62,1079912654618 ,45,0103350536229 ,62,5472018487859
6.6182097 ,Left ,62,1079912654618 ,45,0103350536229 ,62,5472018487859
6.655953 ,Left ,62,2808845175837 ,45,1242046546731 ,62,5133594771296
6.6559549 ,Left ,62,2808845175837 ,45,1242046546731 ,62,5133594771296
6.6559564 ,Left ,62,2808845175837 ,45,1242046546731 ,62,5133594771296
6.6782787 ,Left ,62,3023045840543 ,45,1575940367601 ,62,4973040653841
6.6782826 ,Left ,62,3023045840543 ,45,1575940367601 ,62,4973040653841
6.678288 ,Left ,62,3023045840543 ,45,1575940367601 ,62,4973040653841
6.7235316 ,Left ,62,0909870278606 ,45,184618921624 ,62,5060508797701
6.7235347 ,Left ,62,0909870278606 ,45,184618921624 ,62,5060508797701
6.723537 ,Left ,62,0909870278606 ,45,184618921624 ,62,5060508797701
6.746284 ,Left ,62,0946920032956 ,45,1628864521023 ,62,5054991005306
6.7462918 ,Left ,62,0946920032956 ,45,1628864521023 ,62,5054991005306
6.7462985 ,Left ,62,0946920032956 ,45,1628864521023 ,62,5054991005306
6.7765456 ,Left ,62,1188409750159 ,45,0990851153181 ,62,5470648714518
6.7765536 ,Left ,62,1188409750159 ,45,0990851153181 ,62,5470648714518
6.7765612 ,Left ,62,1188409750159 ,45,0990851153181 ,62,5470648714518
6.7985074 ,Left ,62,019066193544 ,45,0241644128947 ,62,5934472042198
6.7985157 ,Left ,62,019066193544 ,45,0241644128947 ,62,5934472042198
6.7985233 ,Left ,62,019066193544 ,45,0241644128947 ,62,5934472042198
6.8357031 ,Left ,61,9964452275611 ,45,0893125812205 ,62,6414044885777
6.8357049 ,Left ,61,9964452275611 ,45,0893125812205 ,62,6414044885777
6.8357063 ,Left ,61,9964452275611 ,45,0893125812205 ,62,6414044885777
6.8584136 ,Left ,62,0177868568079 ,45,1599241396353 ,62,6654378550018
6.8584159 ,Left ,62,0177868568079 ,45,1599241396353 ,62,6654378550018
6.8584173 ,Left ,62,0177868568079 ,45,1599241396353 ,62,6654378550018
6.9032537 ,Left ,62,1136047045989 ,45,2882516855086 ,62,7184723567627
6.9032559 ,Left ,62,1136047045989 ,45,2882516855086 ,62,7184723567627
6.9032576 ,Left ,62,1136047045989 ,45,2882516855086 ,62,7184723567627
6.9257279 ,Left ,62,0119883512924 ,45,3350875184523 ,62,765447006104
6.92573 ,Left ,62,0119883512924 ,45,3350875184523 ,62,765447006104
6.9257318 ,Left ,62,0119883512924 ,45,3350875184523 ,62,765447006104
6.97828 ,Left ,61,9391015919109 ,45,3372239747364 ,62,8330681762379
6.9782826 ,Left ,61,9391015919109 ,45,3372239747364 ,62,8330681762379
6.978285 ,Left ,61,9391015919109 ,45,3372239747364 ,62,8330681762379
7.0159821 ,Left ,61,9124976224899 ,45,2481746684962 ,62,8445477310042
7.0159859 ,Left ,61,9124976224899 ,45,2481746684962 ,62,8445477310042
7.015989 ,Left ,61,9124976224899 ,45,2481746684962 ,62,8445477310042
7.0383597 ,Left ,61,8320434089316 ,45,164569733087 ,62,8672643548341
7.0383634 ,Left ,61,8320434089316 ,45,164569733087 ,62,8672643548341
7.0383664 ,Left ,61,8320434089316 ,45,164569733087 ,62,8672643548341
7.0760211 ,Left ,61,7642674117133 ,45,1599200383108 ,62,8693678881066
7.0760242 ,Left ,61,7642674117133 ,45,1599200383108 ,62,8693678881066
7.0760268 ,Left ,61,7642674117133 ,45,1599200383108 ,62,8693678881066
7.0981541 ,Left ,61,7651361679708 ,45,2314751956335 ,62,8529710260936
7.0981558 ,Left ,61,7651361679708 ,45,2314751956335 ,62,8529710260936
7.0981574 ,Left ,61,7651361679708 ,45,2314751956335 ,62,8529710260936
7.1358975 ,Left ,61,9913301025051 ,45,3230207172168 ,62,7935941961462
7.1358994 ,Left ,61,9913301025051 ,45,3230207172168 ,62,7935941961462
7.1359009 ,Left ,61,9913301025051 ,45,3230207172168 ,62,7935941961462
7.1582667 ,Left ,61,9772269364819 ,45,361928457567 ,62,7666621523368
7.1582695 ,Left ,61,9772269364819 ,45,361928457567 ,62,7666621523368
7.1582713 ,Left ,61,9772269364819 ,45,361928457567 ,62,7666621523368
7.1882518 ,Left ,61,793557563188 ,45,4445188424707 ,62,7041357791157
7.1882545 ,Left ,61,793557563188 ,45,4445188424707 ,62,7041357791157
7.1882569 ,Left ,61,793557563188 ,45,4445188424707 ,62,7041357791157
7.2182487 ,Left ,61,8082438107192 ,45,4425126368345 ,62,6477738687598
7.2182506 ,Left ,61,8082438107192 ,45,4425126368345 ,62,6477738687598
7.2182538 ,Left ,61,8082438107192 ,45,4425126368345 ,62,6477738687598
7.2409399 ,Left ,61,7832145406158 ,45,4294987975717 ,62,5910625697777
7.2409421 ,Left ,61,7832145406158 ,45,4294987975717 ,62,5910625697777
7.2409438 ,Left ,61,7832145406158 ,45,4294987975717 ,62,5910625697777
7.2710682 ,Left ,61,6429265581368 ,45,3929891956192 ,62,5324873140064
7.2710714 ,Left ,61,6429265581368 ,45,3929891956192 ,62,5324873140064
7.2710762 ,Left ,61,6429265581368 ,45,3929891956192 ,62,5324873140064
7.2932864 ,Left ,61,6172169046653 ,45,3675729145683 ,62,526145841555
7.293289 ,Left ,61,6172169046653 ,45,3675729145683 ,62,526145841555
7.2932913 ,Left ,61,6172169046653 ,45,3675729145683 ,62,526145841555
7.3083755 ,Left ,61,5775796420336 ,45,3347088702648 ,62,5269600238833
7.3083781 ,Left ,61,5775796420336 ,45,3347088702648 ,62,5269600238833
7.3083804 ,Left ,61,5775796420336 ,45,3347088702648 ,62,5269600238833
7.3309547 ,Left ,61,5288174682373 ,45,2528864534266 ,62,541637929182
7.3309566 ,Left ,61,5288174682373 ,45,2528864534266 ,62,541637929182
7.3309581 ,Left ,61,5288174682373 ,45,2528864534266 ,62,541637929182
7.3531479 ,Left ,61,5134823185188 ,45,1412683779932 ,62,5590318163431
7.35315 ,Left ,61,5134823185188 ,45,1412683779932 ,62,5590318163431
7.3531516 ,Left ,61,5134823185188 ,45,1412683779932 ,62,5590318163431
7.3759404 ,Left ,61,5320731489121 ,45,0459916344075 ,62,558575041845
7.3759425 ,Left ,61,5320731489121 ,45,0459916344075 ,62,558575041845
7.3759441 ,Left ,61,5320731489121 ,45,0459916344075 ,62,558575041845
7.3981292 ,Left ,61,5047400069617 ,45,0407553665366 ,62,5594878476038
7.3981311 ,Left ,61,5047400069617 ,45,0407553665366 ,62,5594878476038
7.3981326 ,Left ,61,5047400069617 ,45,0407553665366 ,62,5594878476038
7.4282981 ,Left ,61,6440373547987 ,45,05790502569 ,62,5347331390234
7.4283007 ,Left ,61,6440373547987 ,45,05790502569 ,62,5347331390234
7.4283028 ,Left ,61,6440373547987 ,45,05790502569 ,62,5347331390234
7.4507443 ,Left ,61,7685015282664 ,45,052734284998 ,62,4914470968563
7.4507461 ,Left ,61,7685015282664 ,45,052734284998 ,62,4914470968563
7.4507476 ,Left ,61,7685015282664 ,45,052734284998 ,62,4914470968563
7.473201 ,Left ,61,768100491558 ,45,0333157078289 ,62,4846466784179
7.473203 ,Left ,61,768100491558 ,45,0333157078289 ,62,4846466784179
7.4732047 ,Left ,61,768100491558 ,45,0333157078289 ,62,4846466784179
7.4957377 ,Left ,61,695645726731 ,45,0453537298304 ,62,4888200356976
7.4957402 ,Left ,61,695645726731 ,45,0453537298304 ,62,4888200356976
7.4957417 ,Left ,61,695645726731 ,45,0453537298304 ,62,4888200356976
7.5109663 ,Left ,61,7369733420881 ,45,0506032119217 ,62,4833108789349
7.5109689 ,Left ,61,7369733420881 ,45,0506032119217 ,62,4833108789349
7.510971 ,Left ,61,7369733420881 ,45,0506032119217 ,62,4833108789349
7.5339768 ,Left ,61,8103935295818 ,44,9946168080067 ,62,4626677748851
7.5339847 ,Left ,61,8103935295818 ,44,9946168080067 ,62,4626677748851
7.5339914 ,Left ,61,8103935295818 ,44,9946168080067 ,62,4626677748851
7.5565532 ,Left ,61,8497637662818 ,44,9329972268761 ,62,4662737438175
7.5565612 ,Left ,61,8497637662818 ,44,9329972268761 ,62,4662737438175
7.5565678 ,Left ,61,8497637662818 ,44,9329972268761 ,62,4662737438175
7.571027 ,Left ,61,8218938807647 ,44,8493919427193 ,62,4877132649463
7.5710313 ,Left ,61,8218938807647 ,44,8493919427193 ,62,4877132649463
7.5710348 ,Left ,61,8218938807647 ,44,8493919427193 ,62,4877132649463
7.593448 ,Left ,61,7496961308029 ,44,8126965467077 ,62,5202890310745
7.5934523 ,Left ,61,7496961308029 ,44,8126965467077 ,62,5202890310745
7.5934559 ,Left ,61,7496961308029 ,44,8126965467077 ,62,5202890310745
7.6084793 ,Left ,61,7381198561091 ,44,8527343795301 ,62,5473637606394
7.6084828 ,Left ,61,7381198561091 ,44,8527343795301 ,62,5473637606394
7.6084953 ,Left ,61,7381198561091 ,44,8527343795301 ,62,5473637606394
7.6309576 ,Left ,61,8314708530422 ,44,9230081279696 ,62,5514493773159
7.630961 ,Left ,61,8314708530422 ,44,9230081279696 ,62,5514493773159
7.6309639 ,Left ,61,8314708530422 ,44,9230081279696 ,62,5514493773159
7.6535828 ,Left ,61,9579304255988 ,44,9656455056038 ,62,5595203893931
7.6535867 ,Left ,61,9579304255988 ,44,9656455056038 ,62,5595203893931
7.6535895 ,Left ,61,9579304255988 ,44,9656455056038 ,62,5595203893931
7.6758109 ,Left ,62,0523863709543 ,45,0127946996374 ,62,5546264561375
7.6758143 ,Left ,62,0523863709543 ,45,0127946996374 ,62,5546264561375
7.6758172 ,Left ,62,0523863709543 ,45,0127946996374 ,62,5546264561375
7.6910535 ,Left ,62,0706990740001 ,45,0497979637691 ,62,5628081275155
7.691057 ,Left ,62,0706990740001 ,45,0497979637691 ,62,5628081275155
7.6910598 ,Left ,62,0706990740001 ,45,0497979637691 ,62,5628081275155
7.7134595 ,Left ,62,0597383003523 ,45,0776484696997 ,62,5815429794701
7.713463 ,Left ,62,0597383003523 ,45,0776484696997 ,62,5815429794701
7.7134659 ,Left ,62,0597383003523 ,45,0776484696997 ,62,5815429794701
7.7360502 ,Left ,62,0600670362259 ,45,1031285185702 ,62,6092267838848
7.7360537 ,Left ,62,0600670362259 ,45,1031285185702 ,62,6092267838848
7.7360566 ,Left ,62,0600670362259 ,45,1031285185702 ,62,6092267838848
7.7505805 ,Left ,62,0952561017629 ,45,1151198148205 ,62,6301771416242
7.7505824 ,Left ,62,0952561017629 ,45,1151198148205 ,62,6301771416242
7.750584 ,Left ,62,0952561017629 ,45,1151198148205 ,62,6301771416242
7.7733054 ,Left ,62,1658952949299 ,45,1011169364101 ,62,6569187136253
7.7733074 ,Left ,62,1658952949299 ,45,1011169364101 ,62,6569187136253
7.7733089 ,Left ,62,1658952949299 ,45,1011169364101 ,62,6569187136253
7.7957058 ,Left ,62,2410007318715 ,45,0668267047903 ,62,6838037216045
7.7957078 ,Left ,62,2410007318715 ,45,0668267047903 ,62,6838037216045
7.7957096 ,Left ,62,2410007318715 ,45,0668267047903 ,62,6838037216045
7.8109461 ,Left ,62,2727894235973 ,45,0292573979539 ,62,7233138641069
7.8109482 ,Left ,62,2727894235973 ,45,0292573979539 ,62,7233138641069
7.8109498 ,Left ,62,2727894235973 ,45,0292573979539 ,62,7233138641069
7.8333085 ,Left ,62,2483944285696 ,44,9995440374311 ,62,7789734774881
7.8333112 ,Left ,62,2483944285696 ,44,9995440374311 ,62,7789734774881
7.8333132 ,Left ,62,2483944285696 ,44,9995440374311 ,62,7789734774881
7.8559513 ,Left ,62,2259512480307 ,44,9757338483139 ,62,8389782536297
7.8559532 ,Left ,62,2259512480307 ,44,9757338483139 ,62,8389782536297
7.8559547 ,Left ,62,2259512480307 ,44,9757338483139 ,62,8389782536297
7.8716408 ,Left ,62,2492133012587 ,44,9464396292421 ,62,8887940322414
7.8716485 ,Left ,62,2492133012587 ,44,9464396292421 ,62,8887940322414
7.8716553 ,Left ,62,2492133012587 ,44,9464396292421 ,62,8887940322414
7.8941279 ,Left ,62,3039206814567 ,44,9258327012135 ,62,9300031374893
7.8941363 ,Left ,62,3039206814567 ,44,9258327012135 ,62,9300031374893
7.8941431 ,Left ,62,3039206814567 ,44,9258327012135 ,62,9300031374893
7.9160475 ,Left ,62,3748021087055 ,44,9106509357202 ,62,9660974485652
7.9160529 ,Left ,62,3748021087055 ,44,9106509357202 ,62,9660974485652
7.9160644 ,Left ,62,3748021087055 ,44,9106509357202 ,62,9660974485652
7.9310469 ,Left ,62,4372883701657 ,44,9029108981817 ,63,0100035439499
7.9310504 ,Left ,62,4372883701657 ,44,9029108981817 ,63,0100035439499
7.9310532 ,Left ,62,4372883701657 ,44,9029108981817 ,63,0100035439499
7.9535161 ,Left ,62,4666984381844 ,44,8963421487565 ,63,056014417074
7.9535192 ,Left ,62,4666984381844 ,44,8963421487565 ,63,056014417074
7.9535216 ,Left ,62,4666984381844 ,44,8963421487565 ,63,056014417074
7.975776 ,Left ,62,4867008643384 ,44,8974062035652 ,63,0947739351064
7.9757778 ,Left ,62,4867008643384 ,44,8974062035652 ,63,0947739351064
7.9757794 ,Left ,62,4867008643384 ,44,8974062035652 ,63,0947739351064
7.9909101 ,Left ,62,4929100556996 ,44,9047008904226 ,63,1219160955524
7.990912 ,Left ,62,4929100556996 ,44,9047008904226 ,63,1219160955524
7.9909136 ,Left ,62,4929100556996 ,44,9047008904226 ,63,1219160955524
8.0132943 ,Left ,62,5081732473691 ,44,9076256001203 ,63,1324051605856
8.0132962 ,Left ,62,5081732473691 ,44,9076256001203 ,63,1324051605856
8.0132976 ,Left ,62,5081732473691 ,44,9076256001203 ,63,1324051605856
8.0359432 ,Left ,62,5288387691934 ,44,8987877152929 ,63,1345274938147
8.0359454 ,Left ,62,5288387691934 ,44,8987877152929 ,63,1345274938147
8.0359471 ,Left ,62,5288387691934 ,44,8987877152929 ,63,1345274938147
8.0508885 ,Left ,62,5545988191497 ,44,8965038326322 ,63,1415627392409
8.0508913 ,Left ,62,5545988191497 ,44,8965038326322 ,63,1415627392409
8.0508936 ,Left ,62,5545988191497 ,44,8965038326322 ,63,1415627392409
8.0732774 ,Left ,62,5609975350238 ,44,887127764832 ,63,1458520971088
8.0732804 ,Left ,62,5609975350238 ,44,887127764832 ,63,1458520971088
8.0732831 ,Left ,62,5609975350238 ,44,887127764832 ,63,1458520971088
8.0959007 ,Left ,62,5430894385103 ,44,8773676140593 ,63,1563940123482
8.0959039 ,Left ,62,5430894385103 ,44,8773676140593 ,63,1563940123482
8.0959066 ,Left ,62,5430894385103 ,44,8773676140593 ,63,1563940123482
8.1111243 ,Left ,62,5353584267331 ,44,8698921063833 ,63,1653193319032
8.1111274 ,Left ,62,5353584267331 ,44,8698921063833 ,63,1653193319032
8.1111301 ,Left ,62,5353584267331 ,44,8698921063833 ,63,1653193319032
8.1410422 ,Left ,62,5253953949487 ,44,8683693592784 ,63,1742067571651
8.1410455 ,Left ,62,5253953949487 ,44,8683693592784 ,63,1742067571651
8.1410481 ,Left ,62,5253953949487 ,44,8683693592784 ,63,1742067571651
8.1631863 ,Left ,62,5287429586309 ,44,8698752289111 ,63,1869154515349
8.1631881 ,Left ,62,5287429586309 ,44,8698752289111 ,63,1869154515349
8.1631896 ,Left ,62,5287429586309 ,44,8698752289111 ,63,1869154515349
8.1782297 ,Left ,62,5245126140697 ,44,8774061136419 ,63,1989203875885
8.1782315 ,Left ,62,5245126140697 ,44,8774061136419 ,63,1989203875885
8.178233 ,Left ,62,5245126140697 ,44,8774061136419 ,63,1989203875885
8.1932974 ,Left ,62,5198596342645 ,44,889156036255 ,63,2127141993614
8.1932995 ,Left ,62,5198596342645 ,44,889156036255 ,63,2127141993614
8.193301 ,Left ,62,5198596342645 ,44,889156036255 ,63,2127141993614
8.2164801 ,Left ,62,5094406245471 ,44,9052045947967 ,63,2276327149426
8.2164898 ,Left ,62,5094406245471 ,44,9052045947967 ,63,2276327149426
8.2164964 ,Left ,62,5094406245471 ,44,9052045947967 ,63,2276327149426
8.2314891 ,Left ,62,4959347626205 ,44,919677219018 ,63,2394805737894
8.2314971 ,Left ,62,4959347626205 ,44,919677219018 ,63,2394805737894
8.2315038 ,Left ,62,4959347626205 ,44,919677219018 ,63,2394805737894
8.2534742 ,Left ,62,4805621777293 ,44,9350961007724 ,63,2470543065422
8.2534786 ,Left ,62,4805621777293 ,44,9350961007724 ,63,2470543065422
8.2534822 ,Left ,62,4805621777293 ,44,9350961007724 ,63,2470543065422
8.2831997 ,Left ,62,4793643449361 ,44,9501997875429 ,63,2500398617032
8.2832015 ,Left ,62,4793643449361 ,44,9501997875429 ,63,2500398617032
8.283203 ,Left ,62,4793643449361 ,44,9501997875429 ,63,2500398617032
8.2982601 ,Left ,62,4800715988014 ,44,9643592362827 ,63,2572984452138
8.2982618 ,Left ,62,4800715988014 ,44,9643592362827 ,63,2572984452138
8.2982633 ,Left ,62,4800715988014 ,44,9643592362827 ,63,2572984452138
8.3209511 ,Left ,62,470067102809 ,44,9754075169513 ,63,2679855164577
8.3209531 ,Left ,62,470067102809 ,44,9754075169513 ,63,2679855164577
8.3209547 ,Left ,62,470067102809 ,44,9754075169513 ,63,2679855164577
8.3357596 ,Left ,62,4647519544244 ,44,9847236929273 ,63,2787250354571
8.3357617 ,Left ,62,4647519544244 ,44,9847236929273 ,63,2787250354571
8.3357632 ,Left ,62,4647519544244 ,44,9847236929273 ,63,2787250354571
8.350726 ,Left ,62,4701102281878 ,44,998791319142 ,63,2812497849298
8.3507278 ,Left ,62,4701102281878 ,44,998791319142 ,63,2812497849298
8.3507293 ,Left ,62,4701102281878 ,44,998791319142 ,63,2812497849298
8.3732261 ,Left ,62,4740045675398 ,45,0087571355441 ,63,2801205030734
8.3732279 ,Left ,62,4740045675398 ,45,0087571355441 ,63,2801205030734
8.3732296 ,Left ,62,4740045675398 ,45,0087571355441 ,63,2801205030734
8.3957096 ,Left ,62,4732378980439 ,45,0146944463068 ,63,2674645406602
8.3957117 ,Left ,62,4732378980439 ,45,0146944463068 ,63,2674645406602
8.3957133 ,Left ,62,4732378980439 ,45,0146944463068 ,63,2674645406602
8.4106732 ,Left ,62,475676545995 ,45,0147988984581 ,63,251208401661
8.410675 ,Left ,62,475676545995 ,45,0147988984581 ,63,251208401661
8.4106765 ,Left ,62,475676545995 ,45,0147988984581 ,63,251208401661
8.4332876 ,Left ,62,482475692046 ,45,0089473659935 ,63,2278231519036
8.43329 ,Left ,62,482475692046 ,45,0089473659935 ,63,2278231519036
8.4332921 ,Left ,62,482475692046 ,45,0089473659935 ,63,2278231519036
8.4561574 ,Left ,62,4736503756237 ,45,000939347298 ,63,2005539079289
8.4561616 ,Left ,62,4736503756237 ,45,000939347298 ,63,2005539079289
8.4561651 ,Left ,62,4736503756237 ,45,000939347298 ,63,2005539079289
8.4712698 ,Left ,62,4617757623248 ,44,9904925714356 ,63,1726365128261
8.4712751 ,Left ,62,4617757623248 ,44,9904925714356 ,63,1726365128261
8.4712794 ,Left ,62,4617757623248 ,44,9904925714356 ,63,1726365128261
8.4936932 ,Left ,62,4453350771654 ,44,967570042345 ,63,1428556231102
8.4936972 ,Left ,62,4453350771654 ,44,967570042345 ,63,1428556231102
8.4937007 ,Left ,62,4453350771654 ,44,967570042345 ,63,1428556231102
8.5161443 ,Left ,62,4152763234759 ,44,9406366848879 ,63,1159560354291
8.5161516 ,Left ,62,4152763234759 ,44,9406366848879 ,63,1159560354291
8.5161553 ,Left ,62,4152763234759 ,44,9406366848879 ,63,1159560354291
8.5310409 ,Left ,62,3629426115855 ,44,8997573860543 ,63,0883483212554
8.531045 ,Left ,62,3629426115855 ,44,8997573860543 ,63,0883483212554
8.5310483 ,Left ,62,3629426115855 ,44,8997573860543 ,63,0883483212554
8.5532432 ,Left ,62,3186715685744 ,44,8326444432458 ,63,0768188695175
8.5532452 ,Left ,62,3186715685744 ,44,8326444432458 ,63,0768188695175
8.5532514 ,Left ,62,3186715685744 ,44,8326444432458 ,63,0768188695175
8.5759356 ,Left ,62,2192135408585 ,44,7603693797481 ,63,0600912441547
8.5759376 ,Left ,62,2192135408585 ,44,7603693797481 ,63,0600912441547
8.575939 ,Left ,62,2192135408585 ,44,7603693797481 ,63,0600912441547
8.5982402 ,Left ,62,2458060151154 ,44,7170867004242 ,63,0480474769308
8.5982423 ,Left ,62,2458060151154 ,44,7170867004242 ,63,0480474769308
8.5982441 ,Left ,62,2458060151154 ,44,7170867004242 ,63,0480474769308
8.6133469 ,Left ,62,2795194876877 ,44,7820235567956 ,63,0181083601093
8.6133497 ,Left ,62,2795194876877 ,44,7820235567956 ,63,0181083601093
8.6133521 ,Left ,62,2795194876877 ,44,7820235567956 ,63,0181083601093
8.6358491 ,Left ,62,2932070369951 ,44,881647377552 ,62,9839382533608
8.635852 ,Left ,62,2932070369951 ,44,881647377552 ,62,9839382533608
8.6358543 ,Left ,62,2932070369951 ,44,881647377552 ,62,9839382533608
8.6582499 ,Left ,62,3185241313128 ,44,9776079659397 ,62,943201314614
8.658253 ,Left ,62,3185241313128 ,44,9776079659397 ,62,943201314614
8.6582554 ,Left ,62,3185241313128 ,44,9776079659397 ,62,943201314614
8.6733593 ,Left ,62,3439129265739 ,45,0601457450053 ,62,8987519778808
8.6733622 ,Left ,62,3439129265739 ,45,0601457450053 ,62,8987519778808
8.6733645 ,Left ,62,3439129265739 ,45,0601457450053 ,62,8987519778808
8.6958035 ,Left ,62,306646890257 ,45,1332642283545 ,62,843476905182
8.6958064 ,Left ,62,306646890257 ,45,1332642283545 ,62,843476905182
8.6958087 ,Left ,62,306646890257 ,45,1332642283545 ,62,843476905182
8.7257759 ,Left ,62,2318729462467 ,45,1778642639116 ,62,7746379171895
8.7257778 ,Left ,62,2318729462467 ,45,1778642639116 ,62,7746379171895
8.7257793 ,Left ,62,2318729462467 ,45,1778642639116 ,62,7746379171895
8.7409254 ,Left ,62,1735038508496 ,45,182715801819 ,62,7115178781599
8.7409274 ,Left ,62,1735038508496 ,45,182715801819 ,62,7115178781599
8.7409289 ,Left ,62,1735038508496 ,45,182715801819 ,62,7115178781599
8.7632861 ,Left ,62,1560278824906 ,45,1572255207092 ,62,6621236208927
8.7632886 ,Left ,62,1560278824906 ,45,1572255207092 ,62,6621236208927
8.7632907 ,Left ,62,1560278824906 ,45,1572255207092 ,62,6621236208927
8.7933641 ,Left ,62,1248630186624 ,45,0236366413635 ,62,6081867040904
8.793367 ,Left ,62,1248630186624 ,45,0236366413635 ,62,6081867040904
8.7933693 ,Left ,62,1248630186624 ,45,0236366413635 ,62,6081867040904
8.8160361 ,Left ,62,0552075301679 ,44,9339569695385 ,62,6083958257572
8.8160389 ,Left ,62,0552075301679 ,44,9339569695385 ,62,6083958257572
8.8160413 ,Left ,62,0552075301679 ,44,9339569695385 ,62,6083958257572
8.8390035 ,Left ,62,0147070344831 ,44,8560085513304 ,62,6144683318998
8.8390114 ,Left ,62,0147070344831 ,44,8560085513304 ,62,6144683318998
8.8390181 ,Left ,62,0147070344831 ,44,8560085513304 ,62,6144683318998
8.85418 ,Left ,61,969713732565 ,44,8226489607803 ,62,63160032996
8.8541884 ,Left ,61,969713732565 ,44,8226489607803 ,62,63160032996
8.8541951 ,Left ,61,969713732565 ,44,8226489607803 ,62,63160032996
8.8763412 ,Left ,61,9983366421686 ,44,8495998122581 ,62,6359134738812
8.876349 ,Left ,61,9983366421686 ,44,8495998122581 ,62,6359134738812
8.8763557 ,Left ,61,9983366421686 ,44,8495998122581 ,62,6359134738812
8.8981901 ,Left ,62,0332221404144 ,44,9458119092458 ,62,6189276223015
8.8981919 ,Left ,62,0332221404144 ,44,9458119092458 ,62,6189276223015
8.8981934 ,Left ,62,0332221404144 ,44,9458119092458 ,62,6189276223015
8.9133059 ,Left ,62,1146149443282 ,45,0135313728034 ,62,6028231429766
8.913308 ,Left ,62,1146149443282 ,45,0135313728034 ,62,6028231429766
8.9133155 ,Left ,62,1146149443282 ,45,0135313728034 ,62,6028231429766
8.9358085 ,Left ,62,2117400541555 ,45,0736427164967 ,62,5821844329319
8.9358104 ,Left ,62,2117400541555 ,45,0736427164967 ,62,5821844329319
8.9358119 ,Left ,62,2117400541555 ,45,0736427164967 ,62,5821844329319
8.9582411 ,Left ,62,1847236005014 ,45,1087853260466 ,62,5825266475863
8.9582431 ,Left ,62,1847236005014 ,45,1087853260466 ,62,5825266475863
8.9582447 ,Left ,62,1847236005014 ,45,1087853260466 ,62,5825266475863
8.9735001 ,Left ,62,0680533538721 ,45,1322315067934 ,62,5956088596834
8.973502 ,Left ,62,0680533538721 ,45,1322315067934 ,62,5956088596834
8.9735035 ,Left ,62,0680533538721 ,45,1322315067934 ,62,5956088596834
8.9960151 ,Left ,61,9725039766142 ,45,1406788093817 ,62,6113950576824
8.9960177 ,Left ,61,9725039766142 ,45,1406788093817 ,62,6113950576824
8.9960197 ,Left ,61,9725039766142 ,45,1406788093817 ,62,6113950576824
9.0184108 ,Left ,61,9831965893829 ,45,1181835197677 ,62,6157272958575
9.0184141 ,Left ,61,9831965893829 ,45,1181835197677 ,62,6157272958575
9.0184167 ,Left ,61,9831965893829 ,45,1181835197677 ,62,6157272958575
9.0333289 ,Left ,62,0285525134363 ,45,0681736710898 ,62,6251524275561
9.0333323 ,Left ,62,0285525134363 ,45,0681736710898 ,62,6251524275561
9.0333351 ,Left ,62,0285525134363 ,45,0681736710898 ,62,6251524275561
9.056018 ,Left ,62,0188429131891 ,45,001610493273 ,62,6545593351223
9.05602 ,Left ,62,0188429131891 ,45,001610493273 ,62,6545593351223
9.0560215 ,Left ,62,0188429131891 ,45,001610493273 ,62,6545593351223
9.0782107 ,Left ,61,8877856773482 ,44,9203910759766 ,62,708724304428
9.0782126 ,Left ,61,8877856773482 ,44,9203910759766 ,62,708724304428
9.0782141 ,Left ,61,8877856773482 ,44,9203910759766 ,62,708724304428
9.0934264 ,Left ,61,8708329011068 ,44,8806395927719 ,62,7354965062132
9.0934286 ,Left ,61,8708329011068 ,44,8806395927719 ,62,7354965062132
9.0934304 ,Left ,61,8708329011068 ,44,8806395927719 ,62,7354965062132
9.1235222 ,Left ,61,8860403398746 ,44,9342698462688 ,62,7346202861303
9.1235242 ,Left ,61,8860403398746 ,44,9342698462688 ,62,7346202861303
9.1235257 ,Left ,61,8860403398746 ,44,9342698462688 ,62,7346202861303
9.1457611 ,Left ,61,9170426363417 ,45,0063672247768 ,62,7395999128591
9.1457634 ,Left ,61,9170426363417 ,45,0063672247768 ,62,7395999128591
9.1457651 ,Left ,61,9170426363417 ,45,0063672247768 ,62,7395999128591
9.1607076 ,Left ,61,985618753062 ,45,0692674784861 ,62,7569979084374
9.16071 ,Left ,61,985618753062 ,45,0692674784861 ,62,7569979084374
9.1607121 ,Left ,61,985618753062 ,45,0692674784861 ,62,7569979084374
9.1759893 ,Left ,61,9939848557993 ,45,1215439268266 ,62,7868909892254
9.1759915 ,Left ,61,9939848557993 ,45,1215439268266 ,62,7868909892254
9.1759931 ,Left ,61,9939848557993 ,45,1215439268266 ,62,7868909892254
9.1982182 ,Left ,61,905433180437 ,45,168475053138 ,62,8244075232105
9.1982203 ,Left ,61,905433180437 ,45,168475053138 ,62,8244075232105
9.1982217 ,Left ,61,905433180437 ,45,168475053138 ,62,8244075232105
9.2132796 ,Left ,61,8386707616939 ,45,1998335022248 ,62,8769708651699
9.2132813 ,Left ,61,8386707616939 ,45,1998335022248 ,62,8769708651699
9.2132828 ,Left ,61,8386707616939 ,45,1998335022248 ,62,8769708651699
9.2358598 ,Left ,61,8123259696335 ,45,2097541943123 ,62,9081252612886
9.235862 ,Left ,61,8123259696335 ,45,2097541943123 ,62,9081252612886
9.2358638 ,Left ,61,8123259696335 ,45,2097541943123 ,62,9081252612886
9.2584803 ,Left ,61,819709610323 ,45,1916281752579 ,62,9256339927475
9.2584828 ,Left ,61,819709610323 ,45,1916281752579 ,62,9256339927475
9.2584849 ,Left ,61,819709610323 ,45,1916281752579 ,62,9256339927475
9.2732024 ,Left ,61,8321406041261 ,45,1573608714352 ,62,9327148066804
9.2732045 ,Left ,61,8321406041261 ,45,1573608714352 ,62,9327148066804
9.2732061 ,Left ,61,8321406041261 ,45,1573608714352 ,62,9327148066804
9.2959063 ,Left ,61,772854599718 ,45,0988739524998 ,62,9577024636603
9.2959083 ,Left ,61,772854599718 ,45,0988739524998 ,62,9577024636603
9.2959098 ,Left ,61,772854599718 ,45,0988739524998 ,62,9577024636603
9.3183169 ,Left ,61,686572616078 ,45,0204433471232 ,62,980592542579
9.3183191 ,Left ,61,686572616078 ,45,0204433471232 ,62,980592542579
9.3183208 ,Left ,61,686572616078 ,45,0204433471232 ,62,980592542579
9.3333422 ,Left ,61,6736753450329 ,44,9612995777228 ,62,992101697297
9.3333448 ,Left ,61,6736753450329 ,44,9612995777228 ,62,992101697297
9.3333469 ,Left ,61,6736753450329 ,44,9612995777228 ,62,992101697297
9.355861 ,Left ,61,664367024567 ,45,0237666219847 ,62,972222659446
9.3558643 ,Left ,61,664367024567 ,45,0237666219847 ,62,972222659446
9.3558669 ,Left ,61,664367024567 ,45,0237666219847 ,62,972222659446
9.3783407 ,Left ,61,7107746775216 ,45,1031230439711 ,62,9396484967986
9.3783428 ,Left ,61,7107746775216 ,45,1031230439711 ,62,9396484967986
9.3783444 ,Left ,61,7107746775216 ,45,1031230439711 ,62,9396484967986
9.3933056 ,Left ,61,8599823609233 ,45,1566166244049 ,62,9002004497851
9.3933078 ,Left ,61,8599823609233 ,45,1566166244049 ,62,9002004497851
9.3933097 ,Left ,61,8599823609233 ,45,1566166244049 ,62,9002004497851
9.4168174 ,Left ,61,9508637446629 ,45,2179906327628 ,62,8516846738479
9.4168253 ,Left ,61,9508637446629 ,45,2179906327628 ,62,8516846738479
9.416832 ,Left ,61,9508637446629 ,45,2179906327628 ,62,8516846738479
9.4460869 ,Left ,61,8554701597529 ,45,2730642844623 ,62,8188879040032
9.4460905 ,Left ,61,8554701597529 ,45,2730642844623 ,62,8188879040032
9.4460934 ,Left ,61,8554701597529 ,45,2730642844623 ,62,8188879040032
9.4682764 ,Left ,61,734072191551 ,45,3077643466472 ,62,7837659186004
9.4682782 ,Left ,61,734072191551 ,45,3077643466472 ,62,7837659186004
9.4682797 ,Left ,61,734072191551 ,45,3077643466472 ,62,7837659186004
9.4831538 ,Left ,61,7122659731914 ,45,3134294698562 ,62,7386364822911
9.4831556 ,Left ,61,7122659731914 ,45,3134294698562 ,62,7386364822911
9.483157 ,Left ,61,7122659731914 ,45,3134294698562 ,62,7386364822911
9.4982258 ,Left ,61,701428318981 ,45,3172825342968 ,62,690723022158
9.4982279 ,Left ,61,701428318981 ,45,3172825342968 ,62,690723022158
9.4982294 ,Left ,61,701428318981 ,45,3172825342968 ,62,690723022158
9.5284219 ,Left ,61,6502154808624 ,45,3202975310727 ,62,6509130785746
9.5284238 ,Left ,61,6502154808624 ,45,3202975310727 ,62,6509130785746
9.5284253 ,Left ,61,6502154808624 ,45,3202975310727 ,62,6509130785746
9.5432997 ,Left ,61,5597017182177 ,45,316446918143 ,62,6182364704034
9.5433024 ,Left ,61,5597017182177 ,45,316446918143 ,62,6182364704034
9.5433042 ,Left ,61,5597017182177 ,45,316446918143 ,62,6182364704034
9.5807521 ,Left ,61,454153272774 ,45,2645253141285 ,62,5843916258074
9.5807616 ,Left ,61,454153272774 ,45,2645253141285 ,62,5843916258074
9.5807644 ,Left ,61,454153272774 ,45,2645253141285 ,62,5843916258074
9.6032927 ,Left ,61,4255936672629 ,45,1940101260705 ,62,5824244369369
9.6032946 ,Left ,61,4255936672629 ,45,1940101260705 ,62,5824244369369
9.603296 ,Left ,61,4255936672629 ,45,1940101260705 ,62,5824244369369
9.6256921 ,Left ,61,3959737173394 ,45,0954845241982 ,62,5949631650995
9.6256939 ,Left ,61,3959737173394 ,45,0954845241982 ,62,5949631650995
9.6256955 ,Left ,61,3959737173394 ,45,0954845241982 ,62,5949631650995
9.6559218 ,Left ,61,4816024052214 ,45,036022017466 ,62,5739207256192
9.6559239 ,Left ,61,4816024052214 ,45,036022017466 ,62,5739207256192
9.6559257 ,Left ,61,4816024052214 ,45,036022017466 ,62,5739207256192
9.6783414 ,Left ,61,4984215917389 ,45,0683199700014 ,62,5589111815132
9.6783433 ,Left ,61,4984215917389 ,45,0683199700014 ,62,5589111815132
9.6783448 ,Left ,61,4984215917389 ,45,0683199700014 ,62,5589111815132
9.7007396 ,Left ,61,6257060890045 ,45,1049719313437 ,62,5169248796638
9.7007413 ,Left ,61,6257060890045 ,45,1049719313437 ,62,5169248796638
9.7007428 ,Left ,61,6257060890045 ,45,1049719313437 ,62,5169248796638
9.7159435 ,Left ,61,7846429154239 ,45,1169236046128 ,62,4753569187922
9.7159475 ,Left ,61,7846429154239 ,45,1169236046128 ,62,4753569187922
9.7159492 ,Left ,61,7846429154239 ,45,1169236046128 ,62,4753569187922
9.7384355 ,Left ,61,7868292269699 ,45,148423715498 ,62,462675038267
9.7384389 ,Left ,61,7868292269699 ,45,148423715498 ,62,462675038267
9.7384416 ,Left ,61,7868292269699 ,45,148423715498 ,62,462675038267
9.7608178 ,Left ,61,6904730983743 ,45,1997565073354 ,62,4760895445121
9.7608214 ,Left ,61,6904730983743 ,45,1997565073354 ,62,4760895445121
9.7608244 ,Left ,61,6904730983743 ,45,1997565073354 ,62,4760895445121
9.7761469 ,Left ,61,702331113913 ,45,2131727337374 ,62,4735984035638
9.7761565 ,Left ,61,702331113913 ,45,2131727337374 ,62,4735984035638
9.7761602 ,Left ,61,702331113913 ,45,2131727337374 ,62,4735984035638
9.798303 ,Left ,61,8107292830563 ,45,1567876480698 ,62,4538247321967
9.7983049 ,Left ,61,8107292830563 ,45,1567876480698 ,62,4538247321967
9.7983064 ,Left ,61,8107292830563 ,45,1567876480698 ,62,4538247321967
9.8208141 ,Left ,61,8300240940931 ,45,0886298050308 ,62,4656850046126
9.820816 ,Left ,61,8300240940931 ,45,0886298050308 ,62,4656850046126
9.8208176 ,Left ,61,8300240940931 ,45,0886298050308 ,62,4656850046126
9.8356748 ,Left ,61,8140253061164 ,44,9846469894533 ,62,5016705868446
9.8356768 ,Left ,61,8140253061164 ,44,9846469894533 ,62,5016705868446
9.8356783 ,Left ,61,8140253061164 ,44,9846469894533 ,62,5016705868446
9.8582769 ,Left ,61,7865678333429 ,44,9347645019924 ,62,5272789311225
9.8582788 ,Left ,61,7865678333429 ,44,9347645019924 ,62,5272789311225
9.8582804 ,Left ,61,7865678333429 ,44,9347645019924 ,62,5272789311225
9.880985 ,Left ,61,7938026817773 ,44,9730335651434 ,62,5496705550892
9.8809877 ,Left ,61,7938026817773 ,44,9730335651434 ,62,5496705550892
9.8809898 ,Left ,61,7938026817773 ,44,9730335651434 ,62,5496705550892
9.8959165 ,Left ,61,8825112913001 ,45,0560015863066 ,62,5703727889871
9.8959202 ,Left ,61,8825112913001 ,45,0560015863066 ,62,5703727889871
9.8959228 ,Left ,61,8825112913001 ,45,0560015863066 ,62,5703727889871
9.9181491 ,Left ,62,0123259934858 ,45,1077228648805 ,62,5846456005119
9.9181511 ,Left ,62,0123259934858 ,45,1077228648805 ,62,5846456005119
9.9181526 ,Left ,62,0123259934858 ,45,1077228648805 ,62,5846456005119
9.9408216 ,Left ,62,0926915141982 ,45,1599054972486 ,62,5987298236808
9.9408235 ,Left ,62,0926915141982 ,45,1599054972486 ,62,5987298236808
9.940825 ,Left ,62,0926915141982 ,45,1599054972486 ,62,5987298236808
9.9557861 ,Left ,62,0959288685467 ,45,1995935758325 ,62,6312377008382
9.9557884 ,Left ,62,0959288685467 ,45,1995935758325 ,62,6312377008382
9.95579 ,Left ,62,0959288685467 ,45,1995935758325 ,62,6312377008382
9.9783735 ,Left ,62,0911578748309 ,45,2310029598745 ,62,6743526040323
9.9783787 ,Left ,62,0911578748309 ,45,2310029598745 ,62,6743526040323
9.978381 ,Left ,62,0911578748309 ,45,2310029598745 ,62,6743526040323
10.0007993 ,Left ,62,1183663721827 ,45,2624299191202 ,62,7262095400866
10.0008053 ,Left ,62,1183663721827 ,45,2624299191202 ,62,7262095400866
10.000808 ,Left ,62,1183663721827 ,45,2624299191202 ,62,7262095400866
10.0158504 ,Left ,62,1522894762208 ,45,2744603592406 ,62,7783047785968
10.0158525 ,Left ,62,1522894762208 ,45,2744603592406 ,62,7783047785968
10.0158542 ,Left ,62,1522894762208 ,45,2744603592406 ,62,7783047785968
10.0383083 ,Left ,62,2241946516313 ,45,2676837507814 ,62,8365242153903
10.0383105 ,Left ,62,2241946516313 ,45,2676837507814 ,62,8365242153903
10.0383123 ,Left ,62,2241946516313 ,45,2676837507814 ,62,8365242153903
10.060729 ,Left ,62,3148076568218 ,45,2469682118272 ,62,895295134336
10.0607311 ,Left ,62,3148076568218 ,45,2469682118272 ,62,895295134336
10.0607329 ,Left ,62,3148076568218 ,45,2469682118272 ,62,895295134336
10.0757617 ,Left ,62,3776790141036 ,45,2202891804295 ,62,970404232493
10.0757639 ,Left ,62,3776790141036 ,45,2202891804295 ,62,970404232493
10.0757657 ,Left ,62,3776790141036 ,45,2202891804295 ,62,970404232493
10.0983496 ,Left ,62,4012739896704 ,45,1939184668623 ,63,0526240401225
10.0983518 ,Left ,62,4012739896704 ,45,1939184668623 ,63,0526240401225
10.0983535 ,Left ,62,4012739896704 ,45,1939184668623 ,63,0526240401225
10.1209574 ,Left ,62,4120888111546 ,45,1741932512067 ,63,1312759690356
10.12096 ,Left ,62,4120888111546 ,45,1741932512067 ,63,1312759690356
10.1209621 ,Left ,62,4120888111546 ,45,1741932512067 ,63,1312759690356
10.1359262 ,Left ,62,4231478847864 ,45,1611694355438 ,63,1914915692964
10.1359294 ,Left ,62,4231478847864 ,45,1611694355438 ,63,1914915692964
10.1359321 ,Left ,62,4231478847864 ,45,1611694355438 ,63,1914915692964
10.1583432 ,Left ,62,4468162176222 ,45,1444677431652 ,63,2412673645993
10.1583464 ,Left ,62,4468162176222 ,45,1444677431652 ,63,2412673645993
10.1583491 ,Left ,62,4468162176222 ,45,1444677431652 ,63,2412673645993
10.1810664 ,Left ,62,4962695511955 ,45,1270740483749 ,63,2796876870978
10.1810696 ,Left ,62,4962695511955 ,45,1270740483749 ,63,2796876870978
10.1810722 ,Left ,62,4962695511955 ,45,1270740483749 ,63,2796876870978
10.196118 ,Left ,62,5479439261843 ,45,1095209490258 ,63,311010633834
10.1961213 ,Left ,62,5479439261843 ,45,1095209490258 ,63,311010633834
10.1961239 ,Left ,62,5479439261843 ,45,1095209490258 ,63,311010633834
10.2257023 ,Left ,62,5778673146016 ,45,0982795312253 ,63,341302596368
10.2257041 ,Left ,62,5778673146016 ,45,0982795312253 ,63,341302596368
10.2257056 ,Left ,62,5778673146016 ,45,0982795312253 ,63,341302596368
10.2484804 ,Left ,62,6121703332083 ,45,0970187424412 ,63,366334717096
10.2484943 ,Left ,62,6121703332083 ,45,0970187424412 ,63,366334717096
10.2485021 ,Left ,62,6121703332083 ,45,0970187424412 ,63,366334717096
10.2632775 ,Left ,62,6380799643595 ,45,1009977345349 ,63,3828046567513
10.2632815 ,Left ,62,6380799643595 ,45,1009977345349 ,63,3828046567513
10.2632899 ,Left ,62,6380799643595 ,45,1009977345349 ,63,3828046567513
10.2783138 ,Left ,62,6880277201126 ,45,0984566015626 ,63,3932593426052
10.2783164 ,Left ,62,6880277201126 ,45,0984566015626 ,63,3932593426052
10.2783185 ,Left ,62,6880277201126 ,45,0984566015626 ,63,3932593426052
10.3007767 ,Left ,62,7312250681283 ,45,0986855601703 ,63,3945490995227
10.3007833 ,Left ,62,7312250681283 ,45,0986855601703 ,63,3945490995227
10.3007848 ,Left ,62,7312250681283 ,45,0986855601703 ,63,3945490995227
10.3233413 ,Left ,62,7727956796651 ,45,0941079311088 ,63,3896859746717
10.323343 ,Left ,62,7727956796651 ,45,0941079311088 ,63,3896859746717
10.3233446 ,Left ,62,7727956796651 ,45,0941079311088 ,63,3896859746717
10.3382536 ,Left ,62,7812449041692 ,45,0738996759998 ,63,3800301668396
10.3382557 ,Left ,62,7812449041692 ,45,0738996759998 ,63,3800301668396
10.3382573 ,Left ,62,7812449041692 ,45,0738996759998 ,63,3800301668396
10.3607694 ,Left ,62,798344755519 ,45,0619038287374 ,63,3694627853184
10.3607712 ,Left ,62,798344755519 ,45,0619038287374 ,63,3694627853184
10.3607728 ,Left ,62,798344755519 ,45,0619038287374 ,63,3694627853184
10.3758188 ,Left ,62,7851621495253 ,45,0424177180651 ,63,3567601686294
10.3758215 ,Left ,62,7851621495253 ,45,0424177180651 ,63,3567601686294
10.3758236 ,Left ,62,7851621495253 ,45,0424177180651 ,63,3567601686294
10.3982491 ,Left ,62,7747703440398 ,45,0286575322284 ,63,3490424677806
10.398252 ,Left ,62,7747703440398 ,45,0286575322284 ,63,3490424677806
10.3982544 ,Left ,62,7747703440398 ,45,0286575322284 ,63,3490424677806
10.4210815 ,Left ,62,7793944740414 ,45,0285967228316 ,63,3443293450713
10.4210843 ,Left ,62,7793944740414 ,45,0285967228316 ,63,3443293450713
10.4210867 ,Left ,62,7793944740414 ,45,0285967228316 ,63,3443293450713
10.4359728 ,Left ,62,7664347117767 ,45,0262988701396 ,63,3524401722636
10.4359757 ,Left ,62,7664347117767 ,45,0262988701396 ,63,3524401722636
10.4359781 ,Left ,62,7664347117767 ,45,0262988701396 ,63,3524401722636
10.4657171 ,Left ,62,7589755021404 ,45,0363276376022 ,63,3680667999785
10.46572 ,Left ,62,7589755021404 ,45,0363276376022 ,63,3680667999785
10.4657223 ,Left ,62,7589755021404 ,45,0363276376022 ,63,3680667999785
10.4882796 ,Left ,62,7455503211624 ,45,0431397472218 ,63,3871288560334
10.4882824 ,Left ,62,7455503211624 ,45,0431397472218 ,63,3871288560334
10.4882847 ,Left ,62,7455503211624 ,45,0431397472218 ,63,3871288560334
10.5189331 ,Left ,62,731174880011 ,45,0541229828747 ,63,4074335078519
10.518941 ,Left ,62,731174880011 ,45,0541229828747 ,63,4074335078519
10.5189478 ,Left ,62,731174880011 ,45,0541229828747 ,63,4074335078519
10.5335598 ,Left ,62,7187117382842 ,45,0701298075691 ,63,4248033125175
10.533564 ,Left ,62,7187117382842 ,45,0701298075691 ,63,4248033125175
10.5335675 ,Left ,62,7187117382842 ,45,0701298075691 ,63,4248033125175
10.5558658 ,Left ,62,7039194602186 ,45,092201146434 ,63,4372831437772
10.55587 ,Left ,62,7039194602186 ,45,092201146434 ,63,4372831437772
10.5558737 ,Left ,62,7039194602186 ,45,092201146434 ,63,4372831437772
10.5860973 ,Left ,62,6417494049025 ,45,1284711272118 ,63,4460464017081
10.5861008 ,Left ,62,6417494049025 ,45,1284711272118 ,63,4460464017081
10.5861037 ,Left ,62,6417494049025 ,45,1284711272118 ,63,4460464017081
10.6009374 ,Left ,62,6044073423484 ,45,1448574864465 ,63,4360208738771
10.600941 ,Left ,62,6044073423484 ,45,1448574864465 ,63,4360208738771
10.6009439 ,Left ,62,6044073423484 ,45,1448574864465 ,63,4360208738771
10.6234171 ,Left ,62,5751134332279 ,45,1568470587718 ,63,4225561079905
10.6234206 ,Left ,62,5751134332279 ,45,1568470587718 ,63,4225561079905
10.6234235 ,Left ,62,5751134332279 ,45,1568470587718 ,63,4225561079905
10.6383781 ,Left ,62,5473641917714 ,45,1687483037047 ,63,401338329428
10.6383815 ,Left ,62,5473641917714 ,45,1687483037047 ,63,401338329428
10.6383844 ,Left ,62,5473641917714 ,45,1687483037047 ,63,401338329428
10.6611592 ,Left ,62,5083033176034 ,45,1793882770099 ,63,3827703452929
10.6611627 ,Left ,62,5083033176034 ,45,1793882770099 ,63,3827703452929
10.6611656 ,Left ,62,5083033176034 ,45,1793882770099 ,63,3827703452929
10.6910956 ,Left ,62,4704211878134 ,45,1897990974675 ,63,3607322430013
10.6910991 ,Left ,62,4704211878134 ,45,1897990974675 ,63,3607322430013
10.691102 ,Left ,62,4704211878134 ,45,1897990974675 ,63,3607322430013
10.7060613 ,Left ,62,4505499095907 ,45,1888731065071 ,63,3408965490215
10.7060649 ,Left ,62,4505499095907 ,45,1888731065071 ,63,3408965490215
10.7060679 ,Left ,62,4505499095907 ,45,1888731065071 ,63,3408965490215
10.7284718 ,Left ,62,4411640980735 ,45,1783737641952 ,63,324949587889
10.7284753 ,Left ,62,4411640980735 ,45,1783737641952 ,63,324949587889
10.7284782 ,Left ,62,4411640980735 ,45,1783737641952 ,63,324949587889
10.7436583 ,Left ,62,4407572434758 ,45,1542347864271 ,63,309197506413
10.7436621 ,Left ,62,4407572434758 ,45,1542347864271 ,63,309197506413
10.7436651 ,Left ,62,4407572434758 ,45,1542347864271 ,63,309197506413
10.7585634 ,Left ,62,4062849947883 ,45,1275476219014 ,63,3059478840662
10.7585669 ,Left ,62,4062849947883 ,45,1275476219014 ,63,3059478840662
10.7585698 ,Left ,62,4062849947883 ,45,1275476219014 ,63,3059478840662
10.7811644 ,Left ,62,3189690804784 ,45,08876185562 ,63,2969980410243
10.781168 ,Left ,62,3189690804784 ,45,08876185562 ,63,2969980410243
10.7811709 ,Left ,62,3189690804784 ,45,08876185562 ,63,2969980410243
10.8034267 ,Left ,62,2370584468087 ,45,007862444176 ,63,281620319214
10.8034297 ,Left ,62,2370584468087 ,45,007862444176 ,63,281620319214
10.8034321 ,Left ,62,2370584468087 ,45,007862444176 ,63,281620319214
10.8184658 ,Left ,62,1827075724423 ,44,8934070042503 ,63,2700608180953
10.8184688 ,Left ,62,1827075724423 ,44,8934070042503 ,63,2700608180953
10.8184709 ,Left ,62,1827075724423 ,44,8934070042503 ,63,2700608180953
10.8408252 ,Left ,62,1873194268115 ,44,832026364054 ,63,2563889447031
10.8408271 ,Left ,62,1873194268115 ,44,832026364054 ,63,2563889447031
10.8408286 ,Left ,62,1873194268115 ,44,832026364054 ,63,2563889447031
10.8642564 ,Left ,62,1970429576834 ,44,883743871748 ,63,2166949006816
10.8642645 ,Left ,62,1970429576834 ,44,883743871748 ,63,2166949006816
10.8642713 ,Left ,62,1970429576834 ,44,883743871748 ,63,2166949006816
10.8788389 ,Left ,62,2036388483324 ,44,9773742041364 ,63,1629753753196
10.8788466 ,Left ,62,2036388483324 ,44,9773742041364 ,63,1629753753196
10.8788533 ,Left ,62,2036388483324 ,44,9773742041364 ,63,1629753753196
10.9011052 ,Left ,62,3097315129189 ,45,0708112187464 ,63,0973763111146
10.9011087 ,Left ,62,3097315129189 ,45,0708112187464 ,63,0973763111146
10.9011115 ,Left ,62,3097315129189 ,45,0708112187464 ,63,0973763111146
10.923512 ,Left ,62,4004151949774 ,45,1571736920986 ,63,0249254131707
10.9235146 ,Left ,62,4004151949774 ,45,1571736920986 ,63,0249254131707
10.9235167 ,Left ,62,4004151949774 ,45,1571736920986 ,63,0249254131707
10.9383331 ,Left ,62,3641329905644 ,45,2355319010768 ,62,9564734403903
10.9383357 ,Left ,62,3641329905644 ,45,2355319010768 ,62,9564734403903
10.9383378 ,Left ,62,3641329905644 ,45,2355319010768 ,62,9564734403903
10.9610004 ,Left ,62,2505811059644 ,45,2835946848224 ,62,8971384934395
10.9610031 ,Left ,62,2505811059644 ,45,2835946848224 ,62,8971384934395
10.9610052 ,Left ,62,2505811059644 ,45,2835946848224 ,62,8971384934395
10.983557 ,Left ,62,1840416087863 ,45,2997300635579 ,62,8370791302076
10.98356 ,Left ,62,1840416087863 ,45,2997300635579 ,62,8370791302076
10.9835621 ,Left ,62,1840416087863 ,45,2997300635579 ,62,8370791302076
10.9983926 ,Left ,62,1752974590961 ,45,2801344262088 ,62,7757536710548
10.9983952 ,Left ,62,1752974590961 ,45,2801344262088 ,62,7757536710548
10.9983972 ,Left ,62,1752974590961 ,45,2801344262088 ,62,7757536710548
11.0207899 ,Left ,62,181217408267 ,45,2280481922689 ,62,741338917012
11.0207924 ,Left ,62,181217408267 ,45,2280481922689 ,62,741338917012
11.0207945 ,Left ,62,181217408267 ,45,2280481922689 ,62,741338917012
11.0433097 ,Left ,62,1492830934203 ,45,1361403179209 ,62,7302001905517
11.0433121 ,Left ,62,1492830934203 ,45,1361403179209 ,62,7302001905517
11.0433142 ,Left ,62,1492830934203 ,45,1361403179209 ,62,7302001905517
11.0507734 ,Left ,62,0196009403637 ,45,0020343964527 ,62,7464687149862
11.0507758 ,Left ,62,0196009403637 ,45,0020343964527 ,62,7464687149862
11.0507779 ,Left ,62,0196009403637 ,45,0020343964527 ,62,7464687149862
11.0733029 ,Left ,61,9626451409295 ,44,9045677176982 ,62,7747590608035
11.0733046 ,Left ,61,9626451409295 ,44,9045677176982 ,62,7747590608035
11.0733079 ,Left ,61,9626451409295 ,44,9045677176982 ,62,7747590608035
11.0958473 ,Left ,61,9876701808772 ,44,9220635279658 ,62,773360904179
11.0958497 ,Left ,61,9876701808772 ,44,9220635279658 ,62,773360904179
11.0958516 ,Left ,61,9876701808772 ,44,9220635279658 ,62,773360904179
11.1107423 ,Left ,62,040695529493 ,44,9953543778374 ,62,7537434591474
11.1107447 ,Left ,62,040695529493 ,44,9953543778374 ,62,7537434591474
11.1107468 ,Left ,62,040695529493 ,44,9953543778374 ,62,7537434591474
11.1333256 ,Left ,62,1493223688562 ,45,0525764816196 ,62,7416591905873
11.1333274 ,Left ,62,1493223688562 ,45,0525764816196 ,62,7416591905873
11.1333289 ,Left ,62,1493223688562 ,45,0525764816196 ,62,7416591905873
11.1559954 ,Left ,62,2817269690622 ,45,0853179715309 ,62,7288357124323
11.1559973 ,Left ,62,2817269690622 ,45,0853179715309 ,62,7288357124323
11.1559988 ,Left ,62,2817269690622 ,45,0853179715309 ,62,7288357124323
11.1707341 ,Left ,62,2764054038248 ,45,1221135704882 ,62,7181581100082
11.1707358 ,Left ,62,2764054038248 ,45,1221135704882 ,62,7181581100082
11.1707373 ,Left ,62,2764054038248 ,45,1221135704882 ,62,7181581100082
11.1933195 ,Left ,62,1510436874589 ,45,1344763590777 ,62,7320021869371
11.1933223 ,Left ,62,1510436874589 ,45,1344763590777 ,62,7320021869371
11.1933245 ,Left ,62,1510436874589 ,45,1344763590777 ,62,7320021869371
11.2160334 ,Left ,62,0586067126702 ,45,1148467715504 ,62,7424026245852
11.2160361 ,Left ,62,0586067126702 ,45,1148467715504 ,62,7424026245852
11.2160383 ,Left ,62,0586067126702 ,45,1148467715504 ,62,7424026245852
11.2306796 ,Left ,62,0526408209855 ,45,0662889290677 ,62,7378669143222
11.2306859 ,Left ,62,0526408209855 ,45,0662889290677 ,62,7378669143222
11.2306874 ,Left ,62,0526408209855 ,45,0662889290677 ,62,7378669143222
11.253882 ,Left ,62,0808727046435 ,44,9957830735026 ,62,7307773991488
11.2538892 ,Left ,62,0808727046435 ,44,9957830735026 ,62,7307773991488
11.2538959 ,Left ,62,0808727046435 ,44,9957830735026 ,62,7307773991488
11.2762821 ,Left ,62,0706592998543 ,44,9296055754516 ,62,7294660498409
11.2762898 ,Left ,62,0706592998543 ,44,9296055754516 ,62,7294660498409
11.2762966 ,Left ,62,0706592998543 ,44,9296055754516 ,62,7294660498409
11.2911828 ,Left ,61,9935156092436 ,44,8740569087693 ,62,7596943388726
11.2911872 ,Left ,61,9935156092436 ,44,8740569087693 ,62,7596943388726
11.2911908 ,Left ,61,9935156092436 ,44,8740569087693 ,62,7596943388726
11.3132776 ,Left ,61,9220582209068 ,44,917478258267 ,62,7876810981878
11.3132803 ,Left ,61,9220582209068 ,44,917478258267 ,62,7876810981878
11.3132827 ,Left ,61,9220582209068 ,44,917478258267 ,62,7876810981878
11.3358849 ,Left ,61,9194490270057 ,44,9980753719448 ,62,7960817889635
11.3358868 ,Left ,61,9194490270057 ,44,9980753719448 ,62,7960817889635
11.3358901 ,Left ,61,9194490270057 ,44,9980753719448 ,62,7960817889635
11.3507907 ,Left ,61,9891829968923 ,45,0582399009185 ,62,8075698470355
11.3507925 ,Left ,61,9891829968923 ,45,0582399009185 ,62,8075698470355
11.350794 ,Left ,61,9891829968923 ,45,0582399009185 ,62,8075698470355
11.3733443 ,Left ,62,0952760920653 ,45,1146310725368 ,62,8139732085821
11.3733462 ,Left ,62,0952760920653 ,45,1146310725368 ,62,8139732085821
11.3733477 ,Left ,62,0952760920653 ,45,1146310725368 ,62,8139732085821
11.3959037 ,Left ,62,0214567813861 ,45,1806239029659 ,62,8401968915964
11.395906 ,Left ,62,0214567813861 ,45,1806239029659 ,62,8401968915964
11.3959077 ,Left ,62,0214567813861 ,45,1806239029659 ,62,8401968915964
11.4112343 ,Left ,61,8907211875912 ,45,2330039438933 ,62,8812472673383
11.4112372 ,Left ,61,8907211875912 ,45,2330039438933 ,62,8812472673383
11.4112395 ,Left ,61,8907211875912 ,45,2330039438933 ,62,8812472673383
11.4333711 ,Left ,61,8070106043773 ,45,2509089430296 ,62,9170856291128
11.4333736 ,Left ,61,8070106043773 ,45,2509089430296 ,62,9170856291128
11.4333754 ,Left ,61,8070106043773 ,45,2509089430296 ,62,9170856291128
11.4559984 ,Left ,61,8035394056056 ,45,2419734743951 ,62,9302359539289
11.4560013 ,Left ,61,8035394056056 ,45,2419734743951 ,62,9302359539289
11.4560037 ,Left ,61,8035394056056 ,45,2419734743951 ,62,9302359539289
11.4707286 ,Left ,61,7989451340602 ,45,2172105233249 ,62,9453662556557
11.4707307 ,Left ,61,7989451340602 ,45,2172105233249 ,62,9453662556557
11.4707324 ,Left ,61,7989451340602 ,45,2172105233249 ,62,9453662556557
11.5007489 ,Left ,61,7701694657961 ,45,1789801635206 ,62,9463130093545
11.5007511 ,Left ,61,7701694657961 ,45,1789801635206 ,62,9463130093545
11.5007528 ,Left ,61,7701694657961 ,45,1789801635206 ,62,9463130093545
11.5233315 ,Left ,61,7099674336775 ,45,1010462614286 ,62,959908513009
11.5233333 ,Left ,61,7099674336775 ,45,1010462614286 ,62,959908513009
11.5233348 ,Left ,61,7099674336775 ,45,1010462614286 ,62,959908513009
11.5383047 ,Left ,61,6593046853805 ,44,9928848780104 ,62,9759253318074
11.5383068 ,Left ,61,6593046853805 ,44,9928848780104 ,62,9759253318074
11.5383085 ,Left ,61,6593046853805 ,44,9928848780104 ,62,9759253318074
11.5533512 ,Left ,61,5973278356493 ,44,9953992676119 ,62,9933615187285
11.5533538 ,Left ,61,5973278356493 ,44,9953992676119 ,62,9933615187285
11.5533556 ,Left ,61,5973278356493 ,44,9953992676119 ,62,9933615187285
11.5910417 ,Left ,61,6530589563381 ,45,1805068763351 ,62,9428481213242
11.5910437 ,Left ,61,6530589563381 ,45,1805068763351 ,62,9428481213242
11.5910452 ,Left ,61,6530589563381 ,45,1805068763351 ,62,9428481213242
11.6134138 ,Left ,61,8477797997175 ,45,2354913207106 ,62,9122799924942
11.6134157 ,Left ,61,8477797997175 ,45,2354913207106 ,62,9122799924942
11.6134227 ,Left ,61,8477797997175 ,45,2354913207106 ,62,9122799924942
11.6359942 ,Left ,61,9059582748069 ,45,2978412219365 ,62,86605659238
11.6359961 ,Left ,61,9059582748069 ,45,2978412219365 ,62,86605659238
11.6359976 ,Left ,61,9059582748069 ,45,2978412219365 ,62,86605659238
11.6509231 ,Left ,61,7388679665386 ,45,361368386158 ,62,8299356861648
11.6509253 ,Left ,61,7388679665386 ,45,361368386158 ,62,8299356861648
11.650927 ,Left ,61,7388679665386 ,45,361368386158 ,62,8299356861648
11.6732093 ,Left ,61,606009456177 ,45,3890883058109 ,62,7924095977687
11.6732114 ,Left ,61,606009456177 ,45,3890883058109 ,62,7924095977687
11.673213 ,Left ,61,606009456177 ,45,3890883058109 ,62,7924095977687
11.6959683 ,Left ,61,5924138851126 ,45,394005481165 ,62,7279693054253
11.6959702 ,Left ,61,5924138851126 ,45,394005481165 ,62,7279693054253
11.6959716 ,Left ,61,5924138851126 ,45,394005481165 ,62,7279693054253
11.7107211 ,Left ,61,5959653469461 ,45,3746301181 ,62,6611051622137
11.7107232 ,Left ,61,5959653469461 ,45,3746301181 ,62,6611051622137
11.7107252 ,Left ,61,5959653469461 ,45,3746301181 ,62,6611051622137
11.7335004 ,Left ,61,5742984624386 ,45,3423337043243 ,62,6155461345641
11.7335042 ,Left ,61,5742984624386 ,45,3423337043243 ,62,6155461345641
11.7335072 ,Left ,61,5742984624386 ,45,3423337043243 ,62,6155461345641
11.7561017 ,Left ,61,513665359014 ,45,2987684844905 ,62,5960854537915
11.7561069 ,Left ,61,513665359014 ,45,2987684844905 ,62,5960854537915
11.7561112 ,Left ,61,513665359014 ,45,2987684844905 ,62,5960854537915
11.7784681 ,Left ,61,4440694525874 ,45,2489505873963 ,62,5958843684812
11.7784715 ,Left ,61,4440694525874 ,45,2489505873963 ,62,5958843684812
11.7784743 ,Left ,61,4440694525874 ,45,2489505873963 ,62,5958843684812
11.8007702 ,Left ,61,4055824359502 ,45,1703012933427 ,62,6030589504646
11.8007722 ,Left ,61,4055824359502 ,45,1703012933427 ,62,6030589504646
11.8007737 ,Left ,61,4055824359502 ,45,1703012933427 ,62,6030589504646
11.8307158 ,Left ,61,4686617677702 ,45,0183011577828 ,62,5992094527613
11.8307178 ,Left ,61,4686617677702 ,45,0183011577828 ,62,5992094527613
11.8307196 ,Left ,61,4686617677702 ,45,0183011577828 ,62,5992094527613
11.853253 ,Left ,61,5365350467772 ,45,007071955756 ,62,5717769409383
11.8532547 ,Left ,61,5365350467772 ,45,007071955756 ,62,5717769409383
11.8532562 ,Left ,61,5365350467772 ,45,007071955756 ,62,5717769409383
11.8913178 ,Left ,61,6766671239339 ,44,9990576458356 ,62,5485865381326
11.8913254 ,Left ,61,6766671239339 ,44,9990576458356 ,62,5485865381326
11.8913322 ,Left ,61,6766671239339 ,44,9990576458356 ,62,5485865381326
11.9136863 ,Left ,61,8330901875553 ,45,0106850857729 ,62,4989327309279
11.9136987 ,Left ,61,8330901875553 ,45,0106850857729 ,62,4989327309279
11.9137315 ,Left ,61,8330901875553 ,45,0106850857729 ,62,4989327309279
11.9360769 ,Left ,61,9375546485375 ,44,9889301015921 ,62,4636996619531
11.9360799 ,Left ,61,9375546485375 ,44,9889301015921 ,62,4636996619531
11.9360823 ,Left ,61,9375546485375 ,44,9889301015921 ,62,4636996619531
11.9811339 ,Left ,61,8385882687203 ,45,0074622773673 ,62,4647947735607
11.981137 ,Left ,61,8385882687203 ,45,0074622773673 ,62,4647947735607
11.9811394 ,Left ,61,8385882687203 ,45,0074622773673 ,62,4647947735607
12.0033954 ,Left ,61,8994082038516 ,44,9809568487223 ,62,4561476559715
12.0033983 ,Left ,61,8994082038516 ,44,9809568487223 ,62,4561476559715
12.0034008 ,Left ,61,8994082038516 ,44,9809568487223 ,62,4561476559715
12.0331504 ,Left ,61,9851727943344 ,44,8008785772115 ,62,4802765898307
12.0331522 ,Left ,61,9851727943344 ,44,8008785772115 ,62,4802765898307
12.0331538 ,Left ,61,9851727943344 ,44,8008785772115 ,62,4802765898307
12.055847 ,Left ,61,9275458671694 ,44,7188474006066 ,62,5143609301549
12.0558496 ,Left ,61,9275458671694 ,44,7188474006066 ,62,5143609301549
12.0558517 ,Left ,61,9275458671694 ,44,7188474006066 ,62,5143609301549
12.0932927 ,Left ,61,9905705360142 ,44,795956926813 ,62,5353072005628
12.0932944 ,Left ,61,9905705360142 ,44,795956926813 ,62,5353072005628
12.0932959 ,Left ,61,9905705360142 ,44,795956926813 ,62,5353072005628
12.1159629 ,Left ,62,1305124932654 ,44,8568956815978 ,62,5373808023975
12.1159655 ,Left ,62,1305124932654 ,44,8568956815978 ,62,5373808023975
12.1159672 ,Left ,62,1305124932654 ,44,8568956815978 ,62,5373808023975
12.1533085 ,Left ,62,2390469680283 ,44,9752903814223 ,62,5338530673494
12.1533113 ,Left ,62,2390469680283 ,44,9752903814223 ,62,5338530673494
12.1533136 ,Left ,62,2390469680283 ,44,9752903814223 ,62,5338530673494
12.1760805 ,Left ,62,2100850540932 ,45,024913128422 ,62,5626292684021
12.1760835 ,Left ,62,2100850540932 ,45,024913128422 ,62,5626292684021
12.1760858 ,Left ,62,2100850540932 ,45,024913128422 ,62,5626292684021
12.2134763 ,Left ,62,2774626111788 ,45,1232410230366 ,62,621543496317
12.2134817 ,Left ,62,2774626111788 ,45,1232410230366 ,62,621543496317
12.2134833 ,Left ,62,2774626111788 ,45,1232410230366 ,62,621543496317
12.2357278 ,Left ,62,3619794868117 ,45,1516234980678 ,62,6638441645737
12.2357298 ,Left ,62,3619794868117 ,45,1516234980678 ,62,6638441645737
12.2357329 ,Left ,62,3619794868117 ,45,1516234980678 ,62,6638441645737
12.2732955 ,Left ,62,4935907744902 ,45,1407052916285 ,62,7909506448212
12.2732978 ,Left ,62,4935907744902 ,45,1407052916285 ,62,7909506448212
12.2732997 ,Left ,62,4935907744902 ,45,1407052916285 ,62,7909506448212
12.3109324 ,Left ,62,4756311023817 ,45,0941967848536 ,62,9854256594047
12.3109369 ,Left ,62,4756311023817 ,45,0941967848536 ,62,9854256594047
12.3109386 ,Left ,62,4756311023817 ,45,0941967848536 ,62,9854256594047
12.3335092 ,Left ,62,4692423216742 ,45,0653757304707 ,63,0822325015399
12.3335112 ,Left ,62,4692423216742 ,45,0653757304707 ,63,0822325015399
12.3335127 ,Left ,62,4692423216742 ,45,0653757304707 ,63,0822325015399
12.3707685 ,Left ,62,4906432773927 ,45,0246711180903 ,63,2238077558867
12.3707708 ,Left ,62,4906432773927 ,45,0246711180903 ,63,2238077558867
12.3707729 ,Left ,62,4906432773927 ,45,0246711180903 ,63,2238077558867
12.393462 ,Left ,62,5324204969117 ,45,029072479593 ,63,2771204272783
12.3934661 ,Left ,62,5324204969117 ,45,029072479593 ,63,2771204272783
12.3934697 ,Left ,62,5324204969117 ,45,029072479593 ,63,2771204272783
12.4462941 ,Left ,62,614180368531 ,45,0416753723997 ,63,3654766030192
12.4463017 ,Left ,62,614180368531 ,45,0416753723997 ,63,3654766030192
12.4463092 ,Left ,62,614180368531 ,45,0416753723997 ,63,3654766030192
12.5133664 ,Left ,62,6929485043857 ,45,0485020659249 ,63,4160286267407
12.5133692 ,Left ,62,6929485043857 ,45,0485020659249 ,63,4160286267407
12.5133716 ,Left ,62,6929485043857 ,45,0485020659249 ,63,4160286267407
12.5509052 ,Left ,62,7170313264843 ,45,0295017532954 ,63,4080168434636
12.5509097 ,Left ,62,7170313264843 ,45,0295017532954 ,63,4080168434636
12.5509121 ,Left ,62,7170313264843 ,45,0295017532954 ,63,4080168434636
12.5733659 ,Left ,62,7301789647871 ,45,0148376628635 ,63,4052487404918
12.5733687 ,Left ,62,7301789647871 ,45,0148376628635 ,63,4052487404918
12.5733711 ,Left ,62,7301789647871 ,45,0148376628635 ,63,4052487404918
12.6110687 ,Left ,62,730513041047 ,44,9901973908008 ,63,4226738936636
12.6110718 ,Left ,62,730513041047 ,44,9901973908008 ,63,4226738936636
12.6110742 ,Left ,62,730513041047 ,44,9901973908008 ,63,4226738936636
12.6331685 ,Left ,62,7102305944296 ,44,9922652389414 ,63,4397465536338
12.6331707 ,Left ,62,7102305944296 ,44,9922652389414 ,63,4397465536338
12.6331723 ,Left ,62,7102305944296 ,44,9922652389414 ,63,4397465536338
12.6706049 ,Left ,62,6984890522992 ,45,020778601034 ,63,4644779777442
12.6706068 ,Left ,62,6984890522992 ,45,020778601034 ,63,4644779777442
12.6706083 ,Left ,62,6984890522992 ,45,020778601034 ,63,4644779777442
12.6938916 ,Left ,62,7152691261779 ,45,0383937943898 ,63,4760080638053
12.6938992 ,Left ,62,7152691261779 ,45,0383937943898 ,63,4760080638053
12.6939059 ,Left ,62,7152691261779 ,45,0383937943898 ,63,4760080638053
12.7385577 ,Left ,62,699414783841 ,45,0986637842609 ,63,5093979452239
12.7385629 ,Left ,62,699414783841 ,45,0986637842609 ,63,5093979452239
12.7385654 ,Left ,62,699414783841 ,45,0986637842609 ,63,5093979452239
12.7608612 ,Left ,62,6833599761443 ,45,1308018271038 ,63,5201248402566
12.7608632 ,Left ,62,6833599761443 ,45,1308018271038 ,63,5201248402566
12.7608647 ,Left ,62,6833599761443 ,45,1308018271038 ,63,5201248402566
12.79127 ,Left ,62,6662955653938 ,45,170699535961 ,63,5271620114886
12.7912777 ,Left ,62,6662955653938 ,45,170699535961 ,63,5271620114886
12.7912845 ,Left ,62,6662955653938 ,45,170699535961 ,63,5271620114886
12.81361 ,Left ,62,6543188144486 ,45,1836424014659 ,63,5263074671226
12.8136137 ,Left ,62,6543188144486 ,45,1836424014659 ,63,5263074671226
12.8136166 ,Left ,62,6543188144486 ,45,1836424014659 ,63,5263074671226
12.8510745 ,Left ,62,6293979789113 ,45,20554495818 ,63,5214293641544
12.8510776 ,Left ,62,6293979789113 ,45,20554495818 ,63,5214293641544
12.8510801 ,Left ,62,6293979789113 ,45,20554495818 ,63,5214293641544
12.8732735 ,Left ,62,6167038459207 ,45,2119292033766 ,63,510809021705
12.8732763 ,Left ,62,6167038459207 ,45,2119292033766 ,63,510809021705
12.8732788 ,Left ,62,6167038459207 ,45,2119292033766 ,63,510809021705
