timestamp,event,roll,pitch,yaw
0.0735877 ,Left ,62,7794610227475 ,47,9303387120113 ,4,86946925003119
0.0964543 ,Left ,62,781353728413 ,47,9241537492579 ,4,87259615284007
0.1107747 ,Left ,62,7829348415958 ,47,9189653464471 ,4,87890665550699
0.1334343 ,Left ,62,7839784938762 ,47,9137758839575 ,4,88597671498989
0.1559603 ,Left ,62,7871390281281 ,47,9057159810101 ,4,89352958762884
0.1703141 ,Left ,62,7875911843801 ,47,9053885977238 ,4,90344344176408
0.1933953 ,Left ,62,7758771439586 ,47,9023791894498 ,4,91591629171552
0.2160721 ,Left ,62,7730801433848 ,47,8952986065561 ,4,92334986599562
0.2303181 ,Left ,62,7728524683501 ,47,8912082283318 ,4,92767429690274
0.2536133 ,Left ,62,7677116121105 ,47,8852297771265 ,4,93389234480341
0.2759496 ,Left ,62,7687500699251 ,47,879266220047 ,4,9426542743658
0.2905084 ,Left ,62,7703248096582 ,47,8725276514121 ,4,95233202515436
0.3134686 ,Left ,62,7653280644845 ,47,8710929551256 ,4,9632187770144
0.3362185 ,Left ,62,7655554660486 ,47,8697715498715 ,4,97069710225272
0.357573 ,Left ,62,769393670588 ,47,8670153840634 ,4,98045535830917
0.3740556 ,Left ,62,7781494622528 ,47,8661368912997 ,4,98830939305825
0.3962518 ,Left ,62,7806471001318 ,47,8680204617455 ,4,99755300011483
0.4173285 ,Left ,62,780804721995 ,47,8710088422106 ,5,00559021608857
0.4338137 ,Left ,62,7810366003467 ,47,8727789099175 ,5,0063262132611
0.4562458 ,Left ,62,7852367835397 ,47,888927733507 ,5,00668652350403
0.4772236 ,Left ,62,7924801178597 ,47,9131479521305 ,5,0020484118804
0.4936267 ,Left ,62,7886866087917 ,47,932726530311 ,4,99282248904565
0.5158698 ,Left ,62,780048574532 ,47,9461093830924 ,4,98491704868282
0.5372493 ,Left ,62,7701830593084 ,47,9729724533909 ,4,98170793853951
0.5535663 ,Left ,62,7468711504011 ,48,0054661449201 ,4,97522508047797
0.5760909 ,Left ,62,714258568879 ,48,0377153754831 ,4,9739053608975
0.5972655 ,Left ,62,6892918344804 ,48,0571856965456 ,4,98351051137635
0.6138051 ,Left ,62,6517667091005 ,48,0673948500519 ,5,00089948614866
0.6362948 ,Left ,62,6313294754348 ,48,0739369944208 ,5,02926107095412
0.6575182 ,Left ,62,6016159882801 ,48,0893075866415 ,5,04568386644379
0.6738653 ,Left ,62,5541780457015 ,48,1030765548153 ,5,04886408719593
0.6962511 ,Left ,62,5203924823806 ,48,1237051260195 ,5,05519792699343
0.717332 ,Left ,62,5007499720824 ,48,153474563495 ,5,05884612361889
0.7338108 ,Left ,62,4995715174397 ,48,1896680511355 ,5,03857302895811
0.7561139 ,Left ,62,5193618721928 ,48,2305988575269 ,5,00905687641129
0.7786193 ,Left ,62,5226030853409 ,48,2726664821191 ,4,95305859539824
0.7937365 ,Left ,62,5538809771839 ,48,301829105575 ,4,90093769213723
0.8166532 ,Left ,62,5983460296239 ,48,3174347332366 ,4,84545729405627
0.8389867 ,Left ,62,6161117956576 ,48,3278597601826 ,4,78364785473532
0.8540055 ,Left ,62,61943941069 ,48,3445802982306 ,4,71819977588829
0.8762282 ,Left ,62,6345043874813 ,48,3510843065607 ,4,65700675092992
0.8989633 ,Left ,62,6613854546948 ,48,3629110847592 ,4,62357140714398
0.9138223 ,Left ,62,6915164561535 ,48,3634637402191 ,4,61528272721384
0.9363196 ,Left ,62,6997566190121 ,48,3436315105717 ,4,62869888211648
0.9587146 ,Left ,62,7128505020662 ,48,3089355132567 ,4,63983054515972
0.9731618 ,Left ,62,7281833701762 ,48,2621916398646 ,4,64882528234693
0.9960652 ,Left ,62,7594580850312 ,48,2205919269631 ,4,66399168689609
1.0184333 ,Left ,62,7903806787163 ,48,206240019976 ,4,67470624223532
1.0330055 ,Left ,62,8218958818092 ,48,2045602250815 ,4,6813371578252
1.0560115 ,Left ,62,8503430802245 ,48,1882655512375 ,4,68269502519098
1.078597 ,Left ,62,8752715201205 ,48,1654016445739 ,4,68634769098567
1.0929093 ,Left ,62,8801352542504 ,48,1372684125794 ,4,6855953897023
1.1159463 ,Left ,62,8862798733467 ,48,1163534211105 ,4,67225276658039
1.1390133 ,Left ,62,8686106310021 ,48,112667386184 ,4,65338978298877
1.1533956 ,Left ,62,8461697484857 ,48,1221580606211 ,4,65513154889679
1.1759204 ,Left ,62,7971666407861 ,48,1238688349695 ,4,67055794547474
1.1985767 ,Left ,62,8236749152893 ,48,1103239002113 ,4,68615618187077
1.2039099 ,Left ,62,8751587563678 ,48,09722080381 ,4,68163029228216
1.2203666 ,Left ,62,8855740001475 ,48,0557692681338 ,4,67430150103817
1.2414725 ,Left ,62,9172685475992 ,48,0022537272288 ,4,6674782362224
1.2641406 ,Left ,62,9704967925991 ,47,9399249807714 ,4,64688691475039
1.2802224 ,Left ,62,9987277706856 ,47,9085623958058 ,4,62969456567574
1.3012129 ,Left ,62,9587683179418 ,47,8624314033406 ,4,63400294102083
1.3241365 ,Left ,62,9008290757282 ,47,8255894783113 ,4,64848735866335
1.3403133 ,Left ,62,864763378627 ,47,8694611778245 ,4,665400473739
1.3612465 ,Left ,62,8970068205632 ,48,0271915106504 ,4,64736293023491
1.3837605 ,Left ,62,8642375267615 ,48,1504483090803 ,4,62238927452501
1.4064341 ,Left ,62,860328611372 ,48,1871054436314 ,4,60302864792098
1.4216816 ,Left ,62,8729914591009 ,48,1660595013539 ,4,58743201454557
1.4440131 ,Left ,62,8565998302124 ,48,1375719181149 ,4,57111390155614
1.4620758 ,Left ,62,8250543336843 ,48,0897392397474 ,4,56606137178589
1.4817286 ,Left ,62,7876168219073 ,48,0306815978813 ,4,5847413181433
1.5039219 ,Left ,62,7741145358453 ,47,9715202958747 ,4,61369111292561
1.5217761 ,Left ,62,785690025163 ,47,9213798196123 ,4,6457848190347
1.5412571 ,Left ,62,7851822835837 ,47,8649853403476 ,4,66326705669885
1.5637185 ,Left ,62,7625325044509 ,47,8031320270935 ,4,66801275725964
1.5817113 ,Left ,62,7197942033955 ,47,7504656521604 ,4,67432423744083
1.6012529 ,Left ,62,7052151555879 ,47,718809053361 ,4,65530119200879
1.6238896 ,Left ,62,6865306263876 ,47,6831622310816 ,4,63185139147507
1.6418364 ,Left ,62,6684182116812 ,47,633959570872 ,4,60520520521171
1.66154 ,Left ,62,6389573595041 ,47,5617699939551 ,4,58254824521009
1.6842543 ,Left ,62,6433680265469 ,47,4836524473809 ,4,55493395126581
1.7021472 ,Left ,62,6659642548391 ,47,4109856561654 ,4,52678635277997
1.7217546 ,Left ,62,6709448450462 ,47,3733781137427 ,4,51313526007906
1.7440757 ,Left ,62,6802612472807 ,47,3601315178015 ,4,52013804868933
1.761983 ,Left ,62,7130342244463 ,47,3716148122711 ,4,53948182417241
1.7818971 ,Left ,62,7643608312103 ,47,4112115681825 ,4,55471170209436
1.8046023 ,Left ,62,8160843754706 ,47,4706768816546 ,4,56315744232726
1.8268082 ,Left ,62,8531085604121 ,47,5337859354531 ,4,5695181455557
1.841807 ,Left ,62,8720375919671 ,47,5873040743814 ,4,58065742538588
1.8641396 ,Left ,62,874885232719 ,47,6388622582659 ,4,59872934591681
1.8863595 ,Left ,62,8722569020362 ,47,6918581209425 ,4,61019587655456
1.9013706 ,Left ,62,8479783644331 ,47,7242246118625 ,4,62390848940446
1.9241279 ,Left ,62,8263142517547 ,47,7758817103895 ,4,64088455852994
1.9468272 ,Left ,62,7939088168835 ,47,868068083071 ,4,66268080463326
1.9619414 ,Left ,62,7609326247903 ,47,969968774664 ,4,68176972068
1.984617 ,Left ,62,7390293678694 ,48,053496331726 ,4,69927048234325
2.0063255 ,Left ,62,6975761026208 ,48,1141217741717 ,4,72824827018027
2.0214441 ,Left ,62,6322152794118 ,48,1887109727 ,4,76944928988508
2.0440039 ,Left ,62,5457436184268 ,48,2625464081151 ,4,8011083118318
2.0664126 ,Left ,62,4759130705782 ,48,3316363114394 ,4,82214077483301
2.0819866 ,Left ,62,4046085419074 ,48,3717027928127 ,4,86783607568758
2.1046068 ,Left ,62,3427041899865 ,48,3659140686125 ,4,91787879698067
2.1271933 ,Left ,62,3055766045155 ,48,3569855303942 ,4,9501783387205
2.1420512 ,Left ,62,2609848442658 ,48,3258027859659 ,4,96275017034765
2.1644764 ,Left ,62,2299497298735 ,48,2724224319767 ,4,9673284184271
2.1866909 ,Left ,62,2428965893907 ,48,2112798809996 ,4,9559512919589
2.204609 ,Left ,62,3167339397989 ,48,1715298209825 ,4,91211295860072
2.224297 ,Left ,62,4312390726082 ,48,1179090318407 ,4,86975270647847
2.2468333 ,Left ,62,5372472961636 ,48,0630294950404 ,4,83952014682013
2.2618247 ,Left ,62,6190795582 ,47,9998781253139 ,4,81386950881726
2.2844553 ,Left ,62,6980420474001 ,47,9453148114768 ,4,78918468080921
2.3067047 ,Left ,62,7930430283214 ,47,9186114477062 ,4,76791285133772
2.3219599 ,Left ,62,8855046353555 ,47,9344616066613 ,4,73763662574699
2.3441908 ,Left ,62,9260007159963 ,47,9655258269062 ,4,69891827996891
2.3667125 ,Left ,62,9249905432541 ,48,0279584370185 ,4,67364449522565
2.3830527 ,Left ,62,8961736827652 ,48,1107651579758 ,4,64206668611108
2.4044416 ,Left ,62,8344575741435 ,48,1872343449541 ,4,6031330067871
2.4266789 ,Left ,62,74789416834 ,48,2545630774149 ,4,53007112054206
2.4430112 ,Left ,62,6544486761251 ,48,3149701486536 ,4,44926624471789
2.4644749 ,Left ,62,547714077499 ,48,3770824493348 ,4,37866923849537
2.4869089 ,Left ,62,4402269190567 ,48,4090261516359 ,4,32285207025369
2.503271 ,Left ,62,3338448430283 ,48,3730916205324 ,4,28635106404094
2.5240945 ,Left ,62,2580553933828 ,48,341195729318 ,4,27948370634329
2.5468837 ,Left ,62,1652085986756 ,48,3278353165635 ,4,24421734600992
2.5626503 ,Left ,62,1020498668791 ,48,3337250413328 ,4,19155144462028
2.5840013 ,Left ,62,112557411159 ,48,3135793599996 ,4,16449311332455
2.606367 ,Left ,62,1505850966903 ,48,2517441962821 ,4,16718814930864
2.6230244 ,Left ,62,2067476940848 ,48,1662972887677 ,4,16954896293249
2.651974 ,Left ,62,292639637641 ,48,0731967400868 ,4,15289827186222
2.6669179 ,Left ,62,3771486985395 ,47,9462002592771 ,4,12690327485244
2.6846714 ,Left ,62,4445109805869 ,47,8113639258929 ,4,12030328134237
2.7042909 ,Left ,62,5173704658057 ,47,7131839134319 ,4,12022368730229
2.7265459 ,Left ,62,569606038471 ,47,6336827163625 ,4,10798226314898
2.744743 ,Left ,62,5979853479258 ,47,5503065953821 ,4,09884713814453
2.7643516 ,Left ,62,6366808726085 ,47,5114969237263 ,4,10570629082199
2.7865592 ,Left ,62,6462365653703 ,47,5249426472259 ,4,11538503370389
2.8046475 ,Left ,62,6709973156424 ,47,5394972977278 ,4,13133472841664
2.8241149 ,Left ,62,7223064809613 ,47,5475896777644 ,4,17209468276392
2.8466792 ,Left ,62,7646400128387 ,47,5714698396679 ,4,20901030662555
2.8642023 ,Left ,62,7716505253428 ,47,604907960038 ,4,24212939250615
2.8843938 ,Left ,62,7886365974402 ,47,6272186957485 ,4,27230873106778
2.9071181 ,Left ,62,7883037258232 ,47,6294046289269 ,4,29698899781014
2.9248636 ,Left ,62,7981225641607 ,47,6484502029819 ,4,3328811570086
2.9442906 ,Left ,62,7850891287944 ,47,6694057675672 ,4,3630122796217
2.9669245 ,Left ,62,7927422959091 ,47,6841422177808 ,4,39469551766873
2.984175 ,Left ,62,8209141655491 ,47,6915947173863 ,4,42549991923187
3.0038531 ,Left ,62,8410621626387 ,47,7004889692052 ,4,4460154179837
3.0263646 ,Left ,62,8498580543087 ,47,7233409461776 ,4,46826062304966
3.0446616 ,Left ,62,8577026507749 ,47,7574608389872 ,4,48473436905621
3.0642604 ,Left ,62,8684713845138 ,47,7793315696408 ,4,49405667070783
3.0866086 ,Left ,62,8870250540664 ,47,7909035785756 ,4,49437883638008
3.1044744 ,Left ,62,8966591010081 ,47,7967865382364 ,4,49627420075044
3.1242423 ,Left ,62,9036228195564 ,47,8041179036164 ,4,48690359198363
3.1465751 ,Left ,62,9149478521474 ,47,8096444017095 ,4,47002422705294
3.1646837 ,Left ,62,9165925383959 ,47,8053785202597 ,4,45975470276219
3.1839184 ,Left ,62,9171206111013 ,47,80458120878 ,4,46076981192682
3.2079249 ,Left ,62,9118813777207 ,47,8185286926047 ,4,47984614617726
3.2247045 ,Left ,62,894559579816 ,47,8385985208228 ,4,49931069577749
3.2443925 ,Left ,62,8816117616719 ,47,8776625515286 ,4,52237485272147
3.2668073 ,Left ,62,8703307731 ,47,9279233407526 ,4,54330817276714
3.2847844 ,Left ,62,8614078870637 ,47,9791000916554 ,4,57102123662126
3.3055687 ,Left ,62,8571236843355 ,48,0383056384389 ,4,59878720499279
3.3266593 ,Left ,62,8375701441615 ,48,0862616091498 ,4,61833360688498
3.3445938 ,Left ,62,8156399230887 ,48,1167435494881 ,4,63523598046818
3.3657203 ,Left ,62,82002254406 ,48,1389010303307 ,4,65170023944767
3.3867426 ,Left ,62,8114983149127 ,48,1513058481639 ,4,66027332862478
3.4046825 ,Left ,62,8019362724092 ,48,147673417456 ,4,66806940906009
3.4255282 ,Left ,62,8208933983758 ,48,1402461282867 ,4,67721344565084
3.4468143 ,Left ,62,8254839498969 ,48,1439371394125 ,4,67685005990761
3.4645665 ,Left ,62,8363393813796 ,48,1449280779277 ,4,67515959739975
3.4856629 ,Left ,62,8610113486098 ,48,139422785694 ,4,6735212483778
3.5067851 ,Left ,62,9028855407877 ,48,1470358875793 ,4,6638095922124
3.5246495 ,Left ,62,9248528097404 ,48,1515757754719 ,4,65947210386589
3.545663 ,Left ,62,9383085527216 ,48,1532569294647 ,4,65977576540258
3.5667631 ,Left ,62,950074059006 ,48,1628841882268 ,4,65768201152487
3.5847472 ,Left ,62,9609324474067 ,48,1798965661479 ,4,65829323952454
3.605618 ,Left ,62,9587959279084 ,48,1979814315501 ,4,6617783494613
3.6265947 ,Left ,62,9430163203144 ,48,2095042017212 ,4,67095481750149
3.6448971 ,Left ,62,9249289365813 ,48,2197846932452 ,4,68393703853053
3.6673616 ,Left ,62,9066615960577 ,48,2259807655649 ,4,70123443220755
3.6868941 ,Left ,62,8931991914517 ,48,2212720759732 ,4,72733763322746
3.7046021 ,Left ,62,8858082586635 ,48,2090016851964 ,4,75813621420977
3.7270904 ,Left ,62,868566205653 ,48,1745622949505 ,4,79543415680826
3.7466285 ,Left ,62,8686741060995 ,48,1385822451726 ,4,83383892299057
3.7645378 ,Left ,62,8560983392262 ,48,1234449346521 ,4,86405900874732
3.7870004 ,Left ,62,8288280188863 ,48,1285168441573 ,4,88336522356125
3.8068503 ,Left ,62,8318843922825 ,48,1323869184179 ,4,89747420413172
3.8245545 ,Left ,62,8533531666852 ,48,1340022821895 ,4,88997514373965
3.8470348 ,Left ,62,8630207463651 ,48,1279871659646 ,4,87054479150035
3.8667264 ,Left ,62,8993234931575 ,48,1277271022844 ,4,85145762494286
3.884561 ,Left ,62,9329562125168 ,48,135632073801 ,4,84370976076079
3.9071454 ,Left ,62,9596227508959 ,48,1417590789037 ,4,83340346092477
3.9266523 ,Left ,62,9788029404816 ,48,1257842506948 ,4,81842701399034
3.9445299 ,Left ,62,9931750726069 ,48,1036058539209 ,4,80470967397666
3.9671291 ,Left ,63,0084929717258 ,48,0732668595651 ,4,78994420551632
3.9867361 ,Left ,63,0225044394965 ,48,0475761156671 ,4,77465967708839
4.0046784 ,Left ,63,0328835048174 ,48,0100448762289 ,4,75866567612188
4.0270479 ,Left ,62,9956386834589 ,47,9714300360795 ,4,75960175121403
4.0467033 ,Left ,62,9865518997916 ,47,9670104536498 ,4,76839581059846
4.0644124 ,Left ,62,9520144745864 ,48,0361782893372 ,4,78056891364446
4.0873341 ,Left ,62,9362661017084 ,48,1145546602244 ,4,78325733425172
4.1066207 ,Left ,62,9381923017306 ,48,1634329496555 ,4,77803733426586
4.1246398 ,Left ,62,9261742389154 ,48,1540101112556 ,4,76533711126092
4.1470838 ,Left ,62,9527919022587 ,48,1121505426298 ,4,74816505155937
4.1666761 ,Left ,62,9763025615443 ,48,0596474448317 ,4,73679399958078
4.1845996 ,Left ,63,0050205362412 ,48,0276410557705 ,4,7248621954562
4.2070666 ,Left ,62,9929084668061 ,47,96918511638 ,4,72238437052301
4.2267766 ,Left ,62,9918820249772 ,47,906011426616 ,4,74478016705381
4.2445432 ,Left ,62,9844019351961 ,47,9169076003455 ,4,76689913664665
4.2667632 ,Left ,62,975170243719 ,47,9979021679219 ,4,79035951647026
4.2877671 ,Left ,62,9943467570431 ,48,0792311781453 ,4,79651494163144
4.3043176 ,Left ,62,9833984490392 ,48,1153939177987 ,4,80172917936322
4.3268651 ,Left ,62,9864074730538 ,48,1207660925192 ,4,81250177896473
4.3481554 ,Left ,62,9354841292005 ,48,1229972705832 ,4,82768331981227
4.3646876 ,Left ,62,9016970902584 ,48,1442531660105 ,4,87122427319254
4.3871828 ,Left ,62,8385445310974 ,48,1667181905816 ,4,93385098408364
4.4082392 ,Left ,62,7816444114771 ,48,1872948569228 ,5,00883558385506
4.4246451 ,Left ,62,7319301654411 ,48,223229812999 ,5,06966857422995
4.4468031 ,Left ,62,69161665828 ,48,2864838758153 ,5,10857219382557
4.4677983 ,Left ,62,6532367718442 ,48,3319763669292 ,5,13335988989041
4.484504 ,Left ,62,6301130206639 ,48,3486245616493 ,5,15941395179254
4.5070865 ,Left ,62,5900770693798 ,48,3365331798952 ,5,17518654464455
4.5278627 ,Left ,62,5324145580042 ,48,3081489237122 ,5,1821689059356
4.544591 ,Left ,62,4837157514067 ,48,2639073788825 ,5,18204566052275
4.5671823 ,Left ,62,4534761645139 ,48,2185425108681 ,5,17203224741392
4.5885817 ,Left ,62,4366639421399 ,48,1603857859071 ,5,16108953712894
4.6044521 ,Left ,62,437455959621 ,48,0892877597079 ,5,15799945621167
4.6270004 ,Left ,62,4553303609725 ,48,0169534742434 ,5,15015059418705
4.6494693 ,Left ,62,4746593069714 ,47,9437331861004 ,5,13432235959489
4.6698581 ,Left ,62,5183390845289 ,47,8836097989576 ,5,11584123101489
4.6871006 ,Left ,62,5692052525836 ,47,8479376215524 ,5,09723228305985
4.7096061 ,Left ,62,6506430711091 ,47,8162185340523 ,5,075988824159
4.7300019 ,Left ,62,7006419719338 ,47,7867658331581 ,5,06789239384635
4.7462047 ,Left ,62,7458983789706 ,47,7860067073254 ,5,06938517050826
4.7687276 ,Left ,62,7762287220001 ,47,8049695695987 ,5,06667213096914
4.7900078 ,Left ,62,783886823813 ,47,8143573497906 ,5,06631771469748
4.8062838 ,Left ,62,7823135897977 ,47,8164634496814 ,5,06675214539565
4.828745 ,Left ,62,7465513419728 ,47,8423247483758 ,5,06737805907948
4.8499717 ,Left ,62,7157454911669 ,47,8831568567254 ,5,09456531882686
4.8662576 ,Left ,62,717035271412 ,47,9403647952594 ,5,10961285150933
4.8887665 ,Left ,62,7024410210073 ,47,9613945303216 ,5,09702993868474
4.9096859 ,Left ,62,6810426459453 ,47,9922497448117 ,5,11377186675118
4.9261656 ,Left ,62,6403790542379 ,48,1020583168978 ,5,14384323630665
4.9487779 ,Left ,62,6036827818724 ,48,1890646115013 ,5,18553791682445
4.9700598 ,Left ,62,5976062781023 ,48,2197893469339 ,5,22631073354417
4.9864064 ,Left ,62,6114495887228 ,48,2359163268814 ,5,2671094885738
5.0087765 ,Left ,62,5703972153846 ,48,2733768016943 ,5,3074300091536
5.0301633 ,Left ,62,5142202161563 ,48,3078373157612 ,5,35682182579747
5.0462531 ,Left ,62,4820577133121 ,48,3465911172017 ,5,39568112829447
5.068711 ,Left ,62,4300023975681 ,48,3832866259953 ,5,41839525812189
5.0901427 ,Left ,62,3732268518975 ,48,4173930620744 ,5,41346641284887
5.1062769 ,Left ,62,30175000349 ,48,4404333216305 ,5,4061833580116
5.1284849 ,Left ,62,2160983516683 ,48,466603985128 ,5,42379614024982
5.1495793 ,Left ,62,1661025306721 ,48,4872173312665 ,5,43299030170599
5.166103 ,Left ,62,1647263967684 ,48,520538064166 ,5,42464306732563
5.1887436 ,Left ,62,1602186639417 ,48,5474041306223 ,5,41801492442521
5.2099859 ,Left ,62,1650856191734 ,48,5667043335315 ,5,41538769347911
5.2261528 ,Left ,62,1907356316754 ,48,5573317492815 ,5,3954993531321
5.2487267 ,Left ,62,2385502676547 ,48,5131250254577 ,5,34674006351036
5.2701317 ,Left ,62,2894188116283 ,48,460677052936 ,5,28597963728645
5.2862633 ,Left ,62,2983071120775 ,48,4275594673738 ,5,2391916394275
5.3087267 ,Left ,62,3055329160522 ,48,4086198848488 ,5,19969267904592
5.3299774 ,Left ,62,2989812554863 ,48,4091626065129 ,5,16506359784063
5.3462245 ,Left ,62,2815843912523 ,48,4111765238488 ,5,14246643126021
5.3688106 ,Left ,62,2520724757761 ,48,4474354519919 ,5,11389646526669
5.3896927 ,Left ,62,214606300513 ,48,4882362580421 ,5,05646057458146
5.406124 ,Left ,62,175701761929 ,48,4934958893255 ,4,99876564258673
5.428837 ,Left ,62,1250306962985 ,48,467957797531 ,4,95322275387053
5.4503221 ,Left ,62,0382368479031 ,48,4489869654166 ,4,88127426282983
5.4659328 ,Left ,61,9516174878089 ,48,4113961595405 ,4,80198441537824
5.4888977 ,Left ,61,9209605056584 ,48,3422985719622 ,4,7665433955674
5.510354 ,Left ,61,9698667109826 ,48,2432185020282 ,4,77694125711901
5.53262 ,Left ,62,0639690820385 ,48,1169931259684 ,4,79836473276968
5.5489452 ,Left ,62,1677800765244 ,47,9492360830396 ,4,81804763060819
5.5711149 ,Left ,62,2625416755109 ,47,769829533688 ,4,84230604604455
5.5854472 ,Left ,62,3492949990513 ,47,6072702965914 ,4,83867664520162
5.6086624 ,Left ,62,4416207587435 ,47,4699374661236 ,4,82770435881739
5.6315437 ,Left ,62,5507583601561 ,47,3746836186843 ,4,81909845022987
5.6458741 ,Left ,62,6630039966465 ,47,3383549246354 ,4,79558093920196
5.6690984 ,Left ,62,7542039214418 ,47,3192350565555 ,4,75141839769645
5.6913092 ,Left ,62,8100031594232 ,47,3357421755257 ,4,74850277865741
5.7056397 ,Left ,62,8374149089343 ,47,4122240801525 ,4,78650486205366
5.7288068 ,Left ,62,8229021060808 ,47,5262556265001 ,4,81431423605865
5.7513403 ,Left ,62,7736521016655 ,47,6055804344066 ,4,8589193259883
5.7657476 ,Left ,62,7321360079664 ,47,6384390222121 ,4,9285182648131
5.7888113 ,Left ,62,6932813843841 ,47,6593132317409 ,5,01057406239359
5.8112849 ,Left ,62,6742143615362 ,47,6819204864203 ,5,08031580087268
5.8257028 ,Left ,62,6412776947915 ,47,7118710997863 ,5,12947284982926
5.8489203 ,Left ,62,6227302252937 ,47,7332115799167 ,5,15733335079604
5.8712834 ,Left ,62,6352770854389 ,47,7654297064585 ,5,20108373647934
5.8855203 ,Left ,62,6429539187541 ,47,8184737492185 ,5,25233678599564
5.9087332 ,Left ,62,644167116204 ,47,8755286002992 ,5,31302422254673
5.9310018 ,Left ,62,6715545411576 ,47,9301210590935 ,5,35706325247019
5.9453383 ,Left ,62,685879523048 ,47,9824125584843 ,5,36750341350227
5.9686905 ,Left ,62,6771484777872 ,48,011148570581 ,5,36410228934062
5.9912061 ,Left ,62,67481709947 ,48,0114974244352 ,5,36459386667047
6.0056464 ,Left ,62,6727152637395 ,47,9985767602976 ,5,36610199754586
6.0285992 ,Left ,62,6740044816263 ,47,9896234150349 ,5,36605420460595
6.0509735 ,Left ,62,6690529655784 ,47,9699931630346 ,5,36432263618182
6.0721787 ,Left ,62,6664702680324 ,47,9532269370311 ,5,37501403056503
6.088703 ,Left ,62,6775741083675 ,47,9419306798438 ,5,38157173081015
6.1111931 ,Left ,62,6915434168654 ,47,9310570834672 ,5,3851109943039
6.1320594 ,Left ,62,7080984217323 ,47,9258847621148 ,5,38948850610587
6.1486282 ,Left ,62,7233797521578 ,47,9281268857974 ,5,39726205233517
6.1714111 ,Left ,62,7324813144237 ,47,931658613155 ,5,40975180636459
6.192155 ,Left ,62,7367142721972 ,47,944106622284 ,5,42329306699932
6.2086675 ,Left ,62,737617397933 ,47,9641120793861 ,5,43583339283921
6.2311946 ,Left ,62,7230046987753 ,47,9813479405174 ,5,44714015008789
6.2522772 ,Left ,62,7218136665811 ,47,9892045741783 ,5,45949325412799
6.2687796 ,Left ,62,711281143027 ,47,9871717895585 ,5,46860350029946
6.2913163 ,Left ,62,7032395490436 ,47,9781016722724 ,5,47386656669369
6.3123392 ,Left ,62,7086442706859 ,47,9719316645208 ,5,4759517735845
6.3289255 ,Left ,62,713789454171 ,47,963226282118 ,5,47897301472635
6.3512253 ,Left ,62,7255231200112 ,47,9653963486294 ,5,48771283462538
6.3724532 ,Left ,62,732419979398 ,47,9850617514588 ,5,49877288017684
6.3888329 ,Left ,62,7526667782361 ,48,0185681112248 ,5,51065656746561
6.4112345 ,Left ,62,771910457354 ,48,0580723900635 ,5,51376701806052
6.4325305 ,Left ,62,7859318570561 ,48,0962941261158 ,5,51313372251607
6.4487514 ,Left ,62,8080693170745 ,48,142809967912 ,5,50895497886747
6.4713282 ,Left ,62,8179002325739 ,48,1813453421132 ,5,49954485826154
6.4937802 ,Left ,62,8041955552155 ,48,2042142631249 ,5,50231887399744
6.5087196 ,Left ,62,778031863861 ,48,2169844574881 ,5,50967091441111
6.5313121 ,Left ,62,7639957132672 ,48,2199956603133 ,5,51859075448669
6.5537529 ,Left ,62,7436992574613 ,48,2135679444374 ,5,53310171586418
6.5688101 ,Left ,62,7074262559134 ,48,1692281758888 ,5,56344149817702
6.5914548 ,Left ,62,6751472636994 ,48,1119031066527 ,5,59802186348779
6.6138167 ,Left ,62,6567262645811 ,48,0699935418817 ,5,62926038954626
6.6280937 ,Left ,62,6407215217135 ,48,0516283722543 ,5,65040956512429
6.6512464 ,Left ,62,6214263102425 ,48,021335090781 ,5,66530242113914
6.6737802 ,Left ,62,6705128105179 ,48,0030784125379 ,5,68443044721642
6.6880796 ,Left ,62,7415922256759 ,47,9906050080425 ,5,66966621862595
6.7112506 ,Left ,62,7811953705042 ,47,9671821326443 ,5,64037824754226
6.7337847 ,Left ,62,8268093605233 ,47,9450097759191 ,5,60624494890559
6.7480775 ,Left ,62,8593861798789 ,47,9349128013938 ,5,57009595028673
6.7712873 ,Left ,62,8687320508495 ,47,9240601059488 ,5,54113706361644
6.793738 ,Left ,62,8735339592095 ,47,9309310369095 ,5,51863724194808
6.8081102 ,Left ,62,8609805453024 ,47,9477655909932 ,5,49041420421938
6.8311498 ,Left ,62,8543495927671 ,47,9503837194227 ,5,46819899325443
6.8538069 ,Left ,62,8534638022769 ,47,9280963899399 ,5,46057238277319
6.8680509 ,Left ,62,8373303853824 ,47,9079589571863 ,5,46542186807386
6.8913667 ,Left ,62,8144642983515 ,47,8828565691918 ,5,46958328465109
6.913836 ,Left ,62,8085069300141 ,47,8728402886999 ,5,48089525720565
6.9280206 ,Left ,62,7634778070025 ,47,8886931378252 ,5,48484154825246
6.9513278 ,Left ,62,7747167560856 ,47,8904771779506 ,5,50502850757964
6.9737634 ,Left ,62,844848476337 ,47,8825641769366 ,5,53500381467721
6.9949909 ,Left ,62,8601011857581 ,47,8368292540471 ,5,55889102817997
7.011275 ,Left ,62,8880155344332 ,47,7743621104235 ,5,57575916194291
7.0338312 ,Left ,62,9469720982228 ,47,7340401824655 ,5,57653856627336
7.0551348 ,Left ,62,986223587788 ,47,6949743356411 ,5,55007158364428
7.0712983 ,Left ,62,9526224357779 ,47,6574750720993 ,5,55367132632368
7.0939419 ,Left ,62,9305145705269 ,47,653560336859 ,5,53875344366045
7.1151542 ,Left ,62,9518550898842 ,47,7402295294551 ,5,53611414195083
7.1314351 ,Left ,62,9779528036577 ,47,874187144147 ,5,54095251882335
7.1537756 ,Left ,62,9431234449635 ,47,9752145551037 ,5,54663926511805
7.1750895 ,Left ,62,9226205686738 ,48,0117162493671 ,5,55106619528726
7.1917486 ,Left ,62,9172578552168 ,48,0303963671547 ,5,56929870609627
7.2136395 ,Left ,62,8732105479971 ,48,0811311121917 ,5,58139570037679
7.2348126 ,Left ,62,7886984056749 ,48,1184744543082 ,5,60857512607625
7.2512178 ,Left ,62,7329977563525 ,48,1141806467572 ,5,67944094858045
7.273904 ,Left ,62,7003313723773 ,48,1075717085479 ,5,73033094634403
7.2948489 ,Left ,62,6646835363224 ,48,1380560689277 ,5,73064108661678
7.3108905 ,Left ,62,5745128067796 ,48,1822596220053 ,5,71028465087635
7.3336654 ,Left ,62,5491831911099 ,48,2163935454158 ,5,68745802469875
7.3548319 ,Left ,62,547312666365 ,48,2784429322617 ,5,65289120353965
7.3711188 ,Left ,62,5059804106027 ,48,3368256515949 ,5,60504853951314
7.3937758 ,Left ,62,4710013915724 ,48,3669527195543 ,5,56534370314178
7.4151821 ,Left ,62,4572990413459 ,48,3783635933201 ,5,52390449605172
7.4314395 ,Left ,62,4520390019826 ,48,3915379779403 ,5,47967712899889
7.4538185 ,Left ,62,4279458682331 ,48,4081672578513 ,5,44107074058879
7.4762208 ,Left ,62,4248080163429 ,48,421920560984 ,5,3995596177422
7.4914019 ,Left ,62,3899644747628 ,48,4232064650319 ,5,37186974823002
7.5139224 ,Left ,62,3489894168916 ,48,4092637856429 ,5,35258065132751
7.5363325 ,Left ,62,3076981582582 ,48,4059887191008 ,5,33305218473441
7.5513269 ,Left ,62,2633651357684 ,48,4251779023602 ,5,31175618650566
7.5737973 ,Left ,62,2055816661393 ,48,4728049361876 ,5,28967126997183
7.5962721 ,Left ,62,1620498541439 ,48,5271594348242 ,5,26985309691746
7.6106204 ,Left ,62,1198047807777 ,48,5454809351495 ,5,24371024140438
7.6336821 ,Left ,62,0862958376871 ,48,5258986324071 ,5,21875799615545
7.6563967 ,Left ,62,0549706585456 ,48,4873946969191 ,5,19183004624339
7.6706422 ,Left ,62,0249205550275 ,48,4300319153652 ,5,1908119483205
7.6937992 ,Left ,62,0037433087511 ,48,3546973130997 ,5,21425896777399
7.7163272 ,Left ,62,0452237252145 ,48,2399868307446 ,5,24855579841903
7.7370401 ,Left ,62,1323293820493 ,48,0739205098613 ,5,30424056230053
7.7535826 ,Left ,62,2338749521283 ,47,8850094106658 ,5,34959566030212
7.7760067 ,Left ,62,3287384076023 ,47,6963078431771 ,5,3760239514077
7.7971786 ,Left ,62,4098680263055 ,47,5077000982236 ,5,39635194477592
7.8137869 ,Left ,62,5419570910219 ,47,3783447076437 ,5,42744239003218
7.8363081 ,Left ,62,6453800925209 ,47,3472315498253 ,5,4501153267976
7.8574186 ,Left ,62,7518261873282 ,47,3696969986244 ,5,44160423326535
7.8736489 ,Left ,62,8532606216229 ,47,4114618732763 ,5,44423774107726
7.8962911 ,Left ,62,9185928885369 ,47,4785336575638 ,5,4655726899722
7.917366 ,Left ,62,9192466055854 ,47,5730706358414 ,5,47860323186578
7.933787 ,Left ,62,8829951500039 ,47,6397509286084 ,5,50483367601816
7.9563589 ,Left ,62,8451913655618 ,47,6608935156215 ,5,55225427310452
7.977446 ,Left ,62,8069741678221 ,47,6670683035683 ,5,60062836704902
7.99366 ,Left ,62,7899940896912 ,47,6967999953749 ,5,65823491953447
8.0162013 ,Left ,62,7677957777931 ,47,7351229747124 ,5,7087708872363
8.0372516 ,Left ,62,7887597841057 ,47,7720715353284 ,5,7415500629773
8.0536525 ,Left ,62,8316579254522 ,47,7810886703479 ,5,77351500910084
8.0760881 ,Left ,62,8731501510054 ,47,7964435255706 ,5,80654480517967
8.0973118 ,Left ,62,9055022746084 ,47,8332359427694 ,5,82371375911883
8.1137553 ,Left ,62,9369146397926 ,47,8811327126587 ,5,83125673774064
8.1362498 ,Left ,62,9521553809633 ,47,9221551724673 ,5,83787708281459
8.1573678 ,Left ,62,9624879331259 ,47,9613783898385 ,5,84649168640989
8.1738048 ,Left ,62,9686821897416 ,47,9971070909046 ,5,85453604751581
8.19632 ,Left ,62,9496178341061 ,48,017020278149 ,5,84821662668204
8.2176233 ,Left ,62,9241010484225 ,48,0314790934059 ,5,84673451200364
8.2338516 ,Left ,62,8980320798663 ,48,0591803303088 ,5,84518040385221
8.2562747 ,Left ,62,8792581054589 ,48,0896088123391 ,5,85327272824491
8.2773945 ,Left ,62,8754953391089 ,48,129420850528 ,5,87161880837984
8.2936683 ,Left ,62,8550873738693 ,48,1740985653001 ,5,89205878661635
8.3163267 ,Left ,62,8324411691848 ,48,2058963295594 ,5,91392840565872
8.337405 ,Left ,62,8208513929196 ,48,2248411342928 ,5,93016592419735
8.3537932 ,Left ,62,8041517836925 ,48,226051164433 ,5,9453582920976
8.3762386 ,Left ,62,7858456759933 ,48,2184897685895 ,5,95696664676882
8.3987822 ,Left ,62,7732782573139 ,48,2041255945732 ,5,97634628676083
8.4138318 ,Left ,62,7634726601078 ,48,1946252041069 ,5,99828634851736
8.4362684 ,Left ,62,7667279033591 ,48,1847032023959 ,6,02458859145765
8.4588648 ,Left ,62,7863599778551 ,48,182880278551 ,6,04376374449647
8.4738041 ,Left ,62,7903959722147 ,48,1926146752243 ,6,05900007085749
8.4961593 ,Left ,62,8041183131118 ,48,2083411673978 ,6,07031678260046
8.518624 ,Left ,62,8247793566 ,48,2244478513978 ,6,07678917453388
8.5330585 ,Left ,62,8408531047363 ,48,2561213180393 ,6,08006185751706
8.556286 ,Left ,62,8413531875332 ,48,2859531222134 ,6,07548570559192
8.5789501 ,Left ,62,8435871054902 ,48,3103528188524 ,6,0722019795039
8.5929354 ,Left ,62,8416085672632 ,48,3491523514663 ,6,07782942460486
8.616127 ,Left ,62,8215061951836 ,48,3824304523807 ,6,08021215103634
8.6385129 ,Left ,62,8002264472305 ,48,3958135445578 ,6,08963738525623
8.6530138 ,Left ,62,785027264306 ,48,4048925261827 ,6,10590972574724
8.6760359 ,Left ,62,7562226012347 ,48,4078922011091 ,6,12281478320433
8.6984188 ,Left ,62,6960191906601 ,48,3709217729091 ,6,14987538728556
8.7130363 ,Left ,62,6798954526986 ,48,2940281229723 ,6,19719908629423
8.735966 ,Left ,62,6617033979387 ,48,2406384919584 ,6,26084812776798
8.7587471 ,Left ,62,6421721798354 ,48,2084744645545 ,6,3008161693088
8.7729423 ,Left ,62,6665646198265 ,48,2114990946928 ,6,3164247541453
8.7962786 ,Left ,62,7356350285438 ,48,2253882204904 ,6,29809853864654
8.8189288 ,Left ,62,8029933912228 ,48,2342551386008 ,6,26319913792924
8.833369 ,Left ,62,8487495505174 ,48,217457352427 ,6,20903787359375
8.8563699 ,Left ,62,8817070017198 ,48,1942690731176 ,6,13748872888807
8.8788602 ,Left ,62,8889048362603 ,48,1465884210056 ,6,06145600244884
8.9002059 ,Left ,62,9021856333444 ,48,1163525852052 ,6,02125502732618
8.9162364 ,Left ,62,8899073408862 ,48,0854299311114 ,5,99510050911026
8.938746 ,Left ,62,8914330858494 ,48,03021999459 ,5,97822712912311
8.9599092 ,Left ,62,9102597609964 ,47,9886053567857 ,5,96120300568813
8.9761866 ,Left ,62,896494956318 ,47,9687641744709 ,5,95405729684757
8.9986764 ,Left ,62,8879405856931 ,47,9800883420473 ,5,9714297160503
9.0197364 ,Left ,62,9298597587072 ,48,0077346759607 ,6,01017728227876
9.0360235 ,Left ,62,9587121035727 ,48,0611805482918 ,6,0355365667846
9.0585674 ,Left ,62,9381364254585 ,48,0782260151922 ,6,05075841741014
9.0803095 ,Left ,62,9628876014036 ,48,0860228441554 ,6,05553023736524
9.0964786 ,Left ,62,9442770505795 ,48,0946369823522 ,6,03045804725181
9.1191312 ,Left ,62,9346936664452 ,48,0924619421957 ,6,0009354698032
9.1403397 ,Left ,62,889057566864 ,48,0942971906708 ,5,96994899762283
9.1561513 ,Left ,62,8491488374208 ,48,1055682549619 ,5,93912205581375
9.1783645 ,Left ,62,861708303212 ,48,1443914199541 ,5,92759605342926
9.1996819 ,Left ,62,9016073828772 ,48,2028450855576 ,5,93161294778846
9.2161984 ,Left ,62,8731872608425 ,48,2520486462075 ,5,94075132528058
9.2386904 ,Left ,62,8613621425071 ,48,268452444631 ,5,95789672787075
9.259588 ,Left ,62,8745994573269 ,48,2677874295704 ,5,97773791109519
9.2762635 ,Left ,62,8783252855182 ,48,2728016279903 ,6,00373344454856
9.2990203 ,Left ,62,8539174034274 ,48,2898112398873 ,6,0408210001255
9.3215205 ,Left ,62,8331497924763 ,48,2868075749381 ,6,07731569890654
9.3365895 ,Left ,62,8207696926499 ,48,2617179382028 ,6,09674603243654
9.3588358 ,Left ,62,8168375672518 ,48,2488769431633 ,6,10839673092771
9.3815279 ,Left ,62,749555686229 ,48,2869807548693 ,6,0985761272853
9.3961101 ,Left ,62,7267910718831 ,48,3500104978148 ,6,068407614927
9.4184898 ,Left ,62,7078699318733 ,48,4228962808011 ,6,01747120327205
9.4410892 ,Left ,62,680115950542 ,48,461321579945 ,5,9616542370688
9.4626889 ,Left ,62,6487393037004 ,48,4745949392044 ,5,92091294182258
9.4854016 ,Left ,62,638183791305 ,48,4708471801005 ,5,88492667428873
9.5016748 ,Left ,62,614554088404 ,48,4758713736961 ,5,84914997105209
9.5158905 ,Left ,62,5790088734362 ,48,4886031368648 ,5,82147848053589
9.5391563 ,Left ,62,5639880216131 ,48,4929683375149 ,5,78788042445712
9.5609983 ,Left ,62,536067123219 ,48,4850089999441 ,5,76472764625896
9.5753976 ,Left ,62,5124978406306 ,48,4774701491215 ,5,74878357286351
9.5984695 ,Left ,62,4834998126666 ,48,4881139252165 ,5,72210612898629
9.621187 ,Left ,62,4512338404359 ,48,5167628664915 ,5,68907078301941
9.635449 ,Left ,62,4323306020361 ,48,5511194778256 ,5,66187726797215
9.6591815 ,Left ,62,4074328540491 ,48,5728359278674 ,5,64202263181643
9.6815395 ,Left ,62,3666001363465 ,48,5483319627226 ,5,63351504750451
9.6958733 ,Left ,62,3281850484426 ,48,5192573241158 ,5,63945288159368
9.7189388 ,Left ,62,2635248535712 ,48,4958864679488 ,5,61403393307175
9.7413796 ,Left ,62,2176605103072 ,48,4801121867455 ,5,59172772670372
9.7554444 ,Left ,62,2048133889344 ,48,453053928814 ,5,59138190405884
9.778694 ,Left ,62,2071591040606 ,48,3964517766964 ,5,62480722741749
9.8009179 ,Left ,62,2627114300984 ,48,307226858037 ,5,68027517911647
9.8220897 ,Left ,62,346760415242 ,48,184613089195 ,5,71434841038245
9.8388096 ,Left ,62,4381937787186 ,48,0538883190319 ,5,72733559699945
9.8612793 ,Left ,62,4991791503795 ,47,9227233786987 ,5,73589960183997
9.8822898 ,Left ,62,5933949083992 ,47,8073214948464 ,5,75028667440309
9.8988664 ,Left ,62,6810469425211 ,47,7141774095193 ,5,75943028123191
9.9212525 ,Left ,62,7482948138684 ,47,6589461777253 ,5,76508925048674
9.9425275 ,Left ,62,8001854066907 ,47,6606934491068 ,5,75564323556799
9.9587955 ,Left ,62,8539739690409 ,47,6865280894881 ,5,7732026817332
9.9813319 ,Left ,62,9032805892012 ,47,7370767417442 ,5,80963099328814
10.0025371 ,Left ,62,8989230284283 ,47,819716612492 ,5,83354740132882
10.0187644 ,Left ,62,8689802636723 ,47,8886382272955 ,5,8620058235989
10.0412944 ,Left ,62,837551658123 ,47,9034863599857 ,5,90190021952784
10.0621917 ,Left ,62,8187644179211 ,47,8929482083348 ,5,94555871544956
10.0786637 ,Left ,62,8083374120278 ,47,8795031074724 ,5,97669456602855
10.1011654 ,Left ,62,8253789971491 ,47,8868814358923 ,6,01001238209889
10.1220658 ,Left ,62,827357322829 ,47,8985865505491 ,6,02161772370782
10.1386083 ,Left ,62,8534974982328 ,47,9099663806389 ,6,04622682748113
10.1612207 ,Left ,62,8791857862044 ,47,9277209912869 ,6,09041447950531
10.1822379 ,Left ,62,8994646830491 ,47,9823300766173 ,6,12742591312296
10.198895 ,Left ,62,9109154581026 ,48,0434259961218 ,6,1681012578838
10.2212008 ,Left ,62,9416497436613 ,48,1042176742457 ,6,21005531165448
10.2422779 ,Left ,62,9434834299245 ,48,1493559328129 ,6,23365586785991
10.2580816 ,Left ,62,9347468982155 ,48,1704832110714 ,6,24848037418213
10.2812146 ,Left ,62,9381406304008 ,48,1887619358901 ,6,25404301380595
10.3036753 ,Left ,62,9258067811749 ,48,1926772137786 ,6,24623684008538
10.3188354 ,Left ,62,9043821894926 ,48,1956785540593 ,6,24053593671309
10.3411926 ,Left ,62,8987346375449 ,48,2002562258101 ,6,23770095838537
10.3637902 ,Left ,62,8823207557963 ,48,2085935607435 ,6,23732633860112
10.3789597 ,Left ,62,8799521675699 ,48,2174118887128 ,6,24263202379963
10.4011856 ,Left ,62,8699578246473 ,48,2307878543809 ,6,2561265225509
10.4236766 ,Left ,62,8564527545862 ,48,2486693591723 ,6,27606231133609
10.4380176 ,Left ,62,8343337215084 ,48,268037332447 ,6,29222435003218
10.4612981 ,Left ,62,820055679041 ,48,2855230314866 ,6,30421301756994
10.4837539 ,Left ,62,8043291964428 ,48,2902551530965 ,6,31578858600013
10.4981343 ,Left ,62,7951250105231 ,48,2973672432735 ,6,33405759485186
10.5213555 ,Left ,62,7945682220233 ,48,3051482539876 ,6,34629947547046
10.5437261 ,Left ,62,7859787005717 ,48,3037206428559 ,6,35393374836753
10.5581134 ,Left ,62,7890939517836 ,48,3052950570959 ,6,35803182252815
10.5815004 ,Left ,62,7917999796466 ,48,3223771360176 ,6,35722717642019
10.6038321 ,Left ,62,8049342352889 ,48,3488756405651 ,6,35394680764491
10.6176884 ,Left ,62,8054811741339 ,48,3746363504507 ,6,35344180097906
10.6411976 ,Left ,62,8122563435924 ,48,4016077156184 ,6,352405646172
10.6636651 ,Left ,62,8019384032964 ,48,4277062733872 ,6,35186623481647
10.6779261 ,Left ,62,8025294606083 ,48,4534627045562 ,6,35133418884167
10.7011067 ,Left ,62,7952443449733 ,48,4734545382169 ,6,3485727407569
10.723771 ,Left ,62,775243151757 ,48,4830473377686 ,6,35693736343591
10.7381213 ,Left ,62,7511024767911 ,48,476430666905 ,6,37451627213857
10.7611413 ,Left ,62,7348899085343 ,48,453511076086 ,6,40123912839795
10.7837637 ,Left ,62,7012816081213 ,48,4032433362303 ,6,45100748600448
10.8065624 ,Left ,62,6456703156841 ,48,3699606314429 ,6,5126533370065
10.8213239 ,Left ,62,6092950327241 ,48,3534743891877 ,6,54539074099418
10.8439735 ,Left ,62,6054129007598 ,48,3679644229947 ,6,55417989998301
10.8649296 ,Left ,62,6512272822105 ,48,386265854281 ,6,52169381419716
10.8812825 ,Left ,62,7126069855231 ,48,399198946199 ,6,48435375415454
10.9035906 ,Left ,62,7678106863375 ,48,4024605668344 ,6,43792029308933
10.924673 ,Left ,62,8169283299513 ,48,395300096544 ,6,38396003906858
10.9410212 ,Left ,62,8517459137509 ,48,3603709422445 ,6,32296784422749
10.9638324 ,Left ,62,8605005330445 ,48,3224950658105 ,6,27755646366413
10.9847732 ,Left ,62,8750081413955 ,48,2857084978304 ,6,25600392188541
11.0011958 ,Left ,62,8970623016523 ,48,2515657253375 ,6,24405033054486
11.02382 ,Left ,62,918913107093 ,48,2185027751713 ,6,24026755476745
11.0447733 ,Left ,62,9394007316992 ,48,172659382052 ,6,23598392750281
11.0612683 ,Left ,62,9637698657414 ,48,1143981049061 ,6,23412526070054
11.0838758 ,Left ,62,9699884673998 ,48,086609543557 ,6,23532815872913
11.1050341 ,Left ,62,9623917938452 ,48,0821053164253 ,6,22004289665798
11.1211615 ,Left ,62,9684702123758 ,48,0806893972984 ,6,21539260371298
11.1437149 ,Left ,62,9996978569247 ,48,0858652996324 ,6,20727887450089
11.1650316 ,Left ,62,9995698445659 ,48,101805368478 ,6,18605931164818
11.1812157 ,Left ,62,9494456242319 ,48,1549323324722 ,6,16386345071459
11.2039766 ,Left ,62,9004376543508 ,48,1975159898403 ,6,16980963992489
11.2262487 ,Left ,62,8770345920128 ,48,2469232557807 ,6,17619836607395
11.2413138 ,Left ,62,8786700751633 ,48,2714273806932 ,6,17883116467863
11.2637823 ,Left ,62,8914060700689 ,48,2535625354011 ,6,18833894883967
11.286185 ,Left ,62,8993841992451 ,48,1983985376135 ,6,20259505953353
11.3011853 ,Left ,62,9494998423926 ,48,1480808858301 ,6,2086630319721
11.3237885 ,Left ,62,9928527195124 ,48,1115721961425 ,6,196495528636
11.346179 ,Left ,62,988197374652 ,48,0744281855617 ,6,18075801297323
11.3603226 ,Left ,62,9996103364394 ,48,0437570786498 ,6,16204629473131
11.3836348 ,Left ,63,0546043434834 ,48,1112084444151 ,6,15696943699273
11.4059874 ,Left ,63,0526890344102 ,48,2520748918606 ,6,16067207410055
11.4205299 ,Left ,63,021185484402 ,48,3687504644359 ,6,17022230745358
11.4436402 ,Left ,63,0135308239443 ,48,4207585791199 ,6,18780015629016
11.4659944 ,Left ,62,9931683253971 ,48,432357047083 ,6,21499516281282
11.4805473 ,Left ,62,9317938033879 ,48,4104335976146 ,6,25166195437886
11.5034736 ,Left ,62,8706843423416 ,48,3741863670507 ,6,30149716126814
11.5259588 ,Left ,62,8262764629237 ,48,3634799526876 ,6,31883312339405
11.5405095 ,Left ,62,7904045528746 ,48,3528186938546 ,6,28796114310519
11.5636059 ,Left ,62,7324206135439 ,48,3601406250173 ,6,26087718493222
11.5861199 ,Left ,62,732193746541 ,48,387219743623 ,6,23277429193378
11.6005677 ,Left ,62,7291216627464 ,48,4585809525753 ,6,20778029655343
11.6237001 ,Left ,62,702665149167 ,48,5312922580472 ,6,14707673644897
11.6461861 ,Left ,62,6576366757639 ,48,5803067802454 ,6,08977331881812
11.660502 ,Left ,62,614759502884 ,48,6036483380959 ,6,04627242295183
11.6835334 ,Left ,62,5826066280952 ,48,6113374037077 ,6,01380664197044
11.7062577 ,Left ,62,5371108370003 ,48,6162675431487 ,5,98423118112825
11.727289 ,Left ,62,4961463454187 ,48,6213255024368 ,5,95691133372925
11.7436045 ,Left ,62,4181911666645 ,48,6226318077615 ,5,93100161598482
11.7662277 ,Left ,62,3628371768317 ,48,6147680064067 ,5,91032153399926
11.7871836 ,Left ,62,3243581170229 ,48,6081895626068 ,5,89420106551066
11.8036036 ,Left ,62,2969416248308 ,48,5904350463641 ,5,87364133832505
11.8261539 ,Left ,62,2729559118156 ,48,5780777368166 ,5,84809734164502
11.8474573 ,Left ,62,2572188124681 ,48,5780979760805 ,5,81956407659857
11.8636358 ,Left ,62,2456382806566 ,48,5687860039142 ,5,78636532886835
11.8862989 ,Left ,62,2434658217782 ,48,5453382813278 ,5,76147490310503
11.9071854 ,Left ,62,2353556999499 ,48,5414250197745 ,5,72326248419054
11.9237486 ,Left ,62,2076835666433 ,48,5497747842042 ,5,68550214195476
11.9460562 ,Left ,62,2055022599201 ,48,533232640481 ,5,69558003485631
11.9673724 ,Left ,62,200460924933 ,48,5123938749216 ,5,72849160801418
11.9839475 ,Left ,62,2184744768295 ,48,4851331218286 ,5,74932519070358
11.9890131 ,Left ,62,2523178397386 ,48,4140868211056 ,5,78693199066912
12.0114572 ,Left ,62,3086635394808 ,48,2890441089145 ,5,84473028280378
12.034576 ,Left ,62,3840952738964 ,48,1579469078623 ,5,88710265867497
12.0496489 ,Left ,62,4487753935471 ,48,0227809373659 ,5,90190094169696
12.0722285 ,Left ,62,5144675746451 ,47,9084741229121 ,5,93240969805562
12.0947076 ,Left ,62,6028191084573 ,47,826487546603 ,5,94980590566345
12.1094727 ,Left ,62,6893290830362 ,47,7735492537686 ,5,93979131497114
12.1317904 ,Left ,62,7719851871818 ,47,7511325522688 ,5,94055811243942
12.1539877 ,Left ,62,7836543510584 ,47,7573525699243 ,5,93033843088068
12.1704956 ,Left ,62,807569944725 ,47,8083664735527 ,5,95330324943092
12.1913929 ,Left ,62,8274177048365 ,47,8640123045315 ,5,96826844055693
12.2140264 ,Left ,62,8099823828695 ,47,9019708160633 ,5,98824585388007
12.2290103 ,Left ,62,8027024942126 ,47,9309391689494 ,6,04334393957384
12.2516699 ,Left ,62,7823076446425 ,47,947486030503 ,6,08456711657631
12.274328 ,Left ,62,7539158257947 ,47,941862161602 ,6,11166175729503
12.2887304 ,Left ,62,7730688525376 ,47,9514949962015 ,6,14935138489497
12.3114293 ,Left ,62,7664655817299 ,47,972870718038 ,6,17746618894924
12.3341592 ,Left ,62,7700664626444 ,47,9890822924656 ,6,21219332593821
12.3489468 ,Left ,62,8171429632509 ,48,0020560409927 ,6,26116961074935
12.3718363 ,Left ,62,8264448460442 ,48,0032570936444 ,6,28826040934752
12.3941033 ,Left ,62,8395860938691 ,48,0010678442057 ,6,31610845107265
12.4092056 ,Left ,62,844651674966 ,48,0101162252504 ,6,35624005828438
12.431312 ,Left ,62,8366564282315 ,48,037677378706 ,6,38142288435425
12.4541152 ,Left ,62,8200234539537 ,48,0638984682374 ,6,39392731037702
12.4688744 ,Left ,62,8122037069416 ,48,0778737584025 ,6,41019222840828
12.4915265 ,Left ,62,7902501150267 ,48,0872109316204 ,6,42003509064446
12.5140025 ,Left ,62,7717965614615 ,48,0906578415889 ,6,43154856101651
12.5292662 ,Left ,62,7550938112912 ,48,0922955670505 ,6,45165457616729
12.5515999 ,Left ,62,7475547237639 ,48,1068671115935 ,6,48165247410913
12.5739909 ,Left ,62,7338541791565 ,48,1337379317198 ,6,49572759211322
12.5889449 ,Left ,62,7189842527219 ,48,1449515977058 ,6,51768853374261
12.6117187 ,Left ,62,7116897420562 ,48,1593905426802 ,6,54267685242183
12.6343196 ,Left ,62,6998050806119 ,48,1746611282501 ,6,56876854091318
12.6490731 ,Left ,62,7019603991028 ,48,1810991061721 ,6,59740610607096
12.6717692 ,Left ,62,7001012437632 ,48,176898704789 ,6,62791060512824
12.6940771 ,Left ,62,6908036773924 ,48,1779785678084 ,6,65998571698996
12.7089378 ,Left ,62,6925480149443 ,48,1835902107506 ,6,69122500664891
12.7314714 ,Left ,62,7048342805375 ,48,2004568393858 ,6,70524142236388
12.7541081 ,Left ,62,7253577171793 ,48,2174862296342 ,6,70441164031171
12.7705169 ,Left ,62,7381211453679 ,48,2271427003899 ,6,69971444017341
12.7913872 ,Left ,62,7492597172399 ,48,2408732897072 ,6,70192791420789
12.8140502 ,Left ,62,7478553221009 ,48,2431006278971 ,6,70214563427754
12.8303815 ,Left ,62,7537257375792 ,48,265369134849 ,6,69244594863018
12.8516485 ,Left ,62,7562726595606 ,48,2805130855413 ,6,68600815127945
12.8741885 ,Left ,62,7522078388684 ,48,3042812659851 ,6,67758524249157
12.8905691 ,Left ,62,7359438551387 ,48,3358362770583 ,6,67356044362157
12.9116304 ,Left ,62,722540504085 ,48,3664326201104 ,6,67442092685105
12.9341093 ,Left ,62,70093313728 ,48,3868639577621 ,6,68865888542785
12.9505049 ,Left ,62,686479035781 ,48,3981555041612 ,6,71038956113612
12.9718853 ,Left ,62,6852558894176 ,48,3963186480026 ,6,7349813973293
12.9940411 ,Left ,62,6745338914295 ,48,380615344012 ,6,76772260384993
13.0103049 ,Left ,62,6365937731524 ,48,3318318553628 ,6,82246590547242
13.0313767 ,Left ,62,6074019791077 ,48,2792907492033 ,6,88576127420235
13.0538396 ,Left ,62,5914996896562 ,48,2436694770617 ,6,93777879285101
13.0719939 ,Left ,62,5878101716528 ,48,2311622678635 ,6,9746099007762
13.0914919 ,Left ,62,651516693092 ,48,2440913402557 ,6,972896198122
13.1141863 ,Left ,62,7444023200276 ,48,2487465470476 ,6,93978236683498
13.1317849 ,Left ,62,806672289014 ,48,2173659476743 ,6,90246471161791
13.1518615 ,Left ,62,8576812528879 ,48,1886009303383 ,6,85147506939073
13.1747124 ,Left ,62,9051991982702 ,48,1748071101562 ,6,79288075226586
13.1925054 ,Left ,62,9344845747567 ,48,1568280893613 ,6,72950638420587
13.2113875 ,Left ,62,9460252967108 ,48,1140252851723 ,6,66386441651649
13.2341175 ,Left ,62,9045040952172 ,48,0404609116085 ,6,62381110238597
13.2520002 ,Left ,62,8927213288106 ,47,9904504542709 ,6,60665483948559
13.2716969 ,Left ,62,9067211173159 ,47,9952802593067 ,6,59760849258521
13.2942281 ,Left ,62,9701965824214 ,48,0094951169259 ,6,58992418611243
13.3121151 ,Left ,62,971076779583 ,47,9831142498459 ,6,5614778061077
13.3319037 ,Left ,62,9664277160188 ,47,9385700121621 ,6,54341296217283
13.3544467 ,Left ,62,9729399614197 ,47,9024716534126 ,6,54369027162237
13.3721665 ,Left ,62,9726162602496 ,47,9143379100742 ,6,52664965458452
13.3915644 ,Left ,62,9494598005435 ,47,944257407433 ,6,51002617596952
13.4138287 ,Left ,62,9350144972853 ,47,9981999021748 ,6,49274730569723
13.4319971 ,Left ,62,9397437627859 ,48,0841178447069 ,6,50567822867623
13.45162 ,Left ,62,9394803719842 ,48,1833856341575 ,6,52928008680023
13.4739883 ,Left ,62,9026419705327 ,48,2704249270602 ,6,51745607864057
13.4920547 ,Left ,62,8762337315658 ,48,3060276394123 ,6,49373275669789
13.5117736 ,Left ,62,8618437116402 ,48,3037448518966 ,6,48244675693779
13.5341671 ,Left ,62,8198862413157 ,48,2970866207669 ,6,50010897075639
13.5519529 ,Left ,62,7409903196318 ,48,2877201068451 ,6,52364807301778
13.5730361 ,Left ,62,7007558143519 ,48,2557536501603 ,6,53971708029126
13.5942668 ,Left ,62,7126768953174 ,48,1782867575215 ,6,53324515894686
13.6120012 ,Left ,62,6670318956894 ,48,1342435881063 ,6,52084320061043
13.6318491 ,Left ,62,6408666619973 ,48,1946235332532 ,6,49895874971913
13.6542031 ,Left ,62,629863285728 ,48,3177856720947 ,6,4626601720048
13.6721637 ,Left ,62,6312105946657 ,48,3809419411138 ,6,41971635095453
13.6917953 ,Left ,62,6129319107883 ,48,3810937966135 ,6,38876264350576
13.7143739 ,Left ,62,6373544616955 ,48,3763504474625 ,6,35653575645024
13.7320993 ,Left ,62,6130758580308 ,48,371552596983 ,6,31566585003228
13.7532094 ,Left ,62,5920881791204 ,48,3568013441121 ,6,28071700242031
13.7744865 ,Left ,62,5500226057822 ,48,3675959572436 ,6,24662237466009
13.7920808 ,Left ,62,4789440721494 ,48,4010290946826 ,6,20451381582296
13.812663 ,Left ,62,3911375609299 ,48,4454632142425 ,6,17448162797742
13.8341398 ,Left ,62,3271218103509 ,48,4650606206466 ,6,15033589984832
13.8564254 ,Left ,62,2762310275941 ,48,4564955479496 ,6,14041105099919
13.8730019 ,Left ,62,2171795484881 ,48,4412294884277 ,6,13090547852596
13.8940284 ,Left ,62,1671513751365 ,48,4287784775236 ,6,10956340092942
13.9121874 ,Left ,62,1369046803165 ,48,4311852506712 ,6,08830365707922
13.9331373 ,Left ,62,1331645169986 ,48,434493045336 ,6,08736365944751
13.9542307 ,Left ,62,1466398821289 ,48,3994817648789 ,6,0930220693453
13.971911 ,Left ,62,1771651984258 ,48,3239552889363 ,6,12647644607486
13.9930102 ,Left ,62,2246272388897 ,48,2130717669379 ,6,14893081869107
14.014255 ,Left ,62,3035987175301 ,48,0944746707229 ,6,15660415012208
14.0366221 ,Left ,62,3732494729468 ,47,9595403934821 ,6,16209505400855
14.054321 ,Left ,62,4552703080349 ,47,8189805680454 ,6,17381258717291
14.0739608 ,Left ,62,5555402659256 ,47,7092610018773 ,6,19838602560352
14.0968584 ,Left ,62,6649148217603 ,47,6495027959049 ,6,22485599248137
14.1145682 ,Left ,62,7647783434317 ,47,6220726414791 ,6,26011002901225
14.1343162 ,Left ,62,8319143460079 ,47,6321945960248 ,6,28010681858771
14.15689 ,Left ,62,8897394582468 ,47,690604971034 ,6,30775142835489
14.1747999 ,Left ,62,9104703730529 ,47,7580593111154 ,6,33390565541384
14.1944455 ,Left ,62,9040507024382 ,47,8154858190358 ,6,3723608526536
14.2121398 ,Left ,62,8648507867253 ,47,833634978988 ,6,44495073990137
14.2346932 ,Left ,62,8372004531098 ,47,8374944526785 ,6,51879888845922
14.2544871 ,Left ,62,8003837047175 ,47,846934167182 ,6,56159519919902
14.2721146 ,Left ,62,8143344947575 ,47,8963828748602 ,6,59349428333336
14.2942849 ,Left ,62,8073854807829 ,47,9408840086958 ,6,59874355250742
14.3141498 ,Left ,62,8305481146182 ,47,9692075920793 ,6,61978259766211
14.3318498 ,Left ,62,878118691749 ,47,9960396096343 ,6,66027262151345
14.3545144 ,Left ,62,894786804658 ,48,0465893467891 ,6,69333244285147
14.3742178 ,Left ,62,9027777200871 ,48,0930665283611 ,6,72999323331011
14.3920552 ,Left ,62,9052142631201 ,48,1207643013525 ,6,78360299166385
14.4143877 ,Left ,62,9262766982423 ,48,1418334604315 ,6,83699842283844
14.4340458 ,Left ,62,9502771072506 ,48,1891540057102 ,6,86751549338194
14.4564813 ,Left ,62,9459869495692 ,48,2295145070965 ,6,89093234197439
14.4746438 ,Left ,62,9465083563846 ,48,2522316498896 ,6,90283844003598
14.4941454 ,Left ,62,9549304487674 ,48,2589299739645 ,6,91218694137996
14.5164555 ,Left ,62,9695520478585 ,48,2804546407297 ,6,90966731581136
14.5342643 ,Left ,62,9738651073486 ,48,3010349651957 ,6,90931385935625
14.5538317 ,Left ,62,9528756428931 ,48,3163407717705 ,6,91072431703262
14.5764332 ,Left ,62,9451072262844 ,48,3309220970345 ,6,9213450554482
14.5944847 ,Left ,62,9321452953813 ,48,3396660435293 ,6,93309424689631
14.6137322 ,Left ,62,9131550199834 ,48,3392208460367 ,6,94951249699055
14.6362993 ,Left ,62,8941251701165 ,48,3395641036722 ,6,96434614076992
14.6541808 ,Left ,62,8863857965751 ,48,3418791350203 ,6,97824496817082
14.6751357 ,Left ,62,9016421911196 ,48,349722104907 ,6,98604058745303
14.696286 ,Left ,62,9123290849439 ,48,3576441882692 ,6,99658540649934
14.7142915 ,Left ,62,9149694130926 ,48,3652388761911 ,7,01695437749934
14.7355117 ,Left ,62,9229155763981 ,48,3778776228435 ,7,03775643743769
14.7561254 ,Left ,62,9330943964418 ,48,391729989407 ,7,05976332324522
14.7744901 ,Left ,62,9341558799209 ,48,4114539583563 ,7,08279362113607
14.7955242 ,Left ,62,9445645937208 ,48,4369108144264 ,7,10799175227313
14.8165768 ,Left ,62,9480150414513 ,48,4699143965851 ,7,11901545441435
14.8345904 ,Left ,62,9538059161291 ,48,4966590213543 ,7,12899196328795
14.8614997 ,Left ,62,9557438747484 ,48,5143581723684 ,7,13158773904896
14.8767533 ,Left ,62,9512195721223 ,48,5342160418607 ,7,13325594381243
14.8948433 ,Left ,62,9538503490944 ,48,5576995515063 ,7,13253276022035
14.9159929 ,Left ,62,9429115168376 ,48,5788365885796 ,7,12987090332495
14.9371199 ,Left ,62,9383567168711 ,48,5994594782226 ,7,12993756950588
14.9545211 ,Left ,62,9224467235374 ,48,6127109142752 ,7,14291754828944
14.9769117 ,Left ,62,8953450984607 ,48,6104904856635 ,7,1730818338259
14.9963538 ,Left ,62,8742451516244 ,48,6061702494576 ,7,21024515824753
15.0147786 ,Left ,62,8476423450411 ,48,6057813588738 ,7,24106459388325
15.0373442 ,Left ,62,7909572806522 ,48,5827419928616 ,7,28668030376776
15.0571534 ,Left ,62,7487369779384 ,48,5664913312124 ,7,33899685453737
15.0747887 ,Left ,62,7048688712908 ,48,555403305155 ,7,37529965364622
15.0973736 ,Left ,62,6890925855852 ,48,5621138324069 ,7,38440876458889
15.1168732 ,Left ,62,7068784076413 ,48,5767400354165 ,7,3350578280865
15.1345686 ,Left ,62,7585005226983 ,48,5631858927226 ,7,25107526731757
15.1570585 ,Left ,62,8238014396355 ,48,5194130999674 ,7,17496803823184
15.1765493 ,Left ,62,8704006804555 ,48,466365005824 ,7,11187328209288
15.1942736 ,Left ,62,904814403735 ,48,4132662087116 ,7,06102548119928
15.2168241 ,Left ,62,9414494466989 ,48,3582056844279 ,7,01360930522628
15.2364496 ,Left ,62,9534176883127 ,48,2802789483292 ,6,98206821427043
15.2545625 ,Left ,62,9729803565901 ,48,1968004000275 ,6,97502587383265
15.2771415 ,Left ,62,9655792725228 ,48,125247636136 ,6,97459375100534
15.2969508 ,Left ,62,9798734146198 ,48,1072946471393 ,6,98269662030944
15.3143432 ,Left ,63,0291220981804 ,48,1165254980772 ,6,97378624576171
15.3370854 ,Left ,63,0878470341269 ,48,1429210020627 ,6,99329357159808
15.3567073 ,Left ,63,1239104356311 ,48,1545883954233 ,7,014910015853
15.3746086 ,Left ,63,1518564090764 ,48,1505832139573 ,7,02796157051483
15.3968469 ,Left ,63,1635135068674 ,48,1311640098771 ,7,03089321724226
15.4164518 ,Left ,63,1715378515431 ,48,1368087353153 ,7,03793723600321
15.4344844 ,Left ,63,1586179600795 ,48,1415822584469 ,7,01496993656659
15.4570632 ,Left ,63,1409298500887 ,48,111873968409 ,7,00458574620928
15.4767042 ,Left ,63,1429511722118 ,48,1183714007185 ,7,0227368319416
15.4945082 ,Left ,63,1550148244822 ,48,1645496849251 ,7,03859781809167
15.5161828 ,Left ,63,1608894360449 ,48,2220565104476 ,7,05668833720249
15.5372915 ,Left ,63,1475113017832 ,48,271289132202 ,7,07516236351595
15.5535445 ,Left ,63,1397877987678 ,48,3225077053986 ,7,10520082648711
15.576003 ,Left ,63,1087650399827 ,48,398637955433 ,7,13639981796635
15.5970923 ,Left ,63,0590999582724 ,48,4408317629713 ,7,15225356152777
15.6136251 ,Left ,63,0021254301406 ,48,4494276821294 ,7,19388133775698
15.6362233 ,Left ,62,9216393156893 ,48,4738035806156 ,7,22849012541631
15.6573668 ,Left ,62,7677916637098 ,48,51163366082 ,7,26511327902668
15.6737549 ,Left ,62,683754005033 ,48,5303280129744 ,7,28549585839925
15.6966646 ,Left ,62,6565581205721 ,48,565288678854 ,7,28512169414503
15.7177291 ,Left ,62,6112127753266 ,48,6130184916149 ,7,26579366645558
15.7341 ,Left ,62,5389142538539 ,48,6483443225066 ,7,23518576276189
15.756194 ,Left ,62,5241294633417 ,48,6669929951924 ,7,20461419072857
15.777227 ,Left ,62,5455407577159 ,48,6865698195491 ,7,16650517227846
15.7936685 ,Left ,62,5700597659477 ,48,7151679208238 ,7,11050990257414
15.8162069 ,Left ,62,5429490199905 ,48,7355816246899 ,7,05251044546868
15.8372405 ,Left ,62,5111412092103 ,48,7382839042616 ,7,00786369624827
15.8537493 ,Left ,62,48795485273 ,48,7409505808338 ,6,96882061575074
15.8762614 ,Left ,62,4328441744424 ,48,7517594302171 ,6,90781990772581
15.8975613 ,Left ,62,3374186680065 ,48,7654279274737 ,6,84114071084458
15.9131972 ,Left ,62,2275487696179 ,48,740349160219 ,6,77210880342389
15.9363278 ,Left ,62,1774796818734 ,48,7125802500112 ,6,73211151036641
15.9589187 ,Left ,62,1110640077566 ,48,6686727466421 ,6,69962786214105
15.9731694 ,Left ,62,0831013264994 ,48,6179051403291 ,6,68294989494797
15.9964078 ,Left ,62,1234280243071 ,48,5461143024138 ,6,69478806111074
16.018864 ,Left ,62,2088782728438 ,48,4500771384042 ,6,73008057475238
16.033129 ,Left ,62,3153934453987 ,48,3264811338763 ,6,75086374571519
16.0563619 ,Left ,62,413982626134 ,48,1976303215627 ,6,76785153841119
16.0790803 ,Left ,62,492532138342 ,48,0883750008977 ,6,77431134575515
16.0934407 ,Left ,62,5598576481815 ,48,005617931367 ,6,7943484979801
16.1161902 ,Left ,62,6388455380468 ,47,9087908524523 ,6,80592977242972
16.138775 ,Left ,62,7414769288743 ,47,8399817927319 ,6,81242889124508
16.1530486 ,Left ,62,8086040112732 ,47,8046128140253 ,6,80160751035735
16.1762077 ,Left ,62,8663535789392 ,47,8073526204808 ,6,81686641634072
16.1990779 ,Left ,62,9117026118549 ,47,8250500115753 ,6,85456499181872
16.2198004 ,Left ,62,9252470318652 ,47,8552244647991 ,6,89566638647598
16.2362295 ,Left ,62,9186179455066 ,47,9004263052058 ,6,95273949852602
16.258772 ,Left ,62,9003582699165 ,47,9336509348039 ,7,01036310224724
16.2730167 ,Left ,62,90224536608 ,47,9360185981244 ,7,05276824671124
16.2961994 ,Left ,62,9150569569775 ,47,9393286338042 ,7,09180577307602
16.3187649 ,Left ,62,9112667537917 ,47,9509555009179 ,7,11702098963421
16.3329519 ,Left ,62,9134660190432 ,47,9783228266807 ,7,13645727981678
16.3562155 ,Left ,62,9453591730888 ,48,0141230596734 ,7,15961548505529
16.3787841 ,Left ,62,9603969302121 ,48,0541918963161 ,7,17297443065781
16.3929087 ,Left ,62,9677991190601 ,48,0819150389958 ,7,20823147255191
16.4162156 ,Left ,62,995768959735 ,48,1070020601123 ,7,23323603903421
16.4385696 ,Left ,63,0108513368983 ,48,136911297209 ,7,2402294430033
16.4597403 ,Left ,63,0150749902858 ,48,1802535694415 ,7,22775655165932
16.4763885 ,Left ,63,0090953478773 ,48,2153928554875 ,7,22004434436946
16.4988717 ,Left ,63,0115424905042 ,48,2265840469381 ,7,22268297069151
16.5200678 ,Left ,63,0071417848093 ,48,2374516232886 ,7,22533738374263
16.53632 ,Left ,62,980209883876 ,48,2429256061089 ,7,22811593749402
16.5588619 ,Left ,62,949228238122 ,48,2489240670737 ,7,24735549931812
16.5800697 ,Left ,62,9355922759061 ,48,2536534398264 ,7,26420424708659
16.5963983 ,Left ,62,925391110898 ,48,2516285958091 ,7,28423858691957
16.6190781 ,Left ,62,9205715158813 ,48,2538474167945 ,7,30625200092156
16.6400888 ,Left ,62,8997117345626 ,48,2565697475199 ,7,32239381742764
16.6563331 ,Left ,62,8910941601432 ,48,2569071125446 ,7,32682225801682
16.6788463 ,Left ,62,9031784958554 ,48,2490296484371 ,7,32714540795474
16.6998455 ,Left ,62,9078945878822 ,48,24076567412 ,7,32861527950213
16.7163208 ,Left ,62,9283177099228 ,48,2434457793054 ,7,33534175013105
16.7388647 ,Left ,62,9337525866601 ,48,2468974864001 ,7,33888164114633
16.7598371 ,Left ,62,9396227258209 ,48,2521906112744 ,7,34805622256834
16.7763119 ,Left ,62,9589220360156 ,48,2825001952923 ,7,34685539025008
16.8051817 ,Left ,62,9663683439286 ,48,3174910170639 ,7,3466263831414
16.8200781 ,Left ,62,9603798982164 ,48,3487807408904 ,7,35260655097436
16.836294 ,Left ,62,9702258614097 ,48,3834142828311 ,7,35669232044818
16.8590007 ,Left ,62,9659992706708 ,48,4148356887884 ,7,35667436028536
16.8814622 ,Left ,62,9585683944312 ,48,4431329093533 ,7,35091648987132
16.8955972 ,Left ,62,9356129765738 ,48,4721214992053 ,7,34298529760588
16.9191252 ,Left ,62,9201979488649 ,48,5009344435216 ,7,3453222242718
16.9412439 ,Left ,62,8922409942855 ,48,5082370116469 ,7,3593675777209
16.9554963 ,Left ,62,8731745434331 ,48,4835871902657 ,7,38719211699049
16.9787159 ,Left ,62,8482600229442 ,48,4394272052198 ,7,42866864288283
17.0008436 ,Left ,62,8205471960204 ,48,4024077702816 ,7,4756674928349
17.0160251 ,Left ,62,791689114109 ,48,3883946059632 ,7,52502676707787
17.0389415 ,Left ,62,7845984422496 ,48,3737226741828 ,7,57272271510195
17.0612155 ,Left ,62,8125819770442 ,48,3717540500863 ,7,61503407674778
17.0754327 ,Left ,62,8666632545622 ,48,3770613511366 ,7,62485796953084
17.0985621 ,Left ,62,8967134930418 ,48,3652251672748 ,7,62395160189177
17.1211871 ,Left ,62,9219764824212 ,48,3631415170543 ,7,61348339345172
17.1355158 ,Left ,62,9621162078862 ,48,3743966376018 ,7,57858919990412
17.1588441 ,Left ,63,006855186254 ,48,3772515924137 ,7,53529100614709
17.1812564 ,Left ,63,026327526757 ,48,3663676522594 ,7,4946359391769
17.1958 ,Left ,63,0209241077723 ,48,3516311628546 ,7,45799675966607
17.2190653 ,Left ,63,0220425782993 ,48,313233419736 ,7,42133246991045
17.2413104 ,Left ,62,9964725558869 ,48,2526054109265 ,7,39754578084492
17.2556654 ,Left ,62,9903616586368 ,48,2220429075746 ,7,40136742302082
17.2787946 ,Left ,62,9906346057673 ,48,2329959013463 ,7,41109940216157
17.301286 ,Left ,63,023759961812 ,48,2425948895096 ,7,4188966998651
17.315642 ,Left ,63,0360865381417 ,48,2463013295811 ,7,42239907718267
17.3387973 ,Left ,63,0394745497835 ,48,2404648988633 ,7,43388083428912
17.3612378 ,Left ,63,0423987722473 ,48,2327155125362 ,7,43478282510408
17.3826012 ,Left ,63,0308220773095 ,48,2407245129262 ,7,43338861117896
17.3988626 ,Left ,62,9997100657607 ,48,2490220131772 ,7,43810391922869
17.4212987 ,Left ,62,962293872553 ,48,2706791196078 ,7,42047224723326
17.4421153 ,Left ,62,9755013633829 ,48,3063472411824 ,7,41109807424381
17.4586195 ,Left ,63,0022904528838 ,48,3156564157541 ,7,41288440094777
17.4810106 ,Left ,63,0119879143845 ,48,3463908233663 ,7,43083499136233
17.5021152 ,Left ,62,9932443353049 ,48,380490664792 ,7,43327357667645
17.5187395 ,Left ,62,9914318959691 ,48,3903347722454 ,7,44668847181964
17.5412323 ,Left ,63,0033746783252 ,48,4038300531983 ,7,49250918675904
17.5635427 ,Left ,62,9693746166461 ,48,4182222332945 ,7,53394944611452
17.5786801 ,Left ,62,9213572784323 ,48,4340910136868 ,7,55091704106751
17.6012555 ,Left ,62,8723361180729 ,48,4304801906962 ,7,5488143473319
17.6223086 ,Left ,62,8530111184545 ,48,4573893300819 ,7,5286583672496
17.6388341 ,Left ,62,7820229022426 ,48,4731096645432 ,7,51969049279876
17.6612219 ,Left ,62,7323993279425 ,48,4745833839429 ,7,53151238803621
17.6822824 ,Left ,62,6884868074041 ,48,4876371003101 ,7,51261436284157
17.6987679 ,Left ,62,6117824187873 ,48,5350162868436 ,7,47359041292384
17.7212304 ,Left ,62,5709391737635 ,48,5748764515019 ,7,43461055919364
17.7424939 ,Left ,62,577655714634 ,48,6038587963112 ,7,40852537346081
17.7587989 ,Left ,62,5776203186077 ,48,6173001190362 ,7,39204934257636
17.7813131 ,Left ,62,57206540177 ,48,61042406522 ,7,36103236947584
17.8023616 ,Left ,62,5342674759375 ,48,6075182065675 ,7,31402390617548
17.8188097 ,Left ,62,5180132679993 ,48,5918897857094 ,7,27402035791846
17.8412491 ,Left ,62,492579217545 ,48,5860558762882 ,7,2318852060393
17.863798 ,Left ,62,4647223655736 ,48,5969266403652 ,7,18640645109871
17.8787852 ,Left ,62,4255160769999 ,48,6243468326761 ,7,15441999342412
17.9011567 ,Left ,62,3790050450731 ,48,6373362977665 ,7,1250967787691
17.9237863 ,Left ,62,354356805541 ,48,6102357547986 ,7,09126504761202
17.9388455 ,Left ,62,3290407572717 ,48,558355497293 ,7,06074375318839
17.9612673 ,Left ,62,2919445274881 ,48,5341878188671 ,7,016555833289
17.9839935 ,Left ,62,2537198080847 ,48,5317794397127 ,6,95187385099682
17.9980151 ,Left ,62,235613898173 ,48,4938263081509 ,6,89828020378782
18.0212288 ,Left ,62,2513541188179 ,48,412569411798 ,6,89980186014865
18.0441719 ,Left ,62,2558958669676 ,48,3108337576101 ,6,93092977780109
18.0651892 ,Left ,62,3115960336918 ,48,2067838367419 ,6,96356925012826
18.0816191 ,Left ,62,4117566135346 ,48,083938559058 ,6,99312487548349
18.1041438 ,Left ,62,5192591178199 ,47,9519674113378 ,7,03890223762854
18.1250994 ,Left ,62,6092219649557 ,47,8186263696711 ,7,07642122892072
18.1415322 ,Left ,62,7301984523955 ,47,709520049438 ,7,11829146979193
18.1639139 ,Left ,62,8162157919783 ,47,6552156294106 ,7,15774253065245
18.1852708 ,Left ,62,8804993454348 ,47,6537888282119 ,7,18637695901055
18.2014255 ,Left ,62,9257673312285 ,47,7069101352919 ,7,18167994403778
18.2240423 ,Left ,62,9475036220785 ,47,7811097448538 ,7,1866335772495
18.2449443 ,Left ,62,9189108487956 ,47,8651528567709 ,7,19879486246255
18.2613636 ,Left ,62,8486377026125 ,47,965861895929 ,7,23181205192374
18.2840073 ,Left ,62,7714803590721 ,48,0594279848418 ,7,28544274075355
18.3052297 ,Left ,62,7171397927092 ,48,1215194551037 ,7,34330791189103
18.3213209 ,Left ,62,6862632434362 ,48,1611086070626 ,7,40008077317688
18.3434748 ,Left ,62,6873856609758 ,48,1887743484675 ,7,43495121178447
18.3645403 ,Left ,62,6954538289699 ,48,2023442159919 ,7,45893111364637
18.3811293 ,Left ,62,713564928267 ,48,211426063277 ,7,47156782257063
18.4038583 ,Left ,62,7573675841203 ,48,2289862889497 ,7,49475394285755
18.4248183 ,Left ,62,7929901164051 ,48,2489995845991 ,7,50666648982377
18.4412666 ,Left ,62,8113877234733 ,48,2702950274597 ,7,51598770371243
18.4637986 ,Left ,62,829259247353 ,48,2853892093235 ,7,544960180105
18.4850445 ,Left ,62,8657162759692 ,48,3133164168526 ,7,57768049180994
18.5011808 ,Left ,62,8339610017851 ,48,3342544328472 ,7,59351788868546
18.5237475 ,Left ,62,8358425917412 ,48,3330480375063 ,7,600558697935
18.5450839 ,Left ,62,8173707888593 ,48,3194211102809 ,7,59834378043454
18.5612136 ,Left ,62,787774265505 ,48,3026420843541 ,7,60510511105049
18.5838708 ,Left ,62,7813879797896 ,48,2980470320984 ,7,62424847151025
18.6047752 ,Left ,62,7843407333154 ,48,3072869618191 ,7,64622177786864
18.6213004 ,Left ,62,7694732276532 ,48,3023722049914 ,7,67128372378179
18.6437157 ,Left ,62,7723997097541 ,48,2896656141185 ,7,70398466217376
18.6650771 ,Left ,62,7663212351594 ,48,2830445584822 ,7,73758556055808
18.6815605 ,Left ,62,7532926363628 ,48,2868781827583 ,7,77213453055818
18.7041561 ,Left ,62,7638255477158 ,48,2975317047505 ,7,80612264718742
18.7251639 ,Left ,62,7786092691045 ,48,3000129161398 ,7,81541200722401
18.741756 ,Left ,62,7891808102278 ,48,2967972916083 ,7,82111587822109
18.7641133 ,Left ,62,801337341937 ,48,294425868413 ,7,8193946064967
18.7863764 ,Left ,62,8142384221204 ,48,2960652600759 ,7,80760649863208
18.8013333 ,Left ,62,8271444135695 ,48,2977132203966 ,7,79581576864489
18.823812 ,Left ,62,8333389217542 ,48,2976212699887 ,7,78711046719736
18.8463611 ,Left ,62,8310348623923 ,48,2980956905474 ,7,78774920094098
18.8614061 ,Left ,62,8321560770427 ,48,3092639334373 ,7,80111736054291
18.884014 ,Left ,62,8378572298385 ,48,3293745414246 ,7,81569100758588
18.9065094 ,Left ,62,8400239407625 ,48,3441018515103 ,7,83533746423899
18.9207428 ,Left ,62,8651348284312 ,48,3652836983783 ,7,84579457366923
18.9439091 ,Left ,62,8722647949335 ,48,3867991176387 ,7,8415481868687
18.9664073 ,Left ,62,8653658167549 ,48,4046409418055 ,7,83971033043261
18.9805683 ,Left ,62,8599339066497 ,48,4331258476624 ,7,82799272558702
19.0036514 ,Left ,62,8500989803751 ,48,4593895401062 ,7,81867529555459
19.0261649 ,Left ,62,8388348430212 ,48,4758736370803 ,7,82262531202449
19.0407093 ,Left ,62,8252694363796 ,48,4783712031542 ,7,84003481912406
19.0636295 ,Left ,62,8027975510046 ,48,469846135209 ,7,86359330474528
19.0860682 ,Left ,62,7527392082585 ,48,4224347570125 ,7,90395821864392
19.1005496 ,Left ,62,7297547282162 ,48,3716470058072 ,7,94605599641145
19.1237445 ,Left ,62,7074066343412 ,48,3580861133371 ,7,9913996421605
19.1469032 ,Left ,62,703926221312 ,48,389673511733 ,8,02559312576863
19.1607244 ,Left ,62,7590976611982 ,48,4604668960774 ,8,01795512010789
19.1837809 ,Left ,62,803471392922 ,48,508604442355 ,7,97862348268585
19.206387 ,Left ,62,8112714758728 ,48,5251948083778 ,7,9356268967652
19.2205584 ,Left ,62,8137226289623 ,48,5279865076001 ,7,89806185578639
19.2436865 ,Left ,62,8214675581144 ,48,5489481729143 ,7,86442294232292
19.266116 ,Left ,62,8110231946125 ,48,5545767205317 ,7,81824278123171
19.2874674 ,Left ,62,8130205668118 ,48,5033754173246 ,7,75518534546275
19.3035504 ,Left ,62,8343864343188 ,48,3956079510208 ,7,71581634488957
19.3260034 ,Left ,62,8320926328175 ,48,2967071295621 ,7,72024733693476
19.3468866 ,Left ,62,8608915540951 ,48,2470432742237 ,7,73188237170921
19.3637836 ,Left ,62,9410705015663 ,48,2246055942431 ,7,73421224038092
19.3866098 ,Left ,63,0057883443612 ,48,2186787815514 ,7,73230259947576
19.408153 ,Left ,63,0109695968139 ,48,2166539193351 ,7,71418788713068
19.4243514 ,Left ,62,9992621877481 ,48,1875227015548 ,7,70412319693872
19.4465945 ,Left ,63,0112370057273 ,48,1582440402615 ,7,71331129039729
19.4675788 ,Left ,62,9865059771829 ,48,172112925363 ,7,68756775860278
19.4835814 ,Left ,62,9505039602746 ,48,1749998824288 ,7,65376238164243
19.5062495 ,Left ,62,9196774382155 ,48,2017800941375 ,7,62693840828833
19.5271061 ,Left ,62,9130667744448 ,48,2592511097128 ,7,62801257602336
19.5436036 ,Left ,62,8866951790599 ,48,3291284382012 ,7,62305829119659
19.5661085 ,Left ,62,8698397059998 ,48,3861871876505 ,7,60716171121143
19.5872623 ,Left ,62,8480040583955 ,48,4179307487605 ,7,59717914283778
19.6038357 ,Left ,62,8225543873722 ,48,4349072298281 ,7,57829998630837
19.6260882 ,Left ,62,8128707884067 ,48,4384649307574 ,7,55141523161385
19.6473676 ,Left ,62,7646063763769 ,48,4320853683815 ,7,53547403248784
19.6640251 ,Left ,62,7197169642551 ,48,4145107111543 ,7,5431049868564
19.6863349 ,Left ,62,7053515193951 ,48,3863086441436 ,7,55718678786852
19.7074256 ,Left ,62,7148319835001 ,48,366696067446 ,7,56653220346905
19.7232179 ,Left ,62,6715944598458 ,48,3667842804807 ,7,57781478798941
19.7463715 ,Left ,62,6325676402458 ,48,3819319790973 ,7,6015923368702
19.7688426 ,Left ,62,6200109618631 ,48,4041221594939 ,7,63788346906031
19.7838839 ,Left ,62,611465218001 ,48,4185542342452 ,7,6704665783393
19.8063713 ,Left ,62,609967389871 ,48,4261531256914 ,7,68339438280784
19.8288917 ,Left ,62,6025817422188 ,48,4287227106923 ,7,69708755872403
19.8438306 ,Left ,62,5345552566276 ,48,4495793532175 ,7,72629017179602
19.8662932 ,Left ,62,5037600781601 ,48,4914407029544 ,7,74352188403538
19.8888898 ,Left ,62,4840161769097 ,48,5504980360965 ,7,73378687115455
19.9031537 ,Left ,62,4304779850502 ,48,5822095942963 ,7,70272837421301
19.9263631 ,Left ,62,3907875959558 ,48,6040064026057 ,7,68077162342782
19.9490685 ,Left ,62,405649129168 ,48,6372138306439 ,7,64832259345959
19.9632147 ,Left ,62,3855599848783 ,48,6571702678875 ,7,60872244926209
19.9863223 ,Left ,62,372709487126 ,48,6500932646068 ,7,56134572234124
20.0088788 ,Left ,62,3612778297793 ,48,6307590202289 ,7,51158660916894
20.0231458 ,Left ,62,3533608192265 ,48,6048666830258 ,7,47012241992765
20.046324 ,Left ,62,3530562624917 ,48,5943224597314 ,7,43417094236539
20.0688791 ,Left ,62,3360133510852 ,48,5737541009303 ,7,40103845222191
20.0831931 ,Left ,62,3132119398333 ,48,5420913867137 ,7,38232726599753
20.1063544 ,Left ,62,3082979812231 ,48,5226610179125 ,7,37014751781877
20.1288551 ,Left ,62,3022649914847 ,48,5404130802299 ,7,3467004027798
20.1431345 ,Left ,62,3021561827283 ,48,5542499911036 ,7,32358275745824
20.1663928 ,Left ,62,300050507576 ,48,5582560756444 ,7,31020776470377
20.1888751 ,Left ,62,2882951809373 ,48,5559330459684 ,7,30226660588244
20.2032056 ,Left ,62,2559091587895 ,48,557442244819 ,7,29203545689844
20.2263836 ,Left ,62,2011370412219 ,48,5576184660061 ,7,28361290293775
20.248877 ,Left ,62,1674954758749 ,48,5373548386264 ,7,25404552666136
20.2698572 ,Left ,62,1446904670535 ,48,5086501775964 ,7,21762463441633
20.2860812 ,Left ,62,1337033765895 ,48,5171469522235 ,7,17761126759926
20.3092957 ,Left ,62,0973939836852 ,48,5182613318786 ,7,12851425467695
20.3303191 ,Left ,62,0857105306526 ,48,47488727514 ,7,12693795632261
20.3465776 ,Left ,62,1040982920365 ,48,4012125135775 ,7,15448320071556
20.3690562 ,Left ,62,1449197515519 ,48,3222680300096 ,7,18122796249514
20.3903836 ,Left ,62,1857350575303 ,48,2244279247173 ,7,21251945850571
20.4064264 ,Left ,62,2821996761284 ,48,0979541154992 ,7,24090689707404
20.4288414 ,Left ,62,3933943392482 ,47,9710300230059 ,7,26597792494785
20.4497412 ,Left ,62,467792032 ,47,8568339426384 ,7,27753879804411
20.4663445 ,Left ,62,5395474730846 ,47,7802272465674 ,7,29250317033307
20.4888093 ,Left ,62,5803048758788 ,47,732867894321 ,7,30280555123471
20.5097481 ,Left ,62,634216445971 ,47,7384832890022 ,7,32213341322357
20.5262373 ,Left ,62,6583259674741 ,47,7886675767785 ,7,34075049013853
20.5488125 ,Left ,62,6816462359458 ,47,8356327725945 ,7,36790680702761
20.5698378 ,Left ,62,700446773125 ,47,8748209039097 ,7,40967821659719
20.5862292 ,Left ,62,6644033351765 ,47,9179152484801 ,7,44206433949508
20.6088416 ,Left ,62,6294096231892 ,47,9643895697079 ,7,47070462728257
20.6300531 ,Left ,62,6092527558049 ,47,9846218568656 ,7,505653053931
20.6462889 ,Left ,62,6379974738356 ,47,9948136265133 ,7,5248282689227
20.6684131 ,Left ,62,66258763903 ,47,9929200644854 ,7,54898840316296
20.6912189 ,Left ,62,6783379280753 ,47,9806463587684 ,7,57783496784518
20.7060837 ,Left ,62,720118301426 ,47,9854466579584 ,7,60011489326221
20.7287235 ,Left ,62,7657455211686 ,48,000622507708 ,7,62168485464453
20.7512415 ,Left ,62,7963461779282 ,48,0259071555874 ,7,64914511912535
20.7662245 ,Left ,62,8169364986462 ,48,0561089208576 ,7,70523811254084
20.7888574 ,Left ,62,8222748967515 ,48,1042072841915 ,7,78530752502612
20.8113066 ,Left ,62,8326731135278 ,48,1656584132181 ,7,84620831102261
20.8257175 ,Left ,62,8426375049092 ,48,1752362220617 ,7,87795900879915
20.8489052 ,Left ,62,8238425172292 ,48,1661021168996 ,7,88528000110364
20.8712797 ,Left ,62,7879193197686 ,48,1731960486385 ,7,8871471332784
20.8856842 ,Left ,62,7590759772051 ,48,209937502942 ,7,88032799874335
20.9088652 ,Left ,62,7572360592115 ,48,2385794614846 ,7,88529576095891
20.9314741 ,Left ,62,7358939293034 ,48,2420231727254 ,7,88618472624682
20.9457904 ,Left ,62,7145170488449 ,48,212860192885 ,7,89687223283719
20.9690727 ,Left ,62,6859635096713 ,48,182033678462 ,7,91684784422903
20.9914161 ,Left ,62,6601698016919 ,48,1688828422506 ,7,93305434476505
21.0057009 ,Left ,62,6545927229928 ,48,1611253196454 ,7,9498544213265
21.0288692 ,Left ,62,6544712280294 ,48,1575093854978 ,7,96858142558953
21.051416 ,Left ,62,6658076376348 ,48,1622443418068 ,7,98991885708954
21.0655526 ,Left ,62,6911216845644 ,48,1631770124685 ,8,01161953287924
21.0886833 ,Left ,62,7038083270585 ,48,1565298794715 ,8,03380785917044
21.11122 ,Left ,62,7173362012278 ,48,1359120616646 ,8,05275414727526
21.1255399 ,Left ,62,7345082262606 ,48,1297611498628 ,8,07055433593185
21.1485894 ,Left ,62,7360497015634 ,48,1442091109679 ,8,08149220220139
21.171233 ,Left ,62,7376764502292 ,48,1669189719915 ,8,09299175603638
21.1922743 ,Left ,62,746924807229 ,48,194648596057 ,8,09778626075917
21.2084551 ,Left ,62,7306278297754 ,48,2096363044379 ,8,09902731130954
21.2311542 ,Left ,62,7167857868646 ,48,2234845662123 ,8,1060370465093
21.2524169 ,Left ,62,7014613544032 ,48,2410569041423 ,8,10513155571108
21.2686757 ,Left ,62,6831988086301 ,48,2543842520644 ,8,11643206969621
21.2912066 ,Left ,62,6831492866632 ,48,279327009132 ,8,12916335926956
21.3123748 ,Left ,62,6684282476666 ,48,3085367333874 ,8,13128611687229
21.3291025 ,Left ,62,6565929611199 ,48,3309565558704 ,8,14273832160519
21.3520447 ,Left ,62,6594955085911 ,48,3563818277365 ,8,15692673956807
21.3726248 ,Left ,62,64504790992 ,48,3947411180406 ,8,16287641338555
21.3887121 ,Left ,62,6230336024095 ,48,4288646300904 ,8,17391409461998
21.4113808 ,Left ,62,6061067617136 ,48,4502402467187 ,8,20052531211305
21.4323299 ,Left ,62,5989049114963 ,48,4552218225321 ,8,23903183477854
21.4488972 ,Left ,62,5773113916747 ,48,4558812635037 ,8,28267104450665
21.4712141 ,Left ,62,555041712193 ,48,4517661176906 ,8,33292483638918
21.4923564 ,Left ,62,5152389468965 ,48,4191672305971 ,8,37968549344249
21.5085338 ,Left ,62,482719154938 ,48,3969419801282 ,8,43867186344725
21.5310378 ,Left ,62,4532309023179 ,48,3896161816978 ,8,48627833176958
21.5523351 ,Left ,62,4671338257768 ,48,4201494021956 ,8,51750215536906
21.5686018 ,Left ,62,5529757162239 ,48,4735615144296 ,8,48103752146567
21.5912477 ,Left ,62,6049051199989 ,48,4935750993772 ,8,42427788197016
21.6136503 ,Left ,62,6315100226714 ,48,4990738531782 ,8,37326545364285
21.6287808 ,Left ,62,6585090458489 ,48,5146426976549 ,8,32956184391646
21.6511948 ,Left ,62,6546869797116 ,48,5361542478672 ,8,29233176057581
21.6737166 ,Left ,62,6316507269967 ,48,5365625830349 ,8,26550928925492
21.6886991 ,Left ,62,6080386003127 ,48,5114292849614 ,8,27444379518874
21.711237 ,Left ,62,6060424612508 ,48,4699756292789 ,8,29619289289332
21.7337488 ,Left ,62,6045233719015 ,48,4318646886778 ,8,32050702532385
21.7487955 ,Left ,62,6012932151225 ,48,4244247932847 ,8,33507637271642
21.7712529 ,Left ,62,6172480486918 ,48,4355426840027 ,8,33378690966151
21.7936761 ,Left ,62,6464297557518 ,48,4371184994721 ,8,34120780489193
21.8079544 ,Left ,62,6862811018977 ,48,443463905716 ,8,34988578443756
21.8313346 ,Left ,62,7042455930162 ,48,4584494241835 ,8,36342313645852
21.8537147 ,Left ,62,7258146693558 ,48,4819641730094 ,8,37573905187307
21.8679195 ,Left ,62,7267752429857 ,48,4845582532831 ,8,37360231634539
21.8912791 ,Left ,62,7250049919508 ,48,4867845773422 ,8,37491423885433
21.9137147 ,Left ,62,7368197179142 ,48,5005088714731 ,8,37069198532513
21.9280449 ,Left ,62,735060960505 ,48,5011257302439 ,8,37005240543203
21.9513734 ,Left ,62,7254091601405 ,48,5087214006821 ,8,36413361868891
21.9737307 ,Left ,62,7162147068026 ,48,5082601175237 ,8,36136849422743
21.9880705 ,Left ,62,6924696093614 ,48,5115412391335 ,8,35436439841119
22.0112106 ,Left ,62,6635830302089 ,48,5221357006683 ,8,33859304195092
22.0338149 ,Left ,62,5931869165187 ,48,5450744071717 ,8,32239306483826
22.048093 ,Left ,62,6211082320557 ,48,5595235486052 ,8,3258823402577
22.0712702 ,Left ,62,630168448845 ,48,610146836978 ,8,33868113376803
22.0937445 ,Left ,62,5992853722731 ,48,6526647605842 ,8,33564050258133
22.1148416 ,Left ,62,6060572645174 ,48,6371031460028 ,8,33200719368003
22.1315474 ,Left ,62,6197147592325 ,48,5790407660581 ,8,32657215777734
22.1537719 ,Left ,62,6153245963443 ,48,5455673847373 ,8,32154640938829
22.1747223 ,Left ,62,6314445137779 ,48,5313223868972 ,8,28845757598083
22.1913333 ,Left ,62,5932717329103 ,48,4931449823905 ,8,24540610871469
22.2137383 ,Left ,62,6204510858921 ,48,4263478359934 ,8,24699915053575
22.2346503 ,Left ,62,6901210043353 ,48,5173847872022 ,8,26708372532292
22.2510428 ,Left ,62,6598829873798 ,48,6680787189259 ,8,26425014554255
22.2735361 ,Left ,62,6411158282137 ,48,7416804670397 ,8,30311066549388
22.2948605 ,Left ,62,6721391633233 ,48,7304132065175 ,8,34421723929118
22.3110683 ,Left ,62,7109719820113 ,48,6935607523648 ,8,36849565109941
22.3337152 ,Left ,62,6645227487949 ,48,6675984499655 ,8,39396351706053
22.3546057 ,Left ,62,6242408250508 ,48,6475641005448 ,8,39143100295137
22.3712146 ,Left ,62,6219472911762 ,48,6114360816042 ,8,36587550090418
22.3936775 ,Left ,62,6130455406219 ,48,5812136046939 ,8,35144376653047
22.4147687 ,Left ,62,6215412752063 ,48,5536527319399 ,8,34901959283401
22.4312568 ,Left ,62,6146116581781 ,48,5737062398483 ,8,33749171283035
22.4537062 ,Left ,62,5697091214792 ,48,6307327168378 ,8,27459458746551
22.4748267 ,Left ,62,5384197676135 ,48,6788159120908 ,8,18185190693478
22.4910845 ,Left ,62,5005326974646 ,48,7043412574289 ,8,11617107731683
22.5137457 ,Left ,62,4657416129533 ,48,7101179396987 ,8,06357786758383
22.5345966 ,Left ,62,4022855627664 ,48,6946385918646 ,8,01829322115133
22.5504799 ,Left ,62,3637767050015 ,48,6614843149876 ,7,97763600856062
22.5737416 ,Left ,62,3162284944417 ,48,6263564230074 ,7,94831196030521
22.5959708 ,Left ,62,2493697619713 ,48,6080630288482 ,7,92176039200305
22.6112542 ,Left ,62,2041159045089 ,48,6019750199184 ,7,87734087964436
22.6341282 ,Left ,62,1924479108436 ,48,562342318489 ,7,83481227884383
22.6563179 ,Left ,62,2042923772431 ,48,5116936872492 ,7,79915322959624
22.6712698 ,Left ,62,2085013128956 ,48,4798773962496 ,7,76912599279773
22.6935831 ,Left ,62,1881222632188 ,48,463880601217 ,7,73751970165723
22.716194 ,Left ,62,1809436874307 ,48,4609882370872 ,7,69716326000619
22.7304608 ,Left ,62,1701774448368 ,48,4797743551611 ,7,65854391231539
22.7536875 ,Left ,62,1367666820209 ,48,4795664859498 ,7,64397714326979
22.7762686 ,Left ,62,1167199010616 ,48,4624295409767 ,7,66162603985095
22.7818104 ,Left ,62,0998812815953 ,48,4412226968388 ,7,68792382693449
22.7977353 ,Left ,62,1065919965432 ,48,4043817296295 ,7,72048736675459
22.8188234 ,Left ,62,1478251948317 ,48,3220585224039 ,7,75850722460967
22.8420996 ,Left ,62,2226459011376 ,48,2078061874767 ,7,77804323514032
22.8599065 ,Left ,62,3057195063774 ,48,0922319073021 ,7,77874231049548
22.8795747 ,Left ,62,3919016300654 ,47,9729029960086 ,7,78176745040565
22.9021693 ,Left ,62,48590966433 ,47,8546881268364 ,7,78592475976058
22.9198204 ,Left ,62,5840179187069 ,47,7699276117129 ,7,81458091877954
22.9388061 ,Left ,62,6557575975867 ,47,7633461355009 ,7,83856446385994
22.9621725 ,Left ,62,6958200343519 ,47,8141045290272 ,7,84546614842647
22.9796556 ,Left ,62,7550678166801 ,47,8849903887861 ,7,8831526088332
22.999163 ,Left ,62,767838464645 ,47,9545624936735 ,7,91921376539779
23.021793 ,Left ,62,7277268170221 ,48,031912850498 ,7,95133588742358
23.0380851 ,Left ,62,6755997349708 ,48,0914560441883 ,7,99750858468045
23.0591236 ,Left ,62,6483289636313 ,48,1332541236487 ,8,04351404239703
23.0817804 ,Left ,62,6219809082233 ,48,1472051795119 ,8,05804109686039
23.0980226 ,Left ,62,5984341155048 ,48,1461493101678 ,8,0813502914073
23.1189556 ,Left ,62,5897091404477 ,48,1527614914044 ,8,09702315555288
23.1415477 ,Left ,62,5867629286814 ,48,1712832094629 ,8,12651851337957
23.1579345 ,Left ,62,6186375988889 ,48,1934086979555 ,8,16966794014206
23.1790635 ,Left ,62,6360895479574 ,48,2109536254762 ,8,2131051080053
23.2017535 ,Left ,62,6597458522867 ,48,207790435193 ,8,24939323388395
23.2182073 ,Left ,62,6876497073741 ,48,2089804436605 ,8,27874051803787
23.239417 ,Left ,62,7074440398559 ,48,2347059032277 ,8,2811635976163
23.2617553 ,Left ,62,6948275434499 ,48,261983478534 ,8,29188362371056
23.2781105 ,Left ,62,6967911192874 ,48,2899297917993 ,8,31597252063354
23.2992995 ,Left ,62,7057152075318 ,48,3188433727604 ,8,34341905509458
23.3220361 ,Left ,62,7095875292696 ,48,340162149858 ,8,35688073820272
23.3382091 ,Left ,62,6873167208021 ,48,3464622376866 ,8,36760904894049
23.359352 ,Left ,62,6815023366856 ,48,3408940855595 ,8,37490248582236
23.3818876 ,Left ,62,6815765949485 ,48,3401389004988 ,8,37639504788017
23.3982991 ,Left ,62,6734131876424 ,48,3431290966194 ,8,37497574265876
23.4192983 ,Left ,62,6484202880268 ,48,3449882822619 ,8,38179882634384
23.4418136 ,Left ,62,6401677941116 ,48,3360655578489 ,8,39852432587205
23.4581097 ,Left ,62,6374668097069 ,48,334740183704 ,8,42295587087971
23.4792454 ,Left ,62,6289497420345 ,48,3384005537217 ,8,45067716365936
23.5018615 ,Left ,62,6277176149884 ,48,3551607054877 ,8,47349688344873
23.5197177 ,Left ,62,6558316055977 ,48,3785019819862 ,8,47582470914218
23.5392552 ,Left ,62,6777992018336 ,48,4057432144971 ,8,46816572308713
23.5616546 ,Left ,62,6792859934275 ,48,4378770301934 ,8,46836552562055
23.5797159 ,Left ,62,6770434408175 ,48,4735096941125 ,8,46279742094145
23.5992488 ,Left ,62,6712235099246 ,48,5127429553308 ,8,45637454298208
23.6220485 ,Left ,62,6551585784938 ,48,5450651191751 ,8,45803732701806
23.6396657 ,Left ,62,6462138940453 ,48,5768332557677 ,8,4660620623402
23.6591908 ,Left ,62,6357286844999 ,48,6034281185475 ,8,47211671702189
23.6818883 ,Left ,62,6174469051482 ,48,6136229319482 ,8,48041374012167
23.699733 ,Left ,62,6083360025544 ,48,6064468885937 ,8,50349182424264
23.7193808 ,Left ,62,5978392761915 ,48,6001355067136 ,8,53576168926435
23.7417999 ,Left ,62,5682199864165 ,48,5776716414528 ,8,57310212010669
23.7596147 ,Left ,62,546769555973 ,48,5455603592215 ,8,60726571704049
23.7790079 ,Left ,62,5176644249192 ,48,5233274575075 ,8,64328432550644
23.8016928 ,Left ,62,5104056001542 ,48,5006657365263 ,8,68618625408357
23.8195503 ,Left ,62,5403706090138 ,48,4911499445755 ,8,71888576785111
23.8389803 ,Left ,62,6055105745808 ,48,4889195096443 ,8,73899782282375
23.8616953 ,Left ,62,6607990438768 ,48,4704389241581 ,8,75398147704522
23.8843574 ,Left ,62,7159626710815 ,48,4502120095715 ,8,7619216906736
23.8993591 ,Left ,62,7445981510947 ,48,4400758674401 ,8,74064344768538
23.9220738 ,Left ,62,7550117351989 ,48,4338782010329 ,8,6925620939658
23.9442844 ,Left ,62,7623145136786 ,48,4157874988217 ,8,63856330645286
23.9593914 ,Left ,62,7682885042997 ,48,3895760149039 ,8,59963916727531
23.9817924 ,Left ,62,7716486481534 ,48,3614080807691 ,8,5621679270519
24.0042463 ,Left ,62,768602075366 ,48,3525342404249 ,8,54412178411741
24.0194294 ,Left ,62,7651961516478 ,48,3398187743452 ,8,5459632555641
24.0418114 ,Left ,62,746634474174 ,48,3650105927748 ,8,57095419373484
24.0645291 ,Left ,62,7493029078789 ,48,3892848351376 ,8,57796413957936
24.079165 ,Left ,62,7647481726138 ,48,3798356800617 ,8,5844056744799
24.1019754 ,Left ,62,8060873895073 ,48,3506263859331 ,8,58825096498108
24.1245671 ,Left ,62,7923965099933 ,48,3363116497939 ,8,57048154449805
24.1407226 ,Left ,62,7577427060687 ,48,3176979076459 ,8,55179309177878
24.1617248 ,Left ,62,7583397365867 ,48,3292070148069 ,8,54998013362265
24.1841945 ,Left ,62,8121198111613 ,48,3737380511664 ,8,55617806212169
24.200764 ,Left ,62,8494996277851 ,48,4442871043247 ,8,57889302616269
24.2220678 ,Left ,62,8404464371456 ,48,5134887535145 ,8,57668670109697
24.2442682 ,Left ,62,8413451755116 ,48,5489421001289 ,8,59029216316208
24.2606565 ,Left ,62,8635760375016 ,48,5496691658383 ,8,61839608413891
24.2819771 ,Left ,62,8204029124151 ,48,5612818024112 ,8,65108287921822
24.3045197 ,Left ,62,7738909912172 ,48,5781627417093 ,8,67366729822421
24.3206649 ,Left ,62,7279542829536 ,48,5842929874917 ,8,68589910915792
24.3418204 ,Left ,62,6910271005521 ,48,5848302608874 ,8,68973879082887
24.3645335 ,Left ,62,6324926471109 ,48,5935146275202 ,8,69973734663846
24.3807974 ,Left ,62,5921393209117 ,48,6261236144494 ,8,69780856327889
24.4018103 ,Left ,62,5512876266987 ,48,6853421324529 ,8,64851415611697
24.424469 ,Left ,62,493633867288 ,48,718231538208 ,8,58528960763596
24.442112 ,Left ,62,4535675749421 ,48,7171129046246 ,8,54843550904094
24.4617336 ,Left ,62,4485033417302 ,48,7282185391286 ,8,53081295972491
24.4842589 ,Left ,62,4265841004417 ,48,7577038727454 ,8,517180684658
24.5021925 ,Left ,62,4349286547727 ,48,7704389335658 ,8,49664936065718
24.5217603 ,Left ,62,4162009215217 ,48,7692467314914 ,8,48104896176902
24.5441942 ,Left ,62,4001464773556 ,48,7656403494238 ,8,45976234302831
24.5621434 ,Left ,62,3767731489881 ,48,7703409315811 ,8,41749325698319
24.5818312 ,Left ,62,3409700271782 ,48,7743875184026 ,8,35941760840515
24.6043225 ,Left ,62,2725312429042 ,48,7803542576357 ,8,30362930960077
24.6222052 ,Left ,62,2098209764544 ,48,7616605530511 ,8,24999479990642
24.6419097 ,Left ,62,1674478630081 ,48,7162200632019 ,8,24230814535193
24.6639293 ,Left ,62,1283540324112 ,48,6413529127697 ,8,22502443479775
24.6818386 ,Left ,62,0973287497619 ,48,5788262308821 ,8,2255606463137
24.7014375 ,Left ,62,1135168026246 ,48,4942483237499 ,8,22613014038186
24.7242593 ,Left ,62,195485914301 ,48,3643317009337 ,8,23931978125288
24.7420785 ,Left ,62,3274283229483 ,48,2102270061273 ,8,25923144099524
24.7617963 ,Left ,62,4207952608321 ,48,0689626245425 ,8,26871883916971
24.7844271 ,Left ,62,5087263242947 ,47,9566628872544 ,8,28954023297879
24.8022475 ,Left ,62,6147215293076 ,47,8458172531026 ,8,31441413288793
24.8219942 ,Left ,62,7142510349667 ,47,7754836705751 ,8,35887481200806
24.8445339 ,Left ,62,7911124930932 ,47,7681769241085 ,8,38786648757006
24.8621872 ,Left ,62,8694140526185 ,47,8042814373841 ,8,40584444250257
24.881846 ,Left ,62,9128897135261 ,47,8515110938284 ,8,43256180100447
24.904099 ,Left ,62,9120826040198 ,47,8895605772831 ,8,45037952092472
24.9219431 ,Left ,62,8394005677239 ,47,9279172415715 ,8,491711174443
24.9415753 ,Left ,62,7910474083123 ,47,9599092383715 ,8,54517059381785
24.964316 ,Left ,62,7453072908512 ,47,9738742003579 ,8,58509332336655
24.9821335 ,Left ,62,7739259397918 ,48,0055231544967 ,8,63182796870966
25.0019212 ,Left ,62,7794572193812 ,48,0409831757694 ,8,64635398406615
25.0243895 ,Left ,62,80440098201 ,48,0664495651501 ,8,66059854144306
25.0418728 ,Left ,62,8406292833877 ,48,0811969273447 ,8,69180644169409
25.0631135 ,Left ,62,8878952309198 ,48,1103788335985 ,8,72664983210166
25.0840097 ,Left ,62,9147008734462 ,48,1467685778154 ,8,75408415612072
25.1018967 ,Left ,62,935532627776 ,48,1782540526813 ,8,7824367232134
25.1230917 ,Left ,62,9656781943035 ,48,2033265010348 ,8,80368404868609
25.144277 ,Left ,62,9830832845161 ,48,2012712249207 ,8,8061264687946
25.1619148 ,Left ,62,9977628368234 ,48,1933275414729 ,8,82361885792134
25.1831169 ,Left ,63,0043912998713 ,48,2205597092975 ,8,84613981875231
25.2043119 ,Left ,62,9950412589885 ,48,2573204671341 ,8,86379819175926
25.2220202 ,Left ,62,9954069848454 ,48,2788391692085 ,8,87881343496777
25.2431373 ,Left ,63,0060622822756 ,48,2989883555831 ,8,89006026579624
25.2640505 ,Left ,63,0012119676702 ,48,313211954957 ,8,89613576618709
25.2822239 ,Left ,62,9920523896878 ,48,3180026980929 ,8,90118720169262
25.3032628 ,Left ,62,9962383750362 ,48,3078671290261 ,8,91188287351153
25.324413 ,Left ,63,0081531875238 ,48,290504063546 ,8,92265892433261
25.3422005 ,Left ,62,9999908802909 ,48,2741329214583 ,8,93593041100038
25.3644135 ,Left ,62,9996818061542 ,48,2669455101839 ,8,95168124744914
25.3839366 ,Left ,63,0005270740036 ,48,2483946081771 ,8,97325718317279
25.4018788 ,Left ,62,9995771102101 ,48,248457002826 ,8,99369742850657
25.4249207 ,Left ,63,0100426497702 ,48,2692942360245 ,8,99856176379616
25.4445649 ,Left ,63,023751566079 ,48,2945462055785 ,9,00112688623016
25.4622922 ,Left ,63,038316539804 ,48,314169519603 ,9,00592995750844
25.4847698 ,Left ,63,0430375560374 ,48,3384415684427 ,9,01224726007403
25.504572 ,Left ,63,0335868574205 ,48,3595351465631 ,9,02105141041726
25.5221614 ,Left ,63,0429104659551 ,48,3966802524464 ,9,03399351108283
25.5447815 ,Left ,63,0320940525585 ,48,429055166516 ,9,04317522532274
25.5646116 ,Left ,63,0125290867155 ,48,4613395694795 ,9,04828489257966
25.5820705 ,Left ,63,0146254228947 ,48,5031946144845 ,9,04142271215031
25.6048351 ,Left ,63,0003825436968 ,48,544046532537 ,9,0284875159098
25.6243846 ,Left ,62,9660022669438 ,48,5729692727986 ,9,03229456667269
25.641957 ,Left ,62,9321627437699 ,48,5883377961978 ,9,05056158707092
25.6644293 ,Left ,62,9066058341963 ,48,5997571977205 ,9,08283265018146
25.6840433 ,Left ,62,8804653276995 ,48,6016493299528 ,9,13158085283762
25.7021037 ,Left ,62,841339104645 ,48,5712869762587 ,9,1942135018234
25.7247572 ,Left ,62,8146293814993 ,48,5424666039964 ,9,26433942833845
25.7443519 ,Left ,62,7618088454295 ,48,5559698384265 ,9,32684359952993
25.7620615 ,Left ,62,7140339149322 ,48,5763966793198 ,9,37557291246543
25.7847596 ,Left ,62,7216833537841 ,48,5687126624788 ,9,41849941902992
25.8043077 ,Left ,62,780416645912 ,48,5827840179937 ,9,42774511832921
25.8219057 ,Left ,62,8365987949235 ,48,5691442573386 ,9,40802211209849
25.8444538 ,Left ,62,8861550570539 ,48,5263385507296 ,9,37386696757087
25.8640259 ,Left ,62,9260353692665 ,48,4881028473613 ,9,31711068979632
25.8821375 ,Left ,62,9769508656274 ,48,4657700578345 ,9,25105717719104
25.9048151 ,Left ,63,0277722255961 ,48,439533727078 ,9,1996650535397
25.9244919 ,Left ,63,0810713816608 ,48,4078836204752 ,9,14465520540053
25.9420942 ,Left ,63,0800589933784 ,48,3543520628058 ,9,09331206482953
25.9646988 ,Left ,63,0761352301149 ,48,309558246914 ,9,05370450130668
25.985681 ,Left ,63,0751577565493 ,48,3273625404192 ,9,02871161013387
26.0022438 ,Left ,63,0761693712629 ,48,3624738227371 ,9,00880442630392
26.0247917 ,Left ,63,0558784356535 ,48,4117475998504 ,9,01147506081704
26.0457969 ,Left ,63,041221760678 ,48,432230621218 ,9,00491362560481
26.0668029 ,Left ,63,0374918565295 ,48,4187422804214 ,9,00324195547437
26.0846832 ,Left ,63,0543161137811 ,48,3805516932563 ,9,00812658079952
26.1057346 ,Left ,63,0548376862513 ,48,369076252052 ,8,99924314877453
26.1222841 ,Left ,63,044390073951 ,48,3474815870308 ,8,99580373474745
26.1446557 ,Left ,63,045590635319 ,48,3271616250141 ,8,99628508321852
26.1657651 ,Left ,63,053266285042 ,48,3468159705634 ,9,00123487442082
26.1822315 ,Left ,63,1085941152531 ,48,39708547727 ,9,02200400843428
26.2047114 ,Left ,63,0831310039726 ,48,4565274773341 ,9,02948855134363
26.2257519 ,Left ,63,0585706038891 ,48,4842043495931 ,9,04889568012577
26.2422173 ,Left ,63,0805012387433 ,48,4981455156011 ,9,0811587173226
26.2646439 ,Left ,63,0593493586692 ,48,518150692181 ,9,1048981362864
26.2856818 ,Left ,63,0175127127795 ,48,5539171884523 ,9,12282456376598
26.3007933 ,Left ,62,9495860542537 ,48,5581922552511 ,9,12159965725631
26.3240411 ,Left ,62,9077198306982 ,48,5481893112406 ,9,12885161818224
26.3464067 ,Left ,62,8286246811534 ,48,5660115095056 ,9,1348752797416
26.3677301 ,Left ,62,7809979541529 ,48,6130653899717 ,9,126607343954
26.3839453 ,Left ,62,7422019729792 ,48,6590023100483 ,9,08858504889681
26.406388 ,Left ,62,7069399274032 ,48,678266180197 ,9,05426924433239
26.4275119 ,Left ,62,6917802800651 ,48,6720256603171 ,9,02366216880534
26.4439046 ,Left ,62,6954500716428 ,48,6725733873059 ,8,98418550878144
26.4662269 ,Left ,62,6972212914024 ,48,6655973955338 ,8,94852433240951
26.4873286 ,Left ,62,7144571861338 ,48,6727380739741 ,8,91991415722648
26.5035869 ,Left ,62,6835028687486 ,48,6929585921494 ,8,87972190580612
26.5260966 ,Left ,62,6710050447354 ,48,7359336118457 ,8,85462269707302
26.5405687 ,Left ,62,6494102360293 ,48,8163092642717 ,8,83484335467502
26.5635417 ,Left ,62,5892267493795 ,48,9010496813194 ,8,81659330552871
26.5863228 ,Left ,62,5339531910762 ,48,9811894886282 ,8,7896383793492
26.6007467 ,Left ,62,4682380918394 ,49,0373884446784 ,8,73800621764952
26.6237429 ,Left ,62,362671535589 ,49,0192247186415 ,8,694659054538
26.6462539 ,Left ,62,2871053605341 ,48,9131477072333 ,8,67317918552267
26.6673211 ,Left ,62,2409442206337 ,48,7697397169269 ,8,65981989140321
26.6837749 ,Left ,62,1883289333738 ,48,6831989560721 ,8,63900261859872
26.7062513 ,Left ,62,1260882318253 ,48,6797153509751 ,8,6020103324631
26.7273704 ,Left ,62,1183706789756 ,48,6915149943326 ,8,57353499908736
26.7436867 ,Left ,62,1787074298962 ,48,6641894097402 ,8,59680752624792
26.7663124 ,Left ,62,1986033340867 ,48,6244297923896 ,8,62680304591346
26.7806355 ,Left ,62,2170343328396 ,48,5847007344556 ,8,66242207608511
26.8037158 ,Left ,62,2759651594622 ,48,5078085995356 ,8,73803426748802
26.8260026 ,Left ,62,3785707199456 ,48,3799676308012 ,8,80323428659067
26.8471909 ,Left ,62,4672606367985 ,48,2535595529715 ,8,85303913034635
26.86379 ,Left ,62,504852268394 ,48,163734845099 ,8,88360522482105
26.8864071 ,Left ,62,5362718720008 ,48,1188517993371 ,8,91012619034413
26.9077001 ,Left ,62,5920934570581 ,48,0808430062697 ,8,90251687922894
26.9239113 ,Left ,62,6544096523298 ,48,0284543436407 ,8,87803575727526
26.9463533 ,Left ,62,7001601967961 ,48,0001446596566 ,8,88052648876868
26.9674403 ,Left ,62,7176081410483 ,48,0197496477749 ,8,89787701618214
26.9839074 ,Left ,62,7064879861029 ,48,0506957563634 ,8,90994777422365
27.0065456 ,Left ,62,7342004180015 ,48,0800385280542 ,8,95350092566513
27.0274905 ,Left ,62,7532169860393 ,48,1149275978985 ,8,99434694625585
27.043823 ,Left ,62,7254579414672 ,48,1674410977819 ,9,03423423299456
27.0664014 ,Left ,62,695300230767 ,48,2040298849835 ,9,06748649887252
27.0876586 ,Left ,62,6870099184752 ,48,2002582546222 ,9,08682067778987
27.1039362 ,Left ,62,7256867989666 ,48,219284957783 ,9,09590153495087
27.1260998 ,Left ,62,7362413128631 ,48,2327428355551 ,9,0973492055122
27.1471019 ,Left ,62,7729416801801 ,48,2433673955292 ,9,10677705989498
27.1638133 ,Left ,62,7970149006386 ,48,2559024114166 ,9,11571527330376
27.1861954 ,Left ,62,8036391179287 ,48,2807255143443 ,9,13871078896227
27.2075804 ,Left ,62,8211292763739 ,48,3085350638522 ,9,18804443471235
27.2237901 ,Left ,62,8057170894608 ,48,3272486685162 ,9,23619158130087
27.2462919 ,Left ,62,8325106868749 ,48,3232123011348 ,9,28068992226191
27.268904 ,Left ,62,8423298886278 ,48,3533539798913 ,9,3299850794058
27.2837561 ,Left ,62,8463153583644 ,48,4245461012831 ,9,37445982467189
27.3064232 ,Left ,62,8466461095567 ,48,4811403293484 ,9,40612334565353
27.3290333 ,Left ,62,9127379897088 ,48,510595343154 ,9,42503569996858
27.3439249 ,Left ,62,9319884947659 ,48,5270199812677 ,9,41370705541223
27.3662782 ,Left ,62,9321366383532 ,48,534159000447 ,9,39811044677965
27.3888964 ,Left ,62,9514379218097 ,48,5522405440536 ,9,3776282836168
27.4040089 ,Left ,62,9693050773687 ,48,5686693243435 ,9,37192043762629
27.4262902 ,Left ,62,9755069482453 ,48,5757503251424 ,9,37160823783645
27.4484671 ,Left ,62,9978082990888 ,48,5698901698297 ,9,38823202979935
27.4630885 ,Left ,63,0157797714602 ,48,5798227100582 ,9,41282606183555
27.4860926 ,Left ,63,0213297639663 ,48,5919364514571 ,9,43050979162061
27.5086557 ,Left ,63,037773644406 ,48,5951938573386 ,9,45600672418699
27.5231704 ,Left ,63,0712248384977 ,48,5991794952637 ,9,46722802130675
27.5463446 ,Left ,63,0902836324139 ,48,6033735992881 ,9,46890256094824
27.5689266 ,Left ,63,1051257264231 ,48,6120513591032 ,9,45864574354581
27.5831411 ,Left ,63,1057288566555 ,48,6137486286227 ,9,45928241301625
27.6062801 ,Left ,63,1092959337842 ,48,6344973962227 ,9,45442391612267
27.6287863 ,Left ,63,0854509194466 ,48,6599944257365 ,9,45401699915794
27.6431187 ,Left ,63,0765558393617 ,48,6917184526849 ,9,45387604013556
27.6663086 ,Left ,63,0579063165048 ,48,7201060650215 ,9,45321499093798
27.688962 ,Left ,63,0337903327556 ,48,7341306078956 ,9,46421760832429
27.7031397 ,Left ,62,9984782652935 ,48,7269309198605 ,9,48575309897913
27.7261774 ,Left ,63,0003496684353 ,48,6995306157239 ,9,52155470470748
27.7488064 ,Left ,62,9785875127873 ,48,6504495726629 ,9,56393082503157
27.7698312 ,Left ,62,9496931531381 ,48,5772088749502 ,9,6009040887956
27.7862334 ,Left ,62,9356541007161 ,48,5085220236075 ,9,64730690566116
27.8086116 ,Left ,62,9188327366194 ,48,4844628387305 ,9,68946848182269
27.8300253 ,Left ,62,9377198460066 ,48,4797451701012 ,9,71571809783793
27.8463132 ,Left ,63,0019906520857 ,48,4902060781713 ,9,72323394348893
27.8688978 ,Left ,63,0625853395517 ,48,4968993864594 ,9,7080150889177
27.8897755 ,Left ,63,1061955042459 ,48,4835588397148 ,9,68521525150019
27.9062823 ,Left ,63,1503850423228 ,48,4620654634238 ,9,65145529102152
27.9285995 ,Left ,63,1726802546092 ,48,4437122121192 ,9,6068239648414
27.9496777 ,Left ,63,1697060984639 ,48,4165536380129 ,9,5615571540872
27.9662306 ,Left ,63,1669863439204 ,48,3803364247776 ,9,52693075708299
27.9888736 ,Left ,63,1666259293086 ,48,3215807199599 ,9,50522020969492
28.0100573 ,Left ,63,1622807642329 ,48,2648519034729 ,9,48212298110674
28.026417 ,Left ,63,1306578871351 ,48,2005110205164 ,9,46276063854125
28.0488264 ,Left ,63,1509149376489 ,48,1443614530059 ,9,46467777102335
28.0701632 ,Left ,63,15643116275 ,48,1153998885936 ,9,47135275842762
28.0863545 ,Left ,63,1838515814479 ,48,1195909626282 ,9,49063365674961
28.1086244 ,Left ,63,2022703702668 ,48,1384757444956 ,9,48409740365447
28.1297912 ,Left ,63,2196974033554 ,48,1352025987532 ,9,45912887615932
28.1462084 ,Left ,63,2387449761937 ,48,1148696809728 ,9,46092833959889
28.1687674 ,Left ,63,253273626109 ,48,1367522605723 ,9,4216417652616
28.1899428 ,Left ,63,2257875518326 ,48,1431644411358 ,9,39377519330481
28.2063352 ,Left ,63,2230014274522 ,48,1412477197206 ,9,39529839787031
28.2288723 ,Left ,63,2612931846354 ,48,1276693102872 ,9,4403872293665
28.2512068 ,Left ,63,291971711566 ,48,1506943611496 ,9,49907373923142
28.2663885 ,Left ,63,264495638597 ,48,1996913795002 ,9,51314198853447
28.2888723 ,Left ,63,2031839615677 ,48,2211237560374 ,9,51046184304593
28.3112693 ,Left ,63,1856751249802 ,48,2292991394191 ,9,5443280394701
28.3262589 ,Left ,63,1547805994525 ,48,2845118481702 ,9,57683716652444
28.348586 ,Left ,63,0826701808876 ,48,3605727675646 ,9,57337731083284
28.3712857 ,Left ,63,0203606329195 ,48,4088226012607 ,9,57069796805351
28.3855304 ,Left ,62,8873519433224 ,48,4329708247783 ,9,59975611590181
28.4086432 ,Left ,62,7905913612645 ,48,4336190363073 ,9,64117569377606
28.4310997 ,Left ,62,7865848716533 ,48,4417404057356 ,9,67090352430602
28.4456799 ,Left ,62,7458214403299 ,48,4785295184618 ,9,64301798316683
28.4688969 ,Left ,62,6792375277724 ,48,5240041363693 ,9,5940108890278
28.4913959 ,Left ,62,6640184255767 ,48,5618483166802 ,9,54304255090531
28.5057616 ,Left ,62,6866957504387 ,48,5860469476003 ,9,49573734290983
28.5289017 ,Left ,62,6860002745178 ,48,6091231480928 ,9,4577239239863
28.5514116 ,Left ,62,6483191720458 ,48,6257867794598 ,9,40139009256816
28.5656065 ,Left ,62,6265581580916 ,48,6260686258819 ,9,35043965624869
28.5888937 ,Left ,62,6067731023737 ,48,626408078854 ,9,3036460551877
28.6114523 ,Left ,62,5587844808298 ,48,6395280766433 ,9,26196677934321
28.6258254 ,Left ,62,4954822472206 ,48,6673526031937 ,9,23357354591809
28.6489013 ,Left ,62,4389216172369 ,48,6941506557732 ,9,2014840000576
28.6713576 ,Left ,62,3974382428719 ,48,7126192717359 ,9,17317200086679
28.6857913 ,Left ,62,3417774210717 ,48,7196277096457 ,9,14043390176641
28.7088717 ,Left ,62,3048805293911 ,48,7190841604368 ,9,11649322829498
28.7313562 ,Left ,62,2725747307771 ,48,6836383734318 ,9,11630300541331
28.7526735 ,Left ,62,2684967999503 ,48,6227260756309 ,9,14007878347314
28.7688961 ,Left ,62,2653147613111 ,48,5807012024224 ,9,16488866543049
28.7914473 ,Left ,62,2469558300709 ,48,5779755880262 ,9,1699993414393
28.8126732 ,Left ,62,2501072273814 ,48,5785722885216 ,9,17628748317042
28.8289097 ,Left ,62,2764630253969 ,48,5641891276078 ,9,20161637900709
28.8514035 ,Left ,62,3160438877368 ,48,5406340927134 ,9,22801780410475
28.872667 ,Left ,62,3715762453031 ,48,517915597472 ,9,25557111572023
28.8888417 ,Left ,62,428872357252 ,48,4989450963734 ,9,27366783498314
28.9113848 ,Left ,62,4768661135256 ,48,4869048861428 ,9,27593084139388
28.9324127 ,Left ,62,5218432357332 ,48,4891428522661 ,9,27821913504589
28.949006 ,Left ,62,5507450700334 ,48,5029393700926 ,9,29136266594492
28.9713812 ,Left ,62,5752501005668 ,48,5251658693584 ,9,29786344348438
28.9926379 ,Left ,62,5855557808698 ,48,5435066339448 ,9,30326738470714
29.0088698 ,Left ,62,5873511944178 ,48,538224493631 ,9,31399007607327
29.0313421 ,Left ,62,6046546338316 ,48,5255151618055 ,9,32558520287616
29.0523391 ,Left ,62,6188418522825 ,48,5196919002763 ,9,33410873491041
29.0689167 ,Left ,62,6338864861589 ,48,5156268013276 ,9,3369061507738
29.091418 ,Left ,62,6435918414054 ,48,5085784780718 ,9,34620333858316
29.1123013 ,Left ,62,6491956682134 ,48,5174806594958 ,9,35697785298334
29.128709 ,Left ,62,6495807852917 ,48,5427851391351 ,9,35943560794639
29.1512723 ,Left ,62,6407921432643 ,48,5752818389238 ,9,35112944755661
29.173795 ,Left ,62,6175107675064 ,48,5957247887832 ,9,34624019904116
29.1889059 ,Left ,62,6166319152913 ,48,6063509458086 ,9,35278486558794
29.2113527 ,Left ,62,5927467795354 ,48,6316754708813 ,9,35815611480807
29.2338266 ,Left ,62,5371111095644 ,48,6863082912044 ,9,34818512868254
29.2489395 ,Left ,62,472059784236 ,48,7482024584727 ,9,31306436997246
29.2713603 ,Left ,62,4350575170352 ,48,7482045995259 ,9,26257716568416
29.2938695 ,Left ,62,4153722292588 ,48,7015354806276 ,9,23764099841129
29.3089471 ,Left ,62,3810967431247 ,48,6551262613766 ,9,22325318129549
29.3313394 ,Left ,62,3424520211643 ,48,6274045339609 ,9,22478358288859
29.3539179 ,Left ,62,367988031667 ,48,6235729369575 ,9,25652435715812
29.3682068 ,Left ,62,4667260976582 ,48,6103233632111 ,9,29680783536404
29.3913635 ,Left ,62,5498529143209 ,48,5929322622875 ,9,34760155348121
29.4139339 ,Left ,62,5872322212022 ,48,5772357813968 ,9,3914071227888
29.4282706 ,Left ,62,6340240427385 ,48,5507532096977 ,9,4390376919832
29.45135 ,Left ,62,7028658452561 ,48,5295620434145 ,9,48177461208617
29.4736104 ,Left ,62,754347488788 ,48,5055168085663 ,9,51909468966073
29.488102 ,Left ,62,7683166562156 ,48,4811788056542 ,9,5596178696258
29.5111089 ,Left ,62,7789989286019 ,48,4629368178444 ,9,59363931187341
29.5337592 ,Left ,62,76764981596 ,48,4451699918092 ,9,62233536714737
29.5477321 ,Left ,62,7455410314074 ,48,4320122057055 ,9,6440961304147
29.5710831 ,Left ,62,7312159077651 ,48,4243818945599 ,9,66276433422993
29.5937018 ,Left ,62,7389680506253 ,48,4367916605218 ,9,67812847705914
29.6084501 ,Left ,62,7614535806573 ,48,4649647183236 ,9,69277789187017
29.6313501 ,Left ,62,7942467364576 ,48,5030992105363 ,9,70613157140304
29.654037 ,Left ,62,8319676506565 ,48,530865332867 ,9,71502322127806
29.6750186 ,Left ,62,8607210196722 ,48,5447669504063 ,9,7168910383454
29.6913341 ,Left ,62,9021700547694 ,48,5410189586061 ,9,71918562648205
29.713912 ,Left ,62,9133248961283 ,48,5160060066451 ,9,72189011040869
29.7351211 ,Left ,62,9247681307327 ,48,4998937970683 ,9,72990214245968
29.7514535 ,Left ,62,9297211534552 ,48,4914374868669 ,9,73492543982206
29.7740554 ,Left ,62,9341029334901 ,48,5032108129023 ,9,7505173840478
29.7949203 ,Left ,62,9340774638099 ,48,5350926195415 ,9,76822242772933
29.8113927 ,Left ,62,9314674303027 ,48,5692589125681 ,9,79766492451647
29.8339036 ,Left ,62,9188505711524 ,48,602475457596 ,9,8224420284351
29.8548235 ,Left ,62,9094500389482 ,48,6230480381277 ,9,84261050106019
29.8713907 ,Left ,62,9088085061209 ,48,6353622940325 ,9,86504177527032
29.8938634 ,Left ,62,8862882302516 ,48,6514730322471 ,9,88630282484571
29.9151345 ,Left ,62,8620656276623 ,48,6717582813948 ,9,91347053204407
29.9314167 ,Left ,62,8591244457644 ,48,6975774855004 ,9,91736809889557
29.9539164 ,Left ,62,8390300077089 ,48,6967254833931 ,9,92532128090014
29.9750412 ,Left ,62,8358688746 ,48,7112709952721 ,9,934401073047
29.9915968 ,Left ,62,8372827602798 ,48,7431264332518 ,9,94145433130913
30.0139888 ,Left ,62,856361330211 ,48,7918079659129 ,9,93654638420296
30.0349544 ,Left ,62,8574071406934 ,48,8275404613474 ,9,93031264964344
30.0514174 ,Left ,62,8667105319224 ,48,8600218705144 ,9,91914435168602
30.0737354 ,Left ,62,8597111214913 ,48,891812301839 ,9,91311275715755
30.094934 ,Left ,62,8467153792729 ,48,9112408813926 ,9,91847611246838
30.1112393 ,Left ,62,8277832595744 ,48,91553409981 ,9,93844631817736
30.1337719 ,Left ,62,8110866194498 ,48,897421362262 ,9,98292603213112
30.1563254 ,Left ,62,7701787336852 ,48,8580274551197 ,10,0290847114412
30.1712773 ,Left ,62,7143530346614 ,48,8209742271206 ,10,1030130412988
30.1935573 ,Left ,62,6547100444157 ,48,7962979431057 ,10,1817039526963
30.216191 ,Left ,62,6248465687883 ,48,7965902473262 ,10,2619168044128
30.2313363 ,Left ,62,6435301914819 ,48,8338798748927 ,10,2834752974707
30.2537592 ,Left ,62,6843449400435 ,48,8779356189537 ,10,2612533636168
30.2766519 ,Left ,62,7320107174706 ,48,8957514247411 ,10,2326224969829
30.2910079 ,Left ,62,7895349683954 ,48,8866815573434 ,10,2128615730468
30.3141557 ,Left ,62,8308449717803 ,48,8788054254915 ,10,1626712762824
30.3365617 ,Left ,62,8327764513339 ,48,8379340440877 ,10,0926125416071
30.3507359 ,Left ,62,8487124261798 ,48,7893833667335 ,10,0439694238771
30.3738296 ,Left ,62,8151042438243 ,48,7458327744622 ,10,0031866994858
30.3962397 ,Left ,62,8269181930421 ,48,6847804017152 ,9,97155935246563
30.4107318 ,Left ,62,8859625821714 ,48,6226434722227 ,9,97187939935071
30.4338129 ,Left ,62,91284182827 ,48,6109347163929 ,9,98789434212735
30.4562963 ,Left ,62,8931348547244 ,48,6249499263251 ,9,99106247270606
30.4704526 ,Left ,62,89270438363 ,48,6418807349191 ,9,98360619683801
30.493746 ,Left ,62,936096424402 ,48,6428518761572 ,9,98781851076178
30.5160172 ,Left ,62,9143825586711 ,48,6664586987884 ,9,98580229937075
30.5304162 ,Left ,62,8676976498792 ,48,6943299584496 ,9,94862044136044
30.5535958 ,Left ,62,8007624283918 ,48,6864439337933 ,9,92742172369301
30.5760891 ,Left ,62,8330491614002 ,48,6850007631323 ,9,94663319565357
30.5909518 ,Left ,62,8436611865954 ,48,7333921293224 ,9,98884116731813
30.6141551 ,Left ,62,852783431591 ,48,8122042695468 ,10,0196045908394
30.6366628 ,Left ,62,8332176343631 ,48,8571953734311 ,10,0378504712393
30.6573265 ,Left ,62,8035661975983 ,48,8834834460174 ,10,0617849981793
30.6737612 ,Left ,62,7746643729767 ,48,8944409271289 ,10,0689131412306
30.6962772 ,Left ,62,7291371994117 ,48,8974347939829 ,10,0780141304821
30.7173637 ,Left ,62,6779703038775 ,48,9025505584314 ,10,0861854115169
30.7338246 ,Left ,62,5975741213422 ,48,9013757220592 ,10,0855458765632
30.7566585 ,Left ,62,5482677617495 ,48,8747869553897 ,10,0729774948465
30.7778913 ,Left ,62,5471392004146 ,48,8484138017592 ,10,0584943884969
30.7942328 ,Left ,62,504627171603 ,48,8510995275332 ,10,023728581681
30.8165522 ,Left ,62,404133552672 ,48,8868593873671 ,9,97243969031846
30.8373042 ,Left ,62,3518363915411 ,48,9293255649644 ,9,91854128658272
30.8530643 ,Left ,62,3759746065481 ,48,957208762413 ,9,87473475258104
30.8761069 ,Left ,62,3972722170094 ,48,9671442061124 ,9,83398695931542
30.8973174 ,Left ,62,3621127135234 ,48,9660342143483 ,9,77551032031933
30.9137245 ,Left ,62,3282222883233 ,48,939673596595 ,9,71281774942929
30.9363142 ,Left ,62,3022960341074 ,48,9024655719867 ,9,6486584312994
30.9573233 ,Left ,62,2682988249853 ,48,8829642122672 ,9,58549092894428
30.973604 ,Left ,62,2219691888168 ,48,8902315936274 ,9,53514397465465
30.9962679 ,Left ,62,1740024740467 ,48,8914726965545 ,9,48434506153372
31.0170645 ,Left ,62,1211262457755 ,48,8662230374404 ,9,44354387819885
31.0338022 ,Left ,62,0705995090962 ,48,8204548459909 ,9,41876609896569
31.0560022 ,Left ,62,0120201057561 ,48,7830083726025 ,9,40750396544798
31.0792032 ,Left ,61,9712692883432 ,48,7272646024843 ,9,39967095640823
31.0942723 ,Left ,61,9689115913851 ,48,6749183740104 ,9,42345169933775
31.1166663 ,Left ,62,0033658483556 ,48,6110175631613 ,9,45151794256035
31.139139 ,Left ,62,0590898203268 ,48,5162798104619 ,9,47422446403555
31.1531869 ,Left ,62,1325019727849 ,48,3500047752655 ,9,50799395390121
31.1762117 ,Left ,62,2463823698796 ,48,1686070999407 ,9,54475614415136
31.1988298 ,Left ,62,3501578287705 ,48,031128501889 ,9,56660459931011
31.2131922 ,Left ,62,4377735608043 ,47,9561070343163 ,9,60746333389244
31.2360588 ,Left ,62,5332802693028 ,47,8959089273682 ,9,63222088293614
31.2585788 ,Left ,62,6476835579256 ,47,8453938449754 ,9,65402667146861
31.2730474 ,Left ,62,7263551493704 ,47,8406274655978 ,9,68431410422973
31.2963054 ,Left ,62,7513915393376 ,47,8650111857541 ,9,68975535993311
31.3188219 ,Left ,62,7726518896885 ,47,9245393245227 ,9,71243484156289
31.3398988 ,Left ,62,7934812025924 ,47,9846638142699 ,9,73517373216185
31.356177 ,Left ,62,775283843204 ,48,0428972898511 ,9,74164805834502
31.37859 ,Left ,62,7446866834941 ,48,1017903205398 ,9,76156497498942
31.3929285 ,Left ,62,7041688606807 ,48,1371793427692 ,9,7920207789826
31.4162524 ,Left ,62,7005072054762 ,48,1559948191044 ,9,82282224405201
31.4389291 ,Left ,62,7176963417403 ,48,1944187341734 ,9,83703353339441
31.4596722 ,Left ,62,7198210627763 ,48,224776462241 ,9,83663722189926
31.4761059 ,Left ,62,7703534442514 ,48,2820802327414 ,9,83207084850329
31.4986933 ,Left ,62,785693054103 ,48,3271146453496 ,9,80309165258791
31.513077 ,Left ,62,7648219498789 ,48,366291836531 ,9,80970465601241
31.536447 ,Left ,62,737222157005 ,48,409337912126 ,9,86426792192019
31.5588089 ,Left ,62,7422892703688 ,48,4454657163414 ,9,92386815360321
31.5801393 ,Left ,62,7306119530554 ,48,4612703514583 ,9,96224099758921
31.5964295 ,Left ,62,7400434069991 ,48,4751109939792 ,9,97408972075039
31.618904 ,Left ,62,7330989557249 ,48,4926713878877 ,9,97892674530015
31.6401496 ,Left ,62,6798603480842 ,48,5014182579621 ,9,98641040122413
31.6563907 ,Left ,62,6701406428908 ,48,508969132921 ,10,0021803487377
31.6789594 ,Left ,62,6794065164138 ,48,5042319056167 ,10,0209393905733
31.7001521 ,Left ,62,6697808093894 ,48,480945565249 ,10,0414009253237
31.716386 ,Left ,62,6646550148285 ,48,4587713349699 ,10,0611020744538
31.7389065 ,Left ,62,6487351450115 ,48,4447629824668 ,10,0806011953211
31.7598899 ,Left ,62,6355920938578 ,48,4326162138383 ,10,0985728818047
31.7763373 ,Left ,62,6331178270501 ,48,4130520574966 ,10,1153750444326
31.799076 ,Left ,62,6322882048554 ,48,385446527466 ,10,1233834178305
31.8201221 ,Left ,62,6320991730255 ,48,3618277026475 ,10,1327476562387
31.8363499 ,Left ,62,6533132491557 ,48,3472727103862 ,10,1439872935871
31.8588248 ,Left ,62,6783790241713 ,48,3378336194531 ,10,1612573435129
31.8801599 ,Left ,62,7029551846912 ,48,3359403655725 ,10,1855894038523
31.8964316 ,Left ,62,7139375087771 ,48,3303616927188 ,10,2049735619507
31.9187939 ,Left ,62,7337502703042 ,48,3222375041615 ,10,2276252575396
31.940213 ,Left ,62,7497014513774 ,48,3169867275275 ,10,2524127010951
31.9563939 ,Left ,62,7490649846435 ,48,3154870851544 ,10,2766588436177
31.9789534 ,Left ,62,7702774231743 ,48,3268759311938 ,10,2992733278308
32.0013517 ,Left ,62,7723211429344 ,48,3369039857457 ,10,3098569468299
32.0164403 ,Left ,62,7786832717321 ,48,3602604329347 ,10,3219385541389
32.0390706 ,Left ,62,7715961770151 ,48,4005306804691 ,10,32681189093
32.0615466 ,Left ,62,7715052358509 ,48,4462094337565 ,10,338870126664
32.0763093 ,Left ,62,7710363806119 ,48,5047214276372 ,10,3269635887877
32.0991289 ,Left ,62,7436449873181 ,48,5395221207926 ,10,3196923123069
32.1213837 ,Left ,62,7147692759889 ,48,5814445662022 ,10,3288355714835
32.1364142 ,Left ,62,6737103733838 ,48,6389773970152 ,10,3363874841339
32.158896 ,Left ,62,6364491840866 ,48,6861743143078 ,10,349753194344
32.1814802 ,Left ,62,5989472846037 ,48,6986155642862 ,10,3825342941036
32.1958166 ,Left ,62,5449573544524 ,48,6698629384087 ,10,4475728048678
32.2188618 ,Left ,62,5317175551154 ,48,6088742479817 ,10,5132212107494
32.241171 ,Left ,62,5022603310093 ,48,5634873638592 ,10,5516299518899
32.2554749 ,Left ,62,4767537123332 ,48,5691753321277 ,10,5439626910733
32.2786494 ,Left ,62,537546080913 ,48,5945270956965 ,10,5055897865423
32.3010821 ,Left ,62,6396860721462 ,48,5899182658222 ,10,4733082777926
32.3155643 ,Left ,62,7392073191449 ,48,5555214223736 ,10,4548396302025
32.3390485 ,Left ,62,7739201622137 ,48,5363503774777 ,10,4145220684066
32.3613932 ,Left ,62,7933226588243 ,48,5153488280486 ,10,3606608211288
32.3758746 ,Left ,62,8096673060902 ,48,5065790972035 ,10,3213263314114
32.3989316 ,Left ,62,8078822126996 ,48,4940607216884 ,10,3012496691574
32.421558 ,Left ,62,7971841340632 ,48,4859814840965 ,10,2823268342904
32.4358355 ,Left ,62,7790184091044 ,48,4752899211826 ,10,2258983558805
32.4588806 ,Left ,62,777245141441 ,48,4863675458678 ,10,1916213173849
32.4815981 ,Left ,62,7875711305716 ,48,5122915683811 ,10,1953868534223
32.5026443 ,Left ,62,7656667498758 ,48,5515932676077 ,10,20859142743
32.5191062 ,Left ,62,7543677634928 ,48,5816313590792 ,10,204831347033
32.5413826 ,Left ,62,7576914495755 ,48,5859113505384 ,10,2025536689809
32.5624727 ,Left ,62,7887625943815 ,48,5743687932292 ,10,2143452594247
32.5789281 ,Left ,62,7776747678046 ,48,5580037706327 ,10,199975454541
32.6014222 ,Left ,62,7457536603393 ,48,5043096813513 ,10,1811241137985
32.622633 ,Left ,62,7602136700266 ,48,4361445341306 ,10,1786657830237
32.6389403 ,Left ,62,8090687817837 ,48,4341367695623 ,10,2047971762584
32.661415 ,Left ,62,8965454902922 ,48,4698089666992 ,10,2245885844274
32.6826284 ,Left ,62,9329528705684 ,48,5220043413317 ,10,248414069418
32.6988556 ,Left ,62,9433253488541 ,48,5618412918192 ,10,2702792337492
32.7213901 ,Left ,62,9149553278898 ,48,579408761143 ,10,2936395125436
32.7424387 ,Left ,62,8698678861007 ,48,584627518646 ,10,3174953952899
32.7588994 ,Left ,62,8260660364528 ,48,5825299622282 ,10,337568175495
32.7810803 ,Left ,62,7975219028696 ,48,583142243151 ,10,3385446385756
32.8022422 ,Left ,62,7350190592937 ,48,5869994575115 ,10,3295936270035
32.8186622 ,Left ,62,6344269586257 ,48,5858817072689 ,10,3378083392947
32.8413435 ,Left ,62,581443971387 ,48,5929360717147 ,10,3442350357518
32.8623391 ,Left ,62,5651458480699 ,48,6249202894425 ,10,3242754321716
32.8788115 ,Left ,62,5615814118024 ,48,6539138417942 ,10,2650841511533
32.9013159 ,Left ,62,5079258611297 ,48,6657802948807 ,10,2241290466483
32.9223373 ,Left ,62,4721176735462 ,48,684493645929 ,10,1833012011557
32.9391525 ,Left ,62,4614585854602 ,48,7123150686346 ,10,1417880313115
32.961727 ,Left ,62,4901921246227 ,48,7278158616051 ,10,113241327613
32.9841385 ,Left ,62,4744610712421 ,48,7366661333152 ,10,0845142067631
32.9992339 ,Left ,62,4320844626732 ,48,7115872158903 ,10,0478694353087
33.0216299 ,Left ,62,4107878219111 ,48,6873967607935 ,10,0180188783898
33.0441094 ,Left ,62,3893460115587 ,48,6777166847029 ,9,99097078912521
33.0588482 ,Left ,62,3562623212017 ,48,6851343838902 ,9,96282305005099
33.0813017 ,Left ,62,3115748774918 ,48,6892079281902 ,9,94746891950474
33.103845 ,Left ,62,2938967042604 ,48,685829733868 ,9,9387341059025
33.1181235 ,Left ,62,2846676854471 ,48,6938403558584 ,9,92638655879843
33.1412371 ,Left ,62,2580830381298 ,48,7023006099626 ,9,9016925491059
33.1637725 ,Left ,62,2167698677525 ,48,684950194255 ,9,87146838502946
33.1779249 ,Left ,62,1967605283469 ,48,6395156991636 ,9,84908230313402
33.2012243 ,Left ,62,1872556422419 ,48,6210221049978 ,9,82719097464509
33.2238846 ,Left ,62,1564441903673 ,48,5857206335134 ,9,80012382248014
33.2380529 ,Left ,62,1431499004781 ,48,5252681681747 ,9,80932595737451
33.2615443 ,Left ,62,1661963008497 ,48,4371579393444 ,9,85048578885964
33.2839622 ,Left ,62,2075591619127 ,48,3343722341307 ,9,89537977706749
33.3052778 ,Left ,62,2771919915578 ,48,2113601917716 ,9,92858747612164
33.3216128 ,Left ,62,3617194280808 ,48,0844263683395 ,9,9571860965826
33.3441468 ,Left ,62,4293382451067 ,47,9665286513017 ,9,99320885751534
33.3650878 ,Left ,62,5060605100698 ,47,8816277751336 ,10,027063115383
33.3814499 ,Left ,62,5664623437143 ,47,811342976679 ,10,0386894668793
33.4037756 ,Left ,62,6037466387919 ,47,7767522679195 ,10,047561364274
33.4248476 ,Left ,62,5995534281043 ,47,7950748169546 ,10,0338926891772
33.4412094 ,Left ,62,5804309927011 ,47,8485924651297 ,10,0480750714274
33.4639426 ,Left ,62,5964351078836 ,47,9076958115488 ,10,0864582570153
33.4849809 ,Left ,62,5874032362718 ,47,9919246241371 ,10,1329313838294
33.5013662 ,Left ,62,5873700643911 ,48,0940668006652 ,10,1865053943585
33.5238976 ,Left ,62,5672178767964 ,48,1749410361846 ,10,2405957524702
33.5447366 ,Left ,62,5579591933086 ,48,2240076739538 ,10,2926345468701
33.561342 ,Left ,62,5781737140757 ,48,2657933204627 ,10,3222146847896
33.5838913 ,Left ,62,5706228159841 ,48,3013514769775 ,10,3381229706089
33.6049415 ,Left ,62,571061195569 ,48,3210796637071 ,10,3483080329286
33.6115692 ,Left ,62,5995705613944 ,48,346223434745 ,10,3735042626491
33.6265746 ,Left ,62,6208930174208 ,48,3770278562511 ,10,3766408406039
33.6492458 ,Left ,62,6273199700782 ,48,4042978282181 ,10,3803064575543
33.6719419 ,Left ,62,6302970696115 ,48,4283808405275 ,10,3984313716137
33.6867509 ,Left ,62,6296317266974 ,48,443103717777 ,10,4165080247769
33.7090547 ,Left ,62,6146344513373 ,48,4252777605447 ,10,4339482895483
33.7316905 ,Left ,62,61771107475 ,48,4077729064205 ,10,4567174613305
