timestamp,event,roll,pitch,yaw
0.0260657 ,Left ,63,1232194048791 ,49,5638795964529 ,61,8739444627059
0.0260704 ,Left ,63,1232194048791 ,49,5638795964529 ,61,8739444627059
0.0493894 ,Left ,63,1264402038461 ,49,5645379604092 ,61,879174328224
0.049397 ,Left ,63,1264402038461 ,49,5645379604092 ,61,879174328224
0.0636943 ,Left ,63,1336275051377 ,49,5565255607515 ,61,8860332839902
0.0637022 ,Left ,63,1336275051377 ,49,5565255607515 ,61,8860332839902
0.0868753 ,Left ,63,1271186143868 ,49,5489511394766 ,61,8930346546261
0.0868804 ,Left ,63,1271186143868 ,49,5489511394766 ,61,8930346546261
0.1091785 ,Left ,63,1244464282907 ,49,5486510123135 ,61,9061336636233
0.109183 ,Left ,63,1244464282907 ,49,5486510123135 ,61,9061336636233
0.1234366 ,Left ,63,1427096315237 ,49,5529265637049 ,61,9225705113152
0.123441 ,Left ,63,1427096315237 ,49,5529265637049 ,61,9225705113152
0.1466354 ,Left ,63,155611042269 ,49,5551239961653 ,61,9414817400005
0.1466401 ,Left ,63,155611042269 ,49,5551239961653 ,61,9414817400005
0.1689584 ,Left ,63,1514858661719 ,49,5529284617284 ,61,9648894381903
0.1689625 ,Left ,63,1514858661719 ,49,5529284617284 ,61,9648894381903
0.183654 ,Left ,63,1635877053424 ,49,5552101186421 ,61,9908669263187
0.1836619 ,Left ,63,1635877053424 ,49,5552101186421 ,61,9908669263187
0.2066255 ,Left ,63,1828596187701 ,49,5565070551391 ,62,0220157547144
0.2066297 ,Left ,63,1828596187701 ,49,5565070551391 ,62,0220157547144
0.2287026 ,Left ,63,203883783973 ,49,561440559073 ,62,0570462349199
0.2287044 ,Left ,63,203883783973 ,49,561440559073 ,62,0570462349199
0.243276 ,Left ,63,212878381867 ,49,5651568218485 ,62,0878436964012
0.2432786 ,Left ,63,212878381867 ,49,5651568218485 ,62,0878436964012
0.2664908 ,Left ,63,2142732077176 ,49,5741922193523 ,62,1171587707624
0.2664928 ,Left ,63,2142732077176 ,49,5741922193523 ,62,1171587707624
0.2889597 ,Left ,63,2265552124186 ,49,5809701303438 ,62,147407069579
0.2889618 ,Left ,63,2265552124186 ,49,5809701303438 ,62,147407069579
0.3099043 ,Left ,63,2378378314638 ,49,5868162087484 ,62,1746576044744
0.3099065 ,Left ,63,2378378314638 ,49,5868162087484 ,62,1746576044744
0.3265288 ,Left ,63,2608020093479 ,49,5874170169364 ,62,1995964926894
0.3265313 ,Left ,63,2608020093479 ,49,5874170169364 ,62,1995964926894
0.3488648 ,Left ,63,2649264416288 ,49,5829300983276 ,62,2212948493024
0.3488672 ,Left ,63,2649264416288 ,49,5829300983276 ,62,2212948493024
0.3699647 ,Left ,63,2678297966883 ,49,5782704339567 ,62,2378499948289
0.3699675 ,Left ,63,2678297966883 ,49,5782704339567 ,62,2378499948289
0.3862667 ,Left ,63,2795979340884 ,49,5754902998143 ,62,2593702745552
0.3862686 ,Left ,63,2795979340884 ,49,5754902998143 ,62,2593702745552
0.408893 ,Left ,63,2938837558949 ,49,5758757021232 ,62,2756440869663
0.4088951 ,Left ,63,2938837558949 ,49,5758757021232 ,62,2756440869663
0.4300544 ,Left ,63,3096433114164 ,49,5756809251179 ,62,2874530853008
0.4300578 ,Left ,63,3096433114164 ,49,5756809251179 ,62,2874530853008
0.4463571 ,Left ,63,3154312546994 ,49,5723549970903 ,62,2891948307111
0.4463589 ,Left ,63,3154312546994 ,49,5723549970903 ,62,2891948307111
0.4694409 ,Left ,63,3255135289629 ,49,5729961512958 ,62,2933924279852
0.4694488 ,Left ,63,3255135289629 ,49,5729961512958 ,62,2933924279852
0.4904998 ,Left ,63,3298086304948 ,49,5769632256727 ,62,2958503844466
0.4905077 ,Left ,63,3298086304948 ,49,5769632256727 ,62,2958503844466
0.5069954 ,Left ,63,3359016896738 ,49,5884682222668 ,62,2905063240261
0.5070105 ,Left ,63,3359016896738 ,49,5884682222668 ,62,2905063240261
0.5290053 ,Left ,63,3466787187438 ,49,5954033806894 ,62,2818104634031
0.5290088 ,Left ,63,3466787187438 ,49,5954033806894 ,62,2818104634031
0.5500557 ,Left ,63,3368393649365 ,49,6011248937238 ,62,2662819410638
0.5500577 ,Left ,63,3368393649365 ,49,6011248937238 ,62,2662819410638
0.5665125 ,Left ,63,3325752222214 ,49,608145316159 ,62,2504377282886
0.5665144 ,Left ,63,3325752222214 ,49,608145316159 ,62,2504377282886
0.5890546 ,Left ,63,3298308671384 ,49,6149503772669 ,62,2321942204221
0.5890571 ,Left ,63,3298308671384 ,49,6149503772669 ,62,2321942204221
0.6101135 ,Left ,63,3419896900839 ,49,6196111943365 ,62,2110642517897
0.6101173 ,Left ,63,3419896900839 ,49,6196111943365 ,62,2110642517897
0.6265367 ,Left ,63,3353235811548 ,49,6163947430097 ,62,1786949176686
0.6265387 ,Left ,63,3353235811548 ,49,6163947430097 ,62,1786949176686
0.6489705 ,Left ,63,3200196311359 ,49,6147477838716 ,62,1456124098356
0.6489731 ,Left ,63,3200196311359 ,49,6147477838716 ,62,1456124098356
0.6698532 ,Left ,63,3144030329483 ,49,6106606741094 ,62,1083546360086
0.6698562 ,Left ,63,3144030329483 ,49,6106606741094 ,62,1083546360086
0.6862556 ,Left ,63,3033521335789 ,49,6066264413595 ,62,0656559258697
0.6862574 ,Left ,63,3033521335789 ,49,6066264413595 ,62,0656559258697
0.7090444 ,Left ,63,2778751232122 ,49,6027873076828 ,62,0163847256743
0.7090468 ,Left ,63,2778751232122 ,49,6027873076828 ,62,0163847256743
0.7313938 ,Left ,63,242731290055 ,49,5864234589908 ,61,9667899473937
0.7313973 ,Left ,63,242731290055 ,49,5864234589908 ,61,9667899473937
0.7478833 ,Left ,63,2128504712087 ,49,5689227640238 ,61,9243792677489
0.7478877 ,Left ,63,2128504712087 ,49,5689227640238 ,61,9243792677489
0.7694222 ,Left ,63,183072256641 ,49,5509539207082 ,61,880026213285
0.76943 ,Left ,63,183072256641 ,49,5509539207082 ,61,880026213285
0.7919645 ,Left ,63,1295805704892 ,49,5177134269499 ,61,8389510849065
0.7919797 ,Left ,63,1295805704892 ,49,5177134269499 ,61,8389510849065
0.8068858 ,Left ,63,0733411613574 ,49,4759627062444 ,61,8145692896476
0.8069042 ,Left ,63,0733411613574 ,49,4759627062444 ,61,8145692896476
0.828837 ,Left ,62,9875414542183 ,49,425071046156 ,61,7999761109333
0.8288392 ,Left ,62,9875414542183 ,49,425071046156 ,61,7999761109333
0.8590199 ,Left ,62,9114459517493 ,49,3714174702247 ,61,7912016825673
0.8590218 ,Left ,62,9114459517493 ,49,3714174702247 ,61,7912016825673
0.8663112 ,Left ,62,8389800001851 ,49,3154704384525 ,61,8021516295916
0.8663129 ,Left ,62,8389800001851 ,49,3154704384525 ,61,8021516295916
0.889019 ,Left ,62,8010480266072 ,49,2693197367044 ,61,8342793474463
0.8890232 ,Left ,62,8010480266072 ,49,2693197367044 ,61,8342793474463
0.9112696 ,Left ,62,894205120534 ,49,2239799232383 ,61,8582329437755
0.9112715 ,Left ,62,894205120534 ,49,2239799232383 ,61,8582329437755
0.9258457 ,Left ,63,011931668057 ,49,2139326668049 ,61,8619656399274
0.9258482 ,Left ,63,011931668057 ,49,2139326668049 ,61,8619656399274
0.9488694 ,Left ,63,0953566292679 ,49,2298532242405 ,61,8124600933612
0.9488721 ,Left ,63,0953566292679 ,49,2298532242405 ,61,8124600933612
0.9713828 ,Left ,63,0817881842938 ,49,2695093081326 ,61,740838671094
0.971386 ,Left ,63,0817881842938 ,49,2695093081326 ,61,740838671094
0.9859696 ,Left ,63,1052284681564 ,49,323477378681 ,61,6692851965473
0.9859731 ,Left ,63,1052284681564 ,49,323477378681 ,61,6692851965473
1.0087381 ,Left ,63,1385898962145 ,49,3565644172966 ,61,6108956556147
1.0087401 ,Left ,63,1385898962145 ,49,3565644172966 ,61,6108956556147
1.0315281 ,Left ,63,1333134208796 ,49,3680360099527 ,61,5446433869114
1.0315301 ,Left ,63,1333134208796 ,49,3680360099527 ,61,5446433869114
1.0523868 ,Left ,63,0353062459032 ,49,3741660279972 ,61,4668274488586
1.0523888 ,Left ,63,0353062459032 ,49,3741660279972 ,61,4668274488586
1.0690311 ,Left ,62,9288618227167 ,49,3618628190656 ,61,4034132892815
1.0690338 ,Left ,62,9288618227167 ,49,3618628190656 ,61,4034132892815
1.0915737 ,Left ,62,8221560555924 ,49,3101362593562 ,61,3418405535855
1.0915758 ,Left ,62,8221560555924 ,49,3101362593562 ,61,3418405535855
1.1130701 ,Left ,62,8261790618526 ,49,2491363688145 ,61,2830934876598
1.1130802 ,Left ,62,8261790618526 ,49,2491363688145 ,61,2830934876598
1.1292161 ,Left ,62,8052179874309 ,49,1324993629933 ,61,2741993572248
1.1292237 ,Left ,62,8052179874309 ,49,1324993629933 ,61,2741993572248
1.1518741 ,Left ,62,8212626054824 ,49,036800280607 ,61,2953725544601
1.1518819 ,Left ,62,8212626054824 ,49,036800280607 ,61,2953725544601
1.1726605 ,Left ,62,775437280016 ,48,9977859016538 ,61,2957899843295
1.172664 ,Left ,62,775437280016 ,48,9977859016538 ,61,2957899843295
1.1889377 ,Left ,62,6672217457983 ,48,9784140045127 ,61,2810916204645
1.1889411 ,Left ,62,6672217457983 ,48,9784140045127 ,61,2810916204645
1.2112866 ,Left ,62,6746932060716 ,48,994794949807 ,61,2772836491357
1.2112899 ,Left ,62,6746932060716 ,48,994794949807 ,61,2772836491357
1.2331299 ,Left ,62,687439507618 ,49,0106820090869 ,61,260644818582
1.2331383 ,Left ,62,687439507618 ,49,0106820090869 ,61,260644818582
1.2494389 ,Left ,62,5883467573466 ,48,9792222465651 ,61,244475862642
1.2494465 ,Left ,62,5883467573466 ,48,9792222465651 ,61,244475862642
1.2712309 ,Left ,62,4948572664503 ,48,9208632811012 ,61,2027265761067
1.2712327 ,Left ,62,4948572664503 ,48,9208632811012 ,61,2027265761067
1.2923415 ,Left ,62,4627203677954 ,48,8635433204563 ,61,1983573415938
1.2923433 ,Left ,62,4627203677954 ,48,8635433204563 ,61,1983573415938
1.3089133 ,Left ,62,5216975181194 ,48,7758087525646 ,61,2737954670978
1.3089151 ,Left ,62,5216975181194 ,48,7758087525646 ,61,2737954670978
1.3315013 ,Left ,62,6065907003298 ,48,7251204587971 ,61,3626165746605
1.3315034 ,Left ,62,6065907003298 ,48,7251204587971 ,61,3626165746605
1.3527154 ,Left ,62,5988541940524 ,48,738765426502 ,61,389899747612
1.3527187 ,Left ,62,5988541940524 ,48,738765426502 ,61,389899747612
1.3689637 ,Left ,62,5275927399738 ,48,7679315428434 ,61,3866218747982
1.3689669 ,Left ,62,5275927399738 ,48,7679315428434 ,61,3866218747982
1.3912816 ,Left ,62,5202849766355 ,48,791391618995 ,61,4267412101376
1.3912834 ,Left ,62,5202849766355 ,48,791391618995 ,61,4267412101376
1.4123488 ,Left ,62,4444950718257 ,48,8038694190734 ,61,4726743769375
1.4123509 ,Left ,62,4444950718257 ,48,8038694190734 ,61,4726743769375
1.4288574 ,Left ,62,3666712293835 ,48,7812000768723 ,61,4972582187591
1.4288597 ,Left ,62,3666712293835 ,48,7812000768723 ,61,4972582187591
1.4515207 ,Left ,62,3533490175265 ,48,7095138082034 ,61,5101969033526
1.4515231 ,Left ,62,3533490175265 ,48,7095138082034 ,61,5101969033526
1.472386 ,Left ,62,3466182643451 ,48,6330452585794 ,61,5175250852137
1.4723882 ,Left ,62,3466182643451 ,48,6330452585794 ,61,5175250852137
1.489063 ,Left ,62,2873170101952 ,48,5772404245443 ,61,4892081147282
1.4890656 ,Left ,62,2873170101952 ,48,5772404245443 ,61,4892081147282
1.5112201 ,Left ,62,1487463501279 ,48,5444778309992 ,61,4638961007131
1.5112219 ,Left ,62,1487463501279 ,48,5444778309992 ,61,4638961007131
1.5330679 ,Left ,62,0462513700869 ,48,5358559446623 ,61,4631573305432
1.533091 ,Left ,62,0462513700869 ,48,5358559446623 ,61,4631573305432
1.5493775 ,Left ,61,9321774934921 ,48,5590601391689 ,61,4554941649653
1.5493893 ,Left ,61,9321774934921 ,48,5590601391689 ,61,4554941649653
1.5715349 ,Left ,61,8644828049482 ,48,6057300542992 ,61,4394068764305
1.5715403 ,Left ,61,8644828049482 ,48,6057300542992 ,61,4394068764305
1.5929844 ,Left ,61,8769563460325 ,48,6482403089677 ,61,4362579214462
1.5930007 ,Left ,61,8769563460325 ,48,6482403089677 ,61,4362579214462
1.6084873 ,Left ,61,9052205896056 ,48,6711753297847 ,61,4344270999745
1.6084928 ,Left ,61,9052205896056 ,48,6711753297847 ,61,4344270999745
1.6316599 ,Left ,61,8520455162471 ,48,6763644764161 ,61,4016253973866
1.6316654 ,Left ,61,8520455162471 ,48,6763644764161 ,61,4016253973866
1.6525325 ,Left ,61,8149480563461 ,48,6635787081143 ,61,348092041795
1.6526392 ,Left ,61,8149480563461 ,48,6635787081143 ,61,348092041795
1.6694333 ,Left ,61,7819660953903 ,48,6484780881168 ,61,2965872998065
1.6694411 ,Left ,61,7819660953903 ,48,6484780881168 ,61,2965872998065
1.6922474 ,Left ,61,7491558110854 ,48,6275179619176 ,61,2430988921741
1.692263 ,Left ,61,7491558110854 ,48,6275179619176 ,61,2430988921741
1.713978 ,Left ,61,6797552493737 ,48,6031295718343 ,61,193618115073
1.7139821 ,Left ,61,6797552493737 ,48,6031295718343 ,61,193618115073
1.7289755 ,Left ,61,6499099058911 ,48,586446595234 ,61,1533170497298
1.7289791 ,Left ,61,6499099058911 ,48,586446595234 ,61,1533170497298
1.7518337 ,Left ,61,6467144761575 ,48,5664885927796 ,61,123303511593
1.7518415 ,Left ,61,6467144761575 ,48,5664885927796 ,61,123303511593
1.7738415 ,Left ,61,6125914803285 ,48,5401421728404 ,61,0948202386703
1.7738433 ,Left ,61,6125914803285 ,48,5401421728404 ,61,0948202386703
1.7888092 ,Left ,61,5542753855395 ,48,4932290762443 ,61,0744628990842
1.788811 ,Left ,61,5542753855395 ,48,4932290762443 ,61,0744628990842
1.8115088 ,Left ,61,5122404712585 ,48,4856734440417 ,61,0833662003366
1.8115109 ,Left ,61,5122404712585 ,48,4856734440417 ,61,0833662003366
1.8337497 ,Left ,61,4558284600607 ,48,49741179893 ,61,1026625409769
1.8337515 ,Left ,61,4558284600607 ,48,49741179893 ,61,1026625409769
1.8565488 ,Left ,61,4385795489701 ,48,4637213187937 ,61,115660222279
1.8565513 ,Left ,61,4385795489701 ,48,4637213187937 ,61,115660222279
1.8713371 ,Left ,61,4351065270983 ,48,4568238960984 ,61,1305119323267
1.8713443 ,Left ,61,4351065270983 ,48,4568238960984 ,61,1305119323267
1.893742 ,Left ,61,4324431461608 ,48,484085825638 ,61,1424306951956
1.8937437 ,Left ,61,4324431461608 ,48,484085825638 ,61,1424306951956
1.908359 ,Left ,61,4593295502736 ,48,4744038603433 ,61,130398012987
1.9083613 ,Left ,61,4593295502736 ,48,4744038603433 ,61,130398012987
1.9316056 ,Left ,61,4901395041844 ,48,4482958038759 ,61,1322874988267
1.9316085 ,Left ,61,4901395041844 ,48,4482958038759 ,61,1322874988267
1.9537122 ,Left ,61,4580600968389 ,48,4525031343485 ,61,1534174666326
1.9537173 ,Left ,61,4580600968389 ,48,4525031343485 ,61,1534174666326
1.9683476 ,Left ,61,4189456532116 ,48,4913130123234 ,61,1371726834697
1.9683497 ,Left ,61,4189456532116 ,48,4913130123234 ,61,1371726834697
1.9913399 ,Left ,61,4240648069834 ,48,527049277242 ,61,1304041968602
1.9913422 ,Left ,61,4240648069834 ,48,527049277242 ,61,1304041968602
2.0136936 ,Left ,61,5034048418209 ,48,5440466516146 ,61,1283855415565
2.0136954 ,Left ,61,5034048418209 ,48,5440466516146 ,61,1283855415565
2.0350585 ,Left ,61,5044835922395 ,48,5271514558449 ,61,13128466993
2.0350606 ,Left ,61,5044835922395 ,48,5271514558449 ,61,13128466993
2.0514853 ,Left ,61,4273809603641 ,48,4980233091181 ,61,1334288114923
2.0514873 ,Left ,61,4273809603641 ,48,4980233091181 ,61,1334288114923
2.0740368 ,Left ,61,3425589091167 ,48,4508587224165 ,61,1401381213747
2.0740395 ,Left ,61,3425589091167 ,48,4508587224165 ,61,1401381213747
2.0949071 ,Left ,61,3695989845599 ,48,3981422748688 ,61,1483690383603
2.0949093 ,Left ,61,3695989845599 ,48,3981422748688 ,61,1483690383603
2.1113529 ,Left ,61,4037867654931 ,48,3633773134281 ,61,1699843939702
2.1113557 ,Left ,61,4037867654931 ,48,3633773134281 ,61,1699843939702
2.1338194 ,Left ,61,4310446720538 ,48,391235717328 ,61,217958859649
2.1338213 ,Left ,61,4310446720538 ,48,391235717328 ,61,217958859649
2.1572435 ,Left ,61,4332553038902 ,48,4199855484599 ,61,2776935301448
2.1572458 ,Left ,61,4332553038902 ,48,4199855484599 ,61,2776935301448
2.1713117 ,Left ,61,4524187870578 ,48,4490018585394 ,61,3297326216329
2.1713136 ,Left ,61,4524187870578 ,48,4490018585394 ,61,3297326216329
2.1939326 ,Left ,61,5692490312739 ,48,480513748007 ,61,3588650363552
2.1939355 ,Left ,61,5692490312739 ,48,480513748007 ,61,3588650363552
2.2148881 ,Left ,61,7945975846453 ,48,5042776420408 ,61,4006984246122
2.2148902 ,Left ,61,7945975846453 ,48,5042776420408 ,61,4006984246122
2.2315017 ,Left ,62,027510378187 ,48,5010010246657 ,61,4253425972916
2.2315037 ,Left ,62,027510378187 ,48,5010010246657 ,61,4253425972916
2.2538861 ,Left ,62,1125493151079 ,48,4852153138126 ,61,4528581462197
2.2538892 ,Left ,62,1125493151079 ,48,4852153138126 ,61,4528581462197
2.2750786 ,Left ,62,1107456059446 ,48,4855956596687 ,61,4796667148602
2.2750806 ,Left ,62,1107456059446 ,48,4855956596687 ,61,4796667148602
2.2915203 ,Left ,62,0800037624768 ,48,4950915179803 ,61,5185528236286
2.2915225 ,Left ,62,0800037624768 ,48,4950915179803 ,61,5185528236286
2.3140382 ,Left ,62,0974878567549 ,48,5291683394481 ,61,5652439014419
2.314041 ,Left ,62,0974878567549 ,48,5291683394481 ,61,5652439014419
2.335116 ,Left ,62,1384194459101 ,48,5654020268973 ,61,6149928382822
2.3351203 ,Left ,62,1384194459101 ,48,5654020268973 ,61,6149928382822
2.3515882 ,Left ,62,1670779272684 ,48,5964202351797 ,61,6686233417461
2.3515927 ,Left ,62,1670779272684 ,48,5964202351797 ,61,6686233417461
2.3741388 ,Left ,62,1618540630116 ,48,6126653251749 ,61,730784830362
2.3741431 ,Left ,62,1618540630116 ,48,6126653251749 ,61,730784830362
2.3950758 ,Left ,62,1697816387037 ,48,6252830731227 ,61,799876853334
2.3950803 ,Left ,62,1697816387037 ,48,6252830731227 ,61,799876853334
2.4115571 ,Left ,62,2038410215071 ,48,6370367351864 ,61,8787792596235
2.4115591 ,Left ,62,2038410215071 ,48,6370367351864 ,61,8787792596235
2.4337207 ,Left ,62,228920902127 ,48,6418833531989 ,61,9607900674408
2.4337228 ,Left ,62,228920902127 ,48,6418833531989 ,61,9607900674408
2.4550365 ,Left ,62,2414187759754 ,48,6454064532882 ,62,0362842796239
2.4550384 ,Left ,62,2414187759754 ,48,6454064532882 ,62,0362842796239
2.4727426 ,Left ,62,2831957880824 ,48,6628734000214 ,62,1025435123495
2.4727448 ,Left ,62,2831957880824 ,48,6628734000214 ,62,1025435123495
2.4938887 ,Left ,62,2909565602391 ,48,6653733227685 ,62,175266918176
2.4938904 ,Left ,62,2909565602391 ,48,6653733227685 ,62,175266918176
2.5226553 ,Left ,62,3096350618004 ,48,6742783158046 ,62,2426770889572
2.5226586 ,Left ,62,3096350618004 ,48,6742783158046 ,62,2426770889572
2.5314927 ,Left ,62,3487708583534 ,48,6912219425397 ,62,3021302596163
2.5314963 ,Left ,62,3487708583534 ,48,6912219425397 ,62,3021302596163
2.5540621 ,Left ,62,3620521890276 ,48,7085668003761 ,62,3539456271031
2.5540665 ,Left ,62,3620521890276 ,48,7085668003761 ,62,3539456271031
2.5751463 ,Left ,62,4023369032231 ,48,7252131294899 ,62,4023369032231
2.5751507 ,Left ,62,4023369032231 ,48,7252131294899 ,62,4023369032231
2.5913662 ,Left ,62,4198111188629 ,48,727745794443 ,62,4420895030419
2.591368 ,Left ,62,4198111188629 ,48,727745794443 ,62,4420895030419
2.6139312 ,Left ,62,4518760953056 ,48,7328155479053 ,62,4782007089379
2.6139334 ,Left ,62,4518760953056 ,48,7328155479053 ,62,4782007089379
2.636307 ,Left ,62,4761508921387 ,48,7418279665375 ,62,5125893256155
2.6363088 ,Left ,62,4761508921387 ,48,7418279665375 ,62,5125893256155
2.6513468 ,Left ,62,5027637165776 ,48,7635458546087 ,62,5452433668505
2.6513486 ,Left ,62,5027637165776 ,48,7635458546087 ,62,5452433668505
2.6567557 ,Left ,62,5152907519703 ,48,7830964976283 ,62,5779579393616
2.6567574 ,Left ,62,5152907519703 ,48,7830964976283 ,62,5779579393616
2.6794442 ,Left ,62,5366360228993 ,48,7941134972547 ,62,603320217112
2.6794462 ,Left ,62,5366360228993 ,48,7941134972547 ,62,603320217112
2.7017477 ,Left ,62,5653981281139 ,48,7974797629572 ,62,6320762741818
2.7017496 ,Left ,62,5653981281139 ,48,7974797629572 ,62,6320762741818
2.7166881 ,Left ,62,568086041155 ,48,8061361712501 ,62,661003102906
2.7166901 ,Left ,62,568086041155 ,48,8061361712501 ,62,661003102906
2.7394604 ,Left ,62,5830620024629 ,48,8140283514627 ,62,6799926690874
2.7394634 ,Left ,62,5830620024629 ,48,8140283514627 ,62,6799926690874
2.7616932 ,Left ,62,5830203468618 ,48,8092678691109 ,62,6920861392617
2.761695 ,Left ,62,5830203468618 ,48,8092678691109 ,62,6920861392617
2.7783458 ,Left ,62,5922053640208 ,48,8075404228707 ,62,6972376446459
2.7783482 ,Left ,62,5922053640208 ,48,8075404228707 ,62,6972376446459
2.8009408 ,Left ,62,6099466473596 ,48,8107251345409 ,62,6988109559475
2.8009437 ,Left ,62,6099466473596 ,48,8107251345409 ,62,6988109559475
2.8219458 ,Left ,62,6066267362214 ,48,8221087042849 ,62,6914189440998
2.8219499 ,Left ,62,6066267362214 ,48,8221087042849 ,62,6914189440998
2.836701 ,Left ,62,601341184481 ,48,8335526654896 ,62,6699557402507
2.8367028 ,Left ,62,601341184481 ,48,8335526654896 ,62,6699557402507
2.8594855 ,Left ,62,6131639666418 ,48,8392728140736 ,62,6393938120728
2.8594876 ,Left ,62,6131639666418 ,48,8392728140736 ,62,6393938120728
2.8817046 ,Left ,62,6171577219164 ,48,8443560227064 ,62,6030363085993
2.8817065 ,Left ,62,6171577219164 ,48,8443560227064 ,62,6030363085993
2.8966775 ,Left ,62,6173551072993 ,48,8492517422116 ,62,5588624239644
2.8966793 ,Left ,62,6173551072993 ,48,8492517422116 ,62,5588624239644
2.9195158 ,Left ,62,6122561556974 ,48,8607906952636 ,62,5053974379882
2.9195178 ,Left ,62,6122561556974 ,48,8607906952636 ,62,5053974379882
2.9417734 ,Left ,62,6120783176662 ,48,8763583802208 ,62,4428063476848
2.9417911 ,Left ,62,6120783176662 ,48,8763583802208 ,62,4428063476848
2.9566891 ,Left ,62,5902630264056 ,48,8838156931794 ,62,3787250965517
2.9566909 ,Left ,62,5902630264056 ,48,8838156931794 ,62,3787250965517
2.9792666 ,Left ,62,5528507826668 ,48,8854157031037 ,62,3171483301356
2.9792684 ,Left ,62,5528507826668 ,48,8854157031037 ,62,3171483301356
3.0020011 ,Left ,62,5327689942038 ,48,8829703936283 ,62,2587640919734
3.0020056 ,Left ,62,5327689942038 ,48,8829703936283 ,62,2587640919734
3.0167605 ,Left ,62,5248742908385 ,48,8770389432086 ,62,1843162761183
3.0167624 ,Left ,62,5248742908385 ,48,8770389432086 ,62,1843162761183
3.0392862 ,Left ,62,5241894530136 ,48,8760966155333 ,62,1130858341362
3.039289 ,Left ,62,5241894530136 ,48,8760966155333 ,62,1130858341362
3.0618513 ,Left ,62,5052192438511 ,48,8880781611845 ,62,0519678751782
3.0618548 ,Left ,62,5052192438511 ,48,8880781611845 ,62,0519678751782
3.076854 ,Left ,62,4728405130468 ,48,9043108999818 ,62,0017206236336
3.076856 ,Left ,62,4728405130468 ,48,9043108999818 ,62,0017206236336
3.0993232 ,Left ,62,4235305079037 ,48,8974981489037 ,61,9583486765938
3.0993256 ,Left ,62,4235305079037 ,48,8974981489037 ,61,9583486765938
3.1219296 ,Left ,62,3817753514735 ,48,8706331293523 ,61,9242326606711
3.1219333 ,Left ,62,3817753514735 ,48,8706331293523 ,61,9242326606711
3.1366674 ,Left ,62,3571551439594 ,48,8165125975116 ,61,910893780322
3.1366692 ,Left ,62,3571551439594 ,48,8165125975116 ,61,910893780322
3.1592696 ,Left ,62,3541775803627 ,48,732113703205 ,61,9066352192453
3.1592722 ,Left ,62,3541775803627 ,48,732113703205 ,61,9066352192453
3.1904519 ,Left ,62,431459346855 ,48,6330032450838 ,61,9173772316368
3.1904537 ,Left ,62,431459346855 ,48,6330032450838 ,61,9173772316368
3.196688 ,Left ,62,4667708469473 ,48,5486435807869 ,61,9450794896911
3.1966898 ,Left ,62,4667708469473 ,48,5486435807869 ,61,9450794896911
3.2192436 ,Left ,62,453242151587 ,48,5207473119292 ,61,9392096893275
3.2192463 ,Left ,62,453242151587 ,48,5207473119292 ,61,9392096893275
3.2420225 ,Left ,62,4159117126498 ,48,5329426681861 ,61,9102480962529
3.242025 ,Left ,62,4159117126498 ,48,5329426681861 ,61,9102480962529
3.2584604 ,Left ,62,4260578817323 ,48,5524760682572 ,61,8962843205058
3.2584756 ,Left ,62,4260578817323 ,48,5524760682572 ,61,8962843205058
3.2794516 ,Left ,62,4858529076129 ,48,5852780073237 ,61,8935764127008
3.2794541 ,Left ,62,4858529076129 ,48,5852780073237 ,61,8935764127008
3.3017634 ,Left ,62,5008939279995 ,48,6229108024265 ,61,9012514952165
3.3017657 ,Left ,62,5008939279995 ,48,6229108024265 ,61,9012514952165
3.3182984 ,Left ,62,480408966281 ,48,6437745746532 ,61,9096287819855
3.3183015 ,Left ,62,480408966281 ,48,6437745746532 ,61,9096287819855
3.3395975 ,Left ,62,4267245531444 ,48,6493880249514 ,61,9169801472752
3.3396013 ,Left ,62,4267245531444 ,48,6493880249514 ,61,9169801472752
3.3619134 ,Left ,62,3712489080127 ,48,6344599057212 ,61,920177168702
3.361917 ,Left ,62,3712489080127 ,48,6344599057212 ,61,920177168702
3.3783716 ,Left ,62,3181852491629 ,48,6026865123668 ,61,9398555932865
3.3783736 ,Left ,62,3181852491629 ,48,6026865123668 ,61,9398555932865
3.3995029 ,Left ,62,2691284850827 ,48,5500262675866 ,61,9634744086092
3.399505 ,Left ,62,2691284850827 ,48,5500262675866 ,61,9634744086092
3.4217729 ,Left ,62,328966197194 ,48,5350766623189 ,61,9782986819704
3.4217754 ,Left ,62,328966197194 ,48,5350766623189 ,61,9782986819704
3.438317 ,Left ,62,3554413904355 ,48,4778857734102 ,61,9816098439809
3.4383254 ,Left ,62,3554413904355 ,48,4778857734102 ,61,9816098439809
3.4592281 ,Left ,62,3837593344036 ,48,4474857316483 ,61,9931777998422
3.4592298 ,Left ,62,3837593344036 ,48,4474857316483 ,61,9931777998422
3.481716 ,Left ,62,3478401283685 ,48,4736376366592 ,61,9678216312231
3.4817181 ,Left ,62,3478401283685 ,48,4736376366592 ,61,9678216312231
3.4984448 ,Left ,62,3158947358374 ,48,5188345372571 ,61,9181106724925
3.4984479 ,Left ,62,3158947358374 ,48,5188345372571 ,61,9181106724925
3.5195348 ,Left ,62,3747161854015 ,48,54635293088 ,61,8652116790746
3.5195392 ,Left ,62,3747161854015 ,48,54635293088 ,61,8652116790746
3.5422306 ,Left ,62,4193602201075 ,48,5665119289884 ,61,8328120530521
3.5422431 ,Left ,62,4193602201075 ,48,5665119289884 ,61,8328120530521
3.5599121 ,Left ,62,3708952069635 ,48,5896675535089 ,61,8092323522119
3.5599162 ,Left ,62,3708952069635 ,48,5896675535089 ,61,8092323522119
3.5795479 ,Left ,62,3154399124467 ,48,6083309755836 ,61,7805802992191
3.5795523 ,Left ,62,3154399124467 ,48,6083309755836 ,61,7805802992191
3.6022183 ,Left ,62,3407224762761 ,48,598709641932 ,61,7365131895159
3.6022226 ,Left ,62,3407224762761 ,48,598709641932 ,61,7365131895159
3.620213 ,Left ,62,3488443022696 ,48,5873158882525 ,61,703682845682
3.6202206 ,Left ,62,3488443022696 ,48,5873158882525 ,61,703682845682
3.640114 ,Left ,62,3075127778328 ,48,5810884805764 ,61,678498196972
3.640124 ,Left ,62,3075127778328 ,48,5810884805764 ,61,678498196972
3.6624515 ,Left ,62,1828865252807 ,48,5435959423855 ,61,6407227055367
3.6624594 ,Left ,62,1828865252807 ,48,5435959423855 ,61,6407227055367
3.6801889 ,Left ,62,0953065464141 ,48,4589257375504 ,61,5965287008125
3.6801963 ,Left ,62,0953065464141 ,48,4589257375504 ,61,5965287008125
3.700061 ,Left ,62,1411902001245 ,48,3780125551957 ,61,581554169764
3.7000689 ,Left ,62,1411902001245 ,48,3780125551957 ,61,581554169764
3.7220099 ,Left ,62,2543111362835 ,48,3546295983243 ,61,5772641886446
3.7220141 ,Left ,62,2543111362835 ,48,3546295983243 ,61,5772641886446
3.740083 ,Left ,62,2330719053154 ,48,3668890631956 ,61,568617235652
3.7400874 ,Left ,62,2330719053154 ,48,3668890631956 ,61,568617235652
3.7598018 ,Left ,62,1992545505264 ,48,3853355592475 ,61,572126153442
3.7598094 ,Left ,62,1992545505264 ,48,3853355592475 ,61,572126153442
3.7823232 ,Left ,62,1949558362386 ,48,424273694392 ,61,5645678887284
3.7823287 ,Left ,62,1949558362386 ,48,424273694392 ,61,5645678887284
3.8000691 ,Left ,62,166124382902 ,48,4219449898014 ,61,5377428698143
3.8000745 ,Left ,62,166124382902 ,48,4219449898014 ,61,5377428698143
3.819837 ,Left ,62,1113465379866 ,48,404111433446 ,61,5051025358385
3.8198427 ,Left ,62,1113465379866 ,48,404111433446 ,61,5051025358385
3.8424217 ,Left ,62,136824051457 ,48,3519208635662 ,61,4514969350953
3.8424275 ,Left ,62,136824051457 ,48,3519208635662 ,61,4514969350953
3.8598405 ,Left ,62,2244877428848 ,48,3126894058869 ,61,4560325910852
3.8598424 ,Left ,62,2244877428848 ,48,3126894058869 ,61,4560325910852
3.8792368 ,Left ,62,2943950946838 ,48,2814145639941 ,61,5394877644505
3.8792386 ,Left ,62,2943950946838 ,48,2814145639941 ,61,5394877644505
3.9019826 ,Left ,62,3640576717197 ,48,2946466256159 ,61,5745366069644
3.901985 ,Left ,62,3640576717197 ,48,2946466256159 ,61,5745366069644
3.9198176 ,Left ,62,3406587186313 ,48,3138734264821 ,61,5455084635571
3.9198201 ,Left ,62,3406587186313 ,48,3138734264821 ,61,5455084635571
3.9391666 ,Left ,62,3503515348836 ,48,2978432150393 ,61,5424207965029
3.9391686 ,Left ,62,3503515348836 ,48,2978432150393 ,61,5424207965029
3.9619062 ,Left ,62,3172132753146 ,48,3159640722694 ,61,5734893270596
3.9619092 ,Left ,62,3172132753146 ,48,3159640722694 ,61,5734893270596
3.9799825 ,Left ,62,222412380608 ,48,3119584065201 ,61,6142206767917
3.9799868 ,Left ,62,222412380608 ,48,3119584065201 ,61,6142206767917
3.9994776 ,Left ,62,2152263739619 ,48,2902600430519 ,61,6415282690831
3.9994823 ,Left ,62,2152263739619 ,48,2902600430519 ,61,6415282690831
4.0175574 ,Left ,62,2433360425963 ,48,276581606196 ,61,6570239331474
4.0175618 ,Left ,62,2433360425963 ,48,276581606196 ,61,6570239331474
4.0397483 ,Left ,62,2396983501021 ,48,2537448213825 ,61,6570309942716
4.0397518 ,Left ,62,2396983501021 ,48,2537448213825 ,61,6570309942716
4.0608632 ,Left ,62,1733132597279 ,48,2410807656501 ,61,6542541007197
4.0608652 ,Left ,62,1733132597279 ,48,2410807656501 ,61,6542541007197
4.077265 ,Left ,62,1038961612605 ,48,2450404086094 ,61,6693512168135
4.0772669 ,Left ,62,1038961612605 ,48,2450404086094 ,61,6693512168135
4.0998352 ,Left ,62,0556593807507 ,48,2164368615502 ,61,6515996498116
4.099838 ,Left ,62,0556593807507 ,48,2164368615502 ,61,6515996498116
4.1195533 ,Left ,61,9783859035211 ,48,1524818964089 ,61,6333408276196
4.1195572 ,Left ,61,9783859035211 ,48,1524818964089 ,61,6333408276196
4.1420156 ,Left ,61,864872412537 ,48,1167414000236 ,61,6207625191431
4.1420201 ,Left ,61,864872412537 ,48,1167414000236 ,61,6207625191431
4.1598676 ,Left ,61,8127144791422 ,48,1331181269416 ,61,6224988702889
4.1598719 ,Left ,61,8127144791422 ,48,1331181269416 ,61,6224988702889
4.179456 ,Left ,61,7985422739923 ,48,180023086979 ,61,6292848060237
4.1794602 ,Left ,61,7985422739923 ,48,180023086979 ,61,6292848060237
4.201986 ,Left ,61,8431242530092 ,48,2323533925557 ,61,6144289990539
4.2019904 ,Left ,61,8431242530092 ,48,2323533925557 ,61,6144289990539
4.2198012 ,Left ,61,8739289280596 ,48,2734698407784 ,61,5920714138681
4.2198053 ,Left ,61,8739289280596 ,48,2734698407784 ,61,5920714138681
4.2408545 ,Left ,61,8751347339579 ,48,3251158497716 ,61,5732480279072
4.2408586 ,Left ,61,8751347339579 ,48,3251158497716 ,61,5732480279072
4.257577 ,Left ,61,8637960363342 ,48,3867668167584 ,61,5523125882095
4.2575919 ,Left ,61,8637960363342 ,48,3867668167584 ,61,5523125882095
4.2798531 ,Left ,61,8394200747426 ,48,4282541732166 ,61,4915446664034
4.2798573 ,Left ,61,8394200747426 ,48,4282541732166 ,61,4915446664034
4.3009153 ,Left ,61,8070094146436 ,48,4113823354908 ,61,4323175642661
4.3009195 ,Left ,61,8070094146436 ,48,4113823354908 ,61,4323175642661
4.3175515 ,Left ,61,7605504384235 ,48,396473944937 ,61,3774691153702
4.3175557 ,Left ,61,7605504384235 ,48,396473944937 ,61,3774691153702
4.339867 ,Left ,61,6891780439318 ,48,4033507164435 ,61,3307651202123
4.3398693 ,Left ,61,6891780439318 ,48,4033507164435 ,61,3307651202123
4.3608159 ,Left ,61,6468419206112 ,48,4082015803229 ,61,2884862953022
4.3608178 ,Left ,61,6468419206112 ,48,4082015803229 ,61,2884862953022
4.3770638 ,Left ,61,6349746934891 ,48,3958233176932 ,61,2313933713724
4.3770656 ,Left ,61,6349746934891 ,48,3958233176932 ,61,2313933713724
4.4002084 ,Left ,61,6326760457434 ,48,3623287439786 ,61,1855459881148
4.400216 ,Left ,61,6326760457434 ,48,3623287439786 ,61,1855459881148
4.423245 ,Left ,61,5967442074557 ,48,3382310101938 ,61,1574605326617
4.4232666 ,Left ,61,5967442074557 ,48,3382310101938 ,61,1574605326617
4.437646 ,Left ,61,5640111382533 ,48,341146846378 ,61,1268206907914
4.4376538 ,Left ,61,5640111382533 ,48,341146846378 ,61,1268206907914
4.4662432 ,Left ,61,4673726599953 ,48,3115156314298 ,61,0831565309921
4.4662507 ,Left ,61,4673726599953 ,48,3115156314298 ,61,0831565309921
4.4808896 ,Left ,61,3294449716313 ,48,2844443402845 ,61,0620928161296
4.4808939 ,Left ,61,3294449716313 ,48,2844443402845 ,61,0620928161296
4.5021677 ,Left ,61,2730351785716 ,48,2729612263956 ,61,073470269654
4.5021721 ,Left ,61,2730351785716 ,48,2729612263956 ,61,073470269654
4.5198214 ,Left ,61,3611573906505 ,48,3005604347762 ,61,1083426852453
4.5198234 ,Left ,61,3611573906505 ,48,3005604347762 ,61,1083426852453
4.5472951 ,Left ,61,5193620480938 ,48,2980915164163 ,61,1452420865191
4.547297 ,Left ,61,5193620480938 ,48,2980915164163 ,61,1452420865191
4.5623467 ,Left ,61,535280531381 ,48,2514789950595 ,61,1811385538746
4.5623491 ,Left ,61,535280531381 ,48,2514789950595 ,61,1811385538746
4.579013 ,Left ,61,485160059019 ,48,1769789159717 ,61,2126658948327
4.5790154 ,Left ,61,485160059019 ,48,1769789159717 ,61,2126658948327
4.6019446 ,Left ,61,5051079833249 ,48,181048020813 ,61,2491672560309
4.6019524 ,Left ,61,5051079833249 ,48,181048020813 ,61,2491672560309
4.6230047 ,Left ,61,5063612097237 ,48,2637068544963 ,61,3170217212857
4.6230264 ,Left ,61,5063612097237 ,48,2637068544963 ,61,3170217212857
4.6408272 ,Left ,61,6086239437788 ,48,3347159796604 ,61,3499482638225
4.6408347 ,Left ,61,6086239437788 ,48,3347159796604 ,61,3499482638225
4.6616523 ,Left ,61,6727890162351 ,48,3434128522113 ,61,3587797188756
4.6616576 ,Left ,61,6727890162351 ,48,3434128522113 ,61,3587797188756
4.6759592 ,Left ,61,608509551875 ,48,2973031998498 ,61,3762242002345
4.6759647 ,Left ,61,608509551875 ,48,2973031998498 ,61,3762242002345
4.6993279 ,Left ,61,520580256949 ,48,2317710157934 ,61,3784161454055
4.6993332 ,Left ,61,520580256949 ,48,2317710157934 ,61,3784161454055
4.7214992 ,Left ,61,5252559247416 ,48,1485384953573 ,61,4116038519443
4.7215033 ,Left ,61,5252559247416 ,48,1485384953573 ,61,4116038519443
4.7425672 ,Left ,61,6122745213784 ,48,1128486630937 ,61,4529620877492
4.7425715 ,Left ,61,6122745213784 ,48,1128486630937 ,61,4529620877492
4.7590823 ,Left ,61,7209506577758 ,48,1335538174014 ,61,4811219261048
4.7590867 ,Left ,61,7209506577758 ,48,1335538174014 ,61,4811219261048
4.7830039 ,Left ,61,818994625515 ,48,1746915660274 ,61,5072549921239
4.7830061 ,Left ,61,818994625515 ,48,1746915660274 ,61,5072549921239
4.8029179 ,Left ,61,8605357468732 ,48,2057231713264 ,61,5429484063011
4.8029396 ,Left ,61,8605357468732 ,48,2057231713264 ,61,5429484063011
4.8194361 ,Left ,61,9008690366454 ,48,2346042486504 ,61,5959634947322
4.8194438 ,Left ,61,9008690366454 ,48,2346042486504 ,61,5959634947322
4.8418874 ,Left ,61,9389984886951 ,48,2884000593076 ,61,649063165263
4.8418928 ,Left ,61,9389984886951 ,48,2884000593076 ,61,649063165263
4.8559116 ,Left ,61,9721437690983 ,48,3486958557043 ,61,7135970805194
4.8559158 ,Left ,61,9721437690983 ,48,3486958557043 ,61,7135970805194
4.8790636 ,Left ,62,0061274044078 ,48,400471447494 ,61,7705777977723
4.8790678 ,Left ,62,0061274044078 ,48,400471447494 ,61,7705777977723
4.9015344 ,Left ,62,029123128305 ,48,4339168076046 ,61,8286279598954
4.9015389 ,Left ,62,029123128305 ,48,4339168076046 ,61,8286279598954
4.9158597 ,Left ,62,051808073396 ,48,4397250849605 ,61,8943090565521
4.9158637 ,Left ,62,051808073396 ,48,4397250849605 ,61,8943090565521
4.9390776 ,Left ,62,0587453882388 ,48,4264858251586 ,61,9625656557245
4.939083 ,Left ,62,0587453882388 ,48,4264858251586 ,61,9625656557245
4.9613947 ,Left ,62,083601477416 ,48,4263966922745 ,62,024256386436
4.9613968 ,Left ,62,083601477416 ,48,4263966922745 ,62,024256386436
4.9759127 ,Left ,62,0742118154475 ,48,4290873396237 ,62,0926277273987
4.9759146 ,Left ,62,0742118154475 ,48,4290873396237 ,62,0926277273987
5.0002608 ,Left ,62,0814572062968 ,48,4343656679006 ,62,1591994380113
5.0002626 ,Left ,62,0814572062968 ,48,4343656679006 ,62,1591994380113
5.021533 ,Left ,62,1124414350853 ,48,4364097716652 ,62,2290442708944
5.0215353 ,Left ,62,1124414350853 ,48,4364097716652 ,62,2290442708944
5.0431066 ,Left ,62,1496218659419 ,48,4460197515863 ,62,2989084507023
5.0431241 ,Left ,62,1496218659419 ,48,4460197515863 ,62,2989084507023
5.0594023 ,Left ,62,1963862110843 ,48,4642385989201 ,62,3639731541334
5.05941 ,Left ,62,1963862110843 ,48,4642385989201 ,62,3639731541334
5.081919 ,Left ,62,2291771213908 ,48,4770488058089 ,62,4273296717886
5.0819271 ,Left ,62,2291771213908 ,48,4770488058089 ,62,4273296717886
5.103247 ,Left ,62,2751344873568 ,48,4818408826113 ,62,487553653925
5.1032588 ,Left ,62,2751344873568 ,48,4818408826113 ,62,487553653925
5.1190418 ,Left ,62,2796085475354 ,48,4749323048348 ,62,5472397543245
5.1190458 ,Left ,62,2796085475354 ,48,4749323048348 ,62,5472397543245
5.1415941 ,Left ,62,3040264913539 ,48,4711409522084 ,62,5900832560873
5.1415984 ,Left ,62,3040264913539 ,48,4711409522084 ,62,5900832560873
5.1627396 ,Left ,62,317988834756 ,48,4606818183946 ,62,6266324156909
5.1627444 ,Left ,62,317988834756 ,48,4606818183946 ,62,6266324156909
5.1853462 ,Left ,62,3342058634348 ,48,4543252883078 ,62,6470089841251
5.1853505 ,Left ,62,3342058634348 ,48,4543252883078 ,62,6470089841251
5.2013886 ,Left ,62,3267955718421 ,48,4471274589704 ,62,6662624210034
5.2013904 ,Left ,62,3267955718421 ,48,4471274589704 ,62,6662624210034
5.2226208 ,Left ,62,3447841079157 ,48,448734496992 ,62,6760528534941
5.222623 ,Left ,62,3447841079157 ,48,448734496992 ,62,6760528534941
5.2390771 ,Left ,62,362729854111 ,48,459979507451 ,62,6734273178124
5.2390793 ,Left ,62,362729854111 ,48,459979507451 ,62,6734273178124
5.2619748 ,Left ,62,3444603587324 ,48,4663876409673 ,62,6550863282876
5.2619826 ,Left ,62,3444603587324 ,48,4663876409673 ,62,6550863282876
5.2832227 ,Left ,62,3502358130888 ,48,472830310384 ,62,6240169268786
5.2832433 ,Left ,62,3502358130888 ,48,472830310384 ,62,6240169268786
5.299389 ,Left ,62,3601585874606 ,48,4816013297021 ,62,5827929835833
5.2993968 ,Left ,62,3601585874606 ,48,4816013297021 ,62,5827929835833
5.3218863 ,Left ,62,3442820883519 ,48,4927342797901 ,62,5300788055208
5.3218917 ,Left ,62,3442820883519 ,48,4927342797901 ,62,5300788055208
5.3427258 ,Left ,62,3349848942179 ,48,5110947321066 ,62,4696527533654
5.3427304 ,Left ,62,3349848942179 ,48,5110947321066 ,62,4696527533654
5.3591102 ,Left ,62,3360979404451 ,48,5350717798848 ,62,4013373233986
5.3591146 ,Left ,62,3360979404451 ,48,5350717798848 ,62,4013373233986
5.3814995 ,Left ,62,331991477592 ,48,5564654046976 ,62,3381030973061
5.3815037 ,Left ,62,331991477592 ,48,5564654046976 ,62,3381030973061
5.4026326 ,Left ,62,3275427011279 ,48,5740355524045 ,62,280714715989
5.4026348 ,Left ,62,3275427011279 ,48,5740355524045 ,62,280714715989
5.4188579 ,Left ,62,2980340791188 ,48,5764760894053 ,62,218637168866
5.4188638 ,Left ,62,2980340791188 ,48,5764760894053 ,62,218637168866
5.4415359 ,Left ,62,2468648154841 ,48,5631722003009 ,62,1572475449334
5.4415382 ,Left ,62,2468648154841 ,48,5631722003009 ,62,1572475449334
5.4644337 ,Left ,62,1907814737028 ,48,5538426500972 ,62,1174347722061
5.4644414 ,Left ,62,1907814737028 ,48,5538426500972 ,62,1174347722061
5.479278 ,Left ,62,1538140423249 ,48,5458064902604 ,62,098788484575
5.4792858 ,Left ,62,1538140423249 ,48,5458064902604 ,62,098788484575
5.5018188 ,Left ,62,1233215678276 ,48,5099203975316 ,62,0743501352003
5.5018243 ,Left ,62,1233215678276 ,48,5099203975316 ,62,0743501352003
5.5241203 ,Left ,62,1112425952161 ,48,460279494071 ,62,0724063983929
5.5241286 ,Left ,62,1112425952161 ,48,460279494071 ,62,0724063983929
5.5390944 ,Left ,62,0713033598013 ,48,4332137852506 ,62,0528901692257
5.5391001 ,Left ,62,0713033598013 ,48,4332137852506 ,62,0528901692257
5.5618469 ,Left ,62,1261348951082 ,48,4406215805202 ,62,0504555131883
5.5618526 ,Left ,62,1261348951082 ,48,4406215805202 ,62,0504555131883
5.5842209 ,Left ,62,2359835796371 ,48,468596339472 ,62,0622927593401
5.5842288 ,Left ,62,2359835796371 ,48,468596339472 ,62,0622927593401
5.598616 ,Left ,62,2931596827605 ,48,5099421930648 ,62,0462575477573
5.5986261 ,Left ,62,2931596827605 ,48,5099421930648 ,62,0462575477573
5.6217171 ,Left ,62,3268585828482 ,48,5863489751021 ,61,9869825493296
5.6217248 ,Left ,62,3268585828482 ,48,5863489751021 ,61,9869825493296
5.6440829 ,Left ,62,3773500632041 ,48,6661616816951 ,61,9084977069505
5.6440885 ,Left ,62,3773500632041 ,48,6661616816951 ,61,9084977069505
5.6585841 ,Left ,62,3822619416226 ,48,7217295619337 ,61,8514946103441
5.6585896 ,Left ,62,3822619416226 ,48,7217295619337 ,61,8514946103441
5.6816328 ,Left ,62,2952471213069 ,48,7646969373769 ,61,8057188385874
5.6816383 ,Left ,62,2952471213069 ,48,7646969373769 ,61,8057188385874
5.7038997 ,Left ,62,1960098323097 ,48,7697143838079 ,61,7551087124189
5.7039018 ,Left ,62,1960098323097 ,48,7697143838079 ,61,7551087124189
5.7187315 ,Left ,62,124850844766 ,48,7423072202067 ,61,675433971447
5.7187391 ,Left ,62,124850844766 ,48,7423072202067 ,61,675433971447
5.7420484 ,Left ,62,0862709737744 ,48,6796689453152 ,61,599376464604
5.7420601 ,Left ,62,0862709737744 ,48,6796689453152 ,61,599376464604
5.7644807 ,Left ,62,1563344388651 ,48,5812667020569 ,61,5599032951971
5.7644883 ,Left ,62,1563344388651 ,48,5812667020569 ,61,5599032951971
5.7856881 ,Left ,62,2389992039513 ,48,4919667110941 ,61,5998813618996
5.7856962 ,Left ,62,2389992039513 ,48,4919667110941 ,61,5998813618996
5.8016648 ,Left ,62,2344744602393 ,48,4467262927172 ,61,6270803279597
5.801669 ,Left ,62,2344744602393 ,48,4467262927172 ,61,6270803279597
5.8251731 ,Left ,62,1969697215501 ,48,4440173520491 ,61,5833882725506
5.8251749 ,Left ,62,1969697215501 ,48,4440173520491 ,61,5833882725506
5.8524517 ,Left ,62,16858163523 ,48,4602509012476 ,61,53489533358
5.8524537 ,Left ,62,16858163523 ,48,4602509012476 ,61,53489533358
5.8613913 ,Left ,62,1984762037229 ,48,4837794497571 ,61,5244537242858
5.8613931 ,Left ,62,1984762037229 ,48,4837794497571 ,61,5244537242858
5.8842657 ,Left ,62,1303754609797 ,48,4835055930787 ,61,542138620449
5.8842733 ,Left ,62,1303754609797 ,48,4835055930787 ,61,542138620449
5.9056266 ,Left ,61,9870903222457 ,48,4673167513516 ,61,5456809643497
5.9056345 ,Left ,61,9870903222457 ,48,4673167513516 ,61,5456809643497
5.9221108 ,Left ,61,9753657835966 ,48,439229412769 ,61,506929462441
5.9221301 ,Left ,61,9753657835966 ,48,439229412769 ,61,506929462441
5.9444133 ,Left ,62,0516702194582 ,48,4061651008142 ,61,513067714652
5.9444211 ,Left ,62,0516702194582 ,48,4061651008142 ,61,513067714652
5.9652254 ,Left ,62,1610914573744 ,48,3762484127315 ,61,5829669865551
5.9652301 ,Left ,62,1610914573744 ,48,3762484127315 ,61,5829669865551
5.9816716 ,Left ,62,1247437794831 ,48,3770494312493 ,61,5999400013059
5.981676 ,Left ,62,1247437794831 ,48,3770494312493 ,61,5999400013059
6.0039381 ,Left ,61,9973037103701 ,48,4057863565958 ,61,5774797964062
6.0039401 ,Left ,61,9973037103701 ,48,4057863565958 ,61,5774797964062
6.0248804 ,Left ,61,9992899540412 ,48,4466428900454 ,61,5841516018598
6.0248821 ,Left ,61,9992899540412 ,48,4466428900454 ,61,5841516018598
6.0415826 ,Left ,62,0078047946658 ,48,4766119751824 ,61,6053569253767
6.0415857 ,Left ,62,0078047946658 ,48,4766119751824 ,61,6053569253767
6.0640365 ,Left ,61,9336782082298 ,48,471491667293 ,61,6251500836859
6.0640401 ,Left ,61,9336782082298 ,48,471491667293 ,61,6251500836859
6.0853412 ,Left ,61,8909328258111 ,48,4134753544447 ,61,6350156691303
6.0853456 ,Left ,61,8909328258111 ,48,4134753544447 ,61,6350156691303
6.1015895 ,Left ,61,8797722937794 ,48,3304489728467 ,61,647755148738
6.1015937 ,Left ,61,8797722937794 ,48,3304489728467 ,61,647755148738
6.1241291 ,Left ,61,8590890077136 ,48,2486419198868 ,61,6243460028234
6.1241333 ,Left ,61,8590890077136 ,48,2486419198868 ,61,6243460028234
6.1448237 ,Left ,61,7729433792217 ,48,189895891884 ,61,6078729053094
6.1448255 ,Left ,61,7729433792217 ,48,189895891884 ,61,6078729053094
6.1612237 ,Left ,61,6144186204257 ,48,1458213490821 ,61,5958191026533
6.1612255 ,Left ,61,6144186204257 ,48,1458213490821 ,61,5958191026533
6.1838679 ,Left ,61,4992702290224 ,48,1289980423331 ,61,5861181925718
6.1838698 ,Left ,61,4992702290224 ,48,1289980423331 ,61,5861181925718
6.2049568 ,Left ,61,4461572698563 ,48,1597682512882 ,61,5680264542367
6.2049589 ,Left ,61,4461572698563 ,48,1597682512882 ,61,5680264542367
6.2213479 ,Left ,61,4745960182763 ,48,2195716973289 ,61,5714728271235
6.2213532 ,Left ,61,4745960182763 ,48,2195716973289 ,61,5714728271235
6.2442779 ,Left ,61,5191134445946 ,48,2749374648541 ,61,5890599485339
6.2442857 ,Left ,61,5191134445946 ,48,2749374648541 ,61,5890599485339
6.2655757 ,Left ,61,5365796929298 ,48,3206339344897 ,61,5776582697227
6.265584 ,Left ,61,5365796929298 ,48,3206339344897 ,61,5776582697227
6.2818851 ,Left ,61,5411867253724 ,48,3422668578961 ,61,5411867253724
6.2818906 ,Left ,61,5411867253724 ,48,3422668578961 ,61,5411867253724
6.3040983 ,Left ,61,5247547602234 ,48,3650423021364 ,61,4939935341672
6.3041026 ,Left ,61,5247547602234 ,48,3650423021364 ,61,4939935341672
6.3253574 ,Left ,61,5048568412177 ,48,3958600265376 ,61,4474969228822
6.3253618 ,Left ,61,5048568412177 ,48,3958600265376 ,61,4474969228822
6.3413248 ,Left ,61,4785291044415 ,48,4250849555454 ,61,4109945392592
6.3413268 ,Left ,61,4785291044415 ,48,4250849555454 ,61,4109945392592
6.3643696 ,Left ,61,4610284486776 ,48,4393793061063 ,61,3628465144757
6.3643772 ,Left ,61,4610284486776 ,48,4393793061063 ,61,3628465144757
6.3856905 ,Left ,61,4525112385953 ,48,4409644970998 ,61,3113815007499
6.3856984 ,Left ,61,4525112385953 ,48,4409644970998 ,61,3113815007499
6.4017397 ,Left ,61,3967387235789 ,48,4253564077584 ,61,2719032767298
6.4017469 ,Left ,61,3967387235789 ,48,4253564077584 ,61,2719032767298
6.4240875 ,Left ,61,3631555308652 ,48,4077370345735 ,61,2423406560397
6.424092 ,Left ,61,3631555308652 ,48,4077370345735 ,61,2423406560397
6.4462674 ,Left ,61,3265130817415 ,48,3795230266892 ,61,2158277298614
6.4462692 ,Left ,61,3265130817415 ,48,3795230266892 ,61,2158277298614
6.4620276 ,Left ,61,2963608832502 ,48,3767391562625 ,61,1897659822255
6.4620354 ,Left ,61,2963608832502 ,48,3767391562625 ,61,1897659822255
6.484537 ,Left ,61,2411616154251 ,48,3457243675808 ,61,161127702412
6.484553 ,Left ,61,2411616154251 ,48,3457243675808 ,61,161127702412
6.5069229 ,Left ,61,1890944377282 ,48,2807451947064 ,61,1541284914176
6.5069308 ,Left ,61,1890944377282 ,48,2807451947064 ,61,1541284914176
6.5215586 ,Left ,61,2040974358037 ,48,2607973707678 ,61,1793984527524
6.5215665 ,Left ,61,2040974358037 ,48,2607973707678 ,61,1793984527524
6.5443919 ,Left ,61,2151656674735 ,48,2914234900251 ,61,2089974820899
6.5443975 ,Left ,61,2151656674735 ,48,2914234900251 ,61,2089974820899
6.566885 ,Left ,61,2622751012467 ,48,306291668685 ,61,2314502305116
6.5668931 ,Left ,61,2622751012467 ,48,306291668685 ,61,2314502305116
6.5812131 ,Left ,61,3163710943936 ,48,2924995063252 ,61,2464684558932
6.5812212 ,Left ,61,3163710943936 ,48,2924995063252 ,61,2464684558932
6.604086 ,Left ,61,3642424071364 ,48,2942269361943 ,61,2511709528602
6.6040964 ,Left ,61,3642424071364 ,48,2942269361943 ,61,2511709528602
6.6266751 ,Left ,61,3456903442259 ,48,3033908986333 ,61,2573174257352
6.6266792 ,Left ,61,3456903442259 ,48,3033908986333 ,61,2573174257352
6.6410012 ,Left ,61,3170105252795 ,48,2958846965121 ,61,2656174491153
6.6410055 ,Left ,61,3170105252795 ,48,2958846965121 ,61,2656174491153
6.6652492 ,Left ,61,2665298800559 ,48,2774963486324 ,61,272701007577
6.665251 ,Left ,61,2665298800559 ,48,2774963486324 ,61,272701007577
6.6863377 ,Left ,61,3025943621233 ,48,3306325948091 ,61,3436591149457
6.6863397 ,Left ,61,3025943621233 ,48,3306325948091 ,61,3436591149457
6.7008615 ,Left ,61,310560941111 ,48,4128236053818 ,61,4067867320689
6.7008635 ,Left ,61,310560941111 ,48,4128236053818 ,61,4067867320689
6.7241045 ,Left ,61,4315839967862 ,48,4565896681322 ,61,4336282626083
6.7241075 ,Left ,61,4315839967862 ,48,4565896681322 ,61,4336282626083
6.7465433 ,Left ,61,4729433096383 ,48,3750878821519 ,61,4483426204411
6.7465475 ,Left ,61,4729433096383 ,48,3750878821519 ,61,4483426204411
6.7678443 ,Left ,61,4610479089833 ,48,2356744815946 ,61,4775282935512
6.7678487 ,Left ,61,4610479089833 ,48,2356744815946 ,61,4775282935512
6.7840783 ,Left ,61,408649741072 ,48,127096881604 ,61,5037754054514
6.7840825 ,Left ,61,408649741072 ,48,127096881604 ,61,5037754054514
6.806619 ,Left ,61,4208604000699 ,48,1053879235522 ,61,4974345875726
6.8066236 ,Left ,61,4208604000699 ,48,1053879235522 ,61,4974345875726
6.827713 ,Left ,61,5281962863384 ,48,1220891611069 ,61,5033761741045
6.8277172 ,Left ,61,5281962863384 ,48,1220891611069 ,61,5033761741045
6.843993 ,Left ,61,6432829367168 ,48,1529459378321 ,61,5151868747044
6.8439953 ,Left ,61,6432829367168 ,48,1529459378321 ,61,5151868747044
6.8663289 ,Left ,61,6896234567797 ,48,2053791216337 ,61,5432017021884
6.8663308 ,Left ,61,6896234567797 ,48,2053791216337 ,61,5432017021884
6.8880755 ,Left ,61,7012932055627 ,48,2807722701092 ,61,5737724701661
6.8880956 ,Left ,61,7012932055627 ,48,2807722701092 ,61,5737724701661
6.9046627 ,Left ,61,7515773350267 ,48,361486163904 ,61,6264656566031
6.904678 ,Left ,61,7515773350267 ,48,361486163904 ,61,6264656566031
6.9267356 ,Left ,61,8473270409801 ,48,4216096592696 ,61,6856330175629
6.9267399 ,Left ,61,8473270409801 ,48,4216096592696 ,61,6856330175629
6.9482041 ,Left ,61,9051183334734 ,48,457354064977 ,61,7477139518389
6.9482122 ,Left ,61,9051183334734 ,48,457354064977 ,61,7477139518389
6.9643974 ,Left ,61,9387014589396 ,48,4831593108487 ,61,8039038005933
6.9644051 ,Left ,61,9387014589396 ,48,4831593108487 ,61,8039038005933
6.9869413 ,Left ,61,9596324156061 ,48,4873069074961 ,61,8595704634643
6.9869491 ,Left ,61,9596324156061 ,48,4873069074961 ,61,8595704634643
7.0079711 ,Left ,61,9855481736274 ,48,4866336551895 ,61,9120310908051
7.0079789 ,Left ,61,9855481736274 ,48,4866336551895 ,61,9120310908051
7.0252066 ,Left ,62,010404957622 ,48,4833102361472 ,61,9654729307237
7.0252084 ,Left ,62,010404957622 ,48,4833102361472 ,61,9654729307237
7.0465681 ,Left ,62,0133179317016 ,48,4860462844069 ,62,0255708359394
7.0465704 ,Left ,62,0133179317016 ,48,4860462844069 ,62,0255708359394
7.0679084 ,Left ,62,0144257972132 ,48,4816489782446 ,62,0899975879905
7.0679161 ,Left ,62,0144257972132 ,48,4816489782446 ,62,0899975879905
7.0843221 ,Left ,62,0421617265074 ,48,4676412656556 ,62,1402495506022
7.0843379 ,Left ,62,0421617265074 ,48,4676412656556 ,62,1402495506022
7.106601 ,Left ,62,042642407475 ,48,4374866840087 ,62,1899262532281
7.1066052 ,Left ,62,042642407475 ,48,4374866840087 ,62,1899262532281
7.1274267 ,Left ,62,070233716379 ,48,4206179633693 ,62,2298851429427
7.1274288 ,Left ,62,070233716379 ,48,4206179633693 ,62,2298851429427
7.1437559 ,Left ,62,0632368018331 ,48,4017540688374 ,62,2721505062862
7.1437576 ,Left ,62,0632368018331 ,48,4017540688374 ,62,2721505062862
7.1664536 ,Left ,62,0711555713569 ,48,3991103939333 ,62,3128606978459
7.1664557 ,Left ,62,0711555713569 ,48,3991103939333 ,62,3128606978459
7.187603 ,Left ,62,0946007182749 ,48,3957595539332 ,62,3506737802894
7.1876064 ,Left ,62,0946007182749 ,48,3957595539332 ,62,3506737802894
7.2042516 ,Left ,62,1162036961089 ,48,3905632568895 ,62,3784692156616
7.2042572 ,Left ,62,1162036961089 ,48,3905632568895 ,62,3784692156616
7.2267113 ,Left ,62,1195970286341 ,48,3838096488586 ,62,4085716847909
7.2267162 ,Left ,62,1195970286341 ,48,3838096488586 ,62,4085716847909
7.2477037 ,Left ,62,1053301671447 ,48,385030306846 ,62,437334421874
7.247708 ,Left ,62,1053301671447 ,48,385030306846 ,62,437334421874
7.2640394 ,Left ,62,1080188454144 ,48,3924448754721 ,62,4583721206657
7.2640434 ,Left ,62,1080188454144 ,48,3924448754721 ,62,4583721206657
7.2865859 ,Left ,62,1144131261835 ,48,3894946085808 ,62,4852918197809
7.2865901 ,Left ,62,1144131261835 ,48,3894946085808 ,62,4852918197809
7.3079152 ,Left ,62,12698292171 ,48,3899946072184 ,62,5101556855122
7.30792 ,Left ,62,12698292171 ,48,3899946072184 ,62,5101556855122
7.324306 ,Left ,62,1345010771944 ,48,3966806099982 ,62,5339704178104
7.3243139 ,Left ,62,1345010771944 ,48,3966806099982 ,62,5339704178104
7.3469132 ,Left ,62,1464934730309 ,48,4107533399536 ,62,5478183678796
7.346921 ,Left ,62,1464934730309 ,48,4107533399536 ,62,5478183678796
7.3694784 ,Left ,62,1640107681281 ,48,4181457275934 ,62,5549965371475
7.3694861 ,Left ,62,1640107681281 ,48,4181457275934 ,62,5549965371475
7.3844518 ,Left ,62,176411862475 ,48,4318845879939 ,62,5569770868998
7.3844596 ,Left ,62,176411862475 ,48,4318845879939 ,62,5569770868998
7.406516 ,Left ,62,1901282035191 ,48,443389794998 ,62,5541838670173
7.4065201 ,Left ,62,1901282035191 ,48,443389794998 ,62,5541838670173
7.4289159 ,Left ,62,1891547953119 ,48,4626606630882 ,62,5407006660657
7.4289193 ,Left ,62,1891547953119 ,48,4626606630882 ,62,5407006660657
7.4438388 ,Left ,62,2041410022306 ,48,4950408954769 ,62,5185459062898
7.4438405 ,Left ,62,2041410022306 ,48,4950408954769 ,62,5185459062898
7.466583 ,Left ,62,1936106660162 ,48,5288151245346 ,62,4913337215962
7.4665851 ,Left ,62,1936106660162 ,48,5288151245346 ,62,4913337215962
7.4888542 ,Left ,62,1899247720126 ,48,5494537613286 ,62,4507545349681
7.4888563 ,Left ,62,1899247720126 ,48,5494537613286 ,62,4507545349681
7.5038666 ,Left ,62,1854428333626 ,48,5602464029663 ,62,3972875659361
7.503869 ,Left ,62,1854428333626 ,48,5602464029663 ,62,3972875659361
7.5263626 ,Left ,62,1678204957854 ,48,5637179913111 ,62,3531623473747
7.526365 ,Left ,62,1678204957854 ,48,5637179913111 ,62,3531623473747
7.5488607 ,Left ,62,1504449627274 ,48,566290115817 ,62,3154033201753
7.5488631 ,Left ,62,1504449627274 ,48,566290115817 ,62,3154033201753
7.5638233 ,Left ,62,1239524523265 ,48,5616228065953 ,62,2787544351011
7.563831 ,Left ,62,1239524523265 ,48,5616228065953 ,62,2787544351011
7.5864195 ,Left ,62,0851311826256 ,48,5371832411132 ,62,2421024823207
7.5864215 ,Left ,62,0851311826256 ,48,5371832411132 ,62,2421024823207
7.6087507 ,Left ,62,0522918770953 ,48,4916805990818 ,62,2074694692402
7.6087525 ,Left ,62,0522918770953 ,48,4916805990818 ,62,2074694692402
7.6231933 ,Left ,62,0011597527301 ,48,4304137001758 ,62,1894020417734
7.6231951 ,Left ,62,0011597527301 ,48,4304137001758 ,62,1894020417734
7.6465277 ,Left ,61,9339121663321 ,48,4019309319928 ,62,1960729835714
7.6465307 ,Left ,61,9339121663321 ,48,4019309319928 ,62,1960729835714
7.6691889 ,Left ,61,9026576791824 ,48,4043084350751 ,62,1688967624855
7.6691946 ,Left ,61,9026576791824 ,48,4043084350751 ,62,1688967624855
7.6833766 ,Left ,61,9580371086068 ,48,4291912468018 ,62,1503824040267
7.6833876 ,Left ,61,9580371086068 ,48,4291912468018 ,62,1503824040267
7.7063119 ,Left ,62,0462763106647 ,48,4710519629024 ,62,1443528860163
7.7063137 ,Left ,62,0462763106647 ,48,4710519629024 ,62,1443528860163
7.7288681 ,Left ,62,0964270618461 ,48,5298770297554 ,62,1290523849503
7.7288699 ,Left ,62,0964270618461 ,48,5298770297554 ,62,1290523849503
7.7431047 ,Left ,62,1153056563632 ,48,5894211265342 ,62,0746074522664
7.7431067 ,Left ,62,1153056563632 ,48,5894211265342 ,62,0746074522664
7.766527 ,Left ,62,1753278440717 ,48,6251576224167 ,62,0046038873005
7.7665291 ,Left ,62,1753278440717 ,48,6251576224167 ,62,0046038873005
7.7964887 ,Left ,62,1505766255622 ,48,6363790525914 ,61,9697599197029
7.7964916 ,Left ,62,1505766255622 ,48,6363790525914 ,61,9697599197029
7.8031723 ,Left ,62,1040409057408 ,48,6453975275031 ,61,92937261484
7.8031749 ,Left ,62,1040409057408 ,48,6453975275031 ,61,92937261484
7.826342 ,Left ,62,0637429478119 ,48,6026560385967 ,61,8562741525215
7.8263437 ,Left ,62,0637429478119 ,48,6026560385967 ,61,8562741525215
7.8490654 ,Left ,61,9583000095332 ,48,5218906076451 ,61,7665702106458
7.8490678 ,Left ,61,9583000095332 ,48,5218906076451 ,61,7665702106458
7.8700631 ,Left ,61,8767006018251 ,48,4530864545809 ,61,7049599871509
7.8700652 ,Left ,61,8767006018251 ,48,4530864545809 ,61,7049599871509
7.8862722 ,Left ,61,8160615859416 ,48,3893495550423 ,61,6746789099557
7.8862744 ,Left ,61,8160615859416 ,48,3893495550423 ,61,6746789099557
7.9091032 ,Left ,61,8628631823806 ,48,3492906471188 ,61,7007617266434
7.9091068 ,Left ,61,8628631823806 ,48,3492906471188 ,61,7007617266434
7.9305047 ,Left ,61,9258031595755 ,48,3519307586837 ,61,7349934907534
7.9305101 ,Left ,61,9258031595755 ,48,3519307586837 ,61,7349934907534
7.946288 ,Left ,61,9663082931445 ,48,3522063910975 ,61,732414138014
7.9462898 ,Left ,61,9663082931445 ,48,3522063910975 ,61,732414138014
7.9690679 ,Left ,61,907052598992 ,48,322131140611 ,61,7016666263698
7.9690701 ,Left ,61,907052598992 ,48,322131140611 ,61,7016666263698
7.9902458 ,Left ,61,9623492380104 ,48,3348206651021 ,61,6913619641031
7.9902484 ,Left ,61,9623492380104 ,48,3348206651021 ,61,6913619641031
8.0065815 ,Left ,61,8882056650718 ,48,3620890120579 ,61,7261761931998
8.0065843 ,Left ,61,8882056650718 ,48,3620890120579 ,61,7261761931998
8.0287977 ,Left ,61,8034125210574 ,48,3846330368184 ,61,7214374857646
8.0287994 ,Left ,61,8034125210574 ,48,3846330368184 ,61,7214374857646
8.0499584 ,Left ,61,8132104702012 ,48,3675070294348 ,61,6778697758137
8.0499602 ,Left ,61,8132104702012 ,48,3675070294348 ,61,6778697758137
8.0739415 ,Left ,61,8414410397757 ,48,3549009341104 ,61,6916806742211
8.0739443 ,Left ,61,8414410397757 ,48,3549009341104 ,61,6916806742211
8.0895201 ,Left ,61,9016627707223 ,48,3427333878335 ,61,753892566296
8.0895397 ,Left ,61,9016627707223 ,48,3427333878335 ,61,753892566296
8.1105962 ,Left ,61,8962380617916 ,48,3471569458671 ,61,7710618156022
8.1106075 ,Left ,61,8962380617916 ,48,3471569458671 ,61,7710618156022
8.1269255 ,Left ,61,8315383383094 ,48,3603201580408 ,61,7535959002465
8.1269332 ,Left ,61,8315383383094 ,48,3603201580408 ,61,7535959002465
8.1494881 ,Left ,61,8351150333956 ,48,377897648147 ,61,771570029799
8.149496 ,Left ,61,8351150333956 ,48,377897648147 ,61,771570029799
8.1705457 ,Left ,61,7985889677538 ,48,3938754721428 ,61,7965402542777
8.1705512 ,Left ,61,7985889677538 ,48,3938754721428 ,61,7965402542777
8.1865236 ,Left ,61,7454281585342 ,48,3876718348416 ,61,8273951696682
8.1865271 ,Left ,61,7454281585342 ,48,3876718348416 ,61,8273951696682
8.2090794 ,Left ,61,7451070614404 ,48,3559795964099 ,61,8333172408196
8.2090814 ,Left ,61,7451070614404 ,48,3559795964099 ,61,8333172408196
8.2299297 ,Left ,61,7315894820146 ,48,2939634817831 ,61,8364389735966
8.2299315 ,Left ,61,7315894820146 ,48,2939634817831 ,61,8364389735966
8.2462569 ,Left ,61,6615988849912 ,48,2614687402084 ,61,8221389141704
8.2462586 ,Left ,61,6615988849912 ,48,2614687402084 ,61,8221389141704
8.2688423 ,Left ,61,5323405672685 ,48,2909770757303 ,61,7955168079222
8.2688443 ,Left ,61,5323405672685 ,48,2909770757303 ,61,7955168079222
8.2899178 ,Left ,61,4161714449653 ,48,2872817916757 ,61,7678100920604
8.2899196 ,Left ,61,4161714449653 ,48,2872817916757 ,61,7678100920604
8.3063293 ,Left ,61,3695965524749 ,48,2787111855075 ,61,7316315917779
8.306337 ,Left ,61,3695965524749 ,48,2787111855075 ,61,7316315917779
8.3293688 ,Left ,61,3786803758376 ,48,3032742656012 ,61,7095710442003
8.3293764 ,Left ,61,3786803758376 ,48,3032742656012 ,61,7095710442003
8.3520186 ,Left ,61,3782072255141 ,48,3308093009286 ,61,667712981957
8.352022 ,Left ,61,3782072255141 ,48,3308093009286 ,61,667712981957
8.3664997 ,Left ,61,3546489365753 ,48,3335922162346 ,61,617438738103
8.3665028 ,Left ,61,3546489365753 ,48,3335922162346 ,61,617438738103
8.3892406 ,Left ,61,3649144488451 ,48,328281739891 ,61,5805218836885
8.3892437 ,Left ,61,3649144488451 ,48,328281739891 ,61,5805218836885
8.4113377 ,Left ,61,3352859783391 ,48,3390919602845 ,61,5549182254684
8.4113396 ,Left ,61,3352859783391 ,48,3390919602845 ,61,5549182254684
8.4167054 ,Left ,61,3232809804353 ,48,3533203606452 ,61,536650733049
8.4167071 ,Left ,61,3232809804353 ,48,3533203606452 ,61,536650733049
8.4331025 ,Left ,61,3258129535802 ,48,3828198611766 ,61,5205176871314
8.4331044 ,Left ,61,3258129535802 ,48,3828198611766 ,61,5205176871314
8.4543602 ,Left ,61,3350222865519 ,48,41182673042 ,61,504962153173
8.4543652 ,Left ,61,3350222865519 ,48,41182673042 ,61,504962153173
8.476891 ,Left ,61,3657131330835 ,48,4341106744161 ,61,4843738442154
8.4768942 ,Left ,61,3657131330835 ,48,4341106744161 ,61,4843738442154
8.4917096 ,Left ,61,3645456248376 ,48,444269827801 ,61,4586214765931
8.4917116 ,Left ,61,3645456248376 ,48,444269827801 ,61,4586214765931
8.5142195 ,Left ,61,3761702732921 ,48,4315362900274 ,61,417090644703
8.5142213 ,Left ,61,3761702732921 ,48,4315362900274 ,61,417090644703
8.5368287 ,Left ,61,3675591558152 ,48,3992076464863 ,61,3737041647169
8.5368312 ,Left ,61,3675591558152 ,48,3992076464863 ,61,3737041647169
8.5520534 ,Left ,61,3341224015848 ,48,3780592808593 ,61,3361722165035
8.5520566 ,Left ,61,3341224015848 ,48,3780592808593 ,61,3361722165035
8.5742231 ,Left ,61,3211062457379 ,48,3678423561462 ,61,3026511219334
8.574225 ,Left ,61,3211062457379 ,48,3678423561462 ,61,3026511219334
8.5966132 ,Left ,61,334752086492 ,48,3650871243807 ,61,2629743247795
8.5966152 ,Left ,61,334752086492 ,48,3650871243807 ,61,2629743247795
8.6117762 ,Left ,61,3134288142113 ,48,3538653014889 ,61,2211089891841
8.6117784 ,Left ,61,3134288142113 ,48,3538653014889 ,61,2211089891841
8.6342136 ,Left ,61,282708776655 ,48,3298849897102 ,61,194418343226
8.6342155 ,Left ,61,282708776655 ,48,3298849897102 ,61,194418343226
8.6567627 ,Left ,61,255230677388 ,48,3231289517689 ,61,1833483652259
8.6567649 ,Left ,61,255230677388 ,48,3231289517689 ,61,1833483652259
8.6716433 ,Left ,61,2185387004491 ,48,3115089534222 ,61,1692288536572
8.6716453 ,Left ,61,2185387004491 ,48,3115089534222 ,61,1692288536572
8.6942562 ,Left ,61,2068072448993 ,48,2853706030238 ,61,1636215207304
8.6942581 ,Left ,61,2068072448993 ,48,2853706030238 ,61,1636215207304
8.71755 ,Left ,61,180836325364 ,48,2995687936801 ,61,1643926786226
8.7175579 ,Left ,61,180836325364 ,48,2995687936801 ,61,1643926786226
8.7325492 ,Left ,61,221990042084 ,48,3297070901531 ,61,1870843108624
8.7325576 ,Left ,61,221990042084 ,48,3297070901531 ,61,1870843108624
8.7545971 ,Left ,61,3219815303295 ,48,3809736472194 ,61,2338473215696
8.7546028 ,Left ,61,3219815303295 ,48,3809736472194 ,61,2338473215696
8.7769193 ,Left ,61,3927608339187 ,48,4138043860075 ,61,2719693062606
8.7769234 ,Left ,61,3927608339187 ,48,4138043860075 ,61,2719693062606
8.7933463 ,Left ,61,4464664590044 ,48,4328982582885 ,61,2991581492466
8.7933504 ,Left ,61,4464664590044 ,48,4328982582885 ,61,2991581492466
8.8144895 ,Left ,61,4251172078759 ,48,4363308915454 ,61,3453348426752
8.8144939 ,Left ,61,4251172078759 ,48,4363308915454 ,61,3453348426752
8.8369773 ,Left ,61,4468556419484 ,48,4495239509904 ,61,3855128582014
8.8369809 ,Left ,61,4468556419484 ,48,4495239509904 ,61,3855128582014
8.8534237 ,Left ,61,4620295457832 ,48,4711260610963 ,61,4395538386801
8.8534273 ,Left ,61,4620295457832 ,48,4711260610963 ,61,4395538386801
8.8745606 ,Left ,61,457472324648 ,48,5423780094462 ,61,4982365543031
8.8745645 ,Left ,61,457472324648 ,48,5423780094462 ,61,4982365543031
8.8968886 ,Left ,61,5096206628532 ,48,6262892941896 ,61,5360411100735
8.8968919 ,Left ,61,5096206628532 ,48,6262892941896 ,61,5360411100735
8.913097 ,Left ,61,5415000562182 ,48,630389106131 ,61,5496282435706
8.9130989 ,Left ,61,5415000562182 ,48,630389106131 ,61,5496282435706
8.9343773 ,Left ,61,4657943218047 ,48,5527071864917 ,61,5472928790216
8.9343794 ,Left ,61,4657943218047 ,48,5527071864917 ,61,5472928790216
8.9567627 ,Left ,61,3745627216352 ,48,4572952103592 ,61,5626312210823
8.9567652 ,Left ,61,3745627216352 ,48,4572952103592 ,61,5626312210823
8.9732682 ,Left ,61,3840715332665 ,48,3840387389959 ,61,5931113606844
8.9732713 ,Left ,61,3840715332665 ,48,3840387389959 ,61,5931113606844
8.9944636 ,Left ,61,471622406083 ,48,3647746796887 ,61,6213300397633
8.9944656 ,Left ,61,471622406083 ,48,3647746796887 ,61,6213300397633
9.0170389 ,Left ,61,584240469398 ,48,3813274201704 ,61,633430812248
9.0170418 ,Left ,61,584240469398 ,48,3813274201704 ,61,633430812248
9.0332659 ,Left ,61,6749236739395 ,48,4021914591642 ,61,6523940912014
9.0332687 ,Left ,61,6749236739395 ,48,4021914591642 ,61,6523940912014
9.0545043 ,Left ,61,7313234138674 ,48,4152604110333 ,61,6740014186292
9.0545081 ,Left ,61,7313234138674 ,48,4152604110333 ,61,6740014186292
9.0768011 ,Left ,61,7377088802491 ,48,4431561434613 ,61,7029399555654
9.0768029 ,Left ,61,7377088802491 ,48,4431561434613 ,61,7029399555654
9.0931974 ,Left ,61,7555224728093 ,48,4763263132994 ,61,7391797234731
9.0931994 ,Left ,61,7555224728093 ,48,4763263132994 ,61,7391797234731
9.1142543 ,Left ,61,8259770021461 ,48,50455217943 ,61,7708729535056
9.1142569 ,Left ,61,8259770021461 ,48,50455217943 ,61,7708729535056
9.1367039 ,Left ,61,8448333960837 ,48,5084572319628 ,61,8081024147662
9.136712 ,Left ,61,8448333960837 ,48,5084572319628 ,61,8081024147662
9.1533294 ,Left ,61,8592931555924 ,48,4958176216665 ,61,8409197318668
9.1533327 ,Left ,61,8592931555924 ,48,4958176216665 ,61,8409197318668
9.1741853 ,Left ,61,8747698095156 ,48,4833695579714 ,61,8829392368114
9.1741871 ,Left ,61,8747698095156 ,48,4833695579714 ,61,8829392368114
9.1967453 ,Left ,61,8657905456776 ,48,4890931808929 ,61,9270491029712
9.1967474 ,Left ,61,8657905456776 ,48,4890931808929 ,61,9270491029712
9.2136184 ,Left ,61,8787241968315 ,48,5114840710548 ,61,9685006775517
9.2136381 ,Left ,61,8787241968315 ,48,5114840710548 ,61,9685006775517
9.2346435 ,Left ,61,9096238194053 ,48,5242245744703 ,61,9993611477555
9.234646 ,Left ,61,9096238194053 ,48,5242245744703 ,61,9993611477555
9.2567697 ,Left ,61,9005477414177 ,48,5214280501751 ,62,0310863712925
9.2567717 ,Left ,61,9005477414177 ,48,5214280501751 ,62,0310863712925
9.2747559 ,Left ,61,8819344200198 ,48,5211429407502 ,62,0675475328427
9.2747584 ,Left ,61,8819344200198 ,48,5211429407502 ,62,0675475328427
9.2944447 ,Left ,61,8753780709164 ,48,5197645478685 ,62,1120004328412
9.294449 ,Left ,61,8753780709164 ,48,5197645478685 ,62,1120004328412
9.3171853 ,Left ,61,9183347836904 ,48,5154374365467 ,62,1488685734009
9.3171897 ,Left ,61,9183347836904 ,48,5154374365467 ,62,1488685734009
9.3348513 ,Left ,61,9441002367469 ,48,4938646624208 ,62,1911376002243
9.3348554 ,Left ,61,9441002367469 ,48,4938646624208 ,62,1911376002243
9.354533 ,Left ,61,9465308761935 ,48,4809983362171 ,62,2365732086469
9.3545375 ,Left ,61,9465308761935 ,48,4809983362171 ,62,2365732086469
9.3772151 ,Left ,61,9631025240176 ,48,4732877600189 ,62,2879581366885
9.3772196 ,Left ,61,9631025240176 ,48,4732877600189 ,62,2879581366885
9.3951039 ,Left ,61,9943785737346 ,48,4737119719481 ,62,3417035226061
9.3951084 ,Left ,61,9943785737346 ,48,4737119719481 ,62,3417035226061
9.4146533 ,Left ,62,0333010467979 ,48,4738601659181 ,62,3826669648303
9.4146576 ,Left ,62,0333010467979 ,48,4738601659181 ,62,3826669648303
9.4370186 ,Left ,62,0499010172565 ,48,4731395655362 ,62,4278848310514
9.4370232 ,Left ,62,0499010172565 ,48,4731395655362 ,62,4278848310514
9.4606749 ,Left ,62,0664926136852 ,48,4753625879677 ,62,4648778297005
9.4606767 ,Left ,62,0664926136852 ,48,4753625879677 ,62,4648778297005
9.4742892 ,Left ,62,0788837837574 ,48,4919328827218 ,62,497453878698
9.474291 ,Left ,62,0788837837574 ,48,4919328827218 ,62,497453878698
9.4970717 ,Left ,62,0994326808573 ,48,5055070420068 ,62,5259766925786
9.4970744 ,Left ,62,0994326808573 ,48,5055070420068 ,62,5259766925786
9.5148004 ,Left ,62,1110496374963 ,48,5163947388575 ,62,5476364012338
9.5148039 ,Left ,62,1110496374963 ,48,5163947388575 ,62,5476364012338
9.5344387 ,Left ,62,103353417613 ,48,5243565275576 ,62,5561276386965
9.534443 ,Left ,62,103353417613 ,48,5243565275576 ,62,5561276386965
9.5571411 ,Left ,62,0950924733832 ,48,5359496631299 ,62,5599265780485
9.5571454 ,Left ,62,0950924733832 ,48,5359496631299 ,62,5599265780485
9.5749175 ,Left ,62,1047513698323 ,48,5586982931792 ,62,5651446380449
9.5749217 ,Left ,62,1047513698323 ,48,5586982931792 ,62,5651446380449
9.5944353 ,Left ,62,105934263687 ,48,5789975495035 ,62,5639711478731
9.5944395 ,Left ,62,105934263687 ,48,5789975495035 ,62,5639711478731
9.6244348 ,Left ,62,1119162721387 ,48,5968046223208 ,62,5533990855009
9.6244368 ,Left ,62,1119162721387 ,48,5968046223208 ,62,5533990855009
9.634637 ,Left ,62,1075330046344 ,48,6143411634836 ,62,5365457952869
9.6346388 ,Left ,62,1075330046344 ,48,6143411634836 ,62,5365457952869
9.6542908 ,Left ,62,0988292136847 ,48,628665448997 ,62,5113743087092
9.654293 ,Left ,62,0988292136847 ,48,628665448997 ,62,5113743087092
9.6767694 ,Left ,62,0961700164078 ,48,6429045985084 ,62,4800765165338
9.676772 ,Left ,62,0961700164078 ,48,6429045985084 ,62,4800765165338
9.6947266 ,Left ,62,0907745651654 ,48,6494447917247 ,62,436003328212
9.6947296 ,Left ,62,0907745651654 ,48,6494447917247 ,62,436003328212
9.7160324 ,Left ,62,073098128902 ,48,6350686791152 ,62,3920866921786
9.7160375 ,Left ,62,073098128902 ,48,6350686791152 ,62,3920866921786
9.7371184 ,Left ,62,0539300032554 ,48,6214176285114 ,62,3527412374467
9.7371288 ,Left ,62,0539300032554 ,48,6214176285114 ,62,3527412374467
9.7550183 ,Left ,62,0381174039498 ,48,6018974067197 ,62,3025500571056
9.7550234 ,Left ,62,0381174039498 ,48,6018974067197 ,62,3025500571056
9.774524 ,Left ,61,9847096794236 ,48,5583963375466 ,62,2658320485636
9.774529 ,Left ,61,9847096794236 ,48,5583963375466 ,62,2658320485636
9.7970022 ,Left ,61,8858459729293 ,48,5203067837559 ,62,2468913811488
9.7970057 ,Left ,61,8858459729293 ,48,5203067837559 ,62,2468913811488
9.8221007 ,Left ,61,8722991736754 ,48,4582023316111 ,62,2422934961921
9.8221154 ,Left ,61,8722991736754 ,48,4582023316111 ,62,2422934961921
9.8357541 ,Left ,61,8218571217434 ,48,4310428566883 ,62,2474559187142
9.835756 ,Left ,61,8218571217434 ,48,4310428566883 ,62,2474559187142
9.8568173 ,Left ,61,8294479572302 ,48,4243463839402 ,62,2387676074469
9.8568192 ,Left ,61,8294479572302 ,48,4243463839402 ,62,2387676074469
9.8746808 ,Left ,61,9506913190949 ,48,4695889337145 ,62,2715014090618
9.874683 ,Left ,61,9506913190949 ,48,4695889337145 ,62,2715014090618
9.8958943 ,Left ,62,1164553907491 ,48,5235305090838 ,62,2816600612543
9.8958968 ,Left ,62,1164553907491 ,48,5235305090838 ,62,2816600612543
9.9167093 ,Left ,62,2039441962243 ,48,5709521818607 ,62,2507768057647
9.9167111 ,Left ,62,2039441962243 ,48,5709521818607 ,62,2507768057647
9.9346372 ,Left ,62,2147766844047 ,48,6306092931833 ,62,2046165145912
9.9346391 ,Left ,62,2147766844047 ,48,6306092931833 ,62,2046165145912
9.9562445 ,Left ,62,2524796073554 ,48,6932011935761 ,62,1632601172646
9.9562521 ,Left ,62,2524796073554 ,48,6932011935761 ,62,1632601172646
9.9773177 ,Left ,62,269791128301 ,48,7326090392805 ,62,1057658124384
9.9773445 ,Left ,62,269791128301 ,48,7326090392805 ,62,1057658124384
9.9952601 ,Left ,62,2790450281515 ,48,7433210360053 ,62,0381586308115
9.9952677 ,Left ,62,2790450281515 ,48,7433210360053 ,62,0381586308115
10.0162879 ,Left ,62,2079671023404 ,48,72527439443 ,61,9750318615198
10.0162956 ,Left ,62,2079671023404 ,48,72527439443 ,61,9750318615198
10.037226 ,Left ,62,0346404129426 ,48,7019032332614 ,61,9089609388525
10.0372317 ,Left ,62,0346404129426 ,48,7019032332614 ,61,9089609388525
10.054923 ,Left ,61,8954590782809 ,48,6578938046932 ,61,8223735421335
10.0549376 ,Left ,61,8954590782809 ,48,6578938046932 ,61,8223735421335
10.0757027 ,Left ,61,9319147985076 ,48,568865655536 ,61,7588236654238
10.0757047 ,Left ,61,9319147985076 ,48,568865655536 ,61,7588236654238
10.0966854 ,Left ,62,0245125912219 ,48,4672968563643 ,61,7956391327995
10.0966872 ,Left ,62,0245125912219 ,48,4672968563643 ,61,7956391327995
10.1148941 ,Left ,62,0627525746901 ,48,414499628297 ,61,8273155529713
10.1148968 ,Left ,62,0627525746901 ,48,414499628297 ,61,8273155529713
10.1357424 ,Left ,61,9376619679746 ,48,3831488375474 ,61,8044456818996
10.1357474 ,Left ,61,9376619679746 ,48,3831488375474 ,61,8044456818996
10.1574139 ,Left ,61,9740535565101 ,48,398514124825 ,61,7958442054889
10.1574218 ,Left ,61,9740535565101 ,48,398514124825 ,61,7958442054889
10.1752958 ,Left ,61,9999538609834 ,48,454556660136 ,61,8016470802179
10.1753033 ,Left ,61,9999538609834 ,48,454556660136 ,61,8016470802179
10.1962594 ,Left ,61,9811802015063 ,48,4654165905197 ,61,799296828659
10.1962671 ,Left ,61,9811802015063 ,48,4654165905197 ,61,799296828659
10.2172839 ,Left ,61,8869211214682 ,48,4618012207675 ,61,7540692068628
10.2172918 ,Left ,61,8869211214682 ,48,4618012207675 ,61,7540692068628
10.2349774 ,Left ,61,8849232802483 ,48,422502919143 ,61,7437029659156
10.2349827 ,Left ,61,8849232802483 ,48,422502919143 ,61,7437029659156
10.2571997 ,Left ,61,9735643704896 ,48,3473957473484 ,61,7970874237111
10.2572026 ,Left ,61,9735643704896 ,48,3473957473484 ,61,7970874237111
10.2768609 ,Left ,62,0155091234326 ,48,2910442228238 ,61,816068911784
10.276864 ,Left ,62,0155091234326 ,48,2910442228238 ,61,816068911784
10.2939087 ,Left ,61,9079905384452 ,48,2897709274448 ,61,8072374531351
10.2939105 ,Left ,61,9079905384452 ,48,2897709274448 ,61,8072374531351
10.316522 ,Left ,61,8992800389019 ,48,2980779206745 ,61,8273353150351
10.3165243 ,Left ,61,8992800389019 ,48,2980779206745 ,61,8273353150351
10.337465 ,Left ,61,9431668612877 ,48,3318927839361 ,61,8651465065791
10.3374676 ,Left ,61,9431668612877 ,48,3318927839361 ,61,8651465065791
10.3540785 ,Left ,61,8389152659551 ,48,3327490006853 ,61,9066670719918
10.354081 ,Left ,61,8389152659551 ,48,3327490006853 ,61,9066670719918
10.3763315 ,Left ,61,7902675445357 ,48,3082971548971 ,61,9217756718631
10.3763334 ,Left ,61,7902675445357 ,48,3082971548971 ,61,9217756718631
10.3976651 ,Left ,61,7928605563106 ,48,2803602940561 ,61,9388956266294
10.3976678 ,Left ,61,7928605563106 ,48,2803602940561 ,61,9388956266294
10.4144483 ,Left ,61,7796460185082 ,48,2221698676719 ,61,9321643822165
10.4144684 ,Left ,61,7796460185082 ,48,2221698676719 ,61,9321643822165
10.4364498 ,Left ,61,7094544269917 ,48,1303338060324 ,61,9120936885507
10.4364519 ,Left ,61,7094544269917 ,48,1303338060324 ,61,9120936885507
10.4512381 ,Left ,61,6207054480209 ,48,0585254114143 ,61,904706817381
10.4512457 ,Left ,61,6207054480209 ,48,0585254114143 ,61,904706817381
10.4743903 ,Left ,61,564693024224 ,48,0401500134735 ,61,9090404217439
10.4743983 ,Left ,61,564693024224 ,48,0401500134735 ,61,9090404217439
10.4970374 ,Left ,61,5525329704093 ,48,0819623396254 ,61,9005139578784
10.497045 ,Left ,61,5525329704093 ,48,0819623396254 ,61,9005139578784
10.5112401 ,Left ,61,5840005506317 ,48,1343376746113 ,61,8817174519242
10.5113236 ,Left ,61,5840005506317 ,48,1343376746113 ,61,8817174519242
10.5344506 ,Left ,61,5947488007053 ,48,1652876443945 ,61,8487698974219
10.5344584 ,Left ,61,5947488007053 ,48,1652876443945 ,61,8487698974219
10.5565434 ,Left ,61,6089864545209 ,48,1996105846908 ,61,8152581744059
10.5565483 ,Left ,61,6089864545209 ,48,1996105846908 ,61,8152581744059
10.570766 ,Left ,61,5782254945072 ,48,234272796956 ,61,7863027061255
10.570768 ,Left ,61,5782254945072 ,48,234272796956 ,61,7863027061255
10.5944824 ,Left ,61,5346521916155 ,48,2543813889483 ,61,7693472967167
10.5944901 ,Left ,61,5346521916155 ,48,2543813889483 ,61,7693472967167
10.6169037 ,Left ,61,5230568539077 ,48,2783086265394 ,61,743155882385
10.6169115 ,Left ,61,5230568539077 ,48,2783086265394 ,61,743155882385
10.6313772 ,Left ,61,4931814939547 ,48,2901104819045 ,61,7152438899603
10.6313849 ,Left ,61,4931814939547 ,48,2901104819045 ,61,7152438899603
10.654355 ,Left ,61,4909085075783 ,48,3129270693484 ,61,6943057144561
10.6543606 ,Left ,61,4909085075783 ,48,3129270693484 ,61,6943057144561
10.676335 ,Left ,61,490682663333 ,48,3414874766846 ,61,6733542207589
10.6763369 ,Left ,61,490682663333 ,48,3414874766846 ,61,6733542207589
10.6906262 ,Left ,61,4692229139541 ,48,3748569908414 ,61,6537280656174
10.6906279 ,Left ,61,4692229139541 ,48,3748569908414 ,61,6537280656174
10.7138831 ,Left ,61,4489447847901 ,48,3604443766503 ,61,6335458203667
10.713885 ,Left ,61,4489447847901 ,48,3604443766503 ,61,6335458203667
10.7362981 ,Left ,61,4325169070864 ,48,3243002505706 ,61,6009190444212
10.7363004 ,Left ,61,4325169070864 ,48,3243002505706 ,61,6009190444212
10.7575912 ,Left ,61,4156310722008 ,48,3030097539482 ,61,5718288632916
10.7575937 ,Left ,61,4156310722008 ,48,3030097539482 ,61,5718288632916
10.7744456 ,Left ,61,3929515512915 ,48,2803284475672 ,61,5389864899461
10.7744534 ,Left ,61,3929515512915 ,48,2803284475672 ,61,5389864899461
10.796841 ,Left ,61,3755111773779 ,48,2480205976213 ,61,5217132421246
10.7968535 ,Left ,61,3755111773779 ,48,2480205976213 ,61,5217132421246
10.8182903 ,Left ,61,3622673603745 ,48,2403138548034 ,61,50850626337
10.8182981 ,Left ,61,3622673603745 ,48,2403138548034 ,61,50850626337
10.8345487 ,Left ,61,310237267451 ,48,2504903616443 ,61,507901440213
10.8345565 ,Left ,61,310237267451 ,48,2504903616443 ,61,507901440213
10.8568763 ,Left ,61,2290949485946 ,48,2624141156846 ,61,50282808286
10.856884 ,Left ,61,2290949485946 ,48,2624141156846 ,61,50282808286
10.8774018 ,Left ,61,1119050321002 ,48,2527724279937 ,61,5051469664106
10.8774036 ,Left ,61,1119050321002 ,48,2527724279937 ,61,5051469664106
10.8937924 ,Left ,61,0943692559184 ,48,2625987763208 ,61,5204067857154
10.8937941 ,Left ,61,0943692559184 ,48,2625987763208 ,61,5204067857154
10.9164838 ,Left ,61,1724349429243 ,48,2836309036064 ,61,5344018968781
10.9164859 ,Left ,61,1724349429243 ,48,2836309036064 ,61,5344018968781
10.9375636 ,Left ,61,3102269961649 ,48,2803695975234 ,61,5385370179262
10.9375663 ,Left ,61,3102269961649 ,48,2803695975234 ,61,5385370179262
10.9541215 ,Left ,61,405903445254 ,48,2532452045444 ,61,5397262349665
10.9541245 ,Left ,61,405903445254 ,48,2532452045444 ,61,5397262349665
10.9765821 ,Left ,61,3982057568965 ,48,2320578494723 ,61,5671526193059
10.9765854 ,Left ,61,3982057568965 ,48,2320578494723 ,61,5671526193059
10.9974038 ,Left ,61,439848033396 ,48,3088585955718 ,61,5939584806335
10.9974057 ,Left ,61,439848033396 ,48,3088585955718 ,61,5939584806335
11.013898 ,Left ,61,4925402144519 ,48,4122191650271 ,61,5867213914822
11.0139005 ,Left ,61,4925402144519 ,48,4122191650271 ,61,5867213914822
11.0363975 ,Left ,61,6422730909075 ,48,4570373935253 ,61,5523269904568
11.0363997 ,Left ,61,6422730909075 ,48,4570373935253 ,61,5523269904568
11.057433 ,Left ,61,6912717441498 ,48,4348503927211 ,61,5153315858334
11.0574352 ,Left ,61,6912717441498 ,48,4348503927211 ,61,5153315858334
11.073114 ,Left ,61,6317588772144 ,48,3915272510358 ,61,4821920704814
11.0731187 ,Left ,61,6317588772144 ,48,3915272510358 ,61,4821920704814
11.0963716 ,Left ,61,54037622965 ,48,3768625272976 ,61,4440290964298
11.0963735 ,Left ,61,54037622965 ,48,3768625272976 ,61,4440290964298
11.1249464 ,Left ,61,5360958027768 ,48,3246497425233 ,61,3841259626078
11.1249482 ,Left ,61,5360958027768 ,48,3246497425233 ,61,3841259626078
11.133957 ,Left ,61,4717810357076 ,48,2394426639204 ,61,3790909907708
11.1339588 ,Left ,61,4717810357076 ,48,2394426639204 ,61,3790909907708
11.1566554 ,Left ,61,4601418693604 ,48,2030894930265 ,61,4168306075705
11.1566584 ,Left ,61,4601418693604 ,48,2030894930265 ,61,4168306075705
11.1791406 ,Left ,61,531903790315 ,48,2456489782437 ,61,4495294413986
11.179144 ,Left ,61,531903790315 ,48,2456489782437 ,61,4495294413986
11.19341 ,Left ,61,6373088487195 ,48,346707955151 ,61,4731429713644
11.1934142 ,Left ,61,6373088487195 ,48,346707955151 ,61,4731429713644
11.2163489 ,Left ,61,7423039809239 ,48,4241441639187 ,61,5028536995351
11.2163507 ,Left ,61,7423039809239 ,48,4241441639187 ,61,5028536995351
11.2390787 ,Left ,61,7662435615962 ,48,4439422883945 ,61,5351369340047
11.2390809 ,Left ,61,7662435615962 ,48,4439422883945 ,61,5351369340047
11.2538216 ,Left ,61,7612633127609 ,48,4476894713292 ,61,5854010867902
11.2538292 ,Left ,61,7612633127609 ,48,4476894713292 ,61,5854010867902
11.2769185 ,Left ,61,7599231786978 ,48,4927545290718 ,61,6557965986867
11.2769262 ,Left ,61,7599231786978 ,48,4927545290718 ,61,6557965986867
11.2994289 ,Left ,61,7601751225477 ,48,5518171236039 ,61,7296119105148
11.2994366 ,Left ,61,7601751225477 ,48,5518171236039 ,61,7296119105148
11.3136437 ,Left ,61,813189289709 ,48,5908749217399 ,61,7948759595016
11.3136491 ,Left ,61,813189289709 ,48,5908749217399 ,61,7948759595016
11.3367549 ,Left ,61,877219570374 ,48,6146509996479 ,61,8650205712859
11.3368208 ,Left ,61,877219570374 ,48,6146509996479 ,61,8650205712859
11.3593549 ,Left ,61,9025048556995 ,48,6287284112074 ,61,9248586362224
11.3593605 ,Left ,61,9025048556995 ,48,6287284112074 ,61,9248586362224
11.373417 ,Left ,61,9263808409735 ,48,6330220499924 ,61,9792101362617
11.3734228 ,Left ,61,9263808409735 ,48,6330220499924 ,61,9792101362617
11.4039521 ,Left ,61,9317882802574 ,48,6340277527573 ,62,0252513741004
11.4039542 ,Left ,61,9317882802574 ,48,6340277527573 ,62,0252513741004
11.4190493 ,Left ,61,9384148007808 ,48,6310620445455 ,62,0745589147277
11.4190517 ,Left ,61,9384148007808 ,48,6310620445455 ,62,0745589147277
11.4332264 ,Left ,61,9328103441651 ,48,6247815078322 ,62,123862267961
11.4332287 ,Left ,61,9328103441651 ,48,6247815078322 ,62,123862267961
11.4569404 ,Left ,61,922929125401 ,48,6093728810992 ,62,1669572941515
11.4569593 ,Left ,61,922929125401 ,48,6093728810992 ,62,1669572941515
11.4796076 ,Left ,61,9674205816685 ,48,5884363676248 ,62,1933046427292
11.4796156 ,Left ,61,9674205816685 ,48,5884363676248 ,62,1933046427292
11.4938104 ,Left ,61,9870153093227 ,48,5664448969108 ,62,2212156714329
11.493818 ,Left ,61,9870153093227 ,48,5664448969108 ,62,2212156714329
11.5170217 ,Left ,61,982029072965 ,48,5548930902449 ,62,2550348093911
11.5170294 ,Left ,61,982029072965 ,48,5548930902449 ,62,2550348093911
11.5393983 ,Left ,61,969404973539 ,48,5571255225099 ,62,2953589552269
11.5394061 ,Left ,61,969404973539 ,48,5571255225099 ,62,2953589552269
11.5533781 ,Left ,61,9979204471762 ,48,5548504631208 ,62,3320515808203
11.5533816 ,Left ,61,9979204471762 ,48,5548504631208 ,62,3320515808203
11.5765612 ,Left ,62,024962766847 ,48,5555815525802 ,62,3672327518989
11.5765653 ,Left ,62,024962766847 ,48,5555815525802 ,62,3672327518989
11.5990548 ,Left ,62,060933902083 ,48,5725813816394 ,62,4030029586348
11.5990583 ,Left ,62,060933902083 ,48,5725813816394 ,62,4030029586348
11.6133474 ,Left ,62,0647807312053 ,48,582101376236 ,62,4413428796097
11.613351 ,Left ,62,0647807312053 ,48,582101376236 ,62,4413428796097
11.6364676 ,Left ,62,07540608331 ,48,5886091055864 ,62,4864871086109
11.6364734 ,Left ,62,07540608331 ,48,5886091055864 ,62,4864871086109
11.6588593 ,Left ,62,0851297260052 ,48,5875821991683 ,62,5328580414291
11.6588614 ,Left ,62,0851297260052 ,48,5875821991683 ,62,5328580414291
11.6815406 ,Left ,62,1387534046681 ,48,5840075045373 ,62,5722867074457
11.681543 ,Left ,62,1387534046681 ,48,5840075045373 ,62,5722867074457
11.6978002 ,Left ,62,1544948507097 ,48,5680383008388 ,62,6045564396791
11.6978028 ,Left ,62,1544948507097 ,48,5680383008388 ,62,6045564396791
11.7191339 ,Left ,62,1726183058181 ,48,552912584975 ,62,6331043709946
11.7191359 ,Left ,62,1726183058181 ,48,552912584975 ,62,6331043709946
11.739907 ,Left ,62,1830051020165 ,48,545869957956 ,62,6660225605351
11.7399088 ,Left ,62,1830051020165 ,48,545869957956 ,62,6660225605351
11.763128 ,Left ,62,2021816744755 ,48,5493625507152 ,62,6973709094802
11.7631721 ,Left ,62,2021816744755 ,48,5493625507152 ,62,6973709094802
11.7794081 ,Left ,62,2225956879516 ,48,5511334093354 ,62,7259072663822
11.7794157 ,Left ,62,2225956879516 ,48,5511334093354 ,62,7259072663822
11.8007881 ,Left ,62,2360840875698 ,48,5412496157561 ,62,7395605676114
11.8007961 ,Left ,62,2360840875698 ,48,5412496157561 ,62,7395605676114
11.8170544 ,Left ,62,2353607622592 ,48,5186558946074 ,62,7514727033026
11.8170699 ,Left ,62,2353607622592 ,48,5186558946074 ,62,7514727033026
11.8394942 ,Left ,62,237284424098 ,48,5097301926773 ,62,7596762661094
11.839502 ,Left ,62,237284424098 ,48,5097301926773 ,62,7596762661094
11.8605619 ,Left ,62,2601643913587 ,48,4998262626194 ,62,7541554549593
11.8605695 ,Left ,62,2601643913587 ,48,4998262626194 ,62,7541554549593
11.8766359 ,Left ,62,2667645460711 ,48,4957051806188 ,62,7465347806278
11.8766392 ,Left ,62,2667645460711 ,48,4957051806188 ,62,7465347806278
11.8994758 ,Left ,62,268848933938 ,48,4980090159563 ,62,7383704555823
11.8994848 ,Left ,62,268848933938 ,48,4980090159563 ,62,7383704555823
11.9207017 ,Left ,62,2501102685931 ,48,5096420576066 ,62,7316949573478
11.9207225 ,Left ,62,2501102685931 ,48,5096420576066 ,62,7316949573478
11.93665 ,Left ,62,2567834569137 ,48,5215248729417 ,62,7116468601372
11.9366554 ,Left ,62,2567834569137 ,48,5215248729417 ,62,7116468601372
11.959434 ,Left ,62,2291209351647 ,48,5197886049332 ,62,6799307014103
11.9594393 ,Left ,62,2291209351647 ,48,5197886049332 ,62,6799307014103
11.9799767 ,Left ,62,2050053329651 ,48,4999962302196 ,62,6438711896264
11.979979 ,Left ,62,2050053329651 ,48,4999962302196 ,62,6438711896264
11.9963437 ,Left ,62,1994852866709 ,48,4843590857655 ,62,6120382331027
11.9963454 ,Left ,62,1994852866709 ,48,4843590857655 ,62,6120382331027
12.0189886 ,Left ,62,160252592528 ,48,4615306634863 ,62,5894872756185
12.0189904 ,Left ,62,160252592528 ,48,4615306634863 ,62,5894872756185
12.040167 ,Left ,62,1066297082655 ,48,4361273758924 ,62,5710222186084
12.0401693 ,Left ,62,1066297082655 ,48,4361273758924 ,62,5710222186084
12.0564017 ,Left ,62,0825723573945 ,48,3933362735276 ,62,5312633935044
12.0564044 ,Left ,62,0825723573945 ,48,3933362735276 ,62,5312633935044
12.0792212 ,Left ,62,0076214872308 ,48,3251094108478 ,62,4922968397605
12.0792249 ,Left ,62,0076214872308 ,48,3251094108478 ,62,4922968397605
12.1015832 ,Left ,61,9037180961695 ,48,2937340172599 ,62,4917319819041
12.1015853 ,Left ,61,9037180961695 ,48,2937340172599 ,62,4917319819041
12.1226676 ,Left ,61,8103363355538 ,48,2973883525523 ,62,459949935326
12.1226704 ,Left ,61,8103363355538 ,48,2973883525523 ,62,459949935326
12.1392298 ,Left ,61,9014146766958 ,48,3177452479867 ,62,4642897230121
12.1392327 ,Left ,61,9014146766958 ,48,3177452479867 ,62,4642897230121
12.1612633 ,Left ,62,0437440452444 ,48,3779946754738 ,62,4844762536628
12.1612651 ,Left ,62,0437440452444 ,48,3779946754738 ,62,4844762536628
12.1756744 ,Left ,62,1256879599089 ,48,4439370458522 ,62,4733716844041
12.1756763 ,Left ,62,1256879599089 ,48,4439370458522 ,62,4733716844041
12.1989074 ,Left ,62,1197856972334 ,48,478999102933 ,62,4221056936348
12.1989092 ,Left ,62,1197856972334 ,48,478999102933 ,62,4221056936348
12.2213465 ,Left ,62,1690462292631 ,48,5224923830357 ,62,3648503789584
12.2213486 ,Left ,62,1690462292631 ,48,5224923830357 ,62,3648503789584
12.2359562 ,Left ,62,1931163597801 ,48,5764465636205 ,62,3132301020593
12.2359591 ,Left ,62,1931163597801 ,48,5764465636205 ,62,3132301020593
12.2593477 ,Left ,62,1696945413358 ,48,6063116640085 ,62,2490101088282
12.2593533 ,Left ,62,1696945413358 ,48,6063116640085 ,62,2490101088282
12.2817287 ,Left ,62,0878533955566 ,48,6214590495222 ,62,1813563051967
12.2817336 ,Left ,62,0878533955566 ,48,6214590495222 ,62,1813563051967
12.2960396 ,Left ,61,9741188573943 ,48,6338513683602 ,62,0980603522701
12.2960444 ,Left ,61,9741188573943 ,48,6338513683602 ,62,0980603522701
12.3193761 ,Left ,61,8473439689121 ,48,60988579686 ,61,9998560979479
12.319381 ,Left ,61,8473439689121 ,48,60988579686 ,61,9998560979479
12.341585 ,Left ,61,7925924014915 ,48,5308048368282 ,61,9414399047769
12.3415871 ,Left ,61,7925924014915 ,48,5308048368282 ,61,9414399047769
12.3624398 ,Left ,61,8261794431329 ,48,4411134356243 ,61,9550390775999
12.3624419 ,Left ,61,8261794431329 ,48,4411134356243 ,61,9550390775999
12.3790042 ,Left ,61,8250550750008 ,48,3546000327088 ,61,9768691444569
12.3790065 ,Left ,61,8250550750008 ,48,3546000327088 ,61,9768691444569
12.4013809 ,Left ,61,7473082172359 ,48,3022375632701 ,61,9425593906474
12.4013828 ,Left ,61,7473082172359 ,48,3022375632701 ,61,9425593906474
12.4163326 ,Left ,61,7241473067452 ,48,2852971319713 ,61,9092321707236
12.4163405 ,Left ,61,7241473067452 ,48,2852971319713 ,61,9092321707236
12.4409273 ,Left ,61,7564284942872 ,48,3090830281476 ,61,9167019587387
12.4409349 ,Left ,61,7564284942872 ,48,3090830281476 ,61,9167019587387
12.4618425 ,Left ,61,7090113655695 ,48,3331682243875 ,61,9163714796454
12.4618479 ,Left ,61,7090113655695 ,48,3331682243875 ,61,9163714796454
12.4761347 ,Left ,61,7190028770208 ,48,3437693343279 ,61,9078161330236
12.47614 ,Left ,61,7190028770208 ,48,3437693343279 ,61,9078161330236
12.4992939 ,Left ,61,8731549653616 ,48,3360421886318 ,61,9408993008447
12.4992993 ,Left ,61,8731549653616 ,48,3360421886318 ,61,9408993008447
12.5217445 ,Left ,62,0098868829046 ,48,299742793481 ,62,0160532209394
12.5217512 ,Left ,62,0098868829046 ,48,299742793481 ,62,0160532209394
12.5425441 ,Left ,61,9993082548076 ,48,2581253420784 ,62,0240093600364
12.5425461 ,Left ,61,9993082548076 ,48,2581253420784 ,62,0240093600364
12.5592099 ,Left ,61,9344868417802 ,48,2716808558008 ,62,0250159211188
12.5592119 ,Left ,61,9344868417802 ,48,2716808558008 ,62,0250159211188
12.5813208 ,Left ,61,9717353078795 ,48,3730817267732 ,62,0557939954971
12.5813226 ,Left ,61,9717353078795 ,48,3730817267732 ,62,0557939954971
12.6023298 ,Left ,61,9146391763641 ,48,4481602162477 ,62,0823181567579
12.6023318 ,Left ,61,9146391763641 ,48,4481602162477 ,62,0823181567579
12.6190423 ,Left ,61,8080621857096 ,48,4610835460506 ,62,055382993082
12.6190445 ,Left ,61,8080621857096 ,48,4610835460506 ,62,055382993082
12.641302 ,Left ,61,7167721134853 ,48,3899870983114 ,62,0487143081958
12.6413038 ,Left ,61,7167721134853 ,48,3899870983114 ,62,0487143081958
12.662368 ,Left ,61,6854501489951 ,48,2777820181013 ,62,07218064703
12.6623699 ,Left ,61,6854501489951 ,48,2777820181013 ,62,07218064703
12.6788333 ,Left ,61,6413886399919 ,48,2008290657177 ,62,0601059782402
12.6788352 ,Left ,61,6413886399919 ,48,2008290657177 ,62,0601059782402
12.7014842 ,Left ,61,5568471877266 ,48,2011937725727 ,62,0250666138325
12.7014869 ,Left ,61,5568471877266 ,48,2011937725727 ,62,0250666138325
12.724338 ,Left ,61,5621020469232 ,48,2345157184315 ,61,9968047487344
12.7243499 ,Left ,61,5621020469232 ,48,2345157184315 ,61,9968047487344
12.7394578 ,Left ,61,5869219692171 ,48,2694316514174 ,61,9778773182921
12.7394655 ,Left ,61,5869219692171 ,48,2694316514174 ,61,9778773182921
12.7619225 ,Left ,61,6072526894532 ,48,3006645477626 ,61,9731143114857
12.7619304 ,Left ,61,6072526894532 ,48,3006645477626 ,61,9731143114857
12.7832462 ,Left ,61,6026766890514 ,48,3349131888491 ,61,9763170467895
12.783267 ,Left ,61,6026766890514 ,48,3349131888491 ,61,9763170467895
12.7994175 ,Left ,61,6097438055001 ,48,3881859037606 ,61,9581009568906
12.7994231 ,Left ,61,6097438055001 ,48,3881859037606 ,61,9581009568906
12.8217164 ,Left ,61,6112680106154 ,48,4154104459216 ,61,8937826278806
12.821722 ,Left ,61,6112680106154 ,48,4154104459216 ,61,8937826278806
12.8429252 ,Left ,61,6165653532549 ,48,4045121104276 ,61,8316005186157
12.8429324 ,Left ,61,6165653532549 ,48,4045121104276 ,61,8316005186157
12.858915 ,Left ,61,566365614497 ,48,3729961397697 ,61,7836868893442
12.8589168 ,Left ,61,566365614497 ,48,3729961397697 ,61,7836868893442
12.8813801 ,Left ,61,5093869529722 ,48,3554045015385 ,61,7473593462367
12.881382 ,Left ,61,5093869529722 ,48,3554045015385 ,61,7473593462367
12.9025661 ,Left ,61,4972273201212 ,48,3439028658759 ,61,7106676656403
12.9025688 ,Left ,61,4972273201212 ,48,3439028658759 ,61,7106676656403
12.9191511 ,Left ,61,4937836201201 ,48,3180904623635 ,61,6560611231223
12.9191534 ,Left ,61,4937836201201 ,48,3180904623635 ,61,6560611231223
12.9413828 ,Left ,61,5024517773321 ,48,2763373240308 ,61,6011934455689
12.9413847 ,Left ,61,5024517773321 ,48,2763373240308 ,61,6011934455689
12.9623268 ,Left ,61,4591414427043 ,48,2320979393249 ,61,5724586718921
12.9623288 ,Left ,61,4591414427043 ,48,2320979393249 ,61,5724586718921
12.9791476 ,Left ,61,3905458934664 ,48,2328484288323 ,61,5553658656552
12.9791497 ,Left ,61,3905458934664 ,48,2328484288323 ,61,5553658656552
13.0014323 ,Left ,61,3368089110009 ,48,2548753949414 ,61,5653220747164
13.0014347 ,Left ,61,3368089110009 ,48,2548753949414 ,61,5653220747164
13.0241527 ,Left ,61,3049006971352 ,48,2538049470746 ,61,5848974147155
13.024157 ,Left ,61,3049006971352 ,48,2538049470746 ,61,5848974147155
13.0385385 ,Left ,61,3754444045087 ,48,3043053556787 ,61,6200052413305
13.0385435 ,Left ,61,3754444045087 ,48,3043053556787 ,61,6200052413305
13.0677866 ,Left ,61,4754036570321 ,48,374804184985 ,61,6435122262454
13.0677917 ,Left ,61,4754036570321 ,48,374804184985 ,61,6435122262454
13.0841194 ,Left ,61,5022346010675 ,48,4108014859676 ,61,6476082023123
13.0841244 ,Left ,61,5022346010675 ,48,4108014859676 ,61,6476082023123
13.0985059 ,Left ,61,5197324923939 ,48,4010930946721 ,61,6323841194001
13.0985108 ,Left ,61,5197324923939 ,48,4010930946721 ,61,6323841194001
13.1218121 ,Left ,61,5358820592945 ,48,3931066010534 ,61,6239780886516
13.1218181 ,Left ,61,5358820592945 ,48,3931066010534 ,61,6239780886516
13.1515571 ,Left ,61,5517647703507 ,48,4546650783362 ,61,62127464641
13.1515612 ,Left ,61,5517647703507 ,48,4546650783362 ,61,62127464641
13.1590787 ,Left ,61,5582099843134 ,48,5329810136264 ,61,578598721992
13.159083 ,Left ,61,5582099843134 ,48,5329810136264 ,61,578598721992
13.1816036 ,Left ,61,556345936031 ,48,5559632896077 ,61,4993030619822
13.1816075 ,Left ,61,556345936031 ,48,5559632896077 ,61,4993030619822
13.203861 ,Left ,61,5173049893742 ,48,5153402530302 ,61,4336611512295
13.2038628 ,Left ,61,5173049893742 ,48,5153402530302 ,61,4336611512295
13.2183791 ,Left ,61,4581715474189 ,48,4910938416102 ,61,3969174946007
13.2183811 ,Left ,61,4581715474189 ,48,4910938416102 ,61,3969174946007
13.2416206 ,Left ,61,4076750910007 ,48,4647333611848 ,61,3627143105484
13.241623 ,Left ,61,4076750910007 ,48,4647333611848 ,61,3627143105484
13.2642731 ,Left ,61,3532053442674 ,48,3843640178073 ,61,3470571614658
13.2642771 ,Left ,61,3532053442674 ,48,3843640178073 ,61,3470571614658
13.2782967 ,Left ,61,3680946236895 ,48,308102534357 ,61,3927529746918
13.2783002 ,Left ,61,3680946236895 ,48,308102534357 ,61,3927529746918
13.3015789 ,Left ,61,4529445812408 ,48,2931357858308 ,61,4570563739445
13.3015829 ,Left ,61,4529445812408 ,48,2931357858308 ,61,4570563739445
13.32422 ,Left ,61,5620165000612 ,48,3415916805533 ,61,5004427365717
13.3242242 ,Left ,61,5620165000612 ,48,3415916805533 ,61,5004427365717
13.3449117 ,Left ,61,6888042072093 ,48,4023393611778 ,61,5208597895565
13.3449136 ,Left ,61,6888042072093 ,48,4023393611778 ,61,5208597895565
13.3615396 ,Left ,61,7509021070125 ,48,4320633242562 ,61,5401640751005
13.3615419 ,Left ,61,7509021070125 ,48,4320633242562 ,61,5401640751005
13.3841035 ,Left ,61,753062192808 ,48,4448347095971 ,61,5833197775244
13.3841057 ,Left ,61,753062192808 ,48,4448347095971 ,61,5833197775244
13.4052265 ,Left ,61,7584061099524 ,48,4780507601205 ,61,6276710080802
13.4052294 ,Left ,61,7584061099524 ,48,4780507601205 ,61,6276710080802
13.421388 ,Left ,61,7548530864032 ,48,5195013490679 ,61,6834587809295
13.4213899 ,Left ,61,7548530864032 ,48,5195013490679 ,61,6834587809295
13.4441966 ,Left ,61,8099800194271 ,48,5567346197121 ,61,7346027891114
13.4441993 ,Left ,61,8099800194271 ,48,5567346197121 ,61,7346027891114
13.4650672 ,Left ,61,8453222029157 ,48,5853382464554 ,61,7985125663778
13.465069 ,Left ,61,8453222029157 ,48,5853382464554 ,61,7985125663778
13.4815837 ,Left ,61,8873391857935 ,48,6059113462692 ,61,8649678006621
13.4815861 ,Left ,61,8873391857935 ,48,6059113462692 ,61,8649678006621
13.5039164 ,Left ,61,8946693581885 ,48,6075229679666 ,61,9251742056696
13.5039186 ,Left ,61,8946693581885 ,48,6075229679666 ,61,9251742056696
13.5249961 ,Left ,61,9068208927384 ,48,5985465559947 ,61,9841234774278
13.5249982 ,Left ,61,9068208927384 ,48,5985465559947 ,61,9841234774278
13.5416397 ,Left ,61,9516210999226 ,48,5844909681047 ,62,0493127973234
13.541642 ,Left ,61,9516210999226 ,48,5844909681047 ,62,0493127973234
13.5640766 ,Left ,61,9577135542837 ,48,5601721054391 ,62,1247443890026
13.5640793 ,Left ,61,9577135542837 ,48,5601721054391 ,62,1247443890026
13.5850473 ,Left ,61,9711634440429 ,48,5211627102578 ,62,1955320328017
13.5850494 ,Left ,61,9711634440429 ,48,5211627102578 ,62,1955320328017
13.6015302 ,Left ,61,9898045858382 ,48,501545821804 ,62,2673935370896
13.6015325 ,Left ,61,9898045858382 ,48,501545821804 ,62,2673935370896
13.6245398 ,Left ,62,0010216627591 ,48,4907874785889 ,62,3420141901821
13.6245417 ,Left ,62,0010216627591 ,48,4907874785889 ,62,3420141901821
13.6451774 ,Left ,62,0527496168274 ,48,4800639421502 ,62,4122522214401
13.6451801 ,Left ,62,0527496168274 ,48,4800639421502 ,62,4122522214401
13.6616209 ,Left ,62,0812762491779 ,48,4633039909646 ,62,4777798120786
13.6616239 ,Left ,62,0812762491779 ,48,4633039909646 ,62,4777798120786
13.684062 ,Left ,62,1083478749176 ,48,4453989936898 ,62,5357745204806
13.684065 ,Left ,62,1083478749176 ,48,4453989936898 ,62,5357745204806
13.7052014 ,Left ,62,1387973375745 ,48,4292072141833 ,62,5930749343886
13.7052051 ,Left ,62,1387973375745 ,48,4292072141833 ,62,5930749343886
13.7216549 ,Left ,62,1744041385811 ,48,4230589399137 ,62,6451487654951
13.7216599 ,Left ,62,1744041385811 ,48,4230589399137 ,62,6451487654951
13.7442572 ,Left ,62,1900103729056 ,48,4146054516771 ,62,7079847187253
13.7442622 ,Left ,62,1900103729056 ,48,4146054516771 ,62,7079847187253
13.765278 ,Left ,62,2205963181965 ,48,4051768839788 ,62,7633215755974
13.7652831 ,Left ,62,2205963181965 ,48,4051768839788 ,62,7633215755974
13.7891834 ,Left ,62,236068039919 ,48,3891188040258 ,62,8118859643679
13.7891883 ,Left ,62,236068039919 ,48,3891188040258 ,62,8118859643679
13.8042997 ,Left ,62,2551447370906 ,48,3793058496349 ,62,851655026217
13.804305 ,Left ,62,2551447370906 ,48,3793058496349 ,62,851655026217
13.8249694 ,Left ,62,2781286639868 ,48,3743184417839 ,62,8870433967259
13.8249715 ,Left ,62,2781286639868 ,48,3743184417839 ,62,8870433967259
13.841805 ,Left ,62,2783039147577 ,48,3728068468981 ,62,9118584073208
13.8418127 ,Left ,62,2783039147577 ,48,3728068468981 ,62,9118584073208
13.864499 ,Left ,62,2922774816087 ,48,3743575396978 ,62,9257996034322
13.8645134 ,Left ,62,2922774816087 ,48,3743575396978 ,62,9257996034322
13.8858196 ,Left ,62,2844824383478 ,48,3801899323814 ,62,9363272153564
13.8858274 ,Left ,62,2844824383478 ,48,3801899323814 ,62,9363272153564
13.9023991 ,Left ,62,2751923874179 ,48,3933754858677 ,62,9472311219105
13.9024068 ,Left ,62,2751923874179 ,48,3933754858677 ,62,9472311219105
13.924555 ,Left ,62,2873833212799 ,48,407925927763 ,62,9590840103495
13.9245675 ,Left ,62,2873833212799 ,48,407925927763 ,62,9590840103495
13.9454169 ,Left ,62,3022421976066 ,48,4273162600383 ,62,9571208271354
13.9454241 ,Left ,62,3022421976066 ,48,4273162600383 ,62,9571208271354
13.9615961 ,Left ,62,3219701117904 ,48,4326860398445 ,62,9501220331822
13.9615995 ,Left ,62,3219701117904 ,48,4326860398445 ,62,9501220331822
13.9841456 ,Left ,62,3295880481506 ,48,443165675402 ,62,939103139557
13.9841491 ,Left ,62,3295880481506 ,48,443165675402 ,62,939103139557
14.0067254 ,Left ,62,3166673429224 ,48,4699465616217 ,62,9153932937148
14.006729 ,Left ,62,3166673429224 ,48,4699465616217 ,62,9153932937148
14.021742 ,Left ,62,2964933976371 ,48,4920123317403 ,62,8845522862009
14.0217469 ,Left ,62,2964933976371 ,48,4920123317403 ,62,8845522862009
14.0438203 ,Left ,62,2911122270833 ,48,509060126787 ,62,8400530161654
14.0438221 ,Left ,62,2911122270833 ,48,509060126787 ,62,8400530161654
14.0665666 ,Left ,62,2801373477163 ,48,513837236181 ,62,792259485359
14.0665692 ,Left ,62,2801373477163 ,48,513837236181 ,62,792259485359
14.0816424 ,Left ,62,2602925575246 ,48,5241362087179 ,62,7497888747659
14.0816452 ,Left ,62,2602925575246 ,48,5241362087179 ,62,7497888747659
14.1039313 ,Left ,62,2206507200269 ,48,5267273785181 ,62,7162278823095
14.1039331 ,Left ,62,2206507200269 ,48,5267273785181 ,62,7162278823095
14.1263888 ,Left ,62,2002703767093 ,48,5231893108427 ,62,6755075722738
14.1263912 ,Left ,62,2002703767093 ,48,5231893108427 ,62,6755075722738
14.1410527 ,Left ,62,1791085406412 ,48,50019823774 ,62,6343107649677
14.1410564 ,Left ,62,1791085406412 ,48,50019823774 ,62,6343107649677
14.1641598 ,Left ,62,1714228023611 ,48,4662917394175 ,62,5924068251125
14.1641636 ,Left ,62,1714228023611 ,48,4662917394175 ,62,5924068251125
14.1693707 ,Left ,62,1557100789702 ,48,42442193337 ,62,5425142874928
14.1693738 ,Left ,62,1557100789702 ,48,42442193337 ,62,5425142874928
14.1918967 ,Left ,62,1107172358758 ,48,3692783044002 ,62,4798126614003
14.1918998 ,Left ,62,1107172358758 ,48,3692783044002 ,62,4798126614003
14.2081552 ,Left ,62,0750109023056 ,48,3451828552086 ,62,4505737749533
14.2081569 ,Left ,62,0750109023056 ,48,3451828552086 ,62,4505737749533
14.229495 ,Left ,62,0456613802 ,48,3458454982227 ,62,4519989617778
14.2294974 ,Left ,62,0456613802 ,48,3458454982227 ,62,4519989617778
14.2520936 ,Left ,62,1427873343965 ,48,3920813542886 ,62,4829012317464
14.2520966 ,Left ,62,1427873343965 ,48,3920813542886 ,62,4829012317464
14.2684688 ,Left ,62,2641273879359 ,48,4192536266666 ,62,4667754816543
14.2684718 ,Left ,62,2641273879359 ,48,4192536266666 ,62,4667754816543
14.2893547 ,Left ,62,298930639374 ,48,4333822725823 ,62,4073636007792
14.2893566 ,Left ,62,298930639374 ,48,4333822725823 ,62,4073636007792
14.3121068 ,Left ,62,3350110004482 ,48,4591106392147 ,62,337055079697
14.3121095 ,Left ,62,3350110004482 ,48,4591106392147 ,62,337055079697
14.3280857 ,Left ,62,3027209279911 ,48,4845888669295 ,62,288424905082
14.3280875 ,Left ,62,3027209279911 ,48,4845888669295 ,62,288424905082
14.3493259 ,Left ,62,2884223594801 ,48,5065817174834 ,62,2333232968473
14.3493283 ,Left ,62,2884223594801 ,48,5065817174834 ,62,2333232968473
14.3719485 ,Left ,62,2367456433663 ,48,5212472665599 ,62,1877924207184
14.3719521 ,Left ,62,2367456433663 ,48,5212472665599 ,62,1877924207184
14.3869903 ,Left ,62,2034522699027 ,48,4941045550777 ,62,1299541325932
14.3869941 ,Left ,62,2034522699027 ,48,4941045550777 ,62,1299541325932
14.4093655 ,Left ,62,2183669605736 ,48,4308830654662 ,62,0526325088671
14.4093681 ,Left ,62,2183669605736 ,48,4308830654662 ,62,0526325088671
14.4317881 ,Left ,62,1739154808965 ,48,3526548888007 ,61,9831119108225
14.43179 ,Left ,62,1739154808965 ,48,3526548888007 ,61,9831119108225
14.4482692 ,Left ,61,9727954422889 ,48,3163546043394 ,61,9481444042112
14.4482717 ,Left ,61,9727954422889 ,48,3163546043394 ,61,9481444042112
14.4696877 ,Left ,61,8570604708699 ,48,3373572976479 ,61,9145370002916
14.4696915 ,Left ,61,8570604708699 ,48,3373572976479 ,61,9145370002916
14.4917497 ,Left ,61,8585892046287 ,48,3223028485475 ,61,8955579084414
14.4917516 ,Left ,61,8585892046287 ,48,3223028485475 ,61,8955579084414
14.5083101 ,Left ,61,9689527473866 ,48,2846967194302 ,61,9154828199327
14.5083126 ,Left ,61,9689527473866 ,48,2846967194302 ,61,9154828199327
14.5295775 ,Left ,62,14271737071 ,48,2719865760156 ,61,9513727377763
14.5295804 ,Left ,62,14271737071 ,48,2719865760156 ,61,9513727377763
14.5525116 ,Left ,62,1502830739714 ,48,2760740761436 ,61,9445661095106
14.5525198 ,Left ,62,1502830739714 ,48,2760740761436 ,61,9445661095106
14.5686868 ,Left ,62,0358648317674 ,48,2778776784837 ,61,9083294025442
14.5686931 ,Left ,62,0358648317674 ,48,2778776784837 ,61,9083294025442
14.5898036 ,Left ,62,0321675523438 ,48,3118328364487 ,61,9047845177497
14.5898085 ,Left ,62,0321675523438 ,48,3118328364487 ,61,9047845177497
14.6119779 ,Left ,61,9635094156572 ,48,3597899031945 ,61,8999245712199
14.6119816 ,Left ,61,9635094156572 ,48,3597899031945 ,61,8999245712199
14.6284229 ,Left ,61,9328858823075 ,48,3958037714218 ,61,8652827999932
14.6284266 ,Left ,61,9328858823075 ,48,3958037714218 ,61,8652827999932
14.6496925 ,Left ,61,8856253796993 ,48,4331034462095 ,61,8426610717976
14.6496965 ,Left ,61,8856253796993 ,48,4331034462095 ,61,8426610717976
14.6719631 ,Left ,61,9148532338873 ,48,3963114969505 ,61,9087076515466
14.671967 ,Left ,61,9148532338873 ,48,3963114969505 ,61,9087076515466
14.6883339 ,Left ,61,9885293258103 ,48,3170710342671 ,62,0111253723296
14.6883376 ,Left ,61,9885293258103 ,48,3170710342671 ,62,0111253723296
14.7093857 ,Left ,62,0042485050732 ,48,2716803786716 ,62,0412830545333
14.7093895 ,Left ,62,0042485050732 ,48,2716803786716 ,62,0412830545333
14.7326682 ,Left ,61,9180402403824 ,48,2873392796171 ,62,0517021987868
14.7326758 ,Left ,61,9180402403824 ,48,2873392796171 ,62,0517021987868
14.7485566 ,Left ,61,956155965476 ,48,3691518280055 ,62,1140451805444
14.7485619 ,Left ,61,956155965476 ,48,3691518280055 ,62,1140451805444
14.7694135 ,Left ,61,9622896902198 ,48,4090386649701 ,62,1568167797471
14.7694171 ,Left ,61,9622896902198 ,48,4090386649701 ,62,1568167797471
14.7919376 ,Left ,61,8648636146616 ,48,3806663599548 ,62,155917616406
14.7919411 ,Left ,61,8648636146616 ,48,3806663599548 ,62,155917616406
14.8084949 ,Left ,61,7997635026332 ,48,3399356174887 ,62,1589712780654
14.8084985 ,Left ,61,7997635026332 ,48,3399356174887 ,62,1589712780654
14.8296618 ,Left ,61,7284083198094 ,48,2847766314513 ,62,1808553728474
14.8296654 ,Left ,61,7284083198094 ,48,2847766314513 ,62,1808553728474
14.8518957 ,Left ,61,6755006243627 ,48,210248486142 ,62,1621325682211
14.8518976 ,Left ,61,6755006243627 ,48,210248486142 ,62,1621325682211
14.8681213 ,Left ,61,640337318058 ,48,1407071072156 ,62,144700453091
14.8681231 ,Left ,61,640337318058 ,48,1407071072156 ,62,144700453091
14.8895116 ,Left ,61,595213262219 ,48,1264211642623 ,62,1598038222447
14.8895139 ,Left ,61,595213262219 ,48,1264211642623 ,62,1598038222447
14.9120414 ,Left ,61,5675882856358 ,48,1494841531693 ,62,1544595857609
14.9120441 ,Left ,61,5675882856358 ,48,1494841531693 ,62,1544595857609
14.9297392 ,Left ,61,5583719424173 ,48,1972947254692 ,62,1277478586486
14.9297423 ,Left ,61,5583719424173 ,48,1972947254692 ,62,1277478586486
14.9492133 ,Left ,61,5595979388687 ,48,2528455575487 ,62,1093277885324
14.9492151 ,Left ,61,5595979388687 ,48,2528455575487 ,62,1093277885324
14.9723368 ,Left ,61,641450772374 ,48,3009555389984 ,62,0874766851908
14.9723446 ,Left ,61,641450772374 ,48,3009555389984 ,62,0874766851908
14.9901688 ,Left ,61,6474046133586 ,48,3267431000764 ,62,0498994339556
14.9901768 ,Left ,61,6474046133586 ,48,3267431000764 ,62,0498994339556
15.0128015 ,Left ,61,6493992850523 ,48,3268394443815 ,62,021094152429
15.0128096 ,Left ,61,6493992850523 ,48,3268394443815 ,62,021094152429
15.0327252 ,Left ,61,6280997489148 ,48,3226951527502 ,61,9854644311653
15.032746 ,Left ,61,6280997489148 ,48,3226951527502 ,61,9854644311653
15.0502584 ,Left ,61,6006721977399 ,48,3314519752898 ,61,947662718713
15.050266 ,Left ,61,6006721977399 ,48,3314519752898 ,61,947662718713
15.069597 ,Left ,61,6107075828643 ,48,3385405283342 ,61,9083456401762
15.0696013 ,Left ,61,6107075828643 ,48,3385405283342 ,61,9083456401762
15.0921372 ,Left ,61,6117017631778 ,48,3389703473561 ,61,868284728611
15.0921404 ,Left ,61,6117017631778 ,48,3389703473561 ,61,868284728611
15.1097055 ,Left ,61,5800780733826 ,48,3303557309596 ,61,8326295568897
15.1097084 ,Left ,61,5800780733826 ,48,3303557309596 ,61,8326295568897
15.1295577 ,Left ,61,5498090743115 ,48,3170809316605 ,61,8024786159231
15.1295608 ,Left ,61,5498090743115 ,48,3170809316605 ,61,8024786159231
15.1520351 ,Left ,61,5611226394925 ,48,3080463662495 ,61,7686628306168
15.1520372 ,Left ,61,5611226394925 ,48,3080463662495 ,61,7686628306168
15.1771934 ,Left ,61,5734486271027 ,48,2993549608833 ,61,7399440322044
15.1771952 ,Left ,61,5734486271027 ,48,2993549608833 ,61,7399440322044
15.1895352 ,Left ,61,5901415950652 ,48,2979501921965 ,61,7093652292708
15.1895374 ,Left ,61,5901415950652 ,48,2979501921965 ,61,7093652292708
15.2118475 ,Left ,61,5955749145182 ,48,2912045170051 ,61,6757606328932
15.2118494 ,Left ,61,5955749145182 ,48,2912045170051 ,61,6757606328932
15.2296749 ,Left ,61,565022287801 ,48,2804790921333 ,61,6514101064923
15.2296768 ,Left ,61,565022287801 ,48,2804790921333 ,61,6514101064923
15.2494769 ,Left ,61,5465205215591 ,48,2991503108014 ,61,6451848078086
15.2494789 ,Left ,61,5465205215591 ,48,2991503108014 ,61,6451848078086
15.2718706 ,Left ,61,5492503776433 ,48,3309639484224 ,61,623165933286
15.2718732 ,Left ,61,5492503776433 ,48,3309639484224 ,61,623165933286
15.290222 ,Left ,61,4800559786096 ,48,3189127729268 ,61,6279485166533
15.2902243 ,Left ,61,4800559786096 ,48,3189127729268 ,61,6279485166533
15.3093534 ,Left ,61,4512169668465 ,48,286427938054 ,61,6157275133365
15.3093565 ,Left ,61,4512169668465 ,48,286427938054 ,61,6157275133365
15.3320947 ,Left ,61,4340718245306 ,48,2519003581775 ,61,6605530524029
15.3320999 ,Left ,61,4340718245306 ,48,2519003581775 ,61,6605530524029
15.3500653 ,Left ,61,4932470251907 ,48,251057630711 ,61,651785322405
15.3500702 ,Left ,61,4932470251907 ,48,251057630711 ,61,651785322405
15.372415 ,Left ,61,5395855735958 ,48,2837662779111 ,61,6341883364045
15.3724199 ,Left ,61,5395855735958 ,48,2837662779111 ,61,6341883364045
15.3921077 ,Left ,61,5758068561298 ,48,3100891545221 ,61,6271748265327
15.3921113 ,Left ,61,5758068561298 ,48,3100891545221 ,61,6271748265327
15.409764 ,Left ,61,5556209857994 ,48,2994682577187 ,61,6460618547484
15.4097661 ,Left ,61,5556209857994 ,48,2994682577187 ,61,6460618547484
15.4294183 ,Left ,61,5626535038124 ,48,3091035395033 ,61,6366252381953
15.4294204 ,Left ,61,5626535038124 ,48,3091035395033 ,61,6366252381953
15.4548503 ,Left ,61,5903651046812 ,48,3583082079212 ,61,6190827415386
15.4548526 ,Left ,61,5903651046812 ,48,3583082079212 ,61,6190827415386
15.4702637 ,Left ,61,6209301296588 ,48,4085394417564 ,61,606596422992
15.4702715 ,Left ,61,6209301296588 ,48,4085394417564 ,61,606596422992
15.4894681 ,Left ,61,6826058721855 ,48,4416911966527 ,61,5844300073994
15.4894701 ,Left ,61,6826058721855 ,48,4416911966527 ,61,5844300073994
15.5117863 ,Left ,61,730222528349 ,48,4440280754255 ,61,5809257169825
15.5117889 ,Left ,61,730222528349 ,48,4440280754255 ,61,5809257169825
15.5301996 ,Left ,61,748966519315 ,48,4419987233881 ,61,5771639018564
15.5302073 ,Left ,61,748966519315 ,48,4419987233881 ,61,5771639018564
15.5508758 ,Left ,61,7582879574582 ,48,4179558931955 ,61,5781540390567
15.5508778 ,Left ,61,7582879574582 ,48,4179558931955 ,61,5781540390567
15.5717363 ,Left ,61,7497631911981 ,48,3547247328066 ,61,540510447882
15.5717382 ,Left ,61,7497631911981 ,48,3547247328066 ,61,540510447882
15.5898778 ,Left ,61,7007132833238 ,48,2928871183463 ,61,4683899214195
15.58988 ,Left ,61,7007132833238 ,48,2928871183463 ,61,4683899214195
15.610732 ,Left ,61,5712594203735 ,48,2351280314381 ,61,4311716141274
15.6107351 ,Left ,61,5712594203735 ,48,2351280314381 ,61,4311716141274
15.6324701 ,Left ,61,5200538962812 ,48,2059563561059 ,61,4272543374499
15.6324779 ,Left ,61,5200538962812 ,48,2059563561059 ,61,4272543374499
15.6507051 ,Left ,61,544181551593 ,48,2370654145139 ,61,4473631844565
15.6507129 ,Left ,61,544181551593 ,48,2370654145139 ,61,4473631844565
15.6711545 ,Left ,61,6298234500829 ,48,2893129391591 ,61,4694403591769
15.6711695 ,Left ,61,6298234500829 ,48,2893129391591 ,61,4694403591769
15.6929986 ,Left ,61,6801358064886 ,48,3402967576166 ,61,4974581073588
15.6930186 ,Left ,61,6801358064886 ,48,3402967576166 ,61,4974581073588
15.7096309 ,Left ,61,7399502879003 ,48,3728730040677 ,61,5328791700829
15.7096327 ,Left ,61,7399502879003 ,48,3728730040677 ,61,5328791700829
15.7308513 ,Left ,61,7459430499448 ,48,4092319660648 ,61,596466662269
15.7308533 ,Left ,61,7459430499448 ,48,4092319660648 ,61,596466662269
15.7517871 ,Left ,61,7495956331227 ,48,4755113760888 ,61,659706886249
15.7517889 ,Left ,61,7495956331227 ,48,4755113760888 ,61,659706886249
15.7698106 ,Left ,61,7477492129768 ,48,5497184623552 ,61,7253345111937
15.7698136 ,Left ,61,7477492129768 ,48,5497184623552 ,61,7253345111937
15.7907215 ,Left ,61,8150010048912 ,48,6201465464486 ,61,7926403617721
15.7907241 ,Left ,61,8150010048912 ,48,6201465464486 ,61,7926403617721
15.8117962 ,Left ,61,8560066095938 ,48,653925147274 ,61,8661587669968
15.8117979 ,Left ,61,8560066095938 ,48,653925147274 ,61,8661587669968
15.8298571 ,Left ,61,8800500961211 ,48,6773413895575 ,61,9429424569878
15.8298594 ,Left ,61,8800500961211 ,48,6773413895575 ,61,9429424569878
15.85066 ,Left ,61,8887947010711 ,48,689020053977 ,62,0206131086467
15.8506624 ,Left ,61,8887947010711 ,48,689020053977 ,62,0206131086467
15.8720516 ,Left ,61,8859550508969 ,48,6874859988449 ,62,0989048391867
15.872054 ,Left ,61,8859550508969 ,48,6874859988449 ,62,0989048391867
15.8897839 ,Left ,61,911457593735 ,48,6676103496076 ,62,1671761689681
15.8897862 ,Left ,61,911457593735 ,48,6676103496076 ,62,1671761689681
15.91247 ,Left ,61,9201131036323 ,48,6406631118244 ,62,2349773439996
15.9124727 ,Left ,61,9201131036323 ,48,6406631118244 ,62,2349773439996
15.9325528 ,Left ,61,9447758210463 ,48,6024442695605 ,62,3027673622466
15.9325556 ,Left ,61,9447758210463 ,48,6024442695605 ,62,3027673622466
15.9497226 ,Left ,61,9798649160077 ,48,5772584018576 ,62,3768464520652
15.9497245 ,Left ,61,9798649160077 ,48,5772584018576 ,62,3768464520652
15.9722108 ,Left ,62,0225333641433 ,48,5664762103002 ,62,4461386703362
15.9722131 ,Left ,62,0225333641433 ,48,5664762103002 ,62,4461386703362
15.9872939 ,Left ,62,0547340102011 ,48,5709190833758 ,62,5067913765793
15.9872962 ,Left ,62,0547340102011 ,48,5709190833758 ,62,5067913765793
16.00975 ,Left ,62,0508673205572 ,48,5595390273166 ,62,5703274049532
16.009753 ,Left ,62,0508673205572 ,48,5595390273166 ,62,5703274049532
16.0316017 ,Left ,62,0546309912862 ,48,5270941739084 ,62,6338194550268
16.0316037 ,Left ,62,0546309912862 ,48,5270941739084 ,62,6338194550268
16.0526693 ,Left ,62,0825744078892 ,48,5043386239203 ,62,6928426331159
16.0526718 ,Left ,62,0825744078892 ,48,5043386239203 ,62,6928426331159
16.06917 ,Left ,62,110022034324 ,48,506256206947 ,62,744734349456
16.0691727 ,Left ,62,110022034324 ,48,506256206947 ,62,744734349456
16.0914698 ,Left ,62,1173243384347 ,48,5247341652983 ,62,7965159582436
16.091472 ,Left ,62,1173243384347 ,48,5247341652983 ,62,7965159582436
16.1123144 ,Left ,62,1257292448741 ,48,5285412217077 ,62,8497108086087
16.1123163 ,Left ,62,1257292448741 ,48,5285412217077 ,62,8497108086087
16.1290182 ,Left ,62,1401182019697 ,48,5238457446898 ,62,8886953338122
16.1290206 ,Left ,62,1401182019697 ,48,5238457446898 ,62,8886953338122
16.1515348 ,Left ,62,1520394395022 ,48,5189569669116 ,62,9089008159838
16.151537 ,Left ,62,1520394395022 ,48,5189569669116 ,62,9089008159838
16.1659612 ,Left ,62,1587017560189 ,48,5140670961953 ,62,9238502377877
16.1659639 ,Left ,62,1587017560189 ,48,5140670961953 ,62,9238502377877
16.1888222 ,Left ,62,1609834561 ,48,5173997933039 ,62,9301286547974
16.188824 ,Left ,62,1609834561 ,48,5173997933039 ,62,9301286547974
16.2116531 ,Left ,62,1603299305007 ,48,5221421316758 ,62,929341571428
16.2116552 ,Left ,62,1603299305007 ,48,5221421316758 ,62,929341571428
16.2261947 ,Left ,62,1719342634866 ,48,5367338239171 ,62,9161008650804
16.2262023 ,Left ,62,1719342634866 ,48,5367338239171 ,62,9161008650804
16.2494987 ,Left ,62,1743661394281 ,48,563151602134 ,62,8872893776247
16.2495086 ,Left ,62,1743661394281 ,48,563151602134 ,62,8872893776247
16.2718375 ,Left ,62,1733675943996 ,48,5987379736345 ,62,8528703074074
16.2718435 ,Left ,62,1733675943996 ,48,5987379736345 ,62,8528703074074
16.2859622 ,Left ,62,1639215347759 ,48,6227590455688 ,62,8103330791581
16.2859665 ,Left ,62,1639215347759 ,48,6227590455688 ,62,8103330791581
16.3092297 ,Left ,62,1534834695858 ,48,6387071147157 ,62,7670332360531
16.3092347 ,Left ,62,1534834695858 ,48,6387071147157 ,62,7670332360531
16.3312374 ,Left ,62,1381253109136 ,48,6446992917653 ,62,7190404111373
16.3312392 ,Left ,62,1381253109136 ,48,6446992917653 ,62,7190404111373
16.3457263 ,Left ,62,0957344186188 ,48,6477815300248 ,62,6806548934985
16.345728 ,Left ,62,0957344186188 ,48,6477815300248 ,62,6806548934985
16.3691315 ,Left ,62,0540355284712 ,48,6460860018051 ,62,6633675029997
16.3691336 ,Left ,62,0540355284712 ,48,6460860018051 ,62,6633675029997
16.3991471 ,Left ,62,0042756304621 ,48,6295907175767 ,62,650526943082
16.3991512 ,Left ,62,0042756304621 ,48,6295907175767 ,62,650526943082
16.4126511 ,Left ,61,940425065493 ,48,5979976576431 ,62,64232250039
16.4126541 ,Left ,61,940425065493 ,48,5979976576431 ,62,64232250039
16.4291915 ,Left ,61,8431183176892 ,48,5424913723571 ,62,6279032603853
16.4291957 ,Left ,61,8431183176892 ,48,5424913723571 ,62,6279032603853
16.4512085 ,Left ,61,7452788604281 ,48,4810299034925 ,62,6073294840876
16.4512103 ,Left ,61,7452788604281 ,48,4810299034925 ,62,6073294840876
16.4731575 ,Left ,61,7213965754733 ,48,4402448242192 ,62,601038444567
16.4731795 ,Left ,61,7213965754733 ,48,4402448242192 ,62,601038444567
16.4894705 ,Left ,61,7564214201295 ,48,4431687732827 ,62,6175634400031
16.4894785 ,Left ,61,7564214201295 ,48,4431687732827 ,62,6175634400031
16.5117662 ,Left ,61,8708628260828 ,48,4774701491215 ,62,581809316893
16.5118604 ,Left ,61,8708628260828 ,48,4774701491215 ,62,581809316893
16.5328003 ,Left ,61,9742682848959 ,48,5155143734579 ,62,5169594322684
16.5328256 ,Left ,61,9742682848959 ,48,5155143734579 ,62,5169594322684
16.5493819 ,Left ,61,9869407998877 ,48,5414788436467 ,62,4578023793733
16.5493874 ,Left ,61,9869407998877 ,48,5414788436467 ,62,4578023793733
16.5718515 ,Left ,62,0762476603589 ,48,585649561012 ,62,3896745136833
16.5718575 ,Left ,62,0762476603589 ,48,585649561012 ,62,3896745136833
16.5930708 ,Left ,61,9839720392642 ,48,6231956288801 ,62,3539046448711
16.5930855 ,Left ,61,9839720392642 ,48,6231956288801 ,62,3539046448711
16.6096567 ,Left ,61,9297305620453 ,48,6540742605393 ,62,2911530709462
16.6096643 ,Left ,61,9297305620453 ,48,6540742605393 ,62,2911530709462
16.6334147 ,Left ,61,9824773076323 ,48,6351237840176 ,62,2059679968597
16.6334224 ,Left ,61,9824773076323 ,48,6351237840176 ,62,2059679968597
16.6528483 ,Left ,61,9421167827999 ,48,5497054833219 ,62,143847870104
16.6528586 ,Left ,61,9421167827999 ,48,5497054833219 ,62,143847870104
16.6751379 ,Left ,61,9212212757407 ,48,4230927825215 ,62,0869977409598
16.6751399 ,Left ,61,9212212757407 ,48,4230927825215 ,62,0869977409598
16.6915573 ,Left ,61,8093195180833 ,48,3386924256809 ,62,0371672114149
16.6915593 ,Left ,61,8093195180833 ,48,3386924256809 ,62,0371672114149
16.7122924 ,Left ,61,6611032539389 ,48,3330020135364 ,62,0039697882861
16.7122942 ,Left ,61,6611032539389 ,48,3330020135364 ,62,0039697882861
16.7284746 ,Left ,61,6591724146516 ,48,3417005341752 ,61,9957791264168
16.7284769 ,Left ,61,6591724146516 ,48,3417005341752 ,61,9957791264168
16.7516383 ,Left ,61,7691134403468 ,48,4128184809957 ,62,0107061231545
16.7516416 ,Left ,61,7691134403468 ,48,4128184809957 ,62,0107061231545
16.7723694 ,Left ,61,8577084883435 ,48,4960703755264 ,62,059812294393
16.7723713 ,Left ,61,8577084883435 ,48,4960703755264 ,62,059812294393
16.7884452 ,Left ,61,9453900014818 ,48,5294820165471 ,62,0983250042199
16.7884507 ,Left ,61,9453900014818 ,48,5294820165471 ,62,0983250042199
16.8116294 ,Left ,61,9170064436732 ,48,5109712248874 ,62,0904436794754
16.8116317 ,Left ,61,9170064436732 ,48,5109712248874 ,62,0904436794754
16.8417013 ,Left ,61,8805006412709 ,48,4494223206194 ,62,054307873092
16.8417047 ,Left ,61,8805006412709 ,48,4494223206194 ,62,054307873092
16.8483454 ,Left ,61,8467610937696 ,48,4262993371826 ,62,0350309337481
16.8483484 ,Left ,61,8467610937696 ,48,4262993371826 ,62,0350309337481
16.8715531 ,Left ,61,7153560136453 ,48,4297644033083 ,62,0222809398322
16.8715571 ,Left ,61,7153560136453 ,48,4297644033083 ,62,0222809398322
16.8941493 ,Left ,61,6388299654678 ,48,4450904010696 ,61,9865018841959
16.8941534 ,Left ,61,6388299654678 ,48,4450904010696 ,61,9865018841959
