timestamp,event,roll,pitch,yaw
0.0166166 ,Left ,55.444092099531 ,45.9422808387635 ,0.99737669408994
0.0342484 ,Left ,55.4440294211904 ,45.9442407251096 ,0.99772276288105
0.0524719 ,Left ,55.4440294211904 ,45.9442407251096 ,0.99772276288105
0.0728687 ,Left ,55.446108355893 ,45.9441358334477 ,0.997439067347651
0.0990791 ,Left ,55.4460456998117 ,45.9460956602901 ,0.997785243180765
0.1110247 ,Left ,55.4460456998117 ,45.9460956602901 ,0.997785243180765
0.1300583 ,Left ,55.4444573528197 ,45.9482665418086 ,0.996317668287085
0.1532266 ,Left ,55.4347806855865 ,45.9512018941645 ,0.994026232585421
0.1679859 ,Left ,55.4228010718727 ,45.9538939089041 ,0.993971962686101
0.1900732 ,Left ,55.4132517938337 ,45.9529049392707 ,0.990988234397435
0.2127543 ,Left ,55.4000645346687 ,45.9508484144764 ,0.984313341215481
0.2282753 ,Left ,55.3892478181443 ,45.9470639096815 ,0.975056897441611
0.2523942 ,Left ,55.3847621331194 ,45.9376656546735 ,0.96210615689436
0.2810869 ,Left ,55.3854754035659 ,45.9209444646697 ,0.95524413309435
0.2882329 ,Left ,55.3893700972216 ,45.9046058947643 ,0.955985824343253
0.3141971 ,Left ,55.3882867281334 ,45.8913632997195 ,0.963855864858035
0.3336509 ,Left ,55.3806659727506 ,45.8800494591283 ,0.974890316201339
0.3478367 ,Left ,55.3781512960822 ,45.8712753236345 ,0.979685072494204
0.3700046 ,Left ,55.3958819549294 ,45.8662169432178 ,0.980601646404765
0.3927676 ,Left ,55.4183425151953 ,45.865906033171 ,0.975748079225193
0.4076041 ,Left ,55.4360124502782 ,45.8723683115589 ,0.978591972793096
0.4301159 ,Left ,55.4587782145922 ,45.891195645544 ,0.988882759373501
0.4524998 ,Left ,55.4898561258282 ,45.9177675009549 ,0.997490918613455
0.4677855 ,Left ,55.508886675955 ,45.9394174829395 ,1.00484387615675
0.4972289 ,Left ,55.5117818736725 ,45.9591113416011 ,1.0158062828159
0.512814 ,Left ,55.5083948446303 ,45.9810782089988 ,1.02796451001901
0.5276328 ,Left ,55.5077081302544 ,46.0092716665458 ,1.03682641320938
0.5498559 ,Left ,55.5148588421673 ,46.0431348556313 ,1.04576258857096
0.5724788 ,Left ,55.5276215138639 ,46.0756058609206 ,1.05973200757566
0.5877861 ,Left ,55.5415545485567 ,46.1078617216917 ,1.06361123674177
0.6103341 ,Left ,55.5525206537295 ,46.1266777775385 ,1.05564966633148
0.6324205 ,Left ,55.5555334791967 ,46.1267725892161 ,1.03139147625901
0.6475249 ,Left ,55.5546340077521 ,46.11260059518 ,1.00125182543434
0.6698043 ,Left ,55.5544778229905 ,46.0864585828028 ,0.968846211404288
0.6938243 ,Left ,55.5678731792776 ,46.0655767899897 ,0.93778313429463
0.7073994 ,Left ,55.5818008176904 ,46.0440900886042 ,0.920438272725497
0.7298287 ,Left ,55.5860534766511 ,46.0132907906975 ,0.914605472816909
0.7523481 ,Left ,55.5776784638656 ,45.9634576177378 ,0.91690044795896
0.7677041 ,Left ,55.5453066673543 ,45.9031678277569 ,0.918429035701078
0.7898526 ,Left ,55.5212741727737 ,45.8443345721646 ,0.899397659481908
0.8124173 ,Left ,55.5150497215783 ,45.7840802178228 ,0.869907695350702
0.8275891 ,Left ,55.5073647487762 ,45.7304817478703 ,0.849775020863974
0.8500149 ,Left ,55.493891884665 ,45.6960529549067 ,0.845646593044982
0.8806657 ,Left ,55.4980649990247 ,45.6882495941349 ,0.843765998499326
0.8965168 ,Left ,55.5194701450013 ,45.7044086638564 ,0.847707917643471
0.9174337 ,Left ,55.5528306467893 ,45.7271095868152 ,0.867184677874455
0.9325152 ,Left ,55.5688986212385 ,45.7798965093166 ,0.90012200412296
0.9474607 ,Left ,55.5715266639037 ,45.8544791521931 ,0.960527987228473
0.9774632 ,Left ,55.5711578179325 ,45.9427327676162 ,1.03360787075108
0.9999677 ,Left ,55.556574457713 ,46.0346321755108 ,1.1129752653619
1.0299376 ,Left ,55.4907717948558 ,46.1706286593382 ,1.21753283755231
1.0524302 ,Left ,55.4734714984355 ,46.193884556596 ,1.21549953734171
1.0749207 ,Left ,55.493171754367 ,46.1847528727756 ,1.18183116136757
1.0899345 ,Left ,55.5456808898258 ,46.1309817932089 ,1.13279477215381
1.1123709 ,Left ,55.603373339604 ,46.0450349083383 ,1.07332371717439
1.1347793 ,Left ,55.6351879273112 ,45.9601123391039 ,1.01683634258198
1.1502672 ,Left ,55.6588116626553 ,45.8709951111529 ,0.964418925970134
1.1724028 ,Left ,55.6567028900926 ,45.7606077736339 ,0.927349973931878
1.1949285 ,Left ,55.6314422728142 ,45.6350700899639 ,0.90264751748362
1.2099766 ,Left ,55.5909076109738 ,45.5156196230687 ,0.891266272577047
1.2326041 ,Left ,55.5561356556197 ,45.4372507831229 ,0.882502127543256
1.254875 ,Left ,55.5361662812792 ,45.4069989712853 ,0.868116920774121
1.2699157 ,Left ,55.4543998437123 ,45.4151493457779 ,0.881005197788
1.2932794 ,Left ,55.383261478404 ,45.4749964923693 ,0.891022947930543
1.3148553 ,Left ,55.2979256750844 ,45.5409352488419 ,0.949512522005557
1.3300545 ,Left ,55.0091930922852 ,45.6408643419029 ,1.07586456880266
1.3522815 ,Left ,54.6045810626253 ,45.7929748600379 ,1.2124819920244
1.3748416 ,Left ,54.1847198242518 ,45.9648825030949 ,1.35510104478177
1.3900463 ,Left ,53.6326115909268 ,46.1446425788614 ,1.5053653969076
1.4124041 ,Left ,52.9089617199901 ,46.3905788082893 ,1.64443210196721
1.4348277 ,Left ,52.2646530026739 ,46.7028650574838 ,1.73933114290071
1.4501041 ,Left ,51.8583631621553 ,47.0792228391057 ,1.81786271376723
1.472517 ,Left ,51.7603418331957 ,47.4974485066177 ,1.95511120607723
1.4959849 ,Left ,51.9063150113028 ,47.8739409137456 ,2.12154203060503
1.5107452 ,Left ,52.1500353211616 ,48.2365194469174 ,2.27596446366138
1.5324323 ,Left ,52.3209651951434 ,48.6289972798374 ,2.39429294386371
1.5551009 ,Left ,52.3699377382159 ,49.0477369953392 ,2.51645549913595
1.5775182 ,Left ,52.3057992818561 ,49.4774412452276 ,2.66978523956468
1.5924509 ,Left ,52.139835605167 ,49.872328880625 ,2.90485717846866
1.6149641 ,Left ,51.9369891598122 ,50.2092526625676 ,3.13635861506305
1.6373752 ,Left ,51.6959219024624 ,50.4862554930674 ,3.38090122429262
1.6525118 ,Left ,51.5046757595328 ,50.6982303757372 ,3.64227494470483
1.6748188 ,Left ,51.3930188298202 ,50.8806387959711 ,3.94949984116366
1.6974668 ,Left ,51.3011118079612 ,51.0692273401567 ,4.25086803357391
1.7125248 ,Left ,51.2606474120044 ,51.2438421389647 ,4.52780395418332
1.734915 ,Left ,51.2650229503266 ,51.4133781648581 ,4.79169808135268
1.757949 ,Left ,51.3019853735754 ,51.5628073869389 ,5.04547842977913
1.77254 ,Left ,51.3495662945475 ,51.6887684226584 ,5.30054954526998
1.7950211 ,Left ,51.3631080099581 ,51.7874845553628 ,5.59138539036465
1.817565 ,Left ,51.3399498431731 ,51.8705459553236 ,5.9111846939455
1.8325722 ,Left ,51.2397815940575 ,51.9346609413252 ,6.20828847029428
1.85497 ,Left ,51.1334573077975 ,51.9935052963163 ,6.45068073875174
1.8774286 ,Left ,50.9986575421756 ,52.0374940530408 ,6.63604869354022
1.8928878 ,Left ,50.8736692736911 ,52.0320068188313 ,6.77193951486674
1.9149812 ,Left ,50.8023147959572 ,52.0081497234297 ,6.88189836384293
1.9373688 ,Left ,50.7542092734888 ,51.9878592480739 ,6.97322397112202
1.952535 ,Left ,50.7057783935347 ,51.9819622513217 ,7.04422417278385
1.9749589 ,Left ,50.6492331770644 ,51.9823585308649 ,7.09205688327422
1.997435 ,Left ,50.5928813197701 ,51.9629287789476 ,7.12206128019461
2.0126601 ,Left ,50.5813429559775 ,51.9075983732491 ,7.13900478360729
2.0349227 ,Left ,50.5979933119697 ,51.8358412609162 ,7.15745849394329
2.0573387 ,Left ,50.6235825545753 ,51.7738898914568 ,7.18890013445109
2.0724904 ,Left ,50.6472134044161 ,51.7261989167071 ,7.23449746526692
2.0952781 ,Left ,50.6765782039618 ,51.674913960063 ,7.29297183868001
2.1183976 ,Left ,50.7215848730758 ,51.6138334325485 ,7.35359403548411
2.1323834 ,Left ,50.7672567974877 ,51.5484976650263 ,7.4109255384474
2.1549508 ,Left ,50.8280545899766 ,51.4972037956196 ,7.46944579369927
2.1774513 ,Left ,50.8879867385767 ,51.4498685905577 ,7.53269651176875
2.1926063 ,Left ,50.960019156251 ,51.3829537691106 ,7.61525049913176
2.2148675 ,Left ,51.03113469747 ,51.3058297125388 ,7.69541381146049
2.2374654 ,Left ,51.0760096574131 ,51.2332209489845 ,7.75504807986242
2.2525376 ,Left ,51.1171290191683 ,51.1658023091794 ,7.79661812846188
2.2749108 ,Left ,51.148680832493 ,51.1007387370244 ,7.83640554512293
2.2975046 ,Left ,51.1607588528469 ,51.0302566432519 ,7.88023874940055
2.3126389 ,Left ,51.1491798010531 ,50.961603090438 ,7.92695985036479
2.3348945 ,Left ,51.1361066984184 ,50.9219660402772 ,7.95492234405673
2.357462 ,Left ,51.1608420649987 ,50.9129843631422 ,7.97901455272212
2.3728837 ,Left ,51.1941684944197 ,50.9192820063552 ,8.02091295975336
2.4025156 ,Left ,51.1997558400382 ,50.9341643127567 ,8.01332711413004
2.4249453 ,Left ,51.1632736074353 ,50.9683553291496 ,7.98636666358447
2.439942 ,Left ,51.108669237651 ,51.0364768026342 ,7.98863623082422
2.4475577 ,Left ,51.0512370159766 ,51.1092760534596 ,7.99197299484676
2.4699727 ,Left ,50.9949579977595 ,51.1800682224948 ,7.98551826671903
2.4850642 ,Left ,50.9522672974559 ,51.2273474709358 ,7.97215637439837
2.5075296 ,Left ,50.9102313311947 ,51.2302714629468 ,7.95845334828833
2.5300647 ,Left ,50.9187775620518 ,51.1838010827372 ,7.96644053591001
2.5449635 ,Left ,50.9361274618503 ,51.1008774511648 ,7.97740662356306
2.5675808 ,Left ,50.9300865466296 ,51.0139024552787 ,7.98439448615433
2.5905386 ,Left ,50.9009495737667 ,50.947023605697 ,7.98653288936615
2.6125036 ,Left ,50.8761386781031 ,50.8994062125535 ,7.97278993786832
2.6349005 ,Left ,50.879837658042 ,50.8548826046486 ,7.94516112749817
2.6501396 ,Left ,50.9245997999223 ,50.8141016659257 ,7.9147227780237
2.6650197 ,Left ,50.973653164922 ,50.7742855709745 ,7.88553953094166
2.6875011 ,Left ,51.0002429112481 ,50.740261175154 ,7.85638291116412
2.7101937 ,Left ,51.0005287098602 ,50.7128418882421 ,7.82874763724726
2.7250945 ,Left ,50.9927261564396 ,50.6855165841954 ,7.79771422180744
2.7475829 ,Left ,50.9866993237603 ,50.6499480174954 ,7.75848027426324
2.7699494 ,Left ,51.0078347739305 ,50.6094856519667 ,7.72726275186543
2.7849976 ,Left ,51.0399541673255 ,50.5722506343405 ,7.70074622824073
2.8075631 ,Left ,51.047993411912 ,50.5430291315632 ,7.67260419441737
2.845212 ,Left ,51.0144227587817 ,50.5164099696607 ,7.63037620107251
2.8674746 ,Left ,50.9976859008399 ,50.5069246235126 ,7.61404474690755
2.9050392 ,Left ,50.9926463653083 ,50.5047687049133 ,7.59154170492793
2.9285477 ,Left ,50.9833195002518 ,50.5068101360762 ,7.59961633217425
2.9649673 ,Left ,50.9495028158019 ,50.5040593608423 ,7.63667347481369
2.9875363 ,Left ,50.9360875621438 ,50.4969150795024 ,7.65255756830913
3.0250063 ,Left ,50.89104340354 ,50.4490921065243 ,7.68557943756324
3.0474728 ,Left ,50.8585365907869 ,50.3884721310357 ,7.70868245781429
3.0850147 ,Left ,50.7403316642343 ,50.1931387688047 ,7.7216062276756
3.1075272 ,Left ,50.675536755261 ,50.0849811170621 ,7.72481598497063
3.1301971 ,Left ,50.6677624979907 ,49.9806462515846 ,7.73242208578994
3.1450957 ,Left ,50.658509321351 ,49.9192460683182 ,7.71515912238954
3.1675855 ,Left ,50.6039561166372 ,49.9010775937779 ,7.69637268773111
3.1900643 ,Left ,50.5428467716382 ,50.0020460922079 ,7.70554860721893
3.2049268 ,Left ,50.5222596737126 ,50.1528568804109 ,7.73040630509041
3.2274911 ,Left ,50.5531891704194 ,50.2692218917979 ,7.73665728274481
3.2650242 ,Left ,50.7556663651378 ,50.3034590183795 ,7.72208063269385
3.2874353 ,Left ,50.7580197494892 ,50.3078409894966 ,7.6770218312412
3.310117 ,Left ,50.7238562195893 ,50.3620136817849 ,7.58965825045836
3.3476221 ,Left ,50.6979300187728 ,50.4938407168374 ,7.39647572288939
3.3701198 ,Left ,50.7051584265777 ,50.5236579891095 ,7.31124483549572
3.4074928 ,Left ,50.6534564299406 ,50.5015883503727 ,7.086885713389
3.4299882 ,Left ,50.6106595138813 ,50.4531294686956 ,6.98367713430567
3.4675475 ,Left ,50.5131904387808 ,50.2942323677554 ,6.80290302112753
3.4900244 ,Left ,50.4751864620638 ,50.1860250254132 ,6.73952268004776
3.5274954 ,Left ,50.2977251876695 ,49.9243575067038 ,6.711566838953
3.5517542 ,Left ,50.2425964673876 ,49.8067205853434 ,6.74499114511046
3.5874563 ,Left ,50.4570400388999 ,49.6407448337419 ,6.77977692842743
3.610029 ,Left ,50.488116004389 ,49.7185605579076 ,6.71874443282096
3.6474927 ,Left ,50.439157695856 ,49.8320309140459 ,6.6088201812425
3.6699278 ,Left ,50.3296952258178 ,49.8397062728067 ,6.56590237442503
3.707814 ,Left ,50.1983065289803 ,49.9417646827404 ,6.39572520698267
3.7300349 ,Left ,50.1698666389831 ,49.9774157828311 ,6.37450768498929
3.7675559 ,Left ,50.3688298775256 ,50.1744251738789 ,6.42290405935122
3.7901483 ,Left ,50.4423484037247 ,50.3797327544618 ,6.40644257188248
3.8275111 ,Left ,50.3351126084489 ,50.7314163522107 ,6.30496309753813
3.8502776 ,Left ,50.2873213386621 ,50.9214558853319 ,6.28099259128728
3.887535 ,Left ,50.2779779502504 ,50.913584177753 ,6.2212707063774
3.9100432 ,Left ,50.3142041618477 ,50.8388334915471 ,6.27422891295546
3.9474818 ,Left ,50.4180117435517 ,50.6591771699239 ,6.31781622294655
3.9850724 ,Left ,50.2764660277675 ,50.5667299441556 ,6.3148839237979
4.0075811 ,Left ,50.1894281657012 ,50.556403053278 ,6.32988563319304
4.0450742 ,Left ,50.1164027179211 ,50.6563781968392 ,6.32837218865583
4.0675493 ,Left ,50.0312531388722 ,50.8459103943168 ,6.31221236549561
4.1049538 ,Left ,49.946833733579 ,51.0595413257451 ,6.35825789344728
4.1274814 ,Left ,49.9814398702377 ,51.096431983909 ,6.3978967901608
4.1650444 ,Left ,50.1663975673339 ,51.1460822195475 ,6.40481243090983
4.1875951 ,Left ,50.2347926377024 ,51.1896643009786 ,6.40443197663688
4.2249551 ,Left ,50.3330053954551 ,51.3463229784139 ,6.42026157970239
4.2474684 ,Left ,50.349537735208 ,51.4184456676602 ,6.37320298246644
4.2851342 ,Left ,50.531642462579 ,51.47001531531 ,6.2320151851771
4.3074716 ,Left ,50.5869695424282 ,51.4858633503694 ,6.12604189717716
4.322409 ,Left ,50.6088553631362 ,51.530422502767 ,5.99803695775666
4.3450139 ,Left ,50.6129796309161 ,51.5862778420266 ,5.87550139711462
4.3602094 ,Left ,50.6163270167065 ,51.6284019866436 ,5.75626899459897
4.3827156 ,Left ,50.5981877000282 ,51.648605009201 ,5.64662837054379
4.4048685 ,Left ,50.5567588559362 ,51.6506946887805 ,5.56937424630301
4.4198505 ,Left ,50.5236471420166 ,51.6351592789159 ,5.51966424834855
4.4423815 ,Left ,50.5182078732928 ,51.5928956698691 ,5.48304794564589
4.4650044 ,Left ,50.5210859578843 ,51.527455000641 ,5.45399635633089
4.4799342 ,Left ,50.5136667433195 ,51.4578869409235 ,5.42807733132087
4.5023737 ,Left ,50.448413733355 ,51.3982917458323 ,5.3916997308288
4.5175457 ,Left ,50.348862132205 ,51.3345114873753 ,5.35056799834526
4.5401403 ,Left ,50.2810085012727 ,51.2316313682961 ,5.32465888720559
4.5699933 ,Left ,50.2544267105234 ,51.1079580458715 ,5.33135471037583
4.5848862 ,Left ,50.2330156967543 ,50.9991177941595 ,5.36096700638806
4.6075471 ,Left ,50.1911627300422 ,50.9509880106084 ,5.41983026470027
4.622442 ,Left ,50.1356182283271 ,51.0197290151772 ,5.47060597802678
4.6375104 ,Left ,50.1625195328708 ,51.1177485473569 ,5.52536338769868
4.6601527 ,Left ,50.2883170186284 ,51.1193103023642 ,5.55764495645881
4.6824747 ,Left ,50.4436785437963 ,51.0103426125426 ,5.64191027253269
4.7049441 ,Left ,50.539560546468 ,50.8991081018533 ,5.74784389139967
4.7199908 ,Left ,50.5620406276849 ,50.8388191234557 ,5.81303781965262
4.7423092 ,Left ,50.5456448665169 ,50.8589905843776 ,5.86624567699536
4.76504 ,Left ,50.591547468062 ,50.846100508896 ,5.895169894662
4.7801905 ,Left ,50.6509612841257 ,50.779202877337 ,5.92261554193788
4.8023126 ,Left ,50.6431102940569 ,50.6911466755532 ,5.95557918572241
4.8248614 ,Left ,50.5678871605023 ,50.5965026514506 ,5.95953055656894
4.8399683 ,Left ,50.5216042565536 ,50.4690370853621 ,5.94024273586703
4.8624329 ,Left ,50.5362624971537 ,50.367058672763 ,5.96259147225096
4.8849843 ,Left ,50.5995157331877 ,50.3521620933121 ,6.01879913466028
4.9000019 ,Left ,50.6622279592979 ,50.4801018113647 ,6.05019581599311
4.9223645 ,Left ,50.7404702785123 ,50.6074055490678 ,6.06035996773218
4.9450202 ,Left ,50.8254458572321 ,50.6437949357386 ,6.09208419316071
4.9602116 ,Left ,50.881460051099 ,50.619912905424 ,6.14184165801224
4.9823959 ,Left ,50.9251057444864 ,50.5648143837489 ,6.18249145976615
5.005125 ,Left ,50.9878117298091 ,50.4983134615193 ,6.20749101325282
5.0200416 ,Left ,51.0202667260755 ,50.4327097304392 ,6.1994755358354
5.0422866 ,Left ,51.0274854543679 ,50.4320758067478 ,6.17255536093617
5.0649203 ,Left ,51.0186674124292 ,50.4898175222091 ,6.15421764934798
5.0800095 ,Left ,51.0226007281263 ,50.6022841897945 ,6.14297721532511
5.1024308 ,Left ,51.059578196517 ,50.6828872594981 ,6.1212086673848
5.1249692 ,Left ,51.1247440985646 ,50.7142267487807 ,6.10845744523828
5.1399504 ,Left ,51.1663448998715 ,50.7313472659083 ,6.12741596367502
5.1623937 ,Left ,51.1595100050209 ,50.7437998804957 ,6.1504335647875
5.1849261 ,Left ,51.1316900531458 ,50.750689481081 ,6.167350890658
5.2010708 ,Left ,51.1286231554502 ,50.7503194569245 ,6.19886984169627
5.2223603 ,Left ,51.1593414004155 ,50.7390700606433 ,6.2385698712217
5.2450967 ,Left ,51.197532521427 ,50.7163290360613 ,6.27729984474001
5.2599516 ,Left ,51.2237272092474 ,50.691777403087 ,6.32171991602506
5.2823999 ,Left ,51.233117835763 ,50.6723316923584 ,6.37074921085892
5.3049037 ,Left ,51.2330827908182 ,50.646994948671 ,6.41424199823891
5.3198462 ,Left ,51.234165442844 ,50.6175204130703 ,6.45644312801539
5.3424929 ,Left ,51.2424379028756 ,50.5843893477786 ,6.50315723405729
5.3648766 ,Left ,51.2415589759549 ,50.555166106084 ,6.5487631472453
5.3801268 ,Left ,51.2276480552591 ,50.5305218240173 ,6.59736397280263
5.4026969 ,Left ,51.2119436918269 ,50.5161615331286 ,6.6480094360193
5.4249317 ,Left ,51.2050479611508 ,50.5059346936345 ,6.69875852031211
5.4400289 ,Left ,51.2111791060393 ,50.5007710498338 ,6.75255456661541
5.462523 ,Left ,51.2196190125429 ,50.4970767824271 ,6.80635904602202
5.4849135 ,Left ,51.2243189750802 ,50.4939401344659 ,6.86653312424365
5.5001735 ,Left ,51.2201164389505 ,50.4869501016615 ,6.92188529744591
5.5224501 ,Left ,51.1939731769036 ,50.4709628287814 ,6.9757079286495
5.5449256 ,Left ,51.1612700785786 ,50.4522131887352 ,7.0387512039128
5.5598886 ,Left ,51.1360618108047 ,50.4397031028236 ,7.10707076729375
5.5826711 ,Left ,51.1153186866499 ,50.4304682248898 ,7.16858365761301
5.6048518 ,Left ,51.0970707597703 ,50.433108780061 ,7.21763265143084
5.6199982 ,Left ,51.0782291395325 ,50.4419815365302 ,7.26510509125443
5.6424716 ,Left ,51.0625952402591 ,50.4561047791335 ,7.31394678434095
5.6649007 ,Left ,51.0508692132826 ,50.4615351385074 ,7.35783503180069
5.6874107 ,Left ,51.0296426366299 ,50.4616371599273 ,7.38880799114671
5.702397 ,Left ,51.0031931610008 ,50.457113951678 ,7.41625760812385
5.7248591 ,Left ,50.9837365883211 ,50.4570109820666 ,7.44211558432009
5.7474317 ,Left ,50.982120027282 ,50.4570043388665 ,7.45692237000029
5.762587 ,Left ,50.9831004987075 ,50.4605868147281 ,7.4633778121898
5.7848394 ,Left ,50.9768537559038 ,50.4681085598973 ,7.4618688237816
5.8073693 ,Left ,50.9744440833226 ,50.482584582081 ,7.465586031122
5.8224712 ,Left ,50.9819476651078 ,50.4966033002736 ,7.47229780983388
5.8449994 ,Left ,50.9880461632101 ,50.5050021871751 ,7.47718982473561
5.8673605 ,Left ,50.9981467523585 ,50.5121398210931 ,7.49348485253824
5.8824226 ,Left ,51.0192313038253 ,50.5144554632997 ,7.51604554653059
5.9050363 ,Left ,51.0366716174303 ,50.5094350489303 ,7.54477231676655
5.9274327 ,Left ,51.0404596764571 ,50.5057391755969 ,7.57218011865691
5.9423334 ,Left ,51.0429241642323 ,50.4882119071116 ,7.60390120016118
5.9648022 ,Left ,51.0534834835427 ,50.4546539559426 ,7.63685056228582
5.9873908 ,Left ,51.0479250947847 ,50.4131484425995 ,7.66487723109276
6.0024392 ,Left ,51.0460576794962 ,50.3706314890045 ,7.69584969265216
6.0248329 ,Left ,51.055916139601 ,50.3272104470046 ,7.72670264836351
6.0474046 ,Left ,51.0570918620262 ,50.282349328037 ,7.74312407463048
6.0625361 ,Left ,51.043522724794 ,50.2515339589974 ,7.74732725316261
6.0924568 ,Left ,51.0350284317108 ,50.2496343143947 ,7.74733503347709
6.1150816 ,Left ,51.0406534243058 ,50.2564427151861 ,7.74113653057625
6.1298894 ,Left ,51.0385984167186 ,50.2653512612777 ,7.72837815025516
6.152455 ,Left ,51.030990196634 ,50.2755713401491 ,7.7176791486495
6.1675037 ,Left ,51.0252396879045 ,50.2852338813293 ,7.70996188421283
6.1826099 ,Left ,51.0270083494087 ,50.2930910813223 ,7.70047404861745
6.2050901 ,Left ,51.0264487541939 ,50.2994711801858 ,7.69262748487818
6.2291267 ,Left ,51.0221615829611 ,50.298715101286 ,7.68627327640343
6.2424993 ,Left ,51.0229466998519 ,50.2949062528585 ,7.67311543887024
6.2649213 ,Left ,51.0202353920925 ,50.3025748466951 ,7.63953526069237
6.2875186 ,Left ,51.0144760943237 ,50.3235380972749 ,7.58722697983595
6.3098215 ,Left ,50.9951640192627 ,50.3560910174127 ,7.52213500989263
6.3325115 ,Left ,50.9657922213976 ,50.3890700695338 ,7.45226665698728
6.3624762 ,Left ,50.862108723139 ,50.4088531220203 ,7.3237748978079
6.3851067 ,Left ,50.7893369009993 ,50.3829557263788 ,7.27815053960229
6.4073585 ,Left ,50.7108778071654 ,50.3479358403305 ,7.24724923154862
6.4225 ,Left ,50.6457124781535 ,50.3278634849511 ,7.20475009758581
6.4456603 ,Left ,50.5969615562905 ,50.2919856134835 ,7.15907075536921
6.4674523 ,Left ,50.5551319887804 ,50.2683713171009 ,7.11360693892209
6.482574 ,Left ,50.5146140396807 ,50.2656369594522 ,7.11181648857919
6.5047848 ,Left ,50.4696751986223 ,50.3293108211121 ,7.13838730466866
6.5275366 ,Left ,50.4889259322813 ,50.4563191406572 ,7.15077726161662
6.5499007 ,Left ,50.5727818110428 ,50.5630097729133 ,7.13422339575583
6.5648085 ,Left ,50.6948530056071 ,50.6113748296921 ,7.11082563696976
6.5874591 ,Left ,50.7967206622547 ,50.5990903434603 ,7.07062621698729
6.6099858 ,Left ,50.7859208673432 ,50.5850012760317 ,7.00210413732396
6.6249539 ,Left ,50.7216920374008 ,50.6009288046041 ,6.91561801167533
6.6489307 ,Left ,50.6921666895117 ,50.6154878557642 ,6.79627762889707
6.6698262 ,Left ,50.7160522830018 ,50.6182802512721 ,6.68871783422276
6.6850421 ,Left ,50.7483189263151 ,50.6209655068138 ,6.60493683593608
6.7073295 ,Left ,50.7659749929138 ,50.6263230171603 ,6.54942419219668
6.7299857 ,Left ,50.7179274947792 ,50.6291550049403 ,6.50828212581415
6.7450153 ,Left ,50.6429348054816 ,50.5977085066029 ,6.46634428955299
6.7676969 ,Left ,50.5880498615342 ,50.5359019568791 ,6.44410060991756
6.7900302 ,Left ,50.5310595227217 ,50.4425458378784 ,6.43676122767323
6.8052138 ,Left ,50.4973709927511 ,50.326380451514 ,6.4422444009512
6.827601 ,Left ,50.4096547377135 ,50.1871435457222 ,6.4870310571979
6.8501013 ,Left ,50.391205082507 ,50.0400107200063 ,6.50053656018419
6.8649973 ,Left ,50.4586724653346 ,49.9345227303888 ,6.51673967666679
6.8874476 ,Left ,50.4912626551725 ,49.9004533782625 ,6.48742529625407
6.9100522 ,Left ,50.473840500395 ,49.9701712666014 ,6.44449307249136
6.9249853 ,Left ,50.4189052011956 ,50.0412942305394 ,6.41785768215459
6.9473909 ,Left ,50.3243963137938 ,50.0450283180807 ,6.38914107176061
6.9699764 ,Left ,50.2264877093001 ,50.0611324761271 ,6.36676341239906
6.9848508 ,Left ,50.195274727478 ,50.0734062933662 ,6.36684919928571
7.0075758 ,Left ,50.2362347106488 ,50.1085266149471 ,6.39498855071784
7.029965 ,Left ,50.333688242188 ,50.1478525950178 ,6.42788990308473
7.0449724 ,Left ,50.3866691696063 ,50.2122093500697 ,6.44306704848736
7.0686925 ,Left ,50.3564726499242 ,50.29787137733 ,6.4285537869972
7.0898706 ,Left ,50.261290299977 ,50.436571412944 ,6.38720891342275
7.1050537 ,Left ,50.1947409557995 ,50.5632617938739 ,6.32820487060552
7.1275586 ,Left ,50.1467866323641 ,50.6264937855554 ,6.26784211357755
7.150107 ,Left ,50.0994318122777 ,50.6418393851074 ,6.22549362002561
7.1651364 ,Left ,50.0094144235521 ,50.6199708162303 ,6.19943138796163
7.1874534 ,Left ,50.0516488090302 ,50.5720334932528 ,6.21042059512404
7.2099143 ,Left ,50.1232824440528 ,50.4925301380395 ,6.22240793241482
7.2249731 ,Left ,50.1117101685818 ,50.4453148016154 ,6.20603741298569
7.2475442 ,Left ,50.0495165219362 ,50.4833017263226 ,6.18171117585645
7.2699158 ,Left ,50.0062848439833 ,50.586806214303 ,6.16984095357193
7.285476 ,Left ,50.020499818829 ,50.6890037055617 ,6.17401811166009
7.307475 ,Left ,50.1144560288042 ,50.7418694356143 ,6.19026454829838
7.329981 ,Left ,50.2175838378469 ,50.7532552067611 ,6.18538318315192
7.3450173 ,Left ,50.2918066249209 ,50.7407342270646 ,6.16353380809369
7.3674189 ,Left ,50.3002850700213 ,50.745067223157 ,6.15201171616819
7.3899067 ,Left ,50.2828080394996 ,50.8000324822321 ,6.13288347391548
7.4050118 ,Left ,50.2728456123618 ,50.8971614823708 ,6.09211453936578
7.428529 ,Left ,50.3115704151089 ,50.9908347127953 ,6.0542870820414
7.4500565 ,Left ,50.3774556038385 ,51.0792214609408 ,6.03655225025333
7.4724282 ,Left ,50.402093722693 ,51.1617494537746 ,6.00777863655789
7.4876207 ,Left ,50.3814785201887 ,51.2489736310404 ,5.96750279020862
7.509837 ,Left ,50.366680542157 ,51.327168397389 ,5.92262512392868
7.5324021 ,Left ,50.3681447187621 ,51.3785454734613 ,5.87194306662201
7.5474429 ,Left ,50.3659165524003 ,51.4008545503128 ,5.81939798419275
7.5699694 ,Left ,50.3544497709657 ,51.4130243521982 ,5.77899249104045
7.5851235 ,Left ,50.3343127223689 ,51.4207198168008 ,5.74104906007164
7.607464 ,Left ,50.3059616719804 ,51.4160778547166 ,5.7017840866551
7.630391 ,Left ,50.2864472318284 ,51.3840363387979 ,5.66125275823774
7.6525623 ,Left ,50.2876558374254 ,51.3246776491053 ,5.6160922771421
7.6674703 ,Left ,50.2772425798863 ,51.2555234842851 ,5.56691174999499
7.6897934 ,Left ,50.2556976399078 ,51.1922199669978 ,5.50469117791165
7.7124813 ,Left ,50.2399417420206 ,51.129946643514 ,5.42625784398528
7.7275527 ,Left ,50.2294103250722 ,51.0608819965587 ,5.35160125082517
7.7575775 ,Left ,50.2013572138925 ,51.0006135443519 ,5.28913348872996
7.7799042 ,Left ,50.1494184787054 ,50.9482225548864 ,5.23142982600364
7.7949958 ,Left ,50.0846528418107 ,50.895825579473 ,5.19988608868365
7.8324485 ,Left ,50.1044409626545 ,50.8472711233781 ,5.20795739038072
7.8474463 ,Left ,50.1232289338625 ,50.8658451825471 ,5.20653118571427
7.8698963 ,Left ,50.2231010490593 ,50.9104751329562 ,5.20353808868428
7.8924369 ,Left ,50.3486709136534 ,50.9450115498795 ,5.194108262259
7.9073582 ,Left ,50.4363726267505 ,50.8890909338653 ,5.20794913114609
7.9374682 ,Left ,50.5314071037754 ,50.7386387960665 ,5.27432247141707
7.9599246 ,Left ,50.6164538859371 ,50.5653744327721 ,5.35994257248576
7.9747923 ,Left ,50.6248631874225 ,50.4442670968502 ,5.44177863336055
7.9973634 ,Left ,50.619536915447 ,50.3848605514357 ,5.5080114835428
8.0200522 ,Left ,50.6057233823814 ,50.3350125433154 ,5.56512118137661
8.0425233 ,Left ,50.610876643036 ,50.2600937896181 ,5.62103597645154
8.0573543 ,Left ,50.6215700222808 ,50.1839351547366 ,5.68677542663708
8.0800882 ,Left ,50.5760241350569 ,50.1257832711849 ,5.75641376503429
8.0950256 ,Left ,50.5293259689035 ,50.0744126898756 ,5.79633020367719
8.1100374 ,Left ,50.5568090751736 ,50.0199617068462 ,5.79633588472598
8.1323742 ,Left ,50.609027451234 ,49.9711523964563 ,5.7797696890387
8.1474232 ,Left ,50.6606620553446 ,49.9835576214823 ,5.77246952600624
8.1699592 ,Left ,50.7040197759697 ,50.0369100897424 ,5.76971702164064
8.1850196 ,Left ,50.7299797327022 ,50.0595783597993 ,5.78001263517435
8.2000935 ,Left ,50.759706613638 ,50.0378165152361 ,5.80102608554681
8.2224959 ,Left ,50.7827103916493 ,50.0016767165339 ,5.81275518112495
8.2451768 ,Left ,50.7887753077534 ,49.9812105726383 ,5.79583988652879
8.2599223 ,Left ,50.7932973189502 ,49.9846696621798 ,5.78234763149275
8.282549 ,Left ,50.8362394550714 ,49.9927839525273 ,5.77500236469609
8.3124426 ,Left ,50.8654818552566 ,50.0228484129423 ,5.78013723178659
8.3274853 ,Left ,50.8821158682518 ,50.0589176293009 ,5.794509009271
8.3501234 ,Left ,50.8906340741873 ,50.1042021549636 ,5.81559218214731
8.3650564 ,Left ,50.8899222631415 ,50.1627791665128 ,5.84702933551728
8.3948798 ,Left ,50.9097343930404 ,50.213285200952 ,5.88987610544138
8.4176059 ,Left ,50.9584389127408 ,50.2482317010766 ,5.9396827762351
8.4400689 ,Left ,50.9944443782764 ,50.2773462712576 ,5.9965190862062
8.4627702 ,Left ,50.9799734542675 ,50.326182381844 ,6.11431695952865
8.4849152 ,Left ,50.9542545482958 ,50.3314339731896 ,6.17582948208429
8.4999336 ,Left ,50.9458122578097 ,50.3232444333917 ,6.245082387915
8.5224504 ,Left ,50.9575818263499 ,50.3070293974038 ,6.31579807714157
8.5450113 ,Left ,50.969231155285 ,50.2908737426817 ,6.38292228997524
8.5599659 ,Left ,50.9660298100471 ,50.27945090806 ,6.45829577340379
8.5823882 ,Left ,50.9540297229408 ,50.2638163911018 ,6.53701561265979
8.6051445 ,Left ,50.9456876176863 ,50.2374887921965 ,6.61709936051651
8.6200379 ,Left ,50.9554776283255 ,50.2031130406716 ,6.7048930303558
8.6424985 ,Left ,50.9816665917017 ,50.1807769336615 ,6.80033552570255
8.6651084 ,Left ,51.001408748273 ,50.1657846097767 ,6.89122618066304
8.6799669 ,Left ,51.0098764215054 ,50.1630341261588 ,6.985379372623
8.7025278 ,Left ,51.0125222614973 ,50.1694086054229 ,7.08317066542867
8.7399589 ,Left ,50.9777967189202 ,50.207971180574 ,7.25985185036594
8.7624868 ,Left ,50.957252484888 ,50.2266058161416 ,7.33355233249366
8.7999663 ,Left ,50.9454048367851 ,50.2352061190196 ,7.48230404568631
8.8225524 ,Left ,50.9255400500096 ,50.2404073668011 ,7.53926471977896
8.8599134 ,Left ,50.864647493208 ,50.2574441324179 ,7.60467357505666
8.8825502 ,Left ,50.8486954533716 ,50.2649234850509 ,7.6209855840417
8.9198939 ,Left ,50.821840151759 ,50.2693889944744 ,7.62453678977613
8.9424776 ,Left ,50.7976559989057 ,50.2618042941051 ,7.60202379137848
8.9799859 ,Left ,50.7698604571942 ,50.2422223186879 ,7.52765576996448
9.0025743 ,Left ,50.7506472137338 ,50.239939279548 ,7.47769927446639
9.0399514 ,Left ,50.6967921346358 ,50.2366815308178 ,7.38618838949038
9.0624942 ,Left ,50.6614232766089 ,50.2236248993746 ,7.35717626769633
9.1000201 ,Left ,50.5696748233903 ,50.1920502463171 ,7.31185409152141
9.1225179 ,Left ,50.5087001114686 ,50.1366843152869 ,7.29674874682131
9.1598647 ,Left ,50.4256369977723 ,49.99510277814 ,7.24844664318813
9.1825154 ,Left ,50.3953638935722 ,49.9766988494026 ,7.20802266209718
9.2200125 ,Left ,50.4111650180768 ,50.0888820906602 ,7.1931705658513
9.24248 ,Left ,50.5030987496258 ,50.185465172665 ,7.18738069166592
9.264926 ,Left ,50.5893826880213 ,50.2497089101856 ,7.16822346023717
9.3027069 ,Left ,50.6853141722296 ,50.2521601380498 ,7.14348849956907
9.3249885 ,Left ,50.6277326755553 ,50.2820898349234 ,7.09551223872025
9.3624856 ,Left ,50.5343287162197 ,50.3912175996606 ,6.93265041790443
9.4000192 ,Left ,50.5727351475717 ,50.3337785680719 ,6.75382571520842
9.4224713 ,Left ,50.532101866991 ,50.2981660994769 ,6.66217419983276
9.4450733 ,Left ,50.4466453746982 ,50.2658669174888 ,6.56346930096246
9.4823996 ,Left ,50.322510898749 ,50.1496416846338 ,6.48197258679336
9.5050246 ,Left ,50.2335118830511 ,50.0448125022221 ,6.51146091672626
9.5424198 ,Left ,50.5459113059162 ,49.8959630300512 ,6.55073742320432
9.5649991 ,Left ,50.5941446785314 ,49.9566263490135 ,6.48401262492072
9.6100437 ,Left ,50.4728811780073 ,50.1688612107576 ,6.43389174112395
9.6250132 ,Left ,50.3524483933018 ,50.191803226904 ,6.40851035266448
9.6698211 ,Left ,50.1833271327551 ,50.2030281307165 ,6.29279830084835
9.7075765 ,Left ,50.3991103768309 ,50.2955921171028 ,6.38276906012745
9.7224763 ,Left ,50.5018736387935 ,50.4368188632775 ,6.42195094385745
9.7462816 ,Left ,50.5723318020369 ,50.6145976064238 ,6.43780276926931
9.7825139 ,Left ,50.4400442997024 ,50.9154319712483 ,6.44781137459356
9.8050831 ,Left ,50.3250499043292 ,50.9966125006935 ,6.42626681603324
9.8424719 ,Left ,50.1700119698285 ,50.9985688754227 ,6.4044427587201
9.8798856 ,Left ,50.1464576858396 ,50.8545605522814 ,6.40070823187468
9.902583 ,Left ,50.1090414908203 ,50.7569659457929 ,6.33346671019461
9.9399577 ,Left ,50.0899960730425 ,50.6377107817081 ,6.19205060127303
9.962511 ,Left ,50.1236518773115 ,50.7122726096905 ,6.15554172596649
9.9999113 ,Left ,50.271470152073 ,50.8598349164985 ,6.08929341616717
10.0224903 ,Left ,50.3428127655951 ,50.8677167730739 ,6.10729619816541
10.0372889 ,Left ,50.3643514016151 ,50.8634140328464 ,6.12765204864783
10.0599042 ,Left ,50.3829595466777 ,50.8557610066366 ,6.13799069413077
10.0824949 ,Left ,50.4173827283919 ,50.8588939197857 ,6.1433899954197
10.1124307 ,Left ,50.4489087830707 ,50.9597326471884 ,6.14020469390657
10.1347318 ,Left ,50.4093638403983 ,51.0745019819533 ,6.12339187126025
10.1574122 ,Left ,50.3953273437238 ,51.1803802330383 ,6.09702697203983
10.1725141 ,Left ,50.44540211118 ,51.250079234698 ,6.0709636590912
10.1949361 ,Left ,50.5049959654854 ,51.3201061658225 ,6.0371830012578
10.217297 ,Left ,50.5332379236323 ,51.4041585493605 ,5.99883002071203
10.2325263 ,Left ,50.545516360866 ,51.4913717372052 ,5.94990355973906
10.2624281 ,Left ,50.5293895426438 ,51.5601642230676 ,5.88439392913991
10.2850001 ,Left ,50.497389439145 ,51.6043587964411 ,5.79598550505178
10.3002225 ,Left ,50.4482420793239 ,51.621710428575 ,5.70489993951411
10.3150024 ,Left ,50.3846726538901 ,51.6235600338041 ,5.61843958889758
10.3373943 ,Left ,50.3350404809349 ,51.6008294191243 ,5.54089045470561
10.3531475 ,Left ,50.3264092931637 ,51.5531617094766 ,5.45799907640596
10.3748466 ,Left ,50.3106599643165 ,51.4888531019011 ,5.36399861595343
10.3973931 ,Left ,50.2609573835916 ,51.4263149523762 ,5.28757419089988
10.4124498 ,Left ,50.1950255739969 ,51.3682713275127 ,5.22056520177395
10.4349261 ,Left ,50.1275911648387 ,51.2788422948035 ,5.18668773300508
10.4572474 ,Left ,50.0994792016207 ,51.1850071745063 ,5.21646827826014
10.4799188 ,Left ,50.0894639624505 ,51.0921803431139 ,5.25691367026219
10.4950599 ,Left ,50.0909737188949 ,51.0289225587479 ,5.26378060081781
10.5173177 ,Left ,50.1294239945091 ,51.0027914218856 ,5.24693731573495
10.5398662 ,Left ,50.1490025678042 ,51.0409188860104 ,5.23003843616053
10.5550303 ,Left ,50.2202189495693 ,51.0645230355766 ,5.23946808381338
10.5773548 ,Left ,50.3479247399749 ,50.9742296740138 ,5.26603650277612
10.5999077 ,Left ,50.4817050992884 ,50.8373075090654 ,5.30052361899709
10.6149273 ,Left ,50.5466249287224 ,50.7156486490191 ,5.32803068214631
10.6375681 ,Left ,50.5510578691109 ,50.6456161533675 ,5.35005860110455
10.6598834 ,Left ,50.5183394086711 ,50.6447345006924 ,5.39042099578948
10.6749987 ,Left ,50.4951885496071 ,50.6303795871174 ,5.43535780076129
10.6973859 ,Left ,50.4949470683559 ,50.5764981965402 ,5.49106398829858
10.7200163 ,Left ,50.4903000381968 ,50.485606915734 ,5.56624208015604
10.7350396 ,Left ,50.4719769285771 ,50.3656149385857 ,5.63369857398543
10.7574019 ,Left ,50.4725382628098 ,50.2348671813649 ,5.66111113647684
10.7799788 ,Left ,50.4898080609683 ,50.1113397475655 ,5.66127311711761
10.794964 ,Left ,50.5127351625437 ,50.030120084164 ,5.66816329574003
10.817413 ,Left ,50.5383003200569 ,50.050893888113 ,5.68552368405116
10.8397749 ,Left ,50.5676365354127 ,50.0928665511054 ,5.69249631712626
10.8549846 ,Left ,50.6084732154518 ,50.0893880780465 ,5.69509479559628
10.877462 ,Left ,50.655291779036 ,50.0527636622616 ,5.720506574592
10.8998554 ,Left ,50.7245003352008 ,49.998028850144 ,5.75055619576533
10.9166596 ,Left ,50.7699431784548 ,49.9437812616423 ,5.77159174378207
10.9376101 ,Left ,50.7852821711531 ,49.9086308980476 ,5.80042722542767
10.9598277 ,Left ,50.7963047673349 ,49.9038664028163 ,5.83005756269747
10.9749391 ,Left ,50.8158293126885 ,49.9235981138352 ,5.84387369064758
10.9974716 ,Left ,50.8567174722132 ,49.941254312395 ,5.86022661807524
11.0198445 ,Left ,50.8989256072486 ,49.9760721551579 ,5.88881252649096
11.035018 ,Left ,50.9183589603541 ,50.0369976017746 ,5.91308772050331
11.0573554 ,Left ,50.915012892219 ,50.1024025519864 ,5.93023831484053
11.0798708 ,Left ,50.9118139984636 ,50.1578413771378 ,5.94988822736411
11.0950024 ,Left ,50.9318745100527 ,50.1886653846891 ,5.98507515392748
11.1174926 ,Left ,50.9637962496087 ,50.1968756132866 ,6.03840894018959
11.1398312 ,Left ,50.9744045128111 ,50.2067499434827 ,6.10464643732947
11.155192 ,Left ,50.9488919688297 ,50.2234645638456 ,6.17826735085719
11.1773535 ,Left ,50.9185081765007 ,50.2453745361437 ,6.24730578351168
11.1999528 ,Left ,50.9191025538405 ,50.2629972491379 ,6.32353412327195
11.2162882 ,Left ,50.9346189792341 ,50.2758029609922 ,6.39314192843494
11.2374744 ,Left ,50.9493283949955 ,50.2848989586195 ,6.45734762512887
11.2600449 ,Left ,50.9591930239767 ,50.2988712982364 ,6.52340142581103
11.2749968 ,Left ,50.9656567014654 ,50.3156109898124 ,6.58600379723241
11.297408 ,Left ,50.9737236625433 ,50.3299709771476 ,6.65024113928187
11.3199128 ,Left ,50.9783502103685 ,50.3370560079052 ,6.71598126092965
11.3424518 ,Left ,50.9845806948978 ,50.341566143385 ,6.78971035949057
11.3574591 ,Left ,50.997812108952 ,50.3503548547522 ,6.86812798020541
11.3799443 ,Left ,51.0075527147828 ,50.3697677582018 ,6.94849035212458
11.4025861 ,Left ,51.0147230593086 ,50.385660249854 ,7.03211221692814
11.4173591 ,Left ,51.0116208622501 ,50.3997904737075 ,7.11855426397673
11.4399464 ,Left ,51.014801550752 ,50.4066332936295 ,7.20129152963695
11.4623279 ,Left ,51.0176421544809 ,50.4116111340647 ,7.28262415067988
11.4775348 ,Left ,51.0422199182602 ,50.4152808714805 ,7.36975302205533
11.5001843 ,Left ,51.0702435755007 ,50.4159183359518 ,7.46007543598371
11.522362 ,Left ,51.0882473473055 ,50.4172257688938 ,7.53758673893204
11.5374837 ,Left ,51.1063875002781 ,50.4209741860025 ,7.59695795146959
11.5598569 ,Left ,51.1225303373156 ,50.4255650798364 ,7.64360137648885
11.5823744 ,Left ,51.1311263508652 ,50.4241216881975 ,7.68537606804755
11.5975286 ,Left ,51.128289690915 ,50.4177296686778 ,7.71898617212518
11.6200394 ,Left ,51.0997781901611 ,50.4141467462552 ,7.7383667838925
11.642277 ,Left ,51.0734198893292 ,50.4125572426273 ,7.74173764275111
11.6574148 ,Left ,51.0703842558385 ,50.4097929395447 ,7.72561956925604
11.6798808 ,Left ,51.0704812649156 ,50.4045949586587 ,7.69805061150626
11.7022312 ,Left ,51.0488662154229 ,50.4009616999489 ,7.66287194380445
11.7175232 ,Left ,51.0124603830519 ,50.4189754227203 ,7.62492349600534
11.7399476 ,Left ,50.9710701582794 ,50.4583154233985 ,7.57936249730993
11.7625166 ,Left ,50.9239936094979 ,50.4907581867168 ,7.53814247283851
11.7774052 ,Left ,50.8683958843404 ,50.4948828233429 ,7.50793830244543
11.8000247 ,Left ,50.8087653142716 ,50.4738095203541 ,7.48018729318371
11.8223728 ,Left ,50.735042328896 ,50.4441462170879 ,7.44588821483952
11.8376548 ,Left ,50.6548463544784 ,50.4039494398561 ,7.40806760167375
11.8598972 ,Left ,50.5611637325977 ,50.3385927908721 ,7.386471024584
11.8824 ,Left ,50.4712562736759 ,50.2462352900424 ,7.36945972331418
11.8974755 ,Left ,50.4293110848144 ,50.1626979351925 ,7.33626719012496
11.9199609 ,Left ,50.403828696531 ,50.1231776404006 ,7.30190763351164
11.9423169 ,Left ,50.3857352366436 ,50.1316066720241 ,7.28291476795503
11.9574025 ,Left ,50.3833362180243 ,50.2238754829798 ,7.28847352242107
11.9799846 ,Left ,50.3950073419999 ,50.3248343233826 ,7.2957303483646
12.0024715 ,Left ,50.4873593269002 ,50.3870966729248 ,7.29633368285343
12.0175187 ,Left ,50.6001744333027 ,50.4008306278341 ,7.28854972698592
12.0398386 ,Left ,50.6618872127385 ,50.3953136432154 ,7.23984635487748
12.062726 ,Left ,50.6552465016464 ,50.405937597199 ,7.17662550112432
12.07751 ,Left ,50.6462990283646 ,50.4253732679748 ,7.09431920605445
12.0998961 ,Left ,50.6322452123064 ,50.4499933157507 ,7.0033912275444
12.1223992 ,Left ,50.6015855680863 ,50.4799862622099 ,6.92381234044016
12.1375191 ,Left ,50.5557371680167 ,50.5052546518569 ,6.83750350820497
12.159784 ,Left ,50.5079871456599 ,50.5049730018864 ,6.73743483453365
12.1824118 ,Left ,50.4621210222479 ,50.4839647742043 ,6.6515730955451
12.1973844 ,Left ,50.4148509173192 ,50.4351422291885 ,6.57935293600611
12.2199592 ,Left ,50.3599555310524 ,50.3556240525319 ,6.54409998166384
12.2423751 ,Left ,50.3052645513837 ,50.2460260904891 ,6.53553526285575
12.2575521 ,Left ,50.2537158389139 ,50.1416988855768 ,6.52835182519372
12.2799057 ,Left ,50.2046309273213 ,50.1063220500866 ,6.51822440809255
12.3025356 ,Left ,50.2299842727691 ,50.1428083612847 ,6.50507684781103
12.3174933 ,Left ,50.2934163781197 ,50.2389025387697 ,6.49069066007201
12.3398868 ,Left ,50.3179639143964 ,50.2815490268472 ,6.47769084089885
12.3625205 ,Left ,50.2804969715566 ,50.263517173535 ,6.47450716796665
12.384996 ,Left ,50.1649307195654 ,50.2417072676602 ,6.47732115183592
12.39987 ,Left ,50.0415647932165 ,50.2512795738687 ,6.43234068132795
12.422332 ,Left ,49.9567210633197 ,50.2843716690848 ,6.38669314705037
12.4449848 ,Left ,49.9788695792659 ,50.3452513901453 ,6.37322137288806
12.4599029 ,Left ,50.0795014122203 ,50.3803602197994 ,6.39925732157061
12.4822853 ,Left ,50.1878128659553 ,50.4236483874588 ,6.42308472291574
12.5047803 ,Left ,50.1636689983318 ,50.4544543049361 ,6.37797455041477
12.5197648 ,Left ,50.0586092667826 ,50.5550491153768 ,6.34472884101782
12.542376 ,Left ,49.9893476297068 ,50.6759666923911 ,6.32039809564184
12.5649289 ,Left ,49.9419283729593 ,50.7567954726529 ,6.30973375285598
12.5800915 ,Left ,49.937706771429 ,50.7438923550394 ,6.32495008338286
12.6099842 ,Left ,49.8742170166638 ,50.6815660169365 ,6.35388834615578
12.6326813 ,Left ,49.898396437909 ,50.5917084557994 ,6.39389169698381
12.6477531 ,Left ,50.0373765201671 ,50.4544018713503 ,6.4194098463331
12.6626749 ,Left ,50.0583694697485 ,50.3648290227745 ,6.38917169203942
12.6925013 ,Left ,49.9532439639505 ,50.425686786096 ,6.34912854258067
12.7076312 ,Left ,49.8888146005814 ,50.5595281248862 ,6.33176545314248
12.7299575 ,Left ,49.8824582296907 ,50.6596311267309 ,6.2937921547221
12.7448646 ,Left ,49.9449401907329 ,50.7361690956594 ,6.2756713082737
12.7599928 ,Left ,50.0649141669565 ,50.7716419216714 ,6.2729103361396
12.7824247 ,Left ,50.1295020486266 ,50.7705998063889 ,6.24929842285668
12.8048446 ,Left ,50.1080757374081 ,50.7847554307236 ,6.23065537531391
12.8202849 ,Left ,50.0463589362766 ,50.8544135388172 ,6.22155741895868
12.8424785 ,Left ,49.9994213703716 ,50.9488263673618 ,6.21333996272584
12.8651471 ,Left ,49.9903169839901 ,51.0159088696532 ,6.19528249285231
12.8808297 ,Left ,50.0410824801541 ,51.0751775287498 ,6.17924826983563
12.9024603 ,Left ,50.1092917937555 ,51.1448475733702 ,6.15322183043726
12.9249509 ,Left ,50.1422234137088 ,51.241300348736 ,6.10771229626873
12.9550264 ,Left ,50.1547683362733 ,51.3674478352576 ,6.06041135467419
12.9699901 ,Left ,50.170758422879 ,51.4830979097741 ,6.01041234442389
13.0074154 ,Left ,50.1811682485347 ,51.6606832945109 ,5.86565701089687
13.0223595 ,Left ,50.1563700997485 ,51.7577969128157 ,5.77101071424844
13.0454389 ,Left ,50.1193940961111 ,51.8470335283415 ,5.67080177935599
13.0674945 ,Left ,50.1039845041616 ,51.9044224740469 ,5.57201643074791
13.0826926 ,Left ,50.1031283689979 ,51.9116648921334 ,5.47197628702229
13.1050221 ,Left ,50.0843637402048 ,51.8707920459488 ,5.37506809521748
13.127303 ,Left ,50.0301316009248 ,51.8003594603597 ,5.29208727326123
13.1423164 ,Left ,49.9750237315815 ,51.7162831008957 ,5.22671951635395
13.1649432 ,Left ,49.9713156132833 ,51.6000693970772 ,5.18297608591207
13.187374 ,Left ,49.9959661119774 ,51.4616821464316 ,5.14166619555022
13.2026773 ,Left ,49.9715140225767 ,51.3196554369827 ,5.10979962447
13.2326013 ,Left ,49.9118407043904 ,51.1972274589241 ,5.09730030913967
13.2568252 ,Left ,49.8419171102327 ,51.0568835373329 ,5.09683893492491
13.2701767 ,Left ,49.8298314904268 ,50.9054757439818 ,5.11599506425478
13.2925283 ,Left ,49.8938920484127 ,50.8106588457836 ,5.14268783985653
13.3073049 ,Left ,49.9164856288039 ,50.8205660212655 ,5.11586600467462
13.3224757 ,Left ,49.8843095002143 ,50.9573503311253 ,5.0759652126124
13.3448413 ,Left ,49.8959964858375 ,51.0638635633009 ,5.09040918583335
13.3764759 ,Left ,49.9987115236709 ,51.0337331159408 ,5.12882170967228
13.39023 ,Left ,50.1112573915155 ,50.915109138018 ,5.19230248297294
13.4124314 ,Left ,50.2577664994071 ,50.764620707014 ,5.26814119121212
13.4272562 ,Left ,50.3466481081987 ,50.6173312547552 ,5.32577404904388
13.4423874 ,Left ,50.3800043907107 ,50.528418005237 ,5.38385574733313
13.4675873 ,Left ,50.3970203513916 ,50.5029270699229 ,5.47648445272011
13.4874024 ,Left ,50.3789027125468 ,50.5152183296747 ,5.5552724103855
13.5025938 ,Left ,50.3494850714912 ,50.5219332660397 ,5.60845638793044
13.5248615 ,Left ,50.3816226589002 ,50.4524547144828 ,5.67442210894079
13.5474937 ,Left ,50.4226548951878 ,50.3333425734545 ,5.77600042628194
13.562499 ,Left ,50.3811645116786 ,50.211871723786 ,5.83874832239814
13.5853666 ,Left ,50.3091718424164 ,50.1006878550596 ,5.84301458071779
13.6074498 ,Left ,50.2729964562634 ,50.0440886890946 ,5.85253473338004
13.6226217 ,Left ,50.2490447193733 ,50.0423875388732 ,5.88242009947431
13.6449355 ,Left ,50.213539801706 ,50.1160700113287 ,5.90813601103178
13.667416 ,Left ,50.2628265178465 ,50.2192692836376 ,5.93973447075106
13.6825238 ,Left ,50.3785693206209 ,50.2764008110677 ,5.95234688553134
13.7049239 ,Left ,50.4913111893078 ,50.2963569696458 ,5.97040102798176
13.7273113 ,Left ,50.5771544779467 ,50.2872574149267 ,6.01492339547847
13.7424993 ,Left ,50.6235375137404 ,50.2799921892705 ,6.03655181700858
13.7649622 ,Left ,50.645997188117 ,50.2835392258955 ,6.03949037504759
13.7877206 ,Left ,50.717340611094 ,50.2835733822612 ,6.04595258408346
13.8026644 ,Left ,50.8039351891077 ,50.2709225691141 ,6.04497988808711
13.8252156 ,Left ,50.8618887560182 ,50.2638966805717 ,6.03942357261894
13.8476453 ,Left ,50.8928041266328 ,50.2696255948372 ,6.04767293371266
13.8672286 ,Left ,50.9149715959103 ,50.2807538260886 ,6.06424224982991
13.8851062 ,Left ,50.9501615554324 ,50.2968992100706 ,6.09371429680072
13.9076465 ,Left ,51.0102948502952 ,50.3176925935796 ,6.13498727153043
13.9150666 ,Left ,51.0671579760368 ,50.3406541748529 ,6.1862755711773
13.9375713 ,Left ,51.0924932295624 ,50.3636366291137 ,6.24116325228197
13.9600367 ,Left ,51.080639861865 ,50.387972168995 ,6.29852803052369
13.9748791 ,Left ,51.0757659841266 ,50.4166606614415 ,6.36345732177995
13.9975898 ,Left ,51.0883389119686 ,50.4514981023091 ,6.43666208910601
14.0201438 ,Left ,51.104897975447 ,50.4854958734912 ,6.50980362502321
14.0352304 ,Left ,51.1184859290159 ,50.5142835515848 ,6.57809622306963
14.0575994 ,Left ,51.1163022832213 ,50.5346077580092 ,6.64083426203365
14.0810759 ,Left ,51.1008879100286 ,50.5478036994258 ,6.70557005250998
14.0964715 ,Left ,51.0877481069579 ,50.5625700417636 ,6.7697279065449
14.1176007 ,Left ,51.0848367066539 ,50.5794613217559 ,6.82407236349961
14.139902 ,Left ,51.0970085866613 ,50.5933815885961 ,6.86852211777067
14.1552646 ,Left ,51.1127105202096 ,50.5966490816218 ,6.90923450684607
14.177465 ,Left ,51.1347491864071 ,50.592510609429 ,6.94974934630526
14.2000779 ,Left ,51.1521253055849 ,50.5853703082255 ,6.99013558112008
14.215277 ,Left ,51.1591024868649 ,50.5768024344872 ,7.02280226510193
14.2377768 ,Left ,51.1551281091997 ,50.5723886317101 ,7.06316133972825
14.2601824 ,Left ,51.1473005479269 ,50.576839692971 ,7.10420938694776
14.2750927 ,Left ,51.1350971553227 ,50.5881799469517 ,7.14836534635383
14.2979121 ,Left ,51.1240404912042 ,50.5951083634516 ,7.19874754945769
14.321258 ,Left ,51.1238687403309 ,50.5872543945434 ,7.26021212671917
14.3350084 ,Left ,51.1315986442298 ,50.5692252634248 ,7.33282283507302
14.3575154 ,Left ,51.1482532732225 ,50.546823889215 ,7.41119462276977
14.3801616 ,Left ,51.1653781452153 ,50.5262250936539 ,7.48988946241041
14.3949345 ,Left ,51.1818450178364 ,50.5036753260107 ,7.56803049018415
14.4175079 ,Left ,51.1995408667062 ,50.4869510507431 ,7.63987436344821
14.4399725 ,Left ,51.2185393864141 ,50.4758744370515 ,7.71011937933318
14.4551076 ,Left ,51.2370357411437 ,50.4708414686619 ,7.78047109510952
14.4775728 ,Left ,51.2478060194456 ,50.4680044019083 ,7.84116522375144
14.5000895 ,Left ,51.2503287180446 ,50.4658931309061 ,7.88281304920725
14.5152653 ,Left ,51.2804699299905 ,50.4471186329817 ,7.9140881597227
14.5391601 ,Left ,51.3021666492496 ,50.4129165412584 ,7.9301828050426
14.5600055 ,Left ,51.29253464248 ,50.3753921100795 ,7.92590604826401
14.5750749 ,Left ,51.2554359377204 ,50.3493520213663 ,7.90790169572519
14.5975427 ,Left ,51.2079726591579 ,50.3299567445286 ,7.88856942100414
14.6200557 ,Left ,51.1619028274073 ,50.3085405035341 ,7.85813549603705
14.635037 ,Left ,51.1308809652619 ,50.2834493282446 ,7.8225029874162
14.6577314 ,Left ,51.1074761134247 ,50.2562561651675 ,7.79144198527259
14.6955621 ,Left ,51.0297253128509 ,50.2056596304876 ,7.72202620730367
14.7176278 ,Left ,50.9909111224198 ,50.1804576966336 ,7.68015593947067
14.7553032 ,Left ,50.8766592474614 ,50.1191027691594 ,7.58175092478315
14.7775123 ,Left ,50.7957505412295 ,50.0838276763937 ,7.53706082698488
14.8000557 ,Left ,50.6904576711894 ,50.0454592383419 ,7.52774696737461
14.8375555 ,Left ,50.477704531968 ,49.959034829143 ,7.51388705008644
14.8600016 ,Left ,50.4397925015451 ,49.9343365587272 ,7.50278368326434
14.9052083 ,Left ,50.4843049285691 ,50.0124303523089 ,7.44559669152813
14.9273396 ,Left ,50.4881680799915 ,50.1217683978795 ,7.41792254794905
14.9575516 ,Left ,50.5864641290984 ,50.132685784216 ,7.40123079216913
14.9950909 ,Left ,50.6056474351494 ,50.0896493131913 ,7.32276805388814
15.0175768 ,Left ,50.5638549071346 ,50.1450178280205 ,7.22193842376576
15.0400527 ,Left ,50.5249451426069 ,50.1977679938862 ,7.09646013319592
15.0776293 ,Left ,50.5688629375381 ,50.1890624173779 ,6.90101574090733
15.1002487 ,Left ,50.5501583120388 ,50.1528605565502 ,6.8107963561221
15.1375411 ,Left ,50.4334233139012 ,50.049319498034 ,6.63521106625002
15.1600187 ,Left ,50.4036626554827 ,49.9748129561451 ,6.58680055304742
15.1975726 ,Left ,50.2940697517697 ,49.8030553680632 ,6.60701812733084
15.2202979 ,Left ,50.3080187097563 ,49.7940517224639 ,6.61663370243506
15.2574257 ,Left ,50.5285726358474 ,49.926853398863 ,6.58107914039519
15.2801552 ,Left ,50.546683397866 ,50.0326879319149 ,6.5548832534937
15.3231425 ,Left ,50.3822331385462 ,50.0532159276289 ,6.54836384291013
15.3403663 ,Left ,50.2553028352685 ,50.0540962681004 ,6.52252441150071
15.3776594 ,Left ,50.1065131151471 ,50.0355661042808 ,6.47200061763109
15.4000268 ,Left ,50.1850681645317 ,50.0410465167804 ,6.49812822504419
15.4377409 ,Left ,50.1924466845142 ,50.1249082446641 ,6.48401803734833
15.4599551 ,Left ,50.0943872860657 ,50.2463536467246 ,6.46701431696539
15.4977139 ,Left ,49.979430385413 ,50.4603945165981 ,6.44183056163901
15.5201241 ,Left ,49.9503645701412 ,50.460607456234 ,6.48732444158172
15.557553 ,Left ,50.23803464835 ,50.2813923586034 ,6.61552273722309
15.5800859 ,Left ,50.2848088384014 ,50.2598630027909 ,6.58315268151167
15.6178142 ,Left ,50.1817356500969 ,50.5317840960053 ,6.50961464272206
15.6399937 ,Left ,50.1504029618825 ,50.6038034557665 ,6.47759088259056
15.6773278 ,Left ,50.21055712388 ,50.5357063081429 ,6.52165045098857
15.715449 ,Left ,50.1826778750877 ,50.394760298613 ,6.48058391268597
15.737686 ,Left ,50.1656935723345 ,50.3030522162677 ,6.47743687654812
15.7752105 ,Left ,50.1454727399498 ,50.118808446198 ,6.46589567930493
15.7901262 ,Left ,50.1178782871157 ,50.1106983345266 ,6.4344117317293
15.8125417 ,Left ,50.0981519847493 ,50.1604150403529 ,6.40476856169574
15.8272823 ,Left ,50.0777369005607 ,50.245893976961 ,6.38314355986785
15.8498794 ,Left ,50.0494335782215 ,50.3606782491072 ,6.37568557210802
15.8724566 ,Left ,49.9970589063754 ,50.4446659172095 ,6.37293128548151
15.8875818 ,Left ,49.9863704546065 ,50.4786207910532 ,6.39061233353226
15.9100165 ,Left ,50.0263271659113 ,50.4982824970502 ,6.40739155450459
15.9324391 ,Left ,50.0847402116486 ,50.5220691128222 ,6.40818005196382
15.9550731 ,Left ,50.1543828644807 ,50.5435755092624 ,6.39753788390432
15.9699001 ,Left ,50.2282449969148 ,50.5662211522864 ,6.3898710859022
15.9924212 ,Left ,50.2992122260632 ,50.5757072263271 ,6.37113151007926
16.007557 ,Left ,50.3432490614411 ,50.5985974146208 ,6.35842905817479
16.0299109 ,Left ,50.3600389009864 ,50.6548641915869 ,6.33380780783765
16.052845 ,Left ,50.3912113944367 ,50.7559603217215 ,6.290901127589
16.0689601 ,Left ,50.4420659432408 ,50.8570982679386 ,6.25308403128569
16.0975193 ,Left ,50.508376206061 ,50.9431642683538 ,6.2408391404925
16.120077 ,Left ,50.5675397440218 ,51.0227587948072 ,6.23211384150575
16.150668 ,Left ,50.5524776434237 ,51.1909487892388 ,6.16094792443323
16.1723507 ,Left ,50.5412049204092 ,51.2571423948225 ,6.1022406502986
16.1948879 ,Left ,50.5639969735684 ,51.3010868739816 ,6.02109574912384
16.2099057 ,Left ,50.5699726902296 ,51.3147969614912 ,5.91930053254721
16.2324093 ,Left ,50.5336617358237 ,51.3364304548051 ,5.81305389111238
16.2550635 ,Left ,50.4867367715099 ,51.3439054032397 ,5.70622657701487
16.2708742 ,Left ,50.4615396697763 ,51.3175624412963 ,5.60185569377945
16.2922871 ,Left ,50.4196017755887 ,51.2702342826769 ,5.51041627002225
16.3149451 ,Left ,50.3558278088097 ,51.2067530808225 ,5.42728464014554
16.3300329 ,Left ,50.2957564816854 ,51.1363784547944 ,5.35900960144582
16.3525148 ,Left ,50.2562885271255 ,51.0564741283558 ,5.29516435756768
16.3749856 ,Left ,50.2218783856999 ,50.9795622833189 ,5.23974663606832
16.3900132 ,Left ,50.1694086348845 ,50.9153629623473 ,5.22574682052393
16.4126038 ,Left ,50.0809854072481 ,50.8452974210873 ,5.22645622037201
16.4349438 ,Left ,50.0655432530632 ,50.7474274181161 ,5.25936722214509
16.4499883 ,Left ,50.1078207959688 ,50.701004024832 ,5.29321052163839
16.4723313 ,Left ,50.1063463519383 ,50.7642885380009 ,5.28204443823121
16.4948235 ,Left ,50.1068609789037 ,50.8489619794821 ,5.28621104475122
16.5099876 ,Left ,50.1632381405446 ,50.8729816359781 ,5.32575922579316
16.5399957 ,Left ,50.2574204240195 ,50.8134810388588 ,5.39084987054882
16.5629253 ,Left ,50.3339504551576 ,50.6994614707001 ,5.45032168949178
16.577626 ,Left ,50.3928208831786 ,50.5644043143995 ,5.52040579881766
16.5922708 ,Left ,50.3996767594681 ,50.4379841114032 ,5.61025433459161
16.6176714 ,Left ,50.3650370468501 ,50.3486916109719 ,5.68707732441982
16.63208 ,Left ,50.3023586434283 ,50.3042776044546 ,5.74336924675637
16.6598555 ,Left ,50.2343499766256 ,50.2749043483492 ,5.7969529577465
16.6825538 ,Left ,50.2240466490924 ,50.2270891959754 ,5.85361226394322
16.6976146 ,Left ,50.2451355808473 ,50.1477659095409 ,5.89841598410321
16.7123524 ,Left ,50.2984314467203 ,50.0622811660224 ,5.94042420337967
16.7352398 ,Left ,50.3026224731083 ,49.9898102111194 ,5.99302374143889
16.75743 ,Left ,50.2748084720491 ,49.9888523243315 ,6.03002935995399
16.7731844 ,Left ,50.2188153806264 ,50.0885068987589 ,6.04610219889219
16.7948938 ,Left ,50.199684690491 ,50.1950926327703 ,6.03949967350221
16.8177151 ,Left ,50.2270779701767 ,50.2649515923269 ,6.05161742836883
16.8325103 ,Left ,50.2529826456385 ,50.2855829174181 ,6.06818198024024
16.8550385 ,Left ,50.2361104321028 ,50.2810223322767 ,6.05173625034106
16.8699156 ,Left ,50.1868738002621 ,50.3044457811776 ,6.0227455756852
16.8922953 ,Left ,50.1689931376841 ,50.3257395124771 ,6.00454244781632
16.9149446 ,Left ,50.1967231441626 ,50.3362732069548 ,6.00479229418826
16.9299043 ,Left ,50.2751767742938 ,50.343062609202 ,6.00543881727428
16.9529792 ,Left ,50.3588156538531 ,50.3568279377226 ,5.99903485938082
16.9749381 ,Left ,50.4126345999579 ,50.3901090201175 ,5.99791091247363
16.9928047 ,Left ,50.4299418101785 ,50.4380761640885 ,6.01301388265745
17.0123909 ,Left ,50.4578097177191 ,50.4877748541811 ,6.04459030291566
17.0348643 ,Left ,50.5105366251451 ,50.5304678402818 ,6.09343499135814
17.0500701 ,Left ,50.5565820911737 ,50.5782164792278 ,6.14694149307445
17.0724042 ,Left ,50.5953977247834 ,50.6370161779932 ,6.21222618016513
17.0948271 ,Left ,50.6178818327651 ,50.7007544097856 ,6.28839698313793
17.1173247 ,Left ,50.6366960610511 ,50.7631434003466 ,6.37150732212683
17.1324761 ,Left ,50.6641714292352 ,50.8156158966835 ,6.46799738470436
17.1549615 ,Left ,50.6946690138327 ,50.8589895156043 ,6.586446452015
17.1773358 ,Left ,50.7281547518655 ,50.8756227133076 ,6.71498290441564
17.1926065 ,Left ,50.7743413098539 ,50.8651540271482 ,6.85822291876431
17.214931 ,Left ,50.8335824772085 ,50.8310690031307 ,7.0166598337633
17.2374541 ,Left ,50.8919939805983 ,50.7843119970229 ,7.18540607138728
17.2524508 ,Left ,50.9292207527406 ,50.7418867670718 ,7.35382204010725
17.2751398 ,Left ,50.9591927838087 ,50.7207214336776 ,7.52163727788314
17.2974585 ,Left ,50.9843041422614 ,50.7228003754087 ,7.6746914644243
17.312669 ,Left ,51.0102629431292 ,50.7285894041951 ,7.82250135670307
17.3349067 ,Left ,51.0627837135826 ,50.7272856802669 ,7.97473750037125
17.3574211 ,Left ,51.1211047816564 ,50.7101881511113 ,8.11826591779759
17.3732517 ,Left ,51.1653463928358 ,50.6947234634394 ,8.24705893364401
17.3951367 ,Left ,51.1984982541614 ,50.6840638245032 ,8.36910866692917
17.4173312 ,Left ,51.2401858135086 ,50.6693008315522 ,8.47655256800975
17.4325376 ,Left ,51.2799358475773 ,50.6353412065901 ,8.56263517605087
17.4549595 ,Left ,51.3017146526842 ,50.5909400035255 ,8.62135484574422
17.4774426 ,Left ,51.3011748866676 ,50.5496208269148 ,8.65168687590238
17.4998796 ,Left ,51.296929386609 ,50.5121881080186 ,8.65840661143346
17.5150382 ,Left ,51.3009131402329 ,50.4774390859754 ,8.63993917366428
17.5376337 ,Left ,51.3064835424335 ,50.4429660096452 ,8.60240443103774
17.554102 ,Left ,51.3015389975721 ,50.4079207788954 ,8.55065326571951
17.5749789 ,Left ,51.2832269513786 ,50.3827555059683 ,8.49461056447267
17.5974601 ,Left ,51.262540447951 ,50.3563000071284 ,8.43527627108666
17.6124381 ,Left ,51.2320379981818 ,50.3307655135244 ,8.36662662349328
17.6350137 ,Left ,51.1936102155083 ,50.3136609218304 ,8.28707720330949
17.6574098 ,Left ,51.156352500541 ,50.3083566705231 ,8.20147933293673
17.6724815 ,Left ,51.1272474794307 ,50.302497400179 ,8.12367080452645
17.6950681 ,Left ,51.1005358178952 ,50.2895179145218 ,8.05658527250103
17.7174932 ,Left ,51.0387372876653 ,50.2870313652867 ,8.00294126760798
17.7325895 ,Left ,50.9420927612237 ,50.2809632703963 ,7.95731545192111
17.7554094 ,Left ,50.8336947790115 ,50.2675512224517 ,7.9131008776911
17.7776029 ,Left ,50.7484463374671 ,50.2338640071738 ,7.87465437959151
17.8000628 ,Left ,50.6774499958593 ,50.1840887256732 ,7.85162334547967
17.8150657 ,Left ,50.5901012800153 ,50.1242865124029 ,7.83056143398368
17.8374408 ,Left ,50.4810601673191 ,50.0662647639431 ,7.77911312205542
17.8599072 ,Left ,50.4485572873939 ,50.0245127990306 ,7.76434239362818
17.8748992 ,Left ,50.432549306917 ,50.0084767866754 ,7.76421983435157
17.8976 ,Left ,50.3372492082502 ,50.0923986278028 ,7.74984284936742
17.9199554 ,Left ,50.240470713098 ,50.218503067929 ,7.7536552584983
17.9350941 ,Left ,50.233287113072 ,50.2863867801935 ,7.74919224263859
17.9575346 ,Left ,50.3321616765241 ,50.2819102771182 ,7.74130836088351
17.980111 ,Left ,50.4362442951156 ,50.2422982184694 ,7.72354400024527
17.9951191 ,Left ,50.4480921606955 ,50.2202112517346 ,7.65443897568953
18.0177265 ,Left ,50.4138531142912 ,50.2396263122808 ,7.56287979057729
18.0400024 ,Left ,50.4012444284198 ,50.249730375748 ,7.46473663607582
18.0551205 ,Left ,50.3982418117333 ,50.2336672622796 ,7.35310404083623
18.0773314 ,Left ,50.399913128596 ,50.2024877193077 ,7.24922046506488
18.1000941 ,Left ,50.3780678416714 ,50.1806921437306 ,7.14866845589153
18.1153162 ,Left ,50.3354759780451 ,50.163539657897 ,7.03995400100016
18.1374732 ,Left ,50.2759681333985 ,50.1140131932226 ,6.93554628904641
18.1598393 ,Left ,50.197272102704 ,50.0562457746912 ,6.86178252421354
18.1836581 ,Left ,50.148899343686 ,49.9715724063267 ,6.82088736403502
18.2053794 ,Left ,50.1318064242045 ,49.8658583620274 ,6.83660084204919
18.2350443 ,Left ,50.1607573150963 ,49.7440489798285 ,6.85981769030948
18.2574919 ,Left ,50.2141328186393 ,49.770069223671 ,6.86934476913527
18.2876862 ,Left ,50.2879221078206 ,49.8158368013104 ,6.84133948294875
18.3025135 ,Left ,50.3444012738955 ,49.8556534792285 ,6.80487951748942
18.3400431 ,Left ,50.1850159603126 ,49.8904356700055 ,6.77741808270017
18.3548735 ,Left ,50.0389426616439 ,49.9221137160907 ,6.71967042007524
18.385087 ,Left ,49.938213489508 ,49.9614573007765 ,6.64621816282872
18.4076225 ,Left ,49.9211554609622 ,50.0027007705721 ,6.60493844652222
18.4291899 ,Left ,49.9851167982662 ,50.0706463232856 ,6.61652364332576
18.4388574 ,Left ,50.0509962069744 ,50.193739774962 ,6.64914303781343
18.4599486 ,Left ,50.1143263541343 ,50.3133418806257 ,6.67213633618654
18.4753677 ,Left ,50.1422671527787 ,50.3888476662394 ,6.66889179066259
18.4973261 ,Left ,50.0859162963953 ,50.4703495037271 ,6.65646158212548
18.519912 ,Left ,50.0145190050405 ,50.5927441360941 ,6.65411586078545
18.5350389 ,Left ,49.9405099018274 ,50.6678666495561 ,6.62703077975604
18.5574776 ,Left ,49.8908947288535 ,50.6702180272579 ,6.60443389169652
18.579936 ,Left ,49.9163188577508 ,50.6409920382286 ,6.59428470531469
18.5950882 ,Left ,49.9865150748971 ,50.5983682752909 ,6.57983541417529
18.6176045 ,Left ,50.0183759664018 ,50.5637918214684 ,6.54640096634778
18.6399711 ,Left ,49.9804127335461 ,50.5377758701084 ,6.50002162021649
18.6550466 ,Left ,49.9251559107141 ,50.5231851934627 ,6.45964994927194
18.6775058 ,Left ,49.8644419727771 ,50.5096990239833 ,6.43255115270806
18.6998808 ,Left ,49.8123416446615 ,50.4867643189817 ,6.44641741655045
18.7149817 ,Left ,49.8622947100925 ,50.4389788980297 ,6.46639458515486
18.7376077 ,Left ,49.9587299506783 ,50.3873513388468 ,6.46177483926843
18.7599396 ,Left ,49.9650779762423 ,50.4196706594525 ,6.43838486637424
18.7750083 ,Left ,49.951193516175 ,50.5176462220897 ,6.42233563648559
18.7973817 ,Left ,49.9546919135721 ,50.5644768121652 ,6.41501064981013
18.8202607 ,Left ,49.9935385408269 ,50.5406976899357 ,6.41938168733887
18.8351846 ,Left ,50.0686651072865 ,50.499578498129 ,6.43419744603061
18.8574473 ,Left ,50.1194809365959 ,50.4772697966474 ,6.42509610090337
18.8801647 ,Left ,50.1525191206328 ,50.4864513595472 ,6.38945508939983
18.8950579 ,Left ,50.2002145551897 ,50.4986272586399 ,6.36678297572477
18.917491 ,Left ,50.2650495445628 ,50.4974942680586 ,6.34605677184254
18.9401333 ,Left ,50.301692988844 ,50.5239363277416 ,6.32327075533734
18.9625263 ,Left ,50.3153960247604 ,50.5946811782562 ,6.29682218084452
18.9773913 ,Left ,50.3207252397397 ,50.6829093356355 ,6.27664404038405
18.9999877 ,Left ,50.3512813780835 ,50.7503693157862 ,6.24583582120949
19.022546 ,Left ,50.4252322221048 ,50.78744738913 ,6.21698004991283
19.0376013 ,Left ,50.4944508526146 ,50.8018903691403 ,6.181576714803
19.0600089 ,Left ,50.5091352355038 ,50.82328393345 ,6.13345036295681
19.0824487 ,Left ,50.4814479617977 ,50.8629593226891 ,6.07349554326577
19.0978482 ,Left ,50.4393192396563 ,50.9054700429336 ,5.98254320614474
19.1198511 ,Left ,50.403604017839 ,50.934860507994 ,5.86514793010385
19.1423763 ,Left ,50.389274791907 ,50.9402335420939 ,5.75621582544736
19.1574598 ,Left ,50.3887994722873 ,50.9310349604093 ,5.66922248639859
19.1799438 ,Left ,50.3790250207818 ,50.9136852555509 ,5.58089993663837
19.2023095 ,Left ,50.3395308653054 ,50.8954996809342 ,5.49098770986366
19.2176538 ,Left ,50.2965875581509 ,50.8776647877068 ,5.4109276253516
19.2400221 ,Left ,50.2592178214367 ,50.8547201534107 ,5.34458766418657
19.2625719 ,Left ,50.2052391458552 ,50.8225912138413 ,5.29874097905034
19.2775397 ,Left ,50.1069364445171 ,50.7819065430513 ,5.26653208630279
19.3000239 ,Left ,49.9887779967178 ,50.7011173783693 ,5.25518880288764
19.3223505 ,Left ,50.0295773856363 ,50.5742422858506 ,5.3031221830834
19.3373929 ,Left ,50.1035907156768 ,50.4238158813114 ,5.36098735733793
19.3599155 ,Left ,50.0640431408716 ,50.3517020102954 ,5.38786828411066
19.3828676 ,Left ,49.9675574743223 ,50.385975645864 ,5.40026030236857
19.3974827 ,Left ,49.8971437889888 ,50.4690667431585 ,5.40871146119326
19.4274788 ,Left ,49.9384140960318 ,50.4896585501952 ,5.42739504604009
19.4501389 ,Left ,50.1145581221478 ,50.4001615080771 ,5.45097006669519
19.4654788 ,Left ,50.2609014439129 ,50.2761236486256 ,5.47192798975084
19.4798217 ,Left ,50.2747849505142 ,50.1847990655955 ,5.49502664078295
19.5023801 ,Left ,50.2273442627756 ,50.1711080679135 ,5.53916506632948
19.5174606 ,Left ,50.1755231743041 ,50.1877794140195 ,5.61072163919238
19.5399299 ,Left ,50.1429879114661 ,50.2131175142535 ,5.6694904524319
19.5624697 ,Left ,50.1477492816391 ,50.2475908187925 ,5.73119675003201
19.5775068 ,Left ,50.1722600577014 ,50.2172349767064 ,5.78465712346388
19.599875 ,Left ,50.177878024674 ,50.1171294305297 ,5.84838007064449
19.623445 ,Left ,50.1651691050192 ,49.9847851588314 ,5.9110170110703
19.6449178 ,Left ,50.1590122689248 ,49.8574192022479 ,5.91667008892967
19.6534157 ,Left ,50.1035728514775 ,49.824509679169 ,5.88164377314276
19.6752016 ,Left ,50.090789346263 ,49.8823684894934 ,5.84395564769748
19.7126241 ,Left ,50.2203189919166 ,50.0481414034922 ,5.8245499256178
19.7350655 ,Left ,50.3094736145332 ,50.0493244784041 ,5.83542519591374
19.7500485 ,Left ,50.3627734473989 ,50.0272566176421 ,5.86493118776904
19.7723948 ,Left ,50.3995584685391 ,50.0120268255735 ,5.90264573601335
19.7950644 ,Left ,50.4452995328869 ,50.0127289360107 ,5.94580424737563
19.8173919 ,Left ,50.5102822205967 ,50.0317995312056 ,5.96388763362368
19.8404352 ,Left ,50.5827853820891 ,50.0596810505141 ,5.95866992525787
19.855493 ,Left ,50.6379333593424 ,50.1103208863388 ,5.97035760017853
19.871221 ,Left ,50.6798072355934 ,50.1729558842743 ,6.0012496914579
19.8925097 ,Left ,50.7242393123551 ,50.226822720364 ,6.04660573930754
19.9173749 ,Left ,50.7495714122493 ,50.272019116253 ,6.10995866534595
19.9299602 ,Left ,50.7660645828683 ,50.300955706011 ,6.17827922005144
19.9527305 ,Left ,50.7960742315598 ,50.317228736217 ,6.24807026733348
19.9749148 ,Left ,50.8219267691267 ,50.3422297497521 ,6.31448657016162
19.9899295 ,Left ,50.8509860248879 ,50.3723263355526 ,6.38563262328123
20.0123524 ,Left ,50.8767233778738 ,50.3951584931693 ,6.45370133921513
20.042606 ,Left ,50.8928650184699 ,50.3999655525581 ,6.52419736732427
20.0575714 ,Left ,50.8972037954557 ,50.4054133047496 ,6.58708944420762
20.072789 ,Left ,50.9092516975453 ,50.4015299957405 ,6.63927797137885
20.0950121 ,Left ,50.9282104024824 ,50.3919045024033 ,6.70116066189956
20.1099531 ,Left ,50.9464361069539 ,50.3781186648631 ,6.77272955611146
20.1327838 ,Left ,50.9530066242213 ,50.3569737087872 ,6.83937911151734
20.1550142 ,Left ,50.9504634044761 ,50.3321817805166 ,6.89259445827136
20.1699056 ,Left ,50.9525875825417 ,50.3027800266271 ,6.931148973276
20.1925955 ,Left ,50.9600213696909 ,50.2803284147253 ,6.96294952856951
20.2151865 ,Left ,50.9680638257448 ,50.2697963740835 ,6.99037540226792
20.2299237 ,Left ,50.9668929887939 ,50.2711639137394 ,7.0215769165655
20.2525196 ,Left ,50.9568523523131 ,50.2684199416794 ,7.05735590027742
20.2750282 ,Left ,50.9497643686108 ,50.2426676370156 ,7.10867618937977
20.290315 ,Left ,50.9425932763901 ,50.1985070396586 ,7.1773455961917
20.3125121 ,Left ,50.9342609558703 ,50.1586788281686 ,7.24309951457878
20.335033 ,Left ,50.9075167702261 ,50.1353003214373 ,7.30259128212736
20.3727344 ,Left ,50.8712248780259 ,50.1293023544704 ,7.3969273061397
20.3949018 ,Left ,50.8780004984748 ,50.1227285657904 ,7.43360634185375
20.4324457 ,Left ,50.852091763942 ,50.0954566135859 ,7.48988176144772
20.4549857 ,Left ,50.8267899558321 ,50.0809722396716 ,7.51220936978431
20.4925605 ,Left ,50.7804992235909 ,50.0456960429135 ,7.52993136362191
20.5298991 ,Left ,50.7450541897335 ,50.0491615491579 ,7.49011673286218
20.5525717 ,Left ,50.7189030067957 ,50.0661206883982 ,7.45851911486093
20.5900038 ,Left ,50.6324170707192 ,50.0815152230541 ,7.4195785747124
20.6124053 ,Left ,50.5715961810873 ,50.0783628613439 ,7.39740934622662
20.6500413 ,Left ,50.4471989421156 ,50.0347403134459 ,7.33801613009671
20.672855 ,Left ,50.39384307332 ,49.9775747983273 ,7.3248331130051
20.7100398 ,Left ,50.2680680568852 ,49.8154879165208 ,7.32390330769374
20.7324442 ,Left ,50.3041828645084 ,49.7733099837552 ,7.30520270851413
20.7699554 ,Left ,50.4125519761888 ,49.9647904656677 ,7.20605269806414
20.7924747 ,Left ,50.4790248016919 ,50.0377771466748 ,7.16754246433386
20.8153164 ,Left ,50.5068523582588 ,50.0375826754713 ,7.15463664619672
20.8525155 ,Left ,50.5408747010776 ,49.9859244727813 ,7.15652599667544
20.890378 ,Left ,50.5656657042568 ,50.0364571142005 ,7.02051521347076
20.9126383 ,Left ,50.5746491847818 ,50.1054108637456 ,6.94704977626948
20.9349906 ,Left ,50.5502956002516 ,50.187780244135 ,6.86343074310124
20.9725556 ,Left ,50.4806027299086 ,50.2688661019539 ,6.69938602890795
20.9951264 ,Left ,50.4451073778799 ,50.2454888605385 ,6.63232466866945
21.0325294 ,Left ,50.3755260805839 ,50.088905332638 ,6.49938320330977
21.0550611 ,Left ,50.3555440201882 ,49.9445769361206 ,6.46993311892049
21.0925222 ,Left ,50.246376375654 ,49.7328658810907 ,6.48359471878989
21.1160272 ,Left ,50.2753000615158 ,49.7091634975531 ,6.47134070671538
21.1525516 ,Left ,50.4146346107908 ,49.875020012425 ,6.45867826017148
21.1750598 ,Left ,50.4408900499059 ,49.9352891172048 ,6.44420673546924
21.2124415 ,Left ,50.2824633054916 ,49.9363549199422 ,6.41330212360984
21.2349955 ,Left ,50.1561335814058 ,49.9683596030273 ,6.36460068020174
21.2724861 ,Left ,50.1817644239693 ,50.0368688239064 ,6.29911590598534
21.2951588 ,Left ,50.2264275189308 ,50.1011221025379 ,6.31575381080354
21.3332751 ,Left ,50.2733005813588 ,50.2738606921629 ,6.33953113658331
21.3699256 ,Left ,50.1611175662534 ,50.4253466966396 ,6.33547294090857
21.3924495 ,Left ,50.1129239902172 ,50.5083758281944 ,6.36380272759162
21.437429 ,Left ,50.0576203224991 ,50.4978109119784 ,6.38632600096416
21.4599711 ,Left ,50.0202882050959 ,50.4598116911527 ,6.39585474177354
21.5125188 ,Left ,50.0248676142858 ,50.2209319295971 ,6.35312905482911
21.5278085 ,Left ,50.0091112608481 ,50.1923897646736 ,6.34143173831745
21.5500508 ,Left ,49.9804462113158 ,50.2476845080725 ,6.31663760052756
21.572411 ,Left ,49.969539280157 ,50.3429091314715 ,6.28576091654368
21.6026464 ,Left ,49.9737866808403 ,50.4945383015587 ,6.26445089182194
21.6248733 ,Left ,49.9264165438539 ,50.5338032161054 ,6.28141262027856
21.6471798 ,Left ,49.9489377966456 ,50.5651119690326 ,6.30488012905806
21.6625776 ,Left ,49.9878021928543 ,50.5909987409499 ,6.30363614723651
21.6848327 ,Left ,50.0667599114986 ,50.5989198237173 ,6.30791130716367
21.7074679 ,Left ,50.1528886766062 ,50.6113451628899 ,6.32743972031499
21.7225157 ,Left ,50.2087615383686 ,50.6615409556069 ,6.33472160327942
21.7453391 ,Left ,50.2456740199468 ,50.7373917761683 ,6.32654417083145
21.7749897 ,Left ,50.2877172647826 ,50.837983162952 ,6.32493505094418
21.7898096 ,Left ,50.3149932905657 ,50.9335801325684 ,6.32771323886313
21.8123731 ,Left ,50.3326802471352 ,51.0212572086712 ,6.3274004533256
21.827389 ,Left ,50.3534414214708 ,51.0964653840249 ,6.31730066441952
21.849907 ,Left ,50.3793931588822 ,51.1488045288195 ,6.30568147972635
21.864867 ,Left ,50.4169760363018 ,51.1810350523757 ,6.28987253950046
21.8873575 ,Left ,50.4539916011735 ,51.2035503155151 ,6.26064873014993
21.90992 ,Left ,50.4763105401845 ,51.2252192923218 ,6.21639330367074
21.9248427 ,Left ,50.471514771767 ,51.2523281665748 ,6.16305750816581
21.9474624 ,Left ,50.4666675614254 ,51.269501619606 ,6.10967378015639
21.9774587 ,Left ,50.4465749310042 ,51.2697461972041 ,6.055727315902
21.9939624 ,Left ,50.4272495859513 ,51.2481756256554 ,5.97726321801581
22.0149213 ,Left ,50.400471267821 ,51.2003320208177 ,5.88217379623901
22.0298502 ,Left ,50.3866836188869 ,51.1678428548701 ,5.78566274141905
22.0449666 ,Left ,50.3825457478782 ,51.1533084564952 ,5.69577556592614
22.0673936 ,Left ,50.373423959548 ,51.1435495676233 ,5.60666501512388
22.0901976 ,Left ,50.331166166758 ,51.1356088103223 ,5.51820784853299
22.1050205 ,Left ,50.2514674441986 ,51.1259628008384 ,5.436654025059
22.1273743 ,Left ,50.1743241220179 ,51.1037114219876 ,5.37241134368535
22.1503567 ,Left ,50.1092377416798 ,51.0417943357277 ,5.33336598064438
22.1658605 ,Left ,50.0768693038101 ,50.9447408298626 ,5.32757036217043
22.1875591 ,Left ,50.0901634546894 ,50.8478833881661 ,5.33124220080167
22.2098697 ,Left ,50.10171274314 ,50.7769288854945 ,5.32733349797948
22.2250864 ,Left ,50.0891118596007 ,50.7613339342047 ,5.32254507548613
22.247343 ,Left ,50.0708203538949 ,50.8038031207307 ,5.32921100249411
22.2698598 ,Left ,50.0867511756109 ,50.8346804291047 ,5.36124242713674
22.2850185 ,Left ,50.1767269569806 ,50.8016443599702 ,5.39803781774999
22.3074887 ,Left ,50.2825236065266 ,50.7201250785645 ,5.45938137509708
22.3297945 ,Left ,50.3451167390472 ,50.6320617767864 ,5.50285801887456
22.3448436 ,Left ,50.3660247334592 ,50.5550732016964 ,5.54535947610063
22.3679476 ,Left ,50.4148101414429 ,50.457098174075 ,5.60236724719742
22.3898996 ,Left ,50.4538497028995 ,50.3821929201511 ,5.67443763221431
22.4125102 ,Left ,50.4371908686806 ,50.3508774435823 ,5.73742095040453
22.4275428 ,Left ,50.36896101915 ,50.3628301959235 ,5.78765193832926
22.4500172 ,Left ,50.3156397247458 ,50.3191775082526 ,5.80051530873041
22.4723223 ,Left ,50.2981976213975 ,50.223407758586 ,5.82506861635424
22.4876901 ,Left ,50.3236124997304 ,50.1133901597384 ,5.88754558730519
22.5097993 ,Left ,50.3367168552421 ,50.0453197880832 ,5.9256319136354
22.5335154 ,Left ,50.3292651026395 ,50.0682532441834 ,5.94754168189323
22.5473728 ,Left ,50.3268316863007 ,50.1595399967642 ,5.96114464052815
22.571403 ,Left ,50.3531505729317 ,50.2453901905206 ,5.97542229532941
22.5924303 ,Left ,50.3980402795728 ,50.2722089900558 ,5.99855247480991
22.6075141 ,Left ,50.4503026699731 ,50.2441109203599 ,6.02470044737892
22.629904 ,Left ,50.4824397253339 ,50.1942335773864 ,6.0394001424236
22.6450259 ,Left ,50.5204659877576 ,50.1552858616032 ,6.03885254482978
22.6678019 ,Left ,50.5880563547561 ,50.1267111862942 ,6.02585421324084
22.6907371 ,Left ,50.6718559840687 ,50.0793824218646 ,6.00759619067588
22.7050547 ,Left ,50.7022104039054 ,50.0520162505535 ,5.99868109526169
22.7273299 ,Left ,50.6927750256136 ,50.0851441664369 ,6.01399507431307
22.7500175 ,Left ,50.669394996333 ,50.1489956341598 ,6.01253043410553
22.7724986 ,Left ,50.6881058592157 ,50.1947348510761 ,6.01976044328372
22.7897049 ,Left ,50.7805017223636 ,50.2097087594842 ,6.06246537975002
22.8100466 ,Left ,50.8788646476281 ,50.2030750920876 ,6.12089816105907
22.8324636 ,Left ,50.9238078033701 ,50.196663102277 ,6.17942491366833
22.8473573 ,Left ,50.9154121400679 ,50.2005834142955 ,6.24086175129039
22.8698822 ,Left ,50.8891138491818 ,50.2042882614556 ,6.29768860429116
22.892377 ,Left ,50.8898592814015 ,50.204582600478 ,6.35537666104574
22.9081877 ,Left ,50.9207526832437 ,50.2065344660606 ,6.4175682862525
22.9298101 ,Left ,50.9417901471805 ,50.2083192416703 ,6.48325615853392
22.9526477 ,Left ,50.9430967745717 ,50.209833516133 ,6.56060826441113
22.9675597 ,Left ,50.929981314588 ,50.2081139626948 ,6.64947602153164
22.9900798 ,Left ,50.9255073379239 ,50.2006111641424 ,6.739218924098
23.0122941 ,Left ,50.9275195125889 ,50.1958748432747 ,6.8225196754061
23.0274908 ,Left ,50.932086697843 ,50.2024044696447 ,6.90945390374648
23.0499381 ,Left ,50.9312325168655 ,50.2196915859966 ,7.01057669607055
23.0727204 ,Left ,50.9150588544845 ,50.2383521486589 ,7.11728833551781
23.0874555 ,Left ,50.8862661402665 ,50.2540944170997 ,7.22332322484528
23.1099534 ,Left ,50.8690742438544 ,50.2593691713464 ,7.32887250762836
23.1324132 ,Left ,50.8673858530536 ,50.2632996686321 ,7.42571130048783
23.1473713 ,Left ,50.871848580296 ,50.2680183738935 ,7.5130700527513
23.1726367 ,Left ,50.8729172191571 ,50.2757136570964 ,7.59367483747289
23.1925663 ,Left ,50.8560394711386 ,50.2919807508987 ,7.66809695386535
23.2074033 ,Left ,50.8433199936902 ,50.3017423859723 ,7.72454567847251
23.2297914 ,Left ,50.8361806937324 ,50.2945012338534 ,7.76618354572721
23.252421 ,Left ,50.8288771128536 ,50.2796886969832 ,7.79160045707453
23.267616 ,Left ,50.8111980427623 ,50.2715593158303 ,7.81416780610815
23.2903011 ,Left ,50.797629726318 ,50.2726185056413 ,7.82859680437461
23.312555 ,Left ,50.7857323503875 ,50.2658010965908 ,7.81881964866163
23.3273762 ,Left ,50.7737490554201 ,50.2513841741796 ,7.79149804312755
23.3499786 ,Left ,50.7419616370446 ,50.2298961474523 ,7.76244258245514
23.372635 ,Left ,50.6941909398434 ,50.2082176101917 ,7.73814013890203
23.3875207 ,Left ,50.6496974521386 ,50.1919146998932 ,7.70122443444545
23.4101465 ,Left ,50.6104030922302 ,50.1723884471588 ,7.65620454053721
23.4338892 ,Left ,50.5736583642412 ,50.1379853012798 ,7.62064487117908
23.4474404 ,Left ,50.539935108542 ,50.0905574108554 ,7.59929469742228
23.4697435 ,Left ,50.5118811962972 ,50.0496497440107 ,7.58273944774398
23.4924439 ,Left ,50.4870903194917 ,50.0217781117907 ,7.57610814102361
23.5074631 ,Left ,50.4679865387178 ,49.9928765632588 ,7.545328754318
23.5299963 ,Left ,50.3992822290675 ,49.9816476575987 ,7.53290837752853
23.5523149 ,Left ,50.3048947015008 ,49.9963528450643 ,7.53994234205586
23.5675247 ,Left ,50.2203127215801 ,50.0266816239977 ,7.55187731361613
23.5900743 ,Left ,50.1483077581777 ,50.076082784612 ,7.54920183357998
23.6123434 ,Left ,50.1554671474839 ,50.1223495739325 ,7.54300431804714
23.6273865 ,Left ,50.2705787358243 ,50.1684423638479 ,7.5510690550752
23.6500497 ,Left ,50.3709008300253 ,50.22034336214 ,7.53215517636416
23.6722788 ,Left ,50.4192907580107 ,50.2571188258797 ,7.49067211810462
23.6948214 ,Left ,50.4198683107043 ,50.2955087412195 ,7.43936246865689
23.7175233 ,Left ,50.4195052833052 ,50.2959970180227 ,7.40208206384585
23.7399287 ,Left ,50.4492024274556 ,50.2975543584104 ,7.35214642874188
23.7699798 ,Left ,50.4806026684813 ,50.4000126435581 ,7.18466762611455
23.7923853 ,Left ,50.4856071894473 ,50.4637633618197 ,7.09251146624082
23.8151094 ,Left ,50.4796161900543 ,50.4980760673045 ,6.99812402439282
23.8297613 ,Left ,50.4714498012023 ,50.4769608763869 ,6.91686803001672
23.8523392 ,Left ,50.4399575059952 ,50.4109380883126 ,6.85587249552421
23.8748644 ,Left ,50.3939601348357 ,50.3042631350907 ,6.79447736438547
23.8898874 ,Left ,50.3458685171459 ,50.1937484319193 ,6.7597533866591
23.9123603 ,Left ,50.3036649173459 ,50.0994962243925 ,6.75895362326394
23.9349989 ,Left ,50.2155301211146 ,50.0409626806756 ,6.76209234721161
23.9499852 ,Left ,50.1824194786554 ,50.0441376626864 ,6.7604209627429
23.9725367 ,Left ,50.2445355641635 ,50.0922738798907 ,6.77223710301623
23.9962436 ,Left ,50.3594672535411 ,50.1650959804298 ,6.74793990948301
24.0111381 ,Left ,50.4075643370293 ,50.2147749334686 ,6.71198429736961
24.0325078 ,Left ,50.3247018427973 ,50.2189144596463 ,6.67644641024709
24.0551581 ,Left ,50.1725128635448 ,50.2613628809549 ,6.64175655068874
24.0700827 ,Left ,50.0091214209529 ,50.3275963869085 ,6.5776986423966
24.0923182 ,Left ,49.9891702028483 ,50.359390381541 ,6.505318841383
24.1147419 ,Left ,50.0214679056015 ,50.3427810357085 ,6.50748867323291
24.1373117 ,Left ,50.1827642003086 ,50.3607150182472 ,6.57293481459607
24.160061 ,Left ,50.2954603373839 ,50.4244048384679 ,6.57995638322031
24.1922145 ,Left ,50.3001508336697 ,50.7216693839971 ,6.49407781722368
24.212385 ,Left ,50.2184095417199 ,50.8258758870308 ,6.48985265811341
24.2350594 ,Left ,50.1395635594839 ,50.905653070391 ,6.48687174021032
24.2501012 ,Left ,50.0868544814611 ,50.9403400939602 ,6.47525386142891
24.2726712 ,Left ,50.0757595317432 ,50.9445951947232 ,6.47314900547803
24.2948041 ,Left ,50.0780801026074 ,50.8965555270544 ,6.48413658421074
24.3173951 ,Left ,50.1047882129375 ,50.8295552900195 ,6.51675879576433
24.3323099 ,Left ,50.121819104594 ,50.7565689666932 ,6.53448642033323
24.3549971 ,Left ,50.0946881457546 ,50.7046406139938 ,6.51502969469151
24.3699788 ,Left ,50.0505474729459 ,50.6977904965032 ,6.46821777343805
24.3924813 ,Left ,50.0166413664157 ,50.748292106874 ,6.44028833577543
24.415104 ,Left ,50.022026822766 ,50.83632739801 ,6.41107292580094
24.4300401 ,Left ,50.0413522069639 ,50.9552295010528 ,6.37835398430854
24.4522962 ,Left ,50.0471067138752 ,51.0451693683374 ,6.36000935903796
24.4748623 ,Left ,50.0569238840919 ,51.0729705991809 ,6.36640824117206
24.4907594 ,Left ,50.1020431681167 ,51.0658827498266 ,6.39415352750235
24.5124975 ,Left ,50.1719672754873 ,51.0656029862898 ,6.40978557937491
24.534894 ,Left ,50.2476431556051 ,51.077918362296 ,6.40329507297425
24.5499864 ,Left ,50.2879571584089 ,51.1134484868931 ,6.38456815173947
24.5725124 ,Left ,50.2896314563828 ,51.1687023819391 ,6.34234904663925
24.5949809 ,Left ,50.269166650396 ,51.2264288334127 ,6.28296036477531
24.6101502 ,Left ,50.2589540202521 ,51.2602231188631 ,6.20763557291753
24.6325548 ,Left ,50.2922624888507 ,51.2755852198387 ,6.12578144251973
24.6549264 ,Left ,50.3318148428836 ,51.2938743832767 ,6.04053451625574
24.6775387 ,Left ,50.3409419068734 ,51.3201005733515 ,5.95227727728731
24.6926735 ,Left ,50.3153392816218 ,51.3310289312457 ,5.86267455913651
24.7148515 ,Left ,50.2970730222335 ,51.3385136620078 ,5.77503974449288
24.7373131 ,Left ,50.2719740679578 ,51.3412040392467 ,5.68706879471378
24.7524093 ,Left ,50.2122351343708 ,51.3262089580572 ,5.60135995290687
24.7748938 ,Left ,50.1289372957882 ,51.2972991587543 ,5.52659479351455
24.7972976 ,Left ,50.071299461248 ,51.2538279838545 ,5.46023463986174
24.8126505 ,Left ,50.0369595535954 ,51.1805927191374 ,5.40878622204299
24.8350148 ,Left ,50.0208415024486 ,51.1023642057565 ,5.38810791214279
24.857492 ,Left ,49.9987869839997 ,51.0331010587366 ,5.37715530907199
24.8723719 ,Left ,49.9550299656916 ,50.9715982191463 ,5.38549196097103
24.8948779 ,Left ,49.8902133844607 ,50.913756045664 ,5.39507193669377
24.917396 ,Left ,49.8730903423561 ,50.869435179267 ,5.40695389756189
24.932422 ,Left ,49.8670082241188 ,50.8492478074285 ,5.45786076998677
24.9548753 ,Left ,49.8747027559013 ,50.8541472997569 ,5.49339808480043
24.9775976 ,Left ,49.9281642021419 ,50.8627611220081 ,5.51837251305218
24.9924568 ,Left ,50.0335695450284 ,50.8167862751935 ,5.55697791758346
25.014971 ,Left ,50.1600855824088 ,50.7214438508815 ,5.61012370993341
25.0449815 ,Left ,50.2167776768846 ,50.6321526804997 ,5.68376048174424
25.0600135 ,Left ,50.2230760410044 ,50.5813528579287 ,5.76795393464112
25.0824703 ,Left ,50.2415574678829 ,50.5460632266508 ,5.83510713552962
25.0974007 ,Left ,50.2769598018497 ,50.5096210771778 ,5.87355417823908
25.1125352 ,Left ,50.3493967199028 ,50.4503886999563 ,5.90399048392304
25.1424807 ,Left ,50.4079442450833 ,50.3698352482513 ,5.94087745003032
25.1648347 ,Left ,50.3928027177349 ,50.2872492315967 ,5.9805604777987
25.1799785 ,Left ,50.2907975529525 ,50.2075613343136 ,6.00297544527031
25.1953694 ,Left ,50.2396896306523 ,50.1360993402955 ,6.02121199688649
25.2176361 ,Left ,50.2960473926591 ,50.1091590151145 ,6.05903410014692
25.2324488 ,Left ,50.3839542380395 ,50.1336099079218 ,6.07379940113043
25.2561281 ,Left ,50.4497631742522 ,50.2080109081558 ,6.0711159797577
25.2774111 ,Left ,50.4939265432754 ,50.2726792273421 ,6.07306176244238
25.2924162 ,Left ,50.5349702277233 ,50.3002787324977 ,6.07992966627994
25.3150779 ,Left ,50.5684639918351 ,50.309642553648 ,6.08016286686865
25.337312 ,Left ,50.5880346293704 ,50.3200459236957 ,6.06050699607737
25.3525097 ,Left ,50.5778553737452 ,50.3302421085907 ,6.04074875290129
25.3748282 ,Left ,50.5776774691581 ,50.3402711934738 ,6.03379972268364
25.3974081 ,Left ,50.6099543128925 ,50.3441514243121 ,6.02404161328444
25.4050456 ,Left ,50.6726145015924 ,50.3521698028779 ,6.01197129472449
25.4274662 ,Left ,50.7386250070127 ,50.3773338021549 ,6.00376544646198
25.4508906 ,Left ,50.7856990004461 ,50.4254004324214 ,6.01943335873632
25.4650851 ,Left ,50.8001162407942 ,50.4873425470297 ,6.04699885095079
25.4875261 ,Left ,50.8095541755209 ,50.5420740103039 ,6.08609764052146
25.5100515 ,Left ,50.8403101912998 ,50.5824958998586 ,6.13610989718177
25.5249568 ,Left ,50.8909296549635 ,50.6009437562993 ,6.19470653106587
25.547623 ,Left ,50.9383446337639 ,50.6215344111085 ,6.26433288401098
25.5699564 ,Left ,50.9661294649408 ,50.6618111950257 ,6.33310140998018
25.584836 ,Left ,50.979925951187 ,50.7107842520794 ,6.40128307406201
25.60865 ,Left ,50.9872075527637 ,50.7550170251078 ,6.47450992280922
25.6299719 ,Left ,50.9876090003002 ,50.8026140313972 ,6.55114449967978
25.6450889 ,Left ,50.9875827008789 ,50.8462121315034 ,6.63397813506842
25.66757 ,Left ,50.9928251957683 ,50.8767782441823 ,6.7159782641849
25.6903176 ,Left ,51.0059943641714 ,50.8955317481935 ,6.80646072209343
25.72748 ,Left ,51.0169563782093 ,50.9352015385956 ,7.03259690027363
25.7500672 ,Left ,51.0008775654224 ,50.9496986489435 ,7.15622834767675
25.7874492 ,Left ,50.997147910116 ,50.9522227340946 ,7.41553116107581
25.8100457 ,Left ,51.0101569620768 ,50.9461400478539 ,7.53649708936049
25.8474797 ,Left ,51.0083713596598 ,50.9394755639815 ,7.74573186043246
25.8701847 ,Left ,50.9984406025902 ,50.9359873003957 ,7.82575719317317
25.9074705 ,Left ,50.9721157176893 ,50.9234668159139 ,7.95830045927441
25.9299889 ,Left ,50.9663368023181 ,50.9016128354103 ,8.0105437939286
25.94489 ,Left ,50.9709908545229 ,50.8730857870043 ,8.06466381722878
25.9676488 ,Left ,50.9704068871122 ,50.8420282121218 ,8.10873893780739
25.9899131 ,Left ,50.9708871683767 ,50.8090658003631 ,8.13866403671046
26.0050083 ,Left ,50.9774486275882 ,50.7788604834792 ,8.15248732412109
26.0275087 ,Left ,50.9661815671386 ,50.7599487649693 ,8.14263812985127
26.0502671 ,Left ,50.9606140881977 ,50.7500701627264 ,8.11213267972228
26.0875847 ,Left ,50.9535426029755 ,50.7051157543292 ,8.13516226221358
26.1099626 ,Left ,50.8776638684609 ,50.7230694730843 ,8.12709858927199
26.1473874 ,Left ,50.7258910729833 ,50.7440066721287 ,8.03842572950715
26.1700838 ,Left ,50.683465775178 ,50.7498480536222 ,7.97731696215545
26.2074457 ,Left ,50.6192115983258 ,50.6618458502483 ,7.83987361090956
26.230016 ,Left ,50.5674268839068 ,50.6113163267602 ,7.79603687898896
26.2675383 ,Left ,50.4832551521279 ,50.5152406343393 ,7.69514269358549
26.2899985 ,Left ,50.4626686642569 ,50.4985902436198 ,7.66940974635628
26.3274437 ,Left ,50.4275534051051 ,50.5809427732341 ,7.70132345222451
26.3500655 ,Left ,50.4132008861155 ,50.686736004708 ,7.68214746316004
26.3874709 ,Left ,50.3904005598026 ,50.772858439337 ,7.60930201494569
26.4100443 ,Left ,50.4537602589407 ,50.7534313763085 ,7.61206782067174
26.447486 ,Left ,50.6461767156493 ,50.7294868078293 ,7.54983684880865
26.4850201 ,Left ,50.6897858140696 ,50.8020857993418 ,7.35241935720909
26.5117754 ,Left ,50.6485926395413 ,50.8350931798078 ,7.25478847611566
26.5298911 ,Left ,50.6100334744302 ,50.8689881789196 ,7.17482407637476
26.5674314 ,Left ,50.5275101011934 ,50.9076023618251 ,6.99954932653452
26.5900587 ,Left ,50.4548322675512 ,50.8686465162581 ,6.92664722357037
26.6273935 ,Left ,50.3096599136834 ,50.6801851976722 ,6.84344560841156
26.6500359 ,Left ,50.1986741137843 ,50.5373610789987 ,6.8311690341427
26.6874472 ,Left ,50.2932792031157 ,50.4589483086932 ,6.85191948618212
26.7098741 ,Left ,50.3338868199389 ,50.5556212548001 ,6.83079385014349
26.7474991 ,Left ,50.3666728088663 ,50.7098533047085 ,6.79528685532085
26.7848236 ,Left ,50.1632838752836 ,50.6465204754409 ,6.76095039402902
26.8075477 ,Left ,50.0498977297164 ,50.615168993909 ,6.69579160656424
26.8299516 ,Left ,49.9935111214994 ,50.541544601076 ,6.6413322110861
26.8674547 ,Left ,50.12495905164 ,50.4382214792466 ,6.6686426283709
26.8900986 ,Left ,50.2308530858407 ,50.4772343253794 ,6.68442233842522
26.9276978 ,Left ,50.141372347079 ,50.7088560079261 ,6.60775241542302
26.949815 ,Left ,50.0536439013001 ,50.9098936162172 ,6.5734184704834
26.9949055 ,Left ,50.1287448402224 ,50.9595036093849 ,6.482678122661
27.0174288 ,Left ,50.2776402673919 ,50.8335061825498 ,6.49294137553697
27.0474089 ,Left ,50.3132495383093 ,50.6755454735202 ,6.44483339538243
27.0700912 ,Left ,50.2455933091589 ,50.6618781318283 ,6.3831336267791
27.1074262 ,Left ,50.193418275639 ,50.6468183562661 ,6.31290078269687
27.1449653 ,Left ,50.193496601479 ,50.6190971708805 ,6.29840527736371
27.1674487 ,Left ,50.1919941489785 ,50.5797062325705 ,6.32175605979673
27.2048332 ,Left ,50.1309073062751 ,50.5106986898828 ,6.34425680432891
27.2273587 ,Left ,50.0543841889291 ,50.5063009342419 ,6.32508477058404
27.2424005 ,Left ,50.015556973715 ,50.4823477882672 ,6.30480484565548
27.264827 ,Left ,50.0994174205927 ,50.4338272835896 ,6.33648410081474
27.2797871 ,Left ,50.1887735992241 ,50.4215948122478 ,6.38176710127156
27.3024539 ,Left ,50.166743222362 ,50.4717452047936 ,6.35006207010784
27.3252693 ,Left ,50.101193896572 ,50.5900331936433 ,6.33651863686877
27.3399541 ,Left ,50.131056590337 ,50.6791936790747 ,6.33495162818367
27.3622159 ,Left ,50.1995020637386 ,50.6951200160654 ,6.32745969120242
27.3773824 ,Left ,50.2870965078943 ,50.6915558056155 ,6.28948145201693
27.3998019 ,Left ,50.3150805647877 ,50.7241220066508 ,6.19550716214073
27.4224097 ,Left ,50.3156830197496 ,50.8157780894852 ,6.0640667541078
27.4447042 ,Left ,50.3593125932273 ,50.9111818389645 ,5.91809623270244
27.4673639 ,Left ,50.4070037894963 ,50.9881985737188 ,5.78666510652946
27.4900175 ,Left ,50.4336644434387 ,51.0670911799731 ,5.68449232816487
27.5202121 ,Left ,50.5021914908327 ,51.1906902737581 ,5.50670689083717
27.5423498 ,Left ,50.5610206439491 ,51.2384494660303 ,5.43895522022764
27.5647959 ,Left ,50.6025408000826 ,51.2872729426871 ,5.38249628742679
27.5800986 ,Left ,50.62945041076 ,51.3384040627929 ,5.347415934051
27.6023237 ,Left ,50.6465481455177 ,51.3731510616993 ,5.33375198090402
27.6246955 ,Left ,50.6675626651751 ,51.3814968630205 ,5.33094895168461
27.6398566 ,Left ,50.7018046172935 ,51.3912340730722 ,5.35229600527419
27.6623678 ,Left ,50.7427397780657 ,51.4133564979793 ,5.38678480249151
27.6848861 ,Left ,50.7837802753093 ,51.4312047093478 ,5.43669876755867
27.6998006 ,Left ,50.8005158042593 ,51.4431878664441 ,5.49287954522844
27.7223263 ,Left ,50.7812129009517 ,51.4416377158421 ,5.54757439241521
27.7449046 ,Left ,50.7419834532668 ,51.4279319980221 ,5.60219833748669
27.7598999 ,Left ,50.6959852366862 ,51.3997452154108 ,5.65465451467152
27.7823539 ,Left ,50.6595820491662 ,51.3621993038307 ,5.69743029285173
27.8048609 ,Left ,50.6455608152681 ,51.3089321388696 ,5.73273056381256
27.8198529 ,Left ,50.6336172294433 ,51.2475019207699 ,5.7616424177955
27.8422913 ,Left ,50.5974853726081 ,51.1865959251404 ,5.78086570126823
27.8646802 ,Left ,50.5335381406545 ,51.1291530077119 ,5.7801759158965
27.879891 ,Left ,50.4696916090759 ,51.0638130541463 ,5.768890565736
27.9022435 ,Left ,50.4170953989908 ,50.9964878663759 ,5.74809947835273
27.9247573 ,Left ,50.3570756800954 ,50.9443831567539 ,5.71371975871916
27.940846 ,Left ,50.3090199752685 ,50.9039232816076 ,5.67336150464626
27.962516 ,Left ,50.2857592927413 ,50.8687632539247 ,5.63468383677544
27.984869 ,Left ,50.2998419567857 ,50.823045981595 ,5.58330841605852
27.999962 ,Left ,50.2989291902591 ,50.7701675515216 ,5.52971498810947
28.0221976 ,Left ,50.2586773481338 ,50.7379714232162 ,5.48611246377705
28.0446857 ,Left ,50.198081131787 ,50.7249282350244 ,5.43949307288986
28.0598113 ,Left ,50.1407709004357 ,50.7091954825951 ,5.38112849746295
28.0822543 ,Left ,50.0800769189382 ,50.6938866806551 ,5.33991549768443
28.1047783 ,Left ,49.9967588485306 ,50.6822687721186 ,5.31459001454409
28.1198552 ,Left ,49.9299636746993 ,50.6600285915761 ,5.31514584658485
28.1422515 ,Left ,49.85090652777 ,50.6657722361233 ,5.3533598738267
28.1647916 ,Left ,49.7610440589786 ,50.7011819483583 ,5.38801030209073
28.1799206 ,Left ,49.730232761553 ,50.749984334338 ,5.40104050075707
28.2022966 ,Left ,49.8123370469615 ,50.7357602702537 ,5.38975456125326
28.224842 ,Left ,50.013094061663 ,50.6502659576374 ,5.41322725736952
28.2473574 ,Left ,50.1559090148396 ,50.5468019390221 ,5.46238202589197
28.262322 ,Left ,50.1667219300174 ,50.4935826819132 ,5.48254539862442
28.2923177 ,Left ,50.1662291756624 ,50.4659913569637 ,5.50611716280777
28.3148559 ,Left ,50.2489070981115 ,50.406027628458 ,5.53772784482089
28.3297025 ,Left ,50.3290811852935 ,50.32054536382 ,5.58147943734507
28.3686594 ,Left ,50.3389032241667 ,50.2248914559797 ,5.70668149345273
28.3823527 ,Left ,50.2444148215197 ,50.1706798520404 ,5.74308156332089
28.4048435 ,Left ,50.1992710107508 ,50.0740222027773 ,5.78130496931844
28.4273198 ,Left ,50.2280167734708 ,49.9616565152029 ,5.83848991709024
28.4424512 ,Left ,50.2587267005825 ,49.9142813067859 ,5.85964410751855
28.4648175 ,Left ,50.3113265198014 ,49.9420917276467 ,5.85428020092781
28.4871821 ,Left ,50.4083291020637 ,50.0387244823929 ,5.84961142317004
28.5024278 ,Left ,50.5142051291496 ,50.1296339141973 ,5.85517895549669
28.5323708 ,Left ,50.5774055542454 ,50.1708440943366 ,5.87846130767119
28.5551378 ,Left ,50.6044647412852 ,50.1552801695081 ,5.91335749141371
28.5728259 ,Left ,50.6015868809556 ,50.1176580730783 ,5.94611370890462
28.5850898 ,Left ,50.6175881917364 ,50.0865846932301 ,5.96538553892554
28.6155417 ,Left ,50.6470470255132 ,50.0751086416358 ,5.96325202074702
28.6299175 ,Left ,50.7111137169006 ,50.0689284430936 ,5.96205340325203
28.6524805 ,Left ,50.7828832370209 ,50.0607295394563 ,5.98412540215666
28.6676011 ,Left ,50.856999308609 ,50.0443400789647 ,5.99591854165237
28.6823552 ,Left ,50.8994793787561 ,50.0281208275835 ,6.0032625520077
28.705255 ,Left ,50.915135137241 ,50.0263161609489 ,6.03110926419108
28.7349734 ,Left ,50.916541120389 ,50.042583788926 ,6.07592968384085
28.750425 ,Left ,50.9142122310799 ,50.0693960071463 ,6.12351673642974
28.7875098 ,Left ,50.9315458721424 ,50.0827801292412 ,6.22937955889413
28.8024274 ,Left ,50.9649089536968 ,50.0882170855793 ,6.29049258528165
28.824873 ,Left ,50.987605216384 ,50.0991255371282 ,6.36922764909299
28.8548532 ,Left ,50.9922086121555 ,50.1172829953662 ,6.45879755534035
28.8700067 ,Left ,50.989333484815 ,50.1369454373678 ,6.55010967635699
28.8923399 ,Left ,50.998643181919 ,50.1480928478127 ,6.64211861983896
28.9073709 ,Left ,51.0213806467781 ,50.1560782488657 ,6.74194604111
28.9225339 ,Left ,51.04463923471 ,50.1655575174058 ,6.84980218050165
28.9451867 ,Left ,51.0635219115279 ,50.1817467410972 ,6.96070014676499
28.9672485 ,Left ,51.0718633445176 ,50.2121033304255 ,7.07370725717784
28.9824152 ,Left ,51.066301537846 ,50.2418083091958 ,7.18196260095734
29.004937 ,Left ,51.0635802128976 ,50.2567886570495 ,7.29593952620685
29.0273228 ,Left ,51.0738600583145 ,50.2585259582897 ,7.41690472892192
29.0501855 ,Left ,51.0837228398177 ,50.2586085006328 ,7.52827989209337
29.0648177 ,Left ,51.0763786741073 ,50.2635010444892 ,7.6186288551017
29.0873359 ,Left ,51.0628236412641 ,50.2764321208225 ,7.69475598468785
29.1098631 ,Left ,51.0572626573437 ,50.2897654312795 ,7.76105014673404
29.1251324 ,Left ,51.0544067213484 ,50.2990016402845 ,7.80944342168936
29.1473092 ,Left ,51.0570216094854 ,50.3074739168377 ,7.83840064825997
29.1627859 ,Left ,51.059142382905 ,50.3224242862552 ,7.85649901788684
29.1851651 ,Left ,51.0541064156415 ,50.3413278619944 ,7.86975918959865
29.207517 ,Left ,51.0386626501136 ,50.3591431985348 ,7.87364218692481
29.2224043 ,Left ,51.0249610907332 ,50.3607307933949 ,7.86905168004978
29.244886 ,Left ,51.00732903925 ,50.347411000069 ,7.85909854218414
29.2675675 ,Left ,50.9934857079184 ,50.3333648713233 ,7.84139767291187
29.2825237 ,Left ,50.9841773966959 ,50.33059638241 ,7.809313087509
29.3048057 ,Left ,50.9761955804514 ,50.3338494943146 ,7.764656133183
29.3274496 ,Left ,50.9619181431729 ,50.3288464824507 ,7.71143810726441
29.3425895 ,Left ,50.9180499739741 ,50.3250035718401 ,7.66030328905253
29.3649719 ,Left ,50.8454697347518 ,50.3179721416014 ,7.61079527527119
29.3875231 ,Left ,50.7507239915528 ,50.2944403920692 ,7.54483908518876
29.4102819 ,Left ,50.6559473389826 ,50.2445022793772 ,7.48344393373422
29.4248475 ,Left ,50.5776066086657 ,50.1781303043506 ,7.43590260972479
29.4473325 ,Left ,50.5056629483514 ,50.1118969671371 ,7.3999254413869
29.4699476 ,Left ,50.4476703419864 ,50.0701576516854 ,7.36734326641187
29.4854478 ,Left ,50.3709505463129 ,50.0925383170115 ,7.33899116321046
29.507342 ,Left ,50.2678791412231 ,50.1467316133943 ,7.33016974107241
29.5298938 ,Left ,50.1788898199461 ,50.2173765740305 ,7.35613104431578
29.5457602 ,Left ,50.1498063992825 ,50.2540902662823 ,7.37853486656232
29.5726354 ,Left ,50.2817762604247 ,50.2524866289112 ,7.43725056376455
29.5913558 ,Left ,50.4137744666073 ,50.2608276588853 ,7.45513035951962
29.6053828 ,Left ,50.4550847078864 ,50.2592236547796 ,7.43403170357155
29.6277142 ,Left ,50.4503664966029 ,50.3009022170188 ,7.38273179998308
29.6500084 ,Left ,50.4573310190251 ,50.3520960282668 ,7.3039105019804
29.6647789 ,Left ,50.4941787045141 ,50.3706458410361 ,7.21038226763967
29.6874275 ,Left ,50.5749330753574 ,50.3813239555199 ,7.12108311658108
29.7098073 ,Left ,50.6335922651828 ,50.4170862712874 ,7.04684053546256
29.7248304 ,Left ,50.6373375689196 ,50.4675173034242 ,6.9597347822325
29.7474291 ,Left ,50.6167139256709 ,50.5071405480753 ,6.88323241247028
29.7704493 ,Left ,50.5831441458952 ,50.505601553723 ,6.81287922433261
29.7867228 ,Left ,50.5366054627885 ,50.4530938803729 ,6.73887435749325
29.8089842 ,Left ,50.4884575643755 ,50.3729081282754 ,6.66752732498
29.8300365 ,Left ,50.4621036663032 ,50.2898845050106 ,6.6061627959381
29.8450822 ,Left ,50.4472453619109 ,50.2021836564629 ,6.56624862415498
29.8690956 ,Left ,50.3686466889795 ,50.1115799958679 ,6.55250731092338
29.8898664 ,Left ,50.2695249475183 ,50.0171628689929 ,6.55183427868405
29.9052064 ,Left ,50.3096273448383 ,49.9430406083429 ,6.57710272273876
29.9272894 ,Left ,50.4057345149171 ,49.9090066831882 ,6.57603150996436
29.949856 ,Left ,50.463188722088 ,49.9844345185839 ,6.56799059508141
29.9723856 ,Left ,50.4951635373241 ,50.071347017526 ,6.54761207858681
29.9876937 ,Left ,50.4444774854694 ,50.1238655417827 ,6.52755708744833
30.0101246 ,Left ,50.3360835338812 ,50.1463035226462 ,6.53774182457469
30.0323593 ,Left ,50.2187343306841 ,50.1649631640596 ,6.50865912849057
30.0472605 ,Left ,50.1551386368909 ,50.1465832639291 ,6.46250708568187
30.0707293 ,Left ,50.1774569516861 ,50.1101972047753 ,6.47405084721079
30.0922355 ,Left ,50.2974768893266 ,50.0950964806757 ,6.50478227129427
30.1073094 ,Left ,50.3918389976123 ,50.1290808403493 ,6.50792555861264
30.1297025 ,Left ,50.4023086274882 ,50.2183077488223 ,6.49722311562946
30.1448446 ,Left ,50.3577890535037 ,50.3110310297923 ,6.47809848883366
30.1673868 ,Left ,50.316247121586 ,50.4267024293626 ,6.4813797295378
30.1900912 ,Left ,50.3033471253799 ,50.5464083781727 ,6.48456728744541
30.2124062 ,Left ,50.2968385634267 ,50.6489403186698 ,6.48756809148928
30.227372 ,Left ,50.2558610429391 ,50.6911459634038 ,6.48336541902149
30.2499439 ,Left ,50.2516590096778 ,50.690027771853 ,6.48328821204751
30.2730251 ,Left ,50.2850208032875 ,50.6572461089335 ,6.50365181387802
30.2874858 ,Left ,50.3238576515586 ,50.6134057053599 ,6.51758293844377
30.3100414 ,Left ,50.3233352348866 ,50.5838490907238 ,6.50122334659022
30.3323314 ,Left ,50.2897778235362 ,50.5592362386316 ,6.46638835968426
30.3551316 ,Left ,50.249536434938 ,50.5576750063211 ,6.4530344017361
30.3778849 ,Left ,50.2023412592914 ,50.5593989118015 ,6.45697969597505
30.4073944 ,Left ,50.2328610712912 ,50.465809377784 ,6.46783607764756
30.4299482 ,Left ,50.2446621251537 ,50.417787081015 ,6.45973043277467
30.4527013 ,Left ,50.194111129195 ,50.46194346156 ,6.45109467740805
30.4673904 ,Left ,50.1419319645033 ,50.5857249828719 ,6.43794803111049
30.4900463 ,Left ,50.1274712995736 ,50.6997840818926 ,6.43025500854982
30.5124154 ,Left ,50.1570565641958 ,50.7552295218479 ,6.44515875196191
30.5276573 ,Left ,50.2509190722542 ,50.763634766724 ,6.47969281345619
30.5502458 ,Left ,50.3313152855375 ,50.7668075936086 ,6.49411547629222
30.5723031 ,Left ,50.3665765658528 ,50.7854037829427 ,6.48146449325533
30.5874599 ,Left ,50.3768986658949 ,50.8170972449249 ,6.47359061682618
30.6099462 ,Left ,50.392836053592 ,50.8455304030154 ,6.47862353964625
30.6322513 ,Left ,50.4047015479011 ,50.87487001747 ,6.47369415645074
30.6474283 ,Left ,50.4367227585935 ,50.898164363846 ,6.45583452081908
30.6698997 ,Left ,50.4996567259408 ,50.9114668973591 ,6.41422293294544
30.692475 ,Left ,50.5602082985249 ,50.9156318714839 ,6.35906412235706
30.7073688 ,Left ,50.5871073760267 ,50.9407295966265 ,6.2986133693994
30.729782 ,Left ,50.587594964441 ,50.9851692096258 ,6.22598298220042
30.7525308 ,Left ,50.5807970631033 ,51.0350046027609 ,6.14781545791757
30.7676714 ,Left ,50.5866245298198 ,51.0803847951848 ,6.06628996949787
30.7900608 ,Left ,50.5972083822283 ,51.1033013368017 ,5.96831536391231
30.8124245 ,Left ,50.5938566924735 ,51.107203713424 ,5.86153982234056
30.8275987 ,Left ,50.5721974974567 ,51.1183798811807 ,5.75773065447902
30.8498863 ,Left ,50.5323376429514 ,51.1385408204983 ,5.65431259054126
30.8723157 ,Left ,50.4843049475703 ,51.143966859352 ,5.56219204653087
30.887489 ,Left ,50.4458988355026 ,51.1196991380069 ,5.49459972969092
30.9099699 ,Left ,50.4232562859955 ,51.0688035293876 ,5.44105034789762
30.9323188 ,Left ,50.3973226957203 ,51.0182843635043 ,5.40021305072247
30.9474853 ,Left ,50.3404242265774 ,50.9808810179906 ,5.36401246725864
30.970616 ,Left ,50.2900174804152 ,50.942182842113 ,5.34988525808628
30.9925555 ,Left ,50.2613799880914 ,50.8820631052888 ,5.32641854387732
31.0074628 ,Left ,50.2232038171717 ,50.8096903368413 ,5.31462240220686
31.0300272 ,Left ,50.1833175145342 ,50.7592342202882 ,5.32105051932896
31.0524538 ,Left ,50.1654086310514 ,50.7208427464857 ,5.33799188836388
31.069201 ,Left ,50.1755283435922 ,50.7190926174264 ,5.36182681639241
31.0898266 ,Left ,50.2357334651288 ,50.769918954775 ,5.37400259473318
31.1124658 ,Left ,50.2752212773649 ,50.8025486108362 ,5.3894462735518
31.1273621 ,Left ,50.345515737319 ,50.7783335965484 ,5.44633799543035
31.14247 ,Left ,50.4599409995005 ,50.7223449158968 ,5.51905913072002
31.164982 ,Left ,50.5333918758429 ,50.6495292008847 ,5.57858354498312
31.2025595 ,Left ,50.6306857375448 ,50.4841614702663 ,5.70182579851915
31.2251487 ,Left ,50.6596679627908 ,50.4617104730059 ,5.78044558176339
31.2625032 ,Left ,50.5326919379352 ,50.508716444294 ,5.92193703764746
31.2865922 ,Left ,50.4672514683633 ,50.4754465290908 ,5.92985958961335
31.3225365 ,Left ,50.4826527899748 ,50.292001743033 ,5.97564641859716
31.3448285 ,Left ,50.5295105328319 ,50.1935544212183 ,6.01065734148924
31.3823284 ,Left ,50.4993591832909 ,50.1984679053242 ,6.06926688453698
31.4050654 ,Left ,50.4610987182133 ,50.3065312702545 ,6.08858343334162
31.4427268 ,Left ,50.5326590300565 ,50.3355688054011 ,6.1335693971881
31.4650451 ,Left ,50.5911542296921 ,50.2878135257516 ,6.17564538473326
31.4799707 ,Left ,50.6176456954588 ,50.250760841875 ,6.18501644211014
31.5024433 ,Left ,50.5855899429145 ,50.2394638397307 ,6.17203415993727
31.5252659 ,Left ,50.5524409315473 ,50.2517734012822 ,6.18034400827471
31.539814 ,Left ,50.5526395761425 ,50.2513687568995 ,6.20370785062881
31.5627078 ,Left ,50.6041739530294 ,50.2508802664324 ,6.21653466763474
31.5850084 ,Left ,50.65841046252 ,50.2538089594963 ,6.2282833496723
31.6225106 ,Left ,50.7631886591773 ,50.3191374202641 ,6.2778331032396
31.6449067 ,Left ,50.7959920401025 ,50.3613386705984 ,6.31310136072875
31.6601154 ,Left ,50.8266414539689 ,50.3919559815883 ,6.35167076351396
31.6824963 ,Left ,50.8522052401028 ,50.4251743388553 ,6.40483620680463
31.7048667 ,Left ,50.8676878079487 ,50.4563191406572 ,6.46317333979724
31.7425201 ,Left ,50.87349203968 ,50.5573713746695 ,6.58623960695016
31.7649651 ,Left ,50.8874038129926 ,50.6167190422117 ,6.64155508278012
31.8024217 ,Left ,50.9770568744864 ,50.6912106503137 ,6.79359293705323
31.8251605 ,Left ,51.0055928695932 ,50.7004404624331 ,6.88678288844923
31.8624908 ,Left ,51.0446221707021 ,50.6779109043187 ,7.10166347005284
31.8857286 ,Left ,51.0538122700666 ,50.6606940405087 ,7.21328971558093
31.9224553 ,Left ,51.1001952569914 ,50.6379723413239 ,7.4169035865322
31.9450426 ,Left ,51.1398695437712 ,50.6334633102223 ,7.51663261222177
31.9824515 ,Left ,51.2120296685632 ,50.6199591866005 ,7.70309955749646
32.0049237 ,Left ,51.2319382198853 ,50.610393809004 ,7.78144774260702
32.0425739 ,Left ,51.272064585558 ,50.5876552296884 ,7.91506970549432
32.0650894 ,Left ,51.3102901547679 ,50.5659311601647 ,7.97035527123856
32.1025601 ,Left ,51.3551703535143 ,50.5262796701341 ,8.07725149371447
32.1249678 ,Left ,51.3396485031434 ,50.516916927693 ,8.11222725707779
32.1624505 ,Left ,51.3307898888659 ,50.4964111076933 ,8.13081480755503
32.1850728 ,Left ,51.3407102181589 ,50.4743061151255 ,8.11567964486001
32.2239063 ,Left ,51.3045373369592 ,50.4419094122861 ,8.05112707288648
32.245021 ,Left ,51.2656992719496 ,50.4353482791197 ,8.00977451583449
32.2824688 ,Left ,51.1991134643118 ,50.4359397389133 ,7.90472572295691
32.3125683 ,Left ,51.1644065395896 ,50.4546761393922 ,7.84631905349459
32.3499805 ,Left ,51.0529433908802 ,50.4599398106766 ,7.73336338504736
32.3799048 ,Left ,50.8398346292994 ,50.4143173215912 ,7.65602391435041
32.4025339 ,Left ,50.7009356931082 ,50.3493931784277 ,7.5991356277412
32.4258468 ,Left ,50.570430864784 ,50.2601179831016 ,7.53708260786739
32.4624093 ,Left ,50.4258606703228 ,50.1020341173535 ,7.46317773713392
32.4897407 ,Left ,50.4713560502675 ,50.0754246599896 ,7.44657299689126
32.5225053 ,Left ,50.7164427920603 ,50.1076941664598 ,7.41110173535231
32.5447854 ,Left ,50.7003838621441 ,50.1759510309282 ,7.38501927290349
32.5821686 ,Left ,50.6680709467153 ,50.2489523976419 ,7.41233113888029
32.6199543 ,Left ,50.7339029625606 ,50.2683266062101 ,7.36381867711395
32.6424897 ,Left ,50.8075788339352 ,50.3221994130902 ,7.30622814475739
32.6799716 ,Left ,50.8082694565521 ,50.4595437079115 ,7.13506652557967
32.7024938 ,Left ,50.7698467234376 ,50.4999588520585 ,7.04959809863781
32.7248903 ,Left ,50.7093820983793 ,50.5232473628011 ,6.95709101662405
32.7623438 ,Left ,50.5540443900637 ,50.5047169781668 ,6.75873847619664
32.7848487 ,Left ,50.4841221164326 ,50.4352088958825 ,6.68437600443113
32.8299478 ,Left ,50.381955962622 ,50.1739052894782 ,6.58912767432365
32.8526644 ,Left ,50.3878046370628 ,50.0317785425622 ,6.58410169813557
32.8823528 ,Left ,50.4075261408611 ,49.9271774805082 ,6.52515459552489
32.9048814 ,Left ,50.4713438045453 ,49.9477928351548 ,6.51510090078206
32.9426066 ,Left ,50.5840295900961 ,50.0416938453848 ,6.50368162340311
32.9797599 ,Left ,50.4181765390012 ,50.0840461031831 ,6.49923253076631
32.994759 ,Left ,50.2993224487068 ,50.1150384595921 ,6.44913603959909
33.0173014 ,Left ,50.1932691259834 ,50.1211798698363 ,6.40665865888732
33.0397858 ,Left ,50.1777527567821 ,50.1122561538628 ,6.44615399887847
33.0558801 ,Left ,50.2861614858872 ,50.1274294462469 ,6.47713653743923
33.0773281 ,Left ,50.3588954193794 ,50.1918926424712 ,6.46610308741337
33.0999954 ,Left ,50.3933343528323 ,50.3218899753855 ,6.44521322663127
33.1148284 ,Left ,50.3645201090478 ,50.492647588162 ,6.42111952807655
33.1372283 ,Left ,50.2950054757788 ,50.6973353063303 ,6.40670890514313
33.1598014 ,Left ,50.2418411204499 ,50.8867312031156 ,6.38603221970094
33.1747115 ,Left ,50.2516701158828 ,50.9680627261543 ,6.3620583042269
33.1973222 ,Left ,50.3097918873038 ,50.9503641174881 ,6.3689270046304
33.2198263 ,Left ,50.3557189034593 ,50.9191255761026 ,6.39167634087968
33.2348443 ,Left ,50.375831194713 ,50.879243827642 ,6.40729371684403
33.2574312 ,Left ,50.3660374329763 ,50.8394893184642 ,6.4186807274449
33.2874451 ,Left ,50.3185086451954 ,50.7817530343558 ,6.41824145011911
33.3032316 ,Left ,50.2916763769921 ,50.6999989187918 ,6.4101531236772
33.3249945 ,Left ,50.2820697572138 ,50.6246174732535 ,6.40353184157996
33.3549271 ,Left ,50.2107304174919 ,50.5520516243399 ,6.35001288314464
33.3772499 ,Left ,50.1954815144278 ,50.5096732789944 ,6.30730532202976
33.3998054 ,Left ,50.1787545533681 ,50.4575807553986 ,6.287272949343
33.4147755 ,Left ,50.1696548170428 ,50.4316562359992 ,6.29067982262506
33.4373654 ,Left ,50.1011195672116 ,50.4176569542999 ,6.26543958138373
33.4606685 ,Left ,50.0538354442992 ,50.4191507442436 ,6.263098258802
33.4749128 ,Left ,50.1275462573811 ,50.4203010112786 ,6.27565676252343
33.4972563 ,Left ,50.1921993562437 ,50.4470583707337 ,6.26649800501731
33.5198253 ,Left ,50.2087632476827 ,50.5012300619783 ,6.25617597556242
33.5349369 ,Left ,50.2164442546588 ,50.5195187589528 ,6.25980984118519
33.5573775 ,Left ,50.2288972428572 ,50.5110162912555 ,6.276273304453
33.5797975 ,Left ,50.2691050473833 ,50.4930228355513 ,6.28842313458859
33.5948735 ,Left ,50.3004406090572 ,50.4807569067436 ,6.295148474396
33.6173194 ,Left ,50.3185369105434 ,50.4831981585328 ,6.28082307055973
33.6397738 ,Left ,50.3218731896382 ,50.5003899834643 ,6.27565509515073
33.6549556 ,Left ,50.3467817724307 ,50.5151709915868 ,6.28416710260658
33.6774653 ,Left ,50.4172802753017 ,50.5209177977144 ,6.28326289360673
33.6997258 ,Left ,50.4944975793092 ,50.5214324722469 ,6.27530981796776
33.7148946 ,Left ,50.546248736135 ,50.5329717428803 ,6.27067782529706
33.7373491 ,Left ,50.5715973328513 ,50.5518699696336 ,6.25947353549892
33.7598975 ,Left ,50.5788843231558 ,50.5803734491154 ,6.24291386317746
33.7748303 ,Left ,50.588853269232 ,50.6122924842671 ,6.22818323866342
33.7973159 ,Left ,50.6290277143075 ,50.6362355364833 ,6.21727402067756
33.8198552 ,Left ,50.6939037049251 ,50.6553924371601 ,6.20311491047956
33.8348935 ,Left ,50.7435063769455 ,50.6874337847189 ,6.19185153978806
33.8572913 ,Left ,50.7616586906241 ,50.7317569170199 ,6.17401324719876
33.8796688 ,Left ,50.768403932927 ,50.7783566285415 ,6.15672241173157
33.8948989 ,Left ,50.7840253438822 ,50.8091560374958 ,6.14682666688599
33.917582 ,Left ,50.8099001991624 ,50.819997981835 ,6.1456434055407
33.9397245 ,Left ,50.8356584310304 ,50.8309239010303 ,6.14093262482521
33.9548758 ,Left ,50.8510615960839 ,50.8597237637771 ,6.1363583535959
33.9772644 ,Left ,50.8618850595393 ,50.8854542559474 ,6.1316668040568
33.9998259 ,Left ,50.8591069649192 ,50.9018772179976 ,6.13011878973919
34.0149634 ,Left ,50.8553257918511 ,50.912492634905 ,6.13198961744569
34.0373036 ,Left ,50.858611667976 ,50.9175144803255 ,6.14316009897653
34.067266 ,Left ,50.8625323444084 ,50.9144702429017 ,6.1584196812141
34.0822355 ,Left ,50.8565450292428 ,50.9112753143308 ,6.17635415258028
34.1056788 ,Left ,50.8506800148495 ,50.9179220044732 ,6.19797510860654
34.1198723 ,Left ,50.8415154602104 ,50.9172435501484 ,6.22293738776909
34.1423698 ,Left ,50.8288410910795 ,50.9093675679109 ,6.24595131912744
34.1572959 ,Left ,50.8192457317059 ,50.8991396944464 ,6.25730282454808
34.1798752 ,Left ,50.8039001804135 ,50.8922895291312 ,6.25515937409033
34.2022498 ,Left ,50.7811558893063 ,50.8890289385752 ,6.2465347783796
34.2173076 ,Left ,50.7593486566422 ,50.8916815652277 ,6.22984293761302
34.2398262 ,Left ,50.735925955797 ,50.8988350517321 ,6.19794635029926
34.2622804 ,Left ,50.715032984028 ,50.9117119290382 ,6.1480376297915
34.2773936 ,Left ,50.6893336158096 ,50.9315197136721 ,6.09165367000729
34.2997727 ,Left ,50.6582494237874 ,50.9563054165871 ,6.02625959916592
34.3223337 ,Left ,50.6207292777763 ,50.9803149116958 ,5.95240920290123
34.3373213 ,Left ,50.5845899461021 ,50.9921156048674 ,5.87197063253954
34.3597755 ,Left ,50.5591592933347 ,50.9900591233541 ,5.77628256197373
34.3823481 ,Left ,50.5255046763621 ,50.9874800202393 ,5.67209406560558
34.4048165 ,Left ,50.4902205727148 ,50.9869116420628 ,5.56696417760873
34.4274266 ,Left ,50.4513772317658 ,50.9867282025524 ,5.46880760901072
34.4572913 ,Left ,50.3478668756656 ,50.9779787413655 ,5.30513168110244
34.479793 ,Left ,50.2778679732198 ,50.9623694473668 ,5.23227407472275
34.5024382 ,Left ,50.2057563944882 ,50.9290882351699 ,5.18029361612655
34.5174326 ,Left ,50.1234058843531 ,50.8756254447729 ,5.15552212563796
34.5398278 ,Left ,50.0158452574233 ,50.7967130562736 ,5.14959167564765
34.5623189 ,Left ,50.0127225471153 ,50.7500172174109 ,5.17352322028481
34.5774145 ,Left ,50.0814511589875 ,50.7486003991031 ,5.17511786341173
34.5998654 ,Left ,50.163883582234 ,50.7745184999636 ,5.15140659344376
34.6223121 ,Left ,50.2630130069486 ,50.7662287279131 ,5.15360299088191
34.6374513 ,Left ,50.3526141170902 ,50.6941942129417 ,5.19434507883875
34.6598877 ,Left ,50.4439816885263 ,50.5957831982719 ,5.25437391173177
34.6823435 ,Left ,50.4993821859466 ,50.497248925509 ,5.30505519504321
34.697499 ,Left ,50.5365134403494 ,50.3977614129912 ,5.34871042702845
34.7207235 ,Left ,50.6022361038796 ,50.3048702555824 ,5.40314428712783
34.7423183 ,Left ,50.6545999908783 ,50.2492511364204 ,5.47130715341968
34.7649302 ,Left ,50.6285217210359 ,50.2306234726851 ,5.54988450844778
34.7798412 ,Left ,50.5556813171513 ,50.2504628142177 ,5.60442560945366
34.802628 ,Left ,50.4737004947551 ,50.2645592764985 ,5.63972927912695
34.8251223 ,Left ,50.4383241900693 ,50.2311640157023 ,5.65997759732896
34.8399598 ,Left ,50.4427539291322 ,50.166876551007 ,5.68455522924123
34.8698866 ,Left ,50.4233453338829 ,50.1032791112051 ,5.68200267178692
34.8849857 ,Left ,50.3992381789372 ,50.068123991157 ,5.68341703670112
34.9073927 ,Left ,50.4091639879049 ,50.0681832815355 ,5.69336590848844
34.9224187 ,Left ,50.4268717956908 ,50.1004353939032 ,5.70011374939182
34.9448466 ,Left ,50.4241345541187 ,50.1717771332284 ,5.71911153628369
34.9601162 ,Left ,50.4022609037643 ,50.2347011517619 ,5.74505082705807
34.9822602 ,Left ,50.408052177817 ,50.2431756914996 ,5.77504909852912
34.9974343 ,Left ,50.4658983542819 ,50.2124187804012 ,5.80472403537832
35.0200328 ,Left ,50.5545865199886 ,50.1779462571876 ,5.82598665358127
35.0425541 ,Left ,50.6528589037507 ,50.153769156137 ,5.82927792534455
35.0649134 ,Left ,50.7370399403555 ,50.1286276139975 ,5.81495475685672
35.0799123 ,Left ,50.7736250940286 ,50.1020615098203 ,5.81700180554288
35.1023611 ,Left ,50.7893441901142 ,50.1004572129969 ,5.84497297416989
35.1249703 ,Left ,50.7784407688406 ,50.1254336874312 ,5.87727083044301
35.1399289 ,Left ,50.78166941588 ,50.1520491972254 ,5.89672807446662
35.1624075 ,Left ,50.8633806617972 ,50.1535265308265 ,5.93546765044587
35.1848182 ,Left ,50.9877105343016 ,50.1379843526068 ,6.00142368343956
35.1998502 ,Left ,51.0670179647693 ,50.1244796845843 ,6.07281679277095
35.2233529 ,Left ,51.0847924653182 ,50.1301897156255 ,6.15516515692907
35.2448331 ,Left ,51.0889887817021 ,50.1460678949028 ,6.24848447940369
35.2600055 ,Left ,51.1047302863302 ,50.1592544425982 ,6.35253347933169
35.2822704 ,Left ,51.1370122901687 ,50.1749207481649 ,6.45641170943315
35.3048638 ,Left ,51.1839831827303 ,50.1928415863039 ,6.57290152583661
35.3206394 ,Left ,51.2329990336208 ,50.199426578273 ,6.70681256536673
35.342481 ,Left ,51.262809060954 ,50.1893088433412 ,6.85628858739587
35.3648483 ,Left ,51.2632509304486 ,50.1814087670428 ,7.0075875959393
35.3799224 ,Left ,51.2754811539531 ,50.172635700295 ,7.16307858861243
35.40227 ,Left ,51.3188401457274 ,50.160432828207 ,7.31897244946721
35.4248322 ,Left ,51.3696471267923 ,50.1540119000685 ,7.47460134387016
35.4400113 ,Left ,51.4109432180791 ,50.1572142971279 ,7.63504868789011
35.4624344 ,Left ,51.4432345167498 ,50.1803820379429 ,7.79412649841714
35.484805 ,Left ,51.4569232101563 ,50.2087926523571 ,7.93604167344705
35.4999351 ,Left ,51.4732359892405 ,50.2306830059311 ,8.07265450237348
35.5241127 ,Left ,51.5059144828362 ,50.229453799225 ,8.22320535848308
35.5495927 ,Left ,51.5354920548385 ,50.2088066459624 ,8.36954614272749
35.5600055 ,Left ,51.5512886843802 ,50.1765649555264 ,8.49304132357212
35.589996 ,Left ,51.557023267365 ,50.1544006224722 ,8.58685475297555
35.6125238 ,Left ,51.5617629764234 ,50.1374618710197 ,8.66026450088759
35.6274934 ,Left ,51.5941225711225 ,50.1055747444493 ,8.71474164070954
35.6422592 ,Left ,51.6221663370968 ,50.0735209611285 ,8.753490296255
35.6651462 ,Left ,51.6198253760493 ,50.0573355287944 ,8.76692688518738
35.6875039 ,Left ,51.5947457103413 ,50.0543586864329 ,8.76589115212948
35.7098592 ,Left ,51.5837800641969 ,50.0520054597459 ,8.75345392564905
35.7401056 ,Left ,51.5910778876434 ,50.0294959982673 ,8.7174887408754
35.7632613 ,Left ,51.5877921947226 ,50.0336106023271 ,8.69407679233901
35.7847252 ,Left ,51.5637511067048 ,50.035701759763 ,8.6648713748582
35.7999728 ,Left ,51.5349523588422 ,50.0211024442191 ,8.63174910464754
35.8221557 ,Left ,51.5075356301743 ,50.0037647859713 ,8.6047623982826
35.8449813 ,Left ,51.4742670105781 ,49.9937988760114 ,8.58309134675497
35.8600901 ,Left ,51.4333530031715 ,49.9997041437239 ,8.56862345366305
35.8823793 ,Left ,51.3837554996245 ,50.0180210305875 ,8.55484082632386
35.9049166 ,Left ,51.3543973930151 ,50.036478932917 ,8.54832722621781
35.9204589 ,Left ,51.3580176177795 ,50.0495789516038 ,8.54880299151532
35.9423547 ,Left ,51.3705094357207 ,50.0579685112247 ,8.55521144145957
35.9651165 ,Left ,51.3608193200134 ,50.0663319991992 ,8.56367458059879
35.979918 ,Left ,51.3230483646491 ,50.0824695649009 ,8.57150433578763
36.0026419 ,Left ,51.2690555971642 ,50.0911887393083 ,8.57456876601013
36.0247745 ,Left ,51.223413267088 ,50.0798141758421 ,8.56862532834407
36.0472211 ,Left ,51.1899331651552 ,50.0618504813868 ,8.54022713829454
36.0624368 ,Left ,51.146166187743 ,50.0509167741063 ,8.50580779975977
36.0848644 ,Left ,51.0759100630489 ,50.0530605873957 ,8.47399570206634
36.1073346 ,Left ,50.9934770927835 ,50.0623582433986 ,8.44393685760441
36.1234327 ,Left ,50.9200536193052 ,50.0755023305464 ,8.39945120220536
36.1449591 ,Left ,50.8676257666281 ,50.0769379910725 ,8.34794330499049
36.1674762 ,Left ,50.7930209165363 ,50.077818929851 ,8.30758458325104
36.1822806 ,Left ,50.7081781180139 ,50.0853127891451 ,8.26427508539892
36.2048059 ,Left ,50.5906111354301 ,50.0833322437018 ,8.20961612480065
36.2273324 ,Left ,50.5385143435023 ,50.0314812627429 ,8.16622845905935
36.2424989 ,Left ,50.4943110781423 ,49.9551618844677 ,8.13674685173563
36.2648026 ,Left ,50.3668614443067 ,49.9285986724391 ,8.10578363432606
36.2873129 ,Left ,50.1949545579406 ,49.9855893665003 ,8.07398907566126
36.3024228 ,Left ,50.0476440381396 ,50.0679558436487 ,8.04414600588117
36.3248518 ,Left ,49.950132836329 ,50.1572345752409 ,8.0053738501634
36.3551038 ,Left ,49.9504460155027 ,50.2372887260392 ,7.97774935896303
36.3723946 ,Left ,49.9890425348605 ,50.2954872745993 ,7.93784007726955
36.3924634 ,Left ,50.0178542721116 ,50.3161160014989 ,7.88838026226214
36.4072855 ,Left ,50.042145327489 ,50.3099564935076 ,7.86794059342868
36.4224696 ,Left ,50.1019752518069 ,50.2928595745837 ,7.87013933401916
36.4448989 ,Left ,50.1855926655376 ,50.2758538393111 ,7.84503100268833
36.4673013 ,Left ,50.2952836692994 ,50.2607685982806 ,7.77810574727184
36.4898404 ,Left ,50.3844514576016 ,50.2695738866826 ,7.67888608119719
36.5049267 ,Left ,50.4310357136342 ,50.3011986006348 ,7.58425598296278
36.5283297 ,Left ,50.4321014670384 ,50.336047973923 ,7.48301398013635
36.5428167 ,Left ,50.4177985632086 ,50.3666438894755 ,7.36875026791244
36.5647146 ,Left ,50.4209989286684 ,50.3711810178353 ,7.24399681856117
36.5873072 ,Left ,50.422603303717 ,50.3499866943507 ,7.14007268049162
36.6098511 ,Left ,50.3886603155934 ,50.31857452819 ,7.07029041736228
36.6248476 ,Left ,50.3145311479177 ,50.2659373636442 ,7.02570770384136
36.6471414 ,Left ,50.2340904658048 ,50.1926067813428 ,6.98969347447984
36.6700331 ,Left ,50.1848546758993 ,50.0881864915547 ,6.97931025038963
36.684832 ,Left ,50.0950238305958 ,49.9708732594507 ,6.97598032105574
36.707205 ,Left ,50.1328793686192 ,49.9086243760583 ,6.99176809591621
36.7303941 ,Left ,50.2443592471708 ,49.8996949277455 ,6.98765458358042
36.7448032 ,Left ,50.3015539158362 ,49.9869308588049 ,6.93908131017904
