timestamp,event,roll,pitch,yaw
0.0445193 ,Left ,63,0560567695578 ,46,052794419503 ,10,7030747855211
0.0671421 ,Left ,63,0817291003354 ,46,0906087117575 ,10,7340169729479
0.1046506 ,Left ,63,1333005771304 ,46,1412169050617 ,10,7810043855289
0.128047 ,Left ,63,1492773006165 ,46,1534837501587 ,10,8078332802675
0.1652131 ,Left ,63,1310548145016 ,46,16968960577 ,10,868902930693
0.1879482 ,Left ,63,1206053264754 ,46,1856229840934 ,10,8961957806576
0.2252375 ,Left ,63,0917200853654 ,46,2214271453595 ,10,9292858825448
0.2473654 ,Left ,63,0664345747716 ,46,2351328781853 ,10,9406436129397
0.2848331 ,Left ,63,012231837522 ,46,245900943875 ,10,9401837606886
0.3073607 ,Left ,62,9816918738005 ,46,2461100992495 ,10,938353305201
0.34461 ,Left ,62,9216777317038 ,46,2598731459205 ,10,9361963372942
0.3673351 ,Left ,62,9035723612633 ,46,2614859076732 ,10,9392978337404
0.4047997 ,Left ,62,8775272146468 ,46,2561671937537 ,10,9483706469435
0.4274905 ,Left ,62,8676940000546 ,46,2540486126223 ,10,952044432321
0.4648007 ,Left ,62,8641178606857 ,46,2580067219239 ,10,9517236021636
0.4873422 ,Left ,62,8644924834225 ,46,2663093280499 ,10,947465998549
0.5247501 ,Left ,62,844989919958 ,46,2794187426844 ,10,9465723492407
0.5473274 ,Left ,62,8427087562223 ,46,2859563967085 ,10,9536173847314
0.5846918 ,Left ,62,8454887843008 ,46,3010144890598 ,10,9566627557789
0.6074277 ,Left ,62,8446753778299 ,46,3067453758047 ,10,9498480201286
0.6449192 ,Left ,62,8272117598287 ,46,3190936632958 ,10,933449377295
0.6749807 ,Left ,62,8197159951422 ,46,3327606150938 ,10,9195123708125
0.7123119 ,Left ,62,8126023418952 ,46,3496882859572 ,10,8987398026857
0.727437 ,Left ,62,8035972052832 ,46,3583147891643 ,10,8925745382902
0.7424751 ,Left ,62,7759045715417 ,46,3734465301728 ,10,8886784505589
0.7575161 ,Left ,62,7463421109042 ,46,3967409660922 ,10,8826944692817
0.7797948 ,Left ,62,7174575504766 ,46,4225345905444 ,10,8807759506173
0.8096645 ,Left ,62,6770571053987 ,46,4527694980626 ,10,8829223253927
0.8247961 ,Left ,62,6302150466352 ,46,4725886887969 ,10,875455332101
0.847086 ,Left ,62,574783803861 ,46,4927808501085 ,10,8691421122248
0.8621862 ,Left ,62,5282053454295 ,46,5125784037037 ,10,8662693403004
0.8774306 ,Left ,62,4898411962611 ,46,5286802137853 ,10,8640733689753
0.8998716 ,Left ,62,4583828037815 ,46,5376337237869 ,10,8565572755297
0.9224591 ,Left ,62,42303584886 ,46,5422454604921 ,10,8529595514252
0.9375408 ,Left ,62,4059619340391 ,46,5476969261772 ,10,8410505325564
0.9596391 ,Left ,62,4277214455207 ,46,5446494553516 ,10,8332328504924
0.9823682 ,Left ,62,4429056517943 ,46,5755426114266 ,10,8053493113861
0.9972038 ,Left ,62,466478932757 ,46,6064343150209 ,10,7442726947047
1.0195685 ,Left ,62,5325801795063 ,46,5860307813473 ,10,6728741285883
1.0419792 ,Left ,62,5878567612156 ,46,5504488529232 ,10,6105673832035
1.0571066 ,Left ,62,5943740750772 ,46,4993435053606 ,10,5376326401432
1.080413 ,Left ,62,6086528367094 ,46,41070351434 ,10,4677517870606
1.1030028 ,Left ,62,6462421645562 ,46,3262876781876 ,10,4120947743789
1.1179297 ,Left ,62,6740984192502 ,46,24673780532 ,10,4001119861634
1.14015 ,Left ,62,6959240406566 ,46,1855098263347 ,10,4234892130231
1.1628787 ,Left ,62,7223907682986 ,46,1471829198819 ,10,4705373127477
1.1778788 ,Left ,62,7461654407052 ,46,1236377426807 ,10,5316156840974
1.1998827 ,Left ,62,7638855978635 ,46,1087362937346 ,10,5923371769318
1.2297267 ,Left ,62,7690229029465 ,46,0897599299561 ,10,6631901762046
1.2446607 ,Left ,62,7652532569559 ,46,0717395524078 ,10,7146580613999
1.2673928 ,Left ,62,7533709564503 ,46,0628927905477 ,10,7304110456309
1.2823449 ,Left ,62,761715386832 ,46,0481738880746 ,10,7027817136188
1.2972322 ,Left ,62,7729862773086 ,46,0327680261433 ,10,667714862646
1.3200726 ,Left ,62,7416446151923 ,46,0449330011067 ,10,6541214531727
1.3426293 ,Left ,62,6994714666443 ,46,0723041426018 ,10,6496402172971
1.3577814 ,Left ,62,6705683280195 ,46,0837581085569 ,10,6398140818814
1.3802008 ,Left ,62,6560267167975 ,46,0819632711817 ,10,6321875975888
1.4028191 ,Left ,62,6090077976788 ,46,1007058148314 ,10,631508689848
1.4177561 ,Left ,62,6306556033599 ,46,1125860525486 ,10,6155784169017
1.4401463 ,Left ,62,6608582775729 ,46,0747508863758 ,10,6289731804133
1.4627238 ,Left ,62,6626325936163 ,46,039618670319 ,10,6656686085783
1.4777403 ,Left ,62,6004809882056 ,46,0842827343208 ,10,6801882372576
1.5001203 ,Left ,62,5805007730561 ,46,1678405181383 ,10,6880697257243
1.5218972 ,Left ,62,6224856468925 ,46,2382960201076 ,10,6913205059452
1.5370244 ,Left ,62,6272717681153 ,46,2975864708473 ,10,7075855054802
1.5597956 ,Left ,62,5998812417791 ,46,3416651015317 ,10,7169857181729
1.5827046 ,Left ,62,6149135296047 ,46,3681004755467 ,10,7084242217609
1.6053822 ,Left ,62,615479854743 ,46,3773282666289 ,10,7173091152293
1.6202365 ,Left ,62,6496228913821 ,46,3670737496684 ,10,7345859886533
1.6423742 ,Left ,62,6717296869811 ,46,3650011383905 ,10,7348725670579
1.6645949 ,Left ,62,6305616292856 ,46,4447188750026 ,10,7455350617834
1.6795999 ,Left ,62,5969886075396 ,46,5612989042938 ,10,7656891733479
1.7096096 ,Left ,62,6586627356348 ,46,6564118892266 ,10,7713178701906
1.7323855 ,Left ,62,6958403801292 ,46,7104098505587 ,10,7719677435769
1.7472545 ,Left ,62,6952162559479 ,46,7383416916161 ,10,7590887514996
1.8000774 ,Left ,62,742861831454 ,46,7607348445187 ,10,6540742254715
1.8149481 ,Left ,62,7813175137696 ,46,7640434942971 ,10,5802651984478
1.8451016 ,Left ,62,7794307279924 ,46,6688644559356 ,10,4598273956172
1.8601387 ,Left ,62,7576601547813 ,46,59355732842 ,10,4200194437244
1.8823961 ,Left ,62,7716158284202 ,46,5065847142829 ,10,3962189049211
1.9126108 ,Left ,62,8010357102453 ,46,446391599363 ,10,3880932980096
1.9276075 ,Left ,62,8440416133628 ,46,4053582794845 ,10,3832630285036
1.9500333 ,Left ,62,8685863515902 ,46,3715066751952 ,10,4035468578902
1.98024 ,Left ,62,8339355044256 ,46,375707312301 ,10,4853894168926
2.002395 ,Left ,62,8146726528144 ,46,4046955409117 ,10,5345811709012
2.0248787 ,Left ,62,799520165749 ,46,4355044338006 ,10,5779929255437
2.040347 ,Left ,62,820128045139 ,46,4758459883739 ,10,6070052510888
2.0623333 ,Left ,62,7292104326058 ,46,5386800611243 ,10,6530559253778
2.0845381 ,Left ,62,6924715391837 ,46,5672104703201 ,10,666016245484
2.0998679 ,Left ,62,6931448671872 ,46,5911818915277 ,10,6607363639822
2.1227537 ,Left ,62,6502644871709 ,46,6939433500672 ,10,6265927044638
2.1452774 ,Left ,62,6872007168747 ,46,8135648412895 ,10,5743881393975
2.160037 ,Left ,62,7498374736477 ,46,8771184903781 ,10,5277193499387
2.1971667 ,Left ,62,799022745576 ,46,9079869277471 ,10,5011344534127
2.2201703 ,Left ,62,7840777270497 ,46,9275840502895 ,10,4949846647641
2.2651386 ,Left ,62,7893639999656 ,46,9198116727881 ,10,5127087968305
2.280465 ,Left ,62,7960655437212 ,46,906449901912 ,10,5357944490239
2.2954721 ,Left ,62,7610221505433 ,46,8773461439693 ,10,5718533420704
2.3250592 ,Left ,62,7147815200275 ,46,8137561366613 ,10,6836130592979
2.340245 ,Left ,62,7610296506935 ,46,8744030396843 ,10,7304569199464
2.3625462 ,Left ,62,8430036657994 ,46,920038722539 ,10,7110386901669
2.3848864 ,Left ,62,9387836379577 ,46,898786331885 ,10,6185771018817
2.406922 ,Left ,62,9218858122466 ,46,8125079289742 ,10,4818228170623
2.4228295 ,Left ,62,861859793281 ,46,7006420300283 ,10,355816429583
2.4452471 ,Left ,62,817447374976 ,46,5785774966094 ,10,2533398604007
2.4748375 ,Left ,62,7782566901102 ,46,4568432777859 ,10,1939850969764
2.4896537 ,Left ,62,7585927994878 ,46,3672539208431 ,10,1647974215564
2.5129868 ,Left ,62,7549235151938 ,46,309587121063 ,10,1501186547137
2.5276155 ,Left ,62,7044446167912 ,46,2506436693548 ,10,1763260064448
2.543037 ,Left ,62,738147257242 ,46,2213622403087 ,10,2173630725291
2.5647563 ,Left ,62,80204774949 ,46,2571984137187 ,10,2644943884739
2.5876072 ,Left ,62,8489163917689 ,46,3213825627591 ,10,3075287892331
2.6026921 ,Left ,62,8780065064573 ,46,3692794748477 ,10,352090362122
2.6244528 ,Left ,62,8868172444197 ,46,4024683180832 ,10,3977236494967
2.6471875 ,Left ,62,8522492901878 ,46,4211106615716 ,10,4240971457729
2.662296 ,Left ,62,8266316514917 ,46,4320466528197 ,10,4455525258877
2.6848679 ,Left ,62,7996204746161 ,46,4321449242223 ,10,4686396391268
2.70715 ,Left ,62,7724450672886 ,46,4199672155371 ,10,4978477278291
2.7223432 ,Left ,62,7489033572694 ,46,4013462232517 ,10,5256642750474
2.7445895 ,Left ,62,7242885559899 ,46,3709986958253 ,10,5404086103244
2.7670961 ,Left ,62,6991420745181 ,46,3313843973189 ,10,5413750882004
2.7822308 ,Left ,62,6906058507304 ,46,3027199638459 ,10,5437207028944
2.8046307 ,Left ,62,6754750696776 ,46,3051256626128 ,10,546360987881
2.834613 ,Left ,62,6819550322308 ,46,3030956352825 ,10,5499520975368
2.8502965 ,Left ,62,7103688113466 ,46,284170416344 ,10,5532602132879
2.8954883 ,Left ,62,7338998348885 ,46,2326469494373 ,10,5591688396749
2.9103856 ,Left ,62,7380210396257 ,46,2096618133534 ,10,558321757248
2.9330182 ,Left ,62,7423385262285 ,46,1999714326074 ,10,5558243848663
2.9624353 ,Left ,62,7268511770558 ,46,2165395669733 ,10,5668365855539
2.9849252 ,Left ,62,7148919850014 ,46,2350772568585 ,10,5843255491279
3.0074391 ,Left ,62,6972566778126 ,46,2507972016465 ,10,6037560331517
3.0221678 ,Left ,62,6731802441288 ,46,2685793030241 ,10,6195742117691
3.0446489 ,Left ,62,6565713464747 ,46,2884074257723 ,10,6291282795143
3.06707 ,Left ,62,6451882007348 ,46,3102170333623 ,10,6395691923901
3.0820736 ,Left ,62,622724224358 ,46,3388924168546 ,10,6535008340403
3.1053862 ,Left ,62,5852957991888 ,46,3725413687236 ,10,6756354408057
3.1273492 ,Left ,62,5479161465213 ,46,4120501604425 ,10,6988372039174
3.1501401 ,Left ,62,5072302115759 ,46,453930523818 ,10,7240888199939
3.1649516 ,Left ,62,4581024374453 ,46,4978720398175 ,10,7525848629822
3.1874477 ,Left ,62,4001742717246 ,46,5415105363349 ,10,7898170571973
3.2026233 ,Left ,62,3627596823671 ,46,5789204971992 ,10,829079238036
3.2245646 ,Left ,62,3276281778725 ,46,6205888141831 ,10,8599903801858
3.2472697 ,Left ,62,3197642213782 ,46,6140970680799 ,10,8868947736571
3.2623438 ,Left ,62,3400976802209 ,46,580511678404 ,10,9304559268541
3.284698 ,Left ,62,3269132606031 ,46,590593814886 ,10,9744587904842
3.3149339 ,Left ,62,3161066480851 ,46,6442617422269 ,10,9628692441501
3.3300154 ,Left ,62,3779235927136 ,46,6735331799515 ,10,8949734683937
3.3527316 ,Left ,62,4775971986835 ,46,6648096039032 ,10,7918549904299
3.3674909 ,Left ,62,5345664257246 ,46,6009235447342 ,10,6676594760899
3.3902304 ,Left ,62,5821956684813 ,46,5044102904797 ,10,5420058983645
3.4048923 ,Left ,62,6104193645375 ,46,4015006310048 ,10,4516927837618
3.4272755 ,Left ,62,6210704327167 ,46,3181185824693 ,10,4226450910783
3.4496011 ,Left ,62,6580962122498 ,46,2652464279481 ,10,435269063923
3.464639 ,Left ,62,6846462808833 ,46,2201893022817 ,10,4679261368515
3.4871857 ,Left ,62,7479699075316 ,46,1923293360892 ,10,5047816497252
3.5095625 ,Left ,62,8192566097457 ,46,1695433314769 ,10,5185100593662
3.5246427 ,Left ,62,856875103118 ,46,1907346534357 ,10,4887117209928
3.5472555 ,Left ,62,8611266583507 ,46,2165117484623 ,10,4634275871055
3.5698639 ,Left ,62,8942057772868 ,46,2193827274926 ,10,4527240194459
3.5848365 ,Left ,62,9171577640896 ,46,2282216912635 ,10,4381449142555
3.607171 ,Left ,62,9032120292033 ,46,228193633713 ,10,4457154624512
3.6300163 ,Left ,62,8940823154377 ,46,2434376170401 ,10,4590572373709
3.6448343 ,Left ,62,883300222347 ,46,2645593987225 ,10,4987725415569
3.667445 ,Left ,62,9088080049948 ,46,2448095445577 ,10,5386365340766
3.6901405 ,Left ,62,9216505520966 ,46,287038468235 ,10,5415854307212
3.7054581 ,Left ,62,9378749366563 ,46,3732800086291 ,10,5331819263368
3.7276714 ,Left ,62,9688231795636 ,46,4587747937491 ,10,5573860725787
3.7502727 ,Left ,62,9913258616553 ,46,5858226468272 ,10,6187423062614
3.7649235 ,Left ,63,0478507012764 ,46,6839067597163 ,10,6574469883745
3.787245 ,Left ,63,0483580046683 ,46,7293004740006 ,10,6970380398141
3.8099495 ,Left ,62,9826377499045 ,46,7521404331615 ,10,7507783085322
3.8245615 ,Left ,62,969441704587 ,46,7382202140742 ,10,806950030058
3.8472053 ,Left ,63,0120015753486 ,46,7156004662134 ,10,8340269190766
3.8696997 ,Left ,62,9619015102534 ,46,7551205786905 ,10,8301567227881
3.8848101 ,Left ,62,8852924088416 ,46,8426898621532 ,10,806063532199
3.9071583 ,Left ,62,8729452825217 ,46,9161296081039 ,10,7819612312276
3.9299281 ,Left ,62,9173723706714 ,46,9900351066202 ,10,7525892621767
3.9448038 ,Left ,62,9164609869555 ,47,0360375316597 ,10,7203920950371
3.9671282 ,Left ,62,9083724196394 ,47,0824156735501 ,10,6838362946823
3.9898836 ,Left ,62,9059817133653 ,47,1151558392873 ,10,6572971378751
4.0048245 ,Left ,62,931424449179 ,47,1132341764354 ,10,6406631132104
4.0270139 ,Left ,62,9116454812798 ,47,0603528469506 ,10,6611920551782
4.049876 ,Left ,62,8430209158268 ,47,0237284495456 ,10,6971060517176
4.0646599 ,Left ,62,768848187669 ,47,0338376392456 ,10,7430299983311
4.0870293 ,Left ,62,8007093753065 ,47,050513329909 ,10,7723869970407
4.1097458 ,Left ,62,8624226498631 ,47,043961786079 ,10,7628960943652
4.1322625 ,Left ,62,9111162770945 ,47,0183892318966 ,10,6859201813594
4.1548177 ,Left ,62,8874864999747 ,46,9697797806861 ,10,568894385124
4.177456 ,Left ,62,8286968574209 ,46,9028457892256 ,10,4439415968255
4.1924487 ,Left ,62,8407283437509 ,46,8021330965434 ,10,3196629005575
4.2072581 ,Left ,62,840675832122 ,46,6790389286825 ,10,2175256327337
4.2296176 ,Left ,62,8061364729706 ,46,566836095128 ,10,1577321874896
4.2523853 ,Left ,62,7659289114913 ,46,4983314659757 ,10,1418304351693
4.2671605 ,Left ,62,7784302182527 ,46,4606027976492 ,10,1612521367017
4.2895444 ,Left ,62,8318846682702 ,46,4533556670932 ,10,2014875912226
4.3125073 ,Left ,62,9073125725006 ,46,4625759089939 ,10,2688810209093
4.327351 ,Left ,62,9428507164929 ,46,5067424142301 ,10,331054304391
4.3500565 ,Left ,62,9620957936277 ,46,5453811903712 ,10,3661581902957
4.3650924 ,Left ,62,9914995144343 ,46,5490293118482 ,10,3865878144048
4.3871524 ,Left ,62,9692477235636 ,46,5410380290903 ,10,4029514031997
4.4095691 ,Left ,62,9477191174829 ,46,534795687931 ,10,4296664769055
4.4321524 ,Left ,62,9100154476679 ,46,5102807303595 ,10,4708843156215
4.4471643 ,Left ,62,8816642780133 ,46,4872438977999 ,10,5162504308857
4.4695488 ,Left ,62,860355931933 ,46,4555960984171 ,10,5540061019432
4.4923661 ,Left ,62,8302765658096 ,46,4142220877576 ,10,5781987489318
4.5074563 ,Left ,62,8037792310024 ,46,3622689695522 ,10,5931479271297
4.5295711 ,Left ,62,7877895309743 ,46,3092413369152 ,10,6073548807385
4.5522814 ,Left ,62,7871741163563 ,46,2678660961688 ,10,6158819678289
4.5673149 ,Left ,62,7916098329154 ,46,2350732316291 ,10,6252499143498
4.589689 ,Left ,62,7886262466076 ,46,2167018413861 ,10,6290159531119
4.612479 ,Left ,62,7905431345744 ,46,2101456358391 ,10,6283239863165
4.6275029 ,Left ,62,8109012469896 ,46,2079851852323 ,10,6194454884824
4.6498135 ,Left ,62,8085306408687 ,46,2094774351689 ,10,6190736766071
4.6724645 ,Left ,62,7989354047493 ,46,2230568267515 ,10,626837322316
4.6800145 ,Left ,62,7816107713376 ,46,2470357410523 ,10,6420625707411
4.7026525 ,Left ,62,7618026337737 ,46,2841982064805 ,10,6642577249927
4.739832 ,Left ,62,7062168415891 ,46,3608938348379 ,10,7092472489093
4.7626028 ,Left ,62,6663540534024 ,46,4068975070273 ,10,7348538321786
4.8000603 ,Left ,62,5520414770464 ,46,5207534790756 ,10,8271187187786
4.8225246 ,Left ,62,4959826189538 ,46,5739972037665 ,10,890976247974
4.8599829 ,Left ,62,375713966334 ,46,675347423419 ,11,0095110394033
4.8823478 ,Left ,62,3256710996911 ,46,7276659495318 ,11,0250131518801
4.9200539 ,Left ,62,3655012526951 ,46,7350983083316 ,11,1088105821442
4.9425186 ,Left ,62,3418707535235 ,46,7978522208764 ,11,1276147376443
4.980134 ,Left ,62,4772053530483 ,46,8516462051711 ,10,9397294941885
5.0025712 ,Left ,62,5802642327322 ,46,792335651465 ,10,7787642812761
5.0250589 ,Left ,62,637063171075 ,46,690439451409 ,10,6061723675183
5.0400442 ,Left ,62,6565691150163 ,46,5798583394762 ,10,4528704691408
5.0625991 ,Left ,62,68823061574 ,46,4763970816794 ,10,3476395089016
5.0846979 ,Left ,62,7568812511458 ,46,4126788864343 ,10,2995882481123
5.0996762 ,Left ,62,8072988721974 ,46,3501046108933 ,10,3179624000081
5.122491 ,Left ,62,8626062691151 ,46,2921633837812 ,10,3695658387969
5.160393 ,Left ,62,974373547977 ,46,2349267375067 ,10,3817077898644
5.1830554 ,Left ,63,0211430969034 ,46,2312703779435 ,10,3600142806871
5.2200673 ,Left ,63,0102844780086 ,46,279539175082 ,10,3848271776553
5.2502272 ,Left ,63,0327975794956 ,46,345662259728 ,10,3995738808145
5.2876911 ,Left ,63,0768048185913 ,46,4030685376585 ,10,5308537719341
5.3025763 ,Left ,63,0289159546765 ,46,4680957074736 ,10,5640734741874
5.3401585 ,Left ,63,0085829749676 ,46,6842432128717 ,10,5880149958039
5.3702365 ,Left ,63,0998471770516 ,46,7777133136064 ,10,6075434870301
5.407762 ,Left ,63,0811249733538 ,46,8448473722941 ,10,6893121341315
5.4225557 ,Left ,63,0152020401938 ,46,8527204920436 ,10,7752011521937
5.4599468 ,Left ,63,0560525960987 ,46,8080755178846 ,10,9378722450802
5.4823326 ,Left ,63,0168242316952 ,46,8474260749994 ,10,9535083309019
5.5196746 ,Left ,62,912271172836 ,47,0573524468923 ,10,9208989804724
5.5423609 ,Left ,62,9894429258934 ,47,1474151239395 ,10,886579880984
5.5800134 ,Left ,63,0191486332619 ,47,1785901698774 ,10,8369706463714
5.6021755 ,Left ,63,0265677522643 ,47,1281081134153 ,10,8096064340543
5.6403974 ,Left ,62,9402535047711 ,47,0603690115729 ,10,7639265339257
5.6700985 ,Left ,62,9498152622442 ,47,0699434786551 ,10,7149785419414
5.7074982 ,Left ,63,0286347301617 ,47,0084645533187 ,10,6382117026263
5.722474 ,Left ,63,0097555375691 ,46,9522306081203 ,10,6173359405635
5.7597409 ,Left ,62,9392596869851 ,46,8732330461665 ,10,6064171760369
5.782532 ,Left ,62,937568276383 ,46,8632145547449 ,10,5859114783623
5.8197491 ,Left ,62,8964802012766 ,46,7874626110256 ,10,5971899233711
5.8424728 ,Left ,62,8278468614134 ,46,7581110219825 ,10,6418329342632
5.8800013 ,Left ,62,7238416419025 ,46,8750328245013 ,10,7612599999182
5.9026782 ,Left ,62,8081995462336 ,46,9449447378155 ,10,8079301435876
5.9549936 ,Left ,62,9948215041191 ,46,9291857988 ,10,7127055802168
5.97737 ,Left ,62,9456581318394 ,46,8265274668996 ,10,5677868285865
6.0225426 ,Left ,62,7763870105697 ,46,4007873592127 ,10,2271808518833
6.0599593 ,Left ,62,7324575244363 ,46,2965272362214 ,10,226583713848
6.0823898 ,Left ,62,7498280594056 ,46,2571214721172 ,10,2892648251134
6.1196082 ,Left ,62,8357118343423 ,46,3534699427351 ,10,3827650634234
6.1423572 ,Left ,62,9091911119578 ,46,4230563012915 ,10,4166175981931
6.1799443 ,Left ,62,8948210349264 ,46,4373053164168 ,10,4592429913515
6.2024229 ,Left ,62,8329344366538 ,46,4170899058678 ,10,4921694497155
6.2400341 ,Left ,62,7505281802968 ,46,3928867309067 ,10,5816134331288
6.2623877 ,Left ,62,7281502537564 ,46,3761198273223 ,10,613360160744
6.2998603 ,Left ,62,6924520189826 ,46,3005959124374 ,10,6398089528687
6.3223316 ,Left ,62,6869089888021 ,46,2655403791919 ,10,6432481113343
6.3673836 ,Left ,62,6795827441783 ,46,2404434013864 ,10,6614250839565
6.3901363 ,Left ,62,6896160790259 ,46,2411931266786 ,10,6749928820122
6.4198714 ,Left ,62,7242298311649 ,46,2341690125101 ,10,6851693482532
6.4425168 ,Left ,62,7306905247329 ,46,2328981081203 ,10,6873908662818
6.4799239 ,Left ,62,7528674650797 ,46,2607286083001 ,10,6949919592362
6.5024992 ,Left ,62,7566339002344 ,46,2851158839384 ,10,7102837699781
6.5323298 ,Left ,62,7175253418663 ,46,3753378846773 ,10,7695045703561
6.5553018 ,Left ,62,692846465442 ,46,4329990768855 ,10,8006403158592
6.5779073 ,Left ,62,6668773264137 ,46,491516684409 ,10,840592812841
6.5931764 ,Left ,62,6382312070841 ,46,5482265806556 ,10,877116692999
6.614877 ,Left ,62,6130892004265 ,46,5951105737052 ,10,903027960083
6.6449554 ,Left ,62,566088556352 ,46,6466092784977 ,10,9291542425695
6.659968 ,Left ,62,501102289371 ,46,6949371804172 ,10,9623174461839
6.6824213 ,Left ,62,4398356187889 ,46,7335932658949 ,10,9945166300942
6.6973204 ,Left ,62,4147785320574 ,46,7531118296723 ,11,0025409038964
6.7122315 ,Left ,62,3946706112533 ,46,7531836364816 ,11,021243868695
6.7349332 ,Left ,62,387180178151 ,46,7599573935384 ,11,0523678417521
6.7574577 ,Left ,62,4054033911217 ,46,8108049815496 ,11,0861240640426
6.772366 ,Left ,62,4317062488846 ,46,8610385583495 ,11,0590895631967
6.7949907 ,Left ,62,4990033783734 ,46,8919817167255 ,10,9792060926923
6.8173991 ,Left ,62,5833679469299 ,46,8957073074745 ,10,8608447017863
6.8325362 ,Left ,62,6497339166116 ,46,8421023967208 ,10,755073421587
6.8549034 ,Left ,62,6852697842029 ,46,761813649201 ,10,6864672567374
6.8775723 ,Left ,62,7105036492028 ,46,7085155139755 ,10,6558600560422
6.8920768 ,Left ,62,7386765612009 ,46,6539015813974 ,10,6399999566081
6.9145749 ,Left ,62,8259447042424 ,46,5295776554299 ,10,6826922501175
6.9374181 ,Left ,62,8718095113668 ,46,4446349702136 ,10,7133387233751
6.9596818 ,Left ,62,8343575274038 ,46,4260619310562 ,10,7179285652067
6.9747146 ,Left ,62,8712886840056 ,46,4421429521572 ,10,7140318314853
6.9972657 ,Left ,62,960864492596 ,46,4320848424654 ,10,6893370150751
7.0196013 ,Left ,63,0092739215911 ,46,390065006624 ,10,667236090884
7.0346103 ,Left ,62,9462506270125 ,46,3559468953026 ,10,6644483059112
7.0574117 ,Left ,62,8625024066311 ,46,3571268345732 ,10,6848427611952
7.0724834 ,Left ,62,84342414438 ,46,3908884017602 ,10,7001520451831
7.0949394 ,Left ,62,8418949013221 ,46,4214836155437 ,10,7118044769071
7.1172869 ,Left ,62,8562922164894 ,46,4140779273206 ,10,7250796924785
7.1324954 ,Left ,62,8534546405314 ,46,3793026461636 ,10,7551829256889
7.1548675 ,Left ,62,8194382769328 ,46,3619224796035 ,10,7885380795303
7.1775243 ,Left ,62,799377322377 ,46,3684382910487 ,10,8108711311302
7.19242 ,Left ,62,8102819687405 ,46,3681257965501 ,10,8024047399976
7.2148385 ,Left ,62,8099727577328 ,46,3622004265287 ,10,7818030372053
7.2373714 ,Left ,62,8136188735831 ,46,3920381691236 ,10,7571951618489
7.259556 ,Left ,62,8088691636089 ,46,4454515176221 ,10,741363961727
7.2746945 ,Left ,62,841659369848 ,46,4796610120947 ,10,7734582371289
7.2972529 ,Left ,62,8630064300598 ,46,5190069531531 ,10,8341462331176
7.3125867 ,Left ,62,8259734164389 ,46,5956595409579 ,10,8536623226559
7.3350169 ,Left ,62,8079121851258 ,46,6780568884156 ,10,8389949295192
7.3574505 ,Left ,62,8478420915403 ,46,7278729621626 ,10,827288643449
7.3800381 ,Left ,62,8956470859267 ,46,7294659352502 ,10,8120022055063
7.3950378 ,Left ,62,910509647994 ,46,6774206523175 ,10,7864661546959
7.4172446 ,Left ,62,8838266466205 ,46,6099209356555 ,10,7629214389365
7.4399615 ,Left ,62,864810854879 ,46,5759318712857 ,10,7756679862403
7.4626336 ,Left ,62,8413880184902 ,46,5533996752562 ,10,8259692530012
7.4850238 ,Left ,62,842066839681 ,46,5404229514108 ,10,8879938208444
7.5075523 ,Left ,62,8346717333722 ,46,5295401256142 ,10,9518728176428
7.5224838 ,Left ,62,7998102666248 ,46,5164440575579 ,10,9920119864228
7.5375432 ,Left ,62,7755609097175 ,46,4997861541549 ,11,0145102077992
7.560074 ,Left ,62,753823332771 ,46,4880891181778 ,11,02536237346
7.5748484 ,Left ,62,7488383244643 ,46,4721763801504 ,11,0307939324856
7.5973827 ,Left ,62,7526882294019 ,46,447587020759 ,11,0376286411645
7.6199792 ,Left ,62,7177683829645 ,46,4353933973122 ,11,0556231518841
7.6350457 ,Left ,62,6845340971824 ,46,4670450510409 ,11,0801778163426
7.6575876 ,Left ,62,6978639464576 ,46,5158512427761 ,11,1215183771251
7.6800432 ,Left ,62,685863346282 ,46,5725464424958 ,11,1642100508545
7.6950205 ,Left ,62,6592706917355 ,46,5914720448111 ,11,2002286044732
7.7175683 ,Left ,62,6486113041867 ,46,6141808964519 ,11,2089408310213
7.7399046 ,Left ,62,6656718532581 ,46,7046319457596 ,11,1743837609361
7.7545932 ,Left ,62,759622285176 ,46,8079501565379 ,11,1036442243638
7.7773207 ,Left ,62,8315055672376 ,46,8232636916463 ,11,0263171139673
7.8073453 ,Left ,62,8304060882571 ,46,8296643285438 ,10,9694310712599
7.8224196 ,Left ,62,7903611178547 ,46,8455925329874 ,10,8958768517019
7.8449973 ,Left ,62,7756801211666 ,46,8435325293764 ,10,7951286465202
7.8749844 ,Left ,62,8408461195126 ,46,7900321848013 ,10,6038866552129
7.897394 ,Left ,62,8531130922012 ,46,7534499144359 ,10,5667899278315
7.9200832 ,Left ,62,8350218337435 ,46,7078726282713 ,10,5803685466359
7.9424218 ,Left ,62,7654676302769 ,46,6513647557828 ,10,6421298434285
7.9573011 ,Left ,62,710034742758 ,46,6084164120325 ,10,7206074299363
7.9801089 ,Left ,62,7253858057073 ,46,6474671978815 ,10,7486337211767
7.9949742 ,Left ,62,7860729845073 ,46,7531423445472 ,10,7565455456292
8.0250608 ,Left ,62,8333446280466 ,46,8116928807377 ,10,7434699026391
8.0475382 ,Left ,62,9100082219739 ,46,8057679172964 ,10,6670529425832
8.0776902 ,Left ,62,8505082624325 ,46,6058415075534 ,10,3691191663414
8.1070876 ,Left ,62,7894493741706 ,46,4793044106541 ,10,2812208002647
8.1297058 ,Left ,62,7456926752901 ,46,3864505190918 ,10,249945164521
8.1447934 ,Left ,62,7283800676552 ,46,3128333604619 ,10,2274986399612
8.1601865 ,Left ,62,740803041728 ,46,2284099205216 ,10,2330731762021
8.1828414 ,Left ,62,765269798382 ,46,1526086885979 ,10,2680026351954
8.1978051 ,Left ,62,788661491308 ,46,151511700042 ,10,3187454686169
8.2199588 ,Left ,62,8363570446469 ,46,2039992994282 ,10,3477234687031
8.234912 ,Left ,62,9022984344004 ,46,2558254012218 ,10,3674474085089
8.2575259 ,Left ,62,942656550142 ,46,2743322259875 ,10,3846259104877
8.2799242 ,Left ,62,8978600426546 ,46,2434554233755 ,10,4219449959173
8.3098924 ,Left ,62,8332513310211 ,46,2296337025626 ,10,4575233562355
8.3245702 ,Left ,62,7937759624043 ,46,2158682590904 ,10,4964034640097
8.3620675 ,Left ,62,7328186560235 ,46,2068236009023 ,10,5538848721272
8.3774265 ,Left ,62,7151568468613 ,46,1777141625 ,10,5702078118693
8.3998573 ,Left ,62,6973959100536 ,46,1536917358305 ,10,5940381348081
8.4229436 ,Left ,62,6743756410789 ,46,1293064282297 ,10,6143038188397
8.4379757 ,Left ,62,669354953884 ,46,1034432140155 ,10,6266505506575
8.4605192 ,Left ,62,6520881415863 ,46,0983473476341 ,10,6330766250642
8.4828562 ,Left ,62,64334713867 ,46,101208910595 ,10,6402200609449
8.497706 ,Left ,62,6555838833788 ,46,1028941791044 ,10,6501512188462
8.5201984 ,Left ,62,6739368056417 ,46,0933212411011 ,10,6595052136708
8.5424801 ,Left ,62,6755031703127 ,46,0819598477375 ,10,6732406460041
8.5574198 ,Left ,62,6692616843652 ,46,0826935609442 ,10,6966656271914
8.5800205 ,Left ,62,6639570576288 ,46,0934610880474 ,10,7212798322333
8.6023487 ,Left ,62,6518908598853 ,46,1195721226715 ,10,7422179304389
8.617506 ,Left ,62,6404119539015 ,46,1481863013481 ,10,762401796228
8.6474547 ,Left ,62,6276222568861 ,46,1866700807592 ,10,7811280208434
8.669826 ,Left ,62,6056912608974 ,46,2305928770901 ,10,8101145934421
8.6848447 ,Left ,62,5770334544494 ,46,2833721763107 ,10,8513945530037
8.6997652 ,Left ,62,5330188503214 ,46,3421009606414 ,10,8969075293685
8.7221488 ,Left ,62,4870608710813 ,46,4016064895488 ,10,9430201344877
8.7371887 ,Left ,62,4415960013341 ,46,4612660999068 ,10,9936059617662
8.7599176 ,Left ,62,3785345716238 ,46,5167275864979 ,11,0406447068859
8.7826088 ,Left ,62,3257177994733 ,46,5601620841561 ,11,0694025965705
8.797279 ,Left ,62,2892029821211 ,46,6081180756946 ,11,078973794384
8.8201145 ,Left ,62,258539278647 ,46,6368981534603 ,11,1071435057289
8.84988 ,Left ,62,2694206514097 ,46,6380626483657 ,11,1399812950379
8.8647194 ,Left ,62,2725090678041 ,46,6850050749425 ,11,1712997931637
8.887277 ,Left ,62,261324426875 ,46,7634720246891 ,11,1642498259851
8.9174185 ,Left ,62,4231900063291 ,46,7931621572324 ,11,0099816011796
8.9400566 ,Left ,62,5063933055507 ,46,7510122076766 ,10,8808969477851
8.9628575 ,Left ,62,5501973009158 ,46,680326882559 ,10,7285246371169
8.9852426 ,Left ,62,5913466426996 ,46,6016713370408 ,10,5971255571477
9.0001207 ,Left ,62,6299989747583 ,46,5517524117195 ,10,5182514206776
9.0224193 ,Left ,62,6663765171425 ,46,5494073003192 ,10,4781621592136
9.0448939 ,Left ,62,7174191210751 ,46,5376934732643 ,10,4652724333514
9.0599892 ,Left ,62,766145150824 ,46,4966134326767 ,10,509522655358
9.0821943 ,Left ,62,8107115250693 ,46,4262435297038 ,10,573576716427
9.0973579 ,Left ,62,8361956363753 ,46,4112703279139 ,10,5798142479239
9.127444 ,Left ,62,8760693343398 ,46,4317269049349 ,10,5541851946831
9.1500225 ,Left ,62,9406239917139 ,46,4454083496801 ,10,5287410553603
9.1646981 ,Left ,62,9355085111092 ,46,4657964720572 ,10,5318652990864
9.1871712 ,Left ,62,8972839719118 ,46,5189701466471 ,10,549329381913
9.2021351 ,Left ,62,9150081389782 ,46,55234699477 ,10,5677491758348
9.2249702 ,Left ,62,9721726680098 ,46,5194838568636 ,10,6439709300201
9.2399773 ,Left ,62,9730113482336 ,46,4848631294642 ,10,7040372634599
9.2624111 ,Left ,62,9563505114777 ,46,5269632742747 ,10,6982815027155
9.2849884 ,Left ,62,9779843399113 ,46,5702635469678 ,10,6825992662088
9.300062 ,Left ,63,0275527241085 ,46,6167077130008 ,10,7088074119382
9.3225384 ,Left ,63,0483069321678 ,46,7135311924912 ,10,7452406535207
9.344935 ,Left ,63,0802589068468 ,46,7612466429647 ,10,7743319696006
9.3599521 ,Left ,63,044838136428 ,46,7783108251119 ,10,8194499357146
9.3824648 ,Left ,62,9936269273195 ,46,7731037496973 ,10,8894372163902
9.4052639 ,Left ,62,9971529112011 ,46,7433855646318 ,10,9656205529976
9.4205488 ,Left ,62,9885623364779 ,46,7066525116937 ,11,0129517144037
9.4429596 ,Left ,62,9401466279657 ,46,7176730757284 ,11,0310159986799
9.4652664 ,Left ,62,8530631270954 ,46,8209350023938 ,11,0124099194732
9.4882274 ,Left ,62,8334687848428 ,46,9640656139685 ,10,983668692105
9.5099258 ,Left ,62,9220535994552 ,47,0734486854467 ,10,9549239408916
9.5399851 ,Left ,62,9114688076035 ,47,1633601864255 ,10,9083585569659
9.5625105 ,Left ,62,8676582599468 ,47,1973187494282 ,10,8762388827087
9.5845711 ,Left ,62,8514483283985 ,47,1767981956728 ,10,8665587166111
9.5999648 ,Left ,62,8311383041914 ,47,1034970564866 ,10,8842265726973
9.6220847 ,Left ,62,7210836563931 ,47,0389963334185 ,10,9156375922326
9.6448327 ,Left ,62,6521390111844 ,47,0119088192363 ,10,9425647372718
9.6598683 ,Left ,62,6787820399573 ,47,0323650995554 ,10,9670706234838
9.6829142 ,Left ,62,7798806236618 ,47,0337529293904 ,10,9353226859547
9.7054101 ,Left ,62,8584977578949 ,46,9994921387728 ,10,8201460446189
9.7204088 ,Left ,62,8091898966983 ,46,9188342278406 ,10,6732946176822
9.7428895 ,Left ,62,7627540201569 ,46,8433881142439 ,10,5376849652304
9.7653074 ,Left ,62,7699616302743 ,46,7257128079825 ,10,4253148040781
9.7802754 ,Left ,62,7815265858043 ,46,590337879931 ,10,3537944791017
9.8028245 ,Left ,62,7710619610803 ,46,4511843489628 ,10,3245682636737
9.8250572 ,Left ,62,7216354484364 ,46,3808838372894 ,10,3352951728224
9.8474319 ,Left ,62,671496468285 ,46,3396903653697 ,10,3613129995791
9.8626648 ,Left ,62,7434138284127 ,46,3334050490973 ,10,3976714601397
9.8847947 ,Left ,62,8563332453566 ,46,3388965576372 ,10,4705398862591
9.9071776 ,Left ,62,9184412807206 ,46,3720293799704 ,10,5190106302494
9.9223402 ,Left ,62,9558067233031 ,46,4033221054428 ,10,535107823432
9.9447415 ,Left ,62,9251939515043 ,46,3883787561622 ,10,5688396940612
9.9747029 ,Left ,62,8924505465269 ,46,3899026629998 ,10,6027484776758
9.98962 ,Left ,62,8606218795645 ,46,3866028912152 ,10,6469935357647
10.019756 ,Left ,62,7919396595933 ,46,384809941651 ,10,7134525935542
10.0422566 ,Left ,62,7692489781289 ,46,368766731335 ,10,7292866475278
10.0647701 ,Left ,62,749527011408 ,46,3479192114813 ,10,7435555871182
10.0869914 ,Left ,62,7446182182523 ,46,3154975870605 ,10,7608064959299
10.1099394 ,Left ,62,7466114877126 ,46,2842336754538 ,10,7747359762193
10.1322177 ,Left ,62,7207565364173 ,46,2729773652577 ,10,7825203175847
10.1473058 ,Left ,62,6922619298165 ,46,2772704262813 ,10,7884688166891
10.169836 ,Left ,62,6935845212744 ,46,2740767135978 ,10,79463689145
10.1848576 ,Left ,62,700241109408 ,46,2645612275586 ,10,7995842326162
10.2074629 ,Left ,62,6848334720561 ,46,2513423054817 ,10,8031064414881
10.2225418 ,Left ,62,6698659455441 ,46,2464459660315 ,10,8071721069431
10.2524306 ,Left ,62,6675411975483 ,46,2471411097338 ,10,8081331485409
10.2746871 ,Left ,62,6766816337972 ,46,2609463739043 ,10,8133812569496
10.2895632 ,Left ,62,6730868131457 ,46,279069877571 ,10,8260542761747
10.3047089 ,Left ,62,6550276084925 ,46,2923193798228 ,10,836324870743
10.3271113 ,Left ,62,6397633653829 ,46,3089585431345 ,10,8422772902415
10.3423674 ,Left ,62,6227196092647 ,46,3271430251243 ,10,8462469332591
10.3648401 ,Left ,62,5992189116816 ,46,3607718428004 ,10,8560474987485
10.3948278 ,Left ,62,5718463394689 ,46,4025902362045 ,10,8755985378492
10.4099364 ,Left ,62,5263197463155 ,46,4427912283077 ,10,9046976049697
10.4324735 ,Left ,62,4780578870003 ,46,4828297514535 ,10,9326034319981
10.447092 ,Left ,62,4380361108986 ,46,5266253714673 ,10,9595891501995
10.454697 ,Left ,62,4016714914675 ,46,5731506871084 ,10,9866325145947
10.4774343 ,Left ,62,3540245843858 ,46,612556355977 ,11,0151998702137
10.5148049 ,Left ,62,2968457329118 ,46,6676696503123 ,11,0274508690314
10.537744 ,Left ,62,2829709565429 ,46,6640276545922 ,11,0428223695613
10.5752556 ,Left ,62,2791873893612 ,46,6732280743668 ,11,1012422800141
10.5975307 ,Left ,62,292102232765 ,46,7140076877392 ,11,0867154425368
10.6348574 ,Left ,62,4450497870346 ,46,6978754534841 ,10,960669482039
10.6573659 ,Left ,62,5086251240075 ,46,6452981888061 ,10,8630254168922
10.6799189 ,Left ,62,546941139227 ,46,5782327951691 ,10,7624135138012
10.6949525 ,Left ,62,5774485795707 ,46,5108868334648 ,10,663837732106
10.7175124 ,Left ,62,6007158827964 ,46,4310454442088 ,10,5905933836354
10.7399841 ,Left ,62,6324891899104 ,46,3580350001402 ,10,5535477043921
10.7548565 ,Left ,62,629353835493 ,46,3256716804024 ,10,5653546542446
10.7773406 ,Left ,62,6702995432546 ,46,2822877296022 ,10,6009468460717
10.7998527 ,Left ,62,7618191847772 ,46,2268827228378 ,10,6501856295963
10.8148587 ,Left ,62,7996889500048 ,46,1843765289391 ,10,6573028105424
10.8373808 ,Left ,62,7680803844683 ,46,1963252089826 ,10,6192784922379
10.8599597 ,Left ,62,7706575985329 ,46,2384322612403 ,10,5828669275276
10.8749986 ,Left ,62,7836673392903 ,46,2689088385875 ,10,5684902684392
10.8972379 ,Left ,62,7836101309028 ,46,3144447257372 ,10,5654768742463
10.9350178 ,Left ,62,7899002400884 ,46,3913192016835 ,10,6045473788946
10.9574108 ,Left ,62,8107960881767 ,46,3757244751176 ,10,6836747617243
10.9946625 ,Left ,62,7660717629587 ,46,4801803537875 ,10,7267353982988
11.0171862 ,Left ,62,8091385470452 ,46,5660868533774 ,10,7341513609843
11.0548042 ,Left ,62,8804032670442 ,46,7021726858246 ,10,7631226149363
11.0773281 ,Left ,62,8983133190974 ,46,7329029906673 ,10,7868626592539
11.1149375 ,Left ,62,8609692947078 ,46,7411620238118 ,10,9078277598187
11.1374856 ,Left ,62,8502970381987 ,46,7218832988605 ,10,9980313708948
11.175161 ,Left ,62,8100772620848 ,46,7571757717169 ,11,0295407935081
11.2049453 ,Left ,62,7747981544066 ,46,8790616858007 ,11,0021110980773
11.227401 ,Left ,62,7945374243628 ,47,0148611068775 ,10,9793153939668
11.2427624 ,Left ,62,8478549310273 ,47,1102707056536 ,10,9673093513465
11.2575351 ,Left ,62,8803241275387 ,47,1561128761193 ,10,9611839567019
11.2798373 ,Left ,62,8280976858472 ,47,1635550158731 ,10,9600553896843
11.2948194 ,Left ,62,7805293531322 ,47,1292511558439 ,10,9643535426521
11.3174565 ,Left ,62,7356080876093 ,47,0687261934975 ,10,965677433737
11.3625676 ,Left ,62,6442824883819 ,47,065584596104 ,11,0179632630242
11.384993 ,Left ,62,6988616665307 ,47,0996074723614 ,11,0520985449682
11.4148605 ,Left ,62,8877566155577 ,47,0734906587674 ,10,9550914441907
11.4373897 ,Left ,62,8452979190994 ,47,0160468206166 ,10,8250309763153
11.4749386 ,Left ,62,7572342468794 ,46,8756847293842 ,10,598357485751
11.504822 ,Left ,62,7553280681302 ,46,7553056003769 ,10,5138397938499
11.5649262 ,Left ,62,6780170160245 ,46,4628438491171 ,10,503106485031
11.5950768 ,Left ,62,8090070125734 ,46,4709807687061 ,10,5983191653746
11.6175868 ,Left ,62,8621263276124 ,46,510766074908 ,10,6447224399696
11.6550554 ,Left ,62,8882777964593 ,46,5463029522202 ,10,6956125056556
11.6776028 ,Left ,62,8504171170806 ,46,5318970571584 ,10,7104130694649
11.7147508 ,Left ,62,7895791347734 ,46,4908703143437 ,10,7701712451514
11.7372431 ,Left ,62,7653716270662 ,46,4667123338291 ,10,8151182488153
11.77543 ,Left ,62,7325795729856 ,46,3960959111232 ,10,8914632489475
11.7976979 ,Left ,62,7331593442062 ,46,3464755941678 ,10,8876920568736
11.8353449 ,Left ,62,7164151852601 ,46,3090662510306 ,10,8673626717453
11.8577508 ,Left ,62,7299269205691 ,46,3014709600424 ,10,8676910409963
11.9028111 ,Left ,62,7547376717653 ,46,2622609997117 ,10,8837948178686
11.9250436 ,Left ,62,7462716182029 ,46,2486196683259 ,10,8866269085293
11.9776135 ,Left ,62,7485603313418 ,46,2487218637499 ,10,8843472042477
12.0149441 ,Left ,62,7126296599098 ,46,2636442428335 ,10,9073755878146
12.0374039 ,Left ,62,7095738052796 ,46,281774448763 ,10,9136089786647
12.0750349 ,Left ,62,6771029409614 ,46,3515135700504 ,10,9349788404888
12.0973933 ,Left ,62,6477535148674 ,46,4022848321224 ,10,9464287380704
12.1350967 ,Left ,62,5625697062642 ,46,510275020404 ,11,0039879150825
12.1575909 ,Left ,62,5112157377559 ,46,5734763556373 ,11,0368835012741
12.1950562 ,Left ,62,4061453219275 ,46,6842167911725 ,11,1065394551137
12.2175842 ,Left ,62,3683925646939 ,46,7308702822568 ,11,1400682940424
12.2547085 ,Left ,62,3451222071956 ,46,7342286672724 ,11,2095071336329
12.2774005 ,Left ,62,3480780862897 ,46,7249857575274 ,11,2431886548791
12.3224789 ,Left ,62,3634634074966 ,46,8408870539394 ,11,2374357977633
12.3375652 ,Left ,62,4575874748081 ,46,8522525870518 ,11,1706280353738
12.3599495 ,Left ,62,5648879552744 ,46,8188609252072 ,11,0745414027235
12.3748199 ,Left ,62,6242388917056 ,46,7587523956194 ,10,9633189640753
12.3900427 ,Left ,62,6656724589072 ,46,6764314393303 ,10,83862256037
12.4126287 ,Left ,62,7048075299072 ,46,5767758067044 ,10,7269973479671
12.4276485 ,Left ,62,7265380078909 ,46,493059369413 ,10,6537932447885
12.4501085 ,Left ,62,7374107728414 ,46,4220858602199 ,10,601070093872
12.472603 ,Left ,62,7588391522196 ,46,3594467176641 ,10,5797405010593
12.487528 ,Left ,62,7631486959263 ,46,3350021618413 ,10,5961938572201
12.5100702 ,Left ,62,8245902078865 ,46,2925038934225 ,10,6270269690277
12.5323742 ,Left ,62,8963179415519 ,46,2446416072291 ,10,6649337421685
12.5471658 ,Left ,62,9132214743001 ,46,2216835928846 ,10,7056168964002
12.5699138 ,Left ,62,8656904592811 ,46,2762185500744 ,10,699381211365
12.5922833 ,Left ,62,8747675697591 ,46,3469821727699 ,10,6728391766779
12.6147636 ,Left ,62,9391858451425 ,46,396045411376 ,10,6464108807881
12.6374307 ,Left ,62,9363725357437 ,46,4530011211329 ,10,6547400865106
12.6673434 ,Left ,62,9342172722929 ,46,5413825431595 ,10,6613846174172
12.6897279 ,Left ,62,9397096528025 ,46,5244009061501 ,10,7086809237269
12.7122724 ,Left ,62,90301608459 ,46,4952594148221 ,10,7649622540522
12.7274558 ,Left ,62,8639424227795 ,46,545278947059 ,10,7712360516988
12.7500331 ,Left ,62,860727162596 ,46,6243673360996 ,10,7556084236928
12.772553 ,Left ,62,920739127565 ,46,6943907631785 ,10,7456319556181
12.7876059 ,Left ,62,9739929560036 ,46,7327018055754 ,10,7474722898539
12.8097206 ,Left ,62,9671912487243 ,46,7537603892497 ,10,7609932064092
12.8325001 ,Left ,62,928804699323 ,46,7724104392225 ,10,7863365555372
12.8475239 ,Left ,62,9025737249321 ,46,7686424599481 ,10,8364748164657
12.8695473 ,Left ,62,9165154173078 ,46,7668907301571 ,10,9014874300305
12.8924346 ,Left ,62,9100120812097 ,46,760026409127 ,10,9458920150434
12.9073534 ,Left ,62,8612394330472 ,46,7511071453951 ,10,9497111989839
12.9298325 ,Left ,62,7941509004246 ,46,813866969187 ,10,932273413087
12.9521496 ,Left ,62,802001765664 ,46,9170177851023 ,10,899461605471
12.9673245 ,Left ,62,8652687306624 ,46,9982647832177 ,10,871320472176
12.9898257 ,Left ,62,8972512850164 ,47,0532898195934 ,10,8450955875982
13.0122181 ,Left ,62,8772330378946 ,47,0654183759052 ,10,8255802653853
13.0347694 ,Left ,62,8513522164865 ,47,0739088228813 ,10,8044226482882
13.0499215 ,Left ,62,8538571398255 ,47,061689674983 ,10,7948057405799
13.0721335 ,Left ,62,8462371461055 ,47,0522448161816 ,10,7926749364001
13.1024463 ,Left ,62,8237438243369 ,47,0115132820384 ,10,794945099532
13.1177919 ,Left ,62,7592934471661 ,46,9267547098727 ,10,8170827824723
13.1551025 ,Left ,62,7243957440968 ,46,8908386938302 ,10,8873324276753
13.1696115 ,Left ,62,7851118592581 ,46,9087408066098 ,10,8827726294399
13.1921512 ,Left ,62,8327595474027 ,46,8762725515266 ,10,8210152603756
13.2147705 ,Left ,62,806164805444 ,46,8058082131605 ,10,6917658836389
13.2298226 ,Left ,62,7480183447876 ,46,7403915203814 ,10,5581170620306
13.2523442 ,Left ,62,7003654235768 ,46,6958105430322 ,10,4473749519754
13.2750303 ,Left ,62,6978333012458 ,46,6428209762357 ,10,3810768246037
13.2901475 ,Left ,62,6937514810267 ,46,5546336109775 ,10,3546402569188
13.3123121 ,Left ,62,6780101367759 ,46,4552365788669 ,10,3639176039999
13.3347583 ,Left ,62,6206095022817 ,46,361407002553 ,10,4395893052385
13.3501065 ,Left ,62,6350525200039 ,46,3433074440384 ,10,4968122666109
13.3721312 ,Left ,62,7164778415581 ,46,3716249962336 ,10,5645002818024
13.3947991 ,Left ,62,7806692418558 ,46,4273022172881 ,10,6209835496604
13.417209 ,Left ,62,8068159884772 ,46,4935952608153 ,10,6569832005825
13.4323438 ,Left ,62,7765066914219 ,46,5020218348159 ,10,6882906086612
13.4548069 ,Left ,62,7388144200946 ,46,5115546464655 ,10,6994692639482
13.4696915 ,Left ,62,72710408413 ,46,5160412355894 ,10,7245808699779
13.4924162 ,Left ,62,7076963451825 ,46,5078380426074 ,10,7592898301576
13.5149655 ,Left ,62,6878366392426 ,46,4839029000687 ,10,7900743963385
13.5300991 ,Left ,62,6708900848043 ,46,4551675197775 ,10,8193345572989
13.5521497 ,Left ,62,6574249847932 ,46,4233121072077 ,10,8476842128533
13.574717 ,Left ,62,6552788107669 ,46,3994182266614 ,10,8681243766595
13.5897749 ,Left ,62,6603733684492 ,46,3782519877815 ,10,8762254372587
13.6125619 ,Left ,62,6606778200094 ,46,3575871892134 ,10,877863295318
13.6347198 ,Left ,62,6498490014644 ,46,3454495174056 ,10,8803619216657
13.6496382 ,Left ,62,651595895317 ,46,3430613265723 ,10,878789955695
13.6721801 ,Left ,62,6652465146321 ,46,327254845529 ,10,8818993351804
13.69492 ,Left ,62,6783512467275 ,46,3113842440779 ,10,8865837239082
13.7172484 ,Left ,62,6780504462974 ,46,3015170212775 ,10,8935218206373
13.7400701 ,Left ,62,6828935194583 ,46,3018383523494 ,10,9034834571733
13.7627114 ,Left ,62,6846511406634 ,46,3127829209157 ,10,9113794370344
13.7773042 ,Left ,62,6852229025701 ,46,3144739653384 ,10,911995528169
13.7924588 ,Left ,62,6857538601552 ,46,3169609907348 ,10,9113028707947
13.8149285 ,Left ,62,6748737126729 ,46,3173301260142 ,10,9197480881624
13.8301064 ,Left ,62,6640555594923 ,46,3185418014377 ,10,9317143979535
13.8526125 ,Left ,62,6536362868069 ,46,3280327109054 ,10,9393487841862
13.8750441 ,Left ,62,640114973711 ,46,343908546587 ,10,9410652382427
13.8900484 ,Left ,62,6340016692393 ,46,3617522776437 ,10,936575906569
13.9203185 ,Left ,62,6209452487403 ,46,3850963152913 ,10,9352146647716
13.9430064 ,Left ,62,5950614650821 ,46,4177358602724 ,10,9339675744858
13.9653813 ,Left ,62,5618083417697 ,46,4649027234274 ,10,9429192837152
13.9801412 ,Left ,62,5219658616952 ,46,5168546518023 ,10,9608951921568
13.994789 ,Left ,62,4888936741658 ,46,5758176546235 ,10,9878240007355
14.0176204 ,Left ,62,4611465773272 ,46,6328328290094 ,11,0284226031455
14.0325203 ,Left ,62,4226211462978 ,46,6813509513529 ,11,0827286334418
14.0550658 ,Left ,62,3860328117577 ,46,7167252164268 ,11,136645978322
14.077386 ,Left ,62,3735565602682 ,46,7143079036532 ,11,1730944663344
14.0926413 ,Left ,62,3901265560405 ,46,6967168566261 ,11,218443993057
14.122679 ,Left ,62,3732445044774 ,46,716337540507 ,11,2546778858175
14.1450319 ,Left ,62,3633365906488 ,46,7633919943914 ,11,2818699271258
14.1600435 ,Left ,62,3621038097042 ,46,8335631538439 ,11,3006390009201
14.1977138 ,Left ,62,5072201689374 ,46,8666723260221 ,11,2324983761972
14.212948 ,Left ,62,5869569154481 ,46,8286258996259 ,11,1324825078504
14.2354736 ,Left ,62,6192447007516 ,46,7631423380733 ,11,017094050773
14.25774 ,Left ,62,6583276153929 ,46,6881621269329 ,10,9030115171174
14.2727338 ,Left ,62,7138583418478 ,46,6218746250391 ,10,8249013582639
14.2949742 ,Left ,62,7478068422197 ,46,5863669507193 ,10,7999098282003
14.3178203 ,Left ,62,7770837438301 ,46,5573024729012 ,10,7952835177093
14.3325323 ,Left ,62,8337749605426 ,46,5009179762606 ,10,8215665082869
14.3551075 ,Left ,62,8807544741791 ,46,462125854823 ,10,8605755225345
14.3778145 ,Left ,62,875179177674 ,46,4667998591521 ,10,8499253190878
14.4000301 ,Left ,62,8888317028709 ,46,492215544917 ,10,8266710935093
14.4226331 ,Left ,62,9213043832381 ,46,511188364503 ,10,8060110808698
14.4450801 ,Left ,62,9212801428152 ,46,5310540555347 ,10,8154680062958
14.4598854 ,Left ,62,9059401955445 ,46,5749167811112 ,10,8294665804042
14.4825318 ,Left ,62,9007800616998 ,46,6018901039808 ,10,843578313469
14.504793 ,Left ,62,9282807033437 ,46,6123804458523 ,10,869481229822
14.5197263 ,Left ,62,9447488529699 ,46,6305457434334 ,10,8975257291744
14.5346832 ,Left ,62,9060170444218 ,46,690564641059 ,10,8869872388534
14.5571173 ,Left ,62,904778708248 ,46,7490199416655 ,10,8625512480731
14.572277 ,Left ,62,9445863684043 ,46,8120128027007 ,10,8459136360547
14.5949014 ,Left ,63,011061982781 ,46,8589378401349 ,10,8380851609725
14.617175 ,Left ,63,0155274452467 ,46,8657875832493 ,10,8335108810018
14.6324529 ,Left ,62,9572426965106 ,46,8677796614296 ,10,8501502894418
14.6548852 ,Left ,62,9530261621375 ,46,8205860802123 ,10,9174215862463
14.6848897 ,Left ,62,9799763242718 ,46,7888294702308 ,10,9629664158205
14.700056 ,Left ,62,9494499044665 ,46,8179539907429 ,10,9450426369714
14.7226506 ,Left ,62,9195452093319 ,46,9293357383434 ,10,8885040702471
14.7373476 ,Left ,62,9389143773303 ,47,0405319832311 ,10,8138171235718
14.7527024 ,Left ,62,9772600432204 ,47,0984969572662 ,10,7610458183126
14.7751749 ,Left ,62,9919946816522 ,47,1050901451003 ,10,7386251074482
14.7978072 ,Left ,62,9492267413658 ,47,1027504782594 ,10,7319309820649
14.8128103 ,Left ,62,8979479137752 ,47,0910138108515 ,10,7269384257875
14.8352153 ,Left ,62,8888791836583 ,47,0575774323107 ,10,7156659483242
14.8577408 ,Left ,62,8639640527125 ,46,9986408265016 ,10,7250265986931
14.8801639 ,Left ,62,8053904977237 ,46,9815789439542 ,10,75392333939
14.8950704 ,Left ,62,8092181265381 ,47,0041080509028 ,10,7794848183958
14.9176749 ,Left ,62,8696410581462 ,46,9851221202152 ,10,7791445293035
14.9401021 ,Left ,62,9283577590962 ,46,95188044407 ,10,7151746226396
14.9626162 ,Left ,62,9042983140381 ,46,8778132972672 ,10,6060443832058
14.9850956 ,Left ,62,8281213092908 ,46,7935951948269 ,10,504688794292
15.0149627 ,Left ,62,7753141398246 ,46,6194759631997 ,10,3395563100668
15.0373409 ,Left ,62,7732593237911 ,46,5289720748442 ,10,3112765508486
15.0599093 ,Left ,62,7588395552433 ,46,4321302078453 ,10,3228806009872
15.075085 ,Left ,62,7232856475658 ,46,36000883976 ,10,3804752431585
15.0974423 ,Left ,62,7193659984044 ,46,3330632842549 ,10,4329673504463
15.1200821 ,Left ,62,7944094569515 ,46,334365416142 ,10,493119000544
15.1351304 ,Left ,62,8725902084823 ,46,3528152271329 ,10,5409320555252
15.1576652 ,Left ,62,904730849396 ,46,3672810682155 ,10,5700490946656
15.18001 ,Left ,62,9175192055028 ,46,3846808114559 ,10,5938125385498
15.1948913 ,Left ,62,8691840954997 ,46,3845731013529 ,10,6337325842569
15.2176142 ,Left ,62,8353986871552 ,46,3844465265533 ,10,6685169551201
15.2471917 ,Left ,62,8277189366131 ,46,3708757479405 ,10,6794453750002
15.2625157 ,Left ,62,8190237829386 ,46,3372074627364 ,10,6742875275668
15.2848484 ,Left ,62,7864785582731 ,46,3047136914303 ,10,6709877074318
15.3000344 ,Left ,62,7534601637842 ,46,285594645986 ,10,6934158861259
15.3148276 ,Left ,62,7471585627408 ,46,2688832365489 ,10,7153838400653
15.3374442 ,Left ,62,7409539428985 ,46,2463491331544 ,10,7360846857292
15.3673666 ,Left ,62,7182341706303 ,46,2252511842524 ,10,744568546334
15.3823552 ,Left ,62,7004604868198 ,46,2110029629567 ,10,7420030391343
15.4050422 ,Left ,62,7013726098359 ,46,2159012023854 ,10,7309044348439
15.4197093 ,Left ,62,7131919246167 ,46,2247224565554 ,10,7151897421593
15.4350152 ,Left ,62,7126679585697 ,46,2238727502875 ,10,7180894804209
15.457432 ,Left ,62,7121153770367 ,46,2221772088556 ,10,7174638252009
15.4797832 ,Left ,62,6965453870379 ,46,2214188492287 ,10,7270313792995
15.4949791 ,Left ,62,6850401577325 ,46,2216810308543 ,10,7371276888977
15.5175558 ,Left ,62,6768712290652 ,46,2304762593883 ,10,7487587195059
15.5397142 ,Left ,62,6552608213783 ,46,2485174727444 ,10,7671079101624
15.5550621 ,Left ,62,6381876334486 ,46,2742526222802 ,10,7842899517883
15.5849789 ,Left ,62,6235309975914 ,46,2985081083719 ,10,80178424193
15.6075108 ,Left ,62,6065482087744 ,46,3292998595736 ,10,8213871148312
15.6224893 ,Left ,62,5853609477809 ,46,3705401356121 ,10,8371464365432
15.6449977 ,Left ,62,5544921011089 ,46,4154856989671 ,10,8575698990226
15.6600188 ,Left ,62,5216040394247 ,46,4662613335674 ,10,8860757128211
15.675021 ,Left ,62,4758523500014 ,46,5264265400639 ,10,9256499194934
15.6974029 ,Left ,62,4259723770328 ,46,5798771520295 ,10,9695594157854
15.7200851 ,Left ,62,3826845772041 ,46,6320298040364 ,11,0106782669115
15.7349434 ,Left ,62,3544578283185 ,46,6741545393367 ,11,045935614785
15.7574007 ,Left ,62,3071872995093 ,46,6996468205715 ,11,0759112057312
15.7876858 ,Left ,62,302955871577 ,46,7098727530868 ,11,1011351609049
15.8027113 ,Left ,62,2963205021346 ,46,7275139299516 ,11,1382686080981
15.8250553 ,Left ,62,3075384145019 ,46,7478701147409 ,11,1876609857615
15.8475396 ,Left ,62,305460037722 ,46,8265770673035 ,11,2168722109748
15.8624657 ,Left ,62,3309462624298 ,46,8968060228603 ,11,2151307026626
15.8773582 ,Left ,62,4148730207889 ,46,909641874791 ,11,1697573318834
15.8999056 ,Left ,62,5404324507139 ,46,8762499430625 ,11,0768840687189
15.9224768 ,Left ,62,6138626074872 ,46,8133482570986 ,10,9491750109788
15.9374755 ,Left ,62,6541772395259 ,46,7308540513798 ,10,8166162283098
15.9599334 ,Left ,62,687878548712 ,46,6417362299407 ,10,7101313533702
15.9822466 ,Left ,62,7252260693405 ,46,570672378318 ,10,6544214913906
15.9971485 ,Left ,62,764974777038 ,46,5307005044388 ,10,635112268938
16.0197077 ,Left ,62,7987484209314 ,46,4698420260071 ,10,6385258243447
16.0423675 ,Left ,62,833136534692 ,46,400807801086 ,10,658963123061
16.0574435 ,Left ,62,8940475569991 ,46,3630401042712 ,10,6939098089543
16.0795684 ,Left ,62,9067751613027 ,46,3843791010363 ,10,680360550005
16.1021029 ,Left ,62,9123575284799 ,46,4334703584109 ,10,6595774129907
16.1174918 ,Left ,62,9191275842528 ,46,4883731245479 ,10,6457450039521
16.1472367 ,Left ,62,9128282680905 ,46,5483963315441 ,10,6500233998985
16.1705055 ,Left ,62,9122762539593 ,46,591329091978 ,10,6588672185796
16.1851904 ,Left ,62,8964657488494 ,46,5987144613241 ,10,6607291844485
16.2003466 ,Left ,62,9082832885515 ,46,5762803463076 ,10,6758495206605
16.2228256 ,Left ,62,9054034356607 ,46,5481155988147 ,10,7059078329164
16.2377751 ,Left ,62,8711399212646 ,46,6007337743889 ,10,6971986195053
16.2528836 ,Left ,62,8703328057151 ,46,684756252559 ,10,6697697443307
16.2752282 ,Left ,62,9229675458322 ,46,7528915651964 ,10,6499232673569
16.2901664 ,Left ,62,9895895798262 ,46,8044168442513 ,10,6226527726394
16.3128241 ,Left ,62,9561004604482 ,46,7909849510292 ,10,6265637141053
16.3500684 ,Left ,62,9667001878528 ,46,779277655797 ,10,6816580558791
16.3725317 ,Left ,62,9684769097842 ,46,7546781231947 ,10,7284617301115
16.4100449 ,Left ,62,9137120626269 ,46,699121885629 ,10,8575962667623
16.4326434 ,Left ,62,8742901921561 ,46,7482916593959 ,10,8566456535622
16.4551038 ,Left ,62,8539211758334 ,46,8996299790373 ,10,8142962465126
16.4926022 ,Left ,62,97204925996 ,47,1344164169262 ,10,7499105271556
16.515191 ,Left ,63,0108806003451 ,47,1948437457268 ,10,7357005418366
16.5300685 ,Left ,62,9584317167097 ,47,2182895222966 ,10,7339130441113
16.5526592 ,Left ,62,9403335246639 ,47,2206462382669 ,10,7190665225268
16.5898578 ,Left ,62,8830883044217 ,47,1213458604957 ,10,7076137071078
16.6123795 ,Left ,62,8009906621718 ,47,0807588492335 ,10,7243099732882
16.650055 ,Left ,62,8144346659523 ,47,133571511316 ,10,7823123929976
16.6722146 ,Left ,62,8769665887905 ,47,154092699841 ,10,7671546462489
16.7101599 ,Left ,62,9153887736283 ,47,0653077633003 ,10,5789178035714
16.7324409 ,Left ,62,8540259807113 ,46,9606075271151 ,10,4664076286528
16.7552016 ,Left ,62,8171624335474 ,46,8165663462227 ,10,3662538537986
16.7705453 ,Left ,62,7913103432751 ,46,6756459748172 ,10,3085983882839
16.7927907 ,Left ,62,7490656613688 ,46,5800902797137 ,10,3016405898911
16.8150627 ,Left ,62,7678505993263 ,46,5343561703788 ,10,3088955041828
16.8302284 ,Left ,62,7607321278688 ,46,481475227529 ,10,3584505660381
16.8525208 ,Left ,62,8056748199983 ,46,4479588606298 ,10,4333690526772
16.8899364 ,Left ,62,9287083953548 ,46,5233616488457 ,10,5515209086087
16.9126704 ,Left ,62,9468325052818 ,46,5435007159729 ,10,5748959389779
16.9499849 ,Left ,62,9274936696435 ,46,4978354654309 ,10,6084144482755
16.9724829 ,Left ,62,8751265919258 ,46,4784517929041 ,10,6515046281696
17.0096141 ,Left ,62,7966491280068 ,46,4505824765783 ,10,7458428326971
17.0323653 ,Left ,62,7918630547287 ,46,4306898122313 ,10,7787635874191
17.0698365 ,Left ,62,7707720108534 ,46,3926818016971 ,10,8262032907746
17.0924404 ,Left ,62,775555000346 ,46,3698585587666 ,10,8432568761409
17.1300943 ,Left ,62,7631118872102 ,46,3545615273138 ,10,8774160630983
17.1524496 ,Left ,62,7632139017667 ,46,3545911149183 ,10,8822491542246
17.1974587 ,Left ,62,7937585983709 ,46,3279598701483 ,10,8749694573178
17.2202085 ,Left ,62,7781539096354 ,46,3155561871678 ,10,8723264623932
17.2500761 ,Left ,62,7713971311753 ,46,315271470577 ,10,8839857370564
17.272359 ,Left ,62,763349518169 ,46,3240624099892 ,10,8955525189181
17.3100942 ,Left ,62,719657670496 ,46,3376515103559 ,10,9040265117849
17.3324308 ,Left ,62,70374452182 ,46,3459201799808 ,10,8997969084
17.3699316 ,Left ,62,6403148018932 ,46,4122796071591 ,10,9063005215951
17.3926327 ,Left ,62,6104321470979 ,46,4621076191801 ,10,9156390943752
17.4301269 ,Left ,62,5302055375021 ,46,5650891067759 ,10,9545492191663
17.4599542 ,Left ,62,4754348764205 ,46,6321487847244 ,10,9867574839703
17.4975396 ,Left ,62,4065336803162 ,46,7434801484624 ,11,0474250297601
17.5126777 ,Left ,62,388646753905 ,46,7692613489784 ,11,0594235751148
17.5574291 ,Left ,62,3159978824785 ,46,7966112627799 ,11,0843140058747
17.6176247 ,Left ,62,3194223751397 ,46,7765033871246 ,11,1470231575324
17.6401081 ,Left ,62,3255890363634 ,46,8169772338416 ,11,1343215625255
17.6703924 ,Left ,62,4432110863108 ,46,8350662610455 ,11,0473512640146
17.6929325 ,Left ,62,4968632924031 ,46,8335619441855 ,10,9875202830889
17.7378429 ,Left ,62,5241553221481 ,46,7900796297369 ,10,8966784365268
17.7602444 ,Left ,62,5238008193658 ,46,7508897814404 ,10,865971880138
17.8126266 ,Left ,62,5676847775097 ,46,6081822563266 ,10,815420342932
17.8502009 ,Left ,62,57538129223 ,46,4485450698424 ,10,7706235290236
17.8725721 ,Left ,62,5920194532164 ,46,3774600884463 ,10,7668545979149
17.9095166 ,Left ,62,6160314172436 ,46,3462766149074 ,10,8149101168397
17.9322872 ,Left ,62,6218875696567 ,46,37000281162 ,10,8354749029327
17.9697587 ,Left ,62,641187932889 ,46,3786231037734 ,10,848195606961
17.9925242 ,Left ,62,6220949851569 ,46,3961550505392 ,10,8068867899319
18.0299603 ,Left ,62,6305518345502 ,46,4543914514357 ,10,7240076292439
18.0522414 ,Left ,62,6359011330341 ,46,4958255463962 ,10,7057577537289
18.0902423 ,Left ,62,7274438285059 ,46,5278487129785 ,10,7463762322731
18.1127693 ,Left ,62,7525802928524 ,46,4916271463866 ,10,804764048282
18.1277505 ,Left ,62,7320628096749 ,46,4561863776263 ,10,8515094544218
18.1426444 ,Left ,62,7047980359496 ,46,5108128476127 ,10,8331593620852
18.1650208 ,Left ,62,7367730192641 ,46,5956835672822 ,10,8042085182296
18.187787 ,Left ,62,8111674792807 ,46,6738624065171 ,10,7920499473676
18.2027989 ,Left ,62,8760408231364 ,46,7424531628549 ,10,7849979190149
18.2251946 ,Left ,62,869896644533 ,46,7792622824724 ,10,8023306779595
18.247613 ,Left ,62,8282544039241 ,46,8233743897773 ,10,8336809484299
18.2624778 ,Left ,62,8229693080116 ,46,8348228820365 ,10,8812981403022
18.2850853 ,Left ,62,8431423548311 ,46,8145882237517 ,10,952196179464
18.3074561 ,Left ,62,8304328154324 ,46,818181330288 ,10,9998263674099
18.32242 ,Left ,62,7663224254757 ,46,8457432333567 ,10,9941792103382
18.344878 ,Left ,62,7307569556591 ,46,9269975682996 ,10,9590149749663
18.3676111 ,Left ,62,7108868914086 ,47,025442623743 ,10,9351155858713
18.3823926 ,Left ,62,7688086855478 ,47,0955900168771 ,10,9164196377343
18.4049458 ,Left ,62,8040822247139 ,47,1087733193011 ,10,9009451207971
18.4277569 ,Left ,62,8047481325116 ,47,1079116473253 ,10,8775647616691
18.4428186 ,Left ,62,786599619511 ,47,0805031710638 ,10,8359569849022
18.4651059 ,Left ,62,7901130461873 ,47,0328553858443 ,10,7951997084686
18.4877028 ,Left ,62,7655896941282 ,46,9984027665523 ,10,7603286444534
18.5027411 ,Left ,62,7730555515173 ,46,9986176482808 ,10,7288846323202
18.5251017 ,Left ,62,8059846675686 ,46,9838556739424 ,10,7091151912056
18.5475476 ,Left ,62,85106969032 ,46,944407666584 ,10,713517589703
18.5702108 ,Left ,62,8667759744113 ,46,885139292712 ,10,7187851394345
18.5926996 ,Left ,62,8660716397941 ,46,824135238619 ,10,7167552433425
18.6225878 ,Left ,62,8485968505988 ,46,7141788763778 ,10,6966475069398
18.6526084 ,Left ,62,8451552482627 ,46,6618916183718 ,10,6732765561808
18.6750737 ,Left ,62,8391366061286 ,46,6128101510853 ,10,6588742209121
18.7123901 ,Left ,62,8342076748672 ,46,5397289334704 ,10,6440470892031
18.7346533 ,Left ,62,8347544025172 ,46,5042004624254 ,10,6387038380499
18.757481 ,Left ,62,8352554805514 ,46,4702622494857 ,10,6306765286051
18.7722419 ,Left ,62,8331493190409 ,46,4494020621723 ,10,6199213093684
18.7874049 ,Left ,62,8371684682999 ,46,4404775444275 ,10,6064397861632
18.8097237 ,Left ,62,8465541032254 ,46,4524871722162 ,10,5925998265713
18.8245312 ,Left ,62,8487400860683 ,46,4748987639273 ,10,5797551118952
18.855446 ,Left ,62,8540472790805 ,46,5173061812734 ,10,5701454206991
18.8774635 ,Left ,62,8662604606368 ,46,5651240688062 ,10,5611732275355
18.8923649 ,Left ,62,862154848487 ,46,6135574585628 ,10,5508089419165
18.9074247 ,Left ,62,8652160842251 ,46,6608153937948 ,10,5459823065031
18.9297337 ,Left ,62,8616669680763 ,46,715950831808 ,10,5596641999615
18.9448854 ,Left ,62,8534527442866 ,46,7543194587177 ,10,5799913998212
18.967417 ,Left ,62,8436323534306 ,46,8090728352712 ,10,5890048178139
18.9898805 ,Left ,62,8241334147014 ,46,8756294772661 ,10,6046678492023
19.0048343 ,Left ,62,7796946964921 ,46,9209113900213 ,10,6257347388609
19.0276308 ,Left ,62,7567088828742 ,46,920700534503 ,10,6651465192646
19.0500662 ,Left ,62,7488882645299 ,46,97891237607 ,10,7006478682577
19.0726109 ,Left ,62,7706313970003 ,47,0814462820435 ,10,7041218716889
19.0877415 ,Left ,62,8619951847414 ,47,1176382657691 ,10,6745165261582
19.1101888 ,Left ,62,9672204540357 ,47,0806462062093 ,10,5706308211947
19.1324361 ,Left ,62,9289669666288 ,46,9577949844087 ,10,4295647088296
19.1474031 ,Left ,62,8234315929007 ,46,8587173896896 ,10,3265512209916
19.1700073 ,Left ,62,7428362673481 ,46,7850333598239 ,10,2775829220778
19.1850442 ,Left ,62,7645651387865 ,46,7368966656134 ,10,2634155083042
19.207362 ,Left ,62,795058520408 ,46,662317884857 ,10,2716856587232
19.2298854 ,Left ,62,7908553697247 ,46,5425801326588 ,10,3104848227027
19.25225 ,Left ,62,7733141857973 ,46,4257015299271 ,10,4021590853004
19.2746584 ,Left ,62,757299683093 ,46,410525768241 ,10,4784548822977
19.2978992 ,Left ,62,8254149432544 ,46,464065857117 ,10,5312834649892
19.3280931 ,Left ,62,9207533477471 ,46,5338689209234 ,10,6274800491425
19.3503537 ,Left ,62,8512201204227 ,46,5176633212102 ,10,6579367994859
19.3651893 ,Left ,62,7828556671477 ,46,524606423693 ,10,6772653266323
19.3878067 ,Left ,62,7571183235324 ,46,5340872848712 ,10,702656181048
19.4101296 ,Left ,62,7481991012778 ,46,5380235518003 ,10,746181046399
19.4250534 ,Left ,62,7213215818731 ,46,5402378806136 ,10,7881135058662
19.4471899 ,Left ,62,6860443692071 ,46,5336157004987 ,10,8136796763319
19.4772844 ,Left ,62,656691385407 ,46,5033125439379 ,10,8329385680317
19.4999731 ,Left ,62,6406252794214 ,46,4712394386974 ,10,8490501250157
19.5147878 ,Left ,62,6494242240459 ,46,4470477400062 ,10,8659612869388
19.5298605 ,Left ,62,6543830256742 ,46,4333038595722 ,10,8726624989495
19.5449173 ,Left ,62,6252513934204 ,46,4500037014976 ,10,8762252918112
19.5671127 ,Left ,62,6210389837517 ,46,4646937509146 ,10,8762588917358
19.5899673 ,Left ,62,6569025595058 ,46,463994618474 ,10,8714309532084
19.6047784 ,Left ,62,6800915659238 ,46,4569161042071 ,10,8660795925528
19.6273245 ,Left ,62,6766021367386 ,46,4526002485959 ,10,8635892362581
19.6501255 ,Left ,62,6742878898154 ,46,4532920775345 ,10,8645378204537
19.6804892 ,Left ,62,6846668613729 ,46,4637787138875 ,10,8662767270368
19.6954098 ,Left ,62,6980139302323 ,46,4760929720539 ,10,871205237372
19.7179735 ,Left ,62,6933154187094 ,46,4915462138654 ,10,8763875587904
19.7323682 ,Left ,62,6839012748295 ,46,5059262099657 ,10,8777200315281
19.7473079 ,Left ,62,6627949289052 ,46,525509625016 ,10,8769949252261
19.7698677 ,Left ,62,6417266685972 ,46,5583694073752 ,10,880777381535
19.7922158 ,Left ,62,6207387969846 ,46,6069127069188 ,10,8899055303655
19.8072181 ,Left ,62,6094754372371 ,46,6509019291789 ,10,8907142442754
19.8298862 ,Left ,62,59076272652 ,46,6994648144551 ,10,8925546419478
19.8523341 ,Left ,62,5521014409222 ,46,7487009708661 ,10,9004824565275
19.8674573 ,Left ,62,505081962048 ,46,7992032864217 ,10,9128764871811
19.8899368 ,Left ,62,4670097406781 ,46,8559513679294 ,10,9284851620049
19.9126024 ,Left ,62,4393371957374 ,46,8966683518634 ,10,9417313675218
19.9275587 ,Left ,62,4105206963292 ,46,925028944267 ,10,9530209817378
19.9499616 ,Left ,62,3663588204641 ,46,9417690083584 ,10,9537392148766
19.9725977 ,Left ,62,3445458420369 ,46,9064294773273 ,10,9733084371782
19.9871904 ,Left ,62,3370552855118 ,46,886810182193 ,11,0054303889718
20.0096534 ,Left ,62,3401639060494 ,46,9261955286101 ,11,0334623955563
20.0321767 ,Left ,62,3701391662578 ,46,9828552051503 ,11,038892715056
20.0472999 ,Left ,62,4562386570342 ,46,9962282047282 ,10,9914087275269
20.0774158 ,Left ,62,5575043620049 ,46,9737381393713 ,10,8923496883689
20.1075062 ,Left ,62,6170689497177 ,46,9236791653688 ,10,7742488975744
20.1226412 ,Left ,62,6527468968805 ,46,8527381487818 ,10,6547764643094
20.145061 ,Left ,62,7167158878857 ,46,7648172719332 ,10,5495849583342
20.1675087 ,Left ,62,7562876627233 ,46,5452335325247 ,10,4746561468373
20.1903924 ,Left ,62,7705052900466 ,46,4744374842414 ,10,4961956636337
20.212738 ,Left ,62,8087019469737 ,46,398668672296 ,10,5531424441325
20.2349049 ,Left ,62,9036642282151 ,46,3202285597455 ,10,6151388319304
20.2501049 ,Left ,62,9077628118327 ,46,3254676458883 ,10,6244582259024
20.2725926 ,Left ,62,8956507852799 ,46,3875129790372 ,10,5810423109086
20.2950536 ,Left ,62,9414863918573 ,46,4620392962626 ,10,5348040900662
20.3101927 ,Left ,62,9621801240678 ,46,5178203893325 ,10,5267795898249
20.3326183 ,Left ,62,9651408338793 ,46,5659346247664 ,10,5257054618813
20.3548394 ,Left ,62,9445968569474 ,46,5928661236753 ,10,5465523921296
20.3699803 ,Left ,62,9392293672799 ,46,5472148667989 ,10,5775029718287
20.3924292 ,Left ,62,980127281333 ,46,4785739433334 ,10,6497190872403
20.4074959 ,Left ,62,9700970588807 ,46,4450329698637 ,10,6960056135449
20.4304453 ,Left ,62,9538093795244 ,46,4936973349099 ,10,6620792425419
20.4530258 ,Left ,62,992986951952 ,46,566940857252 ,10,6241150655449
20.4678888 ,Left ,63,0521666082415 ,46,6388629399888 ,10,5923053659754
20.4935842 ,Left ,63,0899242913662 ,46,6831823380012 ,10,5705745889948
20.5126285 ,Left ,63,104957243261 ,46,7055167072737 ,10,558389657369
20.5275133 ,Left ,63,1088653952729 ,46,7007765331636 ,10,5697665802844
20.5498946 ,Left ,63,0857834472672 ,46,6985284817929 ,10,6218522285514
20.5721284 ,Left ,63,0956279015741 ,46,6897623572232 ,10,6948355591114
20.5948571 ,Left ,63,0780197676369 ,46,6811558109017 ,10,7664691648412
20.6097446 ,Left ,63,0314360816314 ,46,6886157551912 ,10,7941373666645
20.6324973 ,Left ,62,9996236148011 ,46,764494613292 ,10,7921658066493
20.6549211 ,Left ,62,9892201567516 ,46,8917161490853 ,10,7898559593634
20.6776008 ,Left ,63,013206303769 ,47,0147705844762 ,10,8062095398913
20.6999762 ,Left ,63,0044782776193 ,47,1162927830247 ,10,8105102631394
20.7225313 ,Left ,62,9933796545914 ,47,1913838769998 ,10,7965024295722
20.7371139 ,Left ,62,946427732913 ,47,2185283033441 ,10,7866910471276
20.7521792 ,Left ,62,9293677250457 ,47,215999576308 ,10,7822661039844
20.7822926 ,Left ,62,8959712617422 ,47,157582339995 ,10,8024069799482
20.7981871 ,Left ,62,8344958754873 ,47,131455233995 ,10,8293023066531
20.8206389 ,Left ,62,7146133786286 ,47,1469077747 ,10,8788890743718
20.8578648 ,Left ,62,7855046614096 ,47,1951503998632 ,10,9621668142549
20.8801068 ,Left ,62,8811702870219 ,47,1766648352055 ,10,9052475029587
20.9026588 ,Left ,62,8991086572659 ,47,1396785127053 ,10,7948838730289
20.9181711 ,Left ,62,8354637061256 ,47,0790807664273 ,10,6595603435049
20.9399526 ,Left ,62,7902157181345 ,47,0097011739454 ,10,5181216895999
20.9625147 ,Left ,62,813464919848 ,46,9344832940186 ,10,3961024445645
20.9775189 ,Left ,62,8346498985056 ,46,8652271322589 ,10,3165846538805
20.9925887 ,Left ,62,8511415771461 ,46,8092942714051 ,10,3001367763976
21.0148521 ,Left ,62,8689029916789 ,46,7430174011075 ,10,3244092430888
21.0300581 ,Left ,62,8578228624163 ,46,6683298506615 ,10,3764306654503
21.0526742 ,Left ,62,8626258119969 ,46,6376726258628 ,10,4344020658052
21.0751015 ,Left ,62,8758195358455 ,46,6857784431128 ,10,4739525294174
21.0899857 ,Left ,62,9483582184969 ,46,7555976625003 ,10,4976599401127
21.1131126 ,Left ,62,9925346192529 ,46,786353419744 ,10,5149327925868
21.1354205 ,Left ,62,9890454317472 ,46,7729606573158 ,10,5277054463519
21.1495171 ,Left ,62,9313038258528 ,46,7339907860178 ,10,5205275286716
21.1721208 ,Left ,62,8840123869887 ,46,6824392440014 ,10,5223685607691
21.1946596 ,Left ,62,8377409722884 ,46,6334699305338 ,10,5429647440631
21.2099774 ,Left ,62,8076023974924 ,46,5979651827806 ,10,5683753730893
21.2324157 ,Left ,62,7918394437043 ,46,5716333899909 ,10,5953342802248
21.255047 ,Left ,62,7717922623512 ,46,5393343785583 ,10,6352732579989
21.2702833 ,Left ,62,7758507443023 ,46,4936433814782 ,10,6780658225711
21.2927802 ,Left ,62,7864748177523 ,46,4416353687788 ,10,7253227197741
21.3150023 ,Left ,62,7872316023301 ,46,402207811677 ,10,7572142024611
21.3300728 ,Left ,62,7854940587722 ,46,394797751681 ,10,7802394238154
21.3527526 ,Left ,62,771709771822 ,46,3941075317373 ,10,7890250937379
21.3751705 ,Left ,62,7841287714048 ,46,389016824752 ,10,7942051038713
21.3901158 ,Left ,62,7925668609601 ,46,3787405605327 ,10,7997799223756
21.4127758 ,Left ,62,7741583058247 ,46,3770099700622 ,10,8095942154564
21.4351394 ,Left ,62,7445394683448 ,46,3912538516988 ,10,8237335764553
21.4502388 ,Left ,62,7299216309186 ,46,4154196418792 ,10,836349040681
21.4727282 ,Left ,62,7165390547277 ,46,437146610028 ,10,8489415779718
21.4949691 ,Left ,62,7059272806389 ,46,4606319752992 ,10,8550175010533
21.5176158 ,Left ,62,6836071417162 ,46,4917335980308 ,10,8599430909741
21.532369 ,Left ,62,6461544071306 ,46,5311663996444 ,10,8636408766383
21.5549233 ,Left ,62,6060199769255 ,46,5778789890023 ,10,8743978670766
21.5771998 ,Left ,62,5628020905257 ,46,626221713031 ,10,8932750571949
21.5929871 ,Left ,62,523076653185 ,46,682391247464 ,10,9258903298574
21.6230431 ,Left ,62,4616126122168 ,46,7409436628121 ,10,9736559308806
21.6454465 ,Left ,62,3938881307937 ,46,7993869927398 ,11,0276508768758
21.6599552 ,Left ,62,3556054561807 ,46,8376341542106 ,11,0606263085956
21.6748074 ,Left ,62,338967751578 ,46,8396010538703 ,11,0759777654896
21.6971821 ,Left ,62,3407503957406 ,46,8483915702184 ,11,1051946032594
21.7123585 ,Left ,62,337769902997 ,46,8744189989692 ,11,1387014487648
21.7350248 ,Left ,62,3302844899751 ,46,9525845150771 ,11,1594267930584
21.7574899 ,Left ,62,3629439937088 ,46,9916728249542 ,11,1466638007207
21.7725436 ,Left ,62,4448971919425 ,46,9937599787159 ,11,0874261344033
21.7948145 ,Left ,62,5323254200279 ,46,9800804892259 ,10,9803048190351
21.8175656 ,Left ,62,5802794031529 ,46,9300548643725 ,10,856202164842
21.8325526 ,Left ,62,6257058353591 ,46,846446901112 ,10,7462630677523
21.8550191 ,Left ,62,6755938433187 ,46,7818385428581 ,10,6791362381857
21.8772862 ,Left ,62,7094925877389 ,46,734835358018 ,10,6520667383672
21.900091 ,Left ,62,7910463700619 ,46,6379662344116 ,10,6347368208893
21.9225761 ,Left ,62,8119097265085 ,46,5468360168679 ,10,6672188052474
21.952338 ,Left ,62,8708510908889 ,46,419732685134 ,10,7003736254875
21.9748043 ,Left ,62,9205449735835 ,46,4447030668616 ,10,6720212196905
21.9978189 ,Left ,62,9822982804422 ,46,4712628988518 ,10,6342765861207
22.0130544 ,Left ,62,9765436730959 ,46,5072927818851 ,10,6188173038542
22.035235 ,Left ,62,9744701847551 ,46,5666940651241 ,10,6312365680345
22.0501162 ,Left ,63,0077307547091 ,46,5999811190106 ,10,6318406420338
22.0649116 ,Left ,63,0120889783584 ,46,5721191712798 ,10,6695384810512
22.0875195 ,Left ,62,9867376129091 ,46,5228378846637 ,10,7440294344582
22.1101202 ,Left ,62,9362796662904 ,46,5738839551196 ,10,743045308972
22.125027 ,Left ,62,9678430265178 ,46,6704492169144 ,10,6905378316978
22.1474699 ,Left ,63,0241143512431 ,46,7775067982268 ,10,6518919115483
22.1700277 ,Left ,63,0520730235363 ,46,8574118461749 ,10,6287249625675
22.1851664 ,Left ,63,073517931702 ,46,9418863080246 ,10,6196897136259
22.2076577 ,Left ,63,085449954441 ,46,9944007949256 ,10,6261137502213
22.2300714 ,Left ,63,0671736231403 ,46,9900180833557 ,10,6508237291872
22.2448994 ,Left ,63,0240004217252 ,46,9513486121979 ,10,7029226563927
22.2674361 ,Left ,62,9794663553777 ,46,8977442099942 ,10,7954537053214
22.2898598 ,Left ,62,9345370158303 ,46,8699744568667 ,10,8351798809736
22.3047846 ,Left ,62,925511626576 ,46,895851023683 ,10,8156580175217
22.32724 ,Left ,62,8491650861373 ,47,0243039882716 ,10,7641306516009
22.3497591 ,Left ,62,8632316042706 ,47,1852519011881 ,10,7201120177239
22.3648698 ,Left ,62,9400854287381 ,47,2764592379146 ,10,6893616840388
22.387513 ,Left ,62,9874651966299 ,47,3546613866893 ,10,6481994893219
22.410311 ,Left ,62,9494616809528 ,47,3811739737937 ,10,6073446827392
22.4251942 ,Left ,62,9076346761309 ,47,3622793983944 ,10,5810765254022
22.4476113 ,Left ,62,8722453501494 ,47,3084469509994 ,10,5778471648368
22.4851281 ,Left ,62,7604249865583 ,47,2082916983772 ,10,5936129682401
22.5077202 ,Left ,62,6851418402773 ,47,2008187350998 ,10,6298055796779
22.5301818 ,Left ,62,7221672124677 ,47,204879197469 ,10,6585953762011
22.54518 ,Left ,62,8108533970939 ,47,1794943953729 ,10,6345557162781
22.5677555 ,Left ,62,8640827104075 ,47,1328673768923 ,10,5564649496833
22.5901829 ,Left ,62,840964035687 ,47,0427355624566 ,10,4378580849517
22.6051698 ,Left ,62,8160848051887 ,46,942175267968 ,10,3086289304913
22.6278494 ,Left ,62,8098307915488 ,46,846739953063 ,10,2035337041679
22.6502819 ,Left ,62,805951292148 ,46,7551058059974 ,10,1457089679199
22.665063 ,Left ,62,7895327427478 ,46,6769187141122 ,10,1323599358069
22.6876464 ,Left ,62,7591195528912 ,46,5839934647637 ,10,1528216691293
22.7099919 ,Left ,62,7624479931808 ,46,5136019033114 ,10,1942088647739
22.7326452 ,Left ,62,7816100106029 ,46,4576325711369 ,10,2438419698508
22.7550693 ,Left ,62,8282512211457 ,46,4532451452421 ,10,3010943137433
22.7852387 ,Left ,62,8848646648488 ,46,5319706568885 ,10,3578923455524
22.80738 ,Left ,62,9025173352245 ,46,5580735373849 ,10,3778198189652
22.8447484 ,Left ,62,8168508463325 ,46,568169342728 ,10,3831414427311
22.8676499 ,Left ,62,7919111720076 ,46,5442177694958 ,10,3831379993993
22.9051331 ,Left ,62,7790447146831 ,46,4825305309008 ,10,4235344633088
22.9277693 ,Left ,62,7591564690082 ,46,4642533140893 ,10,4605570144741
22.9651861 ,Left ,62,7279213930759 ,46,4252301959039 ,10,5582348388418
22.9877448 ,Left ,62,7366962333633 ,46,3912856139896 ,10,5868862022601
23.0250561 ,Left ,62,724400158438 ,46,3395459266656 ,10,6187454193268
23.0476668 ,Left ,62,7073099543396 ,46,3345516417359 ,10,6347675511844
23.0851136 ,Left ,62,6787203557394 ,46,3340441179383 ,10,6647485633469
23.1076634 ,Left ,62,6600515959501 ,46,3240519339532 ,10,6837438418838
23.1526466 ,Left ,62,6182970223999 ,46,3187358672804 ,10,7170209955626
23.1751395 ,Left ,62,5985174426471 ,46,3276384197849 ,10,7240649428524
23.2275043 ,Left ,62,5622073951344 ,46,4002954139762 ,10,7412154577012
23.265022 ,Left ,62,5009963951419 ,46,5104398799992 ,10,7663969137576
23.2876008 ,Left ,62,478496851828 ,46,5666143096925 ,10,7939148059701
23.3250398 ,Left ,62,4079321108621 ,46,6574092475593 ,10,8755315320089
23.3473276 ,Left ,62,370288531625 ,46,696794048497 ,10,9301970749428
23.385094 ,Left ,62,3156180136312 ,46,7467897824688 ,11,0154820476563
23.4076571 ,Left ,62,3183586529199 ,46,7295972380658 ,11,0634213599073
23.4451443 ,Left ,62,3066759718001 ,46,7254765960824 ,11,1391640947553
23.4676145 ,Left ,62,3157884257119 ,46,7803505126526 ,11,1416980222567
23.5048878 ,Left ,62,4922883986889 ,46,7791885631016 ,11,0694609898433
23.527417 ,Left ,62,5847169667219 ,46,7813081183777 ,10,9430114222692
23.549932 ,Left ,62,6304749680685 ,46,7680533485338 ,10,7887060192416
23.5875639 ,Left ,62,7379265256311 ,46,6429371504732 ,10,527526790364
23.6105973 ,Left ,62,7664163105317 ,46,5797041977277 ,10,4679936344711
23.6554012 ,Left ,62,7558930072036 ,46,4957390290488 ,10,486142111638
23.7077223 ,Left ,62,9196512026947 ,46,2923287639481 ,10,6621289882508
23.7299287 ,Left ,62,8871475160104 ,46,3549159689258 ,10,6205709381403
23.7672523 ,Left ,62,9809631596224 ,46,4851119046583 ,10,552902873147
23.8047073 ,Left ,62,9411426806215 ,46,6249162064361 ,10,5514278853086
23.8272974 ,Left ,62,9690181097396 ,46,6315524239417 ,10,5768939187532
23.8650489 ,Left ,62,9894249518211 ,46,5221353155676 ,10,7101128954293
23.8874195 ,Left ,62,9423939836861 ,46,5806920343574 ,10,6903005278567
23.9174618 ,Left ,63,0432196549019 ,46,7390147197301 ,10,6278617022346
23.940243 ,Left ,63,0710734234346 ,46,788452203513 ,10,6083294575478
23.9630668 ,Left ,63,075307241653 ,46,8159434771446 ,10,6071106776933
23.9774783 ,Left ,63,0556667592166 ,46,8163921176078 ,10,6328068690865
23.999859 ,Left ,63,0291487109485 ,46,8016635598126 ,10,6912838899967
24.0223277 ,Left ,63,0332664696774 ,46,7555385720772 ,10,7827149334086
24.0373981 ,Left ,62,9792562203815 ,46,7518178425264 ,10,8755807355127
24.0605186 ,Left ,62,8832778871393 ,46,7628246365278 ,10,8998152220175
24.0828341 ,Left ,62,8828015877955 ,46,800701968824 ,10,8753380781365
24.097881 ,Left ,62,8569954224839 ,46,9220092798828 ,10,8366548572069
24.128099 ,Left ,62,8566978615355 ,47,0486394436308 ,10,8073694129326
24.1504472 ,Left ,62,8857669762199 ,47,1306646602458 ,10,7829885680392
24.1805135 ,Left ,62,8729026843793 ,47,1776090760088 ,10,7285420102548
24.2025751 ,Left ,62,8500494219772 ,47,1762554763501 ,10,6969387904509
24.2174424 ,Left ,62,8511240622339 ,47,1432750202892 ,10,6665774850309
24.2397749 ,Left ,62,8460350848671 ,47,0967946220273 ,10,6367124791059
24.262265 ,Left ,62,822464422841 ,47,0740079661933 ,10,6233415732787
24.2774287 ,Left ,62,7918516717113 ,47,0737562480952 ,10,6108604229608
24.2997896 ,Left ,62,8110083656331 ,47,0707355731516 ,10,5958125965365
24.3224946 ,Left ,62,8150697877464 ,47,0587397469704 ,10,6087826663918
24.3449009 ,Left ,62,7911979835376 ,47,0411226103515 ,10,6484954577996
24.3599171 ,Left ,62,8671108915455 ,47,0183675074427 ,10,6743644726175
24.389868 ,Left ,62,9275038700127 ,46,9954039014314 ,10,6540723975362
24.4125436 ,Left ,62,9531069140614 ,46,9728639814087 ,10,5851203406258
24.4274587 ,Left ,62,9603533806048 ,46,9237574630649 ,10,5417652036447
24.4724219 ,Left ,62,961679944471 ,46,8966029610792 ,10,4976427723669
24.487792 ,Left ,62,9753136259163 ,46,8520761393515 ,10,5019499477131
24.510258 ,Left ,63,0079488909046 ,46,7724221820917 ,10,4938165023665
24.5252617 ,Left ,62,9964519957146 ,46,6709714424436 ,10,4640847444916
24.5475941 ,Left ,62,9394915019033 ,46,5615443793479 ,10,4316754257516
24.5703829 ,Left ,62,8857414629898 ,46,467037635731 ,10,4121628167614
24.6002591 ,Left ,62,9113396232547 ,46,3012388255599 ,10,3763367628535
24.6226932 ,Left ,62,8970436443118 ,46,2380341484933 ,10,3623541395447
24.6452302 ,Left ,62,8554722128378 ,46,2069202478469 ,10,3445978209349
24.6600075 ,Left ,62,8104764708416 ,46,209618250851 ,10,3375206768301
24.6824171 ,Left ,62,7833118782503 ,46,207244843865 ,10,3649132308602
24.7046547 ,Left ,62,7915322495201 ,46,2271373192392 ,10,3926686029327
24.7198467 ,Left ,62,7892830712301 ,46,2853150435156 ,10,4210209602996
24.7499958 ,Left ,62,7906144536175 ,46,3815856305854 ,10,4315284947921
24.7723335 ,Left ,62,8333541628086 ,46,4571884427429 ,10,4338436854181
24.78786 ,Left ,62,8817563545986 ,46,4966987338447 ,10,4324128273502
24.8022454 ,Left ,62,8472599395765 ,46,4871153213373 ,10,4436005484954
24.8249741 ,Left ,62,7888235989218 ,46,4809647676465 ,10,452514227008
24.8398575 ,Left ,62,7476055180193 ,46,469441857152 ,10,4731865421812
24.8625018 ,Left ,62,723427745764 ,46,4616703270483 ,10,5112641559511
24.8849729 ,Left ,62,7169289391006 ,46,4493721503008 ,10,5582188744795
24.9000986 ,Left ,62,6987120392778 ,46,4379368548222 ,10,5992573469563
24.9225795 ,Left ,62,6834726342226 ,46,4217232489719 ,10,6387298360543
24.9450071 ,Left ,62,6825077177525 ,46,4070976491129 ,10,6665292436245
24.9598169 ,Left ,62,6730391364872 ,46,3983912377755 ,10,6799302873366
24.9822678 ,Left ,62,6768946465508 ,46,3863202966426 ,10,6879216892418
25.0047773 ,Left ,62,6662962997072 ,46,3725890859782 ,10,6978882655872
25.020011 ,Left ,62,6521760705017 ,46,3561025008847 ,10,702713870403
25.0424683 ,Left ,62,6344163865579 ,46,3434769613401 ,10,7023052114527
25.064832 ,Left ,62,6332243531138 ,46,3400264947242 ,10,6962136225008
25.0798913 ,Left ,62,6478408900533 ,46,3359107442543 ,10,6978403493634
25.1030388 ,Left ,62,6589704271747 ,46,3341206060489 ,10,7017270077716
25.1252608 ,Left ,62,6665728748658 ,46,3354503648728 ,10,7065518713782
25.1406429 ,Left ,62,6793839297034 ,46,338738842355 ,10,712297066281
25.1630522 ,Left ,62,6897127691046 ,46,3501271379086 ,10,7175779432263
25.1851033 ,Left ,62,6878689084306 ,46,3599745062493 ,10,7225835050734
25.2001668 ,Left ,62,6785387157361 ,46,3719931048259 ,10,7328118627147
25.2299872 ,Left ,62,6615424509362 ,46,3901628507227 ,10,7416193405028
25.2526251 ,Left ,62,645705932846 ,46,4117260626213 ,10,7516274046045
25.2674805 ,Left ,62,6289969454904 ,46,4455748197098 ,10,7545805337893
25.2826741 ,Left ,62,604256577892 ,46,4831288492076 ,10,7615646802164
25.3050843 ,Left ,62,5794816377797 ,46,5206174318477 ,10,7636036665956
25.327668 ,Left ,62,5567607642713 ,46,550011494938 ,10,7725149072292
25.3427036 ,Left ,62,5233646312058 ,46,5715253572293 ,10,7876417726095
25.3649822 ,Left ,62,4675821322824 ,46,601779931915 ,10,8083865132609
25.3874753 ,Left ,62,4150828324788 ,46,6274128175892 ,10,8371721929479
25.4023666 ,Left ,62,3707846870606 ,46,6419851954708 ,10,8633442164458
25.4251077 ,Left ,62,3471516506879 ,46,6509983263638 ,10,8840594781653
25.4475024 ,Left ,62,3513930843955 ,46,6446552468118 ,10,9300937270449
25.4626887 ,Left ,62,3240185523246 ,46,6590097700867 ,10,9769360452254
25.4847746 ,Left ,62,3211618503597 ,46,6884102109058 ,11,0135193640967
25.5072126 ,Left ,62,363830649532 ,46,7395105549059 ,11,0289823277016
25.5221934 ,Left ,62,4372100655195 ,46,7673411061116 ,11,0007684993768
25.5447557 ,Left ,62,5289467976059 ,46,759268445065 ,10,9169657581711
25.5673399 ,Left ,62,6041668786089 ,46,7396436571582 ,10,811090832024
25.5826652 ,Left ,62,6491440705049 ,46,6821936856367 ,10,6882951676356
25.604571 ,Left ,62,684977975999 ,46,5906466036344 ,10,5813425768275
25.6279779 ,Left ,62,7228848493484 ,46,4831061221979 ,10,508343322816
25.6428926 ,Left ,62,7544215459467 ,46,3631063333081 ,10,473488994694
25.6649099 ,Left ,62,7957633730929 ,46,2406569648009 ,10,4747015795662
25.6875013 ,Left ,62,8328029739941 ,46,1619791086102 ,10,5040959290485
25.7026195 ,Left ,62,8276170011751 ,46,1329969868753 ,10,5524142873721
25.7250009 ,Left ,62,8585315078812 ,46,1417139413878 ,10,5841427375394
25.7474449 ,Left ,62,9359309959244 ,46,1778460125605 ,10,599158097991
25.7627145 ,Left ,62,9677635559055 ,46,2227794006847 ,10,5795649566943
25.7851059 ,Left ,62,9544028894484 ,46,266633388505 ,10,544214625535
25.8076683 ,Left ,62,9494156951517 ,46,2902987155046 ,10,5260018171645
25.8225786 ,Left ,62,9458640498925 ,46,3496689247766 ,10,5159884937088
25.8449829 ,Left ,62,933224074713 ,46,4060309885436 ,10,5141766509268
25.8676741 ,Left ,62,9928259430331 ,46,4063378361204 ,10,5166780651827
25.8826365 ,Left ,62,9973084995562 ,46,3785295033727 ,10,5689171097773
25.9126715 ,Left ,62,9828830648514 ,46,3388756101459 ,10,6282026630638
25.9347771 ,Left ,62,9872482885719 ,46,3846483158832 ,10,6063037120029
25.9496761 ,Left ,63,0451719856956 ,46,4458937746956 ,10,5598756845684
25.9649547 ,Left ,63,1246279717698 ,46,5002224819091 ,10,5296440985509
25.9873022 ,Left ,63,1386960514698 ,46,5381823970025 ,10,5465617142449
26.0026545 ,Left ,63,1339845996427 ,46,5634705162937 ,10,5717900034585
26.0252138 ,Left ,63,1072345831583 ,46,5692464354843 ,10,6106712332677
26.0477372 ,Left ,63,0882508824906 ,46,5581587655487 ,10,663866053395
26.0629 ,Left ,63,1146270851441 ,46,5520751408841 ,10,6837514567062
26.0852572 ,Left ,63,1171665374049 ,46,5779047204178 ,10,6642421750704
26.1078133 ,Left ,63,0697786388806 ,46,676173497569 ,10,6210896811187
26.1226444 ,Left ,63,059048887906 ,46,7911206272837 ,10,5788777713268
26.1448886 ,Left ,63,1007546406583 ,46,8645255654037 ,10,5485317144574
26.1673127 ,Left ,63,0962295484388 ,46,8980695874704 ,10,5329096064973
26.1826193 ,Left ,63,06633681492 ,46,9053627992424 ,10,5322889382837
26.2049036 ,Left ,63,0222112808603 ,46,9184173389759 ,10,5256477380083
26.227599 ,Left ,63,0268121738395 ,46,8816025304121 ,10,5249018385121
26.2499418 ,Left ,62,9983423855235 ,46,8230524574034 ,10,5355671752091
26.264742 ,Left ,62,925015828073 ,46,8162990745294 ,10,572702655865
26.2871844 ,Left ,62,9118703625606 ,46,8568399688013 ,10,6168018407818
26.3099285 ,Left ,62,9728827430335 ,46,8727476092962 ,10,6370497658599
26.3248718 ,Left ,63,0229457802101 ,46,863257481556 ,10,5962448658434
26.3475832 ,Left ,63,0330591448658 ,46,8531262332208 ,10,5046177128776
26.3701565 ,Left ,62,9826743188365 ,46,8086257259778 ,10,4021722696547
26.3851497 ,Left ,62,9741777533077 ,46,7409098731176 ,10,2958096486321
26.4150451 ,Left ,62,9726359293662 ,46,6494822691487 ,10,1985668054891
26.4374878 ,Left ,62,9536820807937 ,46,5600910626566 ,10,1293953668043
26.4524829 ,Left ,62,9582647140515 ,46,5073214543441 ,10,1061541545514
26.4671819 ,Left ,62,9460898344038 ,46,4635012949733 ,10,1253090159337
26.4899271 ,Left ,62,9692556089625 ,46,4132678252557 ,10,163017210027
26.5049759 ,Left ,62,9831539747952 ,46,351682092816 ,10,2326611013931
26.5276019 ,Left ,62,9918759309984 ,46,350933234855 ,10,2985475762201
26.5500317 ,Left ,63,0062397311868 ,46,403386957323 ,10,3355029951475
26.564904 ,Left ,63,0316654774213 ,46,4572530014107 ,10,3562912505022
26.5874554 ,Left ,63,091207776547 ,46,4801598135495 ,10,358168111778
26.6175897 ,Left ,63,0820193343235 ,46,4563982933402 ,10,3595812454633
26.6326259 ,Left ,63,0445279598947 ,46,4374178092328 ,10,354402000723
26.654942 ,Left ,63,0080351511139 ,46,4242331466885 ,10,34647803118
26.6701825 ,Left ,62,9871837223056 ,46,4170329740053 ,10,3413699319273
26.6922593 ,Left ,62,9900621621037 ,46,4180629712397 ,10,3410793469986
26.7149086 ,Left ,62,9994525292928 ,46,4186969952546 ,10,3465321807215
26.7448011 ,Left ,63,0351823189088 ,46,4061807624513 ,10,3684173258706
26.7673446 ,Left ,63,0546398652984 ,46,4008346918744 ,10,3680305293212
26.7897744 ,Left ,63,0722607252637 ,46,3986588160887 ,10,3678762498026
26.8048792 ,Left ,63,0829740702595 ,46,4117671832245 ,10,3690665372379
26.8276876 ,Left ,63,085631048085 ,46,4210397441355 ,10,3709633606048
26.8499417 ,Left ,63,0838401936703 ,46,421764606942 ,10,3703831426753
26.8650903 ,Left ,63,0833004999897 ,46,4200731675502 ,10,3697350014983
26.8952585 ,Left ,63,0753445564844 ,46,415427792573 ,10,3766432932588
26.9175889 ,Left ,63,0741047275443 ,46,4029288559678 ,10,3857449062126
26.9325766 ,Left ,63,0620097326036 ,46,3823127324949 ,10,3963680567199
26.9472042 ,Left ,63,0364700722649 ,46,3641451711943 ,10,4138328950559
26.9698935 ,Left ,63,0042847762118 ,46,3538715115179 ,10,4339724225873
26.9848803 ,Left ,62,97056909437 ,46,3393917447085 ,10,4605625781012
27.0075686 ,Left ,62,9521340587263 ,46,3201200169095 ,10,4835966076125
27.0302112 ,Left ,62,9333421439475 ,46,292551545135 ,10,5060033895158
27.0452964 ,Left ,62,8951211591699 ,46,270430923071 ,10,52885582208
27.0678104 ,Left ,62,8669991641702 ,46,2580326939508 ,10,5403005809899
27.0902834 ,Left ,62,8337493428278 ,46,2610307487395 ,10,5474077648721
27.1052154 ,Left ,62,808176248135 ,46,260321362759 ,10,5518138363653
27.127769 ,Left ,62,7961063249585 ,46,2571653690798 ,10,5590998845042
27.1502888 ,Left ,62,7762395292881 ,46,2600993275375 ,10,5601838370636
27.1727912 ,Left ,62,7612618064246 ,46,2542421338039 ,10,5607390354371
27.1952175 ,Left ,62,7475051632476 ,46,2476068519331 ,10,5634524194364
27.2400703 ,Left ,62,7222902442892 ,46,2551765636802 ,10,5635501349811
27.2548066 ,Left ,62,7059843762963 ,46,2765119653492 ,10,5592254954871
27.2775362 ,Left ,62,6752188258206 ,46,3192812709364 ,10,5546021091791
27.3149443 ,Left ,62,5754585793046 ,46,3922635446461 ,10,5903270425998
27.3375231 ,Left ,62,5045717367152 ,46,4339120831361 ,10,6230778251634
27.359984 ,Left ,62,4479875667329 ,46,4750294289038 ,10,664038392252
27.3750336 ,Left ,62,4057990809675 ,46,5106485963173 ,10,7156387478175
27.3900454 ,Left ,62,3599443426965 ,46,5454745692316 ,10,771253014492
27.4126138 ,Left ,62,3118035003413 ,46,5699910319199 ,10,8143012849489
27.427625 ,Left ,62,2652117745429 ,46,588319857869 ,10,8638890404493
27.4500054 ,Left ,62,2812616782878 ,46,6070659421131 ,10,8870001921426
27.4723592 ,Left ,62,3084424959711 ,46,6619536914582 ,10,91963546809
27.487624 ,Left ,62,3054608494778 ,46,7479926668872 ,10,936473621115
27.5101142 ,Left ,62,3464980561428 ,46,8105520893705 ,10,9087881528318
27.5326044 ,Left ,62,464918283663 ,46,8074230558601 ,10,8357376618743
27.547427 ,Left ,62,5726386506344 ,46,763564767714 ,10,7501180125423
27.5776353 ,Left ,62,5944569653172 ,46,7239298140221 ,10,6521907675968
27.599837 ,Left ,62,6352147904418 ,46,6749869298115 ,10,5685920259519
27.6147103 ,Left ,62,6599323665033 ,46,6213959663686 ,10,5199370353758
27.6297936 ,Left ,62,6794026356478 ,46,5647257677358 ,10,5107972578037
27.6522766 ,Left ,62,734458652244 ,46,5031098811891 ,10,5320978875027
27.6673999 ,Left ,62,8313798059248 ,46,4109272474887 ,10,5698085816631
27.6897726 ,Left ,62,9087819868588 ,46,3354903132603 ,10,6305485250416
27.7127213 ,Left ,62,884331066851 ,46,3409073649638 ,10,6782940961397
27.7273881 ,Left ,62,8327248422722 ,46,4206656929975 ,10,6587870039753
27.749724 ,Left ,62,8969037462635 ,46,4994562638105 ,10,6253593617863
27.7723209 ,Left ,62,9711753326666 ,46,5524126815092 ,10,6025831580437
27.7951238 ,Left ,62,9660163317549 ,46,6206478891915 ,10,5889602532462
27.8095753 ,Left ,62,9415606896964 ,46,674570796336 ,10,5828747987362
27.8322677 ,Left ,62,9753608357656 ,46,6666227250106 ,10,5768651259417
27.8397556 ,Left ,62,9674503682963 ,46,6332091719579 ,10,6321869427038
27.8625099 ,Left ,62,9393814568138 ,46,6011832041302 ,10,6765411700488
27.8848237 ,Left ,62,9001665790767 ,46,6460366800147 ,10,6752835183327
27.9000157 ,Left ,62,9252263346999 ,46,7291238685524 ,10,6561102595663
27.9223309 ,Left ,62,9888480151508 ,46,790365872166 ,10,6489915734164
27.9447869 ,Left ,63,0322865489233 ,46,819182390793 ,10,6510652372941
27.9599591 ,Left ,63,0183551611614 ,46,8456138197343 ,10,6629069727718
27.9825537 ,Left ,62,9826136940488 ,46,8799390279854 ,10,6850809654488
28.012733 ,Left ,62,9520520205589 ,46,9021473310273 ,10,7160217267852
28.0278279 ,Left ,62,9059257843595 ,46,8914985691182 ,10,7737626950688
28.0649112 ,Left ,62,8971176329547 ,46,8506450723386 ,10,7638443876415
28.0796769 ,Left ,62,8596912325144 ,46,9275868292424 ,10,7242710194296
28.102549 ,Left ,62,876685527121 ,47,0387268950098 ,10,6843678101659
28.125147 ,Left ,62,9289205142558 ,47,1246357423838 ,10,6516474522642
28.1402259 ,Left ,62,9376604604947 ,47,1711429094211 ,10,6297932158837
28.1627026 ,Left ,62,9072713383985 ,47,2046235196202 ,10,6016510162018
28.1850312 ,Left ,62,8894053399812 ,47,1862866346915 ,10,5885405139607
28.2000385 ,Left ,62,8777861293783 ,47,1240448457425 ,10,5927940356326
28.2225432 ,Left ,62,8291752658281 ,47,0537694889871 ,10,6136210954342
28.2450522 ,Left ,62,783373848107 ,47,0159878008564 ,10,6522185194392
28.2601614 ,Left ,62,7669290386267 ,47,0343172981468 ,10,709487624648
28.2900908 ,Left ,62,8507593662554 ,47,0465535322252 ,10,7478585848084
28.3122628 ,Left ,62,9281229231852 ,47,0548109751092 ,10,7372033382503
28.3430652 ,Left ,63,0008825771124 ,47,0167550545007 ,10,5519154601083
28.3653202 ,Left ,62,9624963082023 ,46,9607867574802 ,10,4438352011053
28.3802507 ,Left ,62,9426951777867 ,46,8965410754823 ,10,3441527221409
28.4028564 ,Left ,62,9349174238888 ,46,8155957427238 ,10,2623031014806
28.42518 ,Left ,62,9188640285864 ,46,7208970900557 ,10,2064707159675
28.4627683 ,Left ,62,9533089934907 ,46,5722004986649 ,10,2239320878832
28.485266 ,Left ,63,0079088336527 ,46,5033940705765 ,10,2611787980696
28.5226555 ,Left ,63,049349390602 ,46,3879941840278 ,10,3289782462742
28.5451076 ,Left ,63,0366684177519 ,46,3507423052008 ,10,3382834403425
28.5830733 ,Left ,63,0336870670469 ,46,2957889792913 ,10,3112936177636
28.6055686 ,Left ,63,0112162686959 ,46,2834467717515 ,10,2945486822327
28.643043 ,Left ,62,8766387416138 ,46,3732716095054 ,10,3445708228321
28.6802404 ,Left ,63,0083804863457 ,46,4394934820341 ,10,4849245358975
28.7026808 ,Left ,63,0252574785269 ,46,5307035407833 ,10,5131971389384
28.7251388 ,Left ,63,0787530983582 ,46,6405095804789 ,10,5094097939602
28.7626166 ,Left ,63,0747765238059 ,46,744330428852 ,10,4846409703007
28.7999445 ,Left ,63,0195288053966 ,46,7120246336951 ,10,4420374646809
28.8224453 ,Left ,62,9967421913308 ,46,6734466304599 ,10,4536829289248
28.860294 ,Left ,62,9907864189867 ,46,608761578022 ,10,4874442033309
28.8826056 ,Left ,62,9840775225794 ,46,584420180919 ,10,5025750769262
28.9275017 ,Left ,62,9731063173689 ,46,5622805567237 ,10,5118464455584
28.9500587 ,Left ,62,9682930201722 ,46,5760492435883 ,10,5198183231338
28.9802317 ,Left ,62,9533185008597 ,46,5925386000471 ,10,5452226238869
29.0025927 ,Left ,62,9240317972825 ,46,6033173511618 ,10,5743206066955
29.0402322 ,Left ,62,8823902121945 ,46,6159931915873 ,10,6452637952864
29.0627625 ,Left ,62,8680957455993 ,46,6012931344202 ,10,6691022519427
29.1001042 ,Left ,62,8360790490977 ,46,5161986717072 ,10,709004554774
29.1227292 ,Left ,62,8118669706227 ,46,4637545218346 ,10,7327110975181
29.1600197 ,Left ,62,7642439262714 ,46,4214071029707 ,10,7308271704256
29.1902162 ,Left ,62,7359699277892 ,46,4271822886429 ,10,7178964705628
29.2274391 ,Left ,62,7706808379804 ,46,4282600578362 ,10,7094080939246
29.2426458 ,Left ,62,7469690191124 ,46,4327842930758 ,10,7203787745414
29.2801663 ,Left ,62,6921101644401 ,46,4753820408115 ,10,7423832671503
29.3022736 ,Left ,62,6831142093984 ,46,5047000635869 ,10,7489640904972
29.3396883 ,Left ,62,6279394622674 ,46,5639744404434 ,10,7770701259446
29.362603 ,Left ,62,5744439159431 ,46,5951844733826 ,10,8041581305424
29.399839 ,Left ,62,4906934794642 ,46,6542301668732 ,10,8642223342755
29.4224246 ,Left ,62,4607050273111 ,46,6711547296499 ,10,8872834631944
29.460122 ,Left ,62,3790473030897 ,46,6579924280604 ,10,9505902925453
29.4826549 ,Left ,62,3617045268937 ,46,6523296860511 ,11,0033489700518
29.5202275 ,Left ,62,3996995969527 ,46,7291833427236 ,11,0510398714747
29.5425923 ,Left ,62,4988242940213 ,46,7301522443363 ,11,0145885769321
29.5800598 ,Left ,62,6654162044436 ,46,6446969618137 ,10,8012996833915
29.6027297 ,Left ,62,7330298147019 ,46,5779078761568 ,10,6701974556502
29.625041 ,Left ,62,7788401561957 ,46,4945850088024 ,10,5666369488152
29.670059 ,Left ,62,8183619773201 ,46,3414466229053 ,10,4675274409927
29.6926959 ,Left ,62,831941537807 ,46,2786000891774 ,10,4776722912681
29.7377128 ,Left ,62,9586214026207 ,46,1550557779285 ,10,5761833474617
29.7526402 ,Left ,62,927405636946 ,46,2144904824848 ,10,5556893709114
29.7749131 ,Left ,62,929138781975 ,46,3006210149226 ,10,5160721691376
29.7974206 ,Left ,62,965762853732 ,46,3731386841073 ,10,4816639723406
29.8126198 ,Left ,62,9779059539234 ,46,4376061886891 ,10,4757345061601
29.8349369 ,Left ,62,9512983555435 ,46,5013298748493 ,10,4848104885755
29.8650611 ,Left ,62,9559290780102 ,46,5090688731879 ,10,4934543729145
29.8799791 ,Left ,62,9392307425935 ,46,475201663206 ,10,5564117915918
29.9027106 ,Left ,62,9262447677824 ,46,4308301678863 ,10,6197258149896
29.9327136 ,Left ,62,9279725797214 ,46,5457771693381 ,10,595012484833
29.9550364 ,Left ,62,9846424368179 ,46,6143071847454 ,10,5819243350894
29.9775809 ,Left ,63,0666997799672 ,46,6454859045077 ,10,5711786375419
29.9926554 ,Left ,63,0816969416035 ,46,6834836459225 ,10,5912544269921
30.0227036 ,Left ,63,0645176748645 ,46,715492763602 ,10,6035695657067
30.0451002 ,Left ,63,0616660931238 ,46,7095476818703 ,10,6230381965641
30.0752572 ,Left ,62,9836244109089 ,46,64244637978 ,10,7183128948476
30.0976001 ,Left ,62,9478973391965 ,46,6800791355694 ,10,6913562842636
30.1199869 ,Left ,62,8922518666549 ,46,8367783603763 ,10,6134748226257
30.1352234 ,Left ,62,9342045081092 ,46,9946813617365 ,10,5337700215032
30.1575796 ,Left ,62,9934254407698 ,47,0854463081789 ,10,4798684062972
30.1800303 ,Left ,63,0134743068426 ,47,1121650672891 ,10,4486290316181
30.1951844 ,Left ,62,9493887724673 ,47,1162713245701 ,10,4299948193362
30.2178452 ,Left ,62,9258335394134 ,47,1319835246767 ,10,4098435637836
30.2403045 ,Left ,62,9321230440962 ,47,0847027091198 ,10,405810968093
30.2547377 ,Left ,62,8931348296549 ,46,9932890215332 ,10,4157462319805
30.2774413 ,Left ,62,8224832103575 ,46,920543691476 ,10,4392908582959
30.3073591 ,Left ,62,7657049308879 ,46,907307246392 ,10,4715703489079
30.3222287 ,Left ,62,8204932216111 ,46,9297595788476 ,10,4737792205926
30.3449485 ,Left ,62,8778554876751 ,46,9306753954417 ,10,4339914371859
30.3598578 ,Left ,62,9029225228493 ,46,9055241433641 ,10,3620645424448
30.3750449 ,Left ,62,9002934303427 ,46,8347123209467 ,10,2673279724418
30.3974474 ,Left ,62,8776980209642 ,46,772937534918 ,10,1647074747648
30.420008 ,Left ,62,8721899808052 ,46,7122327792629 ,10,070342967113
30.4349831 ,Left ,62,8543066085528 ,46,6401161752148 ,10,0206269121793
30.4648009 ,Left ,62,8402153069463 ,46,5645864043337 ,10,0178991792991
30.4948786 ,Left ,62,8337358205411 ,46,4825469382344 ,10,0536558415509
30.5101064 ,Left ,62,8497423756687 ,46,4064416189148 ,10,1013773086576
30.5326502 ,Left ,62,8670735500709 ,46,3420399478411 ,10,160614144103
30.555458 ,Left ,62,8998772073462 ,46,4112131479609 ,10,2238057282584
30.5780054 ,Left ,62,9474149195485 ,46,4493111105885 ,10,2169509198509
30.6001364 ,Left ,63,0030307672384 ,46,4547915842487 ,10,1983934692579
30.6148721 ,Left ,62,9756733306356 ,46,4073599621202 ,10,2090561106932
30.6373019 ,Left ,62,9236672234513 ,46,3822898509315 ,10,2287606485891
30.6599651 ,Left ,62,8787926278456 ,46,3578874347104 ,10,2659977145257
30.6749339 ,Left ,62,8482403160025 ,46,3420815973036 ,10,3110002391958
30.6973482 ,Left ,62,8325896456514 ,46,3314033983031 ,10,3470633751561
30.7200118 ,Left ,62,8095555331421 ,46,2961999083827 ,10,3803896470137
30.7349414 ,Left ,62,7991395760403 ,46,2442712167128 ,10,3967674662942
30.7572837 ,Left ,62,7929039259722 ,46,2232042012488 ,10,4050602685023
30.7798393 ,Left ,62,774431253906 ,46,2361096591124 ,10,4058691988609
30.7949155 ,Left ,62,7801795647788 ,46,2563721708784 ,10,4053162136044
30.8172284 ,Left ,62,7967551085291 ,46,2666009581467 ,10,4080195052807
30.8397878 ,Left ,62,7967551085291 ,46,2666009581467 ,10,4080195052807
30.862452 ,Left ,62,7962225889832 ,46,2649013901994 ,10,4073812494866
30.8780113 ,Left ,62,794443135668 ,46,2656198713833 ,10,4067899323193
30.8999786 ,Left ,62,7806549467711 ,46,2805359033068 ,10,414891931301
30.9147227 ,Left ,62,7671101475396 ,46,3104931207276 ,10,4332643168873
30.937509 ,Left ,62,7383197240822 ,46,3502878709909 ,10,4576879513839
30.9600905 ,Left ,62,7056829682303 ,46,3891146703381 ,10,4863236217704
30.982439 ,Left ,62,6594693568264 ,46,4297120582004 ,10,5292512969922
30.9974237 ,Left ,62,6135682894978 ,46,4747048931217 ,10,5807119630804
31.0202259 ,Left ,62,567193699002 ,46,5174698098943 ,10,6487245004132
31.0422099 ,Left ,62,5067907652058 ,46,5570793228071 ,10,7161143491734
31.0572454 ,Left ,62,4426124557181 ,46,5982368653915 ,10,7785521798839
31.0798131 ,Left ,62,3997594604688 ,46,6238497567354 ,10,8238861057203
31.1024708 ,Left ,62,3611507028027 ,46,6390974835879 ,10,8681653494358
31.1255075 ,Left ,62,314420562217 ,46,6455373200953 ,10,9057662264834
31.1481982 ,Left ,62,2630155406162 ,46,6583305736703 ,10,9378367662293
31.1780238 ,Left ,62,2360743187317 ,46,6994397310212 ,10,9591070301043
31.2079569 ,Left ,62,2750603154232 ,46,7360628958468 ,10,9560773476328
31.2300943 ,Left ,62,3242124679625 ,46,7534375632278 ,10,9124215679903
31.2450918 ,Left ,62,4186428861127 ,46,7552726646118 ,10,8241767117133
31.2602262 ,Left ,62,4988651714978 ,46,7380828703401 ,10,7082532742931
31.2827163 ,Left ,62,5693365336128 ,46,6942436455086 ,10,5811623378619
31.297559 ,Left ,62,6298889155036 ,46,6187270174143 ,10,4626487402706
31.3200385 ,Left ,62,6817433293878 ,46,5202555692581 ,10,3830837574073
31.342281 ,Left ,62,7127709026786 ,46,428403702376 ,10,3454148712267
31.3573512 ,Left ,62,7464307287389 ,46,3329715701608 ,10,3425820748068
31.3798158 ,Left ,62,7861404949383 ,46,2421414005217 ,10,354177670163
31.4025436 ,Left ,62,8099795646208 ,46,1802193899992 ,10,3876046264647
31.4175072 ,Left ,62,8642436814823 ,46,1517965133807 ,10,4333481116304
31.4399343 ,Left ,62,8963329487608 ,46,1670610137285 ,10,4206085632586
31.4623792 ,Left ,62,9075441142118 ,46,2090427838163 ,10,3877509022071
31.4775883 ,Left ,62,9301643978679 ,46,2418727141495 ,10,360055343418
31.5000931 ,Left ,62,9319727944089 ,46,3040687400581 ,10,3432712373006
31.5224777 ,Left ,62,9201645766652 ,46,3646584362678 ,10,3561054087441
31.5373564 ,Left ,62,9023689035601 ,46,4182478752334 ,10,3741467683999
31.5600645 ,Left ,62,8738090219716 ,46,4009964014175 ,10,425814661503
31.5825277 ,Left ,62,8864859568736 ,46,3533414840598 ,10,4907289058271
31.6046983 ,Left ,62,8605152545083 ,46,3940554485702 ,10,5052253419754
31.6280802 ,Left ,62,8508202023475 ,46,4792910411037 ,10,4716704913177
31.6504666 ,Left ,62,8809519419115 ,46,5612250916521 ,10,4466849057925
31.6654949 ,Left ,62,9345103236675 ,46,6140922154939 ,10,4221094593717
31.6803051 ,Left ,62,9297324642872 ,46,6541838497462 ,10,4063836502871
31.7027476 ,Left ,62,8894998379877 ,46,6796545457529 ,10,4030443519318
31.7176763 ,Left ,62,8705008944784 ,46,6794772184939 ,10,4383725336788
31.7400941 ,Left ,62,8864743606833 ,46,6685316918765 ,10,5167462110922
31.762749 ,Left ,62,8949380175549 ,46,6553528027871 ,10,5914352514271
31.7778476 ,Left ,62,8301679858797 ,46,6590352307391 ,10,6095842273758
31.800401 ,Left ,62,7728218045821 ,46,7206750368584 ,10,5855623111273
31.8227621 ,Left ,62,7531357029029 ,46,8271237584664 ,10,5379160152879
31.8378872 ,Left ,62,821627581556 ,46,8936934405089 ,10,4942680041476
31.8604149 ,Left ,62,8697641718907 ,46,9310847307181 ,10,4546025939491
31.8901704 ,Left ,62,8200550346412 ,46,9672325111504 ,10,4207978312422
31.9126276 ,Left ,62,8004866397068 ,47,015800240852 ,10,3736689940768
31.9276261 ,Left ,62,8297668889578 ,47,0133819585909 ,10,3456083924396
31.9426897 ,Left ,62,8264149034242 ,46,9637438814212 ,10,3401856709489
31.9649782 ,Left ,62,7651002460709 ,46,8988598189792 ,10,3631054433671
31.9800661 ,Left ,62,70638400012 ,46,8597290623495 ,10,3919763089936
32.002433 ,Left ,62,6694589948291 ,46,8758067191555 ,10,4267519439492
32.0326107 ,Left ,62,7099116262086 ,46,9149968360069 ,10,4475440674188
32.0475656 ,Left ,62,7519797955284 ,46,906072831825 ,10,4373290159493
32.0700474 ,Left ,62,7778147168933 ,46,8882451948929 ,10,3770585806672
32.0851731 ,Left ,62,7617120524685 ,46,8243776827849 ,10,2819642291222
32.1002087 ,Left ,62,7286874587978 ,46,7035748712094 ,10,1817168925843
32.1226483 ,Left ,62,692316727337 ,46,565394052806 ,10,0731549468756
32.1451465 ,Left ,62,6595173267205 ,46,4249517728368 ,9,99682067236382
32.160285 ,Left ,62,6436269569836 ,46,3071168820494 ,9,96972662864974
32.1828295 ,Left ,62,6587579058475 ,46,2132223704739 ,9,9850766568351
32.2049175 ,Left ,62,6732262627816 ,46,156514192724 ,10,0455635906128
32.2200087 ,Left ,62,6745758887049 ,46,1327537498206 ,10,1062475080341
32.2424925 ,Left ,62,7184131357266 ,46,1621316277396 ,10,1796045547601
32.2647546 ,Left ,62,7609223484103 ,46,2349297869297 ,10,2410446964467
32.2797922 ,Left ,62,8110064572522 ,46,3176706302012 ,10,2787965230966
32.303083 ,Left ,62,8168469979112 ,46,3529721792417 ,10,2886075041266
32.3256714 ,Left ,62,8047244540303 ,46,335644504072 ,10,2988103477427
32.3399736 ,Left ,62,7587316768678 ,46,3243931351754 ,10,3180516562849
32.3623325 ,Left ,62,7073846472838 ,46,3230420851969 ,10,3584581588449
32.3848438 ,Left ,62,6765054335643 ,46,3224652830346 ,10,4103687067861
32.400204 ,Left ,62,6485554882893 ,46,3229904351087 ,10,4619247537549
32.4226104 ,Left ,62,6345919174829 ,46,3176622242151 ,10,4998259787583
32.4453188 ,Left ,62,6176949442285 ,46,2896996950495 ,10,532766877182
32.4602493 ,Left ,62,6182462643868 ,46,2518382607159 ,10,5476211988262
32.4825452 ,Left ,62,5981230065503 ,46,2516635122208 ,10,565273477605
32.5050712 ,Left ,62,5937939113294 ,46,2664606296099 ,10,575160303159
32.520198 ,Left ,62,6118432389368 ,46,2659891674511 ,10,5805972039913
32.542818 ,Left ,62,6281049683756 ,46,2430092878573 ,10,5828253886447
32.5651308 ,Left ,62,6138960153232 ,46,2107129177327 ,10,5885298480041
32.5802107 ,Left ,62,5839927309438 ,46,202312397232 ,10,5940086470158
32.6029441 ,Left ,62,5673021300515 ,46,2220821703789 ,10,5986897726227
32.6252817 ,Left ,62,5681627196768 ,46,2620437261203 ,10,6071622086471
32.640318 ,Left ,62,5645102681693 ,46,3017780343472 ,10,6201511834259
32.6628944 ,Left ,62,5354628062286 ,46,3407648773951 ,10,632457625443
32.6850439 ,Left ,62,493786766986 ,46,3815188108245 ,10,6462352576158
32.7001779 ,Left ,62,4469600170522 ,46,4285688749867 ,10,6609221735165
32.7301493 ,Left ,62,4019336296105 ,46,4865724538732 ,10,6783652938948
32.7529306 ,Left ,62,3601970575959 ,46,5407357734098 ,10,7024307211861
32.7679919 ,Left ,62,3090088971335 ,46,5927692865343 ,10,7297538566718
32.7828677 ,Left ,62,2552238869359 ,46,6414251734423 ,10,756225210468
32.8052361 ,Left ,62,2197554854517 ,46,6718136870957 ,10,7688190354627
32.8203836 ,Left ,62,2070474896963 ,46,6676615280904 ,10,7642404540329
32.8425825 ,Left ,62,1911624503701 ,46,6253099350003 ,10,7597300367054
32.8648844 ,Left ,62,1590980020613 ,46,559073565808 ,10,7639561767423
32.8872695 ,Left ,62,1408806692115 ,46,4961516866863 ,10,7980703964474
32.9023979 ,Left ,62,1572489958225 ,46,4630561094892 ,10,8544455991742
32.9247618 ,Left ,62,1953359230699 ,46,5010168807408 ,10,9003724356018
32.9472528 ,Left ,62,2413589464587 ,46,5583782701014 ,10,9140381829609
32.9626334 ,Left ,62,3391754744318 ,46,5997050746789 ,10,8569276533705
32.9849689 ,Left ,62,4432703410728 ,46,6037144711136 ,10,7612609442416
33.0076593 ,Left ,62,5076669258603 ,46,5898938446153 ,10,6463493306509
33.0224581 ,Left ,62,5453947534648 ,46,547475446399 ,10,5357384751074
33.0450651 ,Left ,62,5959936270356 ,46,4923125171934 ,10,4490034608869
33.0676032 ,Left ,62,6372873924403 ,46,4304858460145 ,10,3896417293817
33.0826005 ,Left ,62,6585077956825 ,46,3669377688126 ,10,3615373518401
33.1046081 ,Left ,62,6743634874964 ,46,3034260976859 ,10,3613939303888
33.1278936 ,Left ,62,7099160692255 ,46,2351177530923 ,10,4046493602662
33.14307 ,Left ,62,7460551466312 ,46,1848611490458 ,10,4412799276793
33.1649848 ,Left ,62,7714522356613 ,46,1594018595056 ,10,4653746317745
33.187575 ,Left ,62,7810552326305 ,46,1856511819509 ,10,4582301366402
33.2022275 ,Left ,62,7979721295655 ,46,2198457375248 ,10,4510351443484
33.2247551 ,Left ,62,8401148987811 ,46,2316404753982 ,10,4479515968416
33.2472641 ,Left ,62,8178774763877 ,46,2500080735912 ,10,4360080240209
33.2624493 ,Left ,62,7762739204652 ,46,2563507098885 ,10,4278409555478
33.2850405 ,Left ,62,7514554576454 ,46,2662137433255 ,10,4174898562872
33.3074006 ,Left ,62,7455047382488 ,46,2699269383532 ,10,4145401972814
33.322343 ,Left ,62,7489443052825 ,46,2727074625964 ,10,4197415236049
33.3450045 ,Left ,62,766274720988 ,46,2607103188832 ,10,4314651407946
33.3674685 ,Left ,62,7807751849225 ,46,2468679313245 ,10,4448185040402
33.3825407 ,Left ,62,7810906385896 ,46,2395338891601 ,10,4559284127817
33.4054999 ,Left ,62,7762350138962 ,46,2458555759748 ,10,4556139415771
33.4278891 ,Left ,62,7766599619306 ,46,2482643001951 ,10,4451697951806
33.443046 ,Left ,62,7747427107943 ,46,2504959902226 ,10,4321464757949
33.465355 ,Left ,62,7738684011172 ,46,2577799235106 ,10,4225667834925
33.4880115 ,Left ,62,762928896981 ,46,2745330024508 ,10,4290061180314
33.5026399 ,Left ,62,7701877618253 ,46,3273557029907 ,10,4418984507351
33.5252361 ,Left ,62,8324003846572 ,46,3686156587376 ,10,4398920995328
33.5477845 ,Left ,62,9114371763994 ,46,346493251418 ,10,4649736747042
33.5630312 ,Left ,62,9013600611556 ,46,3527534933495 ,10,5121606823097
33.5851589 ,Left ,62,8073136781768 ,46,422989521561 ,10,5012463612444
33.6078304 ,Left ,62,8009575200612 ,46,5191165222438 ,10,4699195952399
33.6376572 ,Left ,62,8664483653218 ,46,588435147177 ,10,4525174934132
33.645042 ,Left ,62,9257328237206 ,46,6053461226151 ,10,4387559098841
33.6672776 ,Left ,62,8953624046628 ,46,586911371916 ,10,4412249554271
33.6980484 ,Left ,62,832221105141 ,46,495396847048 ,10,4620626050873
33.7205695 ,Left ,62,8372950619681 ,46,4487501993512 ,10,4875582313303
33.7355519 ,Left ,62,849690282944 ,46,4108058306765 ,10,5116121208657
33.7577602 ,Left ,62,8598184835816 ,46,3883752268707 ,10,5273941223653
33.7800741 ,Left ,62,8551441819576 ,46,3782878944672 ,10,5485955975541
33.7950315 ,Left ,62,8449656819696 ,46,3803013166384 ,10,5723000262777
33.824985 ,Left ,62,8451110101423 ,46,3870389511087 ,10,5916643908997
33.847449 ,Left ,62,8470901528044 ,46,3905970626599 ,10,6107733615846
33.8625947 ,Left ,62,8181162768674 ,46,4048086948163 ,10,6379897222519
33.8776527 ,Left ,62,7913253860402 ,46,4340800399596 ,10,6697704148202
33.9001404 ,Left ,62,7941480152641 ,46,4625261867808 ,10,692051678486
33.9149116 ,Left ,62,7592863366086 ,46,4946633860467 ,10,7194417599658
33.9374035 ,Left ,62,7201204039249 ,46,4992392522384 ,10,738435130244
33.9598837 ,Left ,62,7175253144569 ,46,5264322487313 ,10,7437921135651
33.9751108 ,Left ,62,6934793530657 ,46,6363818744602 ,10,7222209941904
33.9975329 ,Left ,62,7242044557629 ,46,7549806012553 ,10,6879444975565
34.0199228 ,Left ,62,7656064148787 ,46,8197784960596 ,10,6613922474655
34.0574931 ,Left ,62,7596731812452 ,46,8719068232453 ,10,6188571217679
34.0798768 ,Left ,62,7268378516545 ,46,9026997891188 ,10,5986158577797
34.0950247 ,Left ,62,7307739157706 ,46,9207576890901 ,10,5649305486326
34.1174923 ,Left ,62,7667702607667 ,46,9161209075464 ,10,5293578324891
34.1404267 ,Left ,62,7825569451032 ,46,9069085472916 ,10,4925437020173
34.1555953 ,Left ,62,7459087729092 ,46,8968664578153 ,10,4627494891543
34.1855021 ,Left ,62,7208833784004 ,46,894130763719 ,10,4361642995448
34.2078091 ,Left ,62,7158233213422 ,46,8690378795463 ,10,426374017477
34.2230841 ,Left ,62,688323969336 ,46,8576067841921 ,10,4505720245617
34.2377601 ,Left ,62,647767276813 ,46,8833941419559 ,10,4811352620799
34.2600929 ,Left ,62,6822333698734 ,46,9699477602839 ,10,5105174915605
34.2974609 ,Left ,62,8183547596619 ,47,0159570236644 ,10,4617592217844
34.3199474 ,Left ,62,8725860962595 ,46,9578262662773 ,10,34970104424
34.3574108 ,Left ,62,7621620095581 ,46,7818695305751 ,10,1026390031789
34.3873375 ,Left ,62,7068284293305 ,46,6848557573712 ,10,0255110419713
34.4250007 ,Left ,62,6976966067647 ,46,5605441422077 ,10,0017167849752
34.44002 ,Left ,62,7356873649023 ,46,4926565368204 ,10,0188822102942
34.4776935 ,Left ,62,7722719631369 ,46,4342318210138 ,10,1424604375583
34.5001641 ,Left ,62,8078386009059 ,46,4895197112369 ,10,1851565058333
34.5375325 ,Left ,62,8687458945625 ,46,6018432687396 ,10,2332736882877
34.5600541 ,Left ,62,8221986945271 ,46,6200015793423 ,10,2255242604122
34.5974522 ,Left ,62,7187031890649 ,46,609208896176 ,10,2230834288735
34.6198569 ,Left ,62,6900596445664 ,46,5875366139039 ,10,2414893705001
34.6574651 ,Left ,62,6653264614447 ,46,5270626285718 ,10,2981973834783
34.6798526 ,Left ,62,6344895555986 ,46,4882496542246 ,10,3371688778522
34.7175884 ,Left ,62,640928356406 ,46,4266755695941 ,10,3949307305271
34.7400766 ,Left ,62,6488840687283 ,46,3976819494585 ,10,4133112225359
34.7775603 ,Left ,62,6305602805896 ,46,3958441421374 ,10,4279920969771
34.8001137 ,Left ,62,628793281763 ,46,3965641576233 ,10,4273750377808
34.8374718 ,Left ,62,6465545460473 ,46,3939428855164 ,10,4530790994343
34.8750797 ,Left ,62,6134143104634 ,46,4230773447999 ,10,4997638565458
34.8974644 ,Left ,62,6080845051446 ,46,4404118758406 ,10,5193105914556
34.9348945 ,Left ,62,5829807381913 ,46,4748719016092 ,10,5526925922344
34.9574512 ,Left ,62,5579305953301 ,46,4958415861175 ,10,5667793562767
34.9948611 ,Left ,62,501155030267 ,46,5620904430314 ,10,5915041816654
35.0174233 ,Left ,62,48078650916 ,46,5950563320225 ,10,6080845824795
35.0551877 ,Left ,62,4042133033639 ,46,6559555199924 ,10,6716610505695
35.0851791 ,Left ,62,3553806021329 ,46,6925721311284 ,10,7122450718648
35.1226516 ,Left ,62,3256899006025 ,46,706801786196 ,10,7663105149254
35.1375119 ,Left ,62,3313669347265 ,46,6913609781018 ,10,8014912888808
35.175267 ,Left ,62,3004495667372 ,46,7037949145369 ,10,8858048599732
35.1978512 ,Left ,62,3133459897952 ,46,749265647578 ,10,8959659816942
35.2352607 ,Left ,62,4051062532478 ,46,7990535860259 ,10,8721505382376
35.2577274 ,Left ,62,4908756870872 ,46,7728021900635 ,10,7962423557541
35.3027289 ,Left ,62,5662956491913 ,46,7080640648404 ,10,5833300845104
35.3250544 ,Left ,62,6355191250297 ,46,6424514730433 ,10,4784627423487
35.340234 ,Left ,62,6923007040809 ,46,5682656055839 ,10,394118799475
35.3772186 ,Left ,62,726234578744 ,46,420932942097 ,10,3360528191494
35.3997736 ,Left ,62,7264929364861 ,46,3806399241028 ,10,3564484161572
35.4378571 ,Left ,62,8735004845669 ,46,2932580295963 ,10,420620981124
35.4604393 ,Left ,62,8937402349483 ,46,2559014907568 ,10,4652520771516
35.5056344 ,Left ,62,8189188343795 ,46,363431633824 ,10,4188648534035
35.5206334 ,Left ,62,8566091731402 ,46,4220774670255 ,10,4036049423284
35.5502975 ,Left ,62,8628129917832 ,46,5299474870309 ,10,3950106073908
35.5724643 ,Left ,62,8611394444941 ,46,5382177363691 ,10,4124494628195
35.5951319 ,Left ,62,8570781674662 ,46,4885749786196 ,10,4413459850916
35.6100966 ,Left ,62,8085077569848 ,46,432311060957 ,10,5183664298109
35.6325229 ,Left ,62,7944566282102 ,46,3722784363176 ,10,5697130601353
35.6549021 ,Left ,62,7951972746035 ,46,3913464612492 ,10,5717134222048
35.6701505 ,Left ,62,7951355493556 ,46,4666020760801 ,10,5663057297148
35.6926536 ,Left ,62,82365409793 ,46,5452115538227 ,10,5633491958446
35.7148666 ,Left ,62,8425404937003 ,46,5820090076852 ,10,5829603989573
35.7300708 ,Left ,62,8474306721806 ,46,5948227404247 ,10,6038463273562
35.7526887 ,Left ,62,8459960010362 ,46,5808056365326 ,10,6318139617098
35.7751309 ,Left ,62,8165068535135 ,46,5662071550284 ,10,6782925850069
35.7902039 ,Left ,62,8202761057242 ,46,5700734541735 ,10,7392957203294
35.8125228 ,Left ,62,7783255081081 ,46,5790379860605 ,10,8294112646977
35.8347552 ,Left ,62,7786249438279 ,46,5817467315089 ,10,8615942099046
35.8500955 ,Left ,62,7623043604344 ,46,6270581566894 ,10,8549216804806
35.8724914 ,Left ,62,7353021103577 ,46,7394103950057 ,10,8354178893694
35.8946789 ,Left ,62,7647553693556 ,46,8734575672789 ,10,8023632052055
35.9100074 ,Left ,62,8258921033529 ,46,9844460970044 ,10,7737710946176
35.9323232 ,Left ,62,8243088440827 ,47,0608110042369 ,10,7686410056434
35.9552977 ,Left ,62,7683110250231 ,47,1063356105854 ,10,7748149944205
35.9706017 ,Left ,62,7599527125243 ,47,1403213682345 ,10,7553542332324
35.9931972 ,Left ,62,7590654334005 ,47,1343819459013 ,10,7349178661445
36.0153434 ,Left ,62,7438921109708 ,47,1038346543439 ,10,7171535743845
36.0300574 ,Left ,62,702248805582 ,47,0439265548697 ,10,7132651130114
36.060194 ,Left ,62,6531184913173 ,46,9788165016725 ,10,7384331743332
36.0830642 ,Left ,62,6152476653978 ,46,9746555183052 ,10,7752774093045
36.0979712 ,Left ,62,6629685716267 ,47,013693360399 ,10,8003680747337
36.1129557 ,Left ,62,7357837735387 ,47,0256221972789 ,10,7700624758868
36.1352598 ,Left ,62,807143559034 ,47,0068189565029 ,10,6818297235579
36.149796 ,Left ,62,7871772016176 ,46,9274330201027 ,10,5561992996858
36.172226 ,Left ,62,7583104333047 ,46,8356229332754 ,10,4357508401545
36.194746 ,Left ,62,7291237212869 ,46,7303052276778 ,10,3367793364391
36.209864 ,Left ,62,6899235849447 ,46,6352191723717 ,10,2818499078641
36.2325402 ,Left ,62,6680440774442 ,46,5788521642309 ,10,2640570088264
36.2547634 ,Left ,62,6780174560078 ,46,5281200509932 ,10,2506334104026
36.2699241 ,Left ,62,7018423192998 ,46,4434346343242 ,10,2871430141147
36.2925488 ,Left ,62,7302079783762 ,46,4089609502774 ,10,3489627182227
36.3226376 ,Left ,62,75056834849 ,46,427446350326 ,10,3985280611641
36.3373107 ,Left ,62,7884871506123 ,46,4815894728083 ,10,4317255817691
36.3600803 ,Left ,62,8320256929456 ,46,5200938905515 ,10,4522989971964
36.3973546 ,Left ,62,8025440919561 ,46,5010310967297 ,10,469201392987
36.419773 ,Left ,62,7557213194237 ,46,4665984291835 ,10,4677037427938
36.4422708 ,Left ,62,6979419396475 ,46,4406879267074 ,10,4816730850121
36.4574344 ,Left ,62,6879758278059 ,46,411397461896 ,10,5055516606506
36.480383 ,Left ,62,6782488856139 ,46,3764002728268 ,10,5378871226419
36.5030951 ,Left ,62,6610535379217 ,46,3385097587334 ,10,5729034241332
36.5326726 ,Left ,62,6582990922226 ,46,2972414780629 ,10,5984781653163
36.554789 ,Left ,62,6666830832759 ,46,3101535550395 ,10,5969630647163
36.5699279 ,Left ,62,6961295632107 ,46,3168963004831 ,10,5957796593671
36.5925995 ,Left ,62,7188491276144 ,46,3158148311088 ,10,5979742588638
36.6149476 ,Left ,62,7167881192226 ,46,3074790042357 ,10,6029882029668
36.6299454 ,Left ,62,6977416387577 ,46,3055554210502 ,10,6095566497937
36.6525089 ,Left ,62,6813338957543 ,46,3179500981871 ,10,6205089594027
36.6750809 ,Left ,62,674605118835 ,46,3400252768672 ,10,6312510801209
36.6976438 ,Left ,62,6603246748672 ,46,3658421209131 ,10,6445542992481
36.7127356 ,Left ,62,6331640623353 ,46,4024939914779 ,10,6601982658231
36.7351079 ,Left ,62,6037412645862 ,46,4389878252125 ,10,6731413259611
36.7573936 ,Left ,62,5685576871195 ,46,480077409458 ,10,686466662669
36.7725474 ,Left ,62,529614155968 ,46,514412674676 ,10,7027129259044
36.7949743 ,Left ,62,4880725587584 ,46,5612130728102 ,10,7333433560439
36.8176932 ,Left ,62,4369588547929 ,46,6108911375011 ,10,7648902309196
36.8327835 ,Left ,62,4025208286766 ,46,6513616031879 ,10,7836797210183
36.8551726 ,Left ,62,3864133787278 ,46,6587186693443 ,10,7868063528623
36.8774553 ,Left ,62,3802833154228 ,46,6245005209226 ,10,7845717076389
36.8925451 ,Left ,62,3619932515127 ,46,5716619154686 ,10,7953751138578
36.9150285 ,Left ,62,315808403009 ,46,566918642353 ,10,8118654002507
36.937607 ,Left ,62,3104075666983 ,46,5768849240607 ,10,829258116998
36.952582 ,Left ,62,3657514869654 ,46,5883494690349 ,10,8795034562458
36.9749556 ,Left ,62,421875046036 ,46,6115900582788 ,10,9511850891894
36.9974538 ,Left ,62,4482725599219 ,46,6472977974807 ,10,9870326119249
37.012228 ,Left ,62,5202416706111 ,46,6909483284692 ,10,9645522398008
37.0348285 ,Left ,62,6039216996093 ,46,7184089184797 ,10,9085847339038
37.0572483 ,Left ,62,6861059857337 ,46,7071111178939 ,10,8319279189359
37.0725321 ,Left ,62,7204669705287 ,46,6678362162816 ,10,746594333586
37.0950362 ,Left ,62,7451063353327 ,46,6190111179252 ,10,6675249057717
37.1176796 ,Left ,62,7368948359819 ,46,5626061525796 ,10,5982888182036
37.1326076 ,Left ,62,7109897722244 ,46,4993161662699 ,10,5457565541862
37.1625468 ,Left ,62,69973497816 ,46,4421400336241 ,10,5258353547567
37.1847997 ,Left ,62,7022435936412 ,46,4125571077154 ,10,5307951555904
37.199915 ,Left ,62,7575641701171 ,46,3567670471816 ,10,5674344406961
37.2150286 ,Left ,62,8323141503653 ,46,3036520102091 ,10,6152144873585
37.237242 ,Left ,62,826149421751 ,46,3042394523301 ,10,6337319289855
37.2529179 ,Left ,62,7946532879943 ,46,3609833198768 ,10,6035936447953
37.2755005 ,Left ,62,8257387954387 ,46,422956922325 ,10,5625820417944
37.2974733 ,Left ,62,8471685799747 ,46,4663238173338 ,10,5467755056472
37.3128116 ,Left ,62,8419507825359 ,46,5114256279586 ,10,5400716811413
37.3349337 ,Left ,62,8103583297957 ,46,5789787561624 ,10,5440694079538
37.3575401 ,Left ,62,8462987537923 ,46,5746686808704 ,10,5620059568133
37.3724163 ,Left ,62,9083387263328 ,46,5240311674326 ,10,6105025168305
37.3949663 ,Left ,62,8783071637152 ,46,5257659105714 ,10,6516202741362
37.4173041 ,Left ,62,8463330902572 ,46,5957220336536 ,10,6322813114564
37.4400616 ,Left ,62,8848076766938 ,46,6655439014218 ,10,6122507974721
37.4623678 ,Left ,62,957028371713 ,46,725806081198 ,10,5841791082256
37.492637 ,Left ,62,969779544621 ,46,8049909170111 ,10,6225920404507
37.5224437 ,Left ,62,9381266524978 ,46,8089967240183 ,10,6552564104002
37.5455533 ,Left ,62,9225523668754 ,46,7645223389843 ,10,7174699535686
37.5605368 ,Left ,62,9148784809374 ,46,7123263113112 ,10,7885346419281
37.5755312 ,Left ,62,8823311816794 ,46,7015721567305 ,10,8063108664348
37.5976822 ,Left ,62,8515697273837 ,46,7534847884244 ,10,7875532318335
37.6203499 ,Left ,62,8327126167069 ,46,8504830129252 ,10,7504367363556
37.6351854 ,Left ,62,8762262765653 ,46,9375359603192 ,10,7174849188534
37.6575504 ,Left ,62,8960212769598 ,46,9904085309703 ,10,6969456992147
37.6802212 ,Left ,62,8863005608782 ,47,0506824747032 ,10,6803345859638
37.6951789 ,Left ,62,8589562271426 ,47,1008462646429 ,10,6413485623646
37.7178933 ,Left ,62,8754584422432 ,47,1188884936321 ,10,592506649038
37.7403014 ,Left ,62,8882502074101 ,47,0717947031157 ,10,5537861124458
