timestamp,event,roll,pitch,yaw
0.052994 ,Left ,68,8128195841966 ,46,9163850657225 ,94,8041574221197
0.0709992 ,Left ,68,8121381844689 ,46,9180168819748 ,94,8051592788668
0.0922084 ,Left ,68,8121381844689 ,46,9180168819748 ,94,8051592788668
0.1132836 ,Left ,68,8117372425481 ,46,918352086612 ,94,8042647025113
0.1310375 ,Left ,68,8168951912303 ,46,9230056570724 ,94,8090057756179
0.1522054 ,Left ,68,8272360668236 ,46,9245646015877 ,94,815665749794
0.1733089 ,Left ,68,8414199614721 ,46,9185427683725 ,94,8234213923432
0.1913274 ,Left ,68,8457190421323 ,46,9080292263625 ,94,8361574504504
0.2124087 ,Left ,68,8475879019901 ,46,8948980680232 ,94,8525224302867
0.2333936 ,Left ,68,8565707775385 ,46,8770258812439 ,94,8733683787236
0.2510537 ,Left ,68,8681603563338 ,46,855769365573 ,94,9001002089627
0.2722355 ,Left ,68,8856400596415 ,46,8298380438819 ,94,9234081760275
0.2932946 ,Left ,68,8948205971169 ,46,8060148955246 ,94,9494577559748
0.3110206 ,Left ,68,9014116162572 ,46,7819148016707 ,94,9794914273568
0.3324872 ,Left ,68,9126443053802 ,46,7531453718158 ,95,0025241706559
0.3550571 ,Left ,68,9215514017492 ,46,7263396744784 ,95,0221180017549
0.3714643 ,Left ,68,921844314052 ,46,6987741081644 ,95,0380061258856
0.3926369 ,Left ,68,9247277427101 ,46,6713405620545 ,95,0542383961012
0.4132087 ,Left ,68,9203871834768 ,46,6406701435576 ,95,0743563241882
0.4312762 ,Left ,68,92317685419 ,46,6044063015994 ,95,0893480919127
0.4537331 ,Left ,68,9259797546907 ,46,5681286767922 ,95,1043557105848
0.4733247 ,Left ,68,921722458992 ,46,5262589236698 ,95,1229685168001
0.491049 ,Left ,68,9192965059981 ,46,4773282421478 ,95,1416968372266
0.5135109 ,Left ,68,9150680329087 ,46,4318846506511 ,95,1659590248
0.5286112 ,Left ,68,9205971177022 ,46,3852619562795 ,95,1894385515688
0.5511664 ,Left ,68,9349026044335 ,46,3403674938204 ,95,2149993425051
0.573744 ,Left ,68,9395539100973 ,46,3020121166354 ,95,2439267468262
0.5936075 ,Left ,68,9357575933571 ,46,2692972568818 ,95,2745142519846
0.6112883 ,Left ,68,930679845192 ,46,2445055008462 ,95,3000438196903
0.6330711 ,Left ,68,9237538351392 ,46,2258908000163 ,95,3201732069779
0.6542485 ,Left ,68,9152491885143 ,46,2165014995343 ,95,3370907486945
0.6704439 ,Left ,68,914584505736 ,46,2075782242666 ,95,3505507086463
0.6930069 ,Left ,68,9087157402158 ,46,1984401557431 ,95,3634664457809
0.7141544 ,Left ,68,8955390905658 ,46,1895649505873 ,95,3791311760411
0.7379239 ,Left ,68,8797302662655 ,46,1840259400542 ,95,3932456308339
0.7526374 ,Left ,68,8607604771996 ,46,1775486170453 ,95,4121285483856
0.7670394 ,Left ,68,8481264419666 ,46,1703280562299 ,95,4324755474039
0.7903973 ,Left ,68,8352025507411 ,46,1644138766724 ,95,4546984963148
0.8127352 ,Left ,68,8228059723467 ,46,1600086610148 ,95,4858535083347
0.8272433 ,Left ,68,8078193323775 ,46,1563067046357 ,95,5264413548893
0.8503354 ,Left ,68,7974177717152 ,46,1432640251133 ,95,5671440327685
0.8730021 ,Left ,68,789100584343 ,46,1253919414021 ,95,6005509806492
0.8873154 ,Left ,68,7763910823903 ,46,1030838729124 ,95,640722980251
0.9104827 ,Left ,68,8027058432784 ,46,0677552388582 ,95,6745348912353
0.932989 ,Left ,68,8149289262827 ,46,0060197006844 ,95,7034761732449
0.954419 ,Left ,68,8052109229536 ,45,9332134927533 ,95,7324872563667
0.9706413 ,Left ,68,7804907882139 ,45,8508479054905 ,95,7790092893435
0.9929644 ,Left ,68,7315142049046 ,45,7542931916264 ,95,8419978157091
1.0140516 ,Left ,68,7104537582951 ,45,656995085494 ,95,9044737447746
1.0304801 ,Left ,68,6943476903266 ,45,5954043815716 ,95,9535190392913
1.0526954 ,Left ,68,6950788334805 ,45,5604713725661 ,95,9959119517035
1.0741147 ,Left ,68,6924883006608 ,45,5341621532197 ,96,0321508933993
1.0903336 ,Left ,68,675416408586 ,45,5273790936168 ,96,0527338501044
1.1128154 ,Left ,68,641633183608 ,45,558922723809 ,96,0579531339776
1.1340589 ,Left ,68,6369206780438 ,45,5891827098053 ,96,0479868044821
1.1503524 ,Left ,68,6764015224874 ,45,6065531906394 ,96,0235416835562
1.1729101 ,Left ,68,7060384618387 ,45,6052460309312 ,95,9978314696373
1.194123 ,Left ,68,7089332253335 ,45,6049448104837 ,95,972653113632
1.2102144 ,Left ,68,7110423288603 ,45,6043169751106 ,95,9445924387359
1.2333678 ,Left ,68,7049698358434 ,45,5995017348844 ,95,9110869093472
1.2544957 ,Left ,68,7237502348507 ,45,6051512526585 ,95,8852919155454
1.2708887 ,Left ,68,7231821883698 ,45,6078917468639 ,95,8847127021871
1.2931437 ,Left ,68,7346665103514 ,45,6254486452547 ,95,8807840402477
1.3141878 ,Left ,68,7026791622364 ,45,6304336451317 ,95,8602160205374
1.3302882 ,Left ,68,6809731397297 ,45,6099225053895 ,95,8426481753164
1.3532519 ,Left ,68,7218248777831 ,45,5995480810914 ,95,8168603059999
1.3740853 ,Left ,68,7404787959026 ,45,6110540687107 ,95,7637885471456
1.390299 ,Left ,68,7467573273752 ,45,6522049001969 ,95,727362084089
1.412808 ,Left ,68,8110168651347 ,45,6824415777083 ,95,6930566935979
1.435289 ,Left ,68,8721698973711 ,45,690712140379 ,95,684685430103
1.4504787 ,Left ,68,929407993192 ,45,6871902113549 ,95,6648170583175
1.4728562 ,Left ,68,926730053448 ,45,672782233872 ,95,6390280040803
1.495214 ,Left ,68,9373404271126 ,45,65908909474 ,95,6057555369506
1.5105394 ,Left ,68,9542787966898 ,45,6533170226479 ,95,5793244137834
1.5329854 ,Left ,68,9567502362678 ,45,6629859435133 ,95,568576576206
1.5552798 ,Left ,68,9587081833933 ,45,6817280732452 ,95,5624917002341
1.5696602 ,Left ,68,952934189668 ,45,6976953022059 ,95,5597510860837
1.5927866 ,Left ,68,9466766823901 ,45,7102500118625 ,95,5660987686176
1.6152063 ,Left ,68,9380606928571 ,45,7062735798484 ,95,5858177039954
1.6294813 ,Left ,68,9367133673171 ,45,6813950111897 ,95,6156824700607
1.652619 ,Left ,68,9273181668582 ,45,6336410209371 ,95,6322008345175
1.6750912 ,Left ,68,9126519479746 ,45,5818982498883 ,95,6363869150161
1.6893456 ,Left ,68,8869636100971 ,45,5494236463158 ,95,636116893788
1.7126049 ,Left ,68,8711208685691 ,45,541348236704 ,95,6328364361151
1.7425085 ,Left ,68,8599698774295 ,45,5436279433236 ,95,6357272155334
1.749443 ,Left ,68,8790732838913 ,45,5401460348974 ,95,6386350392615
1.7726355 ,Left ,68,8893938680797 ,45,535019571736 ,95,6397198838851
1.7953026 ,Left ,68,8822820219574 ,45,5222373729374 ,95,6330710758863
1.8095834 ,Left ,68,8736794610089 ,45,5198300117925 ,95,6215168153598
1.8329373 ,Left ,68,8708481833059 ,45,5291615139501 ,95,6145888792247
1.8552503 ,Left ,68,8773414374407 ,45,5462858373244 ,95,611201278644
1.8695714 ,Left ,68,8760949629409 ,45,5606549132614 ,95,6112179884791
1.892958 ,Left ,68,8550134400774 ,45,5695020158439 ,95,6219729587749
1.915311 ,Left ,68,8335886116599 ,45,5644004665666 ,95,6282644553962
1.936596 ,Left ,68,8183204743215 ,45,5679127959951 ,95,6291811164367
1.9528641 ,Left ,68,8073773601258 ,45,5810511723722 ,95,6342914965562
1.9754056 ,Left ,68,7963154740531 ,45,5985751724919 ,95,643474304223
1.9964816 ,Left ,68,789519520186 ,45,6193644835098 ,95,6516706386624
2.0126651 ,Left ,68,7850873172798 ,45,6292014499836 ,95,6621551735536
2.0357471 ,Left ,68,7803809767339 ,45,6368981025365 ,95,675846487476
2.0570277 ,Left ,68,7775988211099 ,45,6410451563814 ,95,6840097239481
2.0732761 ,Left ,68,771467258894 ,45,6360456943191 ,95,6837445210523
2.0956901 ,Left ,68,7745455420139 ,45,6270178779827 ,95,6793676475496
2.1170094 ,Left ,68,7587223062969 ,45,6119280508488 ,95,6830855084115
2.1334278 ,Left ,68,7491985134677 ,45,6191166921706 ,95,6971797934647
2.1556324 ,Left ,68,7174941163224 ,45,6466496264774 ,95,7153945803498
2.1765895 ,Left ,68,723155227941 ,45,6758844357793 ,95,733534406272
2.1928659 ,Left ,68,7532210281724 ,45,6851929852367 ,95,7469899369529
2.215291 ,Left ,68,7697147006237 ,45,6772330489302 ,95,7456699792773
2.2363045 ,Left ,68,7838527779775 ,45,6694916303213 ,95,7327976277202
2.2529613 ,Left ,68,7877612697438 ,45,654582557284 ,95,7190176185617
2.2755384 ,Left ,68,8242282638181 ,45,630115804924 ,95,6963299693115
2.2965333 ,Left ,68,8298730319057 ,45,5936110172875 ,95,6860495515624
2.3129174 ,Left ,68,8425829510485 ,45,5508577039253 ,95,6860190047479
2.3358415 ,Left ,68,8538004487895 ,45,5053125120264 ,95,7004934899144
2.3579296 ,Left ,68,8522780614634 ,45,4579707366161 ,95,7355831295103
2.3724151 ,Left ,68,8353618923696 ,45,4132919470225 ,95,7690361619079
2.4029285 ,Left ,68,8243973806756 ,45,4053315392125 ,95,7952599207801
2.4178689 ,Left ,68,8029114758713 ,45,4281874234382 ,95,8253734849235
2.4328518 ,Left ,68,8022593396887 ,45,4595429961594 ,95,8582348042051
2.4553891 ,Left ,68,8174718365206 ,45,4923046831731 ,95,8934575589082
2.4779302 ,Left ,68,8188116798324 ,45,5153651970282 ,95,9280568028628
2.4922572 ,Left ,68,8026549935528 ,45,5371281377803 ,95,9672030703214
2.5154032 ,Left ,68,802937751725 ,45,5575329120165 ,96,0092977567091
2.5378639 ,Left ,68,8247133557294 ,45,5738657857782 ,96,0439703180558
2.5523206 ,Left ,68,8671380926596 ,45,5866518796849 ,96,0739232400637
2.5753334 ,Left ,68,8920400496123 ,45,6015788948387 ,96,10702992858
2.5979852 ,Left ,68,9257816282448 ,45,6161431110909 ,96,1338311013266
2.6123936 ,Left ,68,9497529947819 ,45,628642752366 ,96,1631162182036
2.6354412 ,Left ,68,9764309597507 ,45,633498986675 ,96,1856572103168
2.6578804 ,Left ,69,0152073077018 ,45,6286199608354 ,96,1982071539589
2.6801754 ,Left ,69,0654759825354 ,45,6313728648183 ,96,2032279677273
2.6951855 ,Left ,69,0896925120996 ,45,6322047707948 ,96,2100335289687
2.717955 ,Left ,69,1100260324973 ,45,6372282225012 ,96,2213539067877
2.7325019 ,Left ,69,1155928714708 ,45,6398204595655 ,96,2355191239532
2.7557705 ,Left ,69,1039418945664 ,45,6342346537707 ,96,25048167659
2.7781382 ,Left ,69,0777238648869 ,45,6354169734399 ,96,2622271807825
2.7925448 ,Left ,69,0793486378373 ,45,6342886088843 ,96,2568757016433
2.8153889 ,Left ,69,0657522655439 ,45,6005014978898 ,96,2310313906637
2.8378963 ,Left ,69,0543763119419 ,45,5545766554108 ,96,2090335799543
2.8589512 ,Left ,69,054545532305 ,45,5282142786318 ,96,1906569631001
2.8754587 ,Left ,69,0502400426753 ,45,5165838636214 ,96,1790439180393
2.8979741 ,Left ,69,0622764793636 ,45,513753434405 ,96,1692093498616
2.9190525 ,Left ,69,0699642178912 ,45,5082074542418 ,96,1743370495294
2.9354339 ,Left ,69,0879015909853 ,45,5005162045668 ,96,1863910744226
2.9583692 ,Left ,69,1088140401777 ,45,4958419814795 ,96,2010054162636
2.979002 ,Left ,69,1201558277069 ,45,5078212567645 ,96,2230498261583
2.9953038 ,Left ,69,1180482212659 ,45,5287949635807 ,96,2458405034731
3.017892 ,Left ,69,1091638704483 ,45,5666570261682 ,96,2720119391436
3.0391954 ,Left ,69,1015299214349 ,45,6139057981484 ,96,2950566991747
3.0555675 ,Left ,69,098094581303 ,45,6729028734196 ,96,3077856071623
3.0779595 ,Left ,69,0865603976107 ,45,7221351058932 ,96,3131617714954
3.0992212 ,Left ,69,0653843680757 ,45,7673183958233 ,96,3134556819587
3.1154562 ,Left ,69,0564097669643 ,45,8148253351781 ,96,3107608974872
3.1379381 ,Left ,69,052877140845 ,45,8840337887683 ,96,3045268547769
3.1590234 ,Left ,69,0693693971126 ,45,956267517898 ,96,2804786004641
3.1753372 ,Left ,69,0250113041398 ,46,0158129078658 ,96,2758291771676
3.1978751 ,Left ,68,9954528461414 ,46,0675720431695 ,96,2654294569201
3.2189422 ,Left ,68,9636212800379 ,46,0970165688394 ,96,2666407985315
3.2353986 ,Left ,68,9319772486866 ,46,1154991566065 ,96,2875955884921
3.2579379 ,Left ,68,8943801603046 ,46,120666357404 ,96,3174979069505
3.2788946 ,Left ,68,8407782013498 ,46,1301647024164 ,96,3654407949151
3.2951669 ,Left ,68,7920837053785 ,46,1524391707649 ,96,4340398380852
3.3177795 ,Left ,68,7451835776435 ,46,138947150688 ,96,510349578087
3.3406496 ,Left ,68,7242626216593 ,46,1494786434396 ,96,5585445446499
3.3557283 ,Left ,68,7478680071415 ,46,1513293553362 ,96,5928924583175
3.3782634 ,Left ,68,7971831970136 ,46,1275384082961 ,96,6017520624614
3.4067676 ,Left ,68,8041179756337 ,46,074331465288 ,96,5958669053038
3.4155063 ,Left ,68,7972980467273 ,46,0172867679047 ,96,576949588628
3.4381536 ,Left ,68,7724425464322 ,45,9535232921996 ,96,5386286181531
3.4604025 ,Left ,68,7887738348957 ,45,8811248689835 ,96,4822827891089
3.4747843 ,Left ,68,8277123514648 ,45,8117182640177 ,96,4146084834276
3.4979355 ,Left ,68,8423948210833 ,45,7382051261842 ,96,3595247129735
3.5204297 ,Left ,68,8419548224685 ,45,679358933354 ,96,3286075482311
3.5348063 ,Left ,68,8408147368464 ,45,6308634657319 ,96,3146795750466
3.5580088 ,Left ,68,8529654889071 ,45,575723660257 ,96,3002848115212
3.5802898 ,Left ,68,8780665268469 ,45,5141646506985 ,96,2887634925535
3.5947984 ,Left ,68,9093537839537 ,45,4660242088075 ,96,2679329672375
3.6180163 ,Left ,68,9109367240625 ,45,4476483993856 ,96,2447226164707
3.640422 ,Left ,68,894963754825 ,45,4439387439568 ,96,2243787655447
3.6615828 ,Left ,68,886141950101 ,45,4653766289422 ,96,2137848742138
3.6852577 ,Left ,68,8819222568042 ,45,4930303648068 ,96,2045589675637
3.7008364 ,Left ,68,8853704639012 ,45,5116918746963 ,96,2019214342707
3.7149806 ,Left ,68,8771430775433 ,45,5275990297776 ,96,203126981389
3.7382262 ,Left ,68,8610091189773 ,45,5503137681685 ,96,2009742781191
3.7607419 ,Left ,68,8318703890958 ,45,5848634132192 ,96,2060182530793
3.7750077 ,Left ,68,8163413354594 ,45,641957965078 ,96,2098961899872
3.79802 ,Left ,68,8094192041792 ,45,7043283227343 ,96,2133914818267
3.8204045 ,Left ,68,813795923161 ,45,7653144711245 ,96,2123656125861
3.8415721 ,Left ,68,8172018947302 ,45,8282842741097 ,96,2116960462008
3.85797 ,Left ,68,813554417322 ,45,8857146791759 ,96,2192034780407
3.8806298 ,Left ,68,8060860107391 ,45,922493780992 ,96,228382439494
3.9015548 ,Left ,68,8072995183122 ,45,9486820356031 ,96,2325096443983
3.9175499 ,Left ,68,7920161888643 ,45,9517322936519 ,96,2234745853324
3.9408532 ,Left ,68,7743838183315 ,45,9568645198734 ,96,2110382354402
3.961989 ,Left ,68,7541774514368 ,45,9551288733403 ,96,1981917210435
3.9783817 ,Left ,68,7333208338933 ,45,9515681141216 ,96,1878503039451
4.0008463 ,Left ,68,7208255921709 ,45,9525452208838 ,96,1674661589006
4.0219418 ,Left ,68,6939196038348 ,45,9587258104853 ,96,156689876021
4.0382793 ,Left ,68,6650648901463 ,45,9762879905095 ,96,1647186450408
4.0603458 ,Left ,68,662193092614 ,45,963541161619 ,96,180392763537
4.0814133 ,Left ,68,7081910885512 ,45,9272076814312 ,96,1981229929366
4.0982828 ,Left ,68,7268175678128 ,45,9543611890502 ,96,2050751847673
4.120645 ,Left ,68,6878718806063 ,45,9874152407883 ,96,2147096279252
4.1415337 ,Left ,68,7021838689137 ,45,976918232782 ,96,2350622459926
4.1580134 ,Left ,68,7458667903205 ,45,9425552070314 ,96,2494015950248
4.1806868 ,Left ,68,7619903732534 ,45,8780322930891 ,96,2719359655904
4.2017667 ,Left ,68,7809005069631 ,45,7939823161505 ,96,294522654126
4.2180511 ,Left ,68,8075229462529 ,45,6969156637612 ,96,3081212627765
4.2405319 ,Left ,68,8110381075423 ,45,6044112617895 ,96,3026652374118
4.2629511 ,Left ,68,795702762971 ,45,5262596518606 ,96,2857691297909
4.2779766 ,Left ,68,7742617854929 ,45,4525834587754 ,96,26189853162
4.3005012 ,Left ,68,7622352630581 ,45,3973329573431 ,96,2322562805235
4.3229231 ,Left ,68,7320628700959 ,45,3749970943013 ,96,1883663610538
4.3373503 ,Left ,68,6305812088512 ,45,3943157821775 ,96,1515061112554
4.3604003 ,Left ,68,5651765290723 ,45,4395265529432 ,96,1161671669837
4.3829472 ,Left ,68,5748814894743 ,45,4606242611632 ,96,1174848717829
4.3974084 ,Left ,68,6032006661084 ,45,4958939716251 ,96,1344418761323
4.4202122 ,Left ,68,6044974061777 ,45,5577454505005 ,96,1425412579197
4.4428611 ,Left ,68,6002568763939 ,45,6005129609796 ,96,154041344695
4.4572821 ,Left ,68,64290813494 ,45,6366219335346 ,96,1593641015771
4.4805187 ,Left ,68,6858162270554 ,45,6471979243685 ,96,1451358557659
4.4857914 ,Left ,68,7178227133076 ,45,6413354683389 ,96,1226795297239
4.5082792 ,Left ,68,7371628262839 ,45,6269551686476 ,96,1016021665994
4.5247794 ,Left ,68,7467290539959 ,45,6069947784519 ,96,0885988908121
4.545864 ,Left ,68,7611542645114 ,45,591854209176 ,96,0793069692735
4.5682256 ,Left ,68,7757074008838 ,45,5820013286044 ,96,0767290196787
4.5846824 ,Left ,68,7942775583861 ,45,5732070183898 ,96,0763782203073
4.6058255 ,Left ,68,8094562701546 ,45,552804429593 ,96,0716273276863
4.6283045 ,Left ,68,8188065918461 ,45,5183653989293 ,96,0621048342561
4.6447549 ,Left ,68,8320830604765 ,45,4839009683411 ,96,0564084395071
4.6655753 ,Left ,68,8413882900569 ,45,4614500859719 ,96,057950473691
4.688211 ,Left ,68,8352053581156 ,45,43982052067 ,96,0539040319133
4.7047119 ,Left ,68,8335850703594 ,45,4270175953797 ,96,044189914919
4.7256266 ,Left ,68,8288449221837 ,45,4223536100628 ,96,036266420181
4.7482795 ,Left ,68,8389620089663 ,45,414189487523 ,96,0308107145093
4.764762 ,Left ,68,8315045646794 ,45,3880742777358 ,96,0261394038445
4.7932022 ,Left ,68,8150619210727 ,45,3698530080436 ,96,0128754619838
4.8084567 ,Left ,68,7933844804927 ,45,3762093973572 ,95,9986779117038
4.8247762 ,Left ,68,7692405578992 ,45,3817992488078 ,95,9965071216756
4.8456581 ,Left ,68,7810119469669 ,45,3891625475002 ,95,9895321475496
4.8680575 ,Left ,68,7875023582767 ,45,3998783770833 ,95,9808185497681
4.8847551 ,Left ,68,7764613480541 ,45,404949308973 ,95,9726160245347
4.905688 ,Left ,68,7618630632029 ,45,4085510713888 ,95,9629926760151
4.9284082 ,Left ,68,7583533584964 ,45,4143011688591 ,95,9502651460873
4.9463754 ,Left ,68,7558356872824 ,45,4169172655506 ,95,938911825124
4.9660399 ,Left ,68,7675923613311 ,45,4242949048642 ,95,9319570832609
4.9885648 ,Left ,68,7708419619566 ,45,4341010899627 ,95,9281562714131
5.0047634 ,Left ,68,7715861459022 ,45,4413228463173 ,95,9282155465878
5.0259702 ,Left ,68,7715861459022 ,45,4413228463173 ,95,9282155465878
5.0484702 ,Left ,68,7829077477427 ,45,4454774190691 ,95,9261332410013
5.0647083 ,Left ,68,7789340483305 ,45,4443937503705 ,95,9239166154079
5.0856861 ,Left ,68,7871769695234 ,45,4434266253936 ,95,9183594488461
5.1113195 ,Left ,68,786395210706 ,45,4378043742886 ,95,9087447429425
5.1248253 ,Left ,68,7872830466757 ,45,431921405026 ,95,8993297893026
5.1458409 ,Left ,68,7894930378148 ,45,4305134028801 ,95,890555517735
5.1685176 ,Left ,68,7862296804843 ,45,440088897715 ,95,8870132212759
5.1883918 ,Left ,68,777137697337 ,45,4522987061226 ,95,8825308438034
5.2059075 ,Left ,68,7770035762712 ,45,4671625517339 ,95,8782083471044
5.2285161 ,Left ,68,7771373260143 ,45,4805694336284 ,95,8763064981538
5.2463208 ,Left ,68,7667334039613 ,45,4935838820031 ,95,8779263147001
5.2660218 ,Left ,68,7569181882178 ,45,5038520805905 ,95,8801178244018
5.2886133 ,Left ,68,7400683982614 ,45,5131895038454 ,95,8833513369132
5.30649 ,Left ,68,7260176890227 ,45,5202192108299 ,95,8865423379201
5.3260254 ,Left ,68,7175408154131 ,45,5226338374362 ,95,8896616510564
5.3486169 ,Left ,68,7135750486522 ,45,5215383689558 ,95,8874412415765
5.3664331 ,Left ,68,7047817195752 ,45,5199474013258 ,95,8856544106823
5.3858194 ,Left ,68,7012308359284 ,45,5184726694119 ,95,8842341265321
5.408201 ,Left ,68,7012308359284 ,45,5184726694119 ,95,8842341265321
5.4263065 ,Left ,68,7012308359284 ,45,5184726694119 ,95,8842341265321
5.4458242 ,Left ,68,7044832452153 ,45,5282674723427 ,95,8804365145168
5.4683986 ,Left ,68,7093708453356 ,45,5412405171316 ,95,8754464083389
5.4861617 ,Left ,68,7136717717048 ,45,5603905799307 ,95,8684846459495
5.5057993 ,Left ,68,7225975929538 ,45,5735179052802 ,95,8602330467284
5.5282558 ,Left ,68,7239491966026 ,45,5815784087377 ,95,8552332564124
5.5461474 ,Left ,68,7239491966026 ,45,5815784087377 ,95,8552332564124
5.5657708 ,Left ,68,7194112477738 ,45,5832198870967 ,95,8524259237806
5.5880195 ,Left ,68,7096013688394 ,45,5845863721054 ,95,8534893965846
5.6062662 ,Left ,68,7096013688394 ,45,5845863721054 ,95,8534893965846
5.6286077 ,Left ,68,7096013688394 ,45,5845863721054 ,95,8534893965846
5.6482908 ,Left ,68,7096013688394 ,45,5845863721054 ,95,8534893965846
5.6664456 ,Left ,68,7096013688394 ,45,5845863721054 ,95,8534893965846
5.6857579 ,Left ,68,7096013688394 ,45,5845863721054 ,95,8534893965846
5.7083646 ,Left ,68,7116482279691 ,45,5873896393401 ,95,8530980999535
5.732298 ,Left ,68,7116482279691 ,45,5873896393401 ,95,8530980999535
5.7459019 ,Left ,68,7116482279691 ,45,5873896393401 ,95,8530980999535
5.7682438 ,Left ,68,7109330139358 ,45,5890602887117 ,95,854132023941
5.7862346 ,Left ,68,7109330139358 ,45,5890602887117 ,95,854132023941
5.8073762 ,Left ,68,7109330139358 ,45,5890602887117 ,95,854132023941
5.8284068 ,Left ,68,7110771020656 ,45,5901301389191 ,95,8525175312359
5.8460842 ,Left ,68,7110771020656 ,45,5901301389191 ,95,8525175312359
5.8671072 ,Left ,68,7110771020656 ,45,5901301389191 ,95,8525175312359
5.8882604 ,Left ,68,7132833747681 ,45,5905672946869 ,95,8519069857547
5.9062505 ,Left ,68,7125683309891 ,45,5922377259156 ,95,8529410684122
5.9272403 ,Left ,68,7125683309891 ,45,5922377259156 ,95,8529410684122
5.948412 ,Left ,68,7151864626419 ,45,5923005972616 ,95,8531308975146
5.9663296 ,Left ,68,7151864626419 ,45,5923005972616 ,95,8531308975146
5.9873745 ,Left ,68,7153304017459 ,45,593370632091 ,95,8515166766558
6.0111396 ,Left ,68,7146155666634 ,45,5950409796992 ,95,8525507209991
6.0261804 ,Left ,68,7146155666634 ,45,5950409796992 ,95,8525507209991
6.047262 ,Left ,68,7209323406652 ,45,5976479784625 ,95,852555624198
6.0683094 ,Left ,68,7209323406652 ,45,5976479784625 ,95,852555624198
6.0863715 ,Left ,68,7209323406652 ,45,5976479784625 ,95,852555624198
6.1073535 ,Left ,68,7210760514145 ,45,5987182809729 ,95,8509416454454
6.1284999 ,Left ,68,7203615854919 ,45,6003882227151 ,95,8519760447221
6.1462928 ,Left ,68,7229798060641 ,45,6004513314369 ,95,8521665902404
6.1687522 ,Left ,68,7229798060641 ,45,6004513314369 ,95,8521665902404
6.188596 ,Left ,68,7222655828979 ,45,6021212215928 ,95,8532010070815
6.2062011 ,Left ,68,7250272992197 ,45,6032547908408 ,95,8517779713853
6.2280736 ,Left ,68,7250272992197 ,45,6032547908408 ,95,8517779713853
6.2486308 ,Left ,68,7250272992197 ,45,6032547908408 ,95,8517779713853
6.2663098 ,Left ,68,7198226547646 ,45,6084272343715 ,95,8581376574478
6.2892929 ,Left ,68,7170974010999 ,45,6125932639114 ,95,8663010223705
6.3086442 ,Left ,68,7174374933527 ,45,6165950976457 ,95,8712081866096
6.3263473 ,Left ,68,7167264198124 ,45,6182647548075 ,95,8722427877193
6.3479476 ,Left ,68,7190759890085 ,45,6197697450676 ,95,8700221513814
6.3689887 ,Left ,68,7190759890085 ,45,6197697450676 ,95,8700221513814
6.3853691 ,Left ,68,7170741416695 ,45,6292860857229 ,95,8701148411965
6.4079329 ,Left ,68,7165723460879 ,45,6409052346011 ,95,8706366872285
6.428791 ,Left ,68,7169099457584 ,45,6483440124158 ,95,8741464210933
6.4451563 ,Left ,68,715990431356 ,45,6567513991797 ,95,8795094598981
6.4677388 ,Left ,68,7134351292991 ,45,661986669609 ,95,8860535716601
6.4889356 ,Left ,68,7134351292991 ,45,661986669609 ,95,8860535716601
6.5052993 ,Left ,68,7154886628909 ,45,6647886799112 ,95,8856650085517
6.5279735 ,Left ,68,7154886628909 ,45,6647886799112 ,95,8856650085517
6.5423705 ,Left ,68,7175422253867 ,45,6675907986488 ,95,8852768595375
6.5653062 ,Left ,68,7168370772266 ,45,6692592004181 ,95,8863113470034
6.5879252 ,Left ,68,7168370772266 ,45,6692592004181 ,95,8863113470034
6.6023042 ,Left ,68,7158623382436 ,45,6723659023729 ,95,884941309084
6.6253629 ,Left ,68,7184794425069 ,45,6724297925903 ,95,8851322902166
6.6479477 ,Left ,68,7184794425069 ,45,6724297925903 ,95,8851322902166
6.6691609 ,Left ,68,7184794425069 ,45,6724297925903 ,95,8851322902166
6.6853925 ,Left ,68,7184794425069 ,45,6724297925903 ,95,8851322902166
6.7079429 ,Left ,68,7184794425069 ,45,6724297925903 ,95,8851322902166
6.7290666 ,Left ,68,7184794425069 ,45,6724297925903 ,95,8851322902166
6.7453057 ,Left ,68,720685186841 ,45,6728621268254 ,95,8845318858932
6.7682743 ,Left ,68,7227391657681 ,45,6756642183596 ,95,8841450438205
6.7895535 ,Left ,68,7227391657681 ,45,6756642183596 ,95,8841450438205
6.8055432 ,Left ,68,728128086299 ,45,6804420934447 ,95,8772870481723
6.8280893 ,Left ,68,7367229414121 ,45,6826886005543 ,95,866970253429
6.8489919 ,Left ,68,7372139812477 ,45,6851156940906 ,95,8523917852136
6.865405 ,Left ,68,7444024762942 ,45,6810441000304 ,95,8332899921854
6.8879456 ,Left ,68,7444187922613 ,45,6784025351716 ,95,815416927852
6.9090272 ,Left ,68,7446081833274 ,45,6733913378803 ,95,7973195023131
6.9254404 ,Left ,68,7470021893513 ,45,6652363387068 ,95,7842500998223
6.9479586 ,Left ,68,7460394202817 ,45,6585304453374 ,95,776270758582
6.9692691 ,Left ,68,743241031397 ,45,6555303660244 ,95,7695503124179
6.9854785 ,Left ,68,742344489109 ,45,6542660839108 ,95,7640643202142
7.0154617 ,Left ,68,7531563372997 ,45,6534002677889 ,95,7587684449908
7.0290568 ,Left ,68,7625362463305 ,45,6558705980475 ,95,7555396548209
7.045428 ,Left ,68,7625362463305 ,45,6558705980475 ,95,7555396548209
7.0678268 ,Left ,68,7565226525692 ,45,6606818988078 ,95,7590568712287
7.090262 ,Left ,68,7559486981564 ,45,6634194574557 ,95,758481457479
7.1053252 ,Left ,68,7555393486537 ,45,6637927619045 ,95,7576705755396
7.1279019 ,Left ,68,7588910511458 ,45,6657811332394 ,95,751205583262
7.1502989 ,Left ,68,7661709329496 ,45,6670234915301 ,95,7388531541802
7.1653497 ,Left ,68,7662816505247 ,45,6662365405371 ,95,7291189602494
7.1880128 ,Left ,68,7662527924846 ,45,6643779535659 ,95,7209929442112
7.210504 ,Left ,68,7722255569526 ,45,6611507677037 ,95,7079779962774
7.2248461 ,Left ,68,779101054824 ,45,6538994897886 ,95,6936826680012
7.2477724 ,Left ,68,7739328505876 ,45,6420680775606 ,95,6785621889053
7.2708524 ,Left ,68,7638579559669 ,45,6233345412205 ,95,6586948411546
7.2850603 ,Left ,68,7605868150521 ,45,6015554760654 ,95,6329068651678
7.3081976 ,Left ,68,7479360482195 ,45,570874139847 ,95,6052214804469
7.3304972 ,Left ,68,7392357798078 ,45,5313317631235 ,95,5802757515851
7.3449634 ,Left ,68,7257662613094 ,45,5001140236823 ,95,556882796218
7.36807 ,Left ,68,7210826506838 ,45,473970242133 ,95,5339630787027
7.3905783 ,Left ,68,7255498237533 ,45,4482226489126 ,95,5109523408226
7.4050913 ,Left ,68,7475925362587 ,45,4294744398856 ,95,4858012279513
7.4281157 ,Left ,68,7658201657093 ,45,4125510968598 ,95,4649302160749
7.4507005 ,Left ,68,7757894968653 ,45,3964911792535 ,95,4496464231366
7.4648752 ,Left ,68,7893859191926 ,45,3894296929915 ,95,4392796755269
7.4882076 ,Left ,68,7953436005549 ,45,3870383282463 ,95,4359238475917
7.5105954 ,Left ,68,804894265541 ,45,3906884388244 ,95,4309853350546
7.5249896 ,Left ,68,8104917115243 ,45,389570751211 ,95,4295300125064
7.5480647 ,Left ,68,8104917115243 ,45,389570751211 ,95,4295300125064
7.570601 ,Left ,68,8081184218629 ,45,3950503272762 ,95,4247935154249
7.5917966 ,Left ,68,8006653432203 ,45,4014434253711 ,95,4180054548045
7.607993 ,Left ,68,7926485633448 ,45,4014694039701 ,95,4138954615087
7.6303005 ,Left ,68,7926485633448 ,45,4014694039701 ,95,4138954615087
7.6515508 ,Left ,68,7952640997705 ,45,4015478345213 ,95,414120065851
7.6753393 ,Left ,68,8054312367516 ,45,4054130565711 ,95,4162752938093
7.6904255 ,Left ,68,815299927746 ,45,4071324378271 ,95,4216400321463
7.7114952 ,Left ,68,828003776112 ,45,4065806337805 ,95,4269339973179
7.7279599 ,Left ,68,8357757249485 ,45,4052677106631 ,95,4370296079753
7.7502041 ,Left ,68,837171626952 ,45,4137740507025 ,95,4426226153029
7.7714472 ,Left ,68,8374027265802 ,45,4243469635925 ,95,4483769919037
7.7877649 ,Left ,68,836599847978 ,45,4323757708953 ,95,454616676183
7.8104255 ,Left ,68,833649550351 ,45,436512735156 ,95,4628072958519
7.8316788 ,Left ,68,8287917138653 ,45,4423230137939 ,95,468433757493
7.8479332 ,Left ,68,8214716460998 ,45,449130237495 ,95,4722322427394
7.8703696 ,Left ,68,8114861231721 ,45,4592795349539 ,95,4744915518977
7.8915784 ,Left ,68,8061854481806 ,45,4689060371671 ,95,4779310310288
7.9079653 ,Left ,68,8061854481806 ,45,4689060371671 ,95,4779310310288
7.9304766 ,Left ,68,8013919905836 ,45,4783273793879 ,95,4778742126566
7.9517125 ,Left ,68,7962527829623 ,45,4890240522129 ,95,4797051136849
7.9680308 ,Left ,68,7927218344165 ,45,5029305861252 ,95,4803204045348
7.9904154 ,Left ,68,7837332666025 ,45,5154246990025 ,95,4864388028422
8.0115848 ,Left ,68,7706913156545 ,45,5257027612316 ,95,4919349197324
8.0279376 ,Left ,68,7528464968635 ,45,5354351952655 ,95,4978347867446
8.0504483 ,Left ,68,7334548179973 ,45,545555058743 ,95,4992704639376
8.0728952 ,Left ,68,7199387677304 ,45,556682749945 ,95,4960539941491
8.0879627 ,Left ,68,7083348286775 ,45,5661422288164 ,95,4954075516488
8.1105023 ,Left ,68,703935494768 ,45,5722025742794 ,95,489674434498
8.1329959 ,Left ,68,7036369587558 ,45,5770686260781 ,95,4858852744056
8.1480045 ,Left ,68,705686618454 ,45,5834687000829 ,95,4798611546022
8.1704558 ,Left ,68,7041215692258 ,45,5908412241696 ,95,4684118632038
8.1927271 ,Left ,68,7044613472654 ,45,594484408151 ,95,4557807840498
8.2072432 ,Left ,68,7054794242298 ,45,595560934569 ,95,439389962429
8.230417 ,Left ,68,701848410495 ,45,5971412324641 ,95,4218008737022
8.2527371 ,Left ,68,7068403321902 ,45,5938972592372 ,95,4052049412921
8.2672514 ,Left ,68,7084837667232 ,45,592236862975 ,95,3893988581666
8.2903334 ,Left ,68,7128285152212 ,45,597214452675 ,95,3746527908052
8.3129267 ,Left ,68,7211845262413 ,45,6008477314728 ,95,3662014385496
8.327248 ,Left ,68,7251259239092 ,45,6056027113197 ,95,3627527675093
8.3504078 ,Left ,68,7249306950352 ,45,6079459736791 ,95,3630478051147
8.3729155 ,Left ,68,7249306950352 ,45,6079459736791 ,95,3630478051147
8.3873373 ,Left ,68,7223238325015 ,45,6078569923775 ,95,3628094531393
8.4104485 ,Left ,68,7249306950352 ,45,6079459736791 ,95,3630478051147
8.4327401 ,Left ,68,722974610439 ,45,6080891815168 ,95,3698837773487
8.447095 ,Left ,68,7223820208615 ,45,6102038578825 ,95,3814693862257
8.4704373 ,Left ,68,7190383518359 ,45,6111662132583 ,95,3944177597046
8.4929384 ,Left ,68,7133705691305 ,45,6239556344917 ,95,4078041819679
8.5077303 ,Left ,68,713053950211 ,45,633680440617 ,95,4186169037738
8.5304966 ,Left ,68,7104050220532 ,45,6418659581751 ,95,4316601368887
8.5529402 ,Left ,68,7126122213711 ,45,6471957075413 ,95,4456283413159
8.574213 ,Left ,68,7178529959625 ,45,6452277466288 ,95,4676717908752
8.5905353 ,Left ,68,7291175124184 ,45,6403864370966 ,95,4942469611026
8.6130246 ,Left ,68,7335082800407 ,45,6319904203592 ,95,5259084166482
8.6342296 ,Left ,68,7270759899661 ,45,6298500743548 ,95,5653349979335
8.6504725 ,Left ,68,7213910301422 ,45,6349273201881 ,95,6048685514324
8.6729101 ,Left ,68,7281525337213 ,45,6422046709357 ,95,6422141216521
8.6942581 ,Left ,68,7320993985114 ,45,6508283552865 ,95,6769200133085
8.7104453 ,Left ,68,7384157409258 ,45,6484814527549 ,95,713951263939
8.7327507 ,Left ,68,7311517891329 ,45,6473985468684 ,95,7482003883892
8.7539593 ,Left ,68,7159981415307 ,45,6441019176414 ,95,7779890907493
8.7703083 ,Left ,68,7006446504116 ,45,6511479265232 ,95,8064695245669
8.7928665 ,Left ,68,7033571121876 ,45,6549530874882 ,95,8229226134317
8.8138943 ,Left ,68,706809404561 ,45,6606621983495 ,95,8327068739667
8.8304919 ,Left ,68,7070105476679 ,45,6635967527496 ,95,8392247694628
8.853053 ,Left ,68,7025260650216 ,45,6705337368634 ,95,8431455329242
8.874226 ,Left ,68,7040215864385 ,45,6726384508944 ,95,8435749734006
8.8904456 ,Left ,68,717567380932 ,45,6728814537634 ,95,8368662449851
8.9129346 ,Left ,68,7287999402309 ,45,6717642967615 ,95,8281308478768
8.9339991 ,Left ,68,7378165454552 ,45,6736514484245 ,95,8186113026001
8.9504432 ,Left ,68,746851160423 ,45,6791249434623 ,95,8034639935388
8.9730179 ,Left ,68,7570288260246 ,45,6791301131599 ,95,7894721530084
8.9953631 ,Left ,68,7739615844671 ,45,6779503021969 ,95,7776934678355
9.0103073 ,Left ,68,7824176345534 ,45,6825953055539 ,95,7676170519897
9.032939 ,Left ,68,7824176345534 ,45,6825953055539 ,95,7676170519897
9.0613234 ,Left ,68,7798009605462 ,45,6825256419057 ,95,7674124922162
9.0701713 ,Left ,68,7656922914 ,45,6902782181192 ,95,7802815401323
9.0928342 ,Left ,68,7577459897923 ,45,6994364073079 ,95,799036304564
9.1154525 ,Left ,68,7487081437528 ,45,710637773723 ,95,8180127117862
9.12994 ,Left ,68,7382917481954 ,45,7251774541139 ,95,8390508669352
9.153009 ,Left ,68,7239372462107 ,45,7316123985979 ,95,8648559600397
9.175605 ,Left ,68,7065649670878 ,45,7346581836376 ,95,8995255944562
9.1895479 ,Left ,68,7138996981325 ,45,7271191796746 ,95,9369881056671
9.2126425 ,Left ,68,7158086834942 ,45,7077937160385 ,95,9593105551665
9.2353272 ,Left ,68,7221559645295 ,45,681503324266 ,95,9777389350372
9.2498106 ,Left ,68,7161167416467 ,45,6487473422153 ,95,9943111055596
9.2729139 ,Left ,68,7229755893571 ,45,6065867134753 ,96,0039048320679
9.2954233 ,Left ,68,7141356282043 ,45,5594368479123 ,96,016758147181
9.3097411 ,Left ,68,6976534063289 ,45,5219333572864 ,96,0328371039999
9.3329758 ,Left ,68,6648918753484 ,45,4884566558639 ,96,0639888073251
9.3553841 ,Left ,68,6130657259972 ,45,4578304754554 ,96,1159621227372
9.3697401 ,Left ,68,5816158967641 ,45,4246013210731 ,96,1730252443095
9.3929092 ,Left ,68,5711901649206 ,45,3955876510789 ,96,2173268714227
9.4154641 ,Left ,68,5872460395325 ,45,3938766834453 ,96,2316233612352
9.4297619 ,Left ,68,5815514576995 ,45,4053170664667 ,96,2359556245737
9.4529331 ,Left ,68,5933666746302 ,45,4413778553914 ,96,2435893475499
9.4754767 ,Left ,68,6105920239997 ,45,4682161124034 ,96,2543430583201
9.4966819 ,Left ,68,6183034419405 ,45,4681785517782 ,96,2620300246174
9.5129597 ,Left ,68,6193736919164 ,45,4478283628719 ,96,2676558973576
9.5353725 ,Left ,68,6232347457332 ,45,4208890911745 ,96,2649531664893
9.5562861 ,Left ,68,6386551128982 ,45,3982770345586 ,96,2486712823965
9.5743582 ,Left ,68,6499751237103 ,45,3674574218882 ,96,2152975863282
9.5954522 ,Left ,68,6611341795215 ,45,3379480390203 ,96,1836925957403
9.6169252 ,Left ,68,6869479473938 ,45,3335957006869 ,96,1472648604177
9.6330931 ,Left ,68,6931449544911 ,45,3357865922285 ,96,1074452417546
9.6557211 ,Left ,68,7078022440316 ,45,3451976713229 ,96,0753218226275
9.6765549 ,Left ,68,7326984394163 ,45,3608933607466 ,96,0633335045471
9.6929802 ,Left ,68,7388355041734 ,45,3586939760215 ,96,0485895580257
9.7153722 ,Left ,68,764836543591 ,45,3652252567974 ,96,0214724064053
9.7364967 ,Left ,68,7749826686677 ,45,3905758421061 ,95,994481073127
9.7527253 ,Left ,68,7862060089716 ,45,4166433314584 ,95,9809745043178
9.7753742 ,Left ,68,805764446464 ,45,4232482787982 ,95,9719169772253
9.7964341 ,Left ,68,7977819671185 ,45,3998617997717 ,95,9666828404727
9.8127899 ,Left ,68,7825997693277 ,45,3655795474715 ,95,9630642681343
9.8354501 ,Left ,68,7893685004353 ,45,3357931568391 ,95,9537728372566
9.8565753 ,Left ,68,7861663359462 ,45,3206905309766 ,95,950834799516
9.8729148 ,Left ,68,7796826577857 ,45,3170217154388 ,95,9525070772557
9.895424 ,Left ,68,7789491586284 ,45,3186977482963 ,95,9535495054491
9.9166118 ,Left ,68,7921721156711 ,45,3264117417196 ,95,9607894538743
9.9329648 ,Left ,68,7837528226049 ,45,3370547855158 ,95,9772607031319
9.9551353 ,Left ,68,7681672826366 ,45,3422751255014 ,95,997847490037
9.9778315 ,Left ,68,7549418467796 ,45,3454017567941 ,96,0218457952027
9.9929108 ,Left ,68,7495280351626 ,45,3477614378403 ,96,0437140536879
10.0154282 ,Left ,68,7289591503504 ,45,34602020031 ,96,0638889637927
10.0380053 ,Left ,68,7092980441679 ,45,3472991690761 ,96,0757411288842
10.0529407 ,Left ,68,6927749189294 ,45,3712429258354 ,96,0753967724888
10.0753896 ,Left ,68,678446281407 ,45,3832586496487 ,96,0747884977256
10.1053373 ,Left ,68,6960339357524 ,45,404803095908 ,96,06822078917
10.1123037 ,Left ,68,7095756000701 ,45,4198250857099 ,96,0569678354704
10.1352689 ,Left ,68,7232237078056 ,45,4306308614373 ,96,0373821546692
10.1577433 ,Left ,68,7443120622818 ,45,4366793840547 ,96,010793611131
10.172196 ,Left ,68,7542266618676 ,45,4326455449552 ,95,9917556361644
10.1954035 ,Left ,68,7570944966049 ,45,4206600671365 ,95,9808473035069
10.2007737 ,Left ,68,7787613236941 ,45,399161960374 ,95,9597115898936
10.2234787 ,Left ,68,7772840947009 ,45,3668361338057 ,95,9354376162233
10.2397899 ,Left ,68,762772837018 ,45,3368226758486 ,95,9253741544932
10.2610493 ,Left ,68,7581266918004 ,45,3091065786605 ,95,9305112438403
10.2835941 ,Left ,68,7608152415819 ,45,2737829117522 ,95,9440645647543
10.3001975 ,Left ,68,745126577458 ,45,2158124044815 ,95,9765184641168
10.320816 ,Left ,68,7603917124249 ,45,1756364913652 ,95,9905185118801
10.343619 ,Left ,68,747301788921 ,45,1637814748999 ,95,9969971727443
10.3598604 ,Left ,68,7381638582144 ,45,1701574033547 ,96,0200309681776
10.3838535 ,Left ,68,7627467852731 ,45,1975248470333 ,96,04895683423
10.4036477 ,Left ,68,7878864112107 ,45,2209835907341 ,96,0801458923178
10.4198778 ,Left ,68,7729897532036 ,45,2405916627136 ,96,1157806762952
10.44867 ,Left ,68,7436758487808 ,45,2455680465924 ,96,1476270395659
10.4635264 ,Left ,68,7407171062223 ,45,2397590338313 ,96,1564105590066
10.4799228 ,Left ,68,7408602712175 ,45,2355455519573 ,96,148047141183
10.5011269 ,Left ,68,7265396854081 ,45,2308754989159 ,96,1437346504348
10.5236458 ,Left ,68,7137357215317 ,45,2301490771302 ,96,1480184011279
10.539906 ,Left ,68,7238910230955 ,45,2290691682297 ,96,157436653525
10.5608871 ,Left ,68,7437275614104 ,45,2387232545358 ,96,1725388022829
10.5835294 ,Left ,68,7603726712887 ,45,2561922255929 ,96,1978812555931
10.5998508 ,Left ,68,7750089389771 ,45,2875612760444 ,96,2274661377079
10.6211453 ,Left ,68,7897684143244 ,45,3188809972599 ,96,2570829559152
10.6433824 ,Left ,68,7857764258729 ,45,3447691883398 ,96,2835572298694
10.6598251 ,Left ,68,7765982065021 ,45,3705949457065 ,96,3097424148895
10.6807878 ,Left ,68,7614026594218 ,45,403885729705 ,96,3353790507701
10.7034388 ,Left ,68,7502318123724 ,45,4476600179255 ,96,3562484712683
10.7259133 ,Left ,68,7279332953602 ,45,4913636044929 ,96,3621158321206
10.7409416 ,Left ,68,6941757658177 ,45,5221741753439 ,96,3689447078007
10.7633598 ,Left ,68,6614432871048 ,45,546411066858 ,96,3785190053554
10.779661 ,Left ,68,626404162634 ,45,551186110728 ,96,3847748747234
10.8007162 ,Left ,68,5915852113799 ,45,5468347477322 ,96,3865944806632
10.8234745 ,Left ,68,5562655867652 ,45,5452231638845 ,96,387839024041
10.839761 ,Left ,68,5269482441454 ,45,5635738442681 ,96,3881195489132
10.8610291 ,Left ,68,4966037806324 ,45,611357351417 ,96,3870861229395
10.8830896 ,Left ,68,4491336146431 ,45,6660881857613 ,96,3817926969947
10.9009045 ,Left ,68,4912033769094 ,45,6949788267339 ,96,3755692023228
10.9205242 ,Left ,68,552770534761 ,45,6897810371308 ,96,3787129372332
10.9433436 ,Left ,68,5564508075401 ,45,6847053600483 ,96,3645187629746
10.9610958 ,Left ,68,5695937157061 ,45,6993965408979 ,96,3313787927059
10.9807971 ,Left ,68,6031456067516 ,45,693975681893 ,96,3117854354268
11.0033671 ,Left ,68,6569229731939 ,45,6698486447476 ,96,3033189148881
11.0213209 ,Left ,68,6684273805774 ,45,6189417219958 ,96,3082374139708
11.0407779 ,Left ,68,6821263309892 ,45,5527996183781 ,96,3071606742774
11.0632575 ,Left ,68,7071897403176 ,45,4844633477973 ,96,2916185265104
11.0811173 ,Left ,68,7387612201274 ,45,4360126617447 ,96,2675785126517
11.1005336 ,Left ,68,7785719238868 ,45,4001859223954 ,96,2393123999844
11.1231149 ,Left ,68,809765316547 ,45,3681889950735 ,96,2159429102822
11.1412813 ,Left ,68,8360307846663 ,45,3461211270293 ,96,1916994434108
11.1606325 ,Left ,68,8624014868158 ,45,3398990988186 ,96,1656517117445
11.1830859 ,Left ,68,858409705731 ,45,3434189488646 ,96,1383822725375
11.20111 ,Left ,68,8793177648391 ,45,359704602463 ,96,1146685479146
11.220653 ,Left ,68,8803569791426 ,45,3832701583747 ,96,097377763497
11.2433174 ,Left ,68,8785074489729 ,45,4169680947026 ,96,0828870991217
11.2613649 ,Left ,68,844546299013 ,45,4656431495808 ,96,0807975432008
11.2806569 ,Left ,68,7983028858374 ,45,5173520590441 ,96,0918994202937
11.3034198 ,Left ,68,7592964301359 ,45,5679907410965 ,96,1228259024023
11.321062 ,Left ,68,7105974852989 ,45,6057435834269 ,96,1802071282829
11.3407334 ,Left ,68,6688187974651 ,45,6487526378241 ,96,2554318638011
11.3632731 ,Left ,68,6638729624996 ,45,6845937299725 ,96,3321473641122
11.3814419 ,Left ,68,6689881978953 ,45,7113795824473 ,96,3937588878472
11.4009046 ,Left ,68,6839136569979 ,45,7051538747066 ,96,4402260812918
11.4232913 ,Left ,68,7181879194415 ,45,6667329414273 ,96,4706572414237
11.441093 ,Left ,68,7402982606519 ,45,6114160113535 ,96,4644133258577
11.4604763 ,Left ,68,7055122990939 ,45,6015413015399 ,96,4601602489164
11.4832921 ,Left ,68,6727694347451 ,45,5764357920694 ,96,4499771078583
11.5012545 ,Left ,68,7191375966419 ,45,5501136616323 ,96,4220254996231
11.5221767 ,Left ,68,7859527153546 ,45,4819042459438 ,96,3854379308644
11.5434928 ,Left ,68,8288246451191 ,45,4225245071615 ,96,3635968403319
11.5612942 ,Left ,68,8288011896313 ,45,3616775156044 ,96,3572811221352
11.5824153 ,Left ,68,8134162501029 ,45,3148623829073 ,96,3548893320462
11.6034098 ,Left ,68,7871954681983 ,45,283973330393 ,96,353612543346
11.6213822 ,Left ,68,7473989614022 ,45,2591989701803 ,96,3465925123089
11.6423979 ,Left ,68,7214684350435 ,45,2189353388659 ,96,3231165965436
11.6634434 ,Left ,68,7063863004849 ,45,1711905940142 ,96,2891493190523
11.681364 ,Left ,68,6857578218126 ,45,125150607583 ,96,2487651120982
11.702372 ,Left ,68,635477818081 ,45,0957106342645 ,96,2188664080394
11.7236555 ,Left ,68,5999342267187 ,45,0887883652626 ,96,1880749864711
11.7415257 ,Left ,68,572756673465 ,45,1075259214203 ,96,1546794585386
11.7622532 ,Left ,68,6264624873315 ,45,1397612469006 ,96,1364275040507
11.7831547 ,Left ,68,6793327745222 ,45,192330053734 ,96,1312732977348
11.8010018 ,Left ,68,730844131348 ,45,2587338100772 ,96,1198937122591
11.8237241 ,Left ,68,7752483603347 ,45,3267657970737 ,96,1058702879639
11.8433435 ,Left ,68,7971871396121 ,45,3709438781077 ,96,0908810196209
11.8614368 ,Left ,68,8180250409377 ,45,4039177685143 ,96,0710043645007
11.8839485 ,Left ,68,8402355277524 ,45,4246692072369 ,96,0479901571758
11.9037084 ,Left ,68,8731506239946 ,45,4187333576139 ,96,0218342249531
11.9215186 ,Left ,68,8818544173975 ,45,39359496055 ,95,9982569670477
11.9440677 ,Left ,68,8731351951513 ,45,3488396364784 ,95,9850122302015
11.9637791 ,Left ,68,846177404213 ,45,2982886799201 ,95,9872191249736
11.9814246 ,Left ,68,8247144772476 ,45,2472592826211 ,95,9978216220789
12.0114376 ,Left ,68,8121562626773 ,45,1943069616731 ,96,0116519361898
12.023841 ,Left ,68,8205718815012 ,45,1382355447784 ,96,0310974357451
12.0414981 ,Left ,68,8351336164106 ,45,0861721814961 ,96,0480419429175
12.0640732 ,Left ,68,8339913759888 ,45,0461951741876 ,96,0608761480864
12.0842992 ,Left ,68,8120141379644 ,45,0257247640702 ,96,0728585966468
12.1005803 ,Left ,68,8050786746207 ,45,0133366727802 ,96,0770099974841
12.1230185 ,Left ,68,8158173893146 ,45,0138572006936 ,96,0690284510331
12.1440614 ,Left ,68,8215307686716 ,45,0226490017506 ,96,0669104656346
12.1605415 ,Left ,68,8298035900352 ,45,0458787778405 ,96,0685230191907
12.1830429 ,Left ,68,8164890941313 ,45,0587874774457 ,96,0743704443364
12.2041772 ,Left ,68,808437045834 ,45,06742424038 ,96,0792847195959
12.220575 ,Left ,68,8042667372787 ,45,0742070545929 ,96,0798172116643
12.2429856 ,Left ,68,7915165874327 ,45,0779886892906 ,96,0810974530999
12.2641434 ,Left ,68,7839429427643 ,45,0843920526475 ,96,0786060527925
12.2880218 ,Left ,68,7835314436017 ,45,0847884859442 ,96,0778164033643
12.3029101 ,Left ,68,7819503573375 ,45,0797561007691 ,96,0708629910613
12.3238041 ,Left ,68,7819503573375 ,45,0797561007691 ,96,0708629910613
12.3403172 ,Left ,68,7842965583248 ,45,0847139293418 ,96,0671581568885
12.36278 ,Left ,68,7789436259319 ,45,0970198623822 ,96,0665162302911
12.3914813 ,Left ,68,7789436259319 ,45,0970198623822 ,96,0665162302911
12.4002275 ,Left ,68,7789436259319 ,45,0970198623822 ,96,0665162302911
12.4229229 ,Left ,68,7743311273516 ,45,1005582529355 ,96,0719372397788
12.4440305 ,Left ,68,77381334579 ,45,109689271184 ,96,0764764718005
12.4602322 ,Left ,68,77381334579 ,45,109689271184 ,96,0764764718005
12.4829269 ,Left ,68,77381334579 ,45,109689271184 ,96,0764764718005
12.5059817 ,Left ,68,7702222347514 ,45,1226281098827 ,96,0786538375247
12.5209954 ,Left ,68,7648893956932 ,45,1294540585098 ,96,0755075774583
12.5432993 ,Left ,68,7599989462801 ,45,1324379284481 ,96,0745768105203
12.5640831 ,Left ,68,749685923473 ,45,1342728057181 ,96,074987011225
12.5802534 ,Left ,68,7450654191648 ,45,1412597993344 ,96,0789686889332
12.6038749 ,Left ,68,74400750791 ,45,1497067107752 ,96,0843426884885
12.6245915 ,Left ,68,7414697312452 ,45,1560435169127 ,96,0893115028338
12.6405513 ,Left ,68,75266527558 ,45,1679934128176 ,96,0897951219535
12.6628465 ,Left ,68,7616430114158 ,45,1795140026375 ,96,0909271357397
12.6843379 ,Left ,68,7616430114158 ,45,1795140026375 ,96,0909271357397
12.7006264 ,Left ,68,7613202433714 ,45,1808045359003 ,96,0927568414026
12.7231046 ,Left ,68,7602981836136 ,45,1874022927655 ,96,089958217607
12.7444168 ,Left ,68,7539472008718 ,45,1937500519536 ,96,0911084968526
12.7607443 ,Left ,68,7451137106923 ,45,201139044703 ,96,0904791141671
12.7832738 ,Left ,68,7389194493087 ,45,2085629783101 ,96,0899940573557
12.8055863 ,Left ,68,7374352720779 ,45,2153710617786 ,96,0906503957231
12.8206192 ,Left ,68,7439091375556 ,45,2224634950176 ,96,0875118195022
12.8432095 ,Left ,68,7439091375556 ,45,2224634950176 ,96,0875118195022
12.8656327 ,Left ,68,7412748934711 ,45,2224261317447 ,96,0873636409924
12.8799083 ,Left ,68,7505746395165 ,45,2237392917484 ,96,0856116038661
12.9030962 ,Left ,68,7610204312795 ,45,2229849643089 ,96,0835969408451
12.9255503 ,Left ,68,7610204312795 ,45,2229849643089 ,96,0835969408451
12.9399953 ,Left ,68,7602890565272 ,45,2246645286956 ,96,0846429584306
12.9629984 ,Left ,68,7539479451779 ,45,231009041256 ,96,0857872409632
12.9855678 ,Left ,68,7539479451779 ,45,231009041256 ,96,0857872409632
13.0000094 ,Left ,68,7565823674652 ,45,231046646518 ,96,0859363285092
13.0231412 ,Left ,68,756170205733 ,45,2314341156382 ,96,0851548152205
13.0455146 ,Left ,68,7608888773307 ,45,2378887341106 ,96,0792019363259
13.0600027 ,Left ,68,7653128419828 ,45,2403473353027 ,96,0683357302707
13.0829924 ,Left ,68,7648807123075 ,45,2334298705475 ,96,0568742325844
13.1054102 ,Left ,68,7671191789964 ,45,223103011015 ,96,0469896776106
13.1198116 ,Left ,68,770581757453 ,45,2108851658406 ,96,0325945356307
13.1429627 ,Left ,68,7754852115548 ,45,2005973597622 ,96,0228585570343
13.165778 ,Left ,68,7908680557168 ,45,2005132875597 ,96,0161032143964
13.179884 ,Left ,68,8099013695201 ,45,2027895216308 ,96,0133804852785
13.2030736 ,Left ,68,8277592587141 ,45,2034998150877 ,96,016588625507
13.2260025 ,Left ,68,8334852395272 ,45,2052014990533 ,96,0216119545028
13.2399336 ,Left ,68,8336330781294 ,45,2062830274129 ,96,0199862723777
13.2630522 ,Left ,68,8328938219422 ,45,207960530826 ,96,0210343523249
13.2857519 ,Left ,68,8497531204995 ,45,2134375511566 ,96,0132939207609
13.3067782 ,Left ,68,8518224369457 ,45,2144131302149 ,96,0046980903288
13.3229942 ,Left ,68,8510824401041 ,45,2160897470125 ,96,0057466075605
13.34549 ,Left ,68,8389385722093 ,45,2241674051978 ,96,0004786821605
13.3665162 ,Left ,68,8251781311481 ,45,2345117977795 ,95,9989255810425
13.3830439 ,Left ,68,8237020372223 ,45,237865652759 ,96,001019148663
13.4055001 ,Left ,68,815898906483 ,45,2297278396437 ,96,0020802787718
13.4268347 ,Left ,68,8144382759017 ,45,2257844974404 ,95,99349680706
13.4428629 ,Left ,68,7938179140805 ,45,2310071796087 ,95,9846647073875
13.4654573 ,Left ,68,7963130635382 ,45,242509636158 ,95,9818679016159
13.4864387 ,Left ,68,8265061352037 ,45,2513137557315 ,95,9772366305438
13.502934 ,Left ,68,8260975195602 ,45,2517038021183 ,95,9764397267267
13.5254072 ,Left ,68,8151536608541 ,45,247171192315 ,95,9793933688883
13.5465676 ,Left ,68,8039519824128 ,45,2441079136336 ,95,9799300533984
13.5628569 ,Left ,68,803542363934 ,45,2444982625322 ,95,9791330976849
13.5855162 ,Left ,68,8145886029916 ,45,2410174026358 ,95,9777189808936
13.606745 ,Left ,68,8141794396943 ,45,2414080230612 ,95,9769215930175
13.6229805 ,Left ,68,8145886029916 ,45,2410174026358 ,95,9777189808936
13.6453326 ,Left ,68,8136760349651 ,45,243449673989 ,95,9885599362851
13.6665202 ,Left ,68,8295759948691 ,45,2406525892774 ,96,0044225451733
13.6827534 ,Left ,68,8351926350882 ,45,2307434455551 ,96,0195601846144
13.705447 ,Left ,68,8411085627227 ,45,215902038176 ,96,0385294932679
13.7279073 ,Left ,68,8429149156778 ,45,1899936093291 ,96,0558387957026
13.7430551 ,Left ,68,8470659604746 ,45,1430261020223 ,96,0539631662062
13.7654333 ,Left ,68,8178902202164 ,45,0803700368949 ,96,0673238858154
13.7879155 ,Left ,68,7790230887869 ,45,0473713038127 ,96,094271614312
13.8027707 ,Left ,68,7475512777931 ,45,0311556370311 ,96,1326930706885
13.8254456 ,Left ,68,7056105579634 ,45,0203800349758 ,96,1922564822473
13.8479483 ,Left ,68,6914819878289 ,45,0072249183161 ,96,2634099863428
13.8622752 ,Left ,68,6783012623019 ,45,0024606648055 ,96,3550626926828
13.8858701 ,Left ,68,6626945986174 ,45,0116268443567 ,96,4144032622397
13.9078866 ,Left ,68,6182453777398 ,45,0289563445265 ,96,4388590767845
13.9287801 ,Left ,68,6032488052113 ,45,0552486091531 ,96,4388508102897
13.9529313 ,Left ,68,6010088183607 ,45,0917498891332 ,96,4232174565436
13.9681606 ,Left ,68,6095810232262 ,45,1085302876562 ,96,3902233701015
13.9823557 ,Left ,68,6430912059449 ,45,113385747137 ,96,3540931602127
14.0055435 ,Left ,68,6546407397504 ,45,103484615066 ,96,3326304052783
14.0277056 ,Left ,68,6585319837517 ,45,0918977367066 ,96,3173989407678
14.0420932 ,Left ,68,636261455956 ,45,0922617534885 ,96,3016626987041
14.0652855 ,Left ,68,6321592765264 ,45,0972045278617 ,96,2939693892597
14.0879012 ,Left ,68,6638175022707 ,45,08309879936 ,96,290346672484
14.1020683 ,Left ,68,7035036889332 ,45,085060821969 ,96,2809442056191
14.1253992 ,Left ,68,706820260484 ,45,1124817441978 ,96,2612541636145
14.1480378 ,Left ,68,7200558894584 ,45,1473210668721 ,96,2414540573182
14.1621649 ,Left ,68,748120855352 ,45,1591180365786 ,96,2315926239698
14.1854511 ,Left ,68,7640583581444 ,45,1490860389909 ,96,2325370457179
14.207994 ,Left ,68,74526753448 ,45,1349277298153 ,96,2462994871837
14.2289961 ,Left ,68,7152612888539 ,45,1196465191313 ,96,2688808366658
14.2453298 ,Left ,68,6771139426112 ,45,1303714354599 ,96,2920660137955
14.2679479 ,Left ,68,7231465887673 ,45,1720360178697 ,96,3064976584828
14.2887918 ,Left ,68,7660698675103 ,45,1994506377833 ,96,3207903640156
14.3051895 ,Left ,68,8141347021103 ,45,2259497041103 ,96,3108481414716
14.3352675 ,Left ,68,863975840778 ,45,2608752485302 ,96,3065648043373
14.3490153 ,Left ,68,9616734427672 ,45,2880420469693 ,96,3079756547979
14.3653453 ,Left ,69,0133710059671 ,45,3159272533487 ,96,3253729481965
14.389498 ,Left ,69,0447742904746 ,45,3376608173091 ,96,3333708419933
14.4091409 ,Left ,69,0468551750684 ,45,3404477555992 ,96,3329513050736
14.425619 ,Left ,69,0289679869886 ,45,3369590434982 ,96,3195979946387
14.4480728 ,Left ,69,011681161283 ,45,3263781695173 ,96,3025967378579
14.4689769 ,Left ,68,9990225769886 ,45,3183323635666 ,96,2926025183646
14.4853041 ,Left ,68,9997309723671 ,45,31666338167 ,96,291539424131
14.5079485 ,Left ,69,0247185387968 ,45,3073382852028 ,96,2844419178551
14.5288405 ,Left ,69,0349520151918 ,45,2949786397246 ,96,2705298940873
14.5453579 ,Left ,69,0453642262691 ,45,2865455430162 ,96,2437279929452
14.5678284 ,Left ,69,049482215347 ,45,2810195988013 ,96,2195188700275
14.5893108 ,Left ,69,0561350776132 ,45,2744305978668 ,96,1970750154222
14.6120793 ,Left ,69,0708488096659 ,45,260984898119 ,96,1779039073291
14.6283788 ,Left ,69,0930798523975 ,45,2471255341819 ,96,155807789556
14.649314 ,Left ,69,1065102117271 ,45,2353052959322 ,96,1483501042567
14.6657303 ,Left ,69,108322736201 ,45,2287513100261 ,96,1582178477515
14.6880452 ,Left ,69,1152375956007 ,45,2243686135643 ,96,1936491809141
14.710585 ,Left ,69,1161122432433 ,45,2289501422911 ,96,2589238634273
14.7256693 ,Left ,69,0979089674663 ,45,2387130790521 ,96,3589804522913
14.7482003 ,Left ,69,0692206415425 ,45,2517128585039 ,96,4867665706513
14.77052 ,Left ,69,0212208239611 ,45,283326258906 ,96,6297043035896
14.7848827 ,Left ,68,9631435589895 ,45,3258688852531 ,96,7710538438803
14.807948 ,Left ,68,888714889653 ,45,3649551426129 ,96,8962150934482
14.8303145 ,Left ,68,8254920156715 ,45,3912594613848 ,97,0048047425199
14.8449733 ,Left ,68,8105283628244 ,45,4124472038659 ,97,081336696989
14.8680409 ,Left ,68,8004731546049 ,45,4348563555909 ,97,1343371712946
14.8905794 ,Left ,68,7990787717115 ,45,4663857430747 ,97,169773648174
14.9048495 ,Left ,68,7941118942463 ,45,5037920721768 ,97,1964184917958
14.9280156 ,Left ,68,7646188593158 ,45,5445883631582 ,97,2216081889634
14.9505066 ,Left ,68,7549803624021 ,45,5886117789323 ,97,2563107131706
14.9647921 ,Left ,68,7666826986177 ,45,6324819468773 ,97,27645411969
14.9880487 ,Left ,68,7630744864787 ,45,6589547583447 ,97,2833784270719
15.0104693 ,Left ,68,7629515478784 ,45,6578671267011 ,97,2850227250218
15.0251222 ,Left ,68,7822269922933 ,45,6314629177221 ,97,2706580786775
15.0485136 ,Left ,68,7942151236568 ,45,6048993314787 ,97,2457767220303
15.0708323 ,Left ,68,7780378436868 ,45,5771159773599 ,97,2084890988882
15.0851878 ,Left ,68,7811399886741 ,45,5579809318292 ,97,1615379325686
15.1080756 ,Left ,68,8057157564626 ,45,5316020355479 ,97,1110380611707
15.1305214 ,Left ,68,8258374185654 ,45,4999962212922 ,97,0648381244358
15.1514569 ,Left ,68,8382264475329 ,45,4704002675669 ,97,0299380676593
15.1679493 ,Left ,68,8493886846846 ,45,4485451208464 ,97,0087617102079
15.1904738 ,Left ,68,8399771449136 ,45,4420498268879 ,97,0003935289418
15.2114263 ,Left ,68,8386332062315 ,45,4422201671208 ,96,9965972398697
15.2278796 ,Left ,68,8441645704668 ,45,4389130230507 ,96,9834791031599
15.2504471 ,Left ,68,8461297421251 ,45,4263356682422 ,96,9627015613516
15.2715136 ,Left ,68,8273840798553 ,45,410016050392 ,96,9440188200049
15.2879703 ,Left ,68,8028373165472 ,45,4217547239775 ,96,9263300445826
15.3104588 ,Left ,68,736149731315 ,45,4554276898319 ,96,9116242337436
15.3313753 ,Left ,68,7191997415283 ,45,5090310779563 ,96,8883895871232
15.3477474 ,Left ,68,7484295247416 ,45,5433605675702 ,96,8835506285019
15.3704796 ,Left ,68,7746306894668 ,45,5747251806522 ,96,8761360241947
15.3914469 ,Left ,68,7592923928701 ,45,6105236589412 ,96,8617637688804
15.4077275 ,Left ,68,7393250651816 ,45,6319115786151 ,96,8472747200643
15.4303029 ,Left ,68,7588545130794 ,45,6289279537146 ,96,8338413158882
15.4514803 ,Left ,68,7935240509747 ,45,6095991269787 ,96,809195992586
15.4677753 ,Left ,68,8192419651203 ,45,560917641831 ,96,763578059479
15.4904453 ,Left ,68,8486160221239 ,45,4948255086383 ,96,7080763465375
15.5114475 ,Left ,68,883500304783 ,45,4338583988281 ,96,6447474823601
15.5278271 ,Left ,68,8908835857674 ,45,3738202861146 ,96,5904495181649
15.5504115 ,Left ,68,8966643057269 ,45,3265579230152 ,96,5420388192759
15.571511 ,Left ,68,9196371835771 ,45,2772283405918 ,96,4971392020619
15.587929 ,Left ,68,9406628373955 ,45,2361576040873 ,96,461223159607
15.6104164 ,Left ,68,94164955584 ,45,2002118931668 ,96,439173369271
15.6330272 ,Left ,68,935076946889 ,45,1757830992148 ,96,4286235062801
15.6477765 ,Left ,68,9255853094533 ,45,1526225107626 ,96,4197669073042
15.6705373 ,Left ,68,9127599555756 ,45,1311112193457 ,96,4118757133607
15.692927 ,Left ,68,9116839433998 ,45,1216992735218 ,96,4151111202825
15.7079069 ,Left ,68,9120913104773 ,45,121316440688 ,96,4158465233734
15.7304606 ,Left ,68,9094401589828 ,45,1213020128829 ,96,4157323219721
15.7529272 ,Left ,68,9121889957803 ,45,126746225436 ,96,4184176630134
15.7672664 ,Left ,68,9118814782671 ,45,1280413374586 ,96,4202162388571
15.7905178 ,Left ,68,9161280486125 ,45,1223141879969 ,96,4180392072841
15.8130126 ,Left ,68,9134033527197 ,45,113391966999 ,96,4168261904144
15.8273227 ,Left ,68,9318296118953 ,45,1022656397261 ,96,397424953361
15.8504662 ,Left ,68,9365227499793 ,45,0921214984476 ,96,3655206781696
15.8729686 ,Left ,68,9538889504239 ,45,0875966620214 ,96,3254360284924
15.8955668 ,Left ,68,9727539507948 ,45,0921305833025 ,96,2829053295909
15.9104775 ,Left ,68,9869894163675 ,45,0993183017438 ,96,2432731411065
15.9329906 ,Left ,69,012330445882 ,45,1064336985093 ,96,200742020233
15.9385672 ,Left ,69,0288384033867 ,45,1086535771083 ,96,1579606429028
15.9547441 ,Left ,69,0387402800089 ,45,1044608191017 ,96,1281153138092
15.9759449 ,Left ,69,0457740536102 ,45,1007095584743 ,96,1122006669411
15.9985106 ,Left ,69,0664033787886 ,45,093236185362 ,96,102153478204
16.0149521 ,Left ,69,0810297690778 ,45,0900232260706 ,96,1037099601724
16.0360148 ,Left ,69,0830593918925 ,45,094574598173 ,96,1115086947774
16.058539 ,Left ,69,0784135505166 ,45,0998271022914 ,96,1251703924747
16.0748117 ,Left ,69,092625698685 ,45,1174445408822 ,96,1391116488569
16.0958871 ,Left ,69,0998661588576 ,45,1370241260796 ,96,1607689205918
16.1185386 ,Left ,69,1037199274874 ,45,17060808333 ,96,1831139668202
16.1348252 ,Left ,69,0957700299951 ,45,2128771248679 ,96,2065802328581
16.1559816 ,Left ,69,0689010795023 ,45,2664757638496 ,96,2307820610168
16.1784872 ,Left ,69,030077885584 ,45,3378662943199 ,96,2605502692783
16.1949012 ,Left ,68,9957025395982 ,45,410267754594 ,96,2923794399459
16.2156985 ,Left ,68,9578256761665 ,45,4607484507931 ,96,3315295775069
16.2381964 ,Left ,68,9214727392298 ,45,4850104054072 ,96,3772792819873
16.2547746 ,Left ,68,8886984022744 ,45,4940445245739 ,96,4206312169426
16.2785826 ,Left ,68,8633221889708 ,45,5088987261256 ,96,4483881251645
16.2984682 ,Left ,68,8161250607625 ,45,5305373519918 ,96,4617420441598
16.314815 ,Left ,68,773809062029 ,45,5554826078199 ,96,4591843797652
16.3358705 ,Left ,68,7681186110526 ,45,5694392421503 ,96,4595683584671
16.3585529 ,Left ,68,799162411616 ,45,5662966438551 ,96,4724994825161
16.3747883 ,Left ,68,7907621966864 ,45,5479799283334 ,96,4854672737196
16.3957835 ,Left ,68,7611817248938 ,45,5590563126552 ,96,5043479041003
16.4182003 ,Left ,68,7309881804691 ,45,5478612412475 ,96,5242095332579
16.4348997 ,Left ,68,7645214592892 ,45,5161631600542 ,96,5403171058928
16.4560292 ,Left ,68,8056593041794 ,45,4817299538708 ,96,5460912845688
16.4783793 ,Left ,68,8314368263514 ,45,4568325717063 ,96,5587432450137
16.4964646 ,Left ,68,8473655342436 ,45,4300235361164 ,96,5739429594577
16.5162694 ,Left ,68,8662362498586 ,45,4017551677279 ,96,5915728034131
16.5385562 ,Left ,68,877816891285 ,45,3748098315509 ,96,6177617881318
16.556651 ,Left ,68,8927311315056 ,45,349802281997 ,96,637396894186
16.5759681 ,Left ,68,8902635236502 ,45,3264407302461 ,96,6470255711058
16.5985016 ,Left ,68,8802650950702 ,45,3060330631959 ,96,6596256245388
16.616216 ,Left ,68,8839895590571 ,45,2935298114176 ,96,6639013188457
16.6358299 ,Left ,68,8924778314674 ,45,2693056833003 ,96,6607013295606
16.6584678 ,Left ,68,8876242151808 ,45,2292936908622 ,96,6556487221162
16.676358 ,Left ,68,8891490703129 ,45,1977413111704 ,96,6450834238768
16.6962167 ,Left ,68,8768515262599 ,45,1672646062815 ,96,6219674517087
16.7186832 ,Left ,68,8474431387741 ,45,1549407856698 ,96,5968646373296
16.7364592 ,Left ,68,8105856350853 ,45,1803739476703 ,96,5800194189428
16.7560622 ,Left ,68,7896967024365 ,45,1941134598316 ,96,5444688610581
16.7784612 ,Left ,68,8148212773607 ,45,1945778381806 ,96,536747144145
16.7963861 ,Left ,68,8554832015158 ,45,1588208713955 ,96,5366344737047
16.8161745 ,Left ,68,8886823961808 ,45,1481954803934 ,96,52383609269
16.8385817 ,Left ,68,8704284306432 ,45,1513960232166 ,96,4970569043497
16.8564233 ,Left ,68,8786908103388 ,45,1786391346718 ,96,4671069632315
16.8761231 ,Left ,68,9172995829017 ,45,2098690432561 ,96,4314356995815
16.8987127 ,Left ,68,9582921632151 ,45,2346644422577 ,96,3950466211435
16.9164916 ,Left ,68,9834624859181 ,45,253000958145 ,96,3717767851196
16.9360254 ,Left ,69,0008087247477 ,45,2687313528399 ,96,3521559659264
16.9587116 ,Left ,69,006782891063 ,45,2785595778248 ,96,3485004999103
16.9764546 ,Left ,69,006782891063 ,45,2785595778248 ,96,3485004999103
17.0036317 ,Left ,69,0039498805198 ,45,2607562958294 ,96,3460905205606
17.0187416 ,Left ,69,0176338468958 ,45,2484726802981 ,96,3394483178405
17.0365277 ,Left ,69,0156782978294 ,45,2300885104909 ,96,3343426407384
17.0559395 ,Left ,69,0177139789805 ,45,2204997141121 ,96,334217480348
17.078447 ,Left ,69,0308986207807 ,45,2133795720261 ,96,3450451178209
17.0962635 ,Left ,69,0638199152512 ,45,1966360056255 ,96,3526026910695
17.1159057 ,Left ,69,0792152416488 ,45,1714555049416 ,96,3506544118889
17.1381039 ,Left ,69,0847984382848 ,45,1526012553786 ,96,3426019265554
17.1562431 ,Left ,69,083958830308 ,45,1436405077524 ,96,334296886186
17.1773159 ,Left ,69,0992315792614 ,45,1440818508434 ,96,3195343216533
17.198223 ,Left ,69,1296354557619 ,45,1410311588902 ,96,3029192843775
17.2160305 ,Left ,69,1591856777603 ,45,1296695696023 ,96,2878208437006
17.237225 ,Left ,69,1719518440352 ,45,118640260751 ,96,2757477593085
17.2584229 ,Left ,69,1718129235568 ,45,1175369604824 ,96,2773713038667
17.2762489 ,Left ,69,1672354660499 ,45,1299330813356 ,96,2840166546522
17.2975411 ,Left ,69,181011628163 ,45,1395634341592 ,96,2880633889018
17.3184929 ,Left ,69,1945797323644 ,45,1434890826713 ,96,2967828222814
17.336465 ,Left ,69,2001580187554 ,45,142843593984 ,96,3050737641916
17.3573097 ,Left ,69,1914488530326 ,45,1459554647572 ,96,3181755702088
17.378431 ,Left ,69,1717988924786 ,45,1546792687879 ,96,3337171775034
17.396302 ,Left ,69,1624788340509 ,45,1640663080584 ,96,3448365118342
17.4173987 ,Left ,69,1605759351059 ,45,1675837167218 ,96,3504267716981
17.438525 ,Left ,69,1519555109024 ,45,1701050909179 ,96,3536726269751
17.4564794 ,Left ,69,1362974478883 ,45,172915720891 ,96,356390568314
17.4774508 ,Left ,69,1240217260822 ,45,1740747188164 ,96,3581626802026
17.4986147 ,Left ,69,1122984673723 ,45,1767688396711 ,96,3647180336971
17.5164514 ,Left ,69,1038151775343 ,45,1767129310307 ,96,3719535728551
17.5387831 ,Left ,69,0985842684443 ,45,1775874593767 ,96,3742506996045
17.5583441 ,Left ,69,0914842001282 ,45,1856710729022 ,96,3765078137418
17.5762587 ,Left ,69,0852420152747 ,45,1931839452633 ,96,3760641491765
17.5986825 ,Left ,69,0874976699205 ,45,1935810154878 ,96,3754528716031
17.6184394 ,Left ,69,086962694625 ,45,1957208193882 ,96,3650512028101
17.6359736 ,Left ,69,0863894135621 ,45,2013460557508 ,96,3532090233322
17.6631897 ,Left ,69,0739941927538 ,45,2122368607589 ,96,3439172226563
17.6780707 ,Left ,69,0693968777184 ,45,226390955989 ,96,3408608602273
17.6960287 ,Left ,69,0645295032682 ,45,2383477530377 ,96,3410532085393
17.7185385 ,Left ,69,0645295032682 ,45,2383477530377 ,96,3410532085393
17.7384026 ,Left ,69,0677329420702 ,45,2399106700765 ,96,3459635217659
17.7564634 ,Left ,69,054512083538 ,45,240536816336 ,96,3520300558564
17.7781541 ,Left ,69,0473584582953 ,45,2397195735896 ,96,3531174574125
17.7992044 ,Left ,69,0365894581831 ,45,2340474083034 ,96,3541771342455
17.8151706 ,Left ,69,0289571521768 ,45,2247151717186 ,96,3533851936374
17.8376919 ,Left ,69,0169684793292 ,45,2156788226742 ,96,3521944399846
17.8587777 ,Left ,69,0095175339806 ,45,2031183440226 ,96,3455716294572
17.8753996 ,Left ,69,0111793457209 ,45,1967316341281 ,96,3334188632639
17.8979807 ,Left ,69,0215566543224 ,45,2056224410486 ,96,3203093370045
17.9188299 ,Left ,69,0271554288922 ,45,2115220945854 ,96,3116911813976
17.9351479 ,Left ,69,0424523776949 ,45,2136983943578 ,96,3051803795984
17.9579056 ,Left ,69,0467358307677 ,45,2116642540151 ,96,2973659768022
17.9793265 ,Left ,69,0344694111111 ,45,2075644413381 ,96,2923579977025
17.9955844 ,Left ,69,0344694111111 ,45,2075644413381 ,96,2923579977025
18.0180356 ,Left ,69,0350992747435 ,45,2004757841102 ,96,2887100744878
18.0393409 ,Left ,69,0298511439655 ,45,1961068166129 ,96,2842355755705
18.0556083 ,Left ,69,0233035128239 ,45,1961740056647 ,96,2802663843041
18.0780299 ,Left ,69,0164378791508 ,45,1975279518037 ,96,2781145080044
18.0993431 ,Left ,69,0190877761082 ,45,1975510512892 ,96,2782490440649
18.1156596 ,Left ,69,0107817484324 ,45,20224748162 ,96,2782261114759
18.1380993 ,Left ,69,0139195924044 ,45,2073094027874 ,96,2816887901259
18.1593542 ,Left ,69,0139195924044 ,45,2073094027874 ,96,2816887901259
18.1756207 ,Left ,69,0139195924044 ,45,2073094027874 ,96,2816887901259
18.1981053 ,Left ,69,0112701397889 ,45,2072860593708 ,96,2815542190369
18.2193099 ,Left ,69,012223741133 ,45,1989037190924 ,96,2760972433976
18.2356173 ,Left ,69,0105339933281 ,45,19049665381 ,96,2705061183015
18.2580601 ,Left ,69,0170422195574 ,45,1799674571152 ,96,2609250275851
18.2791165 ,Left ,69,0198938644067 ,45,1715208626786 ,96,2484584510286
18.2955317 ,Left ,69,0259856432676 ,45,1648577928547 ,96,2366782320768
18.3179546 ,Left ,69,0333778286012 ,45,166137265496 ,96,2241081738462
18.3391354 ,Left ,69,0371820871451 ,45,1677749583497 ,96,2183066931211
18.3554395 ,Left ,69,0473350321033 ,45,1710376359036 ,96,2098736501638
18.3779741 ,Left ,69,0604129443769 ,45,1817474443283 ,96,2051276310823
18.3989709 ,Left ,69,0638305369687 ,45,1926770769733 ,96,1997265845653
18.4154701 ,Left ,69,0649977511359 ,45,2031933470216 ,96,1949505285397
18.4379412 ,Left ,69,0695910027051 ,45,2085909152125 ,96,1906723501167
18.4607082 ,Left ,69,0690952976049 ,45,2159281088888 ,96,1870786446656
18.4754634 ,Left ,69,0662795969817 ,45,2219520751034 ,96,1815092747507
18.4978653 ,Left ,69,0689285187113 ,45,2219805012467 ,96,1816559865754
18.5202679 ,Left ,69,0619207479736 ,45,2222204470616 ,96,1811258746853
18.5347025 ,Left ,69,0573497556325 ,45,225720201989 ,96,1865592935116
18.5577499 ,Left ,69,062768849648 ,45,2329471037647 ,96,1976311366255
18.5802362 ,Left ,69,0594308528136 ,45,2326672458857 ,96,2123853172731
18.5946997 ,Left ,69,0568653549689 ,45,227241549849 ,96,2274985990454
18.6177402 ,Left ,69,0545616287466 ,45,2203366002375 ,96,2449992883012
18.640278 ,Left ,69,0479862500186 ,45,2191304849263 ,96,2646929752307
18.6545556 ,Left ,69,0340300491517 ,45,1982062775096 ,96,284818268801
18.6776806 ,Left ,68,9912064768008 ,45,1630685150861 ,96,30734106964
18.7005383 ,Left ,68,9306347790387 ,45,1188727343468 ,96,3362777280863
18.7146053 ,Left ,68,8737802669006 ,45,0902982715382 ,96,3747213144933
18.7379844 ,Left ,68,8152668064672 ,45,0753917329451 ,96,418306802998
18.7605268 ,Left ,68,7980767125077 ,45,074780349813 ,96,4737597285253
18.7748912 ,Left ,68,8100431825643 ,45,0711056681569 ,96,5267258119514
18.798059 ,Left ,68,797541386125 ,45,0811686902529 ,96,5624527673682
18.8203408 ,Left ,68,7456565664211 ,45,1166324103281 ,96,5812533728953
18.8348556 ,Left ,68,7006996390936 ,45,1673039981383 ,96,5878821596993
18.8579941 ,Left ,68,7053016453174 ,45,2168726046422 ,96,5856371022155
18.880662 ,Left ,68,7288960308847 ,45,2379703874111 ,96,5756921424812
18.8946803 ,Left ,68,741123576753 ,45,2327702536188 ,96,5582611278081
18.9193835 ,Left ,68,7262942386023 ,45,1992161738108 ,96,5506696056565
18.9402181 ,Left ,68,7374327038888 ,45,1698583146584 ,96,5368567360014
18.9616617 ,Left ,68,7294193607432 ,45,1330823067538 ,96,5232506811663
18.9779877 ,Left ,68,736556447038 ,45,1007406656419 ,96,5031628442442
19.0005039 ,Left ,68,7470127364311 ,45,0903815316096 ,96,486016529544
19.0216348 ,Left ,68,7399415807981 ,45,068629748744 ,96,4750891004622
19.0378553 ,Left ,68,7416681413658 ,45,0639584588247 ,96,4711874364312
19.0604752 ,Left ,68,7496859095565 ,45,058868922244 ,96,482701698702
19.0818664 ,Left ,68,761232326958 ,45,036594882359 ,96,4837159305722
19.0979907 ,Left ,68,7881592746778 ,45,0430257629886 ,96,4632803110756
19.1207144 ,Left ,68,7819183923317 ,45,0487367350626 ,96,4545785452708
19.1413936 ,Left ,68,8130754640364 ,45,0590887229054 ,96,4429176745627
19.1578314 ,Left ,68,8155381571349 ,45,0527426297562 ,96,4379418957012
19.180538 ,Left ,68,827361191109 ,45,0404822890555 ,96,438325791103
19.2016124 ,Left ,68,8197105043594 ,45,0442432006715 ,96,4471128774065
19.2180659 ,Left ,68,8130370155525 ,45,054479554355 ,96,4681292415201
19.2405533 ,Left ,68,8085032397151 ,45,0630569225158 ,96,5097181945883
19.2629649 ,Left ,68,8518801615845 ,45,0603798608974 ,96,5286303397287
19.2779452 ,Left ,68,8420882025864 ,45,0701945501251 ,96,5210334650212
19.3005334 ,Left ,68,8458559152456 ,45,0938677514283 ,96,50357401365
19.330387 ,Left ,68,905226744592 ,45,1314117806491 ,96,4875931004269
19.337753 ,Left ,68,9586322557649 ,45,1598114152329 ,96,4853790590796
19.3605507 ,Left ,68,9764903027324 ,45,1781810715638 ,96,4942820026255
19.3816492 ,Left ,68,9990354673985 ,45,1906062050619 ,96,497603313665
19.3980691 ,Left ,68,9937264394119 ,45,1862726651127 ,96,4931457013573
19.420466 ,Left ,68,9816936976019 ,45,1772841902028 ,96,4919940379981
19.4429251 ,Left ,68,9712860219287 ,45,1833934547775 ,96,5007998906641
19.4578332 ,Left ,68,991410902523 ,45,2056182192287 ,96,5076405935853
19.480234 ,Left ,69,0002352205089 ,45,2251479937566 ,96,5108937545409
19.5029837 ,Left ,69,0187565805652 ,45,2335467763737 ,96,5275120953642
19.5180494 ,Left ,69,0102503112981 ,45,2501048910014 ,96,5927700358364
19.54049 ,Left ,69,0159168999595 ,45,2761429652196 ,96,6620242756329
19.5630158 ,Left ,68,9936659888282 ,45,2959392968535 ,96,7222098007507
19.5840478 ,Left ,68,9477706088108 ,45,3050039324503 ,96,7949396281857
19.6080718 ,Left ,68,9259690290569 ,45,3203572494063 ,96,8836753297932
19.6229838 ,Left ,68,9163616033536 ,45,3606741072911 ,96,9817405625791
19.637283 ,Left ,68,8964432557704 ,45,4026772712027 ,97,073670663536
19.6604359 ,Left ,68,8678345424499 ,45,4312590749125 ,97,1534225848648
19.6830219 ,Left ,68,8329068182673 ,45,4500842829548 ,97,2155434553816
19.6973871 ,Left ,68,8065073925221 ,45,4749523888385 ,97,2541175025314
19.7205747 ,Left ,68,7874514009443 ,45,4986186307225 ,97,2691703477363
19.7430052 ,Left ,68,77367492671 ,45,5062371766544 ,97,2722876282891
19.7572588 ,Left ,68,7592001543848 ,45,5099437042825 ,97,2704864687114
19.7806096 ,Left ,68,7530278108053 ,45,5145157437723 ,97,2599735309539
19.8030304 ,Left ,68,7670691040801 ,45,5221459092092 ,97,2447853582292
19.8174139 ,Left ,68,7628688313927 ,45,5102728485295 ,97,2157732664622
19.8404915 ,Left ,68,7661050148575 ,45,4904842617422 ,97,1951260096017
19.8629594 ,Left ,68,7824053622885 ,45,4753127519363 ,97,1745336068645
19.8842976 ,Left ,68,8003303733436 ,45,4565663785514 ,97,1484525663507
19.9005867 ,Left ,68,8093233873175 ,45,4330071785508 ,97,1261648424496
19.9228469 ,Left ,68,8044964855202 ,45,4098804883276 ,97,114190052238
19.9439931 ,Left ,68,8077060959997 ,45,4027063418215 ,97,1032303488449
19.96047 ,Left ,68,817251884829 ,45,4027053521837 ,97,0923691905816
19.9828859 ,Left ,68,7864076708802 ,45,4073020227314 ,97,0785036050962
20.0037539 ,Left ,68,8347420272758 ,45,4297657422531 ,97,0622935263022
20.0204396 ,Left ,68,860871753753 ,45,4147548177896 ,97,0630186819661
20.0430248 ,Left ,68,9048898688397 ,45,386896273404 ,97,0468736041196
20.063733 ,Left ,68,9214151720793 ,45,38503900766 ,97,0135311291897
20.0802187 ,Left ,68,9181042030204 ,45,3922761510164 ,96,9883189003718
20.1029605 ,Left ,68,9453162501689 ,45,3865589535091 ,96,9643505976801
20.1239085 ,Left ,68,980640210509 ,45,3749269172606 ,96,9420755348574
20.1405753 ,Left ,69,0209727075061 ,45,347925515656 ,96,9104028130993
20.1634137 ,Left ,69,0313972880285 ,45,3081876782645 ,96,8762831529923
20.184349 ,Left ,69,0483675335927 ,45,276895525964 ,96,8366676189537
20.2006543 ,Left ,69,0619028677824 ,45,2449307944538 ,96,8053281277079
20.2230311 ,Left ,69,0728567431877 ,45,2196461535824 ,96,7782858824051
20.2442065 ,Left ,69,0783611998261 ,45,2034543665358 ,96,7555791758377
20.2605021 ,Left ,69,0952700611691 ,45,1857592687766 ,96,728052872296
20.2830091 ,Left ,69,1188860967039 ,45,1715914389998 ,96,698855887992
20.3039849 ,Left ,69,134952384054 ,45,14561110592 ,96,6728486699755
20.3204721 ,Left ,69,1516859028236 ,45,1324318352909 ,96,6529494926117
20.3429663 ,Left ,69,1392535692272 ,45,1285156480472 ,96,6479541678289
20.3655816 ,Left ,69,1234347471845 ,45,1338658208805 ,96,6508457557329
20.3805289 ,Left ,69,1307742285878 ,45,1435035041271 ,96,6508930417668
20.4029809 ,Left ,69,1307742285878 ,45,1435035041271 ,96,6508930417668
20.4255795 ,Left ,69,134569757923 ,45,1644050735124 ,96,6449950353193
20.4405143 ,Left ,69,1207350035679 ,45,1976821965572 ,96,6460519009367
20.4628091 ,Left ,69,1005655195097 ,45,2442617705128 ,96,648560233822
20.4853165 ,Left ,69,0986990311481 ,45,3093384389129 ,96,6526827080237
20.4999389 ,Left ,69,0858020543713 ,45,3806203633271 ,96,6543366616823
20.5229618 ,Left ,69,0680526476171 ,45,4507183264106 ,96,6506540930773
20.5454581 ,Left ,69,0472737122801 ,45,5271557007709 ,96,6407018204651
20.5597748 ,Left ,69,008932325803 ,45,5891047942963 ,96,6305323155985
20.5830067 ,Left ,68,967557108415 ,45,6364276782598 ,96,6237425501764
20.6049967 ,Left ,68,9380034731351 ,45,6688847006684 ,96,621368908161
20.6195661 ,Left ,68,9156500568127 ,45,6984703773473 ,96,6235180811126
20.6428826 ,Left ,68,8859788465102 ,45,7216244243715 ,96,6313688061166
20.6654538 ,Left ,68,868223545331 ,45,7286643471885 ,96,6419964847487
20.6799426 ,Left ,68,8994236675983 ,45,7024095760699 ,96,6532934826222
20.7030822 ,Left ,68,9459095394079 ,45,6351281093298 ,96,6719687274451
20.7255726 ,Left ,68,9763453807893 ,45,5893386637812 ,96,6726769460893
20.7399836 ,Left ,68,9693813774474 ,45,5458855944334 ,96,6799731940339
20.7629595 ,Left ,68,9880798774558 ,45,5103201335311 ,96,6792839593504
20.7854644 ,Left ,69,0227586049553 ,45,4776388093449 ,96,6925299416383
20.7996734 ,Left ,69,050352809562 ,45,4243153079348 ,96,6894849554231
20.8228664 ,Left ,69,0648336246883 ,45,3674629922805 ,96,6880696708056
20.8456853 ,Left ,69,0327639317608 ,45,3229439049819 ,96,6930851412353
20.8668044 ,Left ,68,9965904069698 ,45,2877999264255 ,96,6948071875077
20.8895461 ,Left ,69,0000536848613 ,45,2584480136396 ,96,6738117534832
20.9058111 ,Left ,68,9912806973049 ,45,2290944875805 ,96,634812000397
20.9270701 ,Left ,68,980418812559 ,45,1916828254944 ,96,5895686132701
20.9433313 ,Left ,68,9783105850839 ,45,1557756667946 ,96,5494504475578
20.9658171 ,Left ,68,9625330870306 ,45,1432271336147 ,96,5246220969019
20.9868094 ,Left ,68,8980539939875 ,45,1599849137681 ,96,5134876255776
21.00323 ,Left ,68,9198985300726 ,45,1584841815112 ,96,5123419069264
21.0256367 ,Left ,68,9867039168941 ,45,1062902483966 ,96,5149652957746
21.0464206 ,Left ,69,0605971695016 ,45,073936651168 ,96,5024070560982
21.0628514 ,Left ,69,0462509051278 ,45,0693733094558 ,96,4767063172379
21.0855032 ,Left ,69,0290858328145 ,45,0910357841716 ,96,4478711039478
21.1066532 ,Left ,69,0276443465924 ,45,1115558302656 ,96,4245063912778
21.1229472 ,Left ,69,0627183788333 ,45,1220445419601 ,96,3948177653971
21.1453151 ,Left ,69,0961456327729 ,45,1185504552537 ,96,3790368723881
21.1665274 ,Left ,69,1160159451733 ,45,1215012654805 ,96,3712446032076
21.1829082 ,Left ,69,1152939158225 ,45,1231718716828 ,96,3723177724498
21.2054219 ,Left ,69,1282518430837 ,45,1238281838493 ,96,3680116616434
21.2266407 ,Left ,69,1388006645176 ,45,1053876105569 ,96,3594312431794
21.242913 ,Left ,69,151423471788 ,45,0808337204602 ,96,3492392832864
21.2717501 ,Left ,69,1639681483798 ,45,0640793680435 ,96,3418281966395
21.2879085 ,Left ,69,1836029259688 ,45,0559444222166 ,96,336081641352
21.3029084 ,Left ,69,2119488906679 ,45,0490024180462 ,96,3214184284233
21.3255953 ,Left ,69,2170473198156 ,45,0364291783213 ,96,3112902160447
21.3480807 ,Left ,69,2393766179523 ,45,0266271057673 ,96,2974033778866
21.3624799 ,Left ,69,2413173295394 ,45,0214243011072 ,96,2835479869546
21.385647 ,Left ,69,2323345864686 ,45,0094132155596 ,96,2724149998556
21.4081022 ,Left ,69,2252188131727 ,45,0025661404036 ,96,2610879244943
21.4230727 ,Left ,69,2086386176132 ,44,9990056523955 ,96,2515271001471
21.4460671 ,Left ,69,1850603596828 ,44,9982948204741 ,96,2523240218456
21.4680875 ,Left ,69,1601529895782 ,45,0020279132552 ,96,2536462228
21.4824674 ,Left ,69,1386697725385 ,45,004099375891 ,96,2540244105598
21.5055731 ,Left ,69,1247626710786 ,45,0111593952989 ,96,2540036918222
21.5278377 ,Left ,69,1245600727987 ,45,013539599548 ,96,2542122232269
21.5422764 ,Left ,69,1247626710786 ,45,0111593952989 ,96,2540036918222
21.5654614 ,Left ,69,1177523973271 ,45,0025071688501 ,96,2523583860464
21.5881095 ,Left ,69,1058270741675 ,44,9934240785724 ,96,2512270210158
21.6024653 ,Left ,69,0961083101481 ,44,9882298484771 ,96,2480440857172
21.6256059 ,Left ,69,0957093931501 ,44,9886264311708 ,96,2472770664908
21.6481207 ,Left ,69,096845972627 ,44,988295197545 ,96,2551999309477
21.6534038 ,Left ,69,1016483382699 ,44,9930593332368 ,96,2588928683084
21.6699379 ,Left ,69,1041637919582 ,44,9919741841913 ,96,2606496014961
21.6910297 ,Left ,69,1015049284135 ,44,9919585963773 ,96,2605220963809
21.713641 ,Left ,69,1017333811227 ,44,9976403372652 ,96,2558415474856
21.7298632 ,Left ,69,0867543431267 ,45,007652388174 ,96,2587229887923
21.7508531 ,Left ,69,0916476660238 ,45,0169955829665 ,96,2593653585429
21.7736937 ,Left ,69,0895125082236 ,45,0265985690436 ,96,2595220089998
21.7899259 ,Left ,69,0757488122195 ,45,0310609386385 ,96,2635084969397
21.8110936 ,Left ,69,0655721801681 ,45,0404004402648 ,96,2674945878898
21.8335444 ,Left ,69,0685571792116 ,45,0480486680486 ,96,2669384670808
21.8496939 ,Left ,69,0685511491093 ,45,0569601647232 ,96,2680847872938
21.8707408 ,Left ,69,0712069966888 ,45,0569780981951 ,96,2682141785244
21.8933523 ,Left ,69,0712069966888 ,45,0569780981951 ,96,2682141785244
21.9129426 ,Left ,69,0704707088835 ,45,0586521094193 ,96,2692828541043
21.9308456 ,Left ,69,0664352759197 ,45,0665593740808 ,96,2682336944153
21.9537699 ,Left ,69,0671202285095 ,45,077274511786 ,96,2668841297429
21.9696434 ,Left ,69,0606990361776 ,45,0925809660226 ,96,2692360664027
21.9907242 ,Left ,69,0550215251313 ,45,1062121158121 ,96,270516035837
22.0132541 ,Left ,69,0475470592906 ,45,1155667567052 ,96,2746057339113
22.0299191 ,Left ,69,0499599705231 ,45,1259771514073 ,96,2734977803865
22.0509675 ,Left ,69,0492310922884 ,45,1276498475351 ,96,2745648387201
22.0734033 ,Left ,69,0446082164925 ,45,1346424838741 ,96,278584763512
22.0897908 ,Left ,69,0385376311398 ,45,144981184244 ,96,2847346812484
22.1109319 ,Left ,69,0421641461436 ,45,1587515201736 ,96,2858951087323
22.1336794 ,Left ,69,0441290639607 ,45,1693453740676 ,96,2882399476817
22.1498219 ,Left ,69,0532534811744 ,45,1807699995291 ,96,2894832739816
22.1713645 ,Left ,69,0546464838927 ,45,194127991125 ,96,2912753498084
22.1940237 ,Left ,69,0524960164591 ,45,2115165075256 ,96,29419311695
22.2116185 ,Left ,69,0550404514187 ,45,226489135569 ,96,2900471242371
22.2311889 ,Left ,69,0545777352359 ,45,2375009412155 ,96,2808088465148
22.2539384 ,Left ,69,0507898553733 ,45,2458376604452 ,96,2682908900032
22.2715784 ,Left ,69,0412103450801 ,45,2577893361611 ,96,2575058665156
22.2910459 ,Left ,69,0421839001103 ,45,2654525496504 ,96,2461426911238
22.3135885 ,Left ,69,0463393259551 ,45,2746979535974 ,96,2396887863229
22.3314411 ,Left ,69,0535818016041 ,45,2801138435042 ,96,2355628749163
22.3510955 ,Left ,69,0611832860566 ,45,2807644266232 ,96,231044051421
22.3810388 ,Left ,69,0833444418723 ,45,281629006405 ,96,2267507691311
22.3914137 ,Left ,69,0971541600701 ,45,2782895140075 ,96,2212563712283
22.4110773 ,Left ,69,0971541600701 ,45,2782895140075 ,96,2212563712283
22.4337675 ,Left ,69,0971541600701 ,45,2782895140075 ,96,2212563712283
22.4513492 ,Left ,69,0945048709283 ,45,2782614907763 ,96,2211100133176
22.4709991 ,Left ,69,096434973433 ,45,2799561251607 ,96,222322934915
22.4935412 ,Left ,69,096434973433 ,45,2799561251607 ,96,222322934915
22.5114551 ,Left ,69,1013360278518 ,45,280392453279 ,96,2218591056735
22.5310261 ,Left ,69,1014737698483 ,45,281489767005 ,96,2202391560057
22.5537617 ,Left ,69,1007547513231 ,45,2831561517898 ,96,2213058549609
22.5714705 ,Left ,69,1206524184341 ,45,2907727368413 ,96,2106043994543
22.5911139 ,Left ,69,1234542684558 ,45,2955742492245 ,96,2035210970208
22.6136589 ,Left ,69,1268384939823 ,45,2976131532363 ,96,1969902014863
22.6314204 ,Left ,69,1290917639976 ,45,2980229324824 ,96,1963812045289
22.6598798 ,Left ,69,1290917639976 ,45,2980229324824 ,96,1963812045289
22.6732088 ,Left ,69,1294877980873 ,45,2976427774335 ,96,1971407372676
22.6911849 ,Left ,69,1294877980873 ,45,2976427774335 ,96,1971407372676
22.7108388 ,Left ,69,1294877980873 ,45,2976427774335 ,96,1971407372676
22.7332965 ,Left ,69,1294877980873 ,45,2976427774335 ,96,1971407372676
22.7513422 ,Left ,69,1290917639976 ,45,2980229324824 ,96,1963812045289
22.7709203 ,Left ,69,1290917639976 ,45,2980229324824 ,96,1963812045289
22.79337 ,Left ,69,1412479359768 ,45,2915245905502 ,96,1920517679931
22.8111033 ,Left ,69,1385980494516 ,45,2914950868495 ,96,1919007351621
22.8322942 ,Left ,69,1393192138157 ,45,2898303321198 ,96,1908329005225
22.8534324 ,Left ,69,1394920554773 ,45,2837697498485 ,96,1962365220534
22.8712561 ,Left ,69,1459669469147 ,45,2791217722977 ,96,203256563464
22.8923545 ,Left ,69,1451446867635 ,45,2725245944185 ,96,2129667760837
22.9134905 ,Left ,69,1466063106762 ,45,2715413074173 ,96,2288691872755
22.9313598 ,Left ,69,1503315839304 ,45,2709605529343 ,96,244163785351
22.9524062 ,Left ,69,1578488224939 ,45,2691654187706 ,96,2649257016775
22.973567 ,Left ,69,1593712633382 ,45,2609946971094 ,96,2878610763541
22.9912077 ,Left ,69,1578742930135 ,45,248878628666 ,96,3056878642556
23.0123496 ,Left ,69,1705910268719 ,45,2372974263379 ,96,322986651754
23.0334823 ,Left ,69,172095715689 ,45,2196071744763 ,96,3349088566497
23.0512905 ,Left ,69,157307535932 ,45,18990231554 ,96,3424477188759
23.0722774 ,Left ,69,1201584062199 ,45,1503270020275 ,96,3574247616967
23.0935917 ,Left ,69,0672892487542 ,45,1089869920702 ,96,3783561979064
23.111687 ,Left ,69,005711103226 ,45,0815097571454 ,96,4040532502544
23.1324357 ,Left ,68,948367649289 ,45,0490227210003 ,96,437576519911
23.1535713 ,Left ,68,9408023631799 ,45,0224351455664 ,96,4845678958776
23.1734047 ,Left ,68,9361236618842 ,45,0011185116317 ,96,5564046852626
23.1940352 ,Left ,68,9411721662813 ,44,9909230555879 ,96,625971814252
23.2134118 ,Left ,68,927363802757 ,45,0088111131974 ,96,6607964598199
23.2314554 ,Left ,68,8818177097627 ,45,0507839394448 ,96,6666843441249
23.2539996 ,Left ,68,8585840289609 ,45,1117556191321 ,96,6620288906124
23.2733568 ,Left ,68,8701539741763 ,45,1639890105618 ,96,645016773818
23.2911097 ,Left ,68,8865537096964 ,45,189688178175 ,96,6209077854323
23.3138045 ,Left ,68,8828578944258 ,45,1757086771474 ,96,5984826226177
23.3334739 ,Left ,68,8696979489137 ,45,1524993288518 ,96,5824432973334
23.3513148 ,Left ,68,8378258958618 ,45,1198218970842 ,96,577051768625
23.3739531 ,Left ,68,8475718788843 ,45,0884081434544 ,96,5626687568065
23.3936755 ,Left ,68,8460120168984 ,45,0654377398513 ,96,5500826513146
23.4114306 ,Left ,68,8822095448684 ,45,0296219991049 ,96,5388298826547
23.4339199 ,Left ,68,9259278378433 ,44,9796501531962 ,96,5487020555265
23.4537679 ,Left ,68,9552246831269 ,44,9358556731351 ,96,5455927080094
23.471385 ,Left ,68,925634050125 ,44,9114734732883 ,96,5203183909632
23.4931862 ,Left ,68,9283050336068 ,44,9179150110636 ,96,4854417888887
23.5144771 ,Left ,68,945727982949 ,44,939032663642 ,96,4500969212376
23.5306096 ,Left ,68,9714740782953 ,44,9606674330658 ,96,4215332028933
23.5532643 ,Left ,68,9765466702718 ,44,9782536117141 ,96,4133533131417
23.5743631 ,Left ,68,9597386480452 ,44,9918853959363 ,96,4217908362026
23.5904723 ,Left ,68,9339045021991 ,44,9852444003171 ,96,4459276778025
23.6127613 ,Left ,68,9148291830548 ,44,9628785308351 ,96,4685539439293
23.6339645 ,Left ,68,900612098921 ,44,9320000081993 ,96,4896061874759
23.6504888 ,Left ,68,8873690442637 ,44,9149098668079 ,96,5116306811224
23.6729631 ,Left ,68,8626776496503 ,44,9046890223242 ,96,5231669670985
23.6941046 ,Left ,68,8691219273937 ,44,9124217785576 ,96,5297819124965
23.7108409 ,Left ,68,8978415962338 ,44,9191108466701 ,96,541515949998
23.7333393 ,Left ,68,9269810911429 ,44,9201299374384 ,96,5472538616202
23.7541243 ,Left ,68,9415297910973 ,44,9327744869422 ,96,5247452190773
23.770578 ,Left ,68,9266715301233 ,44,9387077083473 ,96,5012686026175
23.7930447 ,Left ,68,949576697474 ,44,9431183251472 ,96,4802440315828
23.8141314 ,Left ,68,9616993751248 ,44,9329672619224 ,96,4593378786177
23.8380503 ,Left ,68,9455527023996 ,44,9005162668751 ,96,4570704724885
23.8530249 ,Left ,68,9166145508716 ,44,8827145088419 ,96,4654873466834
23.8741355 ,Left ,68,9242530520615 ,44,8903405919724 ,96,4758340245257
23.8909599 ,Left ,68,9416759407905 ,44,8905370361879 ,96,5118400356498
23.9127855 ,Left ,68,9860582355626 ,44,8895211909593 ,96,5459848324287
23.9339293 ,Left ,69,0104278257762 ,44,9238534318666 ,96,55261738335
23.9505214 ,Left ,69,0100950819936 ,44,9710247846928 ,96,5617599274116
23.9729983 ,Left ,69,0555482411069 ,45,0277339191249 ,96,5782633814915
23.9941966 ,Left ,69,0984459665519 ,45,068242151485 ,96,6008173922547
24.0105549 ,Left ,69,0823959195827 ,45,1083562387611 ,96,6347359551456
24.0331643 ,Left ,69,0348881272467 ,45,1361155740538 ,96,6833299771636
24.0543767 ,Left ,68,9964887118304 ,45,1641803900008 ,96,735170762481
24.0705923 ,Left ,68,9650788889319 ,45,1969211519048 ,96,7836214106835
24.0930276 ,Left ,68,9616310177418 ,45,2253608658923 ,96,8275861367015
24.1142387 ,Left ,68,9522519476107 ,45,2547007589706 ,96,8666265424599
24.1304195 ,Left ,68,9212587458014 ,45,2767234138388 ,96,9022142232439
24.1529274 ,Left ,68,8885239527461 ,45,2982182768125 ,96,9349710747689
24.1754762 ,Left ,68,8672595604045 ,45,312131462699 ,96,9683905793
24.1966147 ,Left ,68,8591689957516 ,45,3160806504062 ,96,9913465038626
24.2205634 ,Left ,68,8676335812893 ,45,3094467474127 ,97,0012077930335
24.2351397 ,Left ,68,8851981205663 ,45,3107298267355 ,97,0171393538004
24.2504737 ,Left ,68,9132149586412 ,45,3003029371424 ,97,0397055524262
24.2728478 ,Left ,68,919313582431 ,45,3156016238609 ,97,0419355759092
24.2953522 ,Left ,68,8980243139814 ,45,3575070255754 ,97,0369086010848
24.3097558 ,Left ,68,9099298494848 ,45,3954668990668 ,97,0376039190631
24.3327967 ,Left ,68,9787377442846 ,45,4045521082528 ,97,0270838931854
24.3553288 ,Left ,69,016153610504 ,45,3849437234442 ,97,0130121611435
24.3696816 ,Left ,69,0121276380712 ,45,3566778654305 ,97,0013529693369
24.3929618 ,Left ,68,9927672739232 ,45,3325912639 ,96,9907150155785
24.41544 ,Left ,68,9905923567829 ,45,3144450528774 ,96,9748312804178
24.4298723 ,Left ,68,9923546950895 ,45,3053187216985 ,96,9632800446344
24.4530924 ,Left ,68,991744847362 ,45,2947464679393 ,96,9539389543162
24.4755202 ,Left ,68,9905283578607 ,45,2853449366903 ,96,9571885488243
24.489902 ,Left ,68,9923454255731 ,45,2722020426164 ,96,9587010717337
24.5128336 ,Left ,68,990812064667 ,45,254422631607 ,96,94932984666
24.5354196 ,Left ,68,9725548564028 ,45,2414755251479 ,96,9257198683398
24.549864 ,Left ,68,9482567056449 ,45,2427826161715 ,96,9059831421607
24.5729797 ,Left ,68,9498546083084 ,45,255952437674 ,96,8862863060634
24.6030119 ,Left ,68,9591586664134 ,45,29108488451 ,96,8661786533313
24.6165129 ,Left ,68,9796088557997 ,45,3477392718172 ,96,8390786966824
24.6329656 ,Left ,68,9535860607684 ,45,4102325037081 ,96,8140234421217
24.655849 ,Left ,68,9218727963859 ,45,475255800642 ,96,792200025024
24.6770374 ,Left ,68,8919008113221 ,45,53858941434 ,96,7763748160187
24.6933556 ,Left ,68,8625729751634 ,45,5793965598794 ,96,7652211902428
24.7154522 ,Left ,68,8391857974195 ,45,6115272925356 ,96,7562431062518
24.736703 ,Left ,68,7965618581052 ,45,6431172146223 ,96,7514074665241
24.7530704 ,Left ,68,7418505499657 ,45,6931824565671 ,96,7545042845529
24.7759614 ,Left ,68,7278001631523 ,45,6963754724569 ,96,749299712769
24.7964516 ,Left ,68,7274329679562 ,45,6875226243477 ,96,7482301166163
24.81278 ,Left ,68,7055594637339 ,45,6363413286813 ,96,7528825517213
24.8355949 ,Left ,68,706462106963 ,45,6170724644577 ,96,756835286856
24.8567163 ,Left ,68,7239234825664 ,45,5718248394157 ,96,760420319289
24.8804188 ,Left ,68,7659834912863 ,45,5006994508806 ,96,7598083363095
24.8952729 ,Left ,68,8061087628875 ,45,4354447111928 ,96,7754478278215
24.9166099 ,Left ,68,8490452774507 ,45,3670242911548 ,96,7811218776236
24.9329374 ,Left ,68,8690756273963 ,45,3106905442049 ,96,7826995300074
24.9557062 ,Left ,68,8613363748431 ,45,2742123472721 ,96,7760771337256
24.9763823 ,Left ,68,8358041759362 ,45,2463746506201 ,96,767262790393
24.9929706 ,Left ,68,837954650811 ,45,2105916544934 ,96,7596803728763
25.0153003 ,Left ,68,8390838039679 ,45,1623192564758 ,96,7454223682716
25.0364643 ,Left ,68,8362674725919 ,45,1130640548238 ,96,7289765790695
25.0530196 ,Left ,68,8337454904 ,45,0726871989519 ,96,7136016906054
25.0755309 ,Left ,68,7774466973177 ,45,0421223507863 ,96,6980165936515
25.0978939 ,Left ,68,7683740847798 ,45,0311598735339 ,96,6854701808064
25.1127264 ,Left ,68,8222388690415 ,45,0213537618087 ,96,685664006739
25.1354255 ,Left ,68,8913506799725 ,45,0430314933498 ,96,6818229620786
25.1579847 ,Left ,68,9133765276263 ,45,0794223662994 ,96,6670885364562
25.1729818 ,Left ,68,9636342856455 ,45,1489597407357 ,96,6425890286769
25.1953683 ,Left ,68,9820288236406 ,45,2063043845743 ,96,6110117465428
25.2177602 ,Left ,69,0131523074671 ,45,2481808719234 ,96,5812474318396
25.2321317 ,Left ,69,0397477704173 ,45,278043504242 ,96,5515129810906
25.2556966 ,Left ,69,0496037795733 ,45,3007781373425 ,96,5178550004018
25.2780084 ,Left ,69,0364744618616 ,45,31212068198 ,96,4899024424199
25.2923132 ,Left ,69,0302300699704 ,45,3105875668321 ,96,4669637753778
25.3155362 ,Left ,69,0251935977072 ,45,2893836694798 ,96,4551501663541
25.3379797 ,Left ,69,0478397073964 ,45,2593809396769 ,96,4461728148768
25.3522899 ,Left ,69,0631855457981 ,45,215100171073 ,96,4401832212536
25.3754383 ,Left ,69,0632022487821 ,45,1561085216235 ,96,4451701747494
25.3978058 ,Left ,69,0576935946581 ,45,1020296052448 ,96,4461419696603
25.4121343 ,Left ,69,0441351240237 ,45,0618514034269 ,96,4409746873688
25.435508 ,Left ,69,0184413249982 ,45,03542248319 ,96,4331714867316
25.4579931 ,Left ,69,0072709700452 ,45,011674336932 ,96,4214838391569
25.4789149 ,Left ,68,9978094190925 ,44,9963203717545 ,96,4153813693322
25.4953979 ,Left ,68,9844422501111 ,44,977382811181 ,96,4111250324613
25.5177894 ,Left ,68,9646100832869 ,44,9568095002369 ,96,4126591102251
25.5321559 ,Left ,68,9612954971458 ,44,9452110179355 ,96,4083119520102
25.5555776 ,Left ,68,9495023999853 ,44,9372560565623 ,96,4056371954345
25.5779863 ,Left ,68,9435514784578 ,44,9345689874884 ,96,4022897408499
25.5991218 ,Left ,68,9301150237659 ,44,9323548491073 ,96,4019316615307
25.6155254 ,Left ,68,9117785713185 ,44,9297269418508 ,96,402112728637
25.6377797 ,Left ,68,9055002676513 ,44,9193925974514 ,96,3995005966977
25.6591254 ,Left ,68,9010676523014 ,44,9098547409218 ,96,3955018568516
25.6754554 ,Left ,68,8980802290543 ,44,9022036529461 ,96,3961304162816
25.6977711 ,Left ,68,8822983955087 ,44,8950086732977 ,96,3995561454129
25.7190988 ,Left ,68,8748505374532 ,44,883074713391 ,96,4029595748553
25.7354909 ,Left ,68,864170494453 ,44,8721181300724 ,96,3974649518577
25.7580116 ,Left ,68,8512547078645 ,44,8607498915572 ,96,3926282572062
25.7809287 ,Left ,68,8461500829826 ,44,8421479582071 ,96,3804303104491
25.7955813 ,Left ,68,8407064552924 ,44,828292818719 ,96,3685822554435
25.8180449 ,Left ,68,8367468565383 ,44,8254715997572 ,96,3582050638536
25.8389041 ,Left ,68,8303625686656 ,44,8300903726212 ,96,3511882599334
25.8555772 ,Left ,68,8340816163043 ,44,8432022160275 ,96,3423042103273
25.88407 ,Left ,68,8315158500786 ,44,8566888444172 ,96,3401457420248
25.8992158 ,Left ,68,8395271062276 ,44,8658624714579 ,96,3373006299206
25.91551 ,Left ,68,8477755939408 ,44,8824845364396 ,96,3379305635747
25.9380078 ,Left ,68,8522098558843 ,44,8957087775313 ,96,3362311704903
25.9593826 ,Left ,68,8524926849221 ,44,9068233589365 ,96,3340158366636
25.9758326 ,Left ,68,8472726794127 ,44,9148210622585 ,96,3292255680185
25.9981617 ,Left ,68,8493417696802 ,44,9247393054302 ,96,3216086457162
26.0204997 ,Left ,68,84934945299 ,44,9318690335388 ,96,3144639419947
26.0355361 ,Left ,68,8628499634645 ,44,9386927276434 ,96,3117020914943
26.0580952 ,Left ,68,8713079101906 ,44,944001848235 ,96,3111190121931
26.0805569 ,Left ,68,8853158375227 ,44,9560906898916 ,96,3074497957032
26.0955814 ,Left ,68,8919790772558 ,44,9642590433452 ,96,3026070853876
26.1180221 ,Left ,68,8980855153781 ,44,9717335186446 ,96,2986468411967
26.1405352 ,Left ,68,9054875452225 ,44,9782215541562 ,96,2927528360867
26.1616225 ,Left ,68,9121488925573 ,44,9863931796653 ,96,2879262528376
26.1780683 ,Left ,68,9212020373174 ,44,9960691179105 ,96,2808289639156
26.2005751 ,Left ,68,9304402191711 ,45,0033695428296 ,96,2735505004433
26.214919 ,Left ,68,9345940916289 ,45,0126190681433 ,96,2669849291261
26.2379939 ,Left ,68,9369382985803 ,45,0265137064621 ,96,264373745821
26.260318 ,Left ,68,9346814877007 ,45,0421582284749 ,96,2590111630057
26.2748455 ,Left ,68,9401581930981 ,45,0558746794468 ,96,253077609859
26.2980313 ,Left ,68,944164685346 ,45,0640306806386 ,96,248164331736
26.3207563 ,Left ,68,950415965718 ,45,0725998008612 ,96,242620259291
26.3348802 ,Left ,68,9524364717214 ,45,0788600790358 ,96,2407439659078
26.3579741 ,Left ,68,9524777003952 ,45,0843050484977 ,96,2432953683662
26.3803866 ,Left ,68,959333358002 ,45,091880935868 ,96,2465394435828
26.3946684 ,Left ,68,9715347010189 ,45,0960253449225 ,96,2514862601498
26.4178963 ,Left ,68,9771976274806 ,45,1054633805058 ,96,2592567131896
26.4407154 ,Left ,68,9771976274806 ,45,1054633805058 ,96,2592567131896
26.4550641 ,Left ,68,9771976274806 ,45,1054633805058 ,96,2592567131896
26.4781101 ,Left ,68,9798483062521 ,45,1054846557911 ,96,2593873569275
26.5006049 ,Left ,68,9798483062521 ,45,1054846557911 ,96,2593873569275
26.5218731 ,Left ,68,9798483062521 ,45,1054846557911 ,96,2593873569275
26.5380942 ,Left ,68,9799920315963 ,45,106577770282 ,96,2577575163096
26.5606448 ,Left ,68,9972906422787 ,45,1087626836664 ,96,2620226545087
26.5818606 ,Left ,69,0087948267773 ,45,1093287401056 ,96,261270416513
26.5981038 ,Left ,69,0165347366672 ,45,1073998921293 ,96,2607096569885
26.6206424 ,Left ,69,0166775853572 ,45,1084949554061 ,96,2590808889705
26.6415878 ,Left ,69,0118643630841 ,45,1037249974327 ,96,2553821020718
26.6578493 ,Left ,69,010820515049 ,45,1014491572573 ,96,2514920355979
26.6803005 ,Left ,69,010820515049 ,45,1014491572573 ,96,2514920355979
26.7018132 ,Left ,69,0094471721149 ,45,1004579629925 ,96,2494280465029
26.718281 ,Left ,69,0094471721149 ,45,1004579629925 ,96,2494280465029
26.7410256 ,Left ,69,0083119590458 ,45,1025225763653 ,96,2497310627509
26.7621338 ,Left ,69,0084552379125 ,45,103617124122 ,96,2481021441164
26.7784685 ,Left ,69,011106944977 ,45,1036385246127 ,96,2482345662258
26.8005253 ,Left ,69,011106944977 ,45,1036385246127 ,96,2482345662258
26.8218288 ,Left ,69,011106944977 ,45,1036385246127 ,96,2482345662258
26.8380077 ,Left ,69,0170548107037 ,45,1082605675958 ,96,2377697287208
26.8604807 ,Left ,69,0192376246922 ,45,1103859422543 ,96,227501379416
26.8828104 ,Left ,69,0171590889108 ,45,114741658825 ,96,2208555423898
26.8978379 ,Left ,69,0171590889108 ,45,114741658825 ,96,2208555423898
26.920785 ,Left ,69,0198101308087 ,45,1147647960829 ,96,220991483375
26.9420128 ,Left ,69,0199532410259 ,45,1158594498614 ,96,2193642106302
26.9579929 ,Left ,69,0195515115883 ,45,1162494145061 ,96,2185987373468
26.9805245 ,Left ,69,0195269420758 ,45,1214838526757 ,96,2253839289742
27.0029877 ,Left ,69,0189622812024 ,45,1260127200966 ,96,2330314767844
27.0171879 ,Left ,69,0246228863401 ,45,1265323185739 ,96,2396857481839
27.0405067 ,Left ,69,0246982166594 ,45,1248145637659 ,96,2493267766465
27.0628975 ,Left ,69,0180250502686 ,45,121866684235 ,96,2608508090225
27.0779845 ,Left ,69,0089615909531 ,45,1174187927265 ,96,2746326658967
27.10097 ,Left ,68,9941289168178 ,45,1131299857443 ,96,2916106908028
27.1229684 ,Left ,68,9849283410854 ,45,1076018125484 ,96,3070324486842
27.1372936 ,Left ,68,9725052252955 ,45,0976873427406 ,96,3288627476943
27.160432 ,Left ,68,9683852155104 ,45,0778223766013 ,96,3439510743306
27.1829705 ,Left ,68,9661285899183 ,45,0418193826 ,96,358016253721
27.1973816 ,Left ,68,9436034805395 ,44,985530506397 ,96,3549735409686
27.2206308 ,Left ,68,8876786291741 ,44,9165516597853 ,96,3562073165686
27.2429552 ,Left ,68,8359352099074 ,44,8745580606792 ,96,3753587466787
27.2573256 ,Left ,68,7897844780319 ,44,8617594723706 ,96,4126560541165
27.2804948 ,Left ,68,7430379863102 ,44,8483355711701 ,96,4730667912804
27.3028138 ,Left ,68,7490393574055 ,44,8292316443826 ,96,5461296749841
27.3172067 ,Left ,68,7632427924148 ,44,7917392822844 ,96,6213666912157
27.3404159 ,Left ,68,7704827778058 ,44,7598651325834 ,96,6586291112312
27.3630621 ,Left ,68,7417160424391 ,44,7557240593573 ,96,6652098035146
27.3765364 ,Left ,68,7440758555112 ,44,7995585667773 ,96,6754439982189
27.3846503 ,Left ,68,7797496426434 ,44,8648486015832 ,96,6857805711405
27.4058557 ,Left ,68,8320312942089 ,44,9123769368304 ,96,7009691452021
27.4282771 ,Left ,68,8670793376362 ,44,9506986487337 ,96,7193211198164
27.4447079 ,Left ,68,8611128665748 ,44,9731238847124 ,96,7364782132156
27.4657681 ,Left ,68,8183024688658 ,44,9747961387412 ,96,7559619585808
27.488717 ,Left ,68,7891150997033 ,44,9716637809789 ,96,7755872848541
27.5049938 ,Left ,68,7744242642947 ,44,9698840020193 ,96,7673642362388
27.5261161 ,Left ,68,7549931771596 ,44,9453208615239 ,96,749998711643
27.5487468 ,Left ,68,7441285364834 ,44,9187973720104 ,96,7392255913463
27.565077 ,Left ,68,7586085800752 ,44,8907222328589 ,96,7343584547207
27.5858887 ,Left ,68,7647353699538 ,44,8700213751199 ,96,7254894450565
27.6087236 ,Left ,68,762509139289 ,44,8486811520906 ,96,7140732133949
27.6249831 ,Left ,68,7593253845913 ,44,8374664348046 ,96,6982876907949
27.6460841 ,Left ,68,7446491997246 ,44,8338371631082 ,96,6818810503834
27.6686185 ,Left ,68,7396431544079 ,44,8333329539342 ,96,6644531549893
27.6850528 ,Left ,68,7444604818756 ,44,826624583463 ,96,648953678679
27.7061353 ,Left ,68,7569542484904 ,44,808965226276 ,96,6318006644201
27.7286319 ,Left ,68,7624484791966 ,44,7826840014375 ,96,6131751717587
27.744906 ,Left ,68,7565769162162 ,44,7579232788917 ,96,5994841892528
27.7659434 ,Left ,68,7379857428275 ,44,758524415072 ,96,5876697243894
27.7882413 ,Left ,68,7313021743897 ,44,764637342767 ,96,6003985018661
27.8045285 ,Left ,68,7622939000359 ,44,7763142610495 ,96,6081195740737
27.8258942 ,Left ,68,8018149837713 ,44,7967627966242 ,96,5915341424172
27.8483506 ,Left ,68,7937909753681 ,44,8125543541338 ,96,5713264449844
27.8647567 ,Left ,68,8043739602526 ,44,8259295931822 ,96,5547424411313
27.8856967 ,Left ,68,8209252122678 ,44,8278921573315 ,96,5516763989617
27.9086836 ,Left ,68,8033069651405 ,44,8094272606293 ,96,5431136890907
27.9263763 ,Left ,68,7758503829859 ,44,7775442360414 ,96,5403771625926
27.9458802 ,Left ,68,7623174437873 ,44,7476181685607 ,96,5345069639591
27.9684865 ,Left ,68,770666174758 ,44,7499839688448 ,96,5272466412568
27.9862144 ,Left ,68,7806062460214 ,44,7644272179192 ,96,541936400924
28.0059273 ,Left ,68,82335250593 ,44,7751337352079 ,96,5511976456614
28.0282892 ,Left ,68,8468415652666 ,44,8202056074183 ,96,5596211512003
28.0462512 ,Left ,68,8494350229176 ,44,8751093341992 ,96,5678289615338
28.066308 ,Left ,68,8760450865716 ,44,9318927563349 ,96,5841342711965
28.0888222 ,Left ,68,9444243939697 ,44,98159683736 ,96,600145139325
28.106514 ,Left ,68,9435662386892 ,45,0167635048449 ,96,6343980094468
28.1262692 ,Left ,68,9083270654861 ,45,0445290880151 ,96,6796124368127
28.1487838 ,Left ,68,8752254707578 ,45,0662198234069 ,96,7232021393431
28.166438 ,Left ,68,8442170547083 ,45,0854853794153 ,96,7595540324292
28.1862221 ,Left ,68,8092439778773 ,45,1002033799268 ,96,7993051272621
28.2113605 ,Left ,68,7959463684716 ,45,1292671488353 ,96,842558471746
28.2264102 ,Left ,68,7858809761935 ,45,1718091315425 ,96,8836819440116
28.2461501 ,Left ,68,7568569456433 ,45,2060218981445 ,96,9191365301262
28.268722 ,Left ,68,7238931035886 ,45,2285972827563 ,96,9651254504788
28.2864782 ,Left ,68,6983281997399 ,45,230049539296 ,97,0067966278741
28.3061527 ,Left ,68,6911461113932 ,45,214755534452 ,97,0338276977397
28.3286624 ,Left ,68,6734279587843 ,45,2069066031921 ,97,0459335741729
28.3464509 ,Left ,68,639525308279 ,45,1999253991992 ,97,0460425387241
28.3661202 ,Left ,68,6236890882911 ,45,1937912863336 ,97,0263713908027
28.3885157 ,Left ,68,6215040037578 ,45,2005419739545 ,97,0197403254143
28.4064419 ,Left ,68,6075181474243 ,45,2104840084133 ,97,0230196471018
28.4262899 ,Left ,68,602310446944 ,45,2207279981861 ,97,0256049266276
28.4488188 ,Left ,68,6063479993389 ,45,2344058150874 ,97,0265310116379
28.46634 ,Left ,68,6066433185831 ,45,2524350071124 ,97,0318670973792
28.4874875 ,Left ,68,6476889905792 ,45,2544779594709 ,97,024732561893
28.5085563 ,Left ,68,6792914151263 ,45,2501406213985 ,97,0455932837602
28.5264567 ,Left ,68,6905231364926 ,45,272811553471 ,97,072862225826
28.5474769 ,Left ,68,7143218242588 ,45,3011876439122 ,97,0804068477498
28.5685365 ,Left ,68,7375537928858 ,45,3164875593311 ,97,0787115258637
28.5862592 ,Left ,68,8121625126951 ,45,3123189477217 ,97,0624710010682
28.6073478 ,Left ,68,8708272299468 ,45,2970521495811 ,97,0451734404671
28.6284169 ,Left ,68,8745396189087 ,45,273757242234 ,97,0260090041244
28.6462344 ,Left ,68,8743003608535 ,45,2471316136639 ,97,0045612522452
28.6672599 ,Left ,68,8795859168938 ,45,2215717342764 ,96,9815769231824
28.6885147 ,Left ,68,9016501934401 ,45,1988234939243 ,96,9541388249126
28.7062021 ,Left ,68,9271275128165 ,45,1811038087264 ,96,9300263863276
28.727482 ,Left ,68,9323178861249 ,45,1632393927189 ,96,9205789740686
28.7481906 ,Left ,68,9331246371675 ,45,1381274968115 ,96,9293343031531
28.7661965 ,Left ,68,9420525133968 ,45,1107092689871 ,96,9341586373299
28.7874091 ,Left ,68,9386348425124 ,45,0835653203894 ,96,9423785183703
28.8089875 ,Left ,68,9465611734183 ,45,0513186449252 ,96,9472838357073
28.826621 ,Left ,68,9529447742253 ,45,0242087778471 ,96,9445418943796
28.8490561 ,Left ,68,9561556303613 ,45,0142585618419 ,96,9268456629491
28.8683904 ,Left ,68,9614519682961 ,45,0099640766543 ,96,8971898018474
28.8862613 ,Left ,68,9653175650695 ,45,0006024617175 ,96,8570734398968
28.908649 ,Left ,68,9562104402618 ,44,9939466884309 ,96,8273027429622
28.9289195 ,Left ,68,9592735444642 ,45,0037855764341 ,96,8053862099716
28.9465134 ,Left ,68,9698420136119 ,45,0249789271119 ,96,7916676780141
28.9740121 ,Left ,68,9801195391789 ,45,0474771815113 ,96,7797347492446
28.9888078 ,Left ,68,9878794566944 ,45,0675813739888 ,96,7676324732388
29.0066118 ,Left ,68,9899499284273 ,45,1033242350917 ,96,7683715887917
29.0287733 ,Left ,68,9796024981049 ,45,1676233568585 ,96,7769052931755
29.0484509 ,Left ,68,9430067683172 ,45,243204367456 ,96,786458791842
29.0662958 ,Left ,68,9087314517083 ,45,3243576038085 ,96,7839956163207
29.0888615 ,Left ,68,8677042236613 ,45,398805542272 ,96,7839016878519
29.1082746 ,Left ,68,8276149875884 ,45,4678983289266 ,96,78816973833
29.126419 ,Left ,68,7893424210382 ,45,5354793735922 ,96,794340381169
29.1487995 ,Left ,68,7480343167931 ,45,5851907564235 ,96,8021549168756
29.1686477 ,Left ,68,7109047410152 ,45,6070662603838 ,96,8119717915808
29.1862536 ,Left ,68,6871768787235 ,45,6171243411958 ,96,8292230937348
29.2163498 ,Left ,68,6708427570141 ,45,6114830512061 ,96,8448497252841
29.2288432 ,Left ,68,6303678363895 ,45,6053917106171 ,96,8536978884182
29.2452447 ,Left ,68,6259799170488 ,45,5931581060631 ,96,8503771065372
29.2679462 ,Left ,68,6380665775066 ,45,6044320911129 ,96,851619573003
29.2891596 ,Left ,68,6358499906928 ,45,6040807030905 ,96,852175801599
29.305599 ,Left ,68,662968624091 ,45,5768644232152 ,96,8465504854466
29.3280367 ,Left ,68,695976696825 ,45,5212316338758 ,96,8514687236248
29.3491017 ,Left ,68,7284336526836 ,45,4481958276648 ,96,8427172491719
29.3654938 ,Left ,68,771570981293 ,45,3777729119276 ,96,8262024906698
29.3880556 ,Left ,68,7752037378476 ,45,3187215372445 ,96,8174709065111
29.4092198 ,Left ,68,7689841099116 ,45,2739358125329 ,96,8127118799323
29.4255224 ,Left ,68,7706317987663 ,45,2317932852438 ,96,8002037451294
29.4480535 ,Left ,68,7674853088067 ,45,189269837622 ,96,7882131783189
29.4693715 ,Left ,68,7636236975115 ,45,1508091831013 ,96,7773935406556
29.4857586 ,Left ,68,741531358992 ,45,1135260670362 ,96,7610541658393
29.5080129 ,Left ,68,7220215734845 ,45,1002725629408 ,96,7447576524707
29.5291679 ,Left ,68,6976677876701 ,45,1152506760347 ,96,7257191872219
29.5456106 ,Left ,68,7168375590704 ,45,1313302052306 ,96,7085394578442
29.568116 ,Left ,68,7593502222313 ,45,1198042349351 ,96,7078585347727
29.5906643 ,Left ,68,802210985129 ,45,103999967566 ,96,7208972038996
29.6055321 ,Left ,68,8040446246215 ,45,1082329485779 ,96,7180614947765
29.6278601 ,Left ,68,8169409711628 ,45,1230176488966 ,96,6993620969362
29.6491803 ,Left ,68,8631197321463 ,45,1322925629251 ,96,674585824869
29.6654961 ,Left ,68,9069455055302 ,45,1359932222914 ,96,6437574010896
29.6881479 ,Left ,68,9523759695138 ,45,1418092035434 ,96,6134199408608
29.7092908 ,Left ,68,9804385691926 ,45,1342377402427 ,96,5816655067476
29.7255461 ,Left ,68,9821812584737 ,45,120496536782 ,96,555267900889
29.7481754 ,Left ,68,9688062932777 ,45,1057680765657 ,96,5338267463144
29.7689271 ,Left ,68,9748022531159 ,45,0947297795623 ,96,5178474723405
29.785552 ,Left ,68,963280504529 ,45,0777287632265 ,96,5105726920809
29.8083778 ,Left ,68,9654222743401 ,45,0524884253722 ,96,5049947026631
29.8306091 ,Left ,68,9657984773495 ,45,0266521532709 ,96,4966065530346
29.8454821 ,Left ,68,9666420212833 ,45,0040973811452 ,96,4833022592715
29.8754333 ,Left ,68,960265319779 ,44,9885624543691 ,96,4738956177332
29.8905157 ,Left ,68,9489140784614 ,44,9928428540352 ,96,4673845659916
29.905367 ,Left ,68,936870042659 ,45,0040428996173 ,96,4686879241343
29.9280043 ,Left ,68,939003832694 ,45,0157415753124 ,96,4693165850494
29.9508015 ,Left ,68,9363007765101 ,45,0288004589373 ,96,4786937869125
29.965115 ,Left ,68,9280636399769 ,45,0353179501798 ,96,4869236680632
29.9882049 ,Left ,68,9094110259135 ,45,0436296895725 ,96,4997843443412
30.0105346 ,Left ,68,8980729251387 ,45,0538329163726 ,96,5098469011194
30.024833 ,Left ,68,8851140882417 ,45,0610558020731 ,96,5169453730919
30.0480269 ,Left ,68,8858269881063 ,45,059375396299 ,96,5158794560029
30.0706352 ,Left ,68,8884813246287 ,45,0593826191519 ,96,5159797670948
30.0848725 ,Left ,68,8762947681405 ,45,0571059985318 ,96,5192886451699
30.107922 ,Left ,68,8694554496486 ,45,0550205716389 ,96,5186474256925
30.1305429 ,Left ,68,8669307462014 ,45,0595838623572 ,96,5154117829818
30.1447332 ,Left ,68,8699636118453 ,45,0706858437748 ,96,5133081405777
30.1681749 ,Left ,68,8725884107772 ,45,0821692295043 ,96,5104852928852
30.1908188 ,Left ,68,8785784406945 ,45,0919802474096 ,96,5067039941925
30.2118851 ,Left ,68,8872838943035 ,45,090502376698 ,96,5017971769389
30.2281626 ,Left ,68,890971537243 ,45,0911907276454 ,96,49340434599
30.2506277 ,Left ,68,8936809644278 ,45,090518804638 ,96,483653069478
30.2649676 ,Left ,68,8818478524181 ,45,0897267726532 ,96,4738125064393
30.2882408 ,Left ,68,8759981098521 ,45,0916111260716 ,96,4673309600866
30.310694 ,Left ,68,8638306330521 ,45,096446076006 ,96,4634916930335
30.331863 ,Left ,68,8601692580008 ,45,1065387042291 ,96,4591073280861
30.3480006 ,Left ,68,853838504627 ,45,1129677706447 ,96,4602598526298
30.3706988 ,Left ,68,844561006762 ,45,1206824840009 ,96,4630924625184
30.3913761 ,Left ,68,8335840501805 ,45,1295821465755 ,96,4713219457798
30.4079979 ,Left ,68,8297742045281 ,45,1349369312704 ,96,4742117898233
30.4306152 ,Left ,68,8251752976276 ,45,1367058176656 ,96,471444490766
30.4515628 ,Left ,68,8292616029751 ,45,1370007503737 ,96,4637861164129
30.467946 ,Left ,68,8365846546043 ,45,1381865564308 ,96,4511711320184
30.4905253 ,Left ,68,8430566145145 ,45,1399680107416 ,96,4412571068713
30.5116243 ,Left ,68,8518103834681 ,45,1378027298385 ,96,4265239119079
30.5280109 ,Left ,68,8539705322949 ,45,1364108832334 ,96,4176957007394
30.550576 ,Left ,68,8546895954287 ,45,1418511017409 ,96,4095108318867
30.5716108 ,Left ,68,8556292321378 ,45,1501680142729 ,96,4078975855613
30.5880105 ,Left ,68,861759204133 ,45,1576017426321 ,96,403986182353
30.6106709 ,Left ,68,8768502101065 ,45,1621128324798 ,96,3975722826216
30.6318427 ,Left ,68,8821856813977 ,45,1623209963494 ,96,3936381853236
30.64803 ,Left ,68,8947744760409 ,45,167909783886 ,96,3854813144405
30.6704812 ,Left ,68,8942884338968 ,45,1665108117427 ,96,376535662018
30.6918107 ,Left ,68,8985299045347 ,45,1679153757208 ,96,367257531115
30.708038 ,Left ,68,9032031462831 ,45,1654654718182 ,96,3601861252161
30.7305873 ,Left ,68,9032031462831 ,45,1654654718182 ,96,3601861252161
30.7528535 ,Left ,68,9032031462831 ,45,1654654718182 ,96,3601861252161
30.7678931 ,Left ,68,9026300573869 ,45,1682317483044 ,96,3596143675535
30.7906178 ,Left ,68,9026300573869 ,45,1682317483044 ,96,3596143675535
30.812866 ,Left ,68,9032031462831 ,45,1654654718182 ,96,3601861252161
30.8279253 ,Left ,68,9032031462831 ,45,1654654718182 ,96,3601861252161
30.850667 ,Left ,68,905444253153 ,45,1658666105106 ,96,3595662288266
30.8733012 ,Left ,68,905444253153 ,45,1658666105106 ,96,3595662288266
30.8875229 ,Left ,68,9061604492754 ,45,164190083226 ,96,3585044952764
30.9106914 ,Left ,68,9065183904601 ,45,1681486168147 ,96,3634450696066
30.9330905 ,Left ,68,9064513086237 ,45,1688366531642 ,96,3732858945174
30.9475805 ,Left ,68,9143767251434 ,45,1697539376322 ,96,3793153574758
30.9705194 ,Left ,68,9213086872143 ,45,1701611310798 ,96,3896756909054
30.9928389 ,Left ,68,9220522936154 ,45,1709366162004 ,96,4066659005453
31.0076485 ,Left ,68,9305133057998 ,45,1697473519316 ,96,4231127544295
31.0308261 ,Left ,68,9336662803925 ,45,1648608996164 ,96,4449633053183
31.0535684 ,Left ,68,9260645294302 ,45,1543196808707 ,96,4679423634142
31.067679 ,Left ,68,9304000043295 ,45,1432137066687 ,96,4810923516038
31.0909443 ,Left ,68,9259907702967 ,45,1205140743082 ,96,4896662167525
31.1133186 ,Left ,68,9117243374398 ,45,0837699509689 ,96,4939720095988
31.1275439 ,Left ,68,8711660140255 ,45,0311553878251 ,96,4928502534714
31.1509955 ,Left ,68,8306687247875 ,44,9881206006035 ,96,5028254255257
31.1732732 ,Left ,68,786879799614 ,44,9775488395276 ,96,5295862392768
31.1945563 ,Left ,68,728134732562 ,44,969687131963 ,96,5778965175036
31.2105697 ,Left ,68,7335607059884 ,44,9677820174575 ,96,6393891925347
31.2331692 ,Left ,68,7459375174139 ,44,9609147515958 ,96,7045689422585
31.2541449 ,Left ,68,715847933377 ,44,9563159432373 ,96,7482528375692
31.2706021 ,Left ,68,683849572405 ,44,9731165244223 ,96,7594031280956
31.2932876 ,Left ,68,6684921938461 ,45,0129510098925 ,96,7500031890876
31.3141966 ,Left ,68,6893791266246 ,45,0721283216185 ,96,7292936361464
31.3305887 ,Left ,68,7171845966129 ,45,1161734120649 ,96,7096427838
31.3532732 ,Left ,68,7508701097332 ,45,1323128320523 ,96,6925473644784
31.3744586 ,Left ,68,7669219031694 ,45,1337113821447 ,96,6832139268581
31.3907752 ,Left ,68,7703817990708 ,45,1254502095234 ,96,6737982194519
31.413215 ,Left ,68,7787409960107 ,45,1175706693387 ,96,6638519534879
31.4343744 ,Left ,68,7746630938001 ,45,1044350642817 ,96,6547503842586
31.4506165 ,Left ,68,7637504260147 ,45,0822613408421 ,96,6480958743195
31.473026 ,Left ,68,7578766374885 ,45,0579113770076 ,96,6449198716383
31.4942902 ,Left ,68,7719835151168 ,45,0320927675042 ,96,6475835388105
31.5105493 ,Left ,68,7913741664155 ,45,0113073589887 ,96,6644862007811
31.5330813 ,Left ,68,7989105777694 ,44,9676545081126 ,96,683233218545
31.5543288 ,Left ,68,8094563404204 ,44,9228321720217 ,96,6961720977408
31.5705214 ,Left ,68,8052608653667 ,44,9207727278405 ,96,6956595321493
31.5930076 ,Left ,68,7737614096385 ,44,9403126142169 ,96,6846399801695
31.6140713 ,Left ,68,7868095016296 ,44,9824860222173 ,96,6608327140075
31.6305062 ,Left ,68,8578125035446 ,45,0273675594289 ,96,6365214009947
31.6528645 ,Left ,68,8943880004576 ,45,0418937544855 ,96,6292562963017
31.6741727 ,Left ,68,8777240345993 ,45,0275899924263 ,96,6326119194276
31.6905506 ,Left ,68,8470424691122 ,45,0068028053175 ,96,6421750868601
31.7134419 ,Left ,68,8293693418865 ,44,9998263193924 ,96,6526499146412
31.7356736 ,Left ,68,8332494449066 ,45,0110165419791 ,96,6576535696113
31.7502413 ,Left ,68,8302520010761 ,45,0470977646156 ,96,6686365322041
31.7729676 ,Left ,68,8508217120949 ,45,0626120008435 ,96,6888281549087
31.7955664 ,Left ,68,8680960214749 ,45,0862473582431 ,96,6930054240048
31.8166402 ,Left ,68,8755720740658 ,45,1154357719226 ,96,6853462633107
31.833049 ,Left ,68,8839120117972 ,45,1446977355766 ,96,684865621087
31.8555694 ,Left ,68,9274630971155 ,45,1696582585031 ,96,6910141571882
31.8700919 ,Left ,68,9255423469017 ,45,1944261922247 ,96,7080418859924
31.8931447 ,Left ,68,9217096143166 ,45,2065105055577 ,96,7152736145803
31.9155266 ,Left ,68,8723607499018 ,45,2106695022098 ,96,7305602040531
31.9299702 ,Left ,68,8432092903437 ,45,22457764104 ,96,7529886645369
31.9530964 ,Left ,68,8332497958694 ,45,2505382444647 ,96,7754949309574
31.9756614 ,Left ,68,8166308204872 ,45,2857530765141 ,96,7984922157058
31.9897692 ,Left ,68,7962042047609 ,45,3412277549059 ,96,8306364240668
32.0129874 ,Left ,68,7677121409233 ,45,4134341791895 ,96,8556226194256
32.0355869 ,Left ,68,739464144797 ,45,4663245814316 ,96,8733013018923
32.0498615 ,Left ,68,6982367108534 ,45,5122895238672 ,96,8941342621758
32.0730905 ,Left ,68,6651351963481 ,45,5453119983911 ,96,9237843227186
32.0953541 ,Left ,68,6340246417718 ,45,5583215083492 ,96,9473666540188
32.1099075 ,Left ,68,6163672154629 ,45,5528786949605 ,96,9592758491436
32.1330545 ,Left ,68,5879467756349 ,45,5434005444608 ,96,9591192274792
32.155563 ,Left ,68,5754493916832 ,45,5398125034799 ,96,9426231842469
32.169973 ,Left ,68,5463648022773 ,45,5302263474703 ,96,9205517190807
32.1932142 ,Left ,68,5584391612398 ,45,5837062920242 ,96,8934646348609
32.2157877 ,Left ,68,5817580036381 ,45,6050986253821 ,96,8755844914217
32.2366384 ,Left ,68,6385116239878 ,45,5949731805816 ,96,8914786790148
32.2529267 ,Left ,68,7179837335236 ,45,5996994455644 ,96,8994322501596
32.2754544 ,Left ,68,7610694658948 ,45,5919581324864 ,96,8934860416147
32.2965616 ,Left ,68,7899295827502 ,45,5885077261221 ,96,891566212802
32.31297 ,Left ,68,813827109451 ,45,572907351876 ,96,9044171647373
32.335567 ,Left ,68,8422804573491 ,45,5483142741629 ,96,8910356155584
32.3566582 ,Left ,68,8566442227154 ,45,5111491576904 ,96,8676614486232
32.3730147 ,Left ,68,8701872772322 ,45,4702941382849 ,96,8426766807258
32.3954051 ,Left ,68,8803387313096 ,45,4392244246469 ,96,8207159779391
32.4166125 ,Left ,68,8924635668321 ,45,4122444882668 ,96,7999769683236
32.4331333 ,Left ,68,8966186972346 ,45,3907177634253 ,96,7889913608825
32.455752 ,Left ,68,9203947661716 ,45,3773329344359 ,96,7804305094619
32.4767931 ,Left ,68,9431349439937 ,45,3592951791265 ,96,7678778087387
32.4929867 ,Left ,68,9573019180708 ,45,3392805836379 ,96,7616741417708
32.5154057 ,Left ,68,9505731074169 ,45,3315105037166 ,96,7590312576491
32.5365601 ,Left ,68,9259468311496 ,45,3392288133161 ,96,7544735009292
32.5529856 ,Left ,68,9198732129502 ,45,3472456729389 ,96,7424484593675
32.5753545 ,Left ,68,9265263682724 ,45,3408635172225 ,96,7305342713306
32.5966361 ,Left ,68,9301587407403 ,45,3246483668785 ,96,7149913476085
32.6129419 ,Left ,68,9314471131883 ,45,3139684896463 ,96,698618909241
32.6355642 ,Left ,68,9133093642366 ,45,3063661878921 ,96,6810583873416
32.6580987 ,Left ,68,9066194530717 ,45,2984804287485 ,96,6530355764863
32.6730436 ,Left ,68,921851189315 ,45,3002818666111 ,96,6251991985923
32.6955919 ,Left ,68,9402497572626 ,45,3023381865361 ,96,5825979540781
32.7181307 ,Left ,68,9494246375986 ,45,2930774781969 ,96,5387957584751
32.7330617 ,Left ,68,9445854767724 ,45,284662671522 ,96,515212579177
32.755536 ,Left ,68,9419356174178 ,45,284648041715 ,96,5150989581966
32.7780049 ,Left ,68,9516301118866 ,45,2999395312603 ,96,5212621165767
32.7921261 ,Left ,68,9538231541607 ,45,3153095716472 ,96,5417588772346
32.815564 ,Left ,68,9479712813943 ,45,3295400567226 ,96,5635466026043
32.838015 ,Left ,68,9241454014038 ,45,3510884649821 ,96,5888296700869
32.8523495 ,Left ,68,8837274623326 ,45,3800040554766 ,96,6171936957997
32.8755315 ,Left ,68,8472899480733 ,45,4183559222175 ,96,642346894507
32.8976966 ,Left ,68,816920721392 ,45,4513297449111 ,96,6754867836594
32.9127942 ,Left ,68,7932648321711 ,45,4740416491195 ,96,7097183237438
32.9359274 ,Left ,68,7661685237262 ,45,4894649721685 ,96,7478467631229
32.9583592 ,Left ,68,7335146380721 ,45,5087537807509 ,96,7835317093415
32.9727329 ,Left ,68,7063492122972 ,45,5257020206818 ,96,8192924985238
32.9960598 ,Left ,68,6905331635515 ,45,5549260113597 ,96,8474979604096
33.0181433 ,Left ,68,6795037244589 ,45,5779095985903 ,96,8668804335867
33.0323909 ,Left ,68,6735284405499 ,45,5657025382798 ,96,8745797009408
33.0554654 ,Left ,68,6661841304692 ,45,5628355227665 ,96,8788933316745
33.0780736 ,Left ,68,6798180019908 ,45,5599312314781 ,96,8834010225943
33.0924107 ,Left ,68,6897296014552 ,45,572589678948 ,96,9042235893578
33.0999997 ,Left ,68,6914468239267 ,45,5813075163999 ,96,9090561256463
33.1205721 ,Left ,68,7380339443948 ,45,5519502473531 ,96,9030796308899
33.1433789 ,Left ,68,7863200216431 ,45,4960020269954 ,96,8939097393697
33.1599204 ,Left ,68,8157153825799 ,45,4489961333718 ,96,874478611629
33.1807593 ,Left ,68,8425892079187 ,45,3881820539348 ,96,8576467826948
33.2034652 ,Left ,68,8461866337244 ,45,3255241152195 ,96,8543785041679
33.2196968 ,Left ,68,8442431865577 ,45,2665581162127 ,96,8527846126285
33.2407837 ,Left ,68,8535468914872 ,45,2295267763405 ,96,8325066179068
33.2633815 ,Left ,68,8345879879877 ,45,1911246450997 ,96,8034937333521
33.2798042 ,Left ,68,812788584995 ,45,1606914543227 ,96,7805455960357
33.3007743 ,Left ,68,7973158184885 ,45,138256681868 ,96,7635706646831
33.3237424 ,Left ,68,7975325040125 ,45,1425514305612 ,96,7390049894189
33.3399199 ,Left ,68,76580447511 ,45,1551995667306 ,96,7087983285942
33.3610903 ,Left ,68,7792586470444 ,45,1777928266196 ,96,6820000955994
33.3836555 ,Left ,68,8215010142911 ,45,1562949591458 ,96,6819505697071
33.3999601 ,Left ,68,8870922121046 ,45,1306299693385 ,96,6843240442966
33.4213678 ,Left ,68,9151227527593 ,45,1357414303832 ,96,6693906434453
33.4437722 ,Left ,68,9067294736347 ,45,1643653065916 ,96,6480970931056
33.4614777 ,Left ,68,9245346355425 ,45,1980265754753 ,96,6231099024466
33.4811775 ,Left ,68,9510395578156 ,45,231023562103 ,96,5990685169408
33.5032136 ,Left ,68,9742925294747 ,45,2516938773103 ,96,5828957029506
33.5195845 ,Left ,68,9941852343014 ,45,2627553843906 ,96,566461739851
33.540605 ,Left ,69,0060428382314 ,45,2728294108532 ,96,5480980009152
33.5634051 ,Left ,69,0197283665376 ,45,2758764849306 ,96,5256805548482
33.5813464 ,Left ,69,027387765565 ,45,2726216943962 ,96,5054659594592
33.6008276 ,Left ,69,0384614569378 ,45,2685218837263 ,96,490012525927
33.6234547 ,Left ,69,0546002734475 ,45,2581432367961 ,96,4696670517239
33.6412931 ,Left ,69,0748662928466 ,45,2409651625137 ,96,4487466421368
33.6610686 ,Left ,69,0824068081466 ,45,2199670473294 ,96,4262109967642
33.6836493 ,Left ,69,0931529663883 ,45,1953020314576 ,96,4018105835639
