timestamp,event,roll,pitch,yaw
0.0230842 ,Left ,72,9023805696493 ,48,4838024398797 ,50,2323877234543
0.0230862 ,Left ,72,9023805696493 ,48,4838024398797 ,50,2323877234543
0.0230878 ,Left ,72,9023805696493 ,48,4838024398797 ,50,2323877234543
0.0402666 ,Left ,72,9149540148837 ,48,4777745115215 ,50,1825247729755
0.0402743 ,Left ,72,9149540148837 ,48,4777745115215 ,50,1825247729755
0.040285 ,Left ,72,9149540148837 ,48,4777745115215 ,50,1825247729755
0.0627806 ,Left ,72,9146059887874 ,48,4681177906414 ,50,1404733907179
0.0627884 ,Left ,72,9146059887874 ,48,4681177906414 ,50,1404733907179
0.0627952 ,Left ,72,9146059887874 ,48,4681177906414 ,50,1404733907179
0.0838576 ,Left ,72,8984028468852 ,48,4536273583258 ,50,1077080103853
0.0838656 ,Left ,72,8984028468852 ,48,4536273583258 ,50,1077080103853
0.0838723 ,Left ,72,8984028468852 ,48,4536273583258 ,50,1077080103853
0.1005131 ,Left ,72,8746107813793 ,48,4404928972522 ,50,0767122782496
0.1005185 ,Left ,72,8746107813793 ,48,4404928972522 ,50,0767122782496
0.1005232 ,Left ,72,8746107813793 ,48,4404928972522 ,50,0767122782496
0.1223688 ,Left ,72,8479000896266 ,48,4303065765017 ,50,0483680715182
0.1223708 ,Left ,72,8479000896266 ,48,4303065765017 ,50,0483680715182
0.1223723 ,Left ,72,8479000896266 ,48,4303065765017 ,50,0483680715182
0.1445666 ,Left ,72,8184882967203 ,48,4269609216618 ,50,0211444591882
0.1445684 ,Left ,72,8184882967203 ,48,4269609216618 ,50,0211444591882
0.1445744 ,Left ,72,8184882967203 ,48,4269609216618 ,50,0211444591882
0.1597207 ,Left ,72,7968157961143 ,48,4223076083453 ,49,9949868594604
0.1597227 ,Left ,72,7968157961143 ,48,4223076083453 ,49,9949868594604
0.1597243 ,Left ,72,7968157961143 ,48,4223076083453 ,49,9949868594604
0.1823174 ,Left ,72,774546344432 ,48,4157077743732 ,49,979967810746
0.1823207 ,Left ,72,774546344432 ,48,4157077743732 ,49,979967810746
0.1823234 ,Left ,72,774546344432 ,48,4157077743732 ,49,979967810746
0.2053107 ,Left ,72,7538598718263 ,48,4118566427184 ,49,9854178065734
0.2053143 ,Left ,72,7538598718263 ,48,4118566427184 ,49,9854178065734
0.2053173 ,Left ,72,7538598718263 ,48,4118566427184 ,49,9854178065734
0.2197999 ,Left ,72,7294625024508 ,48,4108489169274 ,50,0115433644043
0.2198039 ,Left ,72,7294625024508 ,48,4108489169274 ,50,0115433644043
0.2198075 ,Left ,72,7294625024508 ,48,4108489169274 ,50,0115433644043
0.2424131 ,Left ,72,7240378064186 ,48,414772766878 ,50,0666945962333
0.2424175 ,Left ,72,7240378064186 ,48,414772766878 ,50,0666945962333
0.2424211 ,Left ,72,7240378064186 ,48,414772766878 ,50,0666945962333
0.2649671 ,Left ,72,7359734136859 ,48,4172491066435 ,50,1404027904638
0.2649713 ,Left ,72,7359734136859 ,48,4172491066435 ,50,1404027904638
0.2649749 ,Left ,72,7359734136859 ,48,4172491066435 ,50,1404027904638
0.2792059 ,Left ,72,7522014231423 ,48,4093535239693 ,50,2435380164355
0.27921 ,Left ,72,7522014231423 ,48,4093535239693 ,50,2435380164355
0.2792135 ,Left ,72,7522014231423 ,48,4093535239693 ,50,2435380164355
0.3022451 ,Left ,72,780661311459 ,48,3990261321753 ,50,3752370340162
0.302248 ,Left ,72,780661311459 ,48,3990261321753 ,50,3752370340162
0.3022504 ,Left ,72,780661311459 ,48,3990261321753 ,50,3752370340162
0.3249338 ,Left ,72,8056137075389 ,48,3931788281365 ,50,5342394515135
0.3249368 ,Left ,72,8056137075389 ,48,3931788281365 ,50,5342394515135
0.3249392 ,Left ,72,8056137075389 ,48,3931788281365 ,50,5342394515135
0.339573 ,Left ,72,8438867008669 ,48,3942084776138 ,50,7017846183867
0.3395807 ,Left ,72,8438867008669 ,48,3942084776138 ,50,7017846183867
0.3395914 ,Left ,72,8438867008669 ,48,3942084776138 ,50,7017846183867
0.3627631 ,Left ,72,8597138499777 ,48,4047280608369 ,50,8657478085491
0.3627708 ,Left ,72,8597138499777 ,48,4047280608369 ,50,8657478085491
0.3627776 ,Left ,72,8597138499777 ,48,4047280608369 ,50,8657478085491
0.385046 ,Left ,72,8450878358678 ,48,4136701993676 ,51,0368568963862
0.3850535 ,Left ,72,8450878358678 ,48,4136701993676 ,51,0368568963862
0.3850603 ,Left ,72,8450878358678 ,48,4136701993676 ,51,0368568963862
0.4063587 ,Left ,72,8417289006421 ,48,4158707983149 ,51,2148330493929
0.4063666 ,Left ,72,8417289006421 ,48,4158707983149 ,51,2148330493929
0.4063734 ,Left ,72,8417289006421 ,48,4158707983149 ,51,2148330493929
0.4227891 ,Left ,72,8313894430674 ,48,4099517781816 ,51,3909296018341
0.4227967 ,Left ,72,8313894430674 ,48,4099517781816 ,51,3909296018341
0.4228036 ,Left ,72,8313894430674 ,48,4099517781816 ,51,3909296018341
0.4448609 ,Left ,72,8247151730434 ,48,3949340790747 ,51,5566955906654
0.4448651 ,Left ,72,8247151730434 ,48,3949340790747 ,51,5566955906654
0.4448687 ,Left ,72,8247151730434 ,48,3949340790747 ,51,5566955906654
0.4658988 ,Left ,72,8078611500301 ,48,3693216949586 ,51,7000237120328
0.4659019 ,Left ,72,8078611500301 ,48,3693216949586 ,51,7000237120328
0.4659043 ,Left ,72,8078611500301 ,48,3693216949586 ,51,7000237120328
0.4827163 ,Left ,72,7888343544509 ,48,3234103600294 ,51,8259315839393
0.482719 ,Left ,72,7888343544509 ,48,3234103600294 ,51,8259315839393
0.4827215 ,Left ,72,7888343544509 ,48,3234103600294 ,51,8259315839393
0.5048942 ,Left ,72,7699751777564 ,48,2709964123587 ,51,9567076449165
0.5048973 ,Left ,72,7699751777564 ,48,2709964123587 ,51,9567076449165
0.5048997 ,Left ,72,7699751777564 ,48,2709964123587 ,51,9567076449165
0.5258954 ,Left ,72,7434903845661 ,48,2311005815798 ,52,1007898906518
0.5258987 ,Left ,72,7434903845661 ,48,2311005815798 ,52,1007898906518
0.5259012 ,Left ,72,7434903845661 ,48,2311005815798 ,52,1007898906518
0.542333 ,Left ,72,7120964124756 ,48,2010617812616 ,52,2402659240469
0.5423364 ,Left ,72,7120964124756 ,48,2010617812616 ,52,2402659240469
0.5423389 ,Left ,72,7120964124756 ,48,2010617812616 ,52,2402659240469
0.564814 ,Left ,72,6577983534576 ,48,1712589780071 ,52,3566674632102
0.5648174 ,Left ,72,6577983534576 ,48,1712589780071 ,52,3566674632102
0.5648202 ,Left ,72,6577983534576 ,48,1712589780071 ,52,3566674632102
0.5859549 ,Left ,72,5854693707367 ,48,146812870805 ,52,4668157827046
0.585963 ,Left ,72,5854693707367 ,48,146812870805 ,52,4668157827046
0.5859661 ,Left ,72,5854693707367 ,48,146812870805 ,52,4668157827046
0.6024309 ,Left ,72,542465509255 ,48,1372088337182 ,52,5770472785573
0.6024348 ,Left ,72,542465509255 ,48,1372088337182 ,52,5770472785573
0.602438 ,Left ,72,542465509255 ,48,1372088337182 ,52,5770472785573
0.6248691 ,Left ,72,5132605900955 ,48,1433414983139 ,52,705726467582
0.6248729 ,Left ,72,5132605900955 ,48,1433414983139 ,52,705726467582
0.6248761 ,Left ,72,5132605900955 ,48,1433414983139 ,52,705726467582
0.6535286 ,Left ,72,4679442204413 ,48,1746124277925 ,52,8528638341418
0.6535325 ,Left ,72,4679442204413 ,48,1746124277925 ,52,8528638341418
0.6535357 ,Left ,72,4679442204413 ,48,1746124277925 ,52,8528638341418
0.6684212 ,Left ,72,409472109477 ,48,2354784517896 ,53,0037028085533
0.6684251 ,Left ,72,409472109477 ,48,2354784517896 ,53,0037028085533
0.6684283 ,Left ,72,409472109477 ,48,2354784517896 ,53,0037028085533
0.6848744 ,Left ,72,3345985427373 ,48,2985619998736 ,53,1553698608538
0.6848782 ,Left ,72,3345985427373 ,48,2985619998736 ,53,1553698608538
0.6848814 ,Left ,72,3345985427373 ,48,2985619998736 ,53,1553698608538
0.7060559 ,Left ,72,2570857941302 ,48,3447910861423 ,53,2920076180277
0.7060599 ,Left ,72,2570857941302 ,48,3447910861423 ,53,2920076180277
0.7060631 ,Left ,72,2570857941302 ,48,3447910861423 ,53,2920076180277
0.7223338 ,Left ,72,2007819025155 ,48,3624909889904 ,53,4048201684268
0.7223375 ,Left ,72,2007819025155 ,48,3624909889904 ,53,4048201684268
0.7223407 ,Left ,72,2007819025155 ,48,3624909889904 ,53,4048201684268
0.7448991 ,Left ,72,1477071047801 ,48,3527414408379 ,53,5047978306803
0.7449048 ,Left ,72,1477071047801 ,48,3527414408379 ,53,5047978306803
0.7449095 ,Left ,72,1477071047801 ,48,3527414408379 ,53,5047978306803
0.7658262 ,Left ,72,1273434757035 ,48,3401030130194 ,53,5932578706641
0.7658282 ,Left ,72,1273434757035 ,48,3401030130194 ,53,5932578706641
0.7658297 ,Left ,72,1273434757035 ,48,3401030130194 ,53,5932578706641
0.7818034 ,Left ,72,0941198536128 ,48,3271197725726 ,53,6757934602365
0.7818059 ,Left ,72,0941198536128 ,48,3271197725726 ,53,6757934602365
0.7818078 ,Left ,72,0941198536128 ,48,3271197725726 ,53,6757934602365
0.8048473 ,Left ,72,0566694690928 ,48,2932945273012 ,53,7511232557559
0.8048504 ,Left ,72,0566694690928 ,48,2932945273012 ,53,7511232557559
0.8048531 ,Left ,72,0566694690928 ,48,2932945273012 ,53,7511232557559
0.8260144 ,Left ,72,0387536021546 ,48,2512321654135 ,53,8204791700661
0.8260188 ,Left ,72,0387536021546 ,48,2512321654135 ,53,8204791700661
0.8260224 ,Left ,72,0387536021546 ,48,2512321654135 ,53,8204791700661
0.842546 ,Left ,72,031359464277 ,48,2207817723923 ,53,8769193847872
0.8425511 ,Left ,72,031359464277 ,48,2207817723923 ,53,8769193847872
0.8425554 ,Left ,72,031359464277 ,48,2207817723923 ,53,8769193847872
0.8650248 ,Left ,72,0225062019311 ,48,2106162712205 ,53,9244305501077
0.8650313 ,Left ,72,0225062019311 ,48,2106162712205 ,53,9244305501077
0.865037 ,Left ,72,0225062019311 ,48,2106162712205 ,53,9244305501077
0.8862763 ,Left ,72,0277482298132 ,48,2267992994036 ,53,9583794346787
0.8862832 ,Left ,72,0277482298132 ,48,2267992994036 ,53,9583794346787
0.8862888 ,Left ,72,0277482298132 ,48,2267992994036 ,53,9583794346787
0.902718 ,Left ,72,0281104167016 ,48,2457874898121 ,53,9844522950672
0.9027242 ,Left ,72,0281104167016 ,48,2457874898121 ,53,9844522950672
0.9027298 ,Left ,72,0281104167016 ,48,2457874898121 ,53,9844522950672
0.924841 ,Left ,72,0148897742925 ,48,2553703536119 ,54,012192398308
0.9248449 ,Left ,72,0148897742925 ,48,2553703536119 ,54,012192398308
0.9248481 ,Left ,72,0148897742925 ,48,2553703536119 ,54,012192398308
0.9459564 ,Left ,71,9806480424119 ,48,2528519996285 ,54,0468297721739
0.9459603 ,Left ,71,9806480424119 ,48,2528519996285 ,54,0468297721739
0.9459635 ,Left ,71,9806480424119 ,48,2528519996285 ,54,0468297721739
0.9623045 ,Left ,71,9150086439264 ,48,2441346479739 ,54,0772575592508
0.9623081 ,Left ,71,9150086439264 ,48,2441346479739 ,54,0772575592508
0.9623113 ,Left ,71,9150086439264 ,48,2441346479739 ,54,0772575592508
0.9848099 ,Left ,71,8585905546097 ,48,2317594422094 ,54,0948275377428
0.9848137 ,Left ,71,8585905546097 ,48,2317594422094 ,54,0948275377428
0.9848169 ,Left ,71,8585905546097 ,48,2317594422094 ,54,0948275377428
1.0057396 ,Left ,71,8165796250115 ,48,2136358435314 ,54,0984419417323
1.0057415 ,Left ,71,8165796250115 ,48,2136358435314 ,54,0984419417323
1.0057429 ,Left ,71,8165796250115 ,48,2136358435314 ,54,0984419417323
1.0223215 ,Left ,71,7943829880677 ,48,1940498325093 ,54,0990740241942
1.0223234 ,Left ,71,7943829880677 ,48,1940498325093 ,54,0990740241942
1.0223249 ,Left ,71,7943829880677 ,48,1940498325093 ,54,0990740241942
1.0449354 ,Left ,71,7780121579365 ,48,175865862293 ,54,1064700818083
1.0449383 ,Left ,71,7780121579365 ,48,175865862293 ,54,1064700818083
1.04494 ,Left ,71,7780121579365 ,48,175865862293 ,54,1064700818083
1.0677313 ,Left ,71,7638974312956 ,48,1583259336097 ,54,1093177968692
1.0677522 ,Left ,71,7638974312956 ,48,1583259336097 ,54,1093177968692
1.0677623 ,Left ,71,7638974312956 ,48,1583259336097 ,54,1093177968692
1.0824238 ,Left ,71,7495997253794 ,48,1392947946329 ,54,1109557707901
1.0824292 ,Left ,71,7495997253794 ,48,1392947946329 ,54,1109557707901
1.0824339 ,Left ,71,7495997253794 ,48,1392947946329 ,54,1109557707901
1.1048565 ,Left ,71,7340312588738 ,48,1013665890093 ,54,1176289538224
1.1048606 ,Left ,71,7340312588738 ,48,1013665890093 ,54,1176289538224
1.1048642 ,Left ,71,7340312588738 ,48,1013665890093 ,54,1176289538224
1.127216 ,Left ,71,7208215257145 ,48,0531632431344 ,54,136557253562
1.1272178 ,Left ,71,7208215257145 ,48,0531632431344 ,54,136557253562
1.1272193 ,Left ,71,7208215257145 ,48,0531632431344 ,54,136557253562
1.1424289 ,Left ,71,7064222537829 ,48,0112157360774 ,54,1757736823149
1.142431 ,Left ,71,7064222537829 ,48,0112157360774 ,54,1757736823149
1.1424326 ,Left ,71,7064222537829 ,48,0112157360774 ,54,1757736823149
1.164677 ,Left ,71,6852750929816 ,47,9964638063331 ,54,2418020110484
1.1646788 ,Left ,71,6852750929816 ,47,9964638063331 ,54,2418020110484
1.1646802 ,Left ,71,6852750929816 ,47,9964638063331 ,54,2418020110484
1.1873019 ,Left ,71,5942665065078 ,47,994861676384 ,54,3052026417556
1.1873041 ,Left ,71,5942665065078 ,47,994861676384 ,54,3052026417556
1.1873057 ,Left ,71,5942665065078 ,47,994861676384 ,54,3052026417556
1.2098363 ,Left ,71,5278934700325 ,48,0001525481084 ,54,3418437305459
1.2098388 ,Left ,71,5278934700325 ,48,0001525481084 ,54,3418437305459
1.2098407 ,Left ,71,5278934700325 ,48,0001525481084 ,54,3418437305459
1.2248966 ,Left ,71,4604484574726 ,48,0681874601285 ,54,3470628281604
1.2248994 ,Left ,71,4604484574726 ,48,0681874601285 ,54,3470628281604
1.2249015 ,Left ,71,4604484574726 ,48,0681874601285 ,54,3470628281604
1.2472374 ,Left ,71,3989982398129 ,48,1320028054955 ,54,3188222060133
1.2472401 ,Left ,71,3989982398129 ,48,1320028054955 ,54,3188222060133
1.2472422 ,Left ,71,3989982398129 ,48,1320028054955 ,54,3188222060133
1.2617703 ,Left ,71,3505253489258 ,48,15630484876 ,54,2649638766262
1.2617733 ,Left ,71,3505253489258 ,48,15630484876 ,54,2649638766262
1.2617754 ,Left ,71,3505253489258 ,48,15630484876 ,54,2649638766262
1.2863668 ,Left ,71,3360141658251 ,48,1717122129554 ,54,1958230864391
1.2863697 ,Left ,71,3360141658251 ,48,1717122129554 ,54,1958230864391
1.2863721 ,Left ,71,3360141658251 ,48,1717122129554 ,54,1958230864391
1.315212 ,Left ,71,3167854462928 ,48,1670657976884 ,54,1181433859878
1.3152198 ,Left ,71,3167854462928 ,48,1670657976884 ,54,1181433859878
1.3152267 ,Left ,71,3167854462928 ,48,1670657976884 ,54,1181433859878
1.3217076 ,Left ,71,3025775969187 ,48,1562659309443 ,54,0411690684412
1.3217097 ,Left ,71,3025775969187 ,48,1562659309443 ,54,0411690684412
1.3217112 ,Left ,71,3025775969187 ,48,1562659309443 ,54,0411690684412
1.3449095 ,Left ,71,2951197066073 ,48,1373807646292 ,53,9629842233578
1.344912 ,Left ,71,2951197066073 ,48,1373807646292 ,53,9629842233578
1.3449139 ,Left ,71,2951197066073 ,48,1373807646292 ,53,9629842233578
1.3671484 ,Left ,71,2818484783071 ,48,13239623168 ,53,8906820024637
1.3671503 ,Left ,71,2818484783071 ,48,13239623168 ,53,8906820024637
1.3671519 ,Left ,71,2818484783071 ,48,13239623168 ,53,8906820024637
1.3820304 ,Left ,71,2598176386593 ,48,1335416386244 ,53,8404234412742
1.3820381 ,Left ,71,2598176386593 ,48,1335416386244 ,53,8404234412742
1.3820448 ,Left ,71,2598176386593 ,48,1335416386244 ,53,8404234412742
1.4048346 ,Left ,71,2090258490959 ,48,1072651496192 ,53,8781530808969
1.4048379 ,Left ,71,2090258490959 ,48,1072651496192 ,53,8781530808969
1.4048408 ,Left ,71,2090258490959 ,48,1072651496192 ,53,8781530808969
1.427724 ,Left ,71,1282551887606 ,47,9897375680507 ,53,9666318330469
1.4277317 ,Left ,71,1282551887606 ,47,9897375680507 ,53,9666318330469
1.4277384 ,Left ,71,1282551887606 ,47,9897375680507 ,53,9666318330469
1.4490756 ,Left ,71,1407081878706 ,47,8826180135351 ,54,0590629823196
1.4490956 ,Left ,71,1407081878706 ,47,8826180135351 ,54,0590629823196
1.449104 ,Left ,71,1407081878706 ,47,8826180135351 ,54,0590629823196
1.465268 ,Left ,71,1666474160572 ,47,8020831696659 ,54,1176564681487
1.4652888 ,Left ,71,1666474160572 ,47,8020831696659 ,54,1176564681487
1.4652985 ,Left ,71,1666474160572 ,47,8020831696659 ,54,1176564681487
1.4875216 ,Left ,71,1578985000993 ,47,8133242765989 ,54,1336015341791
1.4875275 ,Left ,71,1578985000993 ,47,8133242765989 ,54,1336015341791
1.4875324 ,Left ,71,1578985000993 ,47,8133242765989 ,54,1336015341791
1.5082871 ,Left ,71,0837886627053 ,47,8944253471379 ,54,1264798145643
1.508289 ,Left ,71,0837886627053 ,47,8944253471379 ,54,1264798145643
1.5082905 ,Left ,71,0837886627053 ,47,8944253471379 ,54,1264798145643
1.5249143 ,Left ,70,9995984752476 ,47,9733510611933 ,54,1144736712235
1.5249168 ,Left ,70,9995984752476 ,47,9733510611933 ,54,1144736712235
1.5249183 ,Left ,70,9995984752476 ,47,9733510611933 ,54,1144736712235
1.5473458 ,Left ,70,9170943046464 ,48,0285402607611 ,54,1287555227991
1.5473476 ,Left ,70,9170943046464 ,48,0285402607611 ,54,1287555227991
1.5473646 ,Left ,70,9170943046464 ,48,0285402607611 ,54,1287555227991
1.5682904 ,Left ,70,8406462088468 ,48,0463373664581 ,54,1742975361273
1.5682923 ,Left ,70,8406462088468 ,48,0463373664581 ,54,1742975361273
1.5682938 ,Left ,70,8406462088468 ,48,0463373664581 ,54,1742975361273
1.5923684 ,Left ,70,8164351415932 ,48,0239288554552 ,54,2408337916015
1.5923708 ,Left ,70,8164351415932 ,48,0239288554552 ,54,2408337916015
1.5923726 ,Left ,70,8164351415932 ,48,0239288554552 ,54,2408337916015
1.6073571 ,Left ,70,8584878049408 ,47,9943995840797 ,54,2947975918954
1.6073594 ,Left ,70,8584878049408 ,47,9943995840797 ,54,2947975918954
1.6073611 ,Left ,70,8584878049408 ,47,9943995840797 ,54,2947975918954
1.6284853 ,Left ,70,8520352898166 ,47,9636791645478 ,54,3234518257344
1.6284878 ,Left ,70,8520352898166 ,47,9636791645478 ,54,3234518257344
1.6284897 ,Left ,70,8520352898166 ,47,9636791645478 ,54,3234518257344
1.6447185 ,Left ,70,7794343162759 ,47,9492550948153 ,54,3468610229398
1.6447215 ,Left ,70,7794343162759 ,47,9492550948153 ,54,3468610229398
1.6447241 ,Left ,70,7794343162759 ,47,9492550948153 ,54,3468610229398
1.6673098 ,Left ,70,6592476955299 ,47,9915451164016 ,54,3589496860915
1.667313 ,Left ,70,6592476955299 ,47,9915451164016 ,54,3589496860915
1.6673157 ,Left ,70,6592476955299 ,47,9915451164016 ,54,3589496860915
1.688348 ,Left ,70,5516275975487 ,48,0449974058838 ,54,392199742095
1.6883513 ,Left ,70,5516275975487 ,48,0449974058838 ,54,392199742095
1.6883539 ,Left ,70,5516275975487 ,48,0449974058838 ,54,392199742095
1.7048923 ,Left ,70,4799867251849 ,48,0641659445221 ,54,4652386611106
1.7048957 ,Left ,70,4799867251849 ,48,0641659445221 ,54,4652386611106
1.7048984 ,Left ,70,4799867251849 ,48,0641659445221 ,54,4652386611106
1.7272597 ,Left ,70,4339809737565 ,48,0306899624092 ,54,5569035715892
1.7272627 ,Left ,70,4339809737565 ,48,0306899624092 ,54,5569035715892
1.7272654 ,Left ,70,4339809737565 ,48,0306899624092 ,54,5569035715892
1.7481948 ,Left ,70,4221016956746 ,47,9347719302783 ,54,6680432792601
1.7481967 ,Left ,70,4221016956746 ,47,9347719302783 ,54,6680432792601
1.7481982 ,Left ,70,4221016956746 ,47,9347719302783 ,54,6680432792601
1.7645863 ,Left ,70,3882812532912 ,47,8236718284238 ,54,7696923761035
1.7645883 ,Left ,70,3882812532912 ,47,8236718284238 ,54,7696923761035
1.7645898 ,Left ,70,3882812532912 ,47,8236718284238 ,54,7696923761035
1.7873704 ,Left ,70,3046396719304 ,47,7336037803038 ,54,8183091413761
1.7873731 ,Left ,70,3046396719304 ,47,7336037803038 ,54,8183091413761
1.7873752 ,Left ,70,3046396719304 ,47,7336037803038 ,54,8183091413761
1.8082533 ,Left ,70,232765228515 ,47,7015743677912 ,54,8289266483809
1.8082556 ,Left ,70,232765228515 ,47,7015743677912 ,54,8289266483809
1.8082573 ,Left ,70,232765228515 ,47,7015743677912 ,54,8289266483809
1.8247838 ,Left ,70,2186518365316 ,47,7371086054713 ,54,8269699291471
1.8247871 ,Left ,70,2186518365316 ,47,7371086054713 ,54,8269699291471
1.8247894 ,Left ,70,2186518365316 ,47,7371086054713 ,54,8269699291471
1.8475609 ,Left ,70,2276081429018 ,47,8273012242161 ,54,8146885784536
1.8475657 ,Left ,70,2276081429018 ,47,8273012242161 ,54,8146885784536
1.8475701 ,Left ,70,2276081429018 ,47,8273012242161 ,54,8146885784536
1.8685688 ,Left ,70,2732981434929 ,47,8960094110922 ,54,7980234901226
1.8685739 ,Left ,70,2732981434929 ,47,8960094110922 ,54,7980234901226
1.8685782 ,Left ,70,2732981434929 ,47,8960094110922 ,54,7980234901226
1.8849067 ,Left ,70,3542202946904 ,47,9221999019115 ,54,7743993760876
1.8849108 ,Left ,70,3542202946904 ,47,9221999019115 ,54,7743993760876
1.8849142 ,Left ,70,3542202946904 ,47,9221999019115 ,54,7743993760876
1.9073294 ,Left ,70,4332949243803 ,47,9212383348217 ,54,7253366225319
1.9073334 ,Left ,70,4332949243803 ,47,9212383348217 ,54,7253366225319
1.9073368 ,Left ,70,4332949243803 ,47,9212383348217 ,54,7253366225319
1.9283402 ,Left ,70,5130750886775 ,47,911607412206 ,54,6523407497988
1.9283443 ,Left ,70,5130750886775 ,47,911607412206 ,54,6523407497988
1.9283477 ,Left ,70,5130750886775 ,47,911607412206 ,54,6523407497988
1.9442248 ,Left ,70,5902353570604 ,47,9286172102991 ,54,5619488837709
1.9442286 ,Left ,70,5902353570604 ,47,9286172102991 ,54,5619488837709
1.944232 ,Left ,70,5902353570604 ,47,9286172102991 ,54,5619488837709
1.9673417 ,Left ,70,6132464294146 ,47,9816387807982 ,54,4637818729312
1.9673435 ,Left ,70,6132464294146 ,47,9816387807982 ,54,4637818729312
1.9673451 ,Left ,70,6132464294146 ,47,9816387807982 ,54,4637818729312
1.988255 ,Left ,70,5864233669219 ,48,0625745779705 ,54,3573608135059
1.9882572 ,Left ,70,5864233669219 ,48,0625745779705 ,54,3573608135059
1.9882588 ,Left ,70,5864233669219 ,48,0625745779705 ,54,3573608135059
2.0045718 ,Left ,70,5377177940715 ,48,1553149479917 ,54,2367608085331
2.0045796 ,Left ,70,5377177940715 ,48,1553149479917 ,54,2367608085331
2.0045865 ,Left ,70,5377177940715 ,48,1553149479917 ,54,2367608085331
2.0278501 ,Left ,70,4727401629396 ,48,2327385402337 ,54,116524456413
2.0278609 ,Left ,70,4727401629396 ,48,2327385402337 ,54,116524456413
2.0278789 ,Left ,70,4727401629396 ,48,2327385402337 ,54,116524456413
2.0498532 ,Left ,70,4072289795294 ,48,2554362048185 ,54,0298203211194
2.0498574 ,Left ,70,4072289795294 ,48,2554362048185 ,54,0298203211194
2.049861 ,Left ,70,4072289795294 ,48,2554362048185 ,54,0298203211194
2.0643613 ,Left ,70,3585562806494 ,48,2468476178635 ,53,9969835562487
2.0643652 ,Left ,70,3585562806494 ,48,2468476178635 ,53,9969835562487
2.0643681 ,Left ,70,3585562806494 ,48,2468476178635 ,53,9969835562487
2.0877662 ,Left ,70,313353003427 ,48,2384439257022 ,53,9890383837126
2.087774 ,Left ,70,313353003427 ,48,2384439257022 ,53,9890383837126
2.087781 ,Left ,70,313353003427 ,48,2384439257022 ,53,9890383837126
2.1102956 ,Left ,70,2820250438944 ,48,2271261150243 ,53,9623815337513
2.1103153 ,Left ,70,2820250438944 ,48,2271261150243 ,53,9623815337513
2.1103266 ,Left ,70,2820250438944 ,48,2271261150243 ,53,9623815337513
2.1252724 ,Left ,70,2360985088252 ,48,1947262907203 ,53,9245145370229
2.1253653 ,Left ,70,2360985088252 ,48,1947262907203 ,53,9245145370229
2.1253725 ,Left ,70,2360985088252 ,48,1947262907203 ,53,9245145370229
2.1477313 ,Left ,70,196567044481 ,48,13761764686 ,53,9057913213859
2.1477389 ,Left ,70,196567044481 ,48,13761764686 ,53,9057913213859
2.1477458 ,Left ,70,196567044481 ,48,13761764686 ,53,9057913213859
2.1702454 ,Left ,70,1594925005174 ,48,0649287088463 ,53,9272374814661
2.1702531 ,Left ,70,1594925005174 ,48,0649287088463 ,53,9272374814661
2.1702599 ,Left ,70,1594925005174 ,48,0649287088463 ,53,9272374814661
2.1845906 ,Left ,70,0916421709737 ,47,9927083786842 ,53,975340411387
2.1845962 ,Left ,70,0916421709737 ,47,9927083786842 ,53,975340411387
2.1846596 ,Left ,70,0916421709737 ,47,9927083786842 ,53,975340411387
2.2074318 ,Left ,70,0825838610428 ,47,9222459469104 ,54,0241498706752
2.2074345 ,Left ,70,0825838610428 ,47,9222459469104 ,54,0241498706752
2.2074366 ,Left ,70,0825838610428 ,47,9222459469104 ,54,0241498706752
2.2299182 ,Left ,70,1373287560154 ,47,890658176441 ,54,0637799911251
2.2299209 ,Left ,70,1373287560154 ,47,890658176441 ,54,0637799911251
2.229923 ,Left ,70,1373287560154 ,47,890658176441 ,54,0637799911251
2.2440138 ,Left ,70,2554727348947 ,47,86139720105 ,54,0750687836208
2.2440163 ,Left ,70,2554727348947 ,47,86139720105 ,54,0750687836208
2.2440184 ,Left ,70,2554727348947 ,47,86139720105 ,54,0750687836208
2.2671424 ,Left ,70,4705470195088 ,47,8132004987255 ,54,0528866169661
2.2671442 ,Left ,70,4705470195088 ,47,8132004987255 ,54,0528866169661
2.2671457 ,Left ,70,4705470195088 ,47,8132004987255 ,54,0528866169661
2.2898928 ,Left ,70,6966551587764 ,47,7448826031322 ,54,0023898763114
2.2898955 ,Left ,70,6966551587764 ,47,7448826031322 ,54,0023898763114
2.2898976 ,Left ,70,6966551587764 ,47,7448826031322 ,54,0023898763114
2.3105462 ,Left ,70,8578173801158 ,47,6786562397173 ,53,9585615863661
2.3105484 ,Left ,70,8578173801158 ,47,6786562397173 ,53,9585615863661
2.3105502 ,Left ,70,8578173801158 ,47,6786562397173 ,53,9585615863661
2.3272379 ,Left ,70,924647747046 ,47,6423044357935 ,53,9420416803291
2.3272412 ,Left ,70,924647747046 ,47,6423044357935 ,53,9420416803291
2.3272439 ,Left ,70,924647747046 ,47,6423044357935 ,53,9420416803291
2.3559971 ,Left ,70,9174173646786 ,47,6426617157041 ,53,9497047970092
2.3560025 ,Left ,70,9174173646786 ,47,6426617157041 ,53,9497047970092
2.356007 ,Left ,70,9174173646786 ,47,6426617157041 ,53,9497047970092
2.3713477 ,Left ,70,8785712373312 ,47,6507269316648 ,53,9676153632778
2.3713529 ,Left ,70,8785712373312 ,47,6507269316648 ,53,9676153632778
2.3713573 ,Left ,70,8785712373312 ,47,6507269316648 ,53,9676153632778
2.387508 ,Left ,70,8413548331159 ,47,6469951380489 ,53,9937348424289
2.3875129 ,Left ,70,8413548331159 ,47,6469951380489 ,53,9937348424289
2.3875173 ,Left ,70,8413548331159 ,47,6469951380489 ,53,9937348424289
2.409954 ,Left ,70,817299283649 ,47,60580770986 ,54,0465735293751
2.4099617 ,Left ,70,817299283649 ,47,60580770986 ,54,0465735293751
2.4099679 ,Left ,70,817299283649 ,47,60580770986 ,54,0465735293751
2.4307288 ,Left ,70,8268107728464 ,47,5435829898044 ,54,1091068078858
2.4307305 ,Left ,70,8268107728464 ,47,5435829898044 ,54,1091068078858
2.430732 ,Left ,70,8268107728464 ,47,5435829898044 ,54,1091068078858
2.4474052 ,Left ,70,8172839164818 ,47,5342892884353 ,54,1616342970653
2.4474073 ,Left ,70,8172839164818 ,47,5342892884353 ,54,1616342970653
2.4474089 ,Left ,70,8172839164818 ,47,5342892884353 ,54,1616342970653
2.4696491 ,Left ,70,7423322489538 ,47,594273967996 ,54,1755825390845
2.4696508 ,Left ,70,7423322489538 ,47,594273967996 ,54,1755825390845
2.4696523 ,Left ,70,7423322489538 ,47,594273967996 ,54,1755825390845
2.4907965 ,Left ,70,6580840544551 ,47,7035105157577 ,54,1589521712784
2.4907987 ,Left ,70,6580840544551 ,47,7035105157577 ,54,1589521712784
2.4908006 ,Left ,70,6580840544551 ,47,7035105157577 ,54,1589521712784
2.507304 ,Left ,70,6464368991707 ,47,817830227349 ,54,1307460056208
2.5073074 ,Left ,70,6464368991707 ,47,817830227349 ,54,1307460056208
2.5073105 ,Left ,70,6464368991707 ,47,817830227349 ,54,1307460056208
2.5298969 ,Left ,70,7042440339096 ,47,906998712052 ,54,0930879703824
2.5299025 ,Left ,70,7042440339096 ,47,906998712052 ,54,0930879703824
2.5299055 ,Left ,70,7042440339096 ,47,906998712052 ,54,0930879703824
2.5510036 ,Left ,70,784341341285 ,47,9621562391657 ,54,0507466469242
2.5510074 ,Left ,70,784341341285 ,47,9621562391657 ,54,0507466469242
2.5510105 ,Left ,70,784341341285 ,47,9621562391657 ,54,0507466469242
2.5674366 ,Left ,70,868389757488 ,47,9978204133912 ,54,0236569857904
2.5674404 ,Left ,70,868389757488 ,47,9978204133912 ,54,0236569857904
2.5674434 ,Left ,70,868389757488 ,47,9978204133912 ,54,0236569857904
2.5898877 ,Left ,70,9545621766507 ,48,019982440372 ,54,0138106124952
2.5898912 ,Left ,70,9545621766507 ,48,019982440372 ,54,0138106124952
2.5898943 ,Left ,70,9545621766507 ,48,019982440372 ,54,0138106124952
2.6109188 ,Left ,71,056398801332 ,48,0129909478783 ,54,0096459911093
2.6109226 ,Left ,71,056398801332 ,48,0129909478783 ,54,0096459911093
2.6109256 ,Left ,71,056398801332 ,48,0129909478783 ,54,0096459911093
2.6271622 ,Left ,71,145946217678 ,47,9729016809803 ,54,0092368363348
2.6271652 ,Left ,71,145946217678 ,47,9729016809803 ,54,0092368363348
2.6271666 ,Left ,71,145946217678 ,47,9729016809803 ,54,0092368363348
2.649874 ,Left ,71,2018041253721 ,47,916831413433 ,54,0050539264351
2.6498766 ,Left ,71,2018041253721 ,47,916831413433 ,54,0050539264351
2.6498785 ,Left ,71,2018041253721 ,47,916831413433 ,54,0050539264351
2.6707475 ,Left ,71,2317393305815 ,47,8464991547704 ,54,0086561645527
2.6707497 ,Left ,71,2317393305815 ,47,8464991547704 ,54,0086561645527
2.6707514 ,Left ,71,2317393305815 ,47,8464991547704 ,54,0086561645527
2.6873678 ,Left ,71,2491843298338 ,47,7703677043648 ,54,022382348485
2.6873699 ,Left ,71,2491843298338 ,47,7703677043648 ,54,022382348485
2.6873714 ,Left ,71,2491843298338 ,47,7703677043648 ,54,022382348485
2.7098439 ,Left ,71,2669600623897 ,47,6908375784134 ,54,0437087040729
2.7098464 ,Left ,71,2669600623897 ,47,6908375784134 ,54,0437087040729
2.7098483 ,Left ,71,2669600623897 ,47,6908375784134 ,54,0437087040729
2.7310205 ,Left ,71,286921482261 ,47,6074747812646 ,54,0718671018777
2.7310248 ,Left ,71,286921482261 ,47,6074747812646 ,54,0718671018777
2.731028 ,Left ,71,286921482261 ,47,6074747812646 ,54,0718671018777
2.7473414 ,Left ,71,3244377122441 ,47,5181058543104 ,54,1033967384698
2.747345 ,Left ,71,3244377122441 ,47,5181058543104 ,54,1033967384698
2.747348 ,Left ,71,3244377122441 ,47,5181058543104 ,54,1033967384698
2.7704582 ,Left ,71,3829788717601 ,47,4372559482679 ,54,1345565126725
2.770462 ,Left ,71,3829788717601 ,47,4372559482679 ,54,1345565126725
2.7704652 ,Left ,71,3829788717601 ,47,4372559482679 ,54,1345565126725
2.7911101 ,Left ,71,4551353827918 ,47,3648690539373 ,54,1701606590835
2.7911139 ,Left ,71,4551353827918 ,47,3648690539373 ,54,1701606590835
2.7911169 ,Left ,71,4551353827918 ,47,3648690539373 ,54,1701606590835
2.8075376 ,Left ,71,528482768019 ,47,3027880645651 ,54,2140359834122
2.8075414 ,Left ,71,528482768019 ,47,3027880645651 ,54,2140359834122
2.8075445 ,Left ,71,528482768019 ,47,3027880645651 ,54,2140359834122
2.8299124 ,Left ,71,5927125485119 ,47,2517749718145 ,54,2765119778903
2.8299164 ,Left ,71,5927125485119 ,47,2517749718145 ,54,2765119778903
2.82992 ,Left ,71,5927125485119 ,47,2517749718145 ,54,2765119778903
2.8509317 ,Left ,71,6428142110021 ,47,2119875449362 ,54,3528815185938
2.8509337 ,Left ,71,6428142110021 ,47,2119875449362 ,54,3528815185938
2.8509352 ,Left ,71,6428142110021 ,47,2119875449362 ,54,3528815185938
2.8672265 ,Left ,71,6741394185191 ,47,1902238123201 ,54,4334910091396
2.8672288 ,Left ,71,6741394185191 ,47,1902238123201 ,54,4334910091396
2.867231 ,Left ,71,6741394185191 ,47,1902238123201 ,54,4334910091396
2.8898993 ,Left ,71,6788137297461 ,47,191173811375 ,54,5112124025178
2.8899036 ,Left ,71,6788137297461 ,47,191173811375 ,54,5112124025178
2.8899072 ,Left ,71,6788137297461 ,47,191173811375 ,54,5112124025178
2.9112092 ,Left ,71,6612482372953 ,47,2041169790635 ,54,5800906448273
2.9112171 ,Left ,71,6612482372953 ,47,2041169790635 ,54,5800906448273
2.9112252 ,Left ,71,6612482372953 ,47,2041169790635 ,54,5800906448273
2.9266182 ,Left ,71,6336841260878 ,47,2210522634321 ,54,6465084190296
2.9266206 ,Left ,71,6336841260878 ,47,2210522634321 ,54,6465084190296
2.9266221 ,Left ,71,6336841260878 ,47,2210522634321 ,54,6465084190296
2.9496062 ,Left ,71,6003811560605 ,47,229852759514 ,54,7061745071026
2.9496079 ,Left ,71,6003811560605 ,47,229852759514 ,54,7061745071026
2.9496094 ,Left ,71,6003811560605 ,47,229852759514 ,54,7061745071026
2.9727847 ,Left ,71,5565625198625 ,47,2325979306636 ,54,7583437514783
2.9727924 ,Left ,71,5565625198625 ,47,2325979306636 ,54,7583437514783
2.9727992 ,Left ,71,5565625198625 ,47,2325979306636 ,54,7583437514783
2.9877491 ,Left ,71,4974978603595 ,47,2414024813779 ,54,8066284747769
2.9877567 ,Left ,71,4974978603595 ,47,2414024813779 ,54,8066284747769
2.9877634 ,Left ,71,4974978603595 ,47,2414024813779 ,54,8066284747769
3.0103156 ,Left ,71,4490169425338 ,47,2560695430942 ,54,8421534100117
3.0103369 ,Left ,71,4490169425338 ,47,2560695430942 ,54,8421534100117
3.0103467 ,Left ,71,4490169425338 ,47,2560695430942 ,54,8421534100117
3.0329117 ,Left ,71,4202923136011 ,47,2681954218513 ,54,8659850016831
3.0329337 ,Left ,71,4202923136011 ,47,2681954218513 ,54,8659850016831
3.0329405 ,Left ,71,4202923136011 ,47,2681954218513 ,54,8659850016831
3.0478185 ,Left ,71,4117514967322 ,47,2787492290683 ,54,8891850804365
3.0478334 ,Left ,71,4117514967322 ,47,2787492290683 ,54,8891850804365
3.0478459 ,Left ,71,4117514967322 ,47,2787492290683 ,54,8891850804365
3.0702824 ,Left ,71,4187470883014 ,47,2873115835378 ,54,9142676153166
3.0702901 ,Left ,71,4187470883014 ,47,2873115835378 ,54,9142676153166
3.0702968 ,Left ,71,4187470883014 ,47,2873115835378 ,54,9142676153166
3.0925989 ,Left ,71,4280045293299 ,47,291710374518 ,54,9436808415936
3.0926043 ,Left ,71,4280045293299 ,47,291710374518 ,54,9436808415936
3.092609 ,Left ,71,4280045293299 ,47,291710374518 ,54,9436808415936
3.1068641 ,Left ,71,4366651755616 ,47,2905644638215 ,54,9736391120546
3.1068694 ,Left ,71,4366651755616 ,47,2905644638215 ,54,9736391120546
3.1068741 ,Left ,71,4366651755616 ,47,2905644638215 ,54,9736391120546
3.13019 ,Left ,71,4503120688951 ,47,290839632877 ,54,9972743080831
3.1301956 ,Left ,71,4503120688951 ,47,290839632877 ,54,9972743080831
3.1302003 ,Left ,71,4503120688951 ,47,290839632877 ,54,9972743080831
3.1527823 ,Left ,71,4693701145759 ,47,2977915013665 ,55,0112101959414
3.1527864 ,Left ,71,4693701145759 ,47,2977915013665 ,55,0112101959414
3.1527899 ,Left ,71,4693701145759 ,47,2977915013665 ,55,0112101959414
3.1666757 ,Left ,71,4907869548494 ,47,3013836354132 ,55,0227980332565
3.166679 ,Left ,71,4907869548494 ,47,3013836354132 ,55,0227980332565
3.1666815 ,Left ,71,4907869548494 ,47,3013836354132 ,55,0227980332565
3.190309 ,Left ,71,5070500613544 ,47,3079802021179 ,55,0288052572156
3.190311 ,Left ,71,5070500613544 ,47,3079802021179 ,55,0288052572156
3.1903125 ,Left ,71,5070500613544 ,47,3079802021179 ,55,0288052572156
3.1951392 ,Left ,71,5200359529124 ,47,3102274321676 ,55,0285970970416
3.1951411 ,Left ,71,5200359529124 ,47,3102274321676 ,55,0285970970416
3.1951426 ,Left ,71,5200359529124 ,47,3102274321676 ,55,0285970970416
3.2178169 ,Left ,71,5202379459458 ,47,3117237510794 ,55,0298105269048
3.2178188 ,Left ,71,5202379459458 ,47,3117237510794 ,55,0298105269048
3.2178203 ,Left ,71,5202379459458 ,47,3117237510794 ,55,0298105269048
3.234057 ,Left ,71,5146104721488 ,47,3072137905719 ,55,0333814420951
3.2340591 ,Left ,71,5146104721488 ,47,3072137905719 ,55,0333814420951
3.2340608 ,Left ,71,5146104721488 ,47,3072137905719 ,55,0333814420951
3.2568482 ,Left ,71,5163264623065 ,47,2958831311513 ,55,0348092168669
3.2568516 ,Left ,71,5163264623065 ,47,2958831311513 ,55,0348092168669
3.2568542 ,Left ,71,5163264623065 ,47,2958831311513 ,55,0348092168669
3.2777771 ,Left ,71,5161393756428 ,47,2931526088332 ,55,035232879339
3.2777807 ,Left ,71,5161393756428 ,47,2931526088332 ,55,035232879339
3.2777838 ,Left ,71,5161393756428 ,47,2931526088332 ,55,035232879339
3.294237 ,Left ,71,5161814686031 ,47,2894503035356 ,55,0401437590537
3.2942406 ,Left ,71,5161814686031 ,47,2894503035356 ,55,0401437590537
3.2942437 ,Left ,71,5161814686031 ,47,2894503035356 ,55,0401437590537
3.3153114 ,Left ,71,5083027709667 ,47,285615371951 ,55,0468374762666
3.3153156 ,Left ,71,5083027709667 ,47,285615371951 ,55,0468374762666
3.3153186 ,Left ,71,5083027709667 ,47,285615371951 ,55,0468374762666
3.3377699 ,Left ,71,5110124396313 ,47,2829998217258 ,55,0526964005651
3.3377719 ,Left ,71,5110124396313 ,47,2829998217258 ,55,0526964005651
3.3377734 ,Left ,71,5110124396313 ,47,2829998217258 ,55,0526964005651
3.3542328 ,Left ,71,5060040682505 ,47,2817503189438 ,55,0615509802706
3.3542348 ,Left ,71,5060040682505 ,47,2817503189438 ,55,0615509802706
3.3542363 ,Left ,71,5060040682505 ,47,2817503189438 ,55,0615509802706
3.3757361 ,Left ,71,4911004095732 ,47,2811174990144 ,55,0756377170113
3.3757441 ,Left ,71,4911004095732 ,47,2811174990144 ,55,0756377170113
3.3757508 ,Left ,71,4911004095732 ,47,2811174990144 ,55,0756377170113
3.3981179 ,Left ,71,4665467497279 ,47,2848799401853 ,55,0903700492587
3.3981257 ,Left ,71,4665467497279 ,47,2848799401853 ,55,0903700492587
3.3981325 ,Left ,71,4665467497279 ,47,2848799401853 ,55,0903700492587
3.4148409 ,Left ,71,4341699977493 ,47,2836216789029 ,55,1134565663336
3.4148487 ,Left ,71,4341699977493 ,47,2836216789029 ,55,1134565663336
3.4148554 ,Left ,71,4341699977493 ,47,2836216789029 ,55,1134565663336
3.4356521 ,Left ,71,3995482861616 ,47,2832951081444 ,55,1422000294975
3.4356598 ,Left ,71,3995482861616 ,47,2832951081444 ,55,1422000294975
3.4356665 ,Left ,71,3995482861616 ,47,2832951081444 ,55,1422000294975
3.4582359 ,Left ,71,3570839045086 ,47,2758891981617 ,55,1705750412591
3.4582419 ,Left ,71,3570839045086 ,47,2758891981617 ,55,1705750412591
3.4582466 ,Left ,71,3570839045086 ,47,2758891981617 ,55,1705750412591
3.4743929 ,Left ,71,2896150108272 ,47,2550789412729 ,55,1967546625167
3.4743981 ,Left ,71,2896150108272 ,47,2550789412729 ,55,1967546625167
3.4744028 ,Left ,71,2896150108272 ,47,2550789412729 ,55,1967546625167
3.4952277 ,Left ,71,2182504103475 ,47,2164020099027 ,55,2195317345089
3.4952312 ,Left ,71,2182504103475 ,47,2164020099027 ,55,2195317345089
3.495234 ,Left ,71,2182504103475 ,47,2164020099027 ,55,2195317345089
3.5177944 ,Left ,71,1299815193477 ,47,1770869619601 ,55,2640914075643
3.5177979 ,Left ,71,1299815193477 ,47,1770869619601 ,55,2640914075643
3.5178008 ,Left ,71,1299815193477 ,47,1770869619601 ,55,2640914075643
3.5356572 ,Left ,71,0204598767658 ,47,1528859944492 ,55,3118101142546
3.5356605 ,Left ,71,0204598767658 ,47,1528859944492 ,55,3118101142546
3.5356634 ,Left ,71,0204598767658 ,47,1528859944492 ,55,3118101142546
3.5551079 ,Left ,70,9120483660333 ,47,1386263598995 ,55,3595463767279
3.5551112 ,Left ,70,9120483660333 ,47,1386263598995 ,55,3595463767279
3.5551141 ,Left ,70,9120483660333 ,47,1386263598995 ,55,3595463767279
3.5777972 ,Left ,70,8794941724915 ,47,1608529087562 ,55,3726553247384
3.5778007 ,Left ,70,8794941724915 ,47,1608529087562 ,55,3726553247384
3.5778036 ,Left ,70,8794941724915 ,47,1608529087562 ,55,3726553247384
3.6016829 ,Left ,70,8716579844965 ,47,242180155195 ,55,3436460735315
3.6016863 ,Left ,70,8716579844965 ,47,242180155195 ,55,3436460735315
3.6016892 ,Left ,70,8716579844965 ,47,242180155195 ,55,3436460735315
3.6150882 ,Left ,70,8031264370094 ,47,3549610160617 ,55,2977931167469
3.6150902 ,Left ,70,8031264370094 ,47,3549610160617 ,55,2977931167469
3.6150918 ,Left ,70,8031264370094 ,47,3549610160617 ,55,2977931167469
3.6378301 ,Left ,70,7778708667232 ,47,4521930803033 ,55,2395902063158
3.6378322 ,Left ,70,7778708667232 ,47,4521930803033 ,55,2395902063158
3.6378337 ,Left ,70,7778708667232 ,47,4521930803033 ,55,2395902063158
3.6541798 ,Left ,70,7923139781933 ,47,5293919927255 ,55,1607696928589
3.6541821 ,Left ,70,7923139781933 ,47,5293919927255 ,55,1607696928589
3.6541838 ,Left ,70,7923139781933 ,47,5293919927255 ,55,1607696928589
3.6751355 ,Left ,70,805294195061 ,47,5548121928573 ,55,0602361316771
3.6751377 ,Left ,70,805294195061 ,47,5548121928573 ,55,0602361316771
3.6751393 ,Left ,70,805294195061 ,47,5548121928573 ,55,0602361316771
3.6982366 ,Left ,70,8072442937781 ,47,5362079838377 ,54,9784053862072
3.6982445 ,Left ,70,8072442937781 ,47,5362079838377 ,54,9784053862072
3.6982513 ,Left ,70,8072442937781 ,47,5362079838377 ,54,9784053862072
3.7146265 ,Left ,70,8027269872526 ,47,5015908800273 ,54,8965214914081
3.7146343 ,Left ,70,8027269872526 ,47,5015908800273 ,54,8965214914081
3.714641 ,Left ,70,8027269872526 ,47,5015908800273 ,54,8965214914081
3.735655 ,Left ,70,8055062427945 ,47,4558553329115 ,54,8119639192536
3.735663 ,Left ,70,8055062427945 ,47,4558553329115 ,54,8119639192536
3.7356697 ,Left ,70,8055062427945 ,47,4558553329115 ,54,8119639192536
3.7583854 ,Left ,70,7718364556627 ,47,4188697947345 ,54,7350117802798
3.7583936 ,Left ,70,7718364556627 ,47,4188697947345 ,54,7350117802798
3.7584003 ,Left ,70,7718364556627 ,47,4188697947345 ,54,7350117802798
3.774587 ,Left ,70,7084512638932 ,47,3653040225977 ,54,6974544310655
3.7745946 ,Left ,70,7084512638932 ,47,3653040225977 ,54,6974544310655
3.7746039 ,Left ,70,7084512638932 ,47,3653040225977 ,54,6974544310655
3.7955146 ,Left ,70,6748367987353 ,47,2923924517579 ,54,708743992769
3.7955191 ,Left ,70,6748367987353 ,47,2923924517579 ,54,708743992769
3.7955226 ,Left ,70,6748367987353 ,47,2923924517579 ,54,708743992769
3.8179994 ,Left ,70,7037079668331 ,47,2376730456721 ,54,7311079366818
3.8180038 ,Left ,70,7037079668331 ,47,2376730456721 ,54,7311079366818
3.8180073 ,Left ,70,7037079668331 ,47,2376730456721 ,54,7311079366818
3.834287 ,Left ,70,7129820524514 ,47,2262674533687 ,54,7524548501827
3.8342912 ,Left ,70,7129820524514 ,47,2262674533687 ,54,7524548501827
3.8342948 ,Left ,70,7129820524514 ,47,2262674533687 ,54,7524548501827
3.8553272 ,Left ,70,6684313626898 ,47,2203337710368 ,54,7795221591201
3.8553314 ,Left ,70,6684313626898 ,47,2203337710368 ,54,7795221591201
3.8553351 ,Left ,70,6684313626898 ,47,2203337710368 ,54,7795221591201
3.8778826 ,Left ,70,6144746735344 ,47,2238681397736 ,54,8154449366803
3.8778869 ,Left ,70,6144746735344 ,47,2238681397736 ,54,8154449366803
3.8778904 ,Left ,70,6144746735344 ,47,2238681397736 ,54,8154449366803
3.8957226 ,Left ,70,5417420302406 ,47,2480405442635 ,54,8140943709029
3.8957267 ,Left ,70,5417420302406 ,47,2480405442635 ,54,8140943709029
3.8957302 ,Left ,70,5417420302406 ,47,2480405442635 ,54,8140943709029
3.9154115 ,Left ,70,4764626625861 ,47,2447215131495 ,54,8048688791445
3.9154158 ,Left ,70,4764626625861 ,47,2447215131495 ,54,8048688791445
3.915422 ,Left ,70,4764626625861 ,47,2447215131495 ,54,8048688791445
3.9377894 ,Left ,70,4492233678934 ,47,2110293369476 ,54,8312859079493
3.9377935 ,Left ,70,4492233678934 ,47,2110293369476 ,54,8312859079493
3.9377971 ,Left ,70,4492233678934 ,47,2110293369476 ,54,8312859079493
3.9557436 ,Left ,70,4540716381892 ,47,2007243119555 ,54,8659487314517
3.9557478 ,Left ,70,4540716381892 ,47,2007243119555 ,54,8659487314517
3.9557514 ,Left ,70,4540716381892 ,47,2007243119555 ,54,8659487314517
3.975418 ,Left ,70,4999723571462 ,47,2008086183391 ,54,8949074102953
3.9754259 ,Left ,70,4999723571462 ,47,2008086183391 ,54,8949074102953
3.9754297 ,Left ,70,4999723571462 ,47,2008086183391 ,54,8949074102953
3.9979887 ,Left ,70,5134359711417 ,47,2324111976116 ,54,913930457655
3.9979931 ,Left ,70,5134359711417 ,47,2324111976116 ,54,913930457655
3.9979967 ,Left ,70,5134359711417 ,47,2324111976116 ,54,913930457655
4.0157739 ,Left ,70,4359372805291 ,47,2776818571941 ,54,9375877647668
4.0157807 ,Left ,70,4359372805291 ,47,2776818571941 ,54,9375877647668
4.0157844 ,Left ,70,4359372805291 ,47,2776818571941 ,54,9375877647668
4.0354383 ,Left ,70,3396692464394 ,47,32443590188 ,54,9716692052966
4.0354427 ,Left ,70,3396692464394 ,47,32443590188 ,54,9716692052966
4.0354463 ,Left ,70,3396692464394 ,47,32443590188 ,54,9716692052966
4.0579994 ,Left ,70,261845607845 ,47,3850801399207 ,54,9912603518286
4.0580037 ,Left ,70,261845607845 ,47,3850801399207 ,54,9912603518286
4.0580072 ,Left ,70,261845607845 ,47,3850801399207 ,54,9912603518286
4.0756833 ,Left ,70,2066550065376 ,47,4224800656854 ,55,009170315791
4.0756875 ,Left ,70,2066550065376 ,47,4224800656854 ,55,009170315791
4.0756911 ,Left ,70,2066550065376 ,47,4224800656854 ,55,009170315791
4.0951328 ,Left ,70,1869074564382 ,47,4368979491117 ,55,0411595820228
4.0951372 ,Left ,70,1869074564382 ,47,4368979491117 ,55,0411595820228
4.0951408 ,Left ,70,1869074564382 ,47,4368979491117 ,55,0411595820228
4.1179712 ,Left ,70,1770148875175 ,47,4051753305524 ,55,1169592449788
4.1179756 ,Left ,70,1770148875175 ,47,4051753305524 ,55,1169592449788
4.1179791 ,Left ,70,1770148875175 ,47,4051753305524 ,55,1169592449788
4.1354102 ,Left ,70,1253852027348 ,47,3401264201771 ,55,1836903803972
4.135412 ,Left ,70,1253852027348 ,47,3401264201771 ,55,1836903803972
4.1354135 ,Left ,70,1253852027348 ,47,3401264201771 ,55,1836903803972
4.1551559 ,Left ,70,1147487980219 ,47,3245071047901 ,55,2018312976273
4.155158 ,Left ,70,1147487980219 ,47,3245071047901 ,55,2018312976273
4.1551595 ,Left ,70,1147487980219 ,47,3245071047901 ,55,2018312976273
4.1776172 ,Left ,70,1292004738046 ,47,4237617175301 ,55,1779793188827
4.1776282 ,Left ,70,1292004738046 ,47,4237617175301 ,55,1779793188827
4.17763 ,Left ,70,1292004738046 ,47,4237617175301 ,55,1779793188827
4.1957963 ,Left ,70,1054484473294 ,47,5615527010208 ,55,1460347175849
4.1957993 ,Left ,70,1054484473294 ,47,5615527010208 ,55,1460347175849
4.1958016 ,Left ,70,1054484473294 ,47,5615527010208 ,55,1460347175849
4.2152316 ,Left ,70,1080604405884 ,47,6795870082854 ,55,083786766567
4.2152349 ,Left ,70,1080604405884 ,47,6795870082854 ,55,083786766567
4.2152376 ,Left ,70,1080604405884 ,47,6795870082854 ,55,083786766567
4.2379307 ,Left ,70,1331456188466 ,47,7600460911465 ,55,01029357646
4.237934 ,Left ,70,1331456188466 ,47,7600460911465 ,55,01029357646
4.2379367 ,Left ,70,1331456188466 ,47,7600460911465 ,55,01029357646
4.2631421 ,Left ,70,1546964278774 ,47,7981857558495 ,54,9036282283386
4.2631453 ,Left ,70,1546964278774 ,47,7981857558495 ,54,9036282283386
4.2631479 ,Left ,70,1546964278774 ,47,7981857558495 ,54,9036282283386
4.275142 ,Left ,70,1896732395268 ,47,8306389423052 ,54,790636896608
4.2751449 ,Left ,70,1896732395268 ,47,8306389423052 ,54,790636896608
4.2751475 ,Left ,70,1896732395268 ,47,8306389423052 ,54,790636896608
4.2979216 ,Left ,70,2130799165758 ,47,8631403705078 ,54,6848832579437
4.2979249 ,Left ,70,2130799165758 ,47,8631403705078 ,54,6848832579437
4.2979276 ,Left ,70,2130799165758 ,47,8631403705078 ,54,6848832579437
4.3156677 ,Left ,70,2547161560314 ,47,9022070603564 ,54,5824080790391
4.3156711 ,Left ,70,2547161560314 ,47,9022070603564 ,54,5824080790391
4.3156737 ,Left ,70,2547161560314 ,47,9022070603564 ,54,5824080790391
4.3350773 ,Left ,70,2719889145196 ,47,9211548551298 ,54,4835697125041
4.3350802 ,Left ,70,2719889145196 ,47,9211548551298 ,54,4835697125041
4.3350826 ,Left ,70,2719889145196 ,47,9211548551298 ,54,4835697125041
4.3650881 ,Left ,70,2536062385711 ,47,9172506202614 ,54,3987733646976
4.3650899 ,Left ,70,2536062385711 ,47,9172506202614 ,54,3987733646976
4.3650914 ,Left ,70,2536062385711 ,47,9172506202614 ,54,3987733646976
4.3757431 ,Left ,70,2209831988105 ,47,9054054633077 ,54,3349832713173
4.3757451 ,Left ,70,2209831988105 ,47,9054054633077 ,54,3349832713173
4.3757466 ,Left ,70,2209831988105 ,47,9054054633077 ,54,3349832713173
4.3956875 ,Left ,70,1987049642552 ,47,9001328793884 ,54,2786130080057
4.3956952 ,Left ,70,1987049642552 ,47,9001328793884 ,54,2786130080057
4.395702 ,Left ,70,1987049642552 ,47,9001328793884 ,54,2786130080057
4.417926 ,Left ,70,179245233558 ,47,8944851596302 ,54,2223318474789
4.4179317 ,Left ,70,179245233558 ,47,8944851596302 ,54,2223318474789
4.4179364 ,Left ,70,179245233558 ,47,8944851596302 ,54,2223318474789
4.4358083 ,Left ,70,164530310009 ,47,8803062480399 ,54,1796738540069
4.4358114 ,Left ,70,164530310009 ,47,8803062480399 ,54,1796738540069
4.4358138 ,Left ,70,164530310009 ,47,8803062480399 ,54,1796738540069
4.455152 ,Left ,70,1361896802989 ,47,8725561274028 ,54,1608007325368
4.4551547 ,Left ,70,1361896802989 ,47,8725561274028 ,54,1608007325368
4.4551568 ,Left ,70,1361896802989 ,47,8725561274028 ,54,1608007325368
4.477693 ,Left ,70,0853099179179 ,47,8520858596904 ,54,1518177467416
4.4776961 ,Left ,70,0853099179179 ,47,8520858596904 ,54,1518177467416
4.4776982 ,Left ,70,0853099179179 ,47,8520858596904 ,54,1518177467416
4.495531 ,Left ,70,0298865011221 ,47,796547806319 ,54,1687825847881
4.4955335 ,Left ,70,0298865011221 ,47,796547806319 ,54,1687825847881
4.4955355 ,Left ,70,0298865011221 ,47,796547806319 ,54,1687825847881
4.5166118 ,Left ,70,0002940010149 ,47,7197102471769 ,54,2151555078742
4.5166142 ,Left ,70,0002940010149 ,47,7197102471769 ,54,2151555078742
4.5166163 ,Left ,70,0002940010149 ,47,7197102471769 ,54,2151555078742
4.5377438 ,Left ,69,9938238468378 ,47,6521041425873 ,54,266665710133
4.5377464 ,Left ,69,9938238468378 ,47,6521041425873 ,54,266665710133
4.5377485 ,Left ,69,9938238468378 ,47,6521041425873 ,54,266665710133
4.5557818 ,Left ,70,0121023750218 ,47,6285297814309 ,54,3037507060618
4.5557849 ,Left ,70,0121023750218 ,47,6285297814309 ,54,3037507060618
4.5557872 ,Left ,70,0121023750218 ,47,6285297814309 ,54,3037507060618
4.576509 ,Left ,70,0580669937885 ,47,612180217525 ,54,3371164543205
4.5765118 ,Left ,70,0580669937885 ,47,612180217525 ,54,3371164543205
4.5765142 ,Left ,70,0580669937885 ,47,612180217525 ,54,3371164543205
4.5979353 ,Left ,70,1753122820754 ,47,5635698721544 ,54,3662227574279
4.5979383 ,Left ,70,1753122820754 ,47,5635698721544 ,54,3662227574279
4.5979406 ,Left ,70,1753122820754 ,47,5635698721544 ,54,3662227574279
4.6157314 ,Left ,70,3411748459606 ,47,4807950451731 ,54,3782822502466
4.6157343 ,Left ,70,3411748459606 ,47,4807950451731 ,54,3782822502466
4.6157367 ,Left ,70,3411748459606 ,47,4807950451731 ,54,3782822502466
4.6368158 ,Left ,70,4961491726219 ,47,4007859005997 ,54,3796667500549
4.6368188 ,Left ,70,4961491726219 ,47,4007859005997 ,54,3796667500549
4.6368211 ,Left ,70,4961491726219 ,47,4007859005997 ,54,3796667500549
4.6579685 ,Left ,70,5991779817019 ,47,3179194037893 ,54,384411359832
4.6579778 ,Left ,70,5991779817019 ,47,3179194037893 ,54,384411359832
4.6579822 ,Left ,70,5991779817019 ,47,3179194037893 ,54,384411359832
4.6757851 ,Left ,70,6694617784014 ,47,2513257508044 ,54,3957422779836
4.6757929 ,Left ,70,6694617784014 ,47,2513257508044 ,54,3957422779836
4.6757972 ,Left ,70,6694617784014 ,47,2513257508044 ,54,3957422779836
4.6969475 ,Left ,70,6849930031413 ,47,1903390847111 ,54,4195536734839
4.6969524 ,Left ,70,6849930031413 ,47,1903390847111 ,54,4195536734839
4.6969567 ,Left ,70,6849930031413 ,47,1903390847111 ,54,4195536734839
4.7181473 ,Left ,70,6888850778306 ,47,1293343250661 ,54,4537412372706
4.7181525 ,Left ,70,6888850778306 ,47,1293343250661 ,54,4537412372706
4.7181568 ,Left ,70,6888850778306 ,47,1293343250661 ,54,4537412372706
4.735808 ,Left ,70,687570665828 ,47,1043726379208 ,54,489773118674
4.7358208 ,Left ,70,687570665828 ,47,1043726379208 ,54,489773118674
4.7358278 ,Left ,70,687570665828 ,47,1043726379208 ,54,489773118674
4.7569065 ,Left ,70,6845744939283 ,47,092135998648 ,54,5129969900796
4.7569114 ,Left ,70,6845744939283 ,47,092135998648 ,54,5129969900796
4.7569157 ,Left ,70,6845744939283 ,47,092135998648 ,54,5129969900796
4.7780313 ,Left ,70,6878281081464 ,47,09444291327 ,54,5349820707972
4.7780365 ,Left ,70,6878281081464 ,47,09444291327 ,54,5349820707972
4.7780408 ,Left ,70,6878281081464 ,47,09444291327 ,54,5349820707972
4.7957186 ,Left ,70,7409640044533 ,47,1035753069644 ,54,5401685463016
4.7957237 ,Left ,70,7409640044533 ,47,1035753069644 ,54,5401685463016
4.795728 ,Left ,70,7409640044533 ,47,1035753069644 ,54,5401685463016
4.8185796 ,Left ,70,7562158647417 ,47,1695427094682 ,54,543060117945
4.8185849 ,Left ,70,7562158647417 ,47,1695427094682 ,54,543060117945
4.8185893 ,Left ,70,7562158647417 ,47,1695427094682 ,54,543060117945
4.8381774 ,Left ,70,735467905371 ,47,2601310187163 ,54,536098611643
4.8381828 ,Left ,70,735467905371 ,47,2601310187163 ,54,536098611643
4.8381872 ,Left ,70,735467905371 ,47,2601310187163 ,54,536098611643
4.8558134 ,Left ,70,7611413729281 ,47,3378699251782 ,54,5205358698209
4.8558184 ,Left ,70,7611413729281 ,47,3378699251782 ,54,5205358698209
4.8558227 ,Left ,70,7611413729281 ,47,3378699251782 ,54,5205358698209
4.8783019 ,Left ,70,8355264562355 ,47,4018744737806 ,54,4910989515469
4.8783069 ,Left ,70,8355264562355 ,47,4018744737806 ,54,4910989515469
4.8783112 ,Left ,70,8355264562355 ,47,4018744737806 ,54,4910989515469
4.8977548 ,Left ,70,9233646093068 ,47,4465405244303 ,54,4551076754932
4.8977587 ,Left ,70,9233646093068 ,47,4465405244303 ,54,4551076754932
4.8977621 ,Left ,70,9233646093068 ,47,4465405244303 ,54,4551076754932
4.9233208 ,Left ,71,0203663316031 ,47,4786590247031 ,54,4297288049141
4.9233242 ,Left ,71,0203663316031 ,47,4786590247031 ,54,4297288049141
4.923327 ,Left ,71,0203663316031 ,47,4786590247031 ,54,4297288049141
4.9383207 ,Left ,71,1375172979916 ,47,4952991546142 ,54,42617994824
4.9383244 ,Left ,71,1375172979916 ,47,4952991546142 ,54,42617994824
4.9383271 ,Left ,71,1375172979916 ,47,4952991546142 ,54,42617994824
4.9578992 ,Left ,71,2600525870068 ,47,5051815672693 ,54,4453327543537
4.9579027 ,Left ,71,2600525870068 ,47,5051815672693 ,54,4453327543537
4.9579054 ,Left ,71,2600525870068 ,47,5051815672693 ,54,4453327543537
4.9756791 ,Left ,71,3520121182957 ,47,5019170713249 ,54,4762432471176
4.9756824 ,Left ,71,3520121182957 ,47,5019170713249 ,54,4762432471176
4.9756852 ,Left ,71,3520121182957 ,47,5019170713249 ,54,4762432471176
4.9978564 ,Left ,71,3880656813488 ,47,4890813583686 ,54,5206468318668
4.9978583 ,Left ,71,3880656813488 ,47,4890813583686 ,54,5206468318668
4.9978598 ,Left ,71,3880656813488 ,47,4890813583686 ,54,5206468318668
5.0175391 ,Left ,71,404538334171 ,47,4549190631615 ,54,5651907122215
5.0175409 ,Left ,71,404538334171 ,47,4549190631615 ,54,5651907122215
5.0175425 ,Left ,71,404538334171 ,47,4549190631615 ,54,5651907122215
5.0346732 ,Left ,71,4300718171627 ,47,4030815282245 ,54,6140500017462
5.0346754 ,Left ,71,4300718171627 ,47,4030815282245 ,54,6140500017462
5.0346771 ,Left ,71,4300718171627 ,47,4030815282245 ,54,6140500017462
5.0571769 ,Left ,71,4692608930158 ,47,359543592406 ,54,6675462131617
5.0571791 ,Left ,71,4692608930158 ,47,359543592406 ,54,6675462131617
5.057181 ,Left ,71,4692608930158 ,47,359543592406 ,54,6675462131617
5.0782892 ,Left ,71,4885177626722 ,47,3244748710469 ,54,7241952246382
5.0782917 ,Left ,71,4885177626722 ,47,3244748710469 ,54,7241952246382
5.0782936 ,Left ,71,4885177626722 ,47,3244748710469 ,54,7241952246382
5.0952291 ,Left ,71,4772897485181 ,47,282969980177 ,54,7854225127834
5.095232 ,Left ,71,4772897485181 ,47,282969980177 ,54,7854225127834
5.0952347 ,Left ,71,4772897485181 ,47,282969980177 ,54,7854225127834
5.1173935 ,Left ,71,4653870929639 ,47,23493874311 ,54,8514509534438
5.1173967 ,Left ,71,4653870929639 ,47,23493874311 ,54,8514509534438
5.1173993 ,Left ,71,4653870929639 ,47,23493874311 ,54,8514509534438
5.1385086 ,Left ,71,4660543127519 ,47,1874515688206 ,54,9132855851418
5.1385119 ,Left ,71,4660543127519 ,47,1874515688206 ,54,9132855851418
5.1385146 ,Left ,71,4660543127519 ,47,1874515688206 ,54,9132855851418
5.1547592 ,Left ,71,4730470460033 ,47,1541383697123 ,54,971507913443
5.1547627 ,Left ,71,4730470460033 ,47,1541383697123 ,54,971507913443
5.1547654 ,Left ,71,4730470460033 ,47,1541383697123 ,54,971507913443
5.1773257 ,Left ,71,4808205002796 ,47,1327398558781 ,55,0238878149823
5.1773287 ,Left ,71,4808205002796 ,47,1327398558781 ,55,0238878149823
5.1773313 ,Left ,71,4808205002796 ,47,1327398558781 ,55,0238878149823
5.1918471 ,Left ,71,5023804305615 ,47,1254983333872 ,55,0701090466907
5.1918505 ,Left ,71,5023804305615 ,47,1254983333872 ,55,0701090466907
5.1918531 ,Left ,71,5023804305615 ,47,1254983333872 ,55,0701090466907
5.2147173 ,Left ,71,5242446741056 ,47,1219489505232 ,55,1117577535868
5.2147204 ,Left ,71,5242446741056 ,47,1219489505232 ,55,1117577535868
5.2147231 ,Left ,71,5242446741056 ,47,1219489505232 ,55,1117577535868
5.2373533 ,Left ,71,538482218146 ,47,1255183430828 ,55,1431896493258
5.2373566 ,Left ,71,538482218146 ,47,1255183430828 ,55,1431896493258
5.2373593 ,Left ,71,538482218146 ,47,1255183430828 ,55,1431896493258
5.251708 ,Left ,71,5461732238685 ,47,143330939623 ,55,1654217561855
5.251711 ,Left ,71,5461732238685 ,47,143330939623 ,55,1654217561855
5.2517137 ,Left ,71,5461732238685 ,47,143330939623 ,55,1654217561855
5.27477 ,Left ,71,5404606388425 ,47,1825894850379 ,55,1837947727375
5.2747734 ,Left ,71,5404606388425 ,47,1825894850379 ,55,1837947727375
5.2747761 ,Left ,71,5404606388425 ,47,1825894850379 ,55,1837947727375
5.2977168 ,Left ,71,5201793707505 ,47,2320573548797 ,55,1967917362496
5.2977244 ,Left ,71,5201793707505 ,47,2320573548797 ,55,1967917362496
5.2977311 ,Left ,71,5201793707505 ,47,2320573548797 ,55,1967917362496
5.3119682 ,Left ,71,4770509589457 ,47,2921372599264 ,55,1962490290499
5.3119981 ,Left ,71,4770509589457 ,47,2921372599264 ,55,1962490290499
5.312005 ,Left ,71,4770509589457 ,47,2921372599264 ,55,1962490290499
5.335252 ,Left ,71,4194021076022 ,47,3557506046633 ,55,1930136969671
5.3352596 ,Left ,71,4194021076022 ,47,3557506046633 ,55,1930136969671
5.3352664 ,Left ,71,4194021076022 ,47,3557506046633 ,55,1930136969671
5.3577702 ,Left ,71,3586672334294 ,47,4114893911756 ,55,1908571790202
5.3577778 ,Left ,71,3586672334294 ,47,4114893911756 ,55,1908571790202
5.3577846 ,Left ,71,3586672334294 ,47,4114893911756 ,55,1908571790202
5.3780928 ,Left ,71,3019342600884 ,47,4553745273745 ,55,1894736993595
5.3780949 ,Left ,71,3019342600884 ,47,4553745273745 ,55,1894736993595
5.3781094 ,Left ,71,3019342600884 ,47,4553745273745 ,55,1894736993595
5.3953172 ,Left ,71,241122284619 ,47,4797236783615 ,55,1977051178469
5.3953248 ,Left ,71,241122284619 ,47,4797236783615 ,55,1977051178469
5.3953316 ,Left ,71,241122284619 ,47,4797236783615 ,55,1977051178469
5.4178028 ,Left ,71,1864496532854 ,47,4877048566123 ,55,2061650854114
5.4178106 ,Left ,71,1864496532854 ,47,4877048566123 ,55,2061650854114
5.4178173 ,Left ,71,1864496532854 ,47,4877048566123 ,55,2061650854114
5.4390567 ,Left ,71,1405671976462 ,47,4789750836875 ,55,2150038133353
5.4390769 ,Left ,71,1405671976462 ,47,4789750836875 ,55,2150038133353
5.439085 ,Left ,71,1405671976462 ,47,4789750836875 ,55,2150038133353
5.4550208 ,Left ,71,0948476507925 ,47,4503412427384 ,55,2233390267867
5.4550262 ,Left ,71,0948476507925 ,47,4503412427384 ,55,2233390267867
5.4550309 ,Left ,71,0948476507925 ,47,4503412427384 ,55,2233390267867
5.4773477 ,Left ,71,0523155912659 ,47,4015218725941 ,55,2316693299821
5.4773564 ,Left ,71,0523155912659 ,47,4015218725941 ,55,2316693299821
5.4773605 ,Left ,71,0523155912659 ,47,4015218725941 ,55,2316693299821
5.4983497 ,Left ,71,0033455930301 ,47,3400328616086 ,55,2449255054089
5.4983531 ,Left ,71,0033455930301 ,47,3400328616086 ,55,2449255054089
5.498356 ,Left ,71,0033455930301 ,47,3400328616086 ,55,2449255054089
5.5148222 ,Left ,70,959204258982 ,47,2723312135129 ,55,2591865369126
5.5148259 ,Left ,70,959204258982 ,47,2723312135129 ,55,2591865369126
5.5148288 ,Left ,70,959204258982 ,47,2723312135129 ,55,2591865369126
5.5448258 ,Left ,70,8980559517015 ,47,202565063574 ,55,2940856107621
5.5448291 ,Left ,70,8980559517015 ,47,202565063574 ,55,2940856107621
5.5448351 ,Left ,70,8980559517015 ,47,202565063574 ,55,2940856107621
5.5582774 ,Left ,70,8517306687397 ,47,1258108939507 ,55,3372059164504
5.5582794 ,Left ,70,8517306687397 ,47,1258108939507 ,55,3372059164504
5.5582809 ,Left ,70,8517306687397 ,47,1258108939507 ,55,3372059164504
5.5748946 ,Left ,70,8868058560986 ,47,0569749767227 ,55,3770496827915
5.5748965 ,Left ,70,8868058560986 ,47,0569749767227 ,55,3770496827915
5.574898 ,Left ,70,8868058560986 ,47,0569749767227 ,55,3770496827915
5.5977194 ,Left ,70,9576659213317 ,47,050539751265 ,55,3950847106072
5.5977272 ,Left ,70,9576659213317 ,47,050539751265 ,55,3950847106072
5.597734 ,Left ,70,9576659213317 ,47,050539751265 ,55,3950847106072
5.618958 ,Left ,70,9746281519443 ,47,1351403053102 ,55,3542975145534
5.6189658 ,Left ,70,9746281519443 ,47,1351403053102 ,55,3542975145534
5.6189726 ,Left ,70,9746281519443 ,47,1351403053102 ,55,3542975145534
5.6353502 ,Left ,70,9534244802477 ,47,2285259551447 ,55,2884313416448
5.6353578 ,Left ,70,9534244802477 ,47,2285259551447 ,55,2884313416448
5.6353683 ,Left ,70,9534244802477 ,47,2285259551447 ,55,2884313416448
5.6578025 ,Left ,70,9575461584101 ,47,2749338291333 ,55,2180143673413
5.6578103 ,Left ,70,9575461584101 ,47,2749338291333 ,55,2180143673413
5.657817 ,Left ,70,9575461584101 ,47,2749338291333 ,55,2180143673413
5.6788975 ,Left ,70,9955353259628 ,47,286220125428 ,55,1322951517411
5.6789182 ,Left ,70,9955353259628 ,47,286220125428 ,55,1322951517411
5.6789273 ,Left ,70,9955353259628 ,47,286220125428 ,55,1322951517411
5.695429 ,Left ,71,0207284939528 ,47,2914580684348 ,55,0491265817283
5.6954399 ,Left ,71,0207284939528 ,47,2914580684348 ,55,0491265817283
5.6954515 ,Left ,71,0207284939528 ,47,2914580684348 ,55,0491265817283
5.7175601 ,Left ,71,0059004178032 ,47,3062664437761 ,54,961273473351
5.7175637 ,Left ,71,0059004178032 ,47,3062664437761 ,54,961273473351
5.7175666 ,Left ,71,0059004178032 ,47,3062664437761 ,54,961273473351
5.7384164 ,Left ,70,9754789700423 ,47,3086590322575 ,54,8813068001401
5.7384201 ,Left ,70,9754789700423 ,47,3086590322575 ,54,8813068001401
5.7384251 ,Left ,70,9754789700423 ,47,3086590322575 ,54,8813068001401
5.7547585 ,Left ,70,9490320380925 ,47,2899904202777 ,54,8206623654676
5.7547678 ,Left ,70,9490320380925 ,47,2899904202777 ,54,8206623654676
5.7547713 ,Left ,70,9490320380925 ,47,2899904202777 ,54,8206623654676
5.7773419 ,Left ,70,8859975247201 ,47,2688910315644 ,54,7925044002799
5.7773452 ,Left ,70,8859975247201 ,47,2688910315644 ,54,7925044002799
5.7773481 ,Left ,70,8859975247201 ,47,2688910315644 ,54,7925044002799
5.7998141 ,Left ,70,7963215364841 ,47,2475500161267 ,54,7912042430268
5.7998174 ,Left ,70,7963215364841 ,47,2475500161267 ,54,7912042430268
5.7998203 ,Left ,70,7963215364841 ,47,2475500161267 ,54,7912042430268
5.8148728 ,Left ,70,7504756999823 ,47,2034515832323 ,54,8164763937385
5.8148764 ,Left ,70,7504756999823 ,47,2034515832323 ,54,8164763937385
5.8148794 ,Left ,70,7504756999823 ,47,2034515832323 ,54,8164763937385
5.8374717 ,Left ,70,7492711059703 ,47,1535638193162 ,54,833904363353
5.8374753 ,Left ,70,7492711059703 ,47,1535638193162 ,54,833904363353
5.8374782 ,Left ,70,7492711059703 ,47,1535638193162 ,54,833904363353
5.8598037 ,Left ,70,7950594938381 ,47,1333349121758 ,54,8248805440168
5.8598073 ,Left ,70,7950594938381 ,47,1333349121758 ,54,8248805440168
5.8598102 ,Left ,70,7950594938381 ,47,1333349121758 ,54,8248805440168
5.8748811 ,Left ,70,7712800192593 ,47,1205459129277 ,54,8195996706516
5.8748846 ,Left ,70,7712800192593 ,47,1205459129277 ,54,8195996706516
5.8748875 ,Left ,70,7712800192593 ,47,1205459129277 ,54,8195996706516
5.8974461 ,Left ,70,7381205069445 ,47,1156427582714 ,54,8223636777541
5.8974499 ,Left ,70,7381205069445 ,47,1156427582714 ,54,8223636777541
5.8974528 ,Left ,70,7381205069445 ,47,1156427582714 ,54,8223636777541
5.9200495 ,Left ,70,7121513425122 ,47,1358606924475 ,54,8194068909946
5.9200531 ,Left ,70,7121513425122 ,47,1358606924475 ,54,8194068909946
5.9200559 ,Left ,70,7121513425122 ,47,1358606924475 ,54,8194068909946
5.9348859 ,Left ,70,6542034800414 ,47,1611785974131 ,54,8096702108881
5.9348893 ,Left ,70,6542034800414 ,47,1611785974131 ,54,8096702108881
5.9348922 ,Left ,70,6542034800414 ,47,1611785974131 ,54,8096702108881
5.9573621 ,Left ,70,5916537506139 ,47,1604064856147 ,54,8124141312633
5.9573656 ,Left ,70,5916537506139 ,47,1604064856147 ,54,8124141312633
5.9573685 ,Left ,70,5916537506139 ,47,1604064856147 ,54,8124141312633
5.9797717 ,Left ,70,5937550191094 ,47,1496451361555 ,54,8416690827077
5.9797751 ,Left ,70,5937550191094 ,47,1496451361555 ,54,8416690827077
5.979778 ,Left ,70,5937550191094 ,47,1496451361555 ,54,8416690827077
5.9942295 ,Left ,70,6125859954142 ,47,1531705007757 ,54,8798169062302
5.9942328 ,Left ,70,6125859954142 ,47,1531705007757 ,54,8798169062302
5.9942357 ,Left ,70,6125859954142 ,47,1531705007757 ,54,8798169062302
6.0175495 ,Left ,70,6585070962635 ,47,1798933792365 ,54,9088917340041
6.017553 ,Left ,70,6585070962635 ,47,1798933792365 ,54,9088917340041
6.0175559 ,Left ,70,6585070962635 ,47,1798933792365 ,54,9088917340041
6.0398183 ,Left ,70,6577015538674 ,47,2245442211864 ,54,9271254312831
6.0398216 ,Left ,70,6577015538674 ,47,2245442211864 ,54,9271254312831
6.0398245 ,Left ,70,6577015538674 ,47,2245442211864 ,54,9271254312831
6.0542066 ,Left ,70,5970262866906 ,47,2527976274748 ,54,9693126162699
6.0542101 ,Left ,70,5970262866906 ,47,2527976274748 ,54,9693126162699
6.054213 ,Left ,70,5970262866906 ,47,2527976274748 ,54,9693126162699
6.0773857 ,Left ,70,5177367260309 ,47,2699085618879 ,55,0241539688375
6.077389 ,Left ,70,5177367260309 ,47,2699085618879 ,55,0241539688375
6.0773919 ,Left ,70,5177367260309 ,47,2699085618879 ,55,0241539688375
6.0998326 ,Left ,70,4524638836865 ,47,2971506100086 ,55,0723077277651
6.0998359 ,Left ,70,4524638836865 ,47,2971506100086 ,55,0723077277651
6.0998388 ,Left ,70,4524638836865 ,47,2971506100086 ,55,0723077277651
6.1142167 ,Left ,70,4151484258468 ,47,3122719181816 ,55,1020912950604
6.11422 ,Left ,70,4151484258468 ,47,3122719181816 ,55,1020912950604
6.1142229 ,Left ,70,4151484258468 ,47,3122719181816 ,55,1020912950604
6.1375598 ,Left ,70,3894257242117 ,47,3152577304109 ,55,1382420157792
6.1375634 ,Left ,70,3894257242117 ,47,3152577304109 ,55,1382420157792
6.1375664 ,Left ,70,3894257242117 ,47,3152577304109 ,55,1382420157792
6.1599213 ,Left ,70,3310204947677 ,47,2789065059308 ,55,2135250266238
6.1599257 ,Left ,70,3310204947677 ,47,2789065059308 ,55,2135250266238
6.1599291 ,Left ,70,3310204947677 ,47,2789065059308 ,55,2135250266238
6.1742259 ,Left ,70,3002467261214 ,47,2016829912946 ,55,2676226179817
6.1742298 ,Left ,70,3002467261214 ,47,2016829912946 ,55,2676226179817
6.1742331 ,Left ,70,3002467261214 ,47,2016829912946 ,55,2676226179817
6.1975177 ,Left ,70,3202540489617 ,47,1774135546561 ,55,2679961059932
6.1975217 ,Left ,70,3202540489617 ,47,1774135546561 ,55,2679961059932
6.197525 ,Left ,70,3202540489617 ,47,1774135546561 ,55,2679961059932
6.219974 ,Left ,70,3251182707655 ,47,2199136544307 ,55,2099184549793
6.2199779 ,Left ,70,3251182707655 ,47,2199136544307 ,55,2099184549793
6.2199812 ,Left ,70,3251182707655 ,47,2199136544307 ,55,2099184549793
6.2416836 ,Left ,70,2856484685733 ,47,2952614766728 ,55,146956939354
6.2416922 ,Left ,70,2856484685733 ,47,2952614766728 ,55,146956939354
6.2416998 ,Left ,70,2856484685733 ,47,2952614766728 ,55,146956939354
6.2577661 ,Left ,70,2953165327037 ,47,3592729531336 ,55,0975143494967
6.2577739 ,Left ,70,2953165327037 ,47,3592729531336 ,55,0975143494967
6.2577806 ,Left ,70,2953165327037 ,47,3592729531336 ,55,0975143494967
6.2801863 ,Left ,70,3875249811925 ,47,4146832169684 ,55,0225783633942
6.2801942 ,Left ,70,3875249811925 ,47,4146832169684 ,55,0225783633942
6.280201 ,Left ,70,3875249811925 ,47,4146832169684 ,55,0225783633942
6.3011185 ,Left ,70,4630371255182 ,47,4582127235304 ,54,9333207691681
6.3011263 ,Left ,70,4630371255182 ,47,4582127235304 ,54,9333207691681
6.3011329 ,Left ,70,4630371255182 ,47,4582127235304 ,54,9333207691681
6.3177911 ,Left ,70,4838234464329 ,47,5061662256486 ,54,8377887824
6.3177987 ,Left ,70,4838234464329 ,47,5061662256486 ,54,8377887824
6.3178055 ,Left ,70,4838234464329 ,47,5061662256486 ,54,8377887824
6.3402719 ,Left ,70,498765768361 ,47,5701504809128 ,54,7394155140241
6.3402795 ,Left ,70,498765768361 ,47,5701504809128 ,54,7394155140241
6.3402863 ,Left ,70,498765768361 ,47,5701504809128 ,54,7394155140241
6.3609711 ,Left ,70,5262272443553 ,47,6389838334105 ,54,6377198574217
6.3609756 ,Left ,70,5262272443553 ,47,6389838334105 ,54,6377198574217
6.3609786 ,Left ,70,5262272443553 ,47,6389838334105 ,54,6377198574217
6.3773842 ,Left ,70,5230382201886 ,47,6930713509418 ,54,5417313862617
6.3773875 ,Left ,70,5230382201886 ,47,6930713509418 ,54,5417313862617
6.3773904 ,Left ,70,5230382201886 ,47,6930713509418 ,54,5417313862617
6.400007 ,Left ,70,4807516786246 ,47,7290969860422 ,54,4529169261178
6.4000106 ,Left ,70,4807516786246 ,47,7290969860422 ,54,4529169261178
6.4000135 ,Left ,70,4807516786246 ,47,7290969860422 ,54,4529169261178
6.4211033 ,Left ,70,4331082706911 ,47,7500907586511 ,54,3851415542659
6.4211069 ,Left ,70,4331082706911 ,47,7500907586511 ,54,3851415542659
6.4211098 ,Left ,70,4331082706911 ,47,7500907586511 ,54,3851415542659
6.4373769 ,Left ,70,3973730555 ,47,7558499665871 ,54,3314981995994
6.4373808 ,Left ,70,3973730555 ,47,7558499665871 ,54,3314981995994
6.4373837 ,Left ,70,3973730555 ,47,7558499665871 ,54,3314981995994
6.4598359 ,Left ,70,3640247387027 ,47,7567612800678 ,54,2867444565841
6.4598395 ,Left ,70,3640247387027 ,47,7567612800678 ,54,2867444565841
6.4598424 ,Left ,70,3640247387027 ,47,7567612800678 ,54,2867444565841
6.4823866 ,Left ,70,3124319143412 ,47,7737899499989 ,54,2411681859545
6.4823906 ,Left ,70,3124319143412 ,47,7737899499989 ,54,2411681859545
6.482394 ,Left ,70,3124319143412 ,47,7737899499989 ,54,2411681859545
6.4974888 ,Left ,70,2549507055038 ,47,7826864899638 ,54,1941939152873
6.4974955 ,Left ,70,2549507055038 ,47,7826864899638 ,54,1941939152873
6.4974989 ,Left ,70,2549507055038 ,47,7826864899638 ,54,1941939152873
6.5202862 ,Left ,70,2119205256308 ,47,7801985083802 ,54,1495313532561
6.5202939 ,Left ,70,2119205256308 ,47,7801985083802 ,54,1495313532561
6.5203008 ,Left ,70,2119205256308 ,47,7801985083802 ,54,1495313532561
6.5416856 ,Left ,70,1632858307751 ,47,7637463738165 ,54,1215325070555
6.5416937 ,Left ,70,1632858307751 ,47,7637463738165 ,54,1215325070555
6.5417005 ,Left ,70,1632858307751 ,47,7637463738165 ,54,1215325070555
6.5577726 ,Left ,70,1029067074266 ,47,7518241215665 ,54,106284977747
6.5577803 ,Left ,70,1029067074266 ,47,7518241215665 ,54,106284977747
6.5577871 ,Left ,70,1029067074266 ,47,7518241215665 ,54,106284977747
6.5800582 ,Left ,70,0491515446304 ,47,7156310942777 ,54,12288799862
6.5800662 ,Left ,70,0491515446304 ,47,7156310942777 ,54,12288799862
6.5800729 ,Left ,70,0491515446304 ,47,7156310942777 ,54,12288799862
6.6012212 ,Left ,70,0296238906583 ,47,6401640882533 ,54,1778418400322
6.6012256 ,Left ,70,0296238906583 ,47,6401640882533 ,54,1778418400322
6.6012292 ,Left ,70,0296238906583 ,47,6401640882533 ,54,1778418400322
6.6174489 ,Left ,70,0486643902999 ,47,5490914853468 ,54,2544663998382
6.6174532 ,Left ,70,0486643902999 ,47,5490914853468 ,54,2544663998382
6.6174568 ,Left ,70,0486643902999 ,47,5490914853468 ,54,2544663998382
6.6399042 ,Left ,70,0706319614604 ,47,4979579234287 ,54,3185581503958
6.6399084 ,Left ,70,0706319614604 ,47,4979579234287 ,54,3185581503958
6.639912 ,Left ,70,0706319614604 ,47,4979579234287 ,54,3185581503958
6.6611231 ,Left ,70,1310649334231 ,47,478747886373 ,54,3451805991734
6.6611277 ,Left ,70,1310649334231 ,47,478747886373 ,54,3451805991734
6.6611313 ,Left ,70,1310649334231 ,47,478747886373 ,54,3451805991734
6.6767792 ,Left ,70,2664699506904 ,47,4417713106331 ,54,3532545434811
6.6767834 ,Left ,70,2664699506904 ,47,4417713106331 ,54,3532545434811
6.6767869 ,Left ,70,2664699506904 ,47,4417713106331 ,54,3532545434811
6.6999453 ,Left ,70,429183510936 ,47,3720436192171 ,54,3643379996401
6.6999637 ,Left ,70,429183510936 ,47,3720436192171 ,54,3643379996401
6.6999673 ,Left ,70,429183510936 ,47,3720436192171 ,54,3643379996401
6.7210819 ,Left ,70,5795347477184 ,47,2891816276712 ,54,3823539902441
6.7210863 ,Left ,70,5795347477184 ,47,2891816276712 ,54,3823539902441
6.7210899 ,Left ,70,5795347477184 ,47,2891816276712 ,54,3823539902441
6.7367405 ,Left ,70,6997283651183 ,47,2234592374995 ,54,3951364658903
6.7367447 ,Left ,70,6997283651183 ,47,2234592374995 ,54,3951364658903
6.7367482 ,Left ,70,6997283651183 ,47,2234592374995 ,54,3951364658903
6.7599504 ,Left ,70,7771506812091 ,47,1840632076276 ,54,4067721337925
6.7599548 ,Left ,70,7771506812091 ,47,1840632076276 ,54,4067721337925
6.7599583 ,Left ,70,7771506812091 ,47,1840632076276 ,54,4067721337925
6.7824451 ,Left ,70,8027579829109 ,47,1520966984703 ,54,4255297417095
6.7824495 ,Left ,70,8027579829109 ,47,1520966984703 ,54,4255297417095
6.782453 ,Left ,70,8027579829109 ,47,1520966984703 ,54,4255297417095
6.7968504 ,Left ,70,8009407456625 ,47,1196839961502 ,54,458418349555
6.7968547 ,Left ,70,8009407456625 ,47,1196839961502 ,54,458418349555
6.7968583 ,Left ,70,8009407456625 ,47,1196839961502 ,54,458418349555
6.8198456 ,Left ,70,7765220326229 ,47,08435948883 ,54,5012780178676
6.81985 ,Left ,70,7765220326229 ,47,08435948883 ,54,5012780178676
6.8198536 ,Left ,70,7765220326229 ,47,08435948883 ,54,5012780178676
6.842482 ,Left ,70,7589366634563 ,47,0385951317136 ,54,546481247635
6.8424863 ,Left ,70,7589366634563 ,47,0385951317136 ,54,546481247635
6.8424898 ,Left ,70,7589366634563 ,47,0385951317136 ,54,546481247635
6.8650105 ,Left ,70,7360249235828 ,47,0285655556891 ,54,5784391213001
6.8650125 ,Left ,70,7360249235828 ,47,0285655556891 ,54,5784391213001
6.865014 ,Left ,70,7360249235828 ,47,0285655556891 ,54,5784391213001
6.8799031 ,Left ,70,6986959909346 ,47,0626381804766 ,54,5860642305885
6.8799052 ,Left ,70,6986959909346 ,47,0626381804766 ,54,5860642305885
6.8799068 ,Left ,70,6986959909346 ,47,0626381804766 ,54,5860642305885
6.9024404 ,Left ,70,6426157880393 ,47,1457984652618 ,54,5827774285122
6.9024428 ,Left ,70,6426157880393 ,47,1457984652618 ,54,5827774285122
6.9024447 ,Left ,70,6426157880393 ,47,1457984652618 ,54,5827774285122
6.916768 ,Left ,70,5969007642396 ,47,2320566325045 ,54,5816497921993
6.916771 ,Left ,70,5969007642396 ,47,2320566325045 ,54,5816497921993
6.9167733 ,Left ,70,5969007642396 ,47,2320566325045 ,54,5816497921993
6.9398901 ,Left ,70,6222773113668 ,47,3042691044063 ,54,5666272338957
6.9398925 ,Left ,70,6222773113668 ,47,3042691044063 ,54,5666272338957
6.9398945 ,Left ,70,6222773113668 ,47,3042691044063 ,54,5666272338957
6.9624403 ,Left ,70,6828461106113 ,47,3520116936132 ,54,5514599944962
6.9624443 ,Left ,70,6828461106113 ,47,3520116936132 ,54,5514599944962
6.9624479 ,Left ,70,6828461106113 ,47,3520116936132 ,54,5514599944962
6.9766704 ,Left ,70,7346096297501 ,47,3744482444331 ,54,5376358294648
6.9766744 ,Left ,70,7346096297501 ,47,3744482444331 ,54,5376358294648
6.976678 ,Left ,70,7346096297501 ,47,3744482444331 ,54,5376358294648
6.9999736 ,Left ,70,7879661391836 ,47,3880382965826 ,54,5342553667087
6.9999779 ,Left ,70,7879661391836 ,47,3880382965826 ,54,5342553667087
6.9999814 ,Left ,70,7879661391836 ,47,3880382965826 ,54,5342553667087
7.0224089 ,Left ,70,8585731424302 ,47,3837918450841 ,54,5532971871261
7.022413 ,Left ,70,8585731424302 ,47,3837918450841 ,54,5532971871261
7.0224166 ,Left ,70,8585731424302 ,47,3837918450841 ,54,5532971871261
7.0368199 ,Left ,70,9577957277316 ,47,3598933423279 ,54,5829467331893
7.0368242 ,Left ,70,9577957277316 ,47,3598933423279 ,54,5829467331893
7.0368279 ,Left ,70,9577957277316 ,47,3598933423279 ,54,5829467331893
7.0599193 ,Left ,71,0511642777523 ,47,3215289247346 ,54,6163799715212
7.0599236 ,Left ,71,0511642777523 ,47,3215289247346 ,54,6163799715212
7.0599272 ,Left ,71,0511642777523 ,47,3215289247346 ,54,6163799715212
7.0824266 ,Left ,71,1183920820771 ,47,2670737701747 ,54,6517889673566
7.0824308 ,Left ,71,1183920820771 ,47,2670737701747 ,54,6517889673566
7.0824344 ,Left ,71,1183920820771 ,47,2670737701747 ,54,6517889673566
7.096564 ,Left ,71,1675790082329 ,47,2015895325542 ,54,6934496882079
7.0965658 ,Left ,71,1675790082329 ,47,2015895325542 ,54,6934496882079
7.0965673 ,Left ,71,1675790082329 ,47,2015895325542 ,54,6934496882079
7.1197318 ,Left ,71,1944702682386 ,47,1432188598878 ,54,7348242478581
7.1197341 ,Left ,71,1944702682386 ,47,1432188598878 ,54,7348242478581
7.1197357 ,Left ,71,1944702682386 ,47,1432188598878 ,54,7348242478581
7.14242 ,Left ,71,2173221588069 ,47,0942949571367 ,54,7810814092339
7.1424224 ,Left ,71,2173221588069 ,47,0942949571367 ,54,7810814092339
7.1424242 ,Left ,71,2173221588069 ,47,0942949571367 ,54,7810814092339
7.1566647 ,Left ,71,2405148396319 ,47,0507483469784 ,54,8264409037707
7.1566688 ,Left ,71,2405148396319 ,47,0507483469784 ,54,8264409037707
7.1566709 ,Left ,71,2405148396319 ,47,0507483469784 ,54,8264409037707
7.1799046 ,Left ,71,2667289709635 ,47,0142238270945 ,54,8771605484262
7.1799076 ,Left ,71,2667289709635 ,47,0142238270945 ,54,8771605484262
7.1799099 ,Left ,71,2667289709635 ,47,0142238270945 ,54,8771605484262
7.2024277 ,Left ,71,301648581029 ,46,9854869941809 ,54,9345210712961
7.2024359 ,Left ,71,301648581029 ,46,9854869941809 ,54,9345210712961
7.2024401 ,Left ,71,301648581029 ,46,9854869941809 ,54,9345210712961
7.2168192 ,Left ,71,3424673866982 ,46,9613517412127 ,54,991075669433
7.2168226 ,Left ,71,3424673866982 ,46,9613517412127 ,54,991075669433
7.2168257 ,Left ,71,3424673866982 ,46,9613517412127 ,54,991075669433
7.2398903 ,Left ,71,3785482563653 ,46,949949139888 ,55,0441036042099
7.239894 ,Left ,71,3785482563653 ,46,949949139888 ,55,0441036042099
7.239897 ,Left ,71,3785482563653 ,46,949949139888 ,55,0441036042099
7.2624106 ,Left ,71,4184549081921 ,46,9477917846842 ,55,0974020609323
7.2624126 ,Left ,71,4184549081921 ,46,9477917846842 ,55,0974020609323
7.2624141 ,Left ,71,4184549081921 ,46,9477917846842 ,55,0974020609323
7.2832968 ,Left ,71,4438038788188 ,46,9484467279697 ,55,1579036904191
7.2832988 ,Left ,71,4438038788188 ,46,9484467279697 ,55,1579036904191
7.2833006 ,Left ,71,4438038788188 ,46,9484467279697 ,55,1579036904191
7.2998193 ,Left ,71,4567992232459 ,46,9515096236644 ,55,224969341409
7.2998215 ,Left ,71,4567992232459 ,46,9515096236644 ,55,224969341409
7.2998234 ,Left ,71,4567992232459 ,46,9515096236644 ,55,224969341409
7.3224655 ,Left ,71,4599603260212 ,46,9613577799234 ,55,2891541681133
7.3224684 ,Left ,71,4599603260212 ,46,9613577799234 ,55,2891541681133
7.3224708 ,Left ,71,4599603260212 ,46,9613577799234 ,55,2891541681133
7.3435001 ,Left ,71,4458394264656 ,46,974976604566 ,55,3483968004728
7.3435034 ,Left ,71,4458394264656 ,46,974976604566 ,55,3483968004728
7.343506 ,Left ,71,4458394264656 ,46,974976604566 ,55,3483968004728
7.3599296 ,Left ,71,4187940785393 ,46,9939363606099 ,55,3980487938169
7.359934 ,Left ,71,4187940785393 ,46,9939363606099 ,55,3980487938169
7.3599375 ,Left ,71,4187940785393 ,46,9939363606099 ,55,3980487938169
7.3827495 ,Left ,71,3807955923971 ,47,0092271683743 ,55,4341213054801
7.3827561 ,Left ,71,3807955923971 ,47,0092271683743 ,55,4341213054801
7.3827616 ,Left ,71,3807955923971 ,47,0092271683743 ,55,4341213054801
7.4039624 ,Left ,71,3364968244336 ,47,0149726303416 ,55,4623415342003
7.4039691 ,Left ,71,3364968244336 ,47,0149726303416 ,55,4623415342003
7.4039746 ,Left ,71,3364968244336 ,47,0149726303416 ,55,4623415342003
7.4205373 ,Left ,71,2893928330698 ,47,0147474107257 ,55,4959821676144
7.4205473 ,Left ,71,2893928330698 ,47,0147474107257 ,55,4959821676144
7.4205585 ,Left ,71,2893928330698 ,47,0147474107257 ,55,4959821676144
7.4427349 ,Left ,71,2354078138759 ,47,0203894265666 ,55,5337720037084
7.4427411 ,Left ,71,2354078138759 ,47,0203894265666 ,55,5337720037084
7.4427465 ,Left ,71,2354078138759 ,47,0203894265666 ,55,5337720037084
7.4634276 ,Left ,71,1795442945299 ,47,0342701167254 ,55,5650492138729
7.463431 ,Left ,71,1795442945299 ,47,0342701167254 ,55,5650492138729
7.4634337 ,Left ,71,1795442945299 ,47,0342701167254 ,55,5650492138729
7.4797497 ,Left ,71,1260205130498 ,47,0509364325525 ,55,5856039565186
7.4797522 ,Left ,71,1260205130498 ,47,0509364325525 ,55,5856039565186
7.4797542 ,Left ,71,1260205130498 ,47,0509364325525 ,55,5856039565186
7.5023253 ,Left ,71,0791144087483 ,47,0551730131091 ,55,6046996744699
7.5023276 ,Left ,71,0791144087483 ,47,0551730131091 ,55,6046996744699
7.5023296 ,Left ,71,0791144087483 ,47,0551730131091 ,55,6046996744699
7.5234945 ,Left ,71,0457177263859 ,47,0445452706884 ,55,6253401429195
7.523497 ,Left ,71,0457177263859 ,47,0445452706884 ,55,6253401429195
7.523499 ,Left ,71,0457177263859 ,47,0445452706884 ,55,6253401429195
7.5397408 ,Left ,71,0177104029025 ,47,0358356570248 ,55,6452930103465
7.5397431 ,Left ,71,0177104029025 ,47,0358356570248 ,55,6452930103465
7.5397451 ,Left ,71,0177104029025 ,47,0358356570248 ,55,6452930103465
7.5623595 ,Left ,70,981970121123 ,47,0267141119845 ,55,6621084592699
7.5623622 ,Left ,70,981970121123 ,47,0267141119845 ,55,6621084592699
7.5623644 ,Left ,70,981970121123 ,47,0267141119845 ,55,6621084592699
7.5833944 ,Left ,70,9271216798643 ,47,0042731847234 ,55,6830013286396
7.5833976 ,Left ,70,9271216798643 ,47,0042731847234 ,55,6830013286396
7.5834003 ,Left ,70,9271216798643 ,47,0042731847234 ,55,6830013286396
7.5999143 ,Left ,70,857055081406 ,46,9793598689563 ,55,709001978456
7.5999175 ,Left ,70,857055081406 ,46,9793598689563 ,55,709001978456
7.5999203 ,Left ,70,857055081406 ,46,9793598689563 ,55,709001978456
7.6224127 ,Left ,70,7867376135986 ,46,9312719997135 ,55,7300880757261
7.622416 ,Left ,70,7867376135986 ,46,9312719997135 ,55,7300880757261
7.6224188 ,Left ,70,7867376135986 ,46,9312719997135 ,55,7300880757261
7.6433567 ,Left ,70,7361366036932 ,46,8585594582765 ,55,7387746785839
7.6433602 ,Left ,70,7361366036932 ,46,8585594582765 ,55,7387746785839
7.6433629 ,Left ,70,7361366036932 ,46,8585594582765 ,55,7387746785839
7.6598751 ,Left ,70,72481945562 ,46,797113505854 ,55,7427875352263
7.6598803 ,Left ,70,72481945562 ,46,797113505854 ,55,7427875352263
7.6598831 ,Left ,70,72481945562 ,46,797113505854 ,55,7427875352263
7.6823805 ,Left ,70,7302952266277 ,46,783562336873 ,55,7324784901018
7.6823838 ,Left ,70,7302952266277 ,46,783562336873 ,55,7324784901018
7.6823865 ,Left ,70,7302952266277 ,46,783562336873 ,55,7324784901018
7.7048391 ,Left ,70,7363101850193 ,46,854533552507 ,55,6926461484802
7.7048425 ,Left ,70,7363101850193 ,46,854533552507 ,55,6926461484802
7.7048453 ,Left ,70,7363101850193 ,46,854533552507 ,55,6926461484802
7.7191261 ,Left ,70,7112560055457 ,46,9757282965606 ,55,6264351147092
7.7191293 ,Left ,70,7112560055457 ,46,9757282965606 ,55,6264351147092
7.7191321 ,Left ,70,7112560055457 ,46,9757282965606 ,55,6264351147092
7.7426344 ,Left ,70,7124625565842 ,47,0659919427841 ,55,5408336526313
7.7426384 ,Left ,70,7124625565842 ,47,0659919427841 ,55,5408336526313
7.7426416 ,Left ,70,7124625565842 ,47,0659919427841 ,55,5408336526313
7.7649434 ,Left ,70,726527611328 ,47,118508641325 ,55,4424729601255
7.7649466 ,Left ,70,726527611328 ,47,118508641325 ,55,4424729601255
7.7649483 ,Left ,70,726527611328 ,47,118508641325 ,55,4424729601255
7.7792831 ,Left ,70,7302902851052 ,47,1421924197796 ,55,3497620242421
7.7792852 ,Left ,70,7302902851052 ,47,1421924197796 ,55,3497620242421
7.7792868 ,Left ,70,7302902851052 ,47,1421924197796 ,55,3497620242421
7.8023892 ,Left ,70,7299370186193 ,47,1476779562057 ,55,265674960872
7.8023912 ,Left ,70,7299370186193 ,47,1476779562057 ,55,265674960872
7.8023927 ,Left ,70,7299370186193 ,47,1476779562057 ,55,265674960872
7.8249042 ,Left ,70,7233223733892 ,47,1291020537209 ,55,1963297681154
7.8249063 ,Left ,70,7233223733892 ,47,1291020537209 ,55,1963297681154
7.8249079 ,Left ,70,7233223733892 ,47,1291020537209 ,55,1963297681154
7.8395982 ,Left ,70,7056198418088 ,47,0962054648934 ,55,1479478984384
7.8396058 ,Left ,70,7056198418088 ,47,0962054648934 ,55,1479478984384
7.8396126 ,Left ,70,7056198418088 ,47,0962054648934 ,55,1479478984384
7.8627687 ,Left ,70,6637996579755 ,47,0591537611873 ,55,1164961478661
7.8627764 ,Left ,70,6637996579755 ,47,0591537611873 ,55,1164961478661
7.8627831 ,Left ,70,6637996579755 ,47,0591537611873 ,55,1164961478661
7.8852927 ,Left ,70,607227497364 ,47,0148334673813 ,55,1241548769786
7.8853004 ,Left ,70,607227497364 ,47,0148334673813 ,55,1241548769786
7.8853072 ,Left ,70,607227497364 ,47,0148334673813 ,55,1241548769786
7.899475 ,Left ,70,5612608677141 ,46,9413498207408 ,55,1605307304944
7.8994803 ,Left ,70,5612608677141 ,46,9413498207408 ,55,1605307304944
7.899485 ,Left ,70,5612608677141 ,46,9413498207408 ,55,1605307304944
7.9225841 ,Left ,70,5884355914657 ,46,8697493214157 ,55,1981532329778
7.9225894 ,Left ,70,5884355914657 ,46,8697493214157 ,55,1981532329778
7.922594 ,Left ,70,5884355914657 ,46,8697493214157 ,55,1981532329778
7.9448925 ,Left ,70,6651954400199 ,46,8261771177912 ,55,2150719193454
7.9448978 ,Left ,70,6651954400199 ,46,8261771177912 ,55,2150719193454
7.9449024 ,Left ,70,6651954400199 ,46,8261771177912 ,55,2150719193454
7.9594281 ,Left ,70,6823330730341 ,46,8170057877894 ,55,2311977377595
7.9594335 ,Left ,70,6823330730341 ,46,8170057877894 ,55,2311977377595
7.9594382 ,Left ,70,6823330730341 ,46,8170057877894 ,55,2311977377595
7.9826945 ,Left ,70,6377728823003 ,46,8515446170078 ,55,2382703275625
7.9827036 ,Left ,70,6377728823003 ,46,8515446170078 ,55,2382703275625
7.9827133 ,Left ,70,6377728823003 ,46,8515446170078 ,55,2382703275625
8.0051424 ,Left ,70,5855116864721 ,46,9173509395992 ,55,2134133638841
8.005151 ,Left ,70,5855116864721 ,46,9173509395992 ,55,2134133638841
8.0051559 ,Left ,70,5855116864721 ,46,9173509395992 ,55,2134133638841
8.0193833 ,Left ,70,5265250318386 ,46,9636876022504 ,55,1838759163768
8.0193886 ,Left ,70,5265250318386 ,46,9636876022504 ,55,1838759163768
8.0193932 ,Left ,70,5265250318386 ,46,9636876022504 ,55,1838759163768
8.0425939 ,Left ,70,4797876966011 ,46,994376649717 ,55,2027569608844
8.0425999 ,Left ,70,4797876966011 ,46,994376649717 ,55,2027569608844
8.0426045 ,Left ,70,4797876966011 ,46,994376649717 ,55,2027569608844
8.0650385 ,Left ,70,4386877614717 ,47,019805895542 ,55,2528442029711
8.0650439 ,Left ,70,4386877614717 ,47,019805895542 ,55,2528442029711
8.0650486 ,Left ,70,4386877614717 ,47,019805895542 ,55,2528442029711
8.079346 ,Left ,70,477013532563 ,47,0360098991171 ,55,3036889363203
8.0793513 ,Left ,70,477013532563 ,47,0360098991171 ,55,3036889363203
8.079356 ,Left ,70,477013532563 ,47,0360098991171 ,55,3036889363203
8.1024941 ,Left ,70,5225269787404 ,47,0537313664683 ,55,3432905357818
8.1024995 ,Left ,70,5225269787404 ,47,0537313664683 ,55,3432905357818
8.1025041 ,Left ,70,5225269787404 ,47,0537313664683 ,55,3432905357818
8.1251099 ,Left ,70,4820375593541 ,47,0866822892011 ,55,3740062976166
8.1251158 ,Left ,70,4820375593541 ,47,0866822892011 ,55,3740062976166
8.1251226 ,Left ,70,4820375593541 ,47,0866822892011 ,55,3740062976166
8.1475639 ,Left ,70,3637124914973 ,47,1128074023748 ,55,4091267408398
8.1475691 ,Left ,70,3637124914973 ,47,1128074023748 ,55,4091267408398
8.1475738 ,Left ,70,3637124914973 ,47,1128074023748 ,55,4091267408398
8.1625252 ,Left ,70,2442702683139 ,47,1518848526346 ,55,4430633393171
8.1625305 ,Left ,70,2442702683139 ,47,1518848526346 ,55,4430633393171
8.1625352 ,Left ,70,2442702683139 ,47,1518848526346 ,55,4430633393171
8.1854815 ,Left ,70,1541546901912 ,47,2009126763945 ,55,4779082396399
8.1854867 ,Left ,70,1541546901912 ,47,2009126763945 ,55,4779082396399
8.1854913 ,Left ,70,1541546901912 ,47,2009126763945 ,55,4779082396399
8.2062602 ,Left ,70,1093768223311 ,47,2315077461263 ,55,5132146743373
8.2062659 ,Left ,70,1093768223311 ,47,2315077461263 ,55,5132146743373
8.2062706 ,Left ,70,1093768223311 ,47,2315077461263 ,55,5132146743373
8.2225379 ,Left ,70,0689571958062 ,47,2301346126378 ,55,5577047623487
8.2225432 ,Left ,70,0689571958062 ,47,2301346126378 ,55,5577047623487
8.2225478 ,Left ,70,0689571958062 ,47,2301346126378 ,55,5577047623487
8.2448879 ,Left ,70,0339222450445 ,47,1615705548288 ,55,6255725526521
8.2448994 ,Left ,70,0339222450445 ,47,1615705548288 ,55,6255725526521
8.2449046 ,Left ,70,0339222450445 ,47,1615705548288 ,55,6255725526521
8.2661201 ,Left ,70,0239451028921 ,47,0796690760387 ,55,6680505154174
8.2661237 ,Left ,70,0239451028921 ,47,0796690760387 ,55,6680505154174
8.2661266 ,Left ,70,0239451028921 ,47,0796690760387 ,55,6680505154174
8.2824127 ,Left ,70,0293733946173 ,47,0573261482898 ,55,6771593912852
8.2824167 ,Left ,70,0293733946173 ,47,0573261482898 ,55,6771593912852
8.2824197 ,Left ,70,0293733946173 ,47,0573261482898 ,55,6771593912852
8.3048729 ,Left ,70,0221571874371 ,47,1382211632024 ,55,647884318103
8.3048764 ,Left ,70,0221571874371 ,47,1382211632024 ,55,647884318103
8.3048793 ,Left ,70,0221571874371 ,47,1382211632024 ,55,647884318103
8.3259263 ,Left ,69,9579744150482 ,47,280899338181 ,55,6067463012574
8.3259298 ,Left ,69,9579744150482 ,47,280899338181 ,55,6067463012574
8.3259407 ,Left ,69,9579744150482 ,47,280899338181 ,55,6067463012574
8.3425561 ,Left ,69,9241579004874 ,47,4028946544935 ,55,5765768012375
8.3425597 ,Left ,69,9241579004874 ,47,4028946544935 ,55,5765768012375
8.3425626 ,Left ,69,9241579004874 ,47,4028946544935 ,55,5765768012375
8.3649234 ,Left ,69,9679506790668 ,47,4731420006674 ,55,5426221541651
8.3649292 ,Left ,69,9679506790668 ,47,4731420006674 ,55,5426221541651
8.3649322 ,Left ,69,9679506790668 ,47,4731420006674 ,55,5426221541651
8.3860834 ,Left ,70,0262384358234 ,47,5158815585306 ,55,4723341771352
8.3860871 ,Left ,70,0262384358234 ,47,5158815585306 ,55,4723341771352
8.38609 ,Left ,70,0262384358234 ,47,5158815585306 ,55,4723341771352
8.4023968 ,Left ,70,0617816149931 ,47,5608455059357 ,55,3806537433539
8.4024008 ,Left ,70,0617816149931 ,47,5608455059357 ,55,3806537433539
8.4024042 ,Left ,70,0617816149931 ,47,5608455059357 ,55,3806537433539
8.4254432 ,Left ,70,0942143698128 ,47,6063837519854 ,55,2792957082029
8.4254488 ,Left ,70,0942143698128 ,47,6063837519854 ,55,2792957082029
8.4254587 ,Left ,70,0942143698128 ,47,6063837519854 ,55,2792957082029
8.4456541 ,Left ,70,1184550911318 ,47,6403971642585 ,55,1866590379972
8.445656 ,Left ,70,1184550911318 ,47,6403971642585 ,55,1866590379972
8.4456575 ,Left ,70,1184550911318 ,47,6403971642585 ,55,1866590379972
8.4623679 ,Left ,70,1138986934562 ,47,6383071352793 ,55,098304450644
8.46237 ,Left ,70,1138986934562 ,47,6383071352793 ,55,098304450644
8.4623715 ,Left ,70,1138986934562 ,47,6383071352793 ,55,098304450644
8.4848246 ,Left ,70,0874604531609 ,47,6054880848733 ,55,0192279996129
8.4848266 ,Left ,70,0874604531609 ,47,6054880848733 ,55,0192279996129
8.4848282 ,Left ,70,0874604531609 ,47,6054880848733 ,55,0192279996129
8.5059989 ,Left ,70,0725216066398 ,47,5612440986725 ,54,9422588412859
8.5060016 ,Left ,70,0725216066398 ,47,5612440986725 ,54,9422588412859
8.5060037 ,Left ,70,0725216066398 ,47,5612440986725 ,54,9422588412859
8.5284566 ,Left ,70,0731360015352 ,47,5254856530543 ,54,8619582147502
8.5284601 ,Left ,70,0731360015352 ,47,5254856530543 ,54,8619582147502
8.528463 ,Left ,70,0731360015352 ,47,5254856530543 ,54,8619582147502
8.5447047 ,Left ,70,0743128909912 ,47,5131028606202 ,54,7769360208815
8.5447065 ,Left ,70,0743128909912 ,47,5131028606202 ,54,7769360208815
8.544708 ,Left ,70,0743128909912 ,47,5131028606202 ,54,7769360208815
8.5663314 ,Left ,70,0566893339166 ,47,5077328714848 ,54,7035580092084
8.566339 ,Left ,70,0566893339166 ,47,5077328714848 ,54,7035580092084
8.5663458 ,Left ,70,0566893339166 ,47,5077328714848 ,54,7035580092084
8.5826747 ,Left ,70,0385789223727 ,47,48742856939 ,54,6538846682815
8.582679 ,Left ,70,0385789223727 ,47,48742856939 ,54,6538846682815
8.5826826 ,Left ,70,0385789223727 ,47,48742856939 ,54,6538846682815
8.6048824 ,Left ,70,0428161575937 ,47,4603603538706 ,54,627081043177
8.6048864 ,Left ,70,0428161575937 ,47,4603603538706 ,54,627081043177
8.6048893 ,Left ,70,0428161575937 ,47,4603603538706 ,54,627081043177
8.6273995 ,Left ,70,0470772895065 ,47,4262576882361 ,54,619810683612
8.6274027 ,Left ,70,0470772895065 ,47,4262576882361 ,54,619810683612
8.6274056 ,Left ,70,0470772895065 ,47,4262576882361 ,54,619810683612
8.642417 ,Left ,70,0367595042816 ,47,3880163009547 ,54,6289280569924
8.642419 ,Left ,70,0367595042816 ,47,3880163009547 ,54,6289280569924
8.6424205 ,Left ,70,0367595042816 ,47,3880163009547 ,54,6289280569924
8.6650059 ,Left ,70,026958022773 ,47,3594285317344 ,54,6470862778845
8.6650079 ,Left ,70,026958022773 ,47,3594285317344 ,54,6470862778845
8.6650093 ,Left ,70,026958022773 ,47,3594285317344 ,54,6470862778845
8.6874089 ,Left ,70,0348771724844 ,47,3603045282838 ,54,6603217159319
8.6874116 ,Left ,70,0348771724844 ,47,3603045282838 ,54,6603217159319
8.6874138 ,Left ,70,0348771724844 ,47,3603045282838 ,54,6603217159319
8.7029714 ,Left ,70,0690958748939 ,47,3517563033912 ,54,6820377570565
8.7029747 ,Left ,70,0690958748939 ,47,3517563033912 ,54,6820377570565
8.7029774 ,Left ,70,0690958748939 ,47,3517563033912 ,54,6820377570565
8.7247762 ,Left ,70,2049385149996 ,47,2898919987048 ,54,7046075824666
8.7247795 ,Left ,70,2049385149996 ,47,2898919987048 ,54,7046075824666
8.7247823 ,Left ,70,2049385149996 ,47,2898919987048 ,54,7046075824666
8.7473606 ,Left ,70,4080079389183 ,47,2024205411301 ,54,7118088920747
8.7473637 ,Left ,70,4080079389183 ,47,2024205411301 ,54,7118088920747
8.7473664 ,Left ,70,4080079389183 ,47,2024205411301 ,54,7118088920747
8.7620048 ,Left ,70,5732038266663 ,47,1191000577489 ,54,7110319117427
8.7620069 ,Left ,70,5732038266663 ,47,1191000577489 ,54,7110319117427
8.7620084 ,Left ,70,5732038266663 ,47,1191000577489 ,54,7110319117427
8.7847223 ,Left ,70,6577750313809 ,47,047071727164 ,54,7238636380167
8.7847242 ,Left ,70,6577750313809 ,47,047071727164 ,54,7238636380167
8.7847257 ,Left ,70,6577750313809 ,47,047071727164 ,54,7238636380167
8.8082733 ,Left ,70,6986127135942 ,46,9868174062203 ,54,7617265467592
8.8082811 ,Left ,70,6986127135942 ,46,9868174062203 ,54,7617265467592
8.8082879 ,Left ,70,6986127135942 ,46,9868174062203 ,54,7617265467592
8.821752 ,Left ,70,6998153757266 ,46,9245899755731 ,54,8201230046711
8.821754 ,Left ,70,6998153757266 ,46,9245899755731 ,54,8201230046711
8.8217555 ,Left ,70,6998153757266 ,46,9245899755731 ,54,8201230046711
8.8454859 ,Left ,70,6821487114448 ,46,8802451343667 ,54,8765471054455
8.8455156 ,Left ,70,6821487114448 ,46,8802451343667 ,54,8765471054455
8.8455225 ,Left ,70,6821487114448 ,46,8802451343667 ,54,8765471054455
8.8751292 ,Left ,70,6670430411478 ,46,8654744083162 ,54,92310129077
8.8752251 ,Left ,70,6670430411478 ,46,8654744083162 ,54,92310129077
8.8752362 ,Left ,70,6670430411478 ,46,8654744083162 ,54,92310129077
8.8815645 ,Left ,70,668525639924 ,46,8739576292683 ,54,9596745313037
8.8815663 ,Left ,70,668525639924 ,46,8739576292683 ,54,9596745313037
8.8815678 ,Left ,70,668525639924 ,46,8739576292683 ,54,9596745313037
8.9049406 ,Left ,70,6861809424667 ,46,8968108576583 ,54,9824636448106
8.9049427 ,Left ,70,6861809424667 ,46,8968108576583 ,54,9824636448106
8.9049443 ,Left ,70,6861809424667 ,46,8968108576583 ,54,9824636448106
8.910188 ,Left ,70,7095240050337 ,46,9300995678979 ,55,0054689843526
8.9101901 ,Left ,70,7095240050337 ,46,9300995678979 ,55,0054689843526
8.9101916 ,Left ,70,7095240050337 ,46,9300995678979 ,55,0054689843526
8.9326677 ,Left ,70,7031326565724 ,46,999111029121 ,55,0195088902219
8.9326697 ,Left ,70,7031326565724 ,46,999111029121 ,55,0195088902219
8.9326713 ,Left ,70,7031326565724 ,46,999111029121 ,55,0195088902219
8.9491808 ,Left ,70,6745560085389 ,47,0751579960993 ,55,0181528556058
8.9491828 ,Left ,70,6745560085389 ,47,0751579960993 ,55,0181528556058
8.9491845 ,Left ,70,6745560085389 ,47,0751579960993 ,55,0181528556058
8.9700865 ,Left ,70,6882176812615 ,47,1460644356787 ,55,0019620076811
8.9700883 ,Left ,70,6882176812615 ,47,1460644356787 ,55,0019620076811
8.9700897 ,Left ,70,6882176812615 ,47,1460644356787 ,55,0019620076811
8.9926946 ,Left ,70,7087002689496 ,47,1843413498517 ,54,9814033970328
8.9926977 ,Left ,70,7087002689496 ,47,1843413498517 ,54,9814033970328
8.9927005 ,Left ,70,7087002689496 ,47,1843413498517 ,54,9814033970328
9.0093664 ,Left ,70,7265241255287 ,47,1928266194073 ,54,9682293080536
9.0093702 ,Left ,70,7265241255287 ,47,1928266194073 ,54,9682293080536
9.0093733 ,Left ,70,7265241255287 ,47,1928266194073 ,54,9682293080536
9.0305396 ,Left ,70,7902047113461 ,47,1987550126889 ,54,9773552402142
9.0305444 ,Left ,70,7902047113461 ,47,1987550126889 ,54,9773552402142
9.030548 ,Left ,70,7902047113461 ,47,1987550126889 ,54,9773552402142
9.05277 ,Left ,70,8846215351446 ,47,2069260391794 ,54,9967363941509
9.0527741 ,Left ,70,8846215351446 ,47,2069260391794 ,54,9967363941509
9.0527777 ,Left ,70,8846215351446 ,47,2069260391794 ,54,9967363941509
9.0694248 ,Left ,70,9958073232318 ,47,2002916985216 ,55,0207038364689
9.0694292 ,Left ,70,9958073232318 ,47,2002916985216 ,55,0207038364689
9.0694328 ,Left ,70,9958073232318 ,47,2002916985216 ,55,0207038364689
9.0905303 ,Left ,71,0762858214773 ,47,1817432339204 ,55,0499291641208
9.0905347 ,Left ,71,0762858214773 ,47,1817432339204 ,55,0499291641208
9.0905383 ,Left ,71,0762858214773 ,47,1817432339204 ,55,0499291641208
9.1128017 ,Left ,71,1206057551516 ,47,1557815053161 ,55,0795807044244
9.1128038 ,Left ,71,1206057551516 ,47,1557815053161 ,55,0795807044244
9.1128053 ,Left ,71,1206057551516 ,47,1557815053161 ,55,0795807044244
9.1290421 ,Left ,71,1471336882135 ,47,1263317453734 ,55,1184785987755
9.1290441 ,Left ,71,1471336882135 ,47,1263317453734 ,55,1184785987755
9.1290456 ,Left ,71,1471336882135 ,47,1263317453734 ,55,1184785987755
9.1501532 ,Left ,71,1691995882951 ,47,0947753614551 ,55,1711481783864
9.1501552 ,Left ,71,1691995882951 ,47,0947753614551 ,55,1711481783864
9.1501568 ,Left ,71,1691995882951 ,47,0947753614551 ,55,1711481783864
9.1727919 ,Left ,71,1907575714571 ,47,0605622630143 ,55,2264805533448
9.1727947 ,Left ,71,1907575714571 ,47,0605622630143 ,55,2264805533448
9.1727967 ,Left ,71,1907575714571 ,47,0605622630143 ,55,2264805533448
9.1892517 ,Left ,71,2128538358922 ,47,0278079433762 ,55,2833791363136
9.1892538 ,Left ,71,2128538358922 ,47,0278079433762 ,55,2833791363136
9.1892554 ,Left ,71,2128538358922 ,47,0278079433762 ,55,2833791363136
9.2101087 ,Left ,71,2271662210556 ,46,9946741181991 ,55,3396505679413
9.210114 ,Left ,71,2271662210556 ,46,9946741181991 ,55,3396505679413
9.2101161 ,Left ,71,2271662210556 ,46,9946741181991 ,55,3396505679413
9.232737 ,Left ,71,2517533321511 ,46,9602741865841 ,55,4005034909588
9.2327397 ,Left ,71,2517533321511 ,46,9602741865841 ,55,4005034909588
9.2327418 ,Left ,71,2517533321511 ,46,9602741865841 ,55,4005034909588
9.2569085 ,Left ,71,2901940624122 ,46,9338443072699 ,55,4657672081769
9.2569123 ,Left ,71,2901940624122 ,46,9338443072699 ,55,4657672081769
9.2569153 ,Left ,71,2901940624122 ,46,9338443072699 ,55,4657672081769
9.270478 ,Left ,71,3316746675586 ,46,9120259832083 ,55,5273105253953
9.2704817 ,Left ,71,3316746675586 ,46,9120259832083 ,55,5273105253953
9.2704848 ,Left ,71,3316746675586 ,46,9120259832083 ,55,5273105253953
9.292855 ,Left ,71,3606357863118 ,46,8936436401475 ,55,5908797487954
9.2928587 ,Left ,71,3606357863118 ,46,8936436401475 ,55,5908797487954
9.2928618 ,Left ,71,3606357863118 ,46,8936436401475 ,55,5908797487954
9.3092412 ,Left ,71,3776120108203 ,46,878899805023 ,55,6572160939473
9.3092449 ,Left ,71,3776120108203 ,46,878899805023 ,55,6572160939473
9.309248 ,Left ,71,3776120108203 ,46,878899805023 ,55,6572160939473
9.3304456 ,Left ,71,378898573651 ,46,8637128670917 ,55,7222921837839
9.3304492 ,Left ,71,378898573651 ,46,8637128670917 ,55,7222921837839
9.3304523 ,Left ,71,378898573651 ,46,8637128670917 ,55,7222921837839
9.3528997 ,Left ,71,3760399876738 ,46,8572403680453 ,55,7815813413627
9.3529035 ,Left ,71,3760399876738 ,46,8572403680453 ,55,7815813413627
9.3529066 ,Left ,71,3760399876738 ,46,8572403680453 ,55,7815813413627
9.3691706 ,Left ,71,3576305445309 ,46,8568981362584 ,55,8340677351096
9.3691741 ,Left ,71,3576305445309 ,46,8568981362584 ,55,8340677351096
9.3691772 ,Left ,71,3576305445309 ,46,8568981362584 ,55,8340677351096
9.3903684 ,Left ,71,3351245852359 ,46,8651658270249 ,55,8782031449625
9.3903721 ,Left ,71,3351245852359 ,46,8651658270249 ,55,8782031449625
9.3903752 ,Left ,71,3351245852359 ,46,8651658270249 ,55,8782031449625
9.4129838 ,Left ,71,3057044714178 ,46,8865311791903 ,55,9138503519665
9.4129876 ,Left ,71,3057044714178 ,46,8865311791903 ,55,9138503519665
9.4129906 ,Left ,71,3057044714178 ,46,8865311791903 ,55,9138503519665
9.4291847 ,Left ,71,2639227230465 ,46,9086716791836 ,55,9472737662516
9.4291882 ,Left ,71,2639227230465 ,46,9086716791836 ,55,9472737662516
9.4291913 ,Left ,71,2639227230465 ,46,9086716791836 ,55,9472737662516
9.4502435 ,Left ,71,2190546038183 ,46,9282903845484 ,55,9781905664589
9.450247 ,Left ,71,2190546038183 ,46,9282903845484 ,55,9781905664589
9.45025 ,Left ,71,2190546038183 ,46,9282903845484 ,55,9781905664589
9.4730169 ,Left ,71,1716087623222 ,46,9481865390283 ,56,0064875244071
9.4730227 ,Left ,71,1716087623222 ,46,9481865390283 ,56,0064875244071
9.4730257 ,Left ,71,1716087623222 ,46,9481865390283 ,56,0064875244071
9.4892466 ,Left ,71,1205528835136 ,46,9623461901236 ,56,0273852181758
9.4892502 ,Left ,71,1205528835136 ,46,9623461901236 ,56,0273852181758
9.4892532 ,Left ,71,1205528835136 ,46,9623461901236 ,56,0273852181758
9.5103085 ,Left ,71,0658783770216 ,46,9695252142603 ,56,0426091759608
9.5103139 ,Left ,71,0658783770216 ,46,9695252142603 ,56,0426091759608
9.510317 ,Left ,71,0658783770216 ,46,9695252142603 ,56,0426091759608
9.5341738 ,Left ,71,0183975972302 ,46,9709162628762 ,56,0541272335954
9.5341774 ,Left ,71,0183975972302 ,46,9709162628762 ,56,0541272335954
9.5341804 ,Left ,71,0183975972302 ,46,9709162628762 ,56,0541272335954
9.549318 ,Left ,70,9740259886303 ,46,9585829456904 ,56,0626739646032
9.5493217 ,Left ,70,9740259886303 ,46,9585829456904 ,56,0626739646032
9.5493247 ,Left ,70,9740259886303 ,46,9585829456904 ,56,0626739646032
9.5717423 ,Left ,70,9408217508467 ,46,934140665331 ,56,0701350025962
9.571746 ,Left ,70,9408217508467 ,46,934140665331 ,56,0701350025962
9.5717512 ,Left ,70,9408217508467 ,46,934140665331 ,56,0701350025962
9.5928728 ,Left ,70,899126117692 ,46,8992267699806 ,56,0845346876489
9.5928792 ,Left ,70,899126117692 ,46,8992267699806 ,56,0845346876489
9.5928824 ,Left ,70,899126117692 ,46,8992267699806 ,56,0845346876489
9.6108167 ,Left ,70,8402639458766 ,46,86769502179 ,56,1008726646561
9.6108202 ,Left ,70,8402639458766 ,46,86769502179 ,56,1008726646561
9.6108232 ,Left ,70,8402639458766 ,46,86769502179 ,56,1008726646561
9.6303056 ,Left ,70,7845191394309 ,46,8224286718729 ,56,1144742381369
9.6303093 ,Left ,70,7845191394309 ,46,8224286718729 ,56,1144742381369
9.6303124 ,Left ,70,7845191394309 ,46,8224286718729 ,56,1144742381369
9.6525868 ,Left ,70,7502807686066 ,46,7834535190437 ,56,129313914984
9.6525885 ,Left ,70,7502807686066 ,46,7834535190437 ,56,129313914984
9.65259 ,Left ,70,7502807686066 ,46,7834535190437 ,56,129313914984
9.6706764 ,Left ,70,7807881083196 ,46,7644875910627 ,56,1240362225636
9.6706784 ,Left ,70,7807881083196 ,46,7644875910627 ,56,1240362225636
9.6706798 ,Left ,70,7807881083196 ,46,7644875910627 ,56,1240362225636
9.6902072 ,Left ,70,8048121646881 ,46,8094301578592 ,56,095337473945
9.6902098 ,Left ,70,8048121646881 ,46,8094301578592 ,56,095337473945
9.6902119 ,Left ,70,8048121646881 ,46,8094301578592 ,56,095337473945
9.7128102 ,Left ,70,7780953095353 ,46,9015033759797 ,56,0495709259411
9.7128128 ,Left ,70,7780953095353 ,46,9015033759797 ,56,0495709259411
9.712815 ,Left ,70,7780953095353 ,46,9015033759797 ,56,0495709259411
9.7307983 ,Left ,70,7711686403631 ,46,9752856141982 ,55,9883913079646
9.730801 ,Left ,70,7711686403631 ,46,9752856141982 ,55,9883913079646
9.7308031 ,Left ,70,7711686403631 ,46,9752856141982 ,55,9883913079646
9.7501892 ,Left ,70,7971519581922 ,47,0168516094411 ,55,9093513485105
9.7501919 ,Left ,70,7971519581922 ,47,0168516094411 ,55,9093513485105
9.7501939 ,Left ,70,7971519581922 ,47,0168516094411 ,55,9093513485105
9.7728673 ,Left ,70,8036125880783 ,47,0280374723879 ,55,8067690270168
9.77287 ,Left ,70,8036125880783 ,47,0280374723879 ,55,8067690270168
9.7728787 ,Left ,70,8036125880783 ,47,0280374723879 ,55,8067690270168
9.7907206 ,Left ,70,7784473826314 ,47,0272148095161 ,55,7013179199347
9.7907243 ,Left ,70,7784473826314 ,47,0272148095161 ,55,7013179199347
9.7907273 ,Left ,70,7784473826314 ,47,0272148095161 ,55,7013179199347
9.8106604 ,Left ,70,7447832952296 ,47,0149519912701 ,55,5970951292638
9.8106649 ,Left ,70,7447832952296 ,47,0149519912701 ,55,5970951292638
9.8106685 ,Left ,70,7447832952296 ,47,0149519912701 ,55,5970951292638
9.8330611 ,Left ,70,7116584072187 ,46,9975050861061 ,55,511859086131
9.8330655 ,Left ,70,7116584072187 ,46,9975050861061 ,55,511859086131
9.8330691 ,Left ,70,7116584072187 ,46,9975050861061 ,55,511859086131
9.8507671 ,Left ,70,701952140101 ,46,9776108173136 ,55,4386598148829
9.8507711 ,Left ,70,701952140101 ,46,9776108173136 ,55,4386598148829
9.8507747 ,Left ,70,701952140101 ,46,9776108173136 ,55,4386598148829
9.8708583 ,Left ,70,6736699397715 ,46,9268891882852 ,55,4270820042758
9.8708663 ,Left ,70,6736699397715 ,46,9268891882852 ,55,4270820042758
9.8708731 ,Left ,70,6736699397715 ,46,9268891882852 ,55,4270820042758
9.8930382 ,Left ,70,6409960795719 ,46,8438006763739 ,55,4468073240213
9.8930438 ,Left ,70,6409960795719 ,46,8438006763739 ,55,4468073240213
9.893053 ,Left ,70,6409960795719 ,46,8438006763739 ,55,4468073240213
9.9153877 ,Left ,70,6727287414174 ,46,7826146846084 ,55,4519941295818
9.915393 ,Left ,70,6727287414174 ,46,7826146846084 ,55,4519941295818
9.9153977 ,Left ,70,6727287414174 ,46,7826146846084 ,55,4519941295818
9.930452 ,Left ,70,6867766273824 ,46,7679326443051 ,55,4542672317241
9.9304574 ,Left ,70,6867766273824 ,46,7679326443051 ,55,4542672317241
9.9304621 ,Left ,70,6867766273824 ,46,7679326443051 ,55,4542672317241
9.9528965 ,Left ,70,6498178357046 ,46,773389328372 ,55,474623595969
9.9529022 ,Left ,70,6498178357046 ,46,773389328372 ,55,474623595969
9.9529069 ,Left ,70,6498178357046 ,46,773389328372 ,55,474623595969
9.970939 ,Left ,70,6048897191963 ,46,8224695640937 ,55,4924309348574
9.9709444 ,Left ,70,6048897191963 ,46,8224695640937 ,55,4924309348574
9.970949 ,Left ,70,6048897191963 ,46,8224695640937 ,55,4924309348574
9.9906462 ,Left ,70,5469087432592 ,46,8720331714405 ,55,4849842169205
9.990652 ,Left ,70,5469087432592 ,46,8720331714405 ,55,4849842169205
9.9906567 ,Left ,70,5469087432592 ,46,8720331714405 ,55,4849842169205
10.0128973 ,Left ,70,4882169809342 ,46,9142293600208 ,55,4865504740408
10.0129029 ,Left ,70,4882169809342 ,46,9142293600208 ,55,4865504740408
10.0129077 ,Left ,70,4882169809342 ,46,9142293600208 ,55,4865504740408
10.0309194 ,Left ,70,4558756170915 ,46,9334244749084 ,55,5072912131183
10.0309238 ,Left ,70,4558756170915 ,46,9334244749084 ,55,5072912131183
10.0309273 ,Left ,70,4558756170915 ,46,9334244749084 ,55,5072912131183
10.0503264 ,Left ,70,4529390266111 ,46,9642490637588 ,55,5450842661755
10.0503284 ,Left ,70,4529390266111 ,46,9642490637588 ,55,5450842661755
10.0503298 ,Left ,70,4529390266111 ,46,9642490637588 ,55,5450842661755
10.0734194 ,Left ,70,4653521215543 ,46,994964704282 ,55,5907830256988
10.0734274 ,Left ,70,4653521215543 ,46,994964704282 ,55,5907830256988
10.0734341 ,Left ,70,4653521215543 ,46,994964704282 ,55,5907830256988
10.0915213 ,Left ,70,4701028840225 ,47,0190921356394 ,55,6415766457173
10.0915445 ,Left ,70,4701028840225 ,47,0190921356394 ,55,6415766457173
10.0915513 ,Left ,70,4701028840225 ,47,0190921356394 ,55,6415766457173
10.1104069 ,Left ,70,4165860148736 ,47,0329648340559 ,55,7023770900573
10.1104135 ,Left ,70,4165860148736 ,47,0329648340559 ,55,7023770900573
10.1104188 ,Left ,70,4165860148736 ,47,0329648340559 ,55,7023770900573
10.132827 ,Left ,70,3076127936768 ,47,043594270757 ,55,7630412131104
10.1328306 ,Left ,70,3076127936768 ,47,043594270757 ,55,7630412131104
10.1328335 ,Left ,70,3076127936768 ,47,043594270757 ,55,7630412131104
10.150837 ,Left ,70,2048678114074 ,47,0638860709686 ,55,8158739326262
10.150841 ,Left ,70,2048678114074 ,47,0638860709686 ,55,8158739326262
10.1508439 ,Left ,70,2048678114074 ,47,0638860709686 ,55,8158739326262
10.1703334 ,Left ,70,1259462662226 ,47,0753047790879 ,55,8629637507693
10.170337 ,Left ,70,1259462662226 ,47,0753047790879 ,55,8629637507693
10.1703399 ,Left ,70,1259462662226 ,47,0753047790879 ,55,8629637507693
10.194218 ,Left ,70,0980086452644 ,47,0548303980467 ,55,9066562655866
10.1942213 ,Left ,70,0980086452644 ,47,0548303980467 ,55,9066562655866
10.1942242 ,Left ,70,0980086452644 ,47,0548303980467 ,55,9066562655866
10.2106012 ,Left ,70,0858726191739 ,46,9931784349436 ,55,9711651615761
10.2106045 ,Left ,70,0858726191739 ,46,9931784349436 ,55,9711651615761
10.2106074 ,Left ,70,0858726191739 ,46,9931784349436 ,55,9711651615761
10.2317629 ,Left ,70,0568789273285 ,46,921803864682 ,56,0158358319012
10.2317665 ,Left ,70,0568789273285 ,46,921803864682 ,56,0158358319012
10.2317694 ,Left ,70,0568789273285 ,46,921803864682 ,56,0158358319012
10.2533466 ,Left ,70,0500646282284 ,46,9227441787204 ,56,0238924641806
10.2533544 ,Left ,70,0500646282284 ,46,9227441787204 ,56,0238924641806
10.2533611 ,Left ,70,0500646282284 ,46,9227441787204 ,56,0238924641806
10.2711177 ,Left ,70,0219974431867 ,47,0274555632346 ,56,0031394312094
10.2711254 ,Left ,70,0219974431867 ,47,0274555632346 ,56,0031394312094
10.2711322 ,Left ,70,0219974431867 ,47,0274555632346 ,56,0031394312094
10.2921699 ,Left ,69,9855961579418 ,47,1464093403841 ,55,9723935155147
10.2921775 ,Left ,69,9855961579418 ,47,1464093403841 ,55,9723935155147
10.2921843 ,Left ,69,9855961579418 ,47,1464093403841 ,55,9723935155147
10.3129747 ,Left ,70,025443797953 ,47,2228488908197 ,55,9275648969445
10.3129786 ,Left ,70,025443797953 ,47,2228488908197 ,55,9275648969445
10.3129815 ,Left ,70,025443797953 ,47,2228488908197 ,55,9275648969445
10.3306462 ,Left ,70,0764205416366 ,47,2655206450845 ,55,8489946845009
10.3306495 ,Left ,70,0764205416366 ,47,2655206450845 ,55,8489946845009
10.3306524 ,Left ,70,0764205416366 ,47,2655206450845 ,55,8489946845009
10.3518015 ,Left ,70,0746633215453 ,47,288349004274 ,55,756141467965
10.3518046 ,Left ,70,0746633215453 ,47,288349004274 ,55,756141467965
10.3518071 ,Left ,70,0746633215453 ,47,288349004274 ,55,756141467965
10.3726703 ,Left ,70,081451667575 ,47,3180340339898 ,55,6615589678079
10.3726731 ,Left ,70,081451667575 ,47,3180340339898 ,55,6615589678079
10.3726755 ,Left ,70,081451667575 ,47,3180340339898 ,55,6615589678079
10.3910728 ,Left ,70,1228444617033 ,47,3488108492617 ,55,576290933269
10.3910804 ,Left ,70,1228444617033 ,47,3488108492617 ,55,576290933269
10.3910871 ,Left ,70,1228444617033 ,47,3488108492617 ,55,576290933269
10.412229 ,Left ,70,1805785155755 ,47,3625061463507 ,55,4972839011746
10.4122367 ,Left ,70,1805785155755 ,47,3625061463507 ,55,4972839011746
10.4122435 ,Left ,70,1805785155755 ,47,3625061463507 ,55,4972839011746
10.4332282 ,Left ,70,2095642415808 ,47,3635965968971 ,55,4151927952357
10.4332359 ,Left ,70,2095642415808 ,47,3635965968971 ,55,4151927952357
10.4332427 ,Left ,70,2095642415808 ,47,3635965968971 ,55,4151927952357
10.4511358 ,Left ,70,2003906739733 ,47,3595408271041 ,55,3346403762441
10.4511433 ,Left ,70,2003906739733 ,47,3595408271041 ,55,3346403762441
10.45115 ,Left ,70,2003906739733 ,47,3595408271041 ,55,3346403762441
10.4733118 ,Left ,70,1750808380195 ,47,3648608787195 ,55,2529907803058
10.4733174 ,Left ,70,1750808380195 ,47,3648608787195 ,55,2529907803058
10.4733221 ,Left ,70,1750808380195 ,47,3648608787195 ,55,2529907803058
10.492766 ,Left ,70,1692430616477 ,47,3817068334109 ,55,173760127597
10.4927701 ,Left ,70,1692430616477 ,47,3817068334109 ,55,173760127597
10.4927737 ,Left ,70,1692430616477 ,47,3817068334109 ,55,173760127597
10.5107504 ,Left ,70,1714158115915 ,47,4111597766974 ,55,0935729949247
10.5107546 ,Left ,70,1714158115915 ,47,4111597766974 ,55,0935729949247
10.5107582 ,Left ,70,1714158115915 ,47,4111597766974 ,55,0935729949247
10.5333186 ,Left ,70,1646237453821 ,47,443401556828 ,55,0132161648402
10.5333227 ,Left ,70,1646237453821 ,47,443401556828 ,55,0132161648402
10.5333263 ,Left ,70,1646237453821 ,47,443401556828 ,55,0132161648402
10.5529746 ,Left ,70,150000213893 ,47,4726162450424 ,54,9448227601559
10.5529789 ,Left ,70,150000213893 ,47,4726162450424 ,54,9448227601559
10.5529825 ,Left ,70,150000213893 ,47,4726162450424 ,54,9448227601559
10.5714259 ,Left ,70,1285128906768 ,47,4946281180138 ,54,8985271699137
10.57143 ,Left ,70,1285128906768 ,47,4946281180138 ,54,8985271699137
10.5714336 ,Left ,70,1285128906768 ,47,4946281180138 ,54,8985271699137
10.5932439 ,Left ,70,0901842695443 ,47,5217436069577 ,54,8624226587904
10.5932488 ,Left ,70,0901842695443 ,47,5217436069577 ,54,8624226587904
10.5932531 ,Left ,70,0901842695443 ,47,5217436069577 ,54,8624226587904
10.6127799 ,Left ,70,0461177361158 ,47,5615320635676 ,54,830566329347
10.6127851 ,Left ,70,0461177361158 ,47,5615320635676 ,54,830566329347
10.6127894 ,Left ,70,0461177361158 ,47,5615320635676 ,54,830566329347
10.6306128 ,Left ,69,9907962254809 ,47,6065554966005 ,54,8047221978624
10.6306149 ,Left ,69,9907962254809 ,47,6065554966005 ,54,8047221978624
10.6306165 ,Left ,69,9907962254809 ,47,6065554966005 ,54,8047221978624
10.6529956 ,Left ,69,9352888814412 ,47,6490990234434 ,54,7818333525596
10.6529978 ,Left ,69,9352888814412 ,47,6490990234434 ,54,7818333525596
10.6529997 ,Left ,69,9352888814412 ,47,6490990234434 ,54,7818333525596
10.6727524 ,Left ,69,86960176012 ,47,6499744213101 ,54,7923655098695
10.6727548 ,Left ,69,86960176012 ,47,6499744213101 ,54,7923655098695
10.6727589 ,Left ,69,86960176012 ,47,6499744213101 ,54,7923655098695
10.6908278 ,Left ,69,8361458027117 ,47,6187059564394 ,54,8349187327332
10.6908306 ,Left ,69,8361458027117 ,47,6187059564394 ,54,8349187327332
10.6908328 ,Left ,69,8361458027117 ,47,6187059564394 ,54,8349187327332
10.7133306 ,Left ,69,8504333079479 ,47,573158335194 ,54,8837217317303
10.7133348 ,Left ,69,8504333079479 ,47,573158335194 ,54,8837217317303
10.7133382 ,Left ,69,8504333079479 ,47,573158335194 ,54,8837217317303
10.7330349 ,Left ,69,870298944437 ,47,5349493803761 ,54,9306660128191
10.7330413 ,Left ,69,870298944437 ,47,5349493803761 ,54,9306660128191
10.7330447 ,Left ,69,870298944437 ,47,5349493803761 ,54,9306660128191
10.7508684 ,Left ,69,9505676812979 ,47,4611931621215 ,54,9789140478295
10.7508726 ,Left ,69,9505676812979 ,47,4611931621215 ,54,9789140478295
10.750876 ,Left ,69,9505676812979 ,47,4611931621215 ,54,9789140478295
10.7724073 ,Left ,70,1193862443392 ,47,3458238179543 ,54,9971908454641
10.7724114 ,Left ,70,1193862443392 ,47,3458238179543 ,54,9971908454641
10.7724148 ,Left ,70,1193862443392 ,47,3458238179543 ,54,9971908454641
10.7935476 ,Left ,70,3172966148225 ,47,2056523686301 ,55,0102941619002
10.7935522 ,Left ,70,3172966148225 ,47,2056523686301 ,55,0102941619002
10.7935555 ,Left ,70,3172966148225 ,47,2056523686301 ,55,0102941619002
10.8097956 ,Left ,70,4534395073494 ,47,0637661681222 ,55,0185683487294
10.8097997 ,Left ,70,4534395073494 ,47,0637661681222 ,55,0185683487294
10.8098031 ,Left ,70,4534395073494 ,47,0637661681222 ,55,0185683487294
10.8322431 ,Left ,70,5309902194942 ,46,9469027348905 ,55,0337032964286
10.8322448 ,Left ,70,5309902194942 ,46,9469027348905 ,55,0337032964286
10.8322463 ,Left ,70,5309902194942 ,46,9469027348905 ,55,0337032964286
10.8540909 ,Left ,70,5592927141133 ,46,8346664755478 ,55,0631394066091
10.854099 ,Left ,70,5592927141133 ,46,8346664755478 ,55,0631394066091
10.8541058 ,Left ,70,5592927141133 ,46,8346664755478 ,55,0631394066091
10.8700805 ,Left ,70,5586870591413 ,46,7589140398226 ,55,1019375962254
10.8700911 ,Left ,70,5586870591413 ,46,7589140398226 ,55,1019375962254
10.8701011 ,Left ,70,5586870591413 ,46,7589140398226 ,55,1019375962254
10.8928322 ,Left ,70,5506703791382 ,46,7157473001238 ,55,1323964690207
10.8928398 ,Left ,70,5506703791382 ,46,7157473001238 ,55,1323964690207
10.8928465 ,Left ,70,5506703791382 ,46,7157473001238 ,55,1323964690207
10.9215985 ,Left ,70,5570035168633 ,46,6971005127766 ,55,1611237201249
10.9216066 ,Left ,70,5570035168633 ,46,6971005127766 ,55,1611237201249
10.9216134 ,Left ,70,5570035168633 ,46,6971005127766 ,55,1611237201249
10.9302477 ,Left ,70,5901624190522 ,46,6907507890798 ,55,2074137796277
10.9302558 ,Left ,70,5901624190522 ,46,6907507890798 ,55,2074137796277
10.9302627 ,Left ,70,5901624190522 ,46,6907507890798 ,55,2074137796277
10.9588292 ,Left ,70,647187989387 ,46,722276397816 ,55,2700430400739
10.9588444 ,Left ,70,647187989387 ,46,722276397816 ,55,2700430400739
10.9588516 ,Left ,70,647187989387 ,46,722276397816 ,55,2700430400739
10.9734388 ,Left ,70,6668123062121 ,46,8126076314429 ,55,3158360895054
10.973443 ,Left ,70,6668123062121 ,46,8126076314429 ,55,3158360895054
10.9734466 ,Left ,70,6668123062121 ,46,8126076314429 ,55,3158360895054
10.9903144 ,Left ,70,633850192334 ,46,9364559180892 ,55,3372858456125
10.9903222 ,Left ,70,633850192334 ,46,9364559180892 ,55,3372858456125
10.990329 ,Left ,70,633850192334 ,46,9364559180892 ,55,3372858456125
11.0127773 ,Left ,70,6040044263647 ,47,0658077504337 ,55,3378350554008
11.012785 ,Left ,70,6040044263647 ,47,0658077504337 ,55,3378350554008
11.0127917 ,Left ,70,6040044263647 ,47,0658077504337 ,55,3378350554008
11.0340729 ,Left ,70,588727540493 ,47,1650514652139 ,55,3312738502129
11.0340807 ,Left ,70,588727540493 ,47,1650514652139 ,55,3312738502129
11.0340874 ,Left ,70,588727540493 ,47,1650514652139 ,55,3312738502129
11.0502958 ,Left ,70,5852431458013 ,47,2301775948611 ,55,3272159797667
11.0503035 ,Left ,70,5852431458013 ,47,2301775948611 ,55,3272159797667
11.0503102 ,Left ,70,5852431458013 ,47,2301775948611 ,55,3272159797667
11.0725796 ,Left ,70,6226747635219 ,47,2734762675567 ,55,336102581666
11.0725849 ,Left ,70,6226747635219 ,47,2734762675567 ,55,336102581666
11.0725896 ,Left ,70,6226747635219 ,47,2734762675567 ,55,336102581666
11.0937236 ,Left ,70,7198840381628 ,47,3089699956803 ,55,3470757965138
11.0937295 ,Left ,70,7198840381628 ,47,3089699956803 ,55,3470757965138
11.0937341 ,Left ,70,7198840381628 ,47,3089699956803 ,55,3470757965138
11.1101029 ,Left ,70,8454900693898 ,47,3289973494429 ,55,3503853953701
11.1101119 ,Left ,70,8454900693898 ,47,3289973494429 ,55,3503853953701
11.1101206 ,Left ,70,8454900693898 ,47,3289973494429 ,55,3503853953701
11.1319441 ,Left ,70,9423349300262 ,47,3377132288123 ,55,3514849865259
11.1319459 ,Left ,70,9423349300262 ,47,3377132288123 ,55,3514849865259
11.1319474 ,Left ,70,9423349300262 ,47,3377132288123 ,55,3514849865259
11.1534961 ,Left ,70,9787671064956 ,47,3257072024628 ,55,3465453369907
11.1534984 ,Left ,70,9787671064956 ,47,3257072024628 ,55,3465453369907
11.1535001 ,Left ,70,9787671064956 ,47,3257072024628 ,55,3465453369907
11.1698977 ,Left ,70,9836050214362 ,47,2971289541318 ,55,3501760186161
11.1699 ,Left ,70,9836050214362 ,47,2971289541318 ,55,3501760186161
11.1699018 ,Left ,70,9836050214362 ,47,2971289541318 ,55,3501760186161
11.1924047 ,Left ,70,9925873093926 ,47,2541696965633 ,55,3705763347386
11.192408 ,Left ,70,9925873093926 ,47,2541696965633 ,55,3705763347386
11.1924106 ,Left ,70,9925873093926 ,47,2541696965633 ,55,3705763347386
11.2135665 ,Left ,71,0291746806195 ,47,1995699087044 ,55,4014640716437
11.2135698 ,Left ,71,0291746806195 ,47,1995699087044 ,55,4014640716437
11.2135725 ,Left ,71,0291746806195 ,47,1995699087044 ,55,4014640716437
11.2299222 ,Left ,71,0725706414179 ,47,1409873586961 ,55,4340986788592
11.2299255 ,Left ,71,0725706414179 ,47,1409873586961 ,55,4340986788592
11.2299281 ,Left ,71,0725706414179 ,47,1409873586961 ,55,4340986788592
11.2525051 ,Left ,71,0964028529037 ,47,0843000341569 ,55,4677900389404
11.2525085 ,Left ,71,0964028529037 ,47,0843000341569 ,55,4677900389404
11.2525111 ,Left ,71,0964028529037 ,47,0843000341569 ,55,4677900389404
11.2735263 ,Left ,71,1181701667418 ,47,0314394245158 ,55,5091791146698
11.273539 ,Left ,71,1181701667418 ,47,0314394245158 ,55,5091791146698
11.273542 ,Left ,71,1181701667418 ,47,0314394245158 ,55,5091791146698
11.2899518 ,Left ,71,1532881887317 ,46,9825621618616 ,55,5567264969428
11.2899558 ,Left ,71,1532881887317 ,46,9825621618616 ,55,5567264969428
11.2899594 ,Left ,71,1532881887317 ,46,9825621618616 ,55,5567264969428
11.312423 ,Left ,71,1891974463524 ,46,9378413656439 ,55,6053324895237
11.312427 ,Left ,71,1891974463524 ,46,9378413656439 ,55,6053324895237
