timestamp,event,roll,pitch,yaw
0.0289665 ,Left ,62,2037798197526 ,44,3877412246585 ,31,1349117230244
0.0441037 ,Left ,62,19654297661 ,44,3909689562892 ,31,1347756693744
0.0590676 ,Left ,62,1876964347209 ,44,3944006051242 ,31,1328888058736
0.0815578 ,Left ,62,2011685148767 ,44,398184174843 ,31,1290649571807
0.0968682 ,Left ,62,2142783557686 ,44,4041093772117 ,31,1288139810288
0.1191975 ,Left ,62,2147853886371 ,44,4045544799601 ,31,1264485821857
0.1417089 ,Left ,62,2004494224821 ,44,4080306461032 ,31,1317938093804
0.1570276 ,Left ,62,2004494224821 ,44,4080306461032 ,31,1317938093804
0.1793627 ,Left ,62,2116150718047 ,44,4104252662378 ,31,1306019691111
0.2018428 ,Left ,62,2116150718047 ,44,4104252662378 ,31,1306019691111
0.2168822 ,Left ,62,2034173581433 ,44,416887467692 ,31,1275546039037
0.2393394 ,Left ,62,200975082663 ,44,4184754053655 ,31,1245576391034
0.261758 ,Left ,62,1991753982922 ,44,4175315642212 ,31,1248216603792
0.2767141 ,Left ,62,1961438811452 ,44,4215509859098 ,31,1306254876235
0.2993581 ,Left ,62,1961438811452 ,44,4215509859098 ,31,1306254876235
0.3218451 ,Left ,62,1976233967324 ,44,4231974603304 ,31,1307159558924
0.3368071 ,Left ,62,1979438249277 ,44,4224946136335 ,31,1303614031023
0.3593343 ,Left ,62,1976233967324 ,44,4231974603304 ,31,1307159558924
0.3820401 ,Left ,62,199278244845 ,44,4215554048724 ,31,1292459622907
0.3968771 ,Left ,62,1961850588842 ,44,4201126528702 ,31,1274080271816
0.4271244 ,Left ,62,1961850588842 ,44,4201126528702 ,31,1274080271816
0.4495521 ,Left ,62,1961850588842 ,44,4201126528702 ,31,1274080271816
0.4643485 ,Left ,62,1961850588842 ,44,4201126528702 ,31,1274080271816
0.4794743 ,Left ,62,1880981065652 ,44,4305956637299 ,31,1287698604331
0.5021229 ,Left ,62,1785135980944 ,44,4453047721926 ,31,1327892808661
0.5245342 ,Left ,62,1843936177313 ,44,4544524001234 ,31,1323923555728
0.5544055 ,Left ,62,1834203642087 ,44,4691130115369 ,31,1278047906598
0.584369 ,Left ,62,1736457009048 ,44,4698949414602 ,31,1202113091871
0.6070041 ,Left ,62,1830425958149 ,44,4754674289219 ,31,111661277883
0.6295198 ,Left ,62,2077195612478 ,44,4787828677589 ,31,1002735692428
0.6442932 ,Left ,62,2231142554811 ,44,4677833203625 ,31,0882244084125
0.6594477 ,Left ,62,2352539786192 ,44,4541960402221 ,31,0763208964982
0.6818298 ,Left ,62,2325714275292 ,44,4436145859391 ,31,0720981016384
0.6968679 ,Left ,62,2703968805025 ,44,4328990456652 ,31,0701249618503
0.7192505 ,Left ,62,2617238427783 ,44,4343485689239 ,31,0819730761053
0.7491973 ,Left ,62,2706492326154 ,44,422096535018 ,31,1160442045832
0.7717873 ,Left ,62,218665581002 ,44,4243783990419 ,31,1419641109822
0.7869952 ,Left ,62,1875879541555 ,44,4087178136732 ,31,137671737457
0.8024216 ,Left ,62,2058695338183 ,44,3856222077734 ,31,1109020461347
0.8245293 ,Left ,62,2791736005773 ,44,3620682146224 ,31,0650544033111
0.8396246 ,Left ,62,2788532324494 ,44,3266184950167 ,31,0278003001714
0.8619209 ,Left ,62,2224918987597 ,44,2935781055802 ,31,0086894890077
0.8843923 ,Left ,62,115383511346 ,44,2926042910051 ,31,020199476219
0.8995265 ,Left ,62,1355308938585 ,44,2652247419783 ,30,9904944589644
0.9291595 ,Left ,62,2156822959006 ,44,2560773013089 ,30,9732198225569
0.9516464 ,Left ,62,2096127121778 ,44,2416157843108 ,30,9832387079496
0.9668537 ,Left ,62,1551308499557 ,44,2664571757872 ,30,99476085353
1.0041743 ,Left ,62,1683493492087 ,44,3142422832537 ,30,9861282196136
1.0190327 ,Left ,62,2361870606317 ,44,3227130894671 ,30,9854911042328
1.0417844 ,Left ,62,2124270120758 ,44,3347251566489 ,30,9748750644236
1.0640703 ,Left ,62,1621841076232 ,44,3563184389908 ,30,9876807363283
1.079121 ,Left ,62,1060993766308 ,44,3816599866395 ,30,9901482354211
1.1020052 ,Left ,62,0434947596993 ,44,4035858325216 ,30,9910563424357
1.1240651 ,Left ,62,1354089568997 ,44,3931661676801 ,31,0174934090976
1.1393656 ,Left ,62,1774787188699 ,44,3659696588758 ,31,032542837737
1.1541829 ,Left ,62,1130007458504 ,44,3756528416328 ,31,0356309979411
1.1916597 ,Left ,62,165920030488 ,44,4957350806667 ,31,0433030317061
1.2141267 ,Left ,62,2015464624522 ,44,4731126889199 ,31,0780811475837
1.2591544 ,Left ,62,267567290503 ,44,4745577296054 ,31,1044697447422
1.2817926 ,Left ,62,2446162061965 ,44,4894783838577 ,31,1167372926647
1.3122054 ,Left ,62,290835888424 ,44,5342658134611 ,31,1341532560407
1.3344404 ,Left ,62,3017563259847 ,44,5854684574405 ,31,1379582618443
1.3718471 ,Left ,62,1785469818602 ,44,6925253350394 ,31,1574066376423
1.3943228 ,Left ,62,1149043328182 ,44,7087157456289 ,31,160094556954
1.431795 ,Left ,62,1046933379827 ,44,6113039167335 ,31,1678880612355
1.4694605 ,Left ,62,0353060165989 ,44,5965922489771 ,31,1947041980816
1.4916698 ,Left ,61,9509317947445 ,44,7068828990902 ,31,2103454724235
1.5067398 ,Left ,61,9753900712574 ,44,8107502485648 ,31,2285723483451
1.5141761 ,Left ,62,1204817779697 ,44,8583532704515 ,31,2213506260242
1.5366588 ,Left ,62,2052365347016 ,44,8988578081161 ,31,1962731280271
1.5516587 ,Left ,62,1708730226036 ,44,9042547728343 ,31,1519050872968
1.5742169 ,Left ,62,1432543635684 ,44,9036077637895 ,31,0773107729757
1.5969067 ,Left ,62,1841822529842 ,44,9036391212546 ,30,9965009592397
1.6115279 ,Left ,62,2362285174415 ,44,9195734366233 ,30,9384113188568
1.6340499 ,Left ,62,2824040196105 ,44,933560439693 ,30,8692584811371
1.6793021 ,Left ,62,2340727795852 ,44,8355304158257 ,30,7893092894275
1.7021751 ,Left ,62,2099883008206 ,44,8002108766745 ,30,789517014354
1.7320671 ,Left ,62,2421188396337 ,44,7322800953736 ,30,7890201277531
1.754432 ,Left ,62,1858961244085 ,44,7256814875091 ,30,834244632121
1.7768784 ,Left ,62,1179442066188 ,44,8089769931243 ,30,9113748604554
1.7921019 ,Left ,62,2099932836568 ,44,9137706331384 ,30,9465028480925
1.8145242 ,Left ,62,400431079561 ,44,9171399188754 ,30,8926271051133
1.8369448 ,Left ,62,5568328999581 ,44,7697542233469 ,30,8036786826365
1.8521098 ,Left ,62,5724634040954 ,44,5250565005101 ,30,7835460198292
1.87453 ,Left ,62,4661042379177 ,44,4495951846438 ,30,8461550105259
1.9116722 ,Left ,62,6245717707386 ,44,4865220393597 ,30,812605829164
1.9350154 ,Left ,62,6918686706157 ,44,4260612508212 ,30,8209232513696
1.9718955 ,Left ,62,6116971698378 ,44,4485499385167 ,30,8653798418328
1.9941027 ,Left ,62,6261326440379 ,44,6034997342835 ,30,8866248417306
2.0316111 ,Left ,62,7638756898003 ,44,8957296443039 ,30,9563133342914
2.0541262 ,Left ,62,8838013579401 ,44,8718481024121 ,30,9640337470357
2.0916377 ,Left ,62,6799189697852 ,44,7393901362325 ,30,9868871511393
2.114069 ,Left ,62,5374915975004 ,44,6660259495645 ,31,0160136603281
2.1515559 ,Left ,62,6464649518606 ,44,6308801116675 ,30,9534167295182
2.1743807 ,Left ,62,6459749725369 ,44,5845109405066 ,30,9176329872415
2.2191895 ,Left ,62,5960343903223 ,44,5443878013977 ,30,8670361088698
2.2424309 ,Left ,62,602200870443 ,44,5119757196324 ,30,8279242608909
2.2723282 ,Left ,62,7099903376717 ,44,47486769026 ,30,6945681564317
2.2946274 ,Left ,62,6977761792035 ,44,4791432347211 ,30,665003892888
2.3320165 ,Left ,62,7609999787659 ,44,4490813970547 ,30,655937078979
2.3544149 ,Left ,62,7937562192866 ,44,4126194715651 ,30,6644741928667
2.3995191 ,Left ,62,7429308349467 ,44,3159195685777 ,30,6764671119766
2.421952 ,Left ,62,7396677201527 ,44,3132788142498 ,30,6766453437005
2.4817402 ,Left ,62,7670941046491 ,44,3580689303622 ,30,7743267298175
2.5192635 ,Left ,62,7476534097618 ,44,3791553418166 ,30,8335122116646
2.5341599 ,Left ,62,7544435682541 ,44,3774575247709 ,30,8593666242776
2.5715247 ,Left ,62,7449437717316 ,44,426020474311 ,30,9133557930411
2.5947718 ,Left ,62,7634988134027 ,44,4266186101304 ,30,9152655670164
2.6317873 ,Left ,62,6950280830318 ,44,3714882209456 ,30,946925268626
2.6541338 ,Left ,62,6029849258505 ,44,3747726536375 ,30,9941342798915
2.699975 ,Left ,62,6233725038902 ,44,3824289551137 ,30,9693001822643
2.7225007 ,Left ,62,6335878648426 ,44,3625934004626 ,30,9841268053261
2.7522697 ,Left ,62,5619194297701 ,44,3946307869874 ,31,0050691053457
2.774513 ,Left ,62,603078100379 ,44,3410901752501 ,30,9988739993736
2.8117926 ,Left ,62,7329733312117 ,44,1784211285351 ,30,9258436631558
2.8343412 ,Left ,62,6367150916055 ,44,2367628113769 ,30,92031054923
2.8717738 ,Left ,62,8409861567449 ,44,2360856785808 ,30,8354734120936
2.894376 ,Left ,62,873985507555 ,44,1956215916783 ,30,8266768421888
2.931917 ,Left ,62,7150430723126 ,44,0978875462373 ,30,8376771547326
2.9546048 ,Left ,62,7423103668098 ,44,0331576621656 ,30,8382080804991
2.9918034 ,Left ,62,8095611605622 ,44,016146014727 ,30,8801081172703
3.0144488 ,Left ,62,7734596737208 ,44,0469285540776 ,30,9102888585043
3.0296267 ,Left ,62,6837230433753 ,44,1380029772942 ,30,990929947521
3.0445434 ,Left ,62,6478318504658 ,44,2906013792732 ,31,0686974433709
3.0670268 ,Left ,62,7465671890601 ,44,3934509340821 ,31,0512084094835
3.0894276 ,Left ,62,8389466825794 ,44,3651327618649 ,31,0497279001055
3.104612 ,Left ,62,8256598698541 ,44,4090903774659 ,31,0759114157694
3.1269033 ,Left ,62,7356470857796 ,44,4783825266146 ,31,0727003816998
3.1492086 ,Left ,62,8030723359802 ,44,4469208239443 ,31,0489138810319
3.1643555 ,Left ,62,757873647408 ,44,4176369976593 ,31,0759000386691
3.1873023 ,Left ,62,690853795406 ,44,4634829574211 ,31,1314752332156
3.2099335 ,Left ,62,6624488828684 ,44,5202403130818 ,31,126327725055
3.2246971 ,Left ,62,7566800129919 ,44,5173297392655 ,31,1181013801187
3.2472615 ,Left ,62,8707263277371 ,44,5064161576219 ,31,0893867165757
3.2768601 ,Left ,62,8522129305519 ,44,5069798066806 ,31,1027236550428
3.291745 ,Left ,62,7641408595066 ,44,536131852128 ,31,1319776634991
3.314423 ,Left ,62,7523590033946 ,44,5601463829332 ,31,1371041280315
3.3293546 ,Left ,62,7988498617513 ,44,5598901309243 ,31,1386873166477
3.3445764 ,Left ,62,8323405067053 ,44,5250389921697 ,31,1406166569599
3.36671 ,Left ,62,8249281839907 ,44,4946439158728 ,31,145317748922
3.3970326 ,Left ,62,8069914699716 ,44,494518878287 ,31,135913502477
3.4119404 ,Left ,62,8196298119377 ,44,4988450738561 ,31,1227153992938
3.4346052 ,Left ,62,8482698016485 ,44,4859757790951 ,31,1009547942293
3.4643844 ,Left ,62,8617541040151 ,44,4497564359885 ,31,078671202599
3.4870114 ,Left ,62,8482011956319 ,44,4194504128027 ,31,0689614963235
3.5091948 ,Left ,62,8786735776758 ,44,4020824852393 ,31,0562130073169
3.5243675 ,Left ,62,8547398492784 ,44,4066617092056 ,31,0642228818828
3.5469816 ,Left ,62,8729287301603 ,44,3955202982647 ,31,0577569354195
3.5693422 ,Left ,62,8908270782733 ,44,3753309254468 ,31,0442407398082
3.5920132 ,Left ,62,8712736171054 ,44,3976701593416 ,31,0300798270336
3.6145387 ,Left ,62,8385104993669 ,44,4306701392925 ,30,9679292886086
3.6516545 ,Left ,62,9170564660422 ,44,425677470391 ,30,7720331527025
3.6668477 ,Left ,62,9220212374464 ,44,4410008140317 ,30,7084284972428
3.6898448 ,Left ,62,9303070907531 ,44,5045564302479 ,30,6636152563783
3.7122203 ,Left ,62,9507093469367 ,44,5419205072518 ,30,6190973211038
3.7273126 ,Left ,62,9644281784359 ,44,5352900161862 ,30,5994766323026
3.7492064 ,Left ,62,9395469422746 ,44,526241257501 ,30,6033995014077
3.7718162 ,Left ,62,9290539974537 ,44,5397489840356 ,30,6153084963295
3.7870666 ,Left ,62,9472877802285 ,44,548316858071 ,30,5992244609242
3.80965 ,Left ,62,9785506402066 ,44,5378770526352 ,30,56954728313
3.8318404 ,Left ,63,0018907605128 ,44,5241226287502 ,30,5567591219042
3.8469905 ,Left ,62,9763525861662 ,44,5094403475411 ,30,5604755704185
3.8695258 ,Left ,62,9573982703052 ,44,499469692902 ,30,5688445564189
3.899559 ,Left ,62,9703481404773 ,44,4826018762497 ,30,5667858787635
3.9145729 ,Left ,62,969079303551 ,44,4416641150979 ,30,5979805870049
3.9366896 ,Left ,62,9850442072071 ,44,376623884036 ,30,6237187901058
3.966734 ,Left ,63,0389157832068 ,44,2762398492818 ,30,6676158257778
3.9892912 ,Left ,63,052643116096 ,44,2836580811884 ,30,707430164855
4.0120218 ,Left ,63,1381554304094 ,44,3175462900765 ,30,7211782559005
4.0268716 ,Left ,63,2369166864613 ,44,3097510559942 ,30,7461288426971
4.0494401 ,Left ,63,2790099734177 ,44,3045054595424 ,30,8085042248179
4.0717823 ,Left ,63,2862130563224 ,44,3165882113993 ,30,9085694802719
4.0869172 ,Left ,63,3067656524296 ,44,3678945867 ,30,9785616702827
4.1093261 ,Left ,63,2837747327821 ,44,3858424538994 ,31,0111500788434
4.13188 ,Left ,63,2518037634547 ,44,3715830223936 ,31,0329750821936
4.1466508 ,Left ,63,2098572644728 ,44,3759114345209 ,31,0641739961744
4.169328 ,Left ,63,206616143846 ,44,3886067443233 ,31,0624396035417
4.1918815 ,Left ,63,2336772263816 ,44,394707598226 ,31,0362464331824
4.206672 ,Left ,63,2300587182891 ,44,3749387329881 ,31,0322021275374
4.2366471 ,Left ,63,2128710379859 ,44,3725405053339 ,31,0462378472343
4.259524 ,Left ,63,216634758186 ,44,4468954612132 ,31,0790815629302
4.2746773 ,Left ,63,1972304864603 ,44,564780439746 ,31,1380770202166
4.2897491 ,Left ,63,2616013518895 ,44,6666854161557 ,31,1360894793235
4.3123167 ,Left ,63,3285751722718 ,44,7307363288732 ,31,1055826737757
4.3346369 ,Left ,63,3814211361537 ,44,7304727599559 ,31,0545219220886
4.3495765 ,Left ,63,3547588913492 ,44,6775599698261 ,31,0038039219176
4.3719508 ,Left ,63,2571295181506 ,44,6451918444706 ,30,9583514532246
4.3943789 ,Left ,63,1914561384791 ,44,6911806561785 ,30,9425770307127
4.4094706 ,Left ,63,2367709727251 ,44,771009928345 ,30,8849795067643
4.4318383 ,Left ,63,3440510046744 ,44,7889669654939 ,30,7769403411308
4.4617918 ,Left ,63,3655764766346 ,44,7423131989868 ,30,7049526763833
4.477096 ,Left ,63,2950490757296 ,44,7110561884752 ,30,6801429555314
4.499635 ,Left ,63,2183097067389 ,44,6655883508103 ,30,6634348887246
4.5144757 ,Left ,63,2115316193634 ,44,614272752952 ,30,6739526924874
4.5295722 ,Left ,63,138720407574 ,44,5772656296422 ,30,7072642747765
4.5519652 ,Left ,63,0177628026918 ,44,5673260030289 ,30,7490381171168
4.5895525 ,Left ,62,9108011236125 ,44,6136970030351 ,30,7911846068424
4.6119765 ,Left ,62,8771910758568 ,44,6500371222347 ,30,8126893685453
4.6419446 ,Left ,63,0731665124026 ,44,4965283860505 ,30,7412595169701
4.656951 ,Left ,63,1406359745628 ,44,3744330358057 ,30,7229481043328
4.6721172 ,Left ,63,1604394012797 ,44,4003053559425 ,30,7252167497568
4.6941295 ,Left ,63,1327180244168 ,44,43395817176 ,30,7706011244162
4.7093678 ,Left ,63,125733881263 ,44,421319557898 ,30,8117439893742
4.7318255 ,Left ,63,1300838660131 ,44,4202283071086 ,30,8638326270482
4.7542197 ,Left ,63,1037359297864 ,44,4249163379513 ,30,8980822042143
4.7694041 ,Left ,63,1441018349071 ,44,4870324896957 ,30,8955029357673
4.7996479 ,Left ,63,2049464031876 ,44,5127973345357 ,30,8791320832226
4.821681 ,Left ,63,2534299636951 ,44,5046719881561 ,30,8727203992418
4.8368462 ,Left ,63,2701682152646 ,44,4808548744715 ,30,8847026769958
4.8518708 ,Left ,63,190290400592 ,44,4269310564548 ,30,9170157979865
4.8740987 ,Left ,63,1123691081481 ,44,3970487596419 ,30,9562269250612
4.8893397 ,Left ,63,1154434417287 ,44,3635739662117 ,30,9693976109898
4.911991 ,Left ,63,1607931618697 ,44,3327582560111 ,30,9469699697824
4.9419363 ,Left ,63,185231658175 ,44,3037619318955 ,30,9228785499831
4.9567207 ,Left ,63,1472866997267 ,44,3121554568274 ,30,9051960987906
4.9790981 ,Left ,63,0890773187079 ,44,3433296485758 ,30,8912070963788
4.9943753 ,Left ,63,1276752537851 ,44,3300437669311 ,30,8543175535216
5.0094035 ,Left ,63,1868052710199 ,44,3015792556803 ,30,8416371880921
5.0318316 ,Left ,63,168946997598 ,44,330313262479 ,30,8504899186946
5.0545506 ,Left ,63,1433232628997 ,44,3809593730422 ,30,8269021785574
5.0695644 ,Left ,63,0974868868163 ,44,4162994261268 ,30,8218924910494
5.0918111 ,Left ,63,1532943615946 ,44,402515861827 ,30,8140241997391
5.1143859 ,Left ,63,2575785021382 ,44,3586252692398 ,30,8126433086849
5.1296 ,Left ,63,2733117647992 ,44,2979069413799 ,30,8099924186468
5.1521068 ,Left ,63,1934505187442 ,44,2398028002806 ,30,8379249036646
5.174485 ,Left ,63,1493451030186 ,44,2365736210651 ,30,8638029186877
5.1895898 ,Left ,63,1886592639576 ,44,2502195148083 ,30,8804349785838
5.2119663 ,Left ,63,232023458046 ,44,264248627871 ,30,8879170679136
5.2342529 ,Left ,63,2358329361178 ,44,267347455699 ,30,8853884083182
5.2567714 ,Left ,63,1822220273319 ,44,2501160766311 ,30,8834351704659
5.2791971 ,Left ,63,1506985635421 ,44,2551711937233 ,30,8855058739121
5.3015912 ,Left ,63,1393683493183 ,44,286605784437 ,30,8926702136921
5.3165947 ,Left ,63,1529399748657 ,44,31456946792 ,30,8789111372
5.3317553 ,Left ,63,1433850771138 ,44,3091905370505 ,30,8755202478137
5.3543661 ,Left ,63,1308463611824 ,44,2853888826708 ,30,8809747755898
5.3693638 ,Left ,63,089627997083 ,44,2811707456706 ,30,9124854191219
5.3916985 ,Left ,62,9910959596207 ,44,3104810613665 ,30,9527372777341
5.414302 ,Left ,62,9387846335984 ,44,3391803641825 ,30,9619163404009
5.4293555 ,Left ,62,9408709532019 ,44,3657807895817 ,30,9699272284154
5.4517991 ,Left ,62,952300088862 ,44,3707437063263 ,30,9698071053438
5.4743674 ,Left ,62,9250521415339 ,44,3702986346547 ,30,9595811279328
5.4967415 ,Left ,62,8932323436795 ,44,3886608229333 ,30,9564034161374
5.511673 ,Left ,62,919230380881 ,44,3541665165367 ,30,9094714257647
5.5416991 ,Left ,62,9371748181676 ,44,3359823974282 ,30,8941253583222
5.5716048 ,Left ,62,871228605436 ,44,3127893504917 ,30,9018261015355
5.5865988 ,Left ,62,8564135242458 ,44,3331518457943 ,30,9462631219701
5.6016726 ,Left ,62,8172652655385 ,44,4147149447258 ,30,9913371373229
5.6317238 ,Left ,62,9027056619834 ,44,4516750038313 ,30,9948067560493
5.6543644 ,Left ,62,9754490366587 ,44,4211071935225 ,30,9859230788249
5.6767653 ,Left ,62,9896286609194 ,44,4696819299938 ,30,9926110324699
5.6919474 ,Left ,62,9835514995716 ,44,4919221255628 ,30,9700038514877
5.7146551 ,Left ,63,010783282879 ,44,4322848392051 ,30,9439139933201
5.7368077 ,Left ,63,0268298545599 ,44,3758099439485 ,30,9712453182
5.751675 ,Left ,62,9283388786016 ,44,3827528402857 ,31,0535210675875
5.7740987 ,Left ,62,8633226952188 ,44,4882932729222 ,31,124971327825
5.7966306 ,Left ,62,9645395269586 ,44,5872592814009 ,31,1147609482113
5.8191567 ,Left ,63,1107313167278 ,44,5760795834619 ,31,081247851389
5.8417117 ,Left ,63,1288464027222 ,44,5584143878133 ,31,0637770203472
5.8719981 ,Left ,62,9607803655314 ,44,5298261957072 ,31,0816239993989
5.8947271 ,Left ,63,0538462358795 ,44,5528768646727 ,31,0522764336347
5.9172555 ,Left ,63,1626311694457 ,44,5500214232285 ,31,0122135827299
5.9324082 ,Left ,63,1478810859817 ,44,5189780464629 ,31,0122459149987
5.9544949 ,Left ,63,1054870772941 ,44,4874487626761 ,31,024557122203
5.9767785 ,Left ,63,0755251958561 ,44,463341812105 ,31,0424000906322
5.9917774 ,Left ,63,0985347179721 ,44,4464309799417 ,31,0454583941132
6.0144875 ,Left ,63,1176375468018 ,44,4238765608144 ,31,049720750471
6.0366028 ,Left ,63,1268391968082 ,44,3901805558517 ,31,0398800928308
6.0516625 ,Left ,63,1130173734959 ,44,375450996547 ,31,0384789862375
6.0742398 ,Left ,63,0918328794388 ,44,394943968798 ,31,0213229819212
6.0971324 ,Left ,63,1177124339397 ,44,4056899512508 ,30,9583144253629
6.1121524 ,Left ,63,1351509275861 ,44,3911925864906 ,30,8932911096691
6.1348631 ,Left ,63,1405277681443 ,44,3836551061129 ,30,8446203794556
6.1572773 ,Left ,63,1249403454057 ,44,4261854737626 ,30,8271952000083
6.1723633 ,Left ,63,1441343578964 ,44,4711372986011 ,30,7900609021783
6.1947968 ,Left ,63,1666179540673 ,44,4521668078302 ,30,7325285267794
6.2173657 ,Left ,63,1553674574523 ,44,4179131436688 ,30,7022203098381
6.2322076 ,Left ,63,1338408653332 ,44,3975466128048 ,30,7060865038368
6.2548967 ,Left ,63,1779418395441 ,44,3952294815047 ,30,7169552757107
6.2845279 ,Left ,63,2539146086935 ,44,3688707338179 ,30,6854508334806
6.2993822 ,Left ,63,2604869600775 ,44,3083424026741 ,30,6699084938324
6.3219384 ,Left ,63,2359579544666 ,44,2575054363899 ,30,6860303648483
6.3520313 ,Left ,63,2138496483266 ,44,2481659152148 ,30,785840263567
6.3745589 ,Left ,63,2523516024332 ,44,2506948708127 ,30,8116180524421
6.3970103 ,Left ,63,3164708878114 ,44,2117812946692 ,30,7932930014053
6.4119039 ,Left ,63,3143114178448 ,44,1679608449604 ,30,7705712241564
6.4344987 ,Left ,63,2793469347541 ,44,1509829672602 ,30,7551989155236
6.4570074 ,Left ,63,3760444195268 ,44,1867918268866 ,30,7420387845475
6.479508 ,Left ,63,5008300523996 ,44,2279455355739 ,30,7358968231273
6.4944332 ,Left ,63,5258264732547 ,44,2498677479113 ,30,7760322867009
6.5169442 ,Left ,63,4970250659804 ,44,2561013827947 ,30,8651268592944
6.5396015 ,Left ,63,4880001572402 ,44,2837069727087 ,30,9539154903843
6.5620967 ,Left ,63,5234921136963 ,44,3321190918901 ,30,9888551368857
6.5843584 ,Left ,63,5367945034377 ,44,3818931428652 ,30,9899257464111
6.6070102 ,Left ,63,5396303127562 ,44,4062186488803 ,30,9842375268271
6.6215953 ,Left ,63,5329823631169 ,44,4283951690253 ,30,9846892912059
6.636649 ,Left ,63,5208534381954 ,44,4478057343041 ,30,9859294648836
6.6591022 ,Left ,63,5109972107712 ,44,4361894344563 ,30,9767540654419
6.6741284 ,Left ,63,5600311307583 ,44,4456370222673 ,30,9691705882789
6.696852 ,Left ,63,5504511892292 ,44,5085045088384 ,30,9779074713423
6.7193115 ,Left ,63,5058098221574 ,44,6624782025202 ,31,0019312198142
6.7417219 ,Left ,63,5303079757026 ,44,7880472484237 ,30,9789335527027
6.7641334 ,Left ,63,6122758353095 ,44,7904783730909 ,30,9258118739139
6.7942563 ,Left ,63,5686309975058 ,44,6157877698972 ,30,8509114800271
6.8169823 ,Left ,63,4334401357879 ,44,5761477753613 ,30,8167029211198
6.8470702 ,Left ,63,4947219650049 ,44,6046907162048 ,30,7466350176512
6.8619605 ,Left ,63,6118296486192 ,44,6019760061317 ,30,6537912285028
6.8918351 ,Left ,63,6632076997018 ,44,5668041416256 ,30,5881380666697
6.906852 ,Left ,63,6168841422535 ,44,5288987215862 ,30,5539185180488
6.9146037 ,Left ,63,5581977493673 ,44,4993538693348 ,30,5276189828233
6.9296624 ,Left ,63,5430318313574 ,44,5094519398717 ,30,5124613153964
6.9521018 ,Left ,63,5614085750497 ,44,5182589667507 ,30,4962835337815
6.9669676 ,Left ,63,5874977481863 ,44,4999551655316 ,30,5016721757195
6.9895634 ,Left ,63,5076263860781 ,44,4852315784171 ,30,5459244154103
7.0119338 ,Left ,63,3666802494889 ,44,4822405289383 ,30,5847228252586
7.0269489 ,Left ,63,2831113243111 ,44,5253462058605 ,30,6487840012442
7.0495946 ,Left ,63,2298777016315 ,44,6351256790679 ,30,7041776319547
7.0718324 ,Left ,63,2375809233355 ,44,7324054802567 ,30,7896664938768
7.0867776 ,Left ,63,4123528152441 ,44,6531435971155 ,30,7781099011856
7.1094131 ,Left ,63,500139522909 ,44,4983633700885 ,30,7565610406411
7.1321087 ,Left ,63,3892125737767 ,44,4415270639905 ,30,7469113471106
7.1470907 ,Left ,63,3422354612858 ,44,4986185905566 ,30,7419866726179
7.1695333 ,Left ,63,4258421931909 ,44,5040217347106 ,30,7140262732989
7.1996346 ,Left ,63,5043622723741 ,44,4692101229454 ,30,6963603687072
7.2218671 ,Left ,63,4793285704452 ,44,4172263740141 ,30,7195939747522
7.2443515 ,Left ,63,3510800894705 ,44,3827726802271 ,30,7501300193372
7.259437 ,Left ,63,1842936372312 ,44,4260575897738 ,30,8002456099494
7.2668784 ,Left ,63,3199110048071 ,44,4716785724478 ,30,8123016329143
7.2894452 ,Left ,63,5785031493326 ,44,5062350776954 ,30,769401379965
7.3119232 ,Left ,63,674915296573 ,44,4928338614448 ,30,722392213638
7.326951 ,Left ,63,5834703813066 ,44,4218281171258 ,30,7085932901671
7.3492378 ,Left ,63,3913926947743 ,44,3622002070447 ,30,7379805495164
7.3716171 ,Left ,63,3657983826714 ,44,3622667088205 ,30,7397743975973
7.386896 ,Left ,63,4202899541368 ,44,3686036291962 ,30,7405838292552
7.4093268 ,Left ,63,4271704572707 ,44,3528826205335 ,30,7460544646838
7.4316141 ,Left ,63,3810681159951 ,44,328610477567 ,30,7594609412899
7.4466572 ,Left ,63,3424968171161 ,44,2834660610968 ,30,7801259169027
7.4696212 ,Left ,63,322866160184 ,44,2794976621839 ,30,7969146455741
7.5070772 ,Left ,63,3302785679813 ,44,2799305066693 ,30,8981599581676
7.5296853 ,Left ,63,3442808452804 ,44,2746855319725 ,30,94090482063
7.5667505 ,Left ,63,2967622748483 ,44,2954848939574 ,30,951766069999
7.5893853 ,Left ,63,3170115883895 ,44,297244716069 ,30,9261528063626
7.6267733 ,Left ,63,3243514288038 ,44,217367634495 ,30,9068851675263
7.6492755 ,Left ,63,3050369243876 ,44,190320885392 ,30,9110127711692
7.6867869 ,Left ,63,29227609221 ,44,1446249506373 ,30,8973012414545
7.709136 ,Left ,63,3091942298368 ,44,135165407774 ,30,8917545623877
7.754211 ,Left ,63,304966810002 ,44,1697128122581 ,30,8899667502242
7.776679 ,Left ,63,3105750579325 ,44,1489445539552 ,30,8936816023167
7.8066879 ,Left ,63,2954723003903 ,44,1776942883411 ,30,8864832756463
7.8295196 ,Left ,63,2845729356313 ,44,2227807198661 ,30,8712466052254
7.86669 ,Left ,63,3989371826833 ,44,2756834485038 ,30,8095937071093
7.8892006 ,Left ,63,3907512549954 ,44,2733196771279 ,30,8095971291974
7.9268708 ,Left ,63,3142314630701 ,44,2798299280408 ,30,8087929352089
7.949289 ,Left ,63,3361252213431 ,44,275294140969 ,30,8061766375662
7.9869493 ,Left ,63,2609967938364 ,44,2759448006909 ,30,8608978626681
8.0091189 ,Left ,63,1560545764376 ,44,3054682408135 ,30,9024705786454
8.0541751 ,Left ,63,211857811741 ,44,3332563470058 ,30,9587554581395
8.0768243 ,Left ,63,2157028289533 ,44,3546395744255 ,30,9436486360139
8.1295654 ,Left ,63,2598859338205 ,44,2433516061879 ,30,8389988268181
8.1669572 ,Left ,63,2077555407064 ,44,1245234167773 ,30,8387135740351
8.1891357 ,Left ,63,1331711131366 ,44,1443134673077 ,30,8937417463586
8.2342428 ,Left ,63,1784205032824 ,44,2961647475325 ,30,8898085598789
8.2870961 ,Left ,63,1806475837796 ,44,2755755119867 ,30,8630113823566
8.3096878 ,Left ,63,1539899547605 ,44,2842598482821 ,30,8698579724134
8.346903 ,Left ,63,0949562528421 ,44,5597550820008 ,30,9759374180649
8.3694751 ,Left ,63,2119484725431 ,44,720557365305 ,30,9439510050044
8.4067567 ,Left ,63,3503083973779 ,44,7568686088782 ,30,9758932744332
8.4292787 ,Left ,63,2084554521631 ,44,8011111996959 ,31,045016122691
8.4672358 ,Left ,63,1991670837654 ,44,7907675248938 ,31,0831945640124
8.4897788 ,Left ,63,2359100602295 ,44,7154921289253 ,31,0990605434438
8.5268164 ,Left ,62,9722720794384 ,44,7865110902978 ,31,2247034957691
8.5492959 ,Left ,63,0317655727654 ,44,9224308052337 ,31,2298807005151
8.5868552 ,Left ,63,2686049128563 ,44,9434426266792 ,31,1849756816864
8.6093701 ,Left ,63,2296025538777 ,44,9453880157768 ,31,163443704055
8.6468434 ,Left ,63,1728093516314 ,45,00687062289 ,30,9948489606966
8.6695293 ,Left ,63,2728365875369 ,45,0000773045933 ,30,8507112903066
8.706756 ,Left ,63,3384537942285 ,44,9700052675893 ,30,6510126567345
8.7293284 ,Left ,63,3232738498277 ,44,9433808372939 ,30,6060437650161
8.7672535 ,Left ,63,3182845628826 ,44,9294457509212 ,30,5559457876243
8.7825419 ,Left ,63,3734464981542 ,44,9046621629329 ,30,540499168968
8.8049716 ,Left ,63,4283675735901 ,44,8314067753455 ,30,5389189908199
8.8199211 ,Left ,63,4302583456409 ,44,764470696424 ,30,5823261450854
8.8497122 ,Left ,63,304612505645 ,44,805321743032 ,30,6886111806904
8.8718979 ,Left ,63,1575569017122 ,44,9722210557432 ,30,7797983830634
8.9019003 ,Left ,63,3512814010868 ,45,1618739711545 ,30,7865993119678
8.9321058 ,Left ,63,4545070880592 ,45,0091378450232 ,30,7248442669959
8.9617073 ,Left ,63,4608528318973 ,44,8122051293528 ,30,6691018591027
8.9768325 ,Left ,63,398505494738 ,44,7122392228977 ,30,6863756452538
9.0065899 ,Left ,63,4881910425866 ,44,6979216004799 ,30,6878001043486
9.0218278 ,Left ,63,4367635846183 ,44,6686800814455 ,30,7328483486927
9.0444614 ,Left ,63,3692864025118 ,44,7568891611362 ,30,7508737193194
9.0671306 ,Left ,63,4171236266222 ,44,922433552622 ,30,7152684100392
9.0823145 ,Left ,63,5801212410421 ,44,9827751378878 ,30,6666579781503
9.1048801 ,Left ,63,6712407932328 ,44,9584794452618 ,30,6373496789711
9.1267735 ,Left ,63,6191616990331 ,44,8928824328727 ,30,6480886260569
9.1416867 ,Left ,63,4321026303655 ,44,8265666471415 ,30,7097299705312
9.1642162 ,Left ,63,2670158681867 ,44,7742846501131 ,30,7562844738283
9.1868094 ,Left ,63,231995177974 ,44,7459015562031 ,30,7419230913061
9.2023087 ,Left ,63,3234133661375 ,44,7277636308896 ,30,6838092724228
9.2249616 ,Left ,63,3806446945279 ,44,7141087342609 ,30,6404829957294
9.2472561 ,Left ,63,4018819964471 ,44,6581671173494 ,30,6182421451662
9.2623666 ,Left ,63,4094101823907 ,44,6004927171129 ,30,6236583128734
9.2848851 ,Left ,63,3687117526532 ,44,5822392091038 ,30,6376382863155
9.3072726 ,Left ,63,3534218745356 ,44,5893407086211 ,30,638329140782
9.3220501 ,Left ,63,397738227291 ,44,5768611419715 ,30,6589564626715
9.3444244 ,Left ,63,4357808860454 ,44,5699031315423 ,30,6800709247911
9.3668763 ,Left ,63,4347652755393 ,44,5600981784679 ,30,6977563903546
9.3816915 ,Left ,63,4201544625518 ,44,5489461951352 ,30,7207418068468
9.4042676 ,Left ,63,3964695769797 ,44,5368016575674 ,30,7425757243628
9.4267059 ,Left ,63,4062045104655 ,44,529439162756 ,30,74916195017
9.4419908 ,Left ,63,4165294049757 ,44,5203244629133 ,30,7793407317496
9.464778 ,Left ,63,4693495297705 ,44,5021375839836 ,30,7851886644635
9.4870726 ,Left ,63,4688536430195 ,44,480743793277 ,30,7986885934212
9.5023388 ,Left ,63,4266466731611 ,44,4852149368218 ,30,8181053538935
9.5249141 ,Left ,63,3948373193888 ,44,514598887035 ,30,835947939275
9.5471157 ,Left ,63,4481787444377 ,44,5385891412857 ,30,8170666111029
9.5620952 ,Left ,63,4955211497041 ,44,5223874695904 ,30,7990950962671
9.5847131 ,Left ,63,4794343006204 ,44,5061939975254 ,30,800188607791
9.6069094 ,Left ,63,4136818620504 ,44,5095754232055 ,30,7972512935976
9.6220104 ,Left ,63,3960637270039 ,44,5100086201787 ,30,7857369242001
9.6520789 ,Left ,63,4424185010723 ,44,4997388964518 ,30,7663467076178
9.6746038 ,Left ,63,4609587897544 ,44,488771304694 ,30,7594331886567
9.6893576 ,Left ,63,4180799289044 ,44,4876067235024 ,30,7785552395543
9.7045818 ,Left ,63,3743929314589 ,44,4897494131586 ,30,7896081311737
9.7270147 ,Left ,63,3351335700777 ,44,4879555464033 ,30,8068133408257
9.742104 ,Left ,63,2588278538846 ,44,4962267703501 ,30,8410431040455
9.7645979 ,Left ,63,1512566457202 ,44,5487063707951 ,30,857911313314
9.7865879 ,Left ,63,0954945946033 ,44,6120893899988 ,30,8914823504812
9.8019021 ,Left ,63,1254571287068 ,44,7104847936821 ,30,8978426446314
9.8241518 ,Left ,63,1769988863589 ,44,7576601148943 ,30,8897710306107
9.8467235 ,Left ,63,2126689900363 ,44,7469479514813 ,30,8607240842726
9.8619885 ,Left ,63,1913371090637 ,44,7031848684615 ,30,8296255757104
9.8848791 ,Left ,63,1178709317601 ,44,6455192171884 ,30,7924615922316
9.9073961 ,Left ,63,1422819933684 ,44,5745948112688 ,30,7315304787352
9.9295248 ,Left ,63,2157482778511 ,44,497083464473 ,30,6994227509518
9.9446695 ,Left ,63,1179888603495 ,44,5053092524648 ,30,7430988388649
9.9669436 ,Left ,63,1729576232971 ,44,4913020638142 ,30,780569839848
9.989408 ,Left ,63,2305472127949 ,44,4730413120869 ,30,7443716144834
10.004562 ,Left ,63,2454342695923 ,44,4362772790985 ,30,7155678489039
10.0268784 ,Left ,63,310846129852 ,44,4514963481633 ,30,7061754306388
10.0417963 ,Left ,63,3635554702306 ,44,4674813816556 ,30,6804288170458
10.0643749 ,Left ,63,4359680342357 ,44,4069967800457 ,30,6517853850774
10.0944175 ,Left ,63,3041829731993 ,44,4004976112716 ,30,7042608295226
10.1094508 ,Left ,63,2343202599199 ,44,4861280720441 ,30,7695811491442
10.1316527 ,Left ,63,2850418712325 ,44,614151066681 ,30,7478158426369
10.1467162 ,Left ,63,3963561880057 ,44,6534608646546 ,30,7255775277629
10.1691241 ,Left ,63,4647817518184 ,44,6597123181759 ,30,7077280507036
10.1845255 ,Left ,63,4071422030292 ,44,6805603877204 ,30,7077625659713
10.2070502 ,Left ,63,3164070192687 ,44,7038217197068 ,30,6992002766564
10.2294939 ,Left ,63,3549473129467 ,44,7069187789212 ,30,6706519192431
10.2447902 ,Left ,63,4288596055882 ,44,6671526372026 ,30,6432261844346
10.2667908 ,Left ,63,409639742402 ,44,6559794585109 ,30,6536087067809
10.2966308 ,Left ,63,3901756772215 ,44,6931366081426 ,30,6647423512982
10.3116924 ,Left ,63,4260165104671 ,44,7062000478905 ,30,6854714397164
10.349263 ,Left ,63,4663036385537 ,44,6971708569267 ,30,7372617679316
10.3648957 ,Left ,63,4235707099966 ,44,6916989551658 ,30,7687168670542
10.3873883 ,Left ,63,4402228778156 ,44,6832068990476 ,30,7840305778238
10.4099203 ,Left ,63,4663738272169 ,44,6570938350677 ,30,7955229521582
10.4246748 ,Left ,63,4453855030323 ,44,618549917979 ,30,8215577330509
10.4469332 ,Left ,63,4488205269285 ,44,5909394480148 ,30,857536908454
10.4692907 ,Left ,63,4025277195929 ,44,5901240489676 ,30,8954451738275
10.4841338 ,Left ,63,3475586318262 ,44,6600006561006 ,30,9156651347381
10.5066575 ,Left ,63,3332757202869 ,44,7803457875885 ,30,9314797020997
10.5292553 ,Left ,63,3828461252626 ,44,9107843414028 ,30,9113755050873
10.5522885 ,Left ,63,4938280456023 ,44,9394807063736 ,30,8448318609992
10.5750206 ,Left ,63,5302240998065 ,44,8946426857702 ,30,8143082944243
10.6045222 ,Left ,63,2864711582967 ,44,9014859026867 ,30,7900980236956
10.6269666 ,Left ,63,3649118242978 ,44,9328763681157 ,30,7194237033215
10.6495775 ,Left ,63,4727805267693 ,44,9402731663291 ,30,6347565679076
10.6645002 ,Left ,63,4585470658036 ,44,9369350843252 ,30,5769148419185
10.6869173 ,Left ,63,3612505662393 ,44,9335301005311 ,30,5538423078393
10.7096438 ,Left ,63,2978769236731 ,44,9099932702712 ,30,54975682504
10.7243684 ,Left ,63,3040797817032 ,44,8661981727814 ,30,5687258360561
10.7469753 ,Left ,63,2158257410271 ,44,8678457630685 ,30,6342902374071
10.7697549 ,Left ,63,131606755544 ,44,9777918311597 ,30,739302324955
10.7852806 ,Left ,63,1383734122492 ,45,1388250175876 ,30,7928831926037
10.8075469 ,Left ,63,2616910658473 ,45,1747916243397 ,30,7651901305232
10.8296365 ,Left ,63,3347685705236 ,45,0838145115312 ,30,7151437588055
10.8448346 ,Left ,63,2595793564687 ,45,0224763964528 ,30,7312604328374
10.8671882 ,Left ,63,1556207019773 ,45,0592646872655 ,30,7140664005468
10.8898315 ,Left ,63,2116541959997 ,45,0583753946042 ,30,6513098503383
10.9046408 ,Left ,63,3270822967664 ,44,9892153131194 ,30,5836746403499
10.92689 ,Left ,63,3174798687273 ,44,9154570540923 ,30,5812441403068
10.9494936 ,Left ,63,2945416491688 ,44,8377325295747 ,30,6253635369686
10.9717813 ,Left ,63,2494526512882 ,44,8310272857634 ,30,6696223722972
10.9870844 ,Left ,63,2468984681303 ,44,9373448198035 ,30,6694571307065
11.0093543 ,Left ,63,3559476004128 ,45,089936854014 ,30,6566650935341
11.0318168 ,Left ,63,5098056687397 ,45,1264226287723 ,30,6450217615775
11.0469602 ,Left ,63,5657422492369 ,45,1344037414799 ,30,6417243666405
11.0691519 ,Left ,63,4989517771111 ,45,1163086241842 ,30,6468968932495
11.0916442 ,Left ,63,4098969159485 ,45,0679285105013 ,30,6559865452685
11.1069601 ,Left ,63,402203827534 ,45,0083617131417 ,30,6477014260896
11.1292542 ,Left ,63,4393808445342 ,44,9303533724138 ,30,6470591695959
11.1443987 ,Left ,63,4220709588337 ,44,8678401370034 ,30,6763473663505
11.1669168 ,Left ,63,324896503169 ,44,8123731080475 ,30,7155915335325
11.1892534 ,Left ,63,2726077649525 ,44,7777021925991 ,30,7157896171134
11.2119759 ,Left ,63,3192165118364 ,44,7280149263677 ,30,6931886634728
11.2266726 ,Left ,63,3770581976451 ,44,6710756742078 ,30,6962855832427
11.2492633 ,Left ,63,3660554190498 ,44,6644684053835 ,30,7252830067957
11.271599 ,Left ,63,3496543458368 ,44,6653922148005 ,30,7706806502877
11.2873764 ,Left ,63,3960508367017 ,44,6249779785046 ,30,7827416851024
11.309879 ,Left ,63,4751010394235 ,44,5734239190596 ,30,7686119389794
11.3322804 ,Left ,63,480493114989 ,44,5335670047891 ,30,7495651439691
11.346962 ,Left ,63,401307615295 ,44,5327149193927 ,30,7382384431235
11.3698107 ,Left ,63,4221522549774 ,44,5618633342197 ,30,7169775137692
11.3921206 ,Left ,63,5007482317505 ,44,5752851779445 ,30,7032599536643
11.406963 ,Left ,63,5238656746925 ,44,584720005981 ,30,7149414920802
11.429643 ,Left ,63,4854191829431 ,44,5827473049658 ,30,7365427878314
11.4595477 ,Left ,63,4443394964763 ,44,5799457244619 ,30,7539912945326
11.4743447 ,Left ,63,4483311982942 ,44,5881381263589 ,30,7540716019484
11.4969011 ,Left ,63,4779610059492 ,44,5898021867857 ,30,7413488833491
11.5269379 ,Left ,63,4875331101893 ,44,5930711379843 ,30,7262268481535
11.5495714 ,Left ,63,4418492530112 ,44,5960240706034 ,30,7287663059769
11.5717615 ,Left ,63,4689038144223 ,44,5993853740934 ,30,7132318499635
11.5868857 ,Left ,63,5110390330802 ,44,5950515609785 ,30,693939385875
11.6093379 ,Left ,63,5145842761538 ,44,5943863990883 ,30,6921221206171
11.6320343 ,Left ,63,4871029637037 ,44,6017001251083 ,30,6912596245652
11.6469584 ,Left ,63,4886801883843 ,44,6059141055805 ,30,692628683409
11.6694678 ,Left ,63,5117196744121 ,44,6024094402299 ,30,6802644009911
11.699458 ,Left ,63,5240977484894 ,44,5882324624958 ,30,6817569168572
11.7145728 ,Left ,63,5026281387394 ,44,5906599777239 ,30,6806124131595
11.7368067 ,Left ,63,4509516581926 ,44,5796777599196 ,30,7132581243693
11.7518876 ,Left ,63,3966091804606 ,44,5969192186759 ,30,7276221567194
11.7670221 ,Left ,63,4070152438052 ,44,5865298534598 ,30,754570831808
11.7891903 ,Left ,63,4129258145385 ,44,5947174092204 ,30,7835731007974
11.811599 ,Left ,63,4096481894112 ,44,6146917384036 ,30,7585222254096
11.826814 ,Left ,63,4065278680766 ,44,5929187070765 ,30,750783733314
11.8496189 ,Left ,63,4394178897704 ,44,5759912609586 ,30,7166742621569
11.8719492 ,Left ,63,4109345111551 ,44,5654193610373 ,30,691744096466
11.8869307 ,Left ,63,3617487045866 ,44,5820522726616 ,30,6755165276996
11.9093611 ,Left ,63,3637830697038 ,44,5897886028681 ,30,663847719625
11.9319077 ,Left ,63,3929214067792 ,44,5847925874496 ,30,6678744092171
11.9468889 ,Left ,63,3887032581135 ,44,541237180119 ,30,6813107520896
11.9697034 ,Left ,63,3537635343778 ,44,4746056488078 ,30,7113963813484
11.992136 ,Left ,63,3491333421688 ,44,4438161144888 ,30,726899878682
12.007096 ,Left ,63,2651262805467 ,44,4986000634907 ,30,7746863345827
12.029677 ,Left ,63,2978819362756 ,44,5865800421038 ,30,7969129689484
12.0521153 ,Left ,63,3777278684421 ,44,6419339430098 ,30,7628422929907
12.0669789 ,Left ,63,4180847718899 ,44,6259867931425 ,30,7657288325669
12.0896579 ,Left ,63,3676107346191 ,44,679497296684 ,30,7800188882804
12.1120933 ,Left ,63,2904770832524 ,44,7301012280537 ,30,7920512281423
12.1346128 ,Left ,63,3759788905716 ,44,6890817992179 ,30,7514930915097
12.1496058 ,Left ,63,3391485620294 ,44,652433567974 ,30,803444130736
12.1720141 ,Left ,63,2402801791902 ,44,7153571654176 ,30,8614234088307
12.1945749 ,Left ,63,2497118264726 ,44,8112095115827 ,30,8459315438625
12.2094625 ,Left ,63,3778959664827 ,44,8221321177486 ,30,809217513672
12.2320322 ,Left ,63,4671541875565 ,44,8046011499154 ,30,7721160234023
12.254412 ,Left ,63,4123150862137 ,44,8056074233473 ,30,7873335296396
12.2696409 ,Left ,63,3066766540882 ,44,8536777233245 ,30,800527496964
12.2920776 ,Left ,63,3405256966258 ,44,8795400419474 ,30,7666582353904
12.3143435 ,Left ,63,4323704242466 ,44,8571955563953 ,30,7311271251233
12.3293856 ,Left ,63,4452486397597 ,44,831251251299 ,30,711397687362
12.3517383 ,Left ,63,3948888127892 ,44,8356849249338 ,30,7164535521137
12.3741813 ,Left ,63,413185792523 ,44,8646853101259 ,30,7062765417526
12.3894812 ,Left ,63,5009997287389 ,44,8401781044151 ,30,6785126076841
12.4119904 ,Left ,63,5426315633802 ,44,7853573731109 ,30,6750763255758
12.4343067 ,Left ,63,4959891029292 ,44,7282926790135 ,30,688040235489
12.4495312 ,Left ,63,4539450652704 ,44,7032666709663 ,30,6887693623359
12.4722015 ,Left ,63,4793740116236 ,44,6835240835467 ,30,6763219344862
12.4943329 ,Left ,63,529758337575 ,44,6493526694643 ,30,674919404362
12.5091655 ,Left ,63,4782853378306 ,44,6274045249648 ,30,6967096984529
12.5317377 ,Left ,63,3932744010655 ,44,6542088084867 ,30,742294898334
12.5618021 ,Left ,63,3702449356783 ,44,7207303147893 ,30,7633862577898
12.5770111 ,Left ,63,3456949778564 ,44,7831172370381 ,30,788088768667
12.5993929 ,Left ,63,3578545657529 ,44,8763792391422 ,30,8047876532335
12.6145626 ,Left ,63,4150994910825 ,44,9580393151245 ,30,7952305182512
12.6296104 ,Left ,63,5022072433822 ,44,9492929128916 ,30,7714081482234
12.6521931 ,Left ,63,5022275751846 ,44,9149597022005 ,30,7604293892067
12.6668781 ,Left ,63,4321301540612 ,44,9359997458356 ,30,7432652057951
12.6819839 ,Left ,63,3879365297702 ,44,9826651294523 ,30,7155424465133
12.7046514 ,Left ,63,4492875731899 ,45,0217574296788 ,30,6488638937783
12.7270818 ,Left ,63,5351090411344 ,45,0270924140293 ,30,5830494344599
12.7493717 ,Left ,63,5417917196988 ,45,0070445296557 ,30,52901435946
12.7715429 ,Left ,63,4768824551746 ,45,0146252684471 ,30,5098439103223
12.7945058 ,Left ,63,4390625102695 ,45,0402751129342 ,30,4852803158268
12.8015528 ,Left ,63,4532620961525 ,45,0411527713059 ,30,4467085490242
12.8244542 ,Left ,63,4901412728334 ,44,9966933223528 ,30,4161481205873
12.8468618 ,Left ,63,4738340676347 ,44,9460719103826 ,30,4015283834682
12.8618946 ,Left ,63,4199195553704 ,44,9036403705556 ,30,3958091204671
12.8844765 ,Left ,63,4001800115968 ,44,8600271415735 ,30,3940988840326
12.9069297 ,Left ,63,4247586461529 ,44,869488545634 ,30,4079160774301
12.9218542 ,Left ,63,4050903100562 ,44,912052176555 ,30,4146165523857
12.9444598 ,Left ,63,4260287486939 ,44,9229580511471 ,30,4007963836784
12.9668703 ,Left ,63,4521917233213 ,44,8761129856645 ,30,3915627686294
12.9816814 ,Left ,63,4379583937182 ,44,8432361150057 ,30,4053392873537
13.0043673 ,Left ,63,3518146132945 ,44,870961125792 ,30,4219344934395
13.0273734 ,Left ,63,3277106365652 ,44,9003043711668 ,30,4609000341307
13.0499654 ,Left ,63,2381031279545 ,44,9446387038435 ,30,5423801933566
13.0799454 ,Left ,63,2745870559223 ,44,9928354967183 ,30,6390944938432
13.1246872 ,Left ,63,5523589534503 ,44,7175294529768 ,30,5713012023608
13.1470563 ,Left ,63,4853518768556 ,44,7666837864757 ,30,6008742454926
13.1621055 ,Left ,63,5385281347621 ,44,8380218918653 ,30,6000323457959
13.1845319 ,Left ,63,6634747216928 ,44,8200788309183 ,30,5531444742758
13.2070467 ,Left ,63,6664314407841 ,44,7550642356366 ,30,5690538003832
13.2220202 ,Left ,63,4998737886681 ,44,7536836511212 ,30,5673964212278
13.244532 ,Left ,63,5099912616836 ,44,799304401351 ,30,6096846401469
13.2668744 ,Left ,63,7078840301477 ,44,8594504342264 ,30,5792451805632
13.2819837 ,Left ,63,8801482274098 ,44,8747231933929 ,30,5408358045582
13.3117649 ,Left ,63,8713915786563 ,44,8515425104466 ,30,5422292316239
13.3341974 ,Left ,63,7080876128597 ,44,7992389190996 ,30,581665390368
13.3491606 ,Left ,63,661796030692 ,44,7737933312116 ,30,6090110979815
13.3641995 ,Left ,63,7441212911579 ,44,7975393535406 ,30,599136760049
13.3871726 ,Left ,63,7915157454698 ,44,8057923259391 ,30,591869158671
13.4019657 ,Left ,63,7572013873103 ,44,7946186214487 ,30,5915609240169
13.4245502 ,Left ,63,7078215476626 ,44,7575154993787 ,30,5890794150813
13.462026 ,Left ,63,5987224054108 ,44,6571945583962 ,30,5998013197456
13.484693 ,Left ,63,601402378373 ,44,6870824997892 ,30,5846630706043
13.5220101 ,Left ,63,656585236727 ,44,6929302996735 ,30,6126550191426
13.544393 ,Left ,63,6615736529811 ,44,6554242067426 ,30,6348337283578
13.5818347 ,Left ,63,633269072582 ,44,5951818505671 ,30,6674975622149
13.604621 ,Left ,63,6316336605477 ,44,5940747543472 ,30,6554718128369
13.6420574 ,Left ,63,6499134276389 ,44,531349357434 ,30,6776835605229
13.6643971 ,Left ,63,6325949570304 ,44,5154030671633 ,30,691934695639
13.7018737 ,Left ,63,6111780967178 ,44,4765353621564 ,30,6756359213521
13.7246366 ,Left ,63,6230962880265 ,44,4794957812111 ,30,6718240422761
13.7617942 ,Left ,63,6104862705379 ,44,4936920079201 ,30,6502722456249
13.7843086 ,Left ,63,588954213728 ,44,4884600551652 ,30,6400184305493
13.8219063 ,Left ,63,5677391151086 ,44,4933761292685 ,30,6350156763728
13.8445592 ,Left ,63,5687555018982 ,44,4874729674045 ,30,6364298168323
13.8892242 ,Left ,63,5005171214662 ,44,4793016035938 ,30,6784868231827
13.91177 ,Left ,63,4030705016996 ,44,4883725670529 ,30,7184120606906
13.9418819 ,Left ,63,3561809899373 ,44,4764088861173 ,30,7360980058944
13.9646717 ,Left ,63,3966589106513 ,44,492090532779 ,30,7259889234273
14.0018718 ,Left ,63,3682490061267 ,44,4877036680549 ,30,6867021929026
14.0243434 ,Left ,63,4076358086865 ,44,4804287044594 ,30,6498893726348
14.0616592 ,Left ,63,4138429112122 ,44,3899703133089 ,30,6028528938719
14.0847753 ,Left ,63,3699843912372 ,44,3594950400772 ,30,6166827852242
14.1291369 ,Left ,63,2793490907594 ,44,4632618421713 ,30,701969295939
14.1593546 ,Left ,63,3130983263681 ,44,5726045531426 ,30,7151482989611
14.1892597 ,Left ,63,4856345496177 ,44,6088448244459 ,30,6781591317937
14.2040718 ,Left ,63,4088963753141 ,44,6499795929245 ,30,670621056141
14.24175 ,Left ,63,4726863322773 ,44,5587091627383 ,30,6446132451419
14.2645531 ,Left ,63,3975337109656 ,44,6079797101024 ,30,7629507688446
14.3020816 ,Left ,63,4440253307453 ,44,8243427396152 ,30,7531332766713
14.3396278 ,Left ,63,5888768344257 ,44,7979098475492 ,30,7233689339722
14.3845763 ,Left ,63,3918529282913 ,44,9454208439371 ,30,7288230515583
14.429612 ,Left ,63,4692959727853 ,44,98755565051 ,30,726747985449
14.4521149 ,Left ,63,4306302883396 ,44,9994994008236 ,30,7327894317562
14.5042024 ,Left ,63,4218696633876 ,44,925971559205 ,30,7600278103174
14.5344444 ,Left ,63,4194311089583 ,44,8737290133131 ,30,7556764800625
14.5570705 ,Left ,63,4198202631961 ,44,8300670997025 ,30,7696732200007
14.5795038 ,Left ,63,4097688341405 ,44,8059814841685 ,30,7812238951666
14.5946422 ,Left ,63,340635062165 ,44,8486691449781 ,30,7827177923093
14.6169726 ,Left ,63,3006916268504 ,44,9401182456733 ,30,8241106980419
14.6396779 ,Left ,63,3521706758643 ,45,0431325219995 ,30,8208754461865
14.6621388 ,Left ,63,4630238029904 ,45,0616859084374 ,30,7939780150987
14.6770522 ,Left ,63,5235562455324 ,45,0463258427972 ,30,7787084645192
14.7070594 ,Left ,63,4579602021444 ,45,0387829956282 ,30,7640697642594
14.7293366 ,Left ,63,4606013649453 ,45,037233647532 ,30,7270732448484
14.7443881 ,Left ,63,5534492877788 ,45,0243185684704 ,30,6860530369069
14.7746095 ,Left ,63,5678882845306 ,44,9643945470695 ,30,6398779760816
14.7969088 ,Left ,63,5306161892703 ,44,9314679916631 ,30,6264085883428
14.8194194 ,Left ,63,5202964293985 ,44,9019305468023 ,30,5976224081232
14.8344979 ,Left ,63,5699939693101 ,44,8960662603271 ,30,5417967231277
14.8570855 ,Left ,63,5962687049297 ,44,8919224948568 ,30,5023295034411
14.8872885 ,Left ,63,5737717419803 ,44,9023440783728 ,30,4681779475895
14.9022008 ,Left ,63,5585858312579 ,44,9170997026655 ,30,4226989260287
14.9244711 ,Left ,63,541758804817 ,44,9371948834882 ,30,3832531955337
14.954581 ,Left ,63,5151964472201 ,44,9699848071645 ,30,3274288875222
14.9843508 ,Left ,63,5532990551934 ,44,9431587693368 ,30,293093395489
15.0069316 ,Left ,63,535099073631 ,44,9321806752366 ,30,2904141069992
15.0370302 ,Left ,63,4422078425127 ,44,916654574421 ,30,2766908035947
15.059345 ,Left ,63,3719290388511 ,44,8736012547324 ,30,3186033628576
15.0820444 ,Left ,63,2729054234631 ,44,9353843751215 ,30,3965202989616
15.0968763 ,Left ,63,2729696179773 ,45,0253213779649 ,30,4665218823039
15.1192553 ,Left ,63,4457269256751 ,45,0103341810326 ,30,4586478679691
15.1416835 ,Left ,63,6103035730384 ,44,9007610202456 ,30,4025998505112
15.1568744 ,Left ,63,5941028241047 ,44,7736572843198 ,30,3914524218883
15.1800077 ,Left ,63,533640904205 ,44,7836460320387 ,30,3920622723432
15.2024667 ,Left ,63,5158166363907 ,44,8149348966497 ,30,3847791108607
15.217654 ,Left ,63,586661059013 ,44,7954738490584 ,30,3563405452781
15.2396548 ,Left ,63,6045410884935 ,44,7622472263747 ,30,370486985128
15.2695761 ,Left ,63,5650763207095 ,44,7729795494244 ,30,4171210802041
15.2849035 ,Left ,63,5103275609518 ,44,8813239088272 ,30,4655958569028
15.3073065 ,Left ,63,5486456638215 ,44,9891209079141 ,30,4986955944719
15.3222685 ,Left ,63,7031632613356 ,45,0251015517085 ,30,5206902587362
15.3373675 ,Left ,63,8155798318133 ,45,0179688782591 ,30,5231887178403
15.3594429 ,Left ,63,761522906089 ,44,9703542163143 ,30,5472393046406
15.3816362 ,Left ,63,6340298715506 ,44,8936741610712 ,30,581473888918
15.3968733 ,Left ,63,5498272979 ,44,8179538658765 ,30,6292255831899
15.4192869 ,Left ,63,5198382005321 ,44,8025797746898 ,30,669794588375
15.4418433 ,Left ,63,5431341271631 ,44,8452701344174 ,30,6495015422846
15.4575166 ,Left ,63,5990996661323 ,44,8611930394029 ,30,6051425852066
15.4799764 ,Left ,63,6021189805285 ,44,8048437691925 ,30,5907014340204
15.5024939 ,Left ,63,5998798307512 ,44,7316896533961 ,30,5820291717437
15.5174923 ,Left ,63,6221197093008 ,44,6600847961796 ,30,5880258321253
15.5399196 ,Left ,63,5934121717749 ,44,6195250640628 ,30,6168646368951
15.5620108 ,Left ,63,5749185540885 ,44,6095176936726 ,30,6349623618754
15.5770229 ,Left ,63,6314785263657 ,44,603527648282 ,30,6305175167087
15.5997035 ,Left ,63,6911729238128 ,44,5887237618993 ,30,617193807442
15.6221398 ,Left ,63,6977894900471 ,44,5812326868186 ,30,6251646774602
15.6374492 ,Left ,63,6565312921645 ,44,5909844750191 ,30,6344760187892
15.6600582 ,Left ,63,6598751012783 ,44,6030601493998 ,30,6295634267102
15.6821383 ,Left ,63,6822459046853 ,44,6131189829714 ,30,6196053204482
15.6973073 ,Left ,63,6811127471302 ,44,6272224253799 ,30,6154593651091
15.719627 ,Left ,63,6382270413912 ,44,6480004399115 ,30,6214884947872
15.7421581 ,Left ,63,6121483202168 ,44,667693934626 ,30,6192945006987
15.7570715 ,Left ,63,6108132423978 ,44,6672663968313 ,30,617235557466
15.779652 ,Left ,63,6199354731778 ,44,6828337306209 ,30,621506058465
15.8020165 ,Left ,63,6023063955179 ,44,7030580241059 ,30,6279773181599
15.8321614 ,Left ,63,5698776186907 ,44,7169622774129 ,30,6379823614566
15.847051 ,Left ,63,5553247405205 ,44,7126372404874 ,30,6548234312441
15.8766738 ,Left ,63,4101580723684 ,44,7652497942852 ,30,7243589184499
15.8992102 ,Left ,63,3108184712373 ,44,806137216779 ,30,7287301121191
15.9218042 ,Left ,63,3411541445946 ,44,7726023437282 ,30,7494365542549
15.9441386 ,Left ,63,4192720932143 ,44,7579083663049 ,30,7762925247461
15.9592636 ,Left ,63,4120408196495 ,44,7653277284145 ,30,7585262021674
15.9817826 ,Left ,63,4641595236309 ,44,7680049748603 ,30,7387355234381
16.0045108 ,Left ,63,4772908045836 ,44,7939509570816 ,30,7118324056851
16.0195025 ,Left ,63,4714411904552 ,44,8116852928295 ,30,6740497945961
16.0420495 ,Left ,63,4754508428966 ,44,7709740980609 ,30,6652111604631
16.0647961 ,Left ,63,4685674459684 ,44,7308978299233 ,30,6619194255122
16.0797615 ,Left ,63,376404053456 ,44,7416042945182 ,30,6496006801726
16.1020203 ,Left ,63,33205766872 ,44,7664384635461 ,30,7404000705574
16.1244534 ,Left ,63,3601446333371 ,44,8385762165017 ,30,7611196744032
16.139772 ,Left ,63,4565211704805 ,44,8554049081143 ,30,7243808486071
16.162061 ,Left ,63,5117477945144 ,44,8482916698306 ,30,7252808354684
16.1844037 ,Left ,63,4023103887739 ,44,8941090062176 ,30,7269422584814
16.1998241 ,Left ,63,3858702477858 ,44,9040582599069 ,30,6869659805082
16.2223042 ,Left ,63,4259264062525 ,44,8574041420862 ,30,6566331631221
16.2444503 ,Left ,63,3857295213866 ,44,8596053656167 ,30,7258402831365
16.2596473 ,Left ,63,3338578637875 ,44,9756067340254 ,30,7533377373237
16.2895629 ,Left ,63,4236388472132 ,45,0518472416405 ,30,7188415398022
16.312244 ,Left ,63,5473353652777 ,45,0401530243741 ,30,7073267821679
16.3270667 ,Left ,63,5474004972897 ,45,056619427526 ,30,7085500196135
16.3572014 ,Left ,63,410109527368 ,45,0962233291415 ,30,733306893038
16.3722207 ,Left ,63,374955059508 ,45,1202174280935 ,30,7391751393726
16.3870041 ,Left ,63,4254958661414 ,45,1289148414886 ,30,7289808242835
16.4097634 ,Left ,63,4510925149439 ,45,1203442958713 ,30,7080286092305
16.424805 ,Left ,63,4065437495902 ,45,0970095340367 ,30,7003770159619
16.4395927 ,Left ,63,3844675054726 ,45,0565867983294 ,30,7037639375324
16.4695032 ,Left ,63,3980979880632 ,45,0053200204698 ,30,6954341373843
16.4922416 ,Left ,63,4064804226785 ,44,9496865679695 ,30,6721569206623
16.5070065 ,Left ,63,3957621390928 ,44,9311615894296 ,30,6646671114492
16.5222445 ,Left ,63,3747376200951 ,44,9551073001578 ,30,66686755355
16.5521281 ,Left ,63,3579505384638 ,45,0422029509738 ,30,6630235194755
16.5671918 ,Left ,63,3935674359821 ,45,1599796939067 ,30,6544076175284
16.5895495 ,Left ,63,4771832027064 ,45,2191620160904 ,30,6285623028153
16.6348285 ,Left ,63,4940801117829 ,45,1707329608626 ,30,5801932576909
16.6645494 ,Left ,63,4365207340081 ,45,1532929830321 ,30,5741953294398
16.6946212 ,Left ,63,5491349275717 ,45,1616844471904 ,30,5003876648989
16.724525 ,Left ,63,5590778659611 ,45,0686419506003 ,30,4686881889772
16.7395014 ,Left ,63,5024097555073 ,45,0565003682164 ,30,4577598566641
16.7620872 ,Left ,63,5224938344411 ,45,0613890371865 ,30,4058664293627
16.7919699 ,Left ,63,6209351481843 ,45,0480607504085 ,30,3213250454838
16.8070967 ,Left ,63,6575440416108 ,45,0296850501583 ,30,2717514474903
16.8291829 ,Left ,63,5807679528656 ,45,0256079980273 ,30,2643155384495
16.8443316 ,Left ,63,5060144404964 ,45,0300753169392 ,30,2656663658477
16.8668781 ,Left ,63,5093382273731 ,45,0318055621449 ,30,2447985148193
16.8822484 ,Left ,63,5829007503134 ,45,0252038632571 ,30,1999109657125
16.9122501 ,Left ,63,5697434634641 ,45,0250721417721 ,30,1731889539803
16.9423698 ,Left ,63,4805480550565 ,45,0370604703516 ,30,2000706814576
16.9570179 ,Left ,63,3554796514658 ,45,0390012659152 ,30,2606589450358
16.9870401 ,Left ,63,2450211303928 ,45,0918648817281 ,30,4013844038449
17.0020149 ,Left ,63,1659065443905 ,45,2132536813542 ,30,5199404947297
17.0247004 ,Left ,63,278845383008 ,45,281467696968 ,30,5484999387138
17.0471009 ,Left ,63,4817059387646 ,45,1886044355629 ,30,4823859552922
17.0619709 ,Left ,63,5573431556263 ,45,0191961575901 ,30,4305015465635
17.092133 ,Left ,63,3952124169133 ,44,9420781239283 ,30,4928192271681
17.1143939 ,Left ,63,2941731093769 ,45,0290995195853 ,30,519238405069
17.1292187 ,Left ,63,4295689502305 ,45,0804195796669 ,30,4405920492533
17.1442591 ,Left ,63,5684121321727 ,44,991306647195 ,30,3575950651649
17.1667213 ,Left ,63,4471595882792 ,44,9212263101543 ,30,3902667435933
17.1817981 ,Left ,63,346942579632 ,44,9687055144984 ,30,428401192749
17.2048264 ,Left ,63,4465527799424 ,45,0708678677113 ,30,4128150988576
17.2265967 ,Left ,63,681252898721 ,45,1061138278338 ,30,3654857951729
17.2416939 ,Left ,63,7786755107537 ,45,0602593162569 ,30,343665885943
17.2718578 ,Left ,63,6877763592187 ,45,0008235197636 ,30,3631933781769
17.2944551 ,Left ,63,5446777173664 ,44,9623699373468 ,30,4182402302838
17.3092341 ,Left ,63,464738973533 ,44,9547139386833 ,30,4630016346976
17.3316513 ,Left ,63,4873601844552 ,44,9597644976101 ,30,4604208039189
17.3467417 ,Left ,63,5590199495682 ,44,9594847289615 ,30,4302246771829
17.3615961 ,Left ,63,6093727659819 ,44,957231172393 ,30,4112006571502
17.3842848 ,Left ,63,5709699077769 ,44,9297462955179 ,30,4362480145521
17.4066457 ,Left ,63,5355611411085 ,44,9010085209801 ,30,4548162740714
17.4217632 ,Left ,63,5495633493377 ,44,8755080972419 ,30,4771586062679
17.4446458 ,Left ,63,5728777330734 ,44,8594288013126 ,30,4629004461407
17.4743653 ,Left ,63,5681446299885 ,44,8448796234699 ,30,4472064819355
17.4894618 ,Left ,63,6118781170669 ,44,8337065446719 ,30,4360237892396
17.5125433 ,Left ,63,6265495114199 ,44,8172892862079 ,30,4304490233041
17.5275371 ,Left ,63,6202054155297 ,44,8158053999299 ,30,4300968583997
17.542464 ,Left ,63,5938406853379 ,44,8139637439583 ,30,4412336702517
17.5650344 ,Left ,63,5957637885561 ,44,821272243588 ,30,4468969697086
17.5872996 ,Left ,63,6096687044469 ,44,8272534945524 ,30,4562853429596
17.602719 ,Left ,63,6096687044469 ,44,8272534945524 ,30,4562853429596
17.6248788 ,Left ,63,6123023065973 ,44,8243038215522 ,30,45582781489
17.6470702 ,Left ,63,6016113541187 ,44,8001778231855 ,30,4628611051477
17.6618509 ,Left ,63,6100427957251 ,44,7830147838814 ,30,4722367389507
17.6844951 ,Left ,63,5879649027275 ,44,777957853113 ,30,4846866641605
17.7068955 ,Left ,63,5727504278273 ,44,7697731412325 ,30,4872551016692
17.7220565 ,Left ,63,5919148216345 ,44,7589692784184 ,30,4901620558388
17.7447067 ,Left ,63,605688002945 ,44,7547508004263 ,30,4889997284724
17.7747086 ,Left ,63,5805164376355 ,44,7470275457492 ,30,4963417853168
17.7896556 ,Left ,63,558350555548 ,44,7540053650627 ,30,5106017628153
17.8120855 ,Left ,63,5533438315846 ,44,774565133013 ,30,5163378438003
17.8268856 ,Left ,63,5612321477112 ,44,7693777433017 ,30,5125393511371
17.8496168 ,Left ,63,5421376157654 ,44,7499427328803 ,30,5257136036246
17.8647123 ,Left ,63,4683695479673 ,44,7550557136356 ,30,5472468025959
17.8868314 ,Left ,63,3914803776882 ,44,768309926637 ,30,5671913870813
17.9094916 ,Left ,63,3924567982557 ,44,8005754651308 ,30,5738775731933
17.9243988 ,Left ,63,4563477426934 ,44,8363038320679 ,30,5515346017086
17.9468979 ,Left ,63,5173484725238 ,44,8451402980148 ,30,5083047856132
17.9696954 ,Left ,63,5273168727768 ,44,8438270290933 ,30,4829966332519
17.9846133 ,Left ,63,4959910956967 ,44,8341749677365 ,30,451925450312
18.0069586 ,Left ,63,4691476432421 ,44,8042884220857 ,30,4381179931587
18.0291529 ,Left ,63,5214837674329 ,44,7505085021614 ,30,4225347412863
18.0443296 ,Left ,63,5218648891071 ,44,6977993843301 ,30,4139282039413
18.0666316 ,Left ,63,4888016992841 ,44,6692978249202 ,30,4337768456835
18.0895516 ,Left ,63,4561772693245 ,44,6481855966141 ,30,4451927964142
18.1045477 ,Left ,63,455644408386 ,44,6264750428183 ,30,4762062390804
18.1275062 ,Left ,63,3935676609589 ,44,7000855505246 ,30,5144177013039
18.1500048 ,Left ,63,3914635219996 ,44,7804320886446 ,30,5260074650781
18.16497 ,Left ,63,4718062854344 ,44,8193136592984 ,30,5126365034518
18.1874593 ,Left ,63,5425453222043 ,44,7894905599723 ,30,4941822012947
18.2173652 ,Left ,63,4930233691249 ,44,7605735080746 ,30,5063565804048
18.2322673 ,Left ,63,4083880716598 ,44,7996048923472 ,30,5133755224493
18.2541082 ,Left ,63,4489221732584 ,44,8196752213314 ,30,4855659877462
18.2844622 ,Left ,63,5931765801359 ,44,7697195196562 ,30,4324793849315
18.3144805 ,Left ,63,5196801708332 ,44,7369325249335 ,30,4312907722946
18.3365706 ,Left ,63,4825534113491 ,44,7443720318547 ,30,4296370762952
18.3516762 ,Left ,63,5227514935214 ,44,7424678904059 ,30,4000164991835
18.3667659 ,Left ,63,556772855426 ,44,7119184731636 ,30,3753280499554
18.3892244 ,Left ,63,4902198223841 ,44,69825047826 ,30,3836438044074
18.4042856 ,Left ,63,3612701047206 ,44,7630466603341 ,30,4226552579688
18.4268294 ,Left ,63,2900664907874 ,44,9164629831629 ,30,4840907129273
18.4418958 ,Left ,63,3844272838472 ,45,074787072454 ,30,5281381526849
18.4568587 ,Left ,63,4970304815759 ,45,1619625811322 ,30,5264372251017
18.4795107 ,Left ,63,5204021417866 ,45,1902610308764 ,30,5285996887773
18.5020173 ,Left ,63,415405455444 ,45,2107263669743 ,30,5786768209552
18.5171371 ,Left ,63,3573565910205 ,45,2579295073991 ,30,6143603128868
18.5397471 ,Left ,63,388283238372 ,45,249646596845 ,30,6263631250215
18.5623511 ,Left ,63,4103216711002 ,45,216647407048 ,30,6193373837811
18.5772482 ,Left ,63,3572713687622 ,45,1625118849741 ,30,6192259695787
18.6069834 ,Left ,63,327612689647 ,45,0855483594851 ,30,6319100361728
18.6292323 ,Left ,63,3338054952446 ,45,0400869967619 ,30,6650256520642
18.6366391 ,Left ,63,2054373789143 ,45,1080312795217 ,30,7648838375424
18.6592801 ,Left ,63,1751361630204 ,45,2804807351931 ,30,8455563248816
18.6816435 ,Left ,63,2471128845095 ,45,4459264794773 ,30,865406304143
18.6968719 ,Left ,63,3699419916286 ,45,4751414037192 ,30,8327846774092
18.7196224 ,Left ,63,3862503062316 ,45,4313613242777 ,30,8103155936801
18.7419049 ,Left ,63,2878927632859 ,45,4034700893612 ,30,7834423860015
18.7567879 ,Left ,63,2689638309893 ,45,4098819725856 ,30,7474180610123
18.7794278 ,Left ,63,3407994787891 ,45,4005068266014 ,30,683880480255
18.8097001 ,Left ,63,3931384580971 ,45,3830500071528 ,30,6392785992921
18.8248209 ,Left ,63,3948305918695 ,45,3435166606478 ,30,5978116992692
18.854823 ,Left ,63,3833358030894 ,45,3038380803574 ,30,5644319442819
18.8697969 ,Left ,63,3953219665514 ,45,2966357932199 ,30,5203320973364
18.8848804 ,Left ,63,4417745517638 ,45,2782530590047 ,30,4521878980703
18.9216156 ,Left ,63,4829050952263 ,45,2209272338658 ,30,3253331832572
18.9368277 ,Left ,63,4268979437477 ,45,2136700877823 ,30,2885022468643
18.9591671 ,Left ,63,4281549858288 ,45,2179610871407 ,30,2169872897457
18.9818306 ,Left ,63,4372847038416 ,45,2087500931836 ,30,1674669542082
18.9968293 ,Left ,63,4124972790802 ,45,2348661060176 ,30,139510437293
19.0198004 ,Left ,63,3806614429467 ,45,247392658503 ,30,1049066429892
19.0419986 ,Left ,63,3784690433619 ,45,2054118463117 ,30,1013325785715
19.0570084 ,Left ,63,267631152084 ,45,1495449862951 ,30,137092297066
19.0796404 ,Left ,63,1741906146285 ,45,1410714414579 ,30,2022594143418
19.101698 ,Left ,63,1622739910796 ,45,1989709044692 ,30,2453278677877
19.1166357 ,Left ,63,2388681026869 ,45,2348862103 ,30,2503259008626
19.1392837 ,Left ,63,4254541457285 ,45,1545328485753 ,30,1717632027569
19.162136 ,Left ,63,5281335559241 ,44,9716958428519 ,30,1256001978215
19.1997982 ,Left ,63,3512641596778 ,45,0787720693635 ,30,1878063293506
19.2222232 ,Left ,63,3798713100686 ,45,1117182987318 ,30,1646416232828
19.2594054 ,Left ,63,3781202153676 ,44,9446211036737 ,30,2000224971137
19.2818446 ,Left ,63,3369625762171 ,44,9739227814528 ,30,2368646752867
19.3196947 ,Left ,63,6031936646061 ,45,0439103484879 ,30,1855651318641
19.3417601 ,Left ,63,6436733119643 ,45,0406306630018 ,30,1853968230351
19.3791167 ,Left ,63,4637624372505 ,45,002447324495 ,30,2876952714742
19.4095419 ,Left ,63,4725984909928 ,44,9640005121713 ,30,3085658247034
19.4470182 ,Left ,63,5622976796333 ,44,9893224384883 ,30,3138656522756
19.4769381 ,Left ,63,5208368929519 ,44,9766202710235 ,30,325998007339
19.4993973 ,Left ,63,5134592184433 ,44,8932158200164 ,30,3348291872445
19.5367812 ,Left ,63,4974228499932 ,44,8846118639137 ,30,3502977520957
19.5596504 ,Left ,63,5369325194472 ,44,8818648552934 ,30,3405711832908
19.5969302 ,Left ,63,5709686406034 ,44,8662473087542 ,30,3466699692076
19.6193355 ,Left ,63,53703371634 ,44,8882375136401 ,30,3464790418499
19.6567449 ,Left ,63,6099687763679 ,44,9102652063449 ,30,3273922764269
19.6792766 ,Left ,63,5919171181486 ,44,9082160920382 ,30,3319632422973
19.7170519 ,Left ,63,5263072061841 ,44,9089833334403 ,30,3474124741647
19.7394733 ,Left ,63,5551149623753 ,44,885146774202 ,30,3339983482181
19.7845709 ,Left ,63,524100194634 ,44,8588066945205 ,30,3515141143707
19.7996408 ,Left ,63,4792632827421 ,44,8486487578948 ,30,3718477690874
19.8366197 ,Left ,63,4114738771686 ,44,8376254413093 ,30,417055121914
19.8592202 ,Left ,63,3125698758325 ,44,8501249852135 ,30,4537782179206
19.8967232 ,Left ,63,2805791364097 ,44,9294363861862 ,30,5176852849568
19.919494 ,Left ,63,303647449395 ,44,9990196170659 ,30,5192235941105
19.9567369 ,Left ,63,3390050940872 ,45,035407781302 ,30,5150606092049
19.9867856 ,Left ,63,2998738290453 ,45,0123863460974 ,30,5228654922087
20.0392882 ,Left ,63,2004301505529 ,44,92516025825 ,30,5189061252172
20.0847102 ,Left ,63,2152936823305 ,45,0192106150497 ,30,5943044322914
20.1371773 ,Left ,63,2660531855226 ,45,0813389750369 ,30,5867252320257
20.1594974 ,Left ,63,258034160957 ,45,0759941452665 ,30,5676713148118
20.196925 ,Left ,63,2346537594533 ,45,0349214952015 ,30,6264071744686
20.2196116 ,Left ,63,2392499439343 ,45,1527304034513 ,30,6362134278396
20.2568496 ,Left ,63,5092610168267 ,45,1966684199822 ,30,5873890212863
20.2793868 ,Left ,63,4391266175866 ,45,232833547425 ,30,5951754377071
20.3096652 ,Left ,63,2857209814716 ,45,2780076690531 ,30,6239257411259
20.3318605 ,Left ,63,3472262071191 ,45,2575841644796 ,30,603648848081
20.35459 ,Left ,63,325763116546 ,45,2507887268181 ,30,5843749365832
20.3766185 ,Left ,63,1722363991206 ,45,1997078266358 ,30,6651888163559
20.3917167 ,Left ,63,2603355301141 ,45,2020756171054 ,30,7227427410072
20.4145145 ,Left ,63,3724074620935 ,45,2779403385105 ,30,7182922619748
20.437109 ,Left ,63,4117095734419 ,45,3077933454678 ,30,7217985121632
20.4520662 ,Left ,63,4342692393544 ,45,3056099620348 ,30,7133925177196
20.4743753 ,Left ,63,4493995746733 ,45,3444234272845 ,30,6946499874235
20.4968834 ,Left ,63,4023862168646 ,45,4031719643903 ,30,653342349522
20.5118123 ,Left ,63,4333373607183 ,45,4248251348771 ,30,6035934499307
20.5342239 ,Left ,63,5036658814305 ,45,4275736409089 ,30,5363836625285
20.5569155 ,Left ,63,5049486556956 ,45,3973763820439 ,30,4695623649267
20.5796075 ,Left ,63,4764489931352 ,45,3516639991469 ,30,4278443240253
20.6096552 ,Left ,63,5172292502074 ,45,2724859031892 ,30,3497563844848
20.6320405 ,Left ,63,556226170773 ,45,2512172361655 ,30,3208027819718
20.6545908 ,Left ,63,5681410015814 ,45,2217832557625 ,30,2922087390034
20.6772018 ,Left ,63,5644056409086 ,45,1836554450463 ,30,2735837296675
20.6917559 ,Left ,63,5554001978599 ,45,1641279471354 ,30,2594166210734
20.7145234 ,Left ,63,5424734614703 ,45,17543322758 ,30,2411299878261
20.7368467 ,Left ,63,54687429496 ,45,2025677391724 ,30,1980041231047
20.7517487 ,Left ,63,5575796531112 ,45,2084237902273 ,30,1481645642197
20.7816882 ,Left ,63,5442990503618 ,45,1992579005286 ,30,1088335932792
20.8042125 ,Left ,63,4946109920403 ,45,2148068079863 ,30,081371023457
20.8192745 ,Left ,63,4866759403759 ,45,2427779010744 ,30,0188171053571
20.8344617 ,Left ,63,4765892477879 ,45,2323255814125 ,29,9798902204971
20.8568994 ,Left ,63,4436195951871 ,45,2522367615127 ,30,0028560306956
20.871992 ,Left ,63,3250313416962 ,45,285699021727 ,30,0463862523557
20.894601 ,Left ,63,342497599727 ,45,2414474820123 ,30,0480500245591
20.9170759 ,Left ,63,2925729413444 ,45,1314488377316 ,30,0906950300098
20.9322928 ,Left ,63,1914454393551 ,45,1632823916545 ,30,1101848800675
20.9548381 ,Left ,63,1865198919808 ,45,283603859633 ,30,12235655667
20.9772319 ,Left ,63,2772681694857 ,45,3659347023122 ,30,1200641906623
20.992187 ,Left ,63,3512041229349 ,45,2970810303846 ,30,1215384115499
21.0146408 ,Left ,63,384389233543 ,45,1438120725669 ,30,1291707779246
21.0446365 ,Left ,63,2337888829986 ,45,0074156533585 ,30,1528648335434
21.0595409 ,Left ,63,3268876691181 ,45,0384341598336 ,30,157424829504
21.0822865 ,Left ,63,425607264133 ,45,0743904350852 ,30,1366464309685
21.0973877 ,Left ,63,5243051942768 ,45,0281729241118 ,30,102074986554
21.112228 ,Left ,63,4724610717803 ,44,9290057312758 ,30,1079669184386
21.1496798 ,Left ,63,2387332596163 ,44,9310082627244 ,30,1907899097317
21.172272 ,Left ,63,272143323714 ,45,0877180116941 ,30,2308297761759
21.194875 ,Left ,63,5830270514387 ,45,3067481385274 ,30,1639497665733
21.2175527 ,Left ,63,5528793095737 ,45,2965966240674 ,30,1798720713898
21.2319695 ,Left ,63,4317812811609 ,45,2185770726042 ,30,2132380435363
21.2544635 ,Left ,63,4003321182799 ,45,1899585823436 ,30,2751214442466
21.2769348 ,Left ,63,4569201930096 ,45,2456788452765 ,30,2642148393154
21.291981 ,Left ,63,5042977029613 ,45,2693158527741 ,30,2882667687025
21.3145963 ,Left ,63,5496736410809 ,45,2231002801794 ,30,3087723436711
21.3370928 ,Left ,63,517416477336 ,45,1191379196076 ,30,3107777480959
21.3520083 ,Left ,63,4708049258595 ,45,0448616868972 ,30,3299420762667
21.3746329 ,Left ,63,4236855650564 ,45,0527251929465 ,30,3429789327913
21.396958 ,Left ,63,4464904161495 ,45,0481423374008 ,30,3277446299324
21.4121569 ,Left ,63,5222566799253 ,45,0067096806672 ,30,3237935318315
21.4347954 ,Left ,63,5020416460827 ,44,9677623046843 ,30,3322524223923
21.4570868 ,Left ,63,4446580943319 ,44,9417187356381 ,30,3345253773497
21.4796993 ,Left ,63,4507019300573 ,44,9356217101395 ,30,3310649937475
21.4946311 ,Left ,63,5084994794578 ,44,9544967898026 ,30,3172597911571
21.517001 ,Left ,63,5250702967838 ,44,960593312131 ,30,3102570874956
21.5321403 ,Left ,63,5267875421823 ,44,9590177787689 ,30,3087265065314
21.5546361 ,Left ,63,4892030828381 ,44,9468316848692 ,30,3117639920952
21.5766578 ,Left ,63,4860196492054 ,44,9467279608144 ,30,3132152373861
21.5995246 ,Left ,63,4992587908826 ,44,9570431113069 ,30,3001960780104
21.6143256 ,Left ,63,5037998376794 ,44,9524517986905 ,30,2929254044978
21.6366868 ,Left ,63,5108772996648 ,44,9405189660933 ,30,2909605024314
21.6594245 ,Left ,63,4835498974777 ,44,9418922509847 ,30,2991049706078
21.6745436 ,Left ,63,4549153085716 ,44,9518265278771 ,30,3176327718679
21.6972546 ,Left ,63,4824538091318 ,44,9631999551818 ,30,3212979942615
21.7198082 ,Left ,63,4889147941405 ,44,9388280531675 ,30,3252763056714
21.7349037 ,Left ,63,4791262144067 ,44,9146613135776 ,30,3368133407152
21.7571597 ,Left ,63,4561348464703 ,44,9006773119848 ,30,3375316939538
21.7794321 ,Left ,63,4598112152836 ,44,8867275990917 ,30,3307202882194
21.7945019 ,Left ,63,5213514815669 ,44,8714060538297 ,30,309322519211
21.8168281 ,Left ,63,5514854854777 ,44,8455035388483 ,30,2966161411526
21.8393885 ,Left ,63,5137968292081 ,44,83075852572 ,30,2984622489889
21.8546476 ,Left ,63,4797214663804 ,44,8476028762589 ,30,2956249594697
21.8770329 ,Left ,63,5187165397349 ,44,8568385325998 ,30,2725647460872
21.8996982 ,Left ,63,5514313207389 ,44,8419388050774 ,30,2541401876618
21.9220922 ,Left ,63,5499138129491 ,44,8338689418687 ,30,2481204900924
21.9447057 ,Left ,63,4974972100754 ,44,8290146763345 ,30,2495129758381
21.9745724 ,Left ,63,4752612135542 ,44,8239281542265 ,30,2672538992361
22.0042982 ,Left ,63,4209469658147 ,44,8246029016625 ,30,2800656560632
22.0268186 ,Left ,63,3282899206987 ,44,8214127829628 ,30,2955823210502
22.0418792 ,Left ,63,2752562815676 ,44,8236432106934 ,30,3310319991328
22.0569531 ,Left ,63,3227563076391 ,44,8482984238855 ,30,335151177722
22.0796869 ,Left ,63,3900262039351 ,44,8713695496346 ,30,3215982752627
22.0947053 ,Left ,63,4309318159483 ,44,8981523772753 ,30,3148024680788
22.1170759 ,Left ,63,3923655347423 ,44,9002803829144 ,30,2959809224392
22.1396627 ,Left ,63,3678076237376 ,44,9006853080041 ,30,272107711133
22.1547494 ,Left ,63,3760353116673 ,44,8841319393082 ,30,2697028272708
22.1843145 ,Left ,63,3900599943963 ,44,8599878776785 ,30,2453626875966
22.2143729 ,Left ,63,3845002485522 ,44,8275768311766 ,30,2177457414769
22.2296978 ,Left ,63,2886358453951 ,44,7880194462377 ,30,2003395777391
22.24455 ,Left ,63,2776477892444 ,44,7711136606207 ,30,2517706541235
22.2598833 ,Left ,63,236591745994 ,44,8782428468984 ,30,2821587197696
22.2746382 ,Left ,63,2629413152397 ,44,9726539466703 ,30,2798754073513
22.2972317 ,Left ,63,3332942941816 ,44,9666223188907 ,30,2900901954808
22.3196925 ,Left ,63,3189893612735 ,44,9703360016769 ,30,298624892339
22.342058 ,Left ,63,2613200492767 ,45,0158588633402 ,30,2784491226172
22.357214 ,Left ,63,2520898965773 ,45,0565297594533 ,30,2486296567371
22.3798251 ,Left ,63,3047101980434 ,45,0577218334126 ,30,2531540472939
22.3948302 ,Left ,63,4123588342354 ,44,9561111561668 ,30,2713457522455
22.4243979 ,Left ,63,4514396494517 ,44,8629105734245 ,30,2941336686417
22.4471012 ,Left ,63,3603715368008 ,44,8501361164659 ,30,3163132121777
22.4696063 ,Left ,63,3400753079627 ,44,8805507247074 ,30,3115165161147
22.4842449 ,Left ,63,4222560694598 ,44,886589002494 ,30,2923524598381
22.5067842 ,Left ,63,4576880630187 ,44,8635800147827 ,30,2791235228202
22.522139 ,Left ,63,3950020241043 ,44,8594096693054 ,30,2578094339154
22.537044 ,Left ,63,3318873579194 ,44,8237092847093 ,30,2070608222395
22.5669578 ,Left ,63,3512346026201 ,44,7658190111415 ,30,1444900012105
22.5896608 ,Left ,63,296268318138 ,44,7123743209644 ,30,1763931723665
22.6045299 ,Left ,63,2161849225437 ,44,7705524011129 ,30,2719533470916
22.6419677 ,Left ,63,2710446591983 ,45,1106111142277 ,30,3517867882331
22.6566939 ,Left ,63,3814681874655 ,45,1764448171859 ,30,339455155934
22.6794671 ,Left ,63,3948115054433 ,45,1727817783905 ,30,3266035934541
22.7015041 ,Left ,63,3187166656497 ,45,1666427825144 ,30,3497620781269
22.7247174 ,Left ,63,2422656972466 ,45,1925380940764 ,30,3875185618822
22.7466776 ,Left ,63,2282559643146 ,45,1769035171218 ,30,4056103885912
22.7769456 ,Left ,63,224404061199 ,45,0788837308307 ,30,4638741530636
22.7993836 ,Left ,63,1713832927782 ,45,041877808764 ,30,4529713774855
22.8219304 ,Left ,63,2052922261692 ,44,9960449276461 ,30,4362540928566
22.8372247 ,Left ,63,160602217658 ,44,9538068988624 ,30,4542001832356
22.859962 ,Left ,63,1033144236133 ,44,9778337433516 ,30,532241349042
22.8823055 ,Left ,63,0816648418297 ,45,1006642664038 ,30,5634546195344
22.8972457 ,Left ,63,1776111127384 ,45,206664102402 ,30,5388331865187
22.9197165 ,Left ,63,2583969171307 ,45,2107441216804 ,30,5078988906555
22.9494345 ,Left ,63,2467734466026 ,45,1704147399977 ,30,4819231747779
22.9644575 ,Left ,63,1818166034126 ,45,1333926797798 ,30,4636996427731
22.9866079 ,Left ,63,20687864705 ,45,1698573205925 ,30,4140556143337
23.0168631 ,Left ,63,3084013677338 ,45,2023274530616 ,30,312942842377
23.039505 ,Left ,63,2746818024801 ,45,2114454897338 ,30,2773783084031
23.06194 ,Left ,63,2750744198584 ,45,1853430077549 ,30,2408566284809
23.0767748 ,Left ,63,2946646554167 ,45,1714781192252 ,30,2094996491893
23.0996544 ,Left ,63,3023023009674 ,45,1820455935599 ,30,1688600467099
23.1220568 ,Left ,63,3165751498862 ,45,1991226611322 ,30,1258758713067
23.1372315 ,Left ,63,3081739835196 ,45,2084830166031 ,30,0892085505149
23.1596168 ,Left ,63,2842396775763 ,45,2279316463149 ,30,0595622241067
23.1822881 ,Left ,63,2550554648683 ,45,2577966548458 ,30,0124564905558
23.197083 ,Left ,63,2592097248258 ,45,2869035871365 ,29,9372139860962
23.2196241 ,Left ,63,2762636329473 ,45,2798947487895 ,29,8547939172072
23.2419782 ,Left ,63,2661801237013 ,45,2684003441257 ,29,8125386533116
23.2570153 ,Left ,63,1499483076265 ,45,2623495447604 ,29,8264446296215
23.2872175 ,Left ,63,0428264355007 ,45,3032891653513 ,29,8321708607247
23.3171976 ,Left ,63,0164636018504 ,45,2578508626981 ,29,7697517138396
23.3322109 ,Left ,63,0057420944514 ,45,132789713766 ,29,7527087753007
23.3471309 ,Left ,62,909654115064 ,45,1409759568007 ,29,7949914501876
23.3847337 ,Left ,63,0968977904347 ,45,2791088768595 ,29,7699230675574
23.3993125 ,Left ,63,2428903302838 ,45,1797967599308 ,29,710422527811
23.4218049 ,Left ,63,2633948808042 ,45,1019366593636 ,29,7359689907099
23.4443557 ,Left ,63,1535766145321 ,45,1579360769164 ,29,7825004904839
23.4593261 ,Left ,63,1265788520856 ,45,1988638548992 ,29,7781887038537
23.4817469 ,Left ,63,2418394751536 ,45,1394417124202 ,29,7530907780167
23.5042689 ,Left ,63,3106474037294 ,45,0672709661514 ,29,7849376164741
23.5195739 ,Left ,63,1093585133545 ,45,0969826554409 ,29,8542508699981
23.5418777 ,Left ,63,0520451169539 ,45,2139745068016 ,29,9236442066123
23.5643508 ,Left ,63,1772261360621 ,45,3726537251737 ,29,9528129717448
23.5796989 ,Left ,63,3251376483265 ,45,4562018129183 ,29,9509576120874
23.6021272 ,Left ,63,3729572501487 ,45,4467292908187 ,29,9625819048253
23.6245 ,Left ,63,2861256375194 ,45,4045307080681 ,29,9946945965978
23.6393102 ,Left ,63,240059946933 ,45,3542757411275 ,30,0243024315306
23.6619668 ,Left ,63,3250042659663 ,45,3303093165038 ,30,0394468734998
23.6847449 ,Left ,63,4304535063157 ,45,305593107319 ,30,0549367684428
23.6993771 ,Left ,63,4508589160376 ,45,287996672698 ,30,0947932934087
23.7219643 ,Left ,63,4202403766006 ,45,2422738795307 ,30,1271940597513
23.7443673 ,Left ,63,3823586567188 ,45,1606279468584 ,30,1338980783369
23.7595432 ,Left ,63,4307133059563 ,45,1117897050735 ,30,1189541741602
23.7900537 ,Left ,63,4800134369288 ,45,0844515489601 ,30,1120236556014
23.8124345 ,Left ,63,5097896344084 ,45,0550150917513 ,30,1004567980029
23.8273579 ,Left ,63,4979760111087 ,45,0210223753056 ,30,1103774450392
23.8422469 ,Left ,63,4930687366418 ,44,9886309207678 ,30,1305112415789
23.8646938 ,Left ,63,5173861477577 ,44,9742522414549 ,30,1446172849644
23.8797087 ,Left ,63,5419519112892 ,44,9825534993238 ,30,1552666328656
23.9020853 ,Left ,63,5691581693844 ,44,982187300819 ,30,1678986540702
23.9247009 ,Left ,63,5914015747102 ,44,9768739950176 ,30,1775586500719
23.9396785 ,Left ,63,566395075698 ,44,9727687182591 ,30,1893376939065
23.9692422 ,Left ,63,5487316978315 ,44,9737581129906 ,30,1981576785818
23.9916726 ,Left ,63,5538661770455 ,44,9799062313564 ,30,1990713130438
24.0067056 ,Left ,63,5587765679887 ,44,9784510708378 ,30,196081973627
24.0219847 ,Left ,63,5426405015893 ,44,9627562492754 ,30,1972794441993
24.0442621 ,Left ,63,5196288624402 ,44,9444474732866 ,30,2107783432468
24.0593051 ,Left ,63,4926392664043 ,44,9471877899519 ,30,2373491751869
24.0822518 ,Left ,63,4578143781866 ,44,9567660724141 ,30,2534693570979
24.1049988 ,Left ,63,4137400192152 ,44,9552541859058 ,30,2701352539701
24.1200767 ,Left ,63,3674051045659 ,44,923381142464 ,30,3020438811408
24.1424904 ,Left ,63,2593477748195 ,44,8895922970782 ,30,3355637814838
24.164782 ,Left ,63,179127050829 ,44,8804687309596 ,30,367001233122
24.1796038 ,Left ,63,2294688474551 ,44,925725310766 ,30,3808432664535
24.194634 ,Left ,63,2823285440403 ,44,976978527921 ,30,3689610938916
24.2170434 ,Left ,63,3038077282676 ,45,0138063447613 ,30,3611528906791
24.2320268 ,Left ,63,2924399268156 ,45,0158088819725 ,30,3374486754859
24.2544279 ,Left ,63,2426729029907 ,44,9951960163597 ,30,3261990527901
24.2769956 ,Left ,63,2321456035916 ,44,9364197265426 ,30,3073824729987
24.2921625 ,Left ,63,211502173459 ,44,8714664357076 ,30,3100053391815
24.3220065 ,Left ,63,1073441007047 ,44,8703060401441 ,30,3036806709337
24.3445497 ,Left ,63,0772363918192 ,44,888559061046 ,30,3846060501952
24.3594596 ,Left ,63,1349798843627 ,44,9552868825878 ,30,3912832099454
24.3746569 ,Left ,63,2413544180374 ,44,9980845987778 ,30,3634856482038
24.3970794 ,Left ,63,3172095031341 ,44,9820116842123 ,30,3333165824244
24.4196438 ,Left ,63,2684270004521 ,44,9891907453358 ,30,3290480836438
24.4416428 ,Left ,63,2527256013537 ,44,9665101529259 ,30,3013898091286
24.4719806 ,Left ,63,3465499617464 ,44,8662974448981 ,30,2810990237341
24.4942411 ,Left ,63,4066378513038 ,44,793441061465 ,30,2850497342463
24.5167312 ,Left ,63,3119839648119 ,44,8113219170572 ,30,2926445609315
24.5317694 ,Left ,63,307439614456 ,44,8774881126493 ,30,2719962775562
24.5545707 ,Left ,63,2539323630694 ,44,9401322272517 ,30,3524663351794
24.5774476 ,Left ,63,2207598358204 ,45,1070984407233 ,30,4825795375263
24.592561 ,Left ,63,3454509728026 ,45,2330676097271 ,30,5237351841291
24.6225634 ,Left ,63,4809157744353 ,45,2556930486652 ,30,5258753072057
24.6449725 ,Left ,63,4585967014741 ,45,2544455815129 ,30,5275330722019
24.6596746 ,Left ,63,3483128332046 ,45,2391194763859 ,30,5356686530386
24.6746185 ,Left ,63,3706431350729 ,45,3107003338604 ,30,5082546770274
24.6969579 ,Left ,63,4585837561124 ,45,3647709393012 ,30,4299354252935
24.7115944 ,Left ,63,4987078656634 ,45,380646847079 ,30,3752522799124
24.7348768 ,Left ,63,4252627360046 ,45,3714600314516 ,30,3854360093632
24.7648563 ,Left ,63,3737908147619 ,45,329916512309 ,30,4115763104192
24.7795724 ,Left ,63,4045446786299 ,45,2973740518842 ,30,4309587611259
24.8017408 ,Left ,63,4564788616567 ,45,2723052197274 ,30,4297087881594
24.8169518 ,Left ,63,4256816078173 ,45,2471518372418 ,30,4327546164029
24.8316917 ,Left ,63,381011222388 ,45,2088322894151 ,30,4550960498757
24.8542103 ,Left ,63,3571644586846 ,45,1591397863668 ,30,4947655203139
24.8768028 ,Left ,63,3162372170959 ,45,1336255826426 ,30,5220247105666
24.921968 ,Left ,63,1499844386492 ,45,2526645145242 ,30,6275239615018
24.936866 ,Left ,63,2127415765689 ,45,3889297994588 ,30,6408352333468
24.9746258 ,Left ,63,4210495681451 ,45,4198343606044 ,30,5938702284457
24.9972281 ,Left ,63,3756034464696 ,45,3951343347385 ,30,5782532944658
25.0348028 ,Left ,63,393919500048 ,45,4280588313842 ,30,5447591626341
25.057535 ,Left ,63,4353304352442 ,45,4206185162346 ,30,5201388111244
25.0950479 ,Left ,63,4724580502304 ,45,3476534557851 ,30,495252009651
25.1173111 ,Left ,63,4299411839889 ,45,3001177640649 ,30,4713857389865
25.1546492 ,Left ,63,4720203417009 ,45,2826237575627 ,30,4056795163186
25.1770105 ,Left ,63,5477231511462 ,45,2694418548688 ,30,3545403469684
25.2147557 ,Left ,63,4889619107296 ,45,2141516698939 ,30,2733663933122
25.2518586 ,Left ,63,4655178409195 ,45,3026630308447 ,30,1669003154505
25.2742169 ,Left ,63,5036099844987 ,45,3378181144295 ,30,0973635202179
25.3117636 ,Left ,63,4218771184616 ,45,3923054747457 ,29,9730159219845
25.3342065 ,Left ,63,3542990005859 ,45,4088714307356 ,29,9153946487664
25.3723233 ,Left ,63,3289163123238 ,45,3611980361217 ,29,8660762399195
25.4024457 ,Left ,63,2977364178418 ,45,328495034615 ,29,8324613962117
25.4619683 ,Left ,63,2003705353852 ,45,3867007617658 ,29,876423395714
25.4846096 ,Left ,63,3278427484388 ,45,4809745994352 ,29,8406379436331
25.5146617 ,Left ,63,4504764249457 ,45,2971254051504 ,29,7565485011761
25.5371578 ,Left ,63,3359313501792 ,45,1710880835523 ,29,7725590456521
25.5747711 ,Left ,63,4231664312934 ,45,2516210539734 ,29,7370126025046
25.5971615 ,Left ,63,5261766682284 ,45,2010084050265 ,29,7032367459012
25.6342156 ,Left ,63,3196583486523 ,45,1171324524431 ,29,8201482703328
25.6569693 ,Left ,63,243698954613 ,45,1897188580034 ,29,8879778329359
25.6943833 ,Left ,63,4775166766286 ,45,5489465647275 ,29,9823263209698
25.7246788 ,Left ,63,5608562642966 ,45,5916435265704 ,29,9854383076085
25.7617712 ,Left ,63,497873072145 ,45,4903041923385 ,29,972845662277
25.7768845 ,Left ,63,4222364318253 ,45,393089538283 ,29,9831382390052
25.8226618 ,Left ,63,5130249819179 ,45,3786779793718 ,29,9855216063202
25.8749356 ,Left ,63,5061228394431 ,45,2929190552768 ,30,0317988437257
25.9121926 ,Left ,63,5237020613234 ,45,1824006373277 ,30,071071642503
25.9345382 ,Left ,63,5488663304853 ,45,1867851867629 ,30,0799613187481
25.9721009 ,Left ,63,6629998931904 ,45,1091974902255 ,30,081666573792
26.0098104 ,Left ,63,620557321403 ,45,092515879188 ,30,0900023792969
26.069696 ,Left ,63,6285096532475 ,45,1089032653125 ,30,084904014528
26.0998308 ,Left ,63,5699489495636 ,45,1005570086447 ,30,0996001519521
26.1145301 ,Left ,63,5224284766141 ,45,1017995420993 ,30,1121429960581
26.1447018 ,Left ,63,5780018594294 ,45,068811157666 ,30,0840192467716
26.167478 ,Left ,63,5659934708616 ,45,0348808776983 ,30,0992430000677
26.1900385 ,Left ,63,4912829619993 ,45,033048071519 ,30,1274471604973
26.2050522 ,Left ,63,449374114529 ,45,0316223977668 ,30,1435034164483
26.2275927 ,Left ,63,4336268508649 ,45,0173728633747 ,30,1631511191998
26.2498653 ,Left ,63,3982258133807 ,45,0248428433607 ,30,2009290992881
26.2645567 ,Left ,63,288359161733 ,45,0276623919697 ,30,2322659319019
26.2870541 ,Left ,63,180453670302 ,45,0284299950432 ,30,2359422496078
26.309601 ,Left ,63,1866772937005 ,45,0052822458965 ,30,2610735880161
26.3319596 ,Left ,63,2193095258866 ,45,0770331306695 ,30,2540024920919
26.3470569 ,Left ,63,2916210585792 ,45,1265579376995 ,30,2123954525139
26.3770624 ,Left ,63,2980543844041 ,45,1066962123965 ,30,1863752034641
26.3997524 ,Left ,63,2841076535322 ,45,0644523045109 ,30,1754350603633
26.4144188 ,Left ,63,2385234692036 ,45,0559089281406 ,30,1511128467198
26.429584 ,Left ,63,2325139892437 ,45,0248468311682 ,30,1323710113952
26.4597462 ,Left ,63,2989398563858 ,44,9956992798808 ,30,1068876401453
26.4744506 ,Left ,63,359003372434 ,44,9240135246857 ,30,0818819986597
26.496946 ,Left ,63,1612790126167 ,44,8778339819125 ,30,1827991860002
26.5118731 ,Left ,63,1580560591179 ,44,8917051878099 ,30,2670071246419
26.527088 ,Left ,63,2415845906476 ,44,9782304105265 ,30,2622780383527
26.5497204 ,Left ,63,3280292391334 ,45,0075800838228 ,30,2389481639784
26.5718542 ,Left ,63,3419367370174 ,45,0059340090401 ,30,2340458824788
26.5870768 ,Left ,63,3165008417861 ,45,0150397109252 ,30,2355051150324
26.6020333 ,Left ,63,2760766006976 ,44,9976490654281 ,30,2143705912694
26.6245485 ,Left ,63,3063174659185 ,44,9536144564772 ,30,2098681657245
26.6467717 ,Left ,63,3379152916585 ,44,8862941865737 ,30,1899798428899
26.6693759 ,Left ,63,3457104438719 ,44,8701892739323 ,30,2053793360722
26.6918785 ,Left ,63,3067644212388 ,44,936993136638 ,30,2032758241655
26.7066019 ,Left ,63,2266644797437 ,45,0508211809406 ,30,2645329941029
26.729293 ,Left ,63,2880726315767 ,45,2070634272087 ,30,3220794870519
26.7522712 ,Left ,63,4556362580846 ,45,3224895954858 ,30,2803004540614
26.7676226 ,Left ,63,5198476627388 ,45,3273909008875 ,30,2466995352144
26.7900468 ,Left ,63,4090110397629 ,45,2988466955649 ,30,2659055391759
26.812541 ,Left ,63,3207298773319 ,45,2985735140606 ,30,3001338943968
26.8274639 ,Left ,63,3625302993527 ,45,3483734145432 ,30,2875240465954
26.85758 ,Left ,63,4380306748317 ,45,3350768662997 ,30,2594198442545
26.8800568 ,Left ,63,3703496484443 ,45,3348753420305 ,30,2746538007865
26.8946737 ,Left ,63,2757719885384 ,45,2802243204557 ,30,3129734726141
26.9096346 ,Left ,63,2630796090751 ,45,2131512552839 ,30,3287788731603
26.9318989 ,Left ,63,3216653861128 ,45,1879699541357 ,30,3018633698297
26.9475092 ,Left ,63,3596120054672 ,45,1319108054494 ,30,2652968251405
26.9701637 ,Left ,63,3408645323909 ,45,071483656473 ,30,2843923044615
26.9925333 ,Left ,63,2347013439671 ,45,0888481052508 ,30,3288696636003
27.0073382 ,Left ,63,1749263054623 ,45,2432170236638 ,30,3810373422431
27.0297614 ,Left ,63,2374085984955 ,45,4621843341404 ,30,3796465669634
27.052097 ,Left ,63,3144626439546 ,45,5720753064037 ,30,3577970734969
27.0821637 ,Left ,63,3670815042736 ,45,5574811033248 ,30,3424355108024
27.0969964 ,Left ,63,3517010457662 ,45,5041245871081 ,30,3237923571099
27.1195161 ,Left ,63,2776388478324 ,45,4716189480009 ,30,3064575576246
27.1344513 ,Left ,63,3133946557004 ,45,4850112700231 ,30,259886179994
27.1497273 ,Left ,63,3749086181691 ,45,4719919348644 ,30,2284121925877
27.1719205 ,Left ,63,3874048626712 ,45,4464054484163 ,30,2145408618661
27.1944946 ,Left ,63,3581382576991 ,45,4039695995976 ,30,1925445845692
27.2169995 ,Left ,63,3343681941659 ,45,373997403104 ,30,1772013255203
27.2469844 ,Left ,63,4007280116658 ,45,3958749308968 ,30,088219333869
27.2694539 ,Left ,63,440772245303 ,45,4027048573647 ,30,043568281564
27.2996033 ,Left ,63,4116555567967 ,45,4144352356268 ,30,0271473304166
27.3220884 ,Left ,63,349208686917 ,45,4351337823139 ,30,0179555903986
27.3368652 ,Left ,63,3379106761999 ,45,4437957270234 ,29,9893520440494
27.3520314 ,Left ,63,3618180693706 ,45,4198862999842 ,29,9534392348336
27.3751912 ,Left ,63,3181290893001 ,45,4184734073072 ,29,9342188190511
27.3901746 ,Left ,63,179707613915 ,45,4059708101029 ,29,9641366556334
27.4125491 ,Left ,63,1037268256393 ,45,379737729075 ,29,9917919990071
27.4348551 ,Left ,63,0912818280076 ,45,3967517310303 ,30,0137209455524
27.4501722 ,Left ,63,0832303862212 ,45,3915074181429 ,30,029677006571
27.4726038 ,Left ,63,0771393580377 ,45,3936998799222 ,30,0511985741619
27.4952763 ,Left ,63,1962333390239 ,45,3560836899832 ,30,0066121198517
27.5099337 ,Left ,63,2687136652126 ,45,313063552807 ,29,9847431673204
27.5321694 ,Left ,63,2623664459511 ,45,2998226508647 ,29,9704721346099
27.554377 ,Left ,63,2692881469584 ,45,2874342020195 ,29,942874953012
27.5694575 ,Left ,63,32378796702 ,45,270522533516 ,29,8892522865068
27.5919708 ,Left ,63,3730714976276 ,45,2482350898454 ,29,8347729377935
27.6144326 ,Left ,63,4293630468148 ,45,2284648512058 ,29,8236566380817
27.6296044 ,Left ,63,4250520120394 ,45,2320390183622 ,29,8482437651165
27.6595168 ,Left ,63,4020812116957 ,45,219382113008 ,29,8645465915866
27.6820086 ,Left ,63,401270829062 ,45,1777078471713 ,29,8859039458327
27.6972716 ,Left ,63,3438058805393 ,45,1785757738691 ,29,9431889562486
27.7120548 ,Left ,63,4060830257055 ,45,2489999659154 ,29,9623584860386
27.734723 ,Left ,63,4898880309248 ,45,332425652001 ,29,9458886574938
27.7495554 ,Left ,63,5445262061762 ,45,3390800662478 ,29,9321799390057
27.7717452 ,Left ,63,5596995771366 ,45,2964634983106 ,29,9305291419791
27.7942378 ,Left ,63,5021806508772 ,45,2339908175308 ,29,9715192147005
27.8095492 ,Left ,63,4932939396393 ,45,2586689354164 ,30,0115347200131
27.8321227 ,Left ,63,5396969386494 ,45,3147341360571 ,30,0229016663277
27.8544467 ,Left ,63,6037400880376 ,45,3037493421733 ,30,033764072448
27.8695665 ,Left ,63,5963636655697 ,45,2472591585503 ,30,0600728976173
27.8920949 ,Left ,63,5104757478715 ,45,2090037587728 ,30,1116399541162
27.9145496 ,Left ,63,4502450523321 ,45,218205148367 ,30,1390631125029
27.9296101 ,Left ,63,4698143012002 ,45,2042783946724 ,30,1303120960697
27.9520743 ,Left ,63,5328401857606 ,45,1577528769163 ,30,1247226588701
27.9747078 ,Left ,63,5414087620575 ,45,0922116002228 ,30,136253734654
27.9901865 ,Left ,63,4898691434318 ,45,0486080657634 ,30,1387712755778
28.0124382 ,Left ,63,4701964716146 ,45,0143754794728 ,30,1373721113002
28.0345666 ,Left ,63,522512519524 ,45,0048909095793 ,30,1333181673213
28.0570973 ,Left ,63,5782224019211 ,45,0061383377449 ,30,1207895888377
28.0792583 ,Left ,63,5742607114925 ,45,0085963241697 ,30,119119445731
28.1093854 ,Left ,63,5422930210308 ,45,0231138491093 ,30,1212885053941
28.1397705 ,Left ,63,543801243446 ,45,0461000063653 ,30,1128824849417
28.1622825 ,Left ,63,5326793513537 ,45,0729856211901 ,30,104470868934
28.1847078 ,Left ,63,5277573208911 ,45,0761166435944 ,30,093286171878
28.207015 ,Left ,63,5237450605827 ,45,0666592341602 ,30,0951997896207
28.2446223 ,Left ,63,4702329751772 ,45,0610713680381 ,30,0939943179348
28.2598501 ,Left ,63,4600147444121 ,45,056444948252 ,30,1013880205445
28.2748167 ,Left ,63,4203071823704 ,45,0795228229751 ,30,1290584641124
28.3046069 ,Left ,63,3302036590385 ,45,114243458832 ,30,1860674499129
28.3197741 ,Left ,63,2173764224281 ,45,1190374180412 ,30,1990359811819
28.3423244 ,Left ,63,199038072293 ,45,0756079747844 ,30,2171108565189
28.3799029 ,Left ,63,1646847405826 ,45,1122160261876 ,30,226660022909
28.4173649 ,Left ,63,2341832171689 ,45,1407706890423 ,30,1876514990743
28.4322031 ,Left ,63,2085066371205 ,45,1431649717977 ,30,1450232231875
28.4544126 ,Left ,63,1898770674872 ,45,1050673599506 ,30,1208134543586
28.476922 ,Left ,63,166747439011 ,45,0451057158903 ,30,1046462849856
28.4917629 ,Left ,63,2344679309111 ,45,0081368245785 ,30,0773656979795
28.5144572 ,Left ,63,1031796483116 ,45,0162820202637 ,30,1257768693568
28.5367593 ,Left ,63,1273553857916 ,45,0315943623428 ,30,2034883104062
28.5518889 ,Left ,63,2111331073051 ,45,0838931770077 ,30,1933283636276
28.5744198 ,Left ,63,2923654299633 ,45,0668514829249 ,30,1703320445734
28.5969277 ,Left ,63,3137268510287 ,45,0990423104346 ,30,1804819756264
28.6124651 ,Left ,63,2254051338948 ,45,1636929923717 ,30,1911233666464
28.6349396 ,Left ,63,2907723766354 ,45,1574962217998 ,30,1458680254243
28.6647894 ,Left ,63,2594989702336 ,45,1104169190112 ,30,1652729336978
28.6799801 ,Left ,63,2192744163105 ,45,1454480008435 ,30,2070100247035
28.7021617 ,Left ,63,216736743604 ,45,2529267720183 ,30,1964444091956
28.7173827 ,Left ,63,3400622127579 ,45,3020066474389 ,30,1545693192855
28.7322755 ,Left ,63,4133349161726 ,45,2956546962725 ,30,1259138380165
28.7550888 ,Left ,63,3272225934976 ,45,3213816188891 ,30,1400275043801
28.7775456 ,Left ,63,2091937458264 ,45,3516685806115 ,30,1605993689536
28.7922576 ,Left ,63,2206233226065 ,45,356691608522 ,30,1554527818956
28.8146035 ,Left ,63,2384952601715 ,45,3492900042043 ,30,1211486635128
28.8368252 ,Left ,63,2145099878585 ,45,304903298638 ,30,1136489150182
28.8517577 ,Left ,63,1830621175303 ,45,2231365258033 ,30,130116318705
28.8745665 ,Left ,63,1601755694516 ,45,1304186904286 ,30,1675031881766
28.8969182 ,Left ,63,0626279297379 ,45,1266536983932 ,30,234271362041
28.911623 ,Left ,63,0452032160613 ,45,2653714358075 ,30,2612382970295
28.9345068 ,Left ,63,1070640322556 ,45,3923383865915 ,30,2317975947392
28.9567428 ,Left ,63,2195919000151 ,45,4209367013407 ,30,1971284666966
28.9795478 ,Left ,63,2830065864326 ,45,4280132058605 ,30,144906515376
28.9946217 ,Left ,63,2573356555569 ,45,4421374693534 ,30,092935568893
29.0169713 ,Left ,63,2321010450544 ,45,4366689994202 ,30,0454293971037
29.039394 ,Left ,63,2904391194721 ,45,4256625117514 ,29,9835097202764
29.0621108 ,Left ,63,33297099503 ,45,4191446750839 ,29,922791062418
29.084718 ,Left ,63,3196635393032 ,45,4245836385064 ,29,8808246999385
29.0997002 ,Left ,63,3271813643273 ,45,4260246868166 ,29,8274087827088
29.1219342 ,Left ,63,3382059675622 ,45,4020937525094 ,29,7588711691883
29.1448498 ,Left ,63,3627782180191 ,45,3665071044183 ,29,7033331972943
29.1669819 ,Left ,63,3800832143462 ,45,3455181644164 ,29,6614088601367
29.1817921 ,Left ,63,3595451163059 ,45,3288297511605 ,29,6286336381768
29.1967803 ,Left ,63,3629827946958 ,45,3111251287968 ,29,5895667434363
29.2270226 ,Left ,63,3668370011245 ,45,2983569758019 ,29,5475794721123
29.2420998 ,Left ,63,3398152731257 ,45,31710832479 ,29,5188115996336
29.2868228 ,Left ,63,3133588004574 ,45,3657422084358 ,29,4596233482989
29.3019151 ,Left ,63,3138832240005 ,45,3564473276337 ,29,4414289369138
29.3467768 ,Left ,63,1969034766626 ,45,3393442437247 ,29,4400340215192
29.3620159 ,Left ,63,1894852059282 ,45,2897752898028 ,29,4965447364821
29.3772406 ,Left ,63,0392680069938 ,45,2573059285496 ,29,5786306490544
29.3999878 ,Left ,62,9298589444216 ,45,2641681082236 ,29,6517536670955
29.4143262 ,Left ,62,9400741566422 ,45,2909476538148 ,29,7194128920587
29.436746 ,Left ,63,0553856198737 ,45,2828445766016 ,29,7195465686102
29.4595683 ,Left ,63,1970125719738 ,45,1757652081101 ,29,6451077174274
29.4746008 ,Left ,63,2288432291008 ,44,992902211331 ,29,6124750211571
29.4971844 ,Left ,63,1500129574139 ,44,9346817267913 ,29,6435394538017
29.5196103 ,Left ,63,1756234967513 ,45,0020846412042 ,29,6572075551934
29.5345837 ,Left ,63,2432257005257 ,45,0064222023852 ,29,6028112797125
29.5571073 ,Left ,63,2755243831582 ,44,928636131651 ,29,5921152927385
29.5799046 ,Left ,63,2087347930038 ,44,8835286522452 ,29,6401798536242
29.5946386 ,Left ,63,182052909726 ,44,9747416245393 ,29,6831329815277
29.6244236 ,Left ,63,2653773241978 ,45,0995911807438 ,29,6751100880659
29.6470992 ,Left ,63,3739278462855 ,45,1192475009133 ,29,6610143310745
29.6616994 ,Left ,63,4111450299935 ,45,0963704168471 ,29,6623259742607
29.6767971 ,Left ,63,3402210710452 ,45,0591167427497 ,29,6905154043627
29.6992763 ,Left ,63,3028650078029 ,45,0178844993429 ,29,724081656605
29.7147025 ,Left ,63,2913521502685 ,44,9899476019932 ,29,752384205456
29.737479 ,Left ,63,3105864247563 ,44,9684845605061 ,29,7626437057543
29.7599792 ,Left ,63,2865019281616 ,44,9584563594308 ,29,7813247635484
29.7820492 ,Left ,63,2432158228251 ,44,9670561329847 ,29,8006814535296
29.8045104 ,Left ,63,2948125806603 ,44,9574888660623 ,29,792262249651
29.8347951 ,Left ,63,3192928421691 ,44,8876239057135 ,29,8171084950932
29.8571832 ,Left ,63,3480135536818 ,44,8534018381613 ,29,8284643351582
29.8797281 ,Left ,63,3569994964973 ,44,8396338063692 ,29,8372098778183
29.8947287 ,Left ,63,3983995835324 ,44,8557519382465 ,29,8417852112702
29.9172451 ,Left ,63,4385635071407 ,44,8883482371649 ,29,8432864163138
29.9395278 ,Left ,63,4621274035133 ,44,9075761318831 ,29,8427219816608
29.9616899 ,Left ,63,431839017746 ,44,903235595338 ,29,8442536665995
29.9768788 ,Left ,63,408888871952 ,44,8946885436983 ,29,8477525845607
29.999216 ,Left ,63,4249112188663 ,44,8973529763966 ,29,8468843156326
30.0067673 ,Left ,63,4175245982319 ,44,9050524346575 ,29,8618291151673
30.0296143 ,Left ,63,4071604576877 ,44,9161383753723 ,29,8703769888872
30.052029 ,Left ,63,3929366470549 ,44,9259919133554 ,29,8796392160646
30.0668628 ,Left ,63,3914960851084 ,44,9213593118677 ,29,8904772381093
30.0893076 ,Left ,63,3925108752025 ,44,9219638718352 ,29,8980128782258
30.1118622 ,Left ,63,3524139679581 ,44,9205123406892 ,29,9054650254432
30.1268126 ,Left ,63,3012087217452 ,44,9401584427002 ,29,9397014267813
30.1569279 ,Left ,63,2216162504451 ,44,9603675794962 ,29,9466361888899
30.1796943 ,Left ,63,1528195065319 ,44,9396444924826 ,29,9441386887606
30.2094348 ,Left ,63,0317836796717 ,44,9736473357119 ,29,9970566327927
30.2320451 ,Left ,63,0736228740336 ,45,0203708123333 ,29,9721099170646
30.2469466 ,Left ,63,1417945203621 ,45,0015124963101 ,29,9539697979477
30.2696809 ,Left ,63,1748077372404 ,44,9673377295363 ,29,9211176359967
30.2920654 ,Left ,63,109318014965 ,44,9246532662673 ,29,8979756218112
30.3071525 ,Left ,63,1157576210353 ,44,8695708082946 ,29,8812677158429
30.3292987 ,Left ,63,1763996675625 ,44,8414768385829 ,29,868588556508
30.351799 ,Left ,63,2479286697497 ,44,7816892602879 ,29,839352450437
30.3668791 ,Left ,63,1663171560891 ,44,7129944875143 ,29,8506139810027
30.3893062 ,Left ,63,1655459190609 ,44,678159767847 ,29,9208400081893
30.4118335 ,Left ,63,223700424014 ,44,7352581454263 ,29,9470366441475
30.4425185 ,Left ,63,3770312362652 ,44,7714702072409 ,29,895184001255
30.4652344 ,Left ,63,3849909849919 ,44,7664091449891 ,29,8914086330663
30.5099286 ,Left ,63,4308944045726 ,44,8625829763506 ,29,8202952120838
30.5323503 ,Left ,63,4173257880922 ,44,7858950349066 ,29,8335834189795
30.5696425 ,Left ,63,2847354126378 ,44,805351162426 ,29,9286090554241
30.5917812 ,Left ,63,3666722320117 ,44,9041979303347 ,29,9231703087253
30.6293384 ,Left ,63,4124794249375 ,45,019449287153 ,29,9792233121315
30.6518025 ,Left ,63,3873970792207 ,45,0124046697265 ,30,0071551708255
30.6895215 ,Left ,63,3521653037025 ,45,0652030252215 ,29,9804344447285
30.7120986 ,Left ,63,4209935723051 ,45,0841063946769 ,29,9260436447198
30.7492585 ,Left ,63,421354269901 ,45,1166775635892 ,29,8823318013313
30.7719291 ,Left ,63,3894451760147 ,45,1209863414211 ,29,8612848403622
30.8169365 ,Left ,63,4615652287345 ,45,0725112821257 ,29,8577605156804
30.8692819 ,Left ,63,4071925596748 ,45,107337934869 ,29,9118557565485
30.8917595 ,Left ,63,4558956563762 ,45,0401836711227 ,29,9118276750396
30.9294079 ,Left ,63,3789172194847 ,45,089645876159 ,29,9863820867324
30.9522064 ,Left ,63,4655838613618 ,45,1332410996023 ,29,9852080013308
30.9974699 ,Left ,63,5054802437225 ,45,0672778143195 ,29,9415060749657
31.0272789 ,Left ,63,4058064656864 ,45,0442621353092 ,29,9318219094869
31.0572185 ,Left ,63,4623226294069 ,45,002023674241 ,29,8730842087997
31.0718369 ,Left ,63,4764997587079 ,44,9312275147687 ,29,8767090643077
31.110106 ,Left ,63,2949758996626 ,44,9955102449332 ,29,9771922890071
31.1323836 ,Left ,63,3678529083908 ,45,0739941680416 ,29,9703373297257
31.1694852 ,Left ,63,498757302903 ,45,131683739208 ,29,9261217607691
31.1917694 ,Left ,63,4473259009696 ,45,1558067399668 ,29,8886175535361
31.2293475 ,Left ,63,4372684275954 ,45,2125282520664 ,29,7762579218657
31.2520437 ,Left ,63,4677435012062 ,45,232064212146 ,29,7060644035947
31.2893888 ,Left ,63,3771101398081 ,45,2794754036468 ,29,6122531341506
31.3422255 ,Left ,63,3683846137607 ,45,3020411028148 ,29,5541258924751
31.3644985 ,Left ,63,3124392162337 ,45,3183063442112 ,29,5705100499891
31.409225 ,Left ,63,2020115674676 ,45,160637143639 ,29,5761929597549
31.4471345 ,Left ,62,9780039767588 ,45,2705995468239 ,29,7604779054318
31.4697157 ,Left ,63,0271537030103 ,45,3815575583711 ,29,8644594231637
31.4920411 ,Left ,63,2824091803527 ,45,3723135920313 ,29,8599214515909
31.52935 ,Left ,63,2915298686826 ,45,1626294501369 ,29,8113288381263
31.5518238 ,Left ,63,3094053623945 ,45,1685141955331 ,29,8239587297875
31.5896261 ,Left ,63,477623457573 ,45,2804729237376 ,29,7478454463683
31.6195956 ,Left ,63,4298201173568 ,45,2329415190326 ,29,7316257772604
31.6571435 ,Left ,63,3762098795805 ,45,1595727916361 ,29,7097079885995
31.6871408 ,Left ,63,4296837815986 ,45,1001293440415 ,29,6658618763799
31.7095672 ,Left ,63,3409370831242 ,45,1490553346212 ,29,7484128542909
31.7322376 ,Left ,63,358789934454 ,45,3039373529242 ,29,7789388620664
31.7695561 ,Left ,63,5555347431699 ,45,4702912966365 ,29,7779786969829
31.7918167 ,Left ,63,5685704774272 ,45,5348041077133 ,29,8038595481744
31.8294866 ,Left ,63,502732430198 ,45,6202099970241 ,29,8560398110096
31.8443283 ,Left ,63,5447558133306 ,45,6073998826115 ,29,8759977035271
31.8669778 ,Left ,63,569085593704 ,45,5529782498736 ,29,8848101456201
31.8819411 ,Left ,63,5236533392495 ,45,5122574255436 ,29,901522767905
31.9046674 ,Left ,63,4818463326365 ,45,493655016337 ,29,9181700246958
31.9268749 ,Left ,63,4750239354205 ,45,4675681879821 ,29,9150683346633
31.9421023 ,Left ,63,5493646098942 ,45,3973298644143 ,29,8797614753023
31.9647637 ,Left ,63,5634586674053 ,45,3089472128684 ,29,8742348275978
31.9872047 ,Left ,63,5719299138286 ,45,2536603167904 ,29,8813256564002
32.0020977 ,Left ,63,619945646252 ,45,2288374459455 ,29,8789701069119
32.0247246 ,Left ,63,6767237916619 ,45,2121304596857 ,29,8769648247579
32.0468897 ,Left ,63,7088701958861 ,45,1910055310479 ,29,8811082835515
32.0619381 ,Left ,63,6877202656251 ,45,1885743761275 ,29,8869805787592
32.0845205 ,Left ,63,6959769497611 ,45,2106257982432 ,29,8875637315114
32.1070632 ,Left ,63,7188182472061 ,45,2405773927341 ,29,8880957719593
32.122094 ,Left ,63,7502336262933 ,45,2621536937541 ,29,8725833481434
32.1446318 ,Left ,63,7261092516885 ,45,2556976385346 ,29,8698450852685
32.1668861 ,Left ,63,6972346583338 ,45,2461557856123 ,29,8704998469482
32.1821044 ,Left ,63,6935254218656 ,45,2548679820187 ,29,8693778762518
32.2048073 ,Left ,63,7149136982841 ,45,2635919844917 ,29,864125540852
32.2268739 ,Left ,63,7307409003167 ,45,2694421029042 ,29,8648976322953
32.2420931 ,Left ,63,6955078493725 ,45,2672449595993 ,29,8777246589564
32.2645497 ,Left ,63,6333925508025 ,45,2749185582421 ,29,9003075273441
32.2869577 ,Left ,63,6090437096248 ,45,2925430778319 ,29,9080607027447
32.3019767 ,Left ,63,5848604429086 ,45,2783941670029 ,29,9448253298205
32.3244355 ,Left ,63,498539501618 ,45,2430467850019 ,29,9527850453788
32.3469593 ,Left ,63,4796948799609 ,45,1602340993793 ,29,9931054841991
32.3694872 ,Left ,63,5582383865971 ,45,118733797608 ,30,000835469629
32.3995453 ,Left ,63,5190615695193 ,45,1159296064036 ,29,9587820107939
32.4220447 ,Left ,63,5669265944546 ,45,1120312916295 ,29,9271116371565
32.4518451 ,Left ,63,5990071498369 ,45,1367094235144 ,29,8669519154579
32.4896224 ,Left ,63,580130506867 ,45,111094546332 ,29,8619011097728
32.504655 ,Left ,63,571634263014 ,45,0912589275121 ,29,8856153634891
32.5418504 ,Left ,63,5993276915545 ,44,9677266220493 ,29,8644676328519
32.5645757 ,Left ,63,457474450837 ,44,9712790368554 ,29,9173269682121
32.5945487 ,Left ,63,4463327475473 ,45,040671898671 ,29,9699133215201
32.6093992 ,Left ,63,4870651957492 ,45,1447768029963 ,29,9637168503098
32.6320332 ,Left ,63,543104812298 ,45,1955240938126 ,29,9626250388194
32.6467591 ,Left ,63,5349418779611 ,45,2584537196603 ,29,9594362721966
32.6620452 ,Left ,63,4760835350206 ,45,289908680543 ,29,952331036119
32.6842431 ,Left ,63,5011084482682 ,45,2494602508482 ,29,9039376513959
32.7069614 ,Left ,63,4958922279455 ,45,1429666750904 ,29,8925281525018
32.7220278 ,Left ,63,4643309566398 ,45,0993647149209 ,29,9447128745691
32.7520786 ,Left ,63,4331921069402 ,45,1721637497048 ,29,9471944290306
32.7742974 ,Left ,63,5211145591123 ,45,2423170602987 ,29,9216305795231
32.7893512 ,Left ,63,5834227964562 ,45,2908256706719 ,29,9164562987173
32.804331 ,Left ,63,5373379546707 ,45,3256540701255 ,29,9309243518156
32.8268097 ,Left ,63,4343641832604 ,45,3403144932124 ,29,9879499515706
32.8420209 ,Left ,63,4212788846263 ,45,3672921666521 ,30,010793753459
32.8643952 ,Left ,63,4239617142853 ,45,3669107778864 ,30,0117334055631
32.8873665 ,Left ,63,4231236802949 ,45,3562812952264 ,30,0089881649305
32.9098059 ,Left ,63,3549399647585 ,45,3214066455667 ,30,0441226661186
32.9400563 ,Left ,63,3118973534127 ,45,3071857300738 ,30,1015909361931
32.9771156 ,Left ,63,3444514362145 ,45,5037266308277 ,30,1575024599983
32.9918568 ,Left ,63,4083081217575 ,45,5265519184501 ,30,1638544009449
33.0070567 ,Left ,63,4514329199435 ,45,530326807059 ,30,1569523402936
33.0295155 ,Left ,63,4504642394452 ,45,5606630541653 ,30,1199663114927
33.0446954 ,Left ,63,4713094640163 ,45,5916860576459 ,30,0661862644324
33.0670378 ,Left ,63,5062703453261 ,45,5973959003275 ,30,0180305646028
33.0897575 ,Left ,63,5181888664973 ,45,593578719439 ,29,9750592897965
33.1047502 ,Left ,63,538690706995 ,45,5659131954978 ,29,9360103628057
33.1270313 ,Left ,63,5137604009219 ,45,5247587990142 ,29,9200500851587
33.1494607 ,Left ,63,5156700884306 ,45,513526529591 ,29,9057959673214
33.1645406 ,Left ,63,535309786996 ,45,4996722016713 ,29,8919084380049
33.1868421 ,Left ,63,5641912611055 ,45,4810651436994 ,29,8641072490938
33.2168908 ,Left ,63,5677821563809 ,45,4714285618691 ,29,8445083515444
33.2318987 ,Left ,63,5295315682316 ,45,4702736289935 ,29,8127663951827
33.2546476 ,Left ,63,5334949429407 ,45,4777570305468 ,29,7689892069575
33.2997964 ,Left ,63,5714071919989 ,45,5084061078321 ,29,6734298634191
33.3220456 ,Left ,63,5746262918779 ,45,5317956682656 ,29,6330421477649
33.3521655 ,Left ,63,6067267944493 ,45,4902505913178 ,29,554980256212
33.3670432 ,Left ,63,599899810974 ,45,4808280977561 ,29,535200342886
33.3898046 ,Left ,63,5931801878973 ,45,4866684666053 ,29,5286396007225
33.4048225 ,Left ,63,6287408324246 ,45,5049738307227 ,29,5270344178311
33.427046 ,Left ,63,6659672892025 ,45,5128588956295 ,29,5166502531663
33.4494527 ,Left ,63,6578482221925 ,45,5093368934193 ,29,5006826221632
33.4645707 ,Left ,63,6475366578222 ,45,4940919470742 ,29,4765883567899
33.5021266 ,Left ,63,6477718986212 ,45,4854465406579 ,29,4461181746871
33.5247775 ,Left ,63,6468789240846 ,45,492780897394 ,29,4246964388356
33.5397386 ,Left ,63,6659743137633 ,45,5225680482259 ,29,4059597113456
33.5544753 ,Left ,63,6741140457465 ,45,5306548421326 ,29,3911676983312
33.5697012 ,Left ,63,6785422097532 ,45,5288111313419 ,29,3905908578039
33.5848899 ,Left ,63,661651418774 ,45,5167394046183 ,29,3971564696615
33.6069834 ,Left ,63,6590297524596 ,45,522115421266 ,29,3988471976585
33.6292946 ,Left ,63,6896067825798 ,45,5393560693231 ,29,3988954922384
33.6444021 ,Left ,63,7189372207587 ,45,5586202666193 ,29,3980965684722
33.6668554 ,Left ,63,7141259111771 ,45,5755489245339 ,29,3965756327303
33.6893817 ,Left ,63,697218908531 ,45,584572933049 ,29,3889948675569
33.7049074 ,Left ,63,6908098372846 ,45,5915218505323 ,29,3748880408569
33.7275812 ,Left ,63,6841121762903 ,45,5871447890363 ,29,3576204275255
33.7501311 ,Left ,63,6823457167328 ,45,5861391161963 ,29,3578112808551
33.7647543 ,Left ,63,6858381858865 ,45,585625115087 ,29,3561230262675
33.7871029 ,Left ,63,6855045642179 ,45,5863310794187 ,29,3563948667038
33.8098461 ,Left ,63,6855045642179 ,45,5863310794187 ,29,3563948667038
33.8248639 ,Left ,63,6841121762903 ,45,5871447890363 ,29,3576204275255
33.8545135 ,Left ,63,6858787152074 ,45,5881504437913 ,29,3574295904925
33.8770096 ,Left ,63,6983217397328 ,45,5721100831195 ,29,3582953164243
33.9069931 ,Left ,63,5934358525342 ,45,5578611559612 ,29,3968044022568
33.9294567 ,Left ,63,5344967507019 ,45,5121782907503 ,29,4511008143779
33.9516557 ,Left ,63,4740266107978 ,45,5013466116978 ,29,5345683898792
33.9666792 ,Left ,63,5034157343292 ,45,5383837125701 ,29,615197317064
33.9893525 ,Left ,63,6115045139887 ,45,5307698637507 ,29,6209083076432
34.0119192 ,Left ,63,6990300959497 ,45,4379634781581 ,29,6151124391151
34.0270114 ,Left ,63,7176585272306 ,45,3197407348791 ,29,616959197485
34.0498254 ,Left ,63,6794157013254 ,45,2457083750088 ,29,6511121492177
34.0720778 ,Left ,63,7028412715145 ,45,2281342052479 ,29,6688738825325
34.0868983 ,Left ,63,7058275167474 ,45,2308987075073 ,29,674164503093
34.1095858 ,Left ,63,7693690858303 ,45,1856423781553 ,29,6402797295038
34.1320241 ,Left ,63,7612249798051 ,45,1313784541221 ,29,6324153091045
34.146891 ,Left ,63,6775544731303 ,45,1529972752779 ,29,6605073793447
34.169398 ,Left ,63,6522045955041 ,45,3144227489225 ,29,7059934912491
34.192405 ,Left ,63,8051025897722 ,45,4872216777005 ,29,7134526437911
34.207552 ,Left ,63,9151430720338 ,45,5410048412761 ,29,7197254214145
34.2293076 ,Left ,63,9147531452077 ,45,5480435899089 ,29,7313467164739
34.251742 ,Left ,63,8305672966432 ,45,504513897423 ,29,7415111632897
34.2668864 ,Left ,63,7545099127394 ,45,4396464642781 ,29,7521230969383
34.296835 ,Left ,63,7527912433671 ,45,4411827892531 ,29,7536327756963
34.3195771 ,Left ,63,8187667624198 ,45,4727501318151 ,29,7196023353217
34.3349461 ,Left ,63,8398630152393 ,45,4706908556475 ,29,6882795232568
34.3499568 ,Left ,63,8198770096668 ,45,418933822715 ,29,6899774832923
34.3723113 ,Left ,63,7729260597587 ,45,3461143160298 ,29,7131950154087
34.3873204 ,Left ,63,7786634644606 ,45,2995411700705 ,29,7286234584827
34.4096896 ,Left ,63,8027121915887 ,45,279002985352 ,29,7216561160464
34.4322442 ,Left ,63,8181013838403 ,45,2622047961779 ,29,7105394051764
34.4472318 ,Left ,63,8645652085112 ,45,2554904737535 ,29,70526865363
34.4697795 ,Left ,63,8457078142444 ,45,2488751547938 ,29,7181633567685
34.4921195 ,Left ,63,8146997315889 ,45,2497054036313 ,29,738529933507
34.5072765 ,Left ,63,8357747817601 ,45,2492116230536 ,29,7489004318518
34.5299515 ,Left ,63,8640173201733 ,45,248228390151 ,29,7452342398658
34.5523111 ,Left ,63,8620506364362 ,45,2434823069909 ,29,7461614520331
34.5671694 ,Left ,63,8495587046591 ,45,2516416479768 ,29,7539400449894
34.5899215 ,Left ,63,8252874688848 ,45,2540195799801 ,29,7639376773518
34.612362 ,Left ,63,8181270831031 ,45,2481778942784 ,29,7719396068678
34.6273658 ,Left ,63,8043063114549 ,45,2452681569133 ,29,7844635998464
34.6499364 ,Left ,63,7876745302059 ,45,249733814481 ,29,7969948771427
34.6723214 ,Left ,63,7769612973424 ,45,2563744537451 ,29,8031864003013
34.6872092 ,Left ,63,7698040635645 ,45,2505502785629 ,29,8111822769145
34.7098938 ,Left ,63,7437540856045 ,45,2634405416482 ,29,8353144101167
34.7321682 ,Left ,63,642138205874 ,45,285986156147 ,29,8845871206322
34.7471089 ,Left ,63,5391151804386 ,45,2817299330394 ,29,9167321166932
34.7697391 ,Left ,63,5337130960566 ,45,2249465401896 ,29,9396070644116
34.792017 ,Left ,63,5375647980388 ,45,1853201511874 ,29,9853200715119
34.8143796 ,Left ,63,4577045651506 ,45,2397436468224 ,29,9872198418016
34.8296281 ,Left ,63,428543881956 ,45,2530773771877 ,29,9567514888838
34.8598013 ,Left ,63,498676354156 ,45,236899577252 ,29,9239592474656
34.8820397 ,Left ,63,5098291678875 ,45,2524422024954 ,29,8964874853534
34.8968683 ,Left ,63,4948284756358 ,45,2340985385095 ,29,8706971093071
34.9120073 ,Left ,63,4729977474555 ,45,1774575048433 ,29,868227434796
34.9347833 ,Left ,63,5204982725041 ,45,0765605730181 ,29,8711284211454
34.9497223 ,Left ,63,3313576371962 ,45,0568864381598 ,29,9451102617272
34.9720926 ,Left ,63,3302509711847 ,45,1432603279936 ,30,0267920627132
35.0020573 ,Left ,63,3533234169946 ,45,3029335883011 ,30,0224108960544
35.0249539 ,Left ,63,4638088983757 ,45,3540449452421 ,29,9843782407676
35.0470304 ,Left ,63,5238497711062 ,45,353857608572 ,29,9925781154152
35.0698563 ,Left ,63,3579003767839 ,45,4153885346895 ,29,9808347195522
35.092198 ,Left ,63,376662507654 ,45,3235098350742 ,29,9695844632492
35.1145706 ,Left ,63,3898275899935 ,45,2817040194627 ,30,0276538451455
35.1297445 ,Left ,63,3649696736542 ,45,3569727839641 ,30,040743989626
35.1522538 ,Left ,63,4253073199206 ,45,4236516477291 ,30,0260244635597
35.1747969 ,Left ,63,5187421667476 ,45,4263524846816 ,30,0285108223351
35.1895035 ,Left ,63,4972640292479 ,45,4800637133033 ,30,0311849525779
35.2118247 ,Left ,63,40314794968 ,45,5300335731527 ,30,0438138468
35.2418981 ,Left ,63,3677996586369 ,45,531990411002 ,30,057843364175
35.2570267 ,Left ,63,4317021981305 ,45,5126275427673 ,30,054867494653
35.279826 ,Left ,63,452072357408 ,45,491671371114 ,30,0447978172537
35.3101219 ,Left ,63,504029961626 ,45,4349250942524 ,30,0296210806838
35.3326347 ,Left ,63,5172575055804 ,45,3925451368584 ,30,0264330596231
35.3550918 ,Left ,63,5109919164673 ,45,4003326429072 ,30,0209327310222
35.3697955 ,Left ,63,5021874513316 ,45,4075788494533 ,29,9954550751637
35.3918919 ,Left ,63,498306164569 ,45,4051044279814 ,29,9629274829194
35.4142767 ,Left ,63,5167225293628 ,45,3692598465604 ,29,9430871789131
35.4292763 ,Left ,63,4982733478168 ,45,2967240476585 ,29,9587274908598
35.4518522 ,Left ,63,3954190923741 ,45,3313804393923 ,30,0335961988381
35.4743542 ,Left ,63,3165999130297 ,45,5039370306606 ,30,0836151475209
35.4896189 ,Left ,63,3568161753791 ,45,722604948586 ,30,091421582877
35.5195893 ,Left ,63,4770947065007 ,45,8053448242415 ,30,0692419293854
35.5494247 ,Left ,63,5587733769789 ,45,8180458279607 ,30,0474401831485
35.57996 ,Left ,63,3852975436574 ,45,8609818076038 ,29,9806149930038
35.5951896 ,Left ,63,4285200897452 ,45,900316974591 ,29,8955139869886
35.6174904 ,Left ,63,5048288143093 ,45,9430900929426 ,29,8103394822578
35.632676 ,Left ,63,4967693767911 ,45,9884883903117 ,29,7326746878751
35.6551099 ,Left ,63,4445541931477 ,46,0033780722115 ,29,6685253459335
35.6773391 ,Left ,63,4484695483761 ,45,9935099290796 ,29,5897402220885
35.6924889 ,Left ,63,4546664157389 ,45,9588753924357 ,29,5379263531447
35.7145255 ,Left ,63,407847250129 ,45,9476048826378 ,29,5297426463661
35.7369118 ,Left ,63,3609970364832 ,45,9123664279457 ,29,5168842456488
35.7445604 ,Left ,63,416792155919 ,45,8089384505801 ,29,4969304601203
35.7670045 ,Left ,63,3008463303443 ,45,7622078524653 ,29,5500655102363
35.8045823 ,Left ,63,3308672214942 ,45,9657829616565 ,29,5785753023896
35.8270226 ,Left ,63,4259356277977 ,45,9736600336277 ,29,5712305266562
35.8721201 ,Left ,63,445863337176 ,45,8239524336059 ,29,5894430093329
35.8946216 ,Left ,63,4086999480307 ,45,8499805903482 ,29,6221794466626
35.9247572 ,Left ,63,5793639460177 ,45,7635743622397 ,29,5387443020971
35.9471558 ,Left ,63,4817051293783 ,45,6303913897343 ,29,573959461194
35.9847206 ,Left ,63,4925335021528 ,45,7177600965677 ,29,6562732777422
36.007073 ,Left ,63,61232606013 ,45,842486324504 ,29,6555812471808
36.0444398 ,Left ,63,8112192733767 ,45,8201068955517 ,29,6974578988221
36.066998 ,Left ,63,7886742989451 ,45,7717406749839 ,29,7382553859429
36.1042943 ,Left ,63,8800704243182 ,45,8104995097012 ,29,8279469398609
36.127439 ,Left ,63,9380269819978 ,45,8277204971243 ,29,8573263854913
36.1501248 ,Left ,63,9389314996864 ,45,7951429392354 ,29,8931037611193
36.1723909 ,Left ,63,9059193804103 ,45,7224061883738 ,29,9123656926367
36.2247637 ,Left ,63,8677604092933 ,45,6059162529558 ,29,9433570110239
36.2472514 ,Left ,63,8670440474611 ,45,5870858571314 ,29,9310535318007
36.2844971 ,Left ,63,8677555161574 ,45,517770531548 ,29,9213502065523
36.307332 ,Left ,63,8419028671404 ,45,5034163389904 ,29,9125743626609
36.3517978 ,Left ,63,9281065863789 ,45,5129151905222 ,29,9037454576627
36.3743019 ,Left ,63,9509472298312 ,45,5138944161407 ,29,9088365119077
36.4050564 ,Left ,63,9106105378456 ,45,5363651539273 ,29,9142882181836
36.4424983 ,Left ,63,9151915710484 ,45,5475816717013 ,29,9080474923472
36.4872423 ,Left ,63,8977893113951 ,45,552665027555 ,29,8931567218721
36.5243494 ,Left ,63,8610898609702 ,45,5305864707996 ,29,8980797693999
36.5469944 ,Left ,63,8278503223913 ,45,5093614622905 ,29,9170110470632
36.5842931 ,Left ,63,7015393576632 ,45,4974251271905 ,30,0117827166602
36.6146204 ,Left ,63,5865648005785 ,45,4588541882253 ,30,0380324417245
36.6521198 ,Left ,63,5040272604547 ,45,3032765237548 ,30,1091589732534
36.667146 ,Left ,63,4939646783464 ,45,3246233417435 ,30,0845580734236
36.7121685 ,Left ,63,5686434615421 ,45,3626622114948 ,30,030331611223
36.7348965 ,Left ,63,539444603739 ,45,3825365649359 ,30,0058258857213
36.7647412 ,Left ,63,5853187973357 ,45,2836571726896 ,29,9679477354778
36.7869509 ,Left ,63,3805626843407 ,45,2713865394 ,29,975651833911
36.824423 ,Left ,63,4506996033088 ,45,4453158651835 ,30,0463374661147
36.8468707 ,Left ,63,5586865100912 ,45,5155175318295 ,30,0046176764792
36.8921619 ,Left ,63,4738407978908 ,45,5481931202984 ,30,0141927746445
36.9150515 ,Left ,63,4333646619983 ,45,5681890566219 ,29,9794212252881
36.9448398 ,Left ,63,4242195060345 ,45,4061197413128 ,29,956282307197
36.9671832 ,Left ,63,3658903066517 ,45,4363303850668 ,30,0466564377947
37.0048029 ,Left ,63,4814862853708 ,45,5879243364029 ,30,0495497714642
37.0271514 ,Left ,63,5210927769086 ,45,6142000697673 ,30,0304809136862
37.0648086 ,Left ,63,3763787994994 ,45,6815059090074 ,29,9902366496755
37.0871086 ,Left ,63,4060308509269 ,45,6769749241773 ,29,9595315466803
37.1321237 ,Left ,63,3612672823364 ,45,6434342428273 ,29,9286408820839
37.1693375 ,Left ,63,3460732820292 ,45,5744456228895 ,29,9478580443088
37.1993687 ,Left ,63,3193801272218 ,45,4955341148307 ,29,9538885493924
37.2147243 ,Left ,63,2340966616734 ,45,5458627691505 ,29,9924284161628
37.2449346 ,Left ,63,2317901807713 ,45,86787612531 ,30,023101819894
37.2673273 ,Left ,63,3459167859862 ,45,8892623764638 ,29,9922934500857
37.312111 ,Left ,63,3675036693735 ,45,8604226347703 ,29,8939392741388
37.3344802 ,Left ,63,3560720175443 ,45,9077449261902 ,29,8318211639167
37.3644862 ,Left ,63,4753441297904 ,45,9298835953713 ,29,6626700308074
37.4095925 ,Left ,63,3615289608784 ,45,9061832167992 ,29,572560967167
37.4696263 ,Left ,63,4526555192473 ,45,8434960065538 ,29,3573322288016
37.4921244 ,Left ,63,401332292563 ,45,8093100824328 ,29,3471680240268
37.5222539 ,Left ,63,2183143831061 ,45,7139937977461 ,29,3590922591293
37.5448143 ,Left ,63,115070929646 ,45,604131729057 ,29,3457902641446
37.5745355 ,Left ,62,982038791525 ,45,5560024382142 ,29,4804830557044
37.5972063 ,Left ,62,9710042632934 ,45,6736296597495 ,29,5303464750342
37.619784 ,Left ,63,1575604575669 ,45,6771390064752 ,29,4903346336738
37.642054 ,Left ,63,2976545818804 ,45,5718001749542 ,29,4289970855623
37.6645773 ,Left ,63,2579831550259 ,45,5243248276943 ,29,4734372992341
37.6872465 ,Left ,63,2102784684472 ,45,6216687306157 ,29,46872224068
37.7247512 ,Left ,63,3147878778557 ,45,4764605363691 ,29,447941426259
37.754843 ,Left ,63,2290297756981 ,45,3897184907361 ,29,5081789703607
37.7771817 ,Left ,63,1835566684523 ,45,2921216030309 ,29,5284517375433
37.7996265 ,Left ,63,2384478141162 ,45,2894429271912 ,29,5915366714593
37.8219206 ,Left ,63,2024022245923 ,45,41336924716 ,29,6627262038881
37.8369792 ,Left ,63,192906088965 ,45,5397972026933 ,29,7510117768428
37.8598559 ,Left ,63,3214255263664 ,45,5697809817754 ,29,806053065878
37.8824753 ,Left ,63,406777238874 ,45,566885316426 ,29,8427032628165
37.8975992 ,Left ,63,3961062735641 ,45,5846428407661 ,29,8645499121542
37.9346747 ,Left ,63,3882911610054 ,45,5964250499375 ,29,8616090363224
37.956887 ,Left ,63,5156990664862 ,45,570621077635 ,29,8264016366883
37.9719877 ,Left ,63,5920679704464 ,45,5354296421214 ,29,8241868630962
37.987047 ,Left ,63,5287192741114 ,45,520567796531 ,29,8424539167124
38.0099745 ,Left ,63,4384306764267 ,45,5095704824438 ,29,8519163002629
38.0249091 ,Left ,63,500614709195 ,45,4940327924386 ,29,8485020116179
38.0474228 ,Left ,63,5868751965702 ,45,4345229223881 ,29,8364781335258
38.0623771 ,Left ,63,6154351087853 ,45,3657075470848 ,29,8501928493797
38.077438 ,Left ,63,5619631744733 ,45,3393158815554 ,29,8709675440853
38.0998333 ,Left ,63,5671807825637 ,45,3557017253784 ,29,8824434493589
38.1224076 ,Left ,63,6656372316211 ,45,3787800815981 ,29,8853817493704
38.1373556 ,Left ,63,7416148425926 ,45,3823961068761 ,29,8753114800494
38.1599955 ,Left ,63,7101252570773 ,45,3852749900434 ,29,8784338478296
38.1817581 ,Left ,63,6398618938291 ,45,4177783865166 ,29,8772063766225
38.1968827 ,Left ,63,6353823355508 ,45,452130622257 ,29,8570488140129
38.2194663 ,Left ,63,6670486708883 ,45,4802808746819 ,29,8192785523052
38.2417695 ,Left ,63,6693083448424 ,45,4715391366341 ,29,8008278267202
38.2569422 ,Left ,63,6024200907499 ,45,4626042178093 ,29,8060265889562
38.279654 ,Left ,63,5206312129709 ,45,4606773970595 ,29,83722569049
