timestamp,event,roll,pitch,yaw
0.0253129 ,Left ,49,7816707176724 ,45,3025237235743 ,67,8810523083284
0.0253157 ,Left ,49,7816707176724 ,45,3025237235743 ,67,8810523083284
0.0253173 ,Left ,49,7816707176724 ,45,3025237235743 ,67,8810523083284
0.0481024 ,Left ,49,734616694467 ,45,3466847032415 ,67,7632592831633
0.0481046 ,Left ,49,734616694467 ,45,3466847032415 ,67,7632592831633
0.0481061 ,Left ,49,734616694467 ,45,3466847032415 ,67,7632592831633
0.0628539 ,Left ,49,7272099891713 ,45,390472030196 ,67,5961984389406
0.0628688 ,Left ,49,7272099891713 ,45,390472030196 ,67,5961984389406
0.0628703 ,Left ,49,7272099891713 ,45,390472030196 ,67,5961984389406
0.0854936 ,Left ,49,7631426816102 ,45,4220311052315 ,67,3918062554144
0.0854959 ,Left ,49,7631426816102 ,45,4220311052315 ,67,3918062554144
0.0854974 ,Left ,49,7631426816102 ,45,4220311052315 ,67,3918062554144
0.1080723 ,Left ,49,8168175296171 ,45,4450897878189 ,67,1871734133766
0.1080757 ,Left ,49,8168175296171 ,45,4450897878189 ,67,1871734133766
0.1080772 ,Left ,49,8168175296171 ,45,4450897878189 ,67,1871734133766
0.1230118 ,Left ,49,9180872555161 ,45,419758553753 ,66,9848689979159
0.123014 ,Left ,49,9180872555161 ,45,419758553753 ,66,9848689979159
0.1230158 ,Left ,49,9180872555161 ,45,419758553753 ,66,9848689979159
0.1459399 ,Left ,50,0906856497791 ,45,3244984636643 ,66,8084836169919
0.1459474 ,Left ,50,0906856497791 ,45,3244984636643 ,66,8084836169919
0.1459541 ,Left ,50,0906856497791 ,45,3244984636643 ,66,8084836169919
0.1680285 ,Left ,50,2928846999255 ,45,2014164666363 ,66,6959944482364
0.1680316 ,Left ,50,2928846999255 ,45,2014164666363 ,66,6959944482364
0.168034 ,Left ,50,2928846999255 ,45,2014164666363 ,66,6959944482364
0.1828215 ,Left ,50,522210386089 ,45,114311005338 ,66,5846061010624
0.1828234 ,Left ,50,522210386089 ,45,114311005338 ,66,5846061010624
0.182825 ,Left ,50,522210386089 ,45,114311005338 ,66,5846061010624
0.2054522 ,Left ,50,7665529174352 ,45,0921214984476 ,66,456065308184
0.2054544 ,Left ,50,7665529174352 ,45,0921214984476 ,66,456065308184
0.2054558 ,Left ,50,7665529174352 ,45,0921214984476 ,66,456065308184
0.2281957 ,Left ,50,9942776595761 ,45,0053413387804 ,66,3588141056544
0.2281976 ,Left ,50,9942776595761 ,45,0053413387804 ,66,3588141056544
0.228199 ,Left ,50,9942776595761 ,45,0053413387804 ,66,3588141056544
0.2430751 ,Left ,51,1834672893306 ,44,8902191260616 ,66,295292830662
0.2430773 ,Left ,51,1834672893306 ,44,8902191260616 ,66,295292830662
0.2430788 ,Left ,51,1834672893306 ,44,8902191260616 ,66,295292830662
0.2653972 ,Left ,51,297776948981 ,44,7805793887732 ,66,260290246235
0.265399 ,Left ,51,297776948981 ,44,7805793887732 ,66,260290246235
0.2654005 ,Left ,51,297776948981 ,44,7805793887732 ,66,260290246235
0.2886585 ,Left ,51,3352448157654 ,44,7022575541374 ,66,2500214897687
0.2886667 ,Left ,51,3352448157654 ,44,7022575541374 ,66,2500214897687
0.2886734 ,Left ,51,3352448157654 ,44,7022575541374 ,66,2500214897687
0.3034173 ,Left ,51,3275991556422 ,44,6815525335645 ,66,2357416247265
0.3034248 ,Left ,51,3275991556422 ,44,6815525335645 ,66,2357416247265
0.3034316 ,Left ,51,3275991556422 ,44,6815525335645 ,66,2357416247265
0.3255665 ,Left ,51,3517268758296 ,44,6761786972535 ,66,2080095289168
0.3255696 ,Left ,51,3517268758296 ,44,6761786972535 ,66,2080095289168
0.325572 ,Left ,51,3517268758296 ,44,6761786972535 ,66,2080095289168
0.3479125 ,Left ,51,3862733249414 ,44,6699588765294 ,66,1937994429194
0.3479146 ,Left ,51,3862733249414 ,44,6699588765294 ,66,1937994429194
0.3479164 ,Left ,51,3862733249414 ,44,6699588765294 ,66,1937994429194
0.3628794 ,Left ,51,3965201409221 ,44,672775489642 ,66,1967635692038
0.3628812 ,Left ,51,3965201409221 ,44,672775489642 ,66,1967635692038
0.3628827 ,Left ,51,3965201409221 ,44,672775489642 ,66,1967635692038
0.3856304 ,Left ,51,3445864554019 ,44,7163444218885 ,66,2069131705057
0.3856324 ,Left ,51,3445864554019 ,44,7163444218885 ,66,2069131705057
0.3856339 ,Left ,51,3445864554019 ,44,7163444218885 ,66,2069131705057
0.4079561 ,Left ,51,2890537704423 ,44,7648715237266 ,66,2123923454897
0.4079579 ,Left ,51,2890537704423 ,44,7648715237266 ,66,2123923454897
0.4079594 ,Left ,51,2890537704423 ,44,7648715237266 ,66,2123923454897
0.4227519 ,Left ,51,2768971539856 ,44,7920632386802 ,66,2286140087748
0.4227537 ,Left ,51,2768971539856 ,44,7920632386802 ,66,2286140087748
0.4227552 ,Left ,51,2768971539856 ,44,7920632386802 ,66,2286140087748
0.4456299 ,Left ,51,3056014484617 ,44,8263713148729 ,66,2382769873679
0.4456324 ,Left ,51,3056014484617 ,44,8263713148729 ,66,2382769873679
0.4456345 ,Left ,51,3056014484617 ,44,8263713148729 ,66,2382769873679
0.4679203 ,Left ,51,3378880713669 ,44,8801442543211 ,66,2380466008876
0.467922 ,Left ,51,3378880713669 ,44,8801442543211 ,66,2380466008876
0.4679235 ,Left ,51,3378880713669 ,44,8801442543211 ,66,2380466008876
0.4831127 ,Left ,51,3806558986924 ,44,9224124476809 ,66,2459965171789
0.4831147 ,Left ,51,3806558986924 ,44,9224124476809 ,66,2459965171789
0.4831162 ,Left ,51,3806558986924 ,44,9224124476809 ,66,2459965171789
0.5055818 ,Left ,51,4295247256096 ,44,9491061939559 ,66,260475488662
0.5055844 ,Left ,51,4295247256096 ,44,9491061939559 ,66,260475488662
0.5055865 ,Left ,51,4295247256096 ,44,9491061939559 ,66,260475488662
0.5281395 ,Left ,51,4656698675967 ,44,9486774615914 ,66,2786465250208
0.5281449 ,Left ,51,4656698675967 ,44,9486774615914 ,66,2786465250208
0.5281498 ,Left ,51,4656698675967 ,44,9486774615914 ,66,2786465250208
0.5428839 ,Left ,51,4664260109751 ,44,9562194775281 ,66,302955580424
0.5428864 ,Left ,51,4664260109751 ,44,9562194775281 ,66,302955580424
0.5428885 ,Left ,51,4664260109751 ,44,9562194775281 ,66,302955580424
0.5654125 ,Left ,51,4581603724509 ,44,9725562658549 ,66,3332174710055
0.5654142 ,Left ,51,4581603724509 ,44,9725562658549 ,66,3332174710055
0.5654156 ,Left ,51,4581603724509 ,44,9725562658549 ,66,3332174710055
0.5881065 ,Left ,51,4889069409614 ,45,0085641618316 ,66,3206314059976
0.5881087 ,Left ,51,4889069409614 ,45,0085641618316 ,66,3206314059976
0.5881103 ,Left ,51,4889069409614 ,45,0085641618316 ,66,3206314059976
0.6028537 ,Left ,51,5006345586691 ,44,9887567540263 ,66,301536317397
0.602869 ,Left ,51,5006345586691 ,44,9887567540263 ,66,301536317397
0.6028705 ,Left ,51,5006345586691 ,44,9887567540263 ,66,301536317397
0.6255148 ,Left ,51,4900364720687 ,44,9421824820981 ,66,3075462952959
0.6255169 ,Left ,51,4900364720687 ,44,9421824820981 ,66,3075462952959
0.6255184 ,Left ,51,4900364720687 ,44,9421824820981 ,66,3075462952959
0.6480757 ,Left ,51,436266791996 ,44,9202104896493 ,66,3294620437332
0.648078 ,Left ,51,436266791996 ,44,9202104896493 ,66,3294620437332
0.6480795 ,Left ,51,436266791996 ,44,9202104896493 ,66,3294620437332
0.6629234 ,Left ,51,396828106254 ,44,9355419327438 ,66,3318469495683
0.6629261 ,Left ,51,396828106254 ,44,9355419327438 ,66,3318469495683
0.6629279 ,Left ,51,396828106254 ,44,9355419327438 ,66,3318469495683
0.6855162 ,Left ,51,3836776617737 ,44,9668894450244 ,66,3386975652706
0.6855184 ,Left ,51,3836776617737 ,44,9668894450244 ,66,3386975652706
0.6855202 ,Left ,51,3836776617737 ,44,9668894450244 ,66,3386975652706
0.7082564 ,Left ,51,4446857845089 ,44,9487889198898 ,66,3493446697399
0.7082588 ,Left ,51,4446857845089 ,44,9487889198898 ,66,3493446697399
0.7082607 ,Left ,51,4446857845089 ,44,9487889198898 ,66,3493446697399
0.7231401 ,Left ,51,5156104750514 ,44,9215473869032 ,66,3684235766345
0.7231425 ,Left ,51,5156104750514 ,44,9215473869032 ,66,3684235766345
0.7231444 ,Left ,51,5156104750514 ,44,9215473869032 ,66,3684235766345
0.7454207 ,Left ,51,5094932536284 ,44,901003023754 ,66,3792763887722
0.7454258 ,Left ,51,5094932536284 ,44,901003023754 ,66,3792763887722
0.7454318 ,Left ,51,5094932536284 ,44,901003023754 ,66,3792763887722
0.7678921 ,Left ,51,479802603491 ,44,9073760098582 ,66,3740829022562
0.767894 ,Left ,51,479802603491 ,44,9073760098582 ,66,3740829022562
0.7678955 ,Left ,51,479802603491 ,44,9073760098582 ,66,3740829022562
0.7828889 ,Left ,51,503643746396 ,44,9038042785615 ,66,3504577331657
0.7828907 ,Left ,51,503643746396 ,44,9038042785615 ,66,3504577331657
0.7828922 ,Left ,51,503643746396 ,44,9038042785615 ,66,3504577331657
0.8054294 ,Left ,51,5259367595784 ,44,8606458562501 ,66,3265840495296
0.8054315 ,Left ,51,5259367595784 ,44,8606458562501 ,66,3265840495296
0.8054332 ,Left ,51,5259367595784 ,44,8606458562501 ,66,3265840495296
0.8279617 ,Left ,51,5225445687901 ,44,8265596397198 ,66,2942573605495
0.8279644 ,Left ,51,5225445687901 ,44,8265596397198 ,66,2942573605495
0.8279667 ,Left ,51,5225445687901 ,44,8265596397198 ,66,2942573605495
0.8429217 ,Left ,51,515153548863 ,44,7939557154134 ,66,2674864323865
0.8429234 ,Left ,51,515153548863 ,44,7939557154134 ,66,2674864323865
0.8429249 ,Left ,51,515153548863 ,44,7939557154134 ,66,2674864323865
0.8654314 ,Left ,51,5128619087702 ,44,7540394538268 ,66,2403110079495
0.8654331 ,Left ,51,5128619087702 ,44,7540394538268 ,66,2403110079495
0.8654346 ,Left ,51,5128619087702 ,44,7540394538268 ,66,2403110079495
0.8888122 ,Left ,51,5111449386602 ,44,7000142820756 ,66,1996121753172
0.8888199 ,Left ,51,5111449386602 ,44,7000142820756 ,66,1996121753172
0.8888265 ,Left ,51,5111449386602 ,44,7000142820756 ,66,1996121753172
0.9034101 ,Left ,51,5375587126357 ,44,6419971359294 ,66,1235361458912
0.9034176 ,Left ,51,5375587126357 ,44,6419971359294 ,66,1235361458912
0.9034244 ,Left ,51,5375587126357 ,44,6419971359294 ,66,1235361458912
0.9258683 ,Left ,51,5449194734385 ,44,6060219835463 ,66,0632429287855
0.9258739 ,Left ,51,5449194734385 ,44,6060219835463 ,66,0632429287855
0.9258786 ,Left ,51,5449194734385 ,44,6060219835463 ,66,0632429287855
0.9479865 ,Left ,51,5454177180533 ,44,5858362633063 ,66,0141092862703
0.9479973 ,Left ,51,5454177180533 ,44,5858362633063 ,66,0141092862703
0.9480012 ,Left ,51,5454177180533 ,44,5858362633063 ,66,0141092862703
0.9630762 ,Left ,51,5320655114395 ,44,5514618181773 ,65,9927200584886
0.9630787 ,Left ,51,5320655114395 ,44,5514618181773 ,65,9927200584886
0.9630808 ,Left ,51,5320655114395 ,44,5514618181773 ,65,9927200584886
0.9852203 ,Left ,51,496980295399 ,44,5271126118749 ,66,0329770737766
0.985222 ,Left ,51,496980295399 ,44,5271126118749 ,66,0329770737766
0.9852236 ,Left ,51,496980295399 ,44,5271126118749 ,66,0329770737766
1.0085812 ,Left ,51,43210179646 ,44,5628018275401 ,66,0840760350088
1.0085889 ,Left ,51,43210179646 ,44,5628018275401 ,66,0840760350088
1.0085956 ,Left ,51,43210179646 ,44,5628018275401 ,66,0840760350088
1.0233455 ,Left ,51,3807126445124 ,44,6361852812304 ,66,13509002554
1.0233531 ,Left ,51,3807126445124 ,44,6361852812304 ,66,13509002554
1.0233597 ,Left ,51,3807126445124 ,44,6361852812304 ,66,13509002554
1.0456519 ,Left ,51,4223857837149 ,44,6549198147474 ,66,1716232488941
1.0456554 ,Left ,51,4223857837149 ,44,6549198147474 ,66,1716232488941
1.0456589 ,Left ,51,4223857837149 ,44,6549198147474 ,66,1716232488941
1.068133 ,Left ,51,4941729975524 ,44,6167600843588 ,66,1879600255555
1.0681365 ,Left ,51,4941729975524 ,44,6167600843588 ,66,1879600255555
1.0681394 ,Left ,51,4941729975524 ,44,6167600843588 ,66,1879600255555
1.0832506 ,Left ,51,4736837939506 ,44,6011750160006 ,66,2208949024987
1.0832542 ,Left ,51,4736837939506 ,44,6011750160006 ,66,2208949024987
1.0832571 ,Left ,51,4736837939506 ,44,6011750160006 ,66,2208949024987
1.1054699 ,Left ,51,3789730055933 ,44,6609379929362 ,66,2566159161495
1.105473 ,Left ,51,3789730055933 ,44,6609379929362 ,66,2566159161495
1.1054754 ,Left ,51,3789730055933 ,44,6609379929362 ,66,2566159161495
1.1282446 ,Left ,51,3336310412184 ,44,6993468878446 ,66,3115160960155
1.1282473 ,Left ,51,3336310412184 ,44,6993468878446 ,66,3115160960155
1.1282494 ,Left ,51,3336310412184 ,44,6993468878446 ,66,3115160960155
1.1430004 ,Left ,51,3549754029878 ,44,7128021916179 ,66,3391132945164
1.1430029 ,Left ,51,3549754029878 ,44,7128021916179 ,66,3391132945164
1.143005 ,Left ,51,3549754029878 ,44,7128021916179 ,66,3391132945164
1.1655969 ,Left ,51,3861729457343 ,44,7328831935514 ,66,3427409030462
1.1655993 ,Left ,51,3861729457343 ,44,7328831935514 ,66,3427409030462
1.1656008 ,Left ,51,3861729457343 ,44,7328831935514 ,66,3427409030462
1.1879635 ,Left ,51,362378644491 ,44,7449987894418 ,66,3528463353381
1.1879652 ,Left ,51,362378644491 ,44,7449987894418 ,66,3528463353381
1.1879667 ,Left ,51,362378644491 ,44,7449987894418 ,66,3528463353381
1.2029979 ,Left ,51,3200800871228 ,44,7249087482037 ,66,3460776350215
1.2029997 ,Left ,51,3200800871228 ,44,7249087482037 ,66,3460776350215
1.2030013 ,Left ,51,3200800871228 ,44,7249087482037 ,66,3460776350215
1.2256637 ,Left ,51,3003558532383 ,44,7076841668425 ,66,3227784806571
1.2256661 ,Left ,51,3003558532383 ,44,7076841668425 ,66,3227784806571
1.225668 ,Left ,51,3003558532383 ,44,7076841668425 ,66,3227784806571
1.2482668 ,Left ,51,2667439048552 ,44,6841561866753 ,66,3379669229365
1.2482706 ,Left ,51,2667439048552 ,44,6841561866753 ,66,3379669229365
1.2482736 ,Left ,51,2667439048552 ,44,6841561866753 ,66,3379669229365
1.2630156 ,Left ,51,2448019706089 ,44,7115804103139 ,66,3441804929294
1.2630191 ,Left ,51,2448019706089 ,44,7115804103139 ,66,3441804929294
1.2630222 ,Left ,51,2448019706089 ,44,7115804103139 ,66,3441804929294
1.2857608 ,Left ,51,2788881415259 ,44,7645730649624 ,66,3428044724109
1.2857645 ,Left ,51,2788881415259 ,44,7645730649624 ,66,3428044724109
1.2857677 ,Left ,51,2788881415259 ,44,7645730649624 ,66,3428044724109
1.3079056 ,Left ,51,3304316197581 ,44,7510064586607 ,66,3430587782247
1.3079076 ,Left ,51,3304316197581 ,44,7510064586607 ,66,3430587782247
1.3079091 ,Left ,51,3304316197581 ,44,7510064586607 ,66,3430587782247
1.3304378 ,Left ,51,3869347071623 ,44,7155772962146 ,66,3505589997792
1.3304396 ,Left ,51,3869347071623 ,44,7155772962146 ,66,3505589997792
1.3304412 ,Left ,51,3869347071623 ,44,7155772962146 ,66,3505589997792
1.3454709 ,Left ,51,3724195828545 ,44,6769531339484 ,66,3636055667779
1.3454727 ,Left ,51,3724195828545 ,44,6769531339484 ,66,3636055667779
1.3454742 ,Left ,51,3724195828545 ,44,6769531339484 ,66,3636055667779
1.3678705 ,Left ,51,3480029805458 ,44,674418245578 ,66,351706424139
1.3678723 ,Left ,51,3480029805458 ,44,674418245578 ,66,351706424139
1.3678738 ,Left ,51,3480029805458 ,44,674418245578 ,66,351706424139
1.3905361 ,Left ,51,330771434872 ,44,6684052331395 ,66,352059998557
1.3905383 ,Left ,51,330771434872 ,44,6684052331395 ,66,352059998557
1.39054 ,Left ,51,330771434872 ,44,6684052331395 ,66,352059998557
1.405612 ,Left ,51,3037429827756 ,44,6420705049347 ,66,3600192456454
1.4056144 ,Left ,51,3037429827756 ,44,6420705049347 ,66,3600192456454
1.4056162 ,Left ,51,3037429827756 ,44,6420705049347 ,66,3600192456454
1.4282845 ,Left ,51,3149177039901 ,44,6841490322605 ,66,3356008806884
1.4282868 ,Left ,51,3149177039901 ,44,6841490322605 ,66,3356008806884
1.4282886 ,Left ,51,3149177039901 ,44,6841490322605 ,66,3356008806884
1.450961 ,Left ,51,2818943182747 ,44,7360636856103 ,66,3238244541055
1.4509686 ,Left ,51,2818943182747 ,44,7360636856103 ,66,3238244541055
1.450976 ,Left ,51,2818943182747 ,44,7360636856103 ,66,3238244541055
1.4660175 ,Left ,51,321664069038 ,44,7121852839119 ,66,3169045704719
1.4660252 ,Left ,51,321664069038 ,44,7121852839119 ,66,3169045704719
1.4660319 ,Left ,51,321664069038 ,44,7121852839119 ,66,3169045704719
1.4886717 ,Left ,51,381061737978 ,44,6575012482589 ,66,3382607025367
1.4886794 ,Left ,51,381061737978 ,44,6575012482589 ,66,3382607025367
1.4886862 ,Left ,51,381061737978 ,44,6575012482589 ,66,3382607025367
1.510512 ,Left ,51,3990412972261 ,44,6637981076118 ,66,3491040327208
1.5105152 ,Left ,51,3990412972261 ,44,6637981076118 ,66,3491040327208
1.5105177 ,Left ,51,3990412972261 ,44,6637981076118 ,66,3491040327208
1.5256268 ,Left ,51,3693322383969 ,44,7399389845484 ,66,3447362954486
1.5256296 ,Left ,51,3693322383969 ,44,7399389845484 ,66,3447362954486
1.5256318 ,Left ,51,3693322383969 ,44,7399389845484 ,66,3447362954486
1.547772 ,Left ,51,3252416750824 ,44,7826613312942 ,66,3472002669746
1.5477895 ,Left ,51,3252416750824 ,44,7826613312942 ,66,3472002669746
1.5477915 ,Left ,51,3252416750824 ,44,7826613312942 ,66,3472002669746
1.5704626 ,Left ,51,2686149853096 ,44,8372436246339 ,66,3998267946713
1.5704648 ,Left ,51,2686149853096 ,44,8372436246339 ,66,3998267946713
1.5704666 ,Left ,51,2686149853096 ,44,8372436246339 ,66,3998267946713
1.5853851 ,Left ,51,2657084128218 ,44,8425337382324 ,66,440766091489
1.5853905 ,Left ,51,2657084128218 ,44,8425337382324 ,66,440766091489
1.5853927 ,Left ,51,2657084128218 ,44,8425337382324 ,66,440766091489
1.6081407 ,Left ,51,3321362145487 ,44,8283994276102 ,66,4140954819575
1.608143 ,Left ,51,3321362145487 ,44,8283994276102 ,66,4140954819575
1.6081447 ,Left ,51,3321362145487 ,44,8283994276102 ,66,4140954819575
1.6305229 ,Left ,51,3418553199646 ,44,7834158278438 ,66,4055524212532
1.6305258 ,Left ,51,3418553199646 ,44,7834158278438 ,66,4055524212532
1.6305284 ,Left ,51,3418553199646 ,44,7834158278438 ,66,4055524212532
1.6455487 ,Left ,51,2866776565986 ,44,794044620998 ,66,358770008905
1.6455522 ,Left ,51,2866776565986 ,44,794044620998 ,66,358770008905
1.6455552 ,Left ,51,2866776565986 ,44,794044620998 ,66,358770008905
1.6678919 ,Left ,51,2539313517078 ,44,858709907727 ,66,3169809995805
1.6678936 ,Left ,51,2539313517078 ,44,858709907727 ,66,3169809995805
1.6678951 ,Left ,51,2539313517078 ,44,858709907727 ,66,3169809995805
1.6907289 ,Left ,51,276693203476 ,44,8864259104016 ,66,2646845568209
1.6907312 ,Left ,51,276693203476 ,44,8864259104016 ,66,2646845568209
1.6907328 ,Left ,51,276693203476 ,44,8864259104016 ,66,2646845568209
1.7055217 ,Left ,51,356075829135 ,44,9284778022968 ,66,2198662904904
1.7055239 ,Left ,51,356075829135 ,44,9284778022968 ,66,2198662904904
1.7055257 ,Left ,51,356075829135 ,44,9284778022968 ,66,2198662904904
1.7279462 ,Left ,51,3630012459729 ,44,9595680857123 ,66,1762215097672
1.7279479 ,Left ,51,3630012459729 ,44,9595680857123 ,66,1762215097672
1.7279494 ,Left ,51,3630012459729 ,44,9595680857123 ,66,1762215097672
1.7505382 ,Left ,51,3313269554527 ,44,9969003080851 ,66,1292397258977
1.7505401 ,Left ,51,3313269554527 ,44,9969003080851 ,66,1292397258977
1.7505416 ,Left ,51,3313269554527 ,44,9969003080851 ,66,1292397258977
1.7654725 ,Left ,51,2925270335988 ,45,0306544811037 ,66,0698271714033
1.7654759 ,Left ,51,2925270335988 ,45,0306544811037 ,66,0698271714033
1.7654777 ,Left ,51,2925270335988 ,45,0306544811037 ,66,0698271714033
1.7880214 ,Left ,51,2672252606828 ,45,0433136505291 ,66,0098288229871
1.7880232 ,Left ,51,2672252606828 ,45,0433136505291 ,66,0098288229871
1.7880249 ,Left ,51,2672252606828 ,45,0433136505291 ,66,0098288229871
1.8104638 ,Left ,51,217332054592 ,45,0346122531238 ,65,942336506292
1.8104659 ,Left ,51,217332054592 ,45,0346122531238 ,65,942336506292
1.8104677 ,Left ,51,217332054592 ,45,0346122531238 ,65,942336506292
1.8254355 ,Left ,51,1943777014116 ,45,0274642587153 ,65,8851893395802
1.8254377 ,Left ,51,1943777014116 ,45,0274642587153 ,65,8851893395802
1.8254396 ,Left ,51,1943777014116 ,45,0274642587153 ,65,8851893395802
1.8480253 ,Left ,51,1783970803053 ,45,0256109888366 ,65,8626197513443
1.8480278 ,Left ,51,1783970803053 ,45,0256109888366 ,65,8626197513443
1.8480298 ,Left ,51,1783970803053 ,45,0256109888366 ,65,8626197513443
1.8703597 ,Left ,51,1546529717136 ,45,0140889186013 ,65,8258340194403
1.8703615 ,Left ,51,1546529717136 ,45,0140889186013 ,65,8258340194403
1.870363 ,Left ,51,1546529717136 ,45,0140889186013 ,65,8258340194403
1.8860387 ,Left ,51,1198201876804 ,45,0063309470015 ,65,8068763150106
1.8860465 ,Left ,51,1198201876804 ,45,0063309470015 ,65,8068763150106
1.8860575 ,Left ,51,1198201876804 ,45,0063309470015 ,65,8068763150106
1.9083858 ,Left ,51,0747400253693 ,45,0220961641632 ,65,7874856859557
1.9084067 ,Left ,51,0747400253693 ,45,0220961641632 ,65,7874856859557
1.9084194 ,Left ,51,0747400253693 ,45,0220961641632 ,65,7874856859557
1.930586 ,Left ,51,0655615391486 ,45,0665796698489 ,65,8312292667479
1.9305884 ,Left ,51,0655615391486 ,45,0665796698489 ,65,8312292667479
1.9305905 ,Left ,51,0655615391486 ,45,0665796698489 ,65,8312292667479
1.945401 ,Left ,51,0133128133285 ,45,1655202744101 ,65,8984808078909
1.9454037 ,Left ,51,0133128133285 ,45,1655202744101 ,65,8984808078909
1.9454058 ,Left ,51,0133128133285 ,45,1655202744101 ,65,8984808078909
1.9680161 ,Left ,51,1131006836108 ,45,1789375505689 ,65,9266109520912
1.9680186 ,Left ,51,1131006836108 ,45,1789375505689 ,65,9266109520912
1.9680208 ,Left ,51,1131006836108 ,45,1789375505689 ,65,9266109520912
1.9904645 ,Left ,51,2767562208753 ,45,0645440750921 ,65,9058335036411
1.9904662 ,Left ,51,2767562208753 ,45,0645440750921 ,65,9058335036411
1.9904677 ,Left ,51,2767562208753 ,45,0645440750921 ,65,9058335036411
2.0131151 ,Left ,51,3024717373388 ,44,8786813322671 ,65,919954982153
2.0131171 ,Left ,51,3024717373388 ,44,8786813322671 ,65,919954982153
2.0131186 ,Left ,51,3024717373388 ,44,8786813322671 ,65,919954982153
2.0278976 ,Left ,51,1248964588896 ,44,8278039412979 ,65,9458804180862
2.0278993 ,Left ,51,1248964588896 ,44,8278039412979 ,65,9458804180862
2.0279008 ,Left ,51,1248964588896 ,44,8278039412979 ,65,9458804180862
2.0503162 ,Left ,51,0510849701368 ,44,8911894701282 ,65,9619592006921
2.0503179 ,Left ,51,0510849701368 ,44,8911894701282 ,65,9619592006921
2.0503194 ,Left ,51,0510849701368 ,44,8911894701282 ,65,9619592006921
2.0731269 ,Left ,51,1565788938895 ,44,9299709223511 ,65,937946321665
2.073129 ,Left ,51,1565788938895 ,44,9299709223511 ,65,937946321665
2.0731306 ,Left ,51,1565788938895 ,44,9299709223511 ,65,937946321665
2.087932 ,Left ,51,2871885111585 ,44,9250985703479 ,65,9200356413635
2.0879338 ,Left ,51,2871885111585 ,44,9250985703479 ,65,9200356413635
2.0879355 ,Left ,51,2871885111585 ,44,9250985703479 ,65,9200356413635
2.1106552 ,Left ,51,1906438671309 ,44,9138739284339 ,65,9700625554781
2.1106581 ,Left ,51,1906438671309 ,44,9138739284339 ,65,9700625554781
2.1106605 ,Left ,51,1906438671309 ,44,9138739284339 ,65,9700625554781
2.1329666 ,Left ,51,1164502013447 ,44,9034357346223 ,66,0239884480341
2.1329684 ,Left ,51,1164502013447 ,44,9034357346223 ,66,0239884480341
2.1329699 ,Left ,51,1164502013447 ,44,9034357346223 ,66,0239884480341
2.147803 ,Left ,51,1562801407065 ,44,9397605905318 ,66,0409893610994
2.1478059 ,Left ,51,1562801407065 ,44,9397605905318 ,66,0409893610994
2.1496002 ,Left ,51,1562801407065 ,44,9397605905318 ,66,0409893610994
2.1704986 ,Left ,51,2751424850234 ,44,9557744598847 ,66,0124848705333
2.1705006 ,Left ,51,2751424850234 ,44,9557744598847 ,66,0124848705333
2.1705021 ,Left ,51,2751424850234 ,44,9557744598847 ,66,0124848705333
2.1855363 ,Left ,51,3345889808843 ,44,9262623854831 ,66,0031808437333
2.1855381 ,Left ,51,3345889808843 ,44,9262623854831 ,66,0031808437333
2.1855397 ,Left ,51,3345889808843 ,44,9262623854831 ,66,0031808437333
2.2080121 ,Left ,51,3270561265351 ,44,8860404859588 ,65,9998401958212
2.2080142 ,Left ,51,3270561265351 ,44,8860404859588 ,65,9998401958212
2.2080158 ,Left ,51,3270561265351 ,44,8860404859588 ,65,9998401958212
2.2303991 ,Left ,51,2703124737158 ,44,8742376690825 ,65,9879533000206
2.2304008 ,Left ,51,2703124737158 ,44,8742376690825 ,65,9879533000206
2.2304023 ,Left ,51,2703124737158 ,44,8742376690825 ,65,9879533000206
2.2531951 ,Left ,51,2355515669582 ,44,8688081854801 ,65,9884278447029
2.253197 ,Left ,51,2355515669582 ,44,8688081854801 ,65,9884278447029
2.2531985 ,Left ,51,2355515669582 ,44,8688081854801 ,65,9884278447029
2.2679037 ,Left ,51,2823798897599 ,44,8558614866917 ,65,9917363140221
2.267906 ,Left ,51,2823798897599 ,44,8558614866917 ,65,9917363140221
2.2679079 ,Left ,51,2823798897599 ,44,8558614866917 ,65,9917363140221
2.2903482 ,Left ,51,3181223485424 ,44,8617202099056 ,65,9840033191364
2.29035 ,Left ,51,3181223485424 ,44,8617202099056 ,65,9840033191364
2.2903516 ,Left ,51,3181223485424 ,44,8617202099056 ,65,9840033191364
2.3129683 ,Left ,51,3021332442317 ,44,8644965114947 ,65,9791872809962
2.3129702 ,Left ,51,3021332442317 ,44,8644965114947 ,65,9791872809962
2.3129718 ,Left ,51,3021332442317 ,44,8644965114947 ,65,9791872809962
2.3279131 ,Left ,51,2514945192709 ,44,8735149987457 ,65,9879052102582
2.3279148 ,Left ,51,2514945192709 ,44,8735149987457 ,65,9879052102582
2.3279163 ,Left ,51,2514945192709 ,44,8735149987457 ,65,9879052102582
2.3505289 ,Left ,51,2243166625759 ,44,9004035724581 ,65,9999955690282
2.3505308 ,Left ,51,2243166625759 ,44,9004035724581 ,65,9999955690282
2.3505323 ,Left ,51,2243166625759 ,44,9004035724581 ,65,9999955690282
2.3730721 ,Left ,51,2402649397434 ,44,9197411618503 ,66,0077060172453
2.3730745 ,Left ,51,2402649397434 ,44,9197411618503 ,66,0077060172453
2.373076 ,Left ,51,2402649397434 ,44,9197411618503 ,66,0077060172453
2.3879712 ,Left ,51,2608651398577 ,44,93722859111 ,66,0267458967922
2.3879736 ,Left ,51,2608651398577 ,44,93722859111 ,66,0267458967922
2.3879752 ,Left ,51,2608651398577 ,44,93722859111 ,66,0267458967922
2.4104526 ,Left ,51,2876105714131 ,44,9493745397939 ,66,0608123687484
2.4104567 ,Left ,51,2876105714131 ,44,9493745397939 ,66,0608123687484
2.4104586 ,Left ,51,2876105714131 ,44,9493745397939 ,66,0608123687484
2.4336148 ,Left ,51,3176381423602 ,44,95829251211 ,66,1055283861391
2.4336226 ,Left ,51,3176381423602 ,44,95829251211 ,66,1055283861391
2.4336295 ,Left ,51,3176381423602 ,44,95829251211 ,66,1055283861391
2.4486861 ,Left ,51,3774568545157 ,44,972053013185 ,66,1559390109037
2.4486937 ,Left ,51,3774568545157 ,44,972053013185 ,66,1559390109037
2.4487005 ,Left ,51,3774568545157 ,44,972053013185 ,66,1559390109037
2.4705382 ,Left ,51,4208372243995 ,45,004743549889 ,66,2001923184927
2.4705449 ,Left ,51,4208372243995 ,45,004743549889 ,66,2001923184927
2.4705485 ,Left ,51,4208372243995 ,45,004743549889 ,66,2001923184927
2.4931544 ,Left ,51,4545803192626 ,45,0442471869116 ,66,2329736114929
2.4931569 ,Left ,51,4545803192626 ,45,0442471869116 ,66,2329736114929
2.4931587 ,Left ,51,4545803192626 ,45,0442471869116 ,66,2329736114929
2.5079725 ,Left ,51,4879529197774 ,45,0678636404836 ,66,2683772134943
2.5079746 ,Left ,51,4879529197774 ,45,0678636404836 ,66,2683772134943
2.5079765 ,Left ,51,4879529197774 ,45,0678636404836 ,66,2683772134943
2.5304231 ,Left ,51,5137341447195 ,45,0848833307431 ,66,3007551684656
2.5304253 ,Left ,51,5137341447195 ,45,0848833307431 ,66,3007551684656
2.5304271 ,Left ,51,5137341447195 ,45,0848833307431 ,66,3007551684656
2.5528144 ,Left ,51,4986266907189 ,45,0953865884806 ,66,3200156096734
2.5528161 ,Left ,51,4986266907189 ,45,0953865884806 ,66,3200156096734
2.5528176 ,Left ,51,4986266907189 ,45,0953865884806 ,66,3200156096734
2.5604728 ,Left ,51,4985951547434 ,45,1096575475389 ,66,3310836260823
2.5604745 ,Left ,51,4985951547434 ,45,1096575475389 ,66,3310836260823
2.5604759 ,Left ,51,4985951547434 ,45,1096575475389 ,66,3310836260823
2.5829111 ,Left ,51,4960831165373 ,45,1091473539247 ,66,3288473801576
2.5829131 ,Left ,51,4960831165373 ,45,1091473539247 ,66,3288473801576
2.5829147 ,Left ,51,4960831165373 ,45,1091473539247 ,66,3288473801576
2.6209972 ,Left ,51,473884428895 ,45,0322928757594 ,66,2578170025458
2.621005 ,Left ,51,473884428895 ,45,0322928757594 ,66,2578170025458
2.6210117 ,Left ,51,473884428895 ,45,0322928757594 ,66,2578170025458
2.6432271 ,Left ,51,4246171143544 ,44,9865579301931 ,66,2192943393832
2.6432307 ,Left ,51,4246171143544 ,44,9865579301931 ,66,2192943393832
2.6432337 ,Left ,51,4246171143544 ,44,9865579301931 ,66,2192943393832
2.6809933 ,Left ,51,4576007489439 ,44,9045283654622 ,66,156892338852
2.6810037 ,Left ,51,4576007489439 ,44,9045283654622 ,66,156892338852
2.6810212 ,Left ,51,4576007489439 ,44,9045283654622 ,66,156892338852
2.7035047 ,Left ,51,4144288929529 ,44,9039110933098 ,66,1745623677564
2.7035122 ,Left ,51,4144288929529 ,44,9039110933098 ,66,1745623677564
2.7035189 ,Left ,51,4144288929529 ,44,9039110933098 ,66,1745623677564
2.7256957 ,Left ,51,2842805881224 ,44,9565609128635 ,66,1940021153505
2.7257007 ,Left ,51,2842805881224 ,44,9565609128635 ,66,1940021153505
2.7257037 ,Left ,51,2842805881224 ,44,9565609128635 ,66,1940021153505
2.7407556 ,Left ,51,1724532548925 ,44,9969082882404 ,66,2481361500738
2.7407592 ,Left ,51,1724532548925 ,44,9969082882404 ,66,2481361500738
2.7407621 ,Left ,51,1724532548925 ,44,9969082882404 ,66,2481361500738
2.762982 ,Left ,51,1821461604476 ,45,0053725058846 ,66,2624124692949
2.7629838 ,Left ,51,1821461604476 ,45,0053725058846 ,66,2624124692949
2.7629853 ,Left ,51,1821461604476 ,45,0053725058846 ,66,2624124692949
2.7855717 ,Left ,51,2181389649847 ,44,9949835368473 ,66,2374170401429
2.7855736 ,Left ,51,2181389649847 ,44,9949835368473 ,66,2374170401429
2.7855751 ,Left ,51,2181389649847 ,44,9949835368473 ,66,2374170401429
2.8004262 ,Left ,51,1834157603673 ,44,9416067617351 ,66,227238057336
2.8004283 ,Left ,51,1834157603673 ,44,9416067617351 ,66,227238057336
2.8004298 ,Left ,51,1834157603673 ,44,9416067617351 ,66,227238057336
2.8229283 ,Left ,51,1103454815853 ,44,9014068183199 ,66,2485467307394
2.8229304 ,Left ,51,1103454815853 ,44,9014068183199 ,66,2485467307394
2.8229322 ,Left ,51,1103454815853 ,44,9014068183199 ,66,2485467307394
2.8604757 ,Left ,51,0734704871723 ,44,8489226695095 ,66,2227335652104
2.8604777 ,Left ,51,0734704871723 ,44,8489226695095 ,66,2227335652104
2.8604792 ,Left ,51,0734704871723 ,44,8489226695095 ,66,2227335652104
2.8828888 ,Left ,51,0519268742457 ,44,8315357735832 ,66,2428347191838
2.8828907 ,Left ,51,0519268742457 ,44,8315357735832 ,66,2428347191838
2.8828922 ,Left ,51,0519268742457 ,44,8315357735832 ,66,2428347191838
2.9204301 ,Left ,50,9278552133912 ,44,8427895471851 ,66,2061244782128
2.9204319 ,Left ,50,9278552133912 ,44,8427895471851 ,66,2061244782128
2.9204334 ,Left ,50,9278552133912 ,44,8427895471851 ,66,2061244782128
2.9428992 ,Left ,50,9832241505764 ,44,8636782920825 ,66,1854886842789
2.9429015 ,Left ,50,9832241505764 ,44,8636782920825 ,66,1854886842789
2.9429031 ,Left ,50,9832241505764 ,44,8636782920825 ,66,1854886842789
2.9805062 ,Left ,51,0839915861527 ,44,812245058769 ,66,1986809505623
2.9805082 ,Left ,51,0839915861527 ,44,812245058769 ,66,1986809505623
2.9805098 ,Left ,51,0839915861527 ,44,812245058769 ,66,1986809505623
3.0031651 ,Left ,51,0850907521538 ,44,7866898062125 ,66,2181139360332
3.0031677 ,Left ,51,0850907521538 ,44,7866898062125 ,66,2181139360332
3.0031697 ,Left ,51,0850907521538 ,44,7866898062125 ,66,2181139360332
3.0406211 ,Left ,51,0206795259929 ,44,6819666326199 ,66,2294199594176
3.040623 ,Left ,51,0206795259929 ,44,6819666326199 ,66,2294199594176
3.0406245 ,Left ,51,0206795259929 ,44,6819666326199 ,66,2294199594176
3.0629846 ,Left ,50,9973642130512 ,44,6780926079316 ,66,2035468015149
3.062987 ,Left ,50,9973642130512 ,44,6780926079316 ,66,2035468015149
3.0629889 ,Left ,50,9973642130512 ,44,6780926079316 ,66,2035468015149
3.1005821 ,Left ,50,9342988357625 ,44,8080413943215 ,66,1846134479907
3.1005857 ,Left ,50,9342988357625 ,44,8080413943215 ,66,1846134479907
3.1005887 ,Left ,50,9342988357625 ,44,8080413943215 ,66,1846134479907
3.123157 ,Left ,51,0516234958598 ,44,8463136909716 ,66,1790514760062
3.1231607 ,Left ,51,0516234958598 ,44,8463136909716 ,66,1790514760062
3.1231637 ,Left ,51,0516234958598 ,44,8463136909716 ,66,1790514760062
3.1456276 ,Left ,51,1271448604294 ,44,8516289313412 ,66,1581015732062
3.1456314 ,Left ,51,1271448604294 ,44,8516289313412 ,66,1581015732062
3.1456345 ,Left ,51,1271448604294 ,44,8516289313412 ,66,1581015732062
3.1610605 ,Left ,51,1435567891387 ,44,8501163553643 ,66,167815058396
3.1610641 ,Left ,51,1435567891387 ,44,8501163553643 ,66,167815058396
3.1610671 ,Left ,51,1435567891387 ,44,8501163553643 ,66,167815058396
3.1830587 ,Left ,51,1348972627179 ,44,8279642315857 ,66,2039207359834
3.1830648 ,Left ,51,1348972627179 ,44,8279642315857 ,66,2039207359834
3.183068 ,Left ,51,1348972627179 ,44,8279642315857 ,66,2039207359834
3.205621 ,Left ,51,1786285414788 ,44,8331572927013 ,66,2174487983458
3.2056241 ,Left ,51,1786285414788 ,44,8331572927013 ,66,2174487983458
3.2056266 ,Left ,51,1786285414788 ,44,8331572927013 ,66,2174487983458
3.2206006 ,Left ,51,1705847857658 ,44,7933636750544 ,66,2298164418245
3.2206035 ,Left ,51,1705847857658 ,44,7933636750544 ,66,2298164418245
3.2206061 ,Left ,51,1705847857658 ,44,7933636750544 ,66,2298164418245
3.242966 ,Left ,51,0755638042993 ,44,7833749971665 ,66,2693354455865
3.2429679 ,Left ,51,0755638042993 ,44,7833749971665 ,66,2693354455865
3.2429694 ,Left ,51,0755638042993 ,44,7833749971665 ,66,2693354455865
3.2805229 ,Left ,51,0248516966419 ,44,8398887553019 ,66,3530274749747
3.2805249 ,Left ,51,0248516966419 ,44,8398887553019 ,66,3530274749747
3.2805396 ,Left ,51,0248516966419 ,44,8398887553019 ,66,3530274749747
3.3029786 ,Left ,51,0786989220713 ,44,8441663885739 ,66,3268279738464
3.3029807 ,Left ,51,0786989220713 ,44,8441663885739 ,66,3268279738464
3.3029823 ,Left ,51,0786989220713 ,44,8441663885739 ,66,3268279738464
3.3404678 ,Left ,51,0268477652286 ,44,8124027733732 ,66,3112216628618
3.3404718 ,Left ,51,0268477652286 ,44,8124027733732 ,66,3112216628618
3.3404737 ,Left ,51,0268477652286 ,44,8124027733732 ,66,3112216628618
3.3637059 ,Left ,50,9643955618454 ,44,9017772518675 ,66,2742301848916
3.3637202 ,Left ,50,9643955618454 ,44,9017772518675 ,66,2742301848916
3.3637295 ,Left ,50,9643955618454 ,44,9017772518675 ,66,2742301848916
3.4012006 ,Left ,51,0770266715953 ,45,0378768895398 ,66,2052689800108
3.4012084 ,Left ,51,0770266715953 ,45,0378768895398 ,66,2052689800108
3.4012151 ,Left ,51,0770266715953 ,45,0378768895398 ,66,2052689800108
3.4235292 ,Left ,51,1702076519353 ,45,0696772298473 ,66,1790608278868
3.4235369 ,Left ,51,1702076519353 ,45,0696772298473 ,66,1790608278868
3.4235437 ,Left ,51,1702076519353 ,45,0696772298473 ,66,1790608278868
3.4606906 ,Left ,51,1002870191287 ,45,1392813227551 ,66,1312277557169
3.4606934 ,Left ,51,1002870191287 ,45,1392813227551 ,66,1312277557169
3.4606958 ,Left ,51,1002870191287 ,45,1392813227551 ,66,1312277557169
3.4829302 ,Left ,51,0881538749313 ,45,1850232633199 ,66,1054712626742
3.482932 ,Left ,51,0881538749313 ,45,1850232633199 ,66,1054712626742
3.4829334 ,Left ,51,0881538749313 ,45,1850232633199 ,66,1054712626742
3.5205927 ,Left ,51,1578249612564 ,45,2637395819237 ,66,0404304173521
3.5205947 ,Left ,51,1578249612564 ,45,2637395819237 ,66,0404304173521
3.5205962 ,Left ,51,1578249612564 ,45,2637395819237 ,66,0404304173521
3.542924 ,Left ,51,16373954338 ,45,2825405627243 ,66,0050969519646
3.5429264 ,Left ,51,16373954338 ,45,2825405627243 ,66,0050969519646
3.5429285 ,Left ,51,16373954338 ,45,2825405627243 ,66,0050969519646
3.5804109 ,Left ,51,0728251479371 ,45,2641780306431 ,65,921652547757
3.580413 ,Left ,51,0728251479371 ,45,2641780306431 ,65,921652547757
3.5804146 ,Left ,51,0728251479371 ,45,2641780306431 ,65,921652547757
3.603116 ,Left ,51,0489136012899 ,45,2350419561725 ,65,8813588575034
3.6031182 ,Left ,51,0489136012899 ,45,2350419561725 ,65,8813588575034
3.6031198 ,Left ,51,0489136012899 ,45,2350419561725 ,65,8813588575034
3.6404387 ,Left ,51,0792061709206 ,45,1927101148538 ,65,8341245080672
3.6404405 ,Left ,51,0792061709206 ,45,1927101148538 ,65,8341245080672
3.640442 ,Left ,51,0792061709206 ,45,1927101148538 ,65,8341245080672
3.6628931 ,Left ,51,0922478928696 ,45,1643725143483 ,65,8432425055586
3.6628972 ,Left ,51,0922478928696 ,45,1643725143483 ,65,8432425055586
3.6628989 ,Left ,51,0922478928696 ,45,1643725143483 ,65,8432425055586
3.7012986 ,Left ,50,9821073572883 ,45,2432248407317 ,65,8762862241674
3.7013064 ,Left ,50,9821073572883 ,45,2432248407317 ,65,8762862241674
3.7013131 ,Left ,50,9821073572883 ,45,2432248407317 ,65,8762862241674
3.7237507 ,Left ,50,9223175287159 ,45,3212733350083 ,65,9519832968935
3.7237564 ,Left ,50,9223175287159 ,45,3212733350083 ,65,9519832968935
3.7237611 ,Left ,50,9223175287159 ,45,3212733350083 ,65,9519832968935
3.7607157 ,Left ,51,048465635364 ,45,3428570716433 ,66,055437689906
3.7607184 ,Left ,51,048465635364 ,45,3428570716433 ,66,055437689906
3.7607206 ,Left ,51,048465635364 ,45,3428570716433 ,66,055437689906
3.7830527 ,Left ,51,1905594112042 ,45,2136872207115 ,66,0633716956622
3.7830553 ,Left ,51,1905594112042 ,45,2136872207115 ,66,0633716956622
3.7830575 ,Left ,51,1905594112042 ,45,2136872207115 ,66,0633716956622
3.820572 ,Left ,51,0450762513134 ,44,93805554407 ,66,1203718829816
3.8205752 ,Left ,51,0450762513134 ,44,93805554407 ,66,1203718829816
3.8205778 ,Left ,51,0450762513134 ,44,93805554407 ,66,1203718829816
3.8432145 ,Left ,50,9679507230179 ,44,9039383279093 ,66,1465549706775
3.8432178 ,Left ,50,9679507230179 ,44,9039383279093 ,66,1465549706775
3.8432204 ,Left ,50,9679507230179 ,44,9039383279093 ,66,1465549706775
3.8805329 ,Left ,51,1899107657022 ,44,894822118721 ,66,1245114782153
3.8805352 ,Left ,51,1899107657022 ,44,894822118721 ,66,1245114782153
3.8805371 ,Left ,51,1899107657022 ,44,894822118721 ,66,1245114782153
3.9029873 ,Left ,51,1125342926127 ,44,9141470915866 ,66,1546094829279
3.9029901 ,Left ,51,1125342926127 ,44,9141470915866 ,66,1546094829279
3.9029925 ,Left ,51,1125342926127 ,44,9141470915866 ,66,1546094829279
3.9405086 ,Left ,51,1217179404075 ,44,93623682814 ,66,224566098774
3.9405122 ,Left ,51,1217179404075 ,44,93623682814 ,66,224566098774
3.9405137 ,Left ,51,1217179404075 ,44,93623682814 ,66,224566098774
3.9630641 ,Left ,51,201976038096 ,44,9524406911556 ,66,2013080013391
3.9630734 ,Left ,51,201976038096 ,44,9524406911556 ,66,2013080013391
3.9630755 ,Left ,51,201976038096 ,44,9524406911556 ,66,2013080013391
4.0079399 ,Left ,51,3013715100208 ,44,9687212345071 ,66,2340890587857
4.0079418 ,Left ,51,3013715100208 ,44,9687212345071 ,66,2340890587857
4.0079433 ,Left ,51,3013715100208 ,44,9687212345071 ,66,2340890587857
4.0304968 ,Left ,51,2985432361105 ,44,9753223161631 ,66,2476017459562
4.0304987 ,Left ,51,2985432361105 ,44,9753223161631 ,66,2476017459562
4.0305005 ,Left ,51,2985432361105 ,44,9753223161631 ,66,2476017459562
4.0605059 ,Left ,51,3387074330074 ,44,9805083153338 ,66,257968054142
4.060508 ,Left ,51,3387074330074 ,44,9805083153338 ,66,257968054142
4.0605094 ,Left ,51,3387074330074 ,44,9805083153338 ,66,257968054142
4.0831978 ,Left ,51,3775210683899 ,44,9998456451739 ,66,2519009959252
4.0831999 ,Left ,51,3775210683899 ,44,9998456451739 ,66,2519009959252
4.0832014 ,Left ,51,3775210683899 ,44,9998456451739 ,66,2519009959252
4.120533 ,Left ,51,4084803646282 ,45,0721852180831 ,66,2354348055442
4.1205358 ,Left ,51,4084803646282 ,45,0721852180831 ,66,2354348055442
4.1205382 ,Left ,51,4084803646282 ,45,0721852180831 ,66,2354348055442
4.1431273 ,Left ,51,4455367601864 ,45,0793027391885 ,66,2442265172821
4.143131 ,Left ,51,4455367601864 ,45,0793027391885 ,66,2442265172821
4.1431341 ,Left ,51,4455367601864 ,45,0793027391885 ,66,2442265172821
4.1808497 ,Left ,51,4673940086763 ,45,0941338156894 ,66,2766561865195
4.1808533 ,Left ,51,4673940086763 ,45,0941338156894 ,66,2766561865195
4.1808564 ,Left ,51,4673940086763 ,45,0941338156894 ,66,2766561865195
4.2031287 ,Left ,51,4498507662843 ,45,1139102031934 ,66,2871972456479
4.2031306 ,Left ,51,4498507662843 ,45,1139102031934 ,66,2871972456479
4.2031321 ,Left ,51,4498507662843 ,45,1139102031934 ,66,2871972456479
4.2404546 ,Left ,51,5496205336309 ,45,1063683808592 ,66,2907002928699
4.2404562 ,Left ,51,5496205336309 ,45,1063683808592 ,66,2907002928699
4.2404577 ,Left ,51,5496205336309 ,45,1063683808592 ,66,2907002928699
4.2630641 ,Left ,51,5649275907503 ,45,1121111567542 ,66,2838656767422
4.2630664 ,Left ,51,5649275907503 ,45,1121111567542 ,66,2838656767422
4.2630683 ,Left ,51,5649275907503 ,45,1121111567542 ,66,2838656767422
4.3005477 ,Left ,51,5147297228304 ,45,1461639436786 ,66,2754303602079
4.3005497 ,Left ,51,5147297228304 ,45,1461639436786 ,66,2754303602079
4.3005512 ,Left ,51,5147297228304 ,45,1461639436786 ,66,2754303602079
4.3233204 ,Left ,51,495051824591 ,45,1379086647776 ,66,2691675999258
4.3233223 ,Left ,51,495051824591 ,45,1379086647776 ,66,2691675999258
4.3233238 ,Left ,51,495051824591 ,45,1379086647776 ,66,2691675999258
4.3607829 ,Left ,51,48611422336 ,45,125393622328 ,66,2661480809125
4.3607863 ,Left ,51,48611422336 ,45,125393622328 ,66,2661480809125
4.3607889 ,Left ,51,48611422336 ,45,125393622328 ,66,2661480809125
4.3756452 ,Left ,51,4733030424743 ,45,1118745466227 ,66,2703212794921
4.3756489 ,Left ,51,4733030424743 ,45,1118745466227 ,66,2703212794921
4.3756519 ,Left ,51,4733030424743 ,45,1118745466227 ,66,2703212794921
4.4212632 ,Left ,51,4633877074691 ,45,0641118677936 ,66,2828366913171
4.4212711 ,Left ,51,4633877074691 ,45,0641118677936 ,66,2828366913171
4.4212778 ,Left ,51,4633877074691 ,45,0641118677936 ,66,2828366913171
4.4358232 ,Left ,51,4237251532566 ,45,037081401151 ,66,2828074195764
4.4358312 ,Left ,51,4237251532566 ,45,037081401151 ,66,2828074195764
4.4358379 ,Left ,51,4237251532566 ,45,037081401151 ,66,2828074195764
4.4585304 ,Left ,51,4118750275998 ,45,0412708709161 ,66,2679761544228
4.4585382 ,Left ,51,4118750275998 ,45,0412708709161 ,66,2679761544228
4.4585449 ,Left ,51,4118750275998 ,45,0412708709161 ,66,2679761544228
4.4730352 ,Left ,51,3865411415811 ,45,0646902601724 ,66,249969073597
4.4730388 ,Left ,51,3865411415811 ,45,0646902601724 ,66,249969073597
4.4730417 ,Left ,51,3865411415811 ,45,0646902601724 ,66,249969073597
4.495632 ,Left ,51,296160230309 ,45,0918258041877 ,66,2609224314175
4.4956343 ,Left ,51,296160230309 ,45,0918258041877 ,66,2609224314175
4.4956362 ,Left ,51,296160230309 ,45,0918258041877 ,66,2609224314175
4.5178913 ,Left ,51,1622977099029 ,45,1057001453057 ,66,2872700040047
4.5178935 ,Left ,51,1622977099029 ,45,1057001453057 ,66,2872700040047
4.5178954 ,Left ,51,1622977099029 ,45,1057001453057 ,66,2872700040047
4.5330347 ,Left ,51,0964938661008 ,45,0979573686177 ,66,3238637285553
4.5330365 ,Left ,51,0964938661008 ,45,0979573686177 ,66,3238637285553
4.533038 ,Left ,51,0964938661008 ,45,0979573686177 ,66,3238637285553
4.5554923 ,Left ,51,1235134828306 ,45,0955544603874 ,66,3472904974487
4.5554941 ,Left ,51,1235134828306 ,45,0955544603874 ,66,3472904974487
4.5554956 ,Left ,51,1235134828306 ,45,0955544603874 ,66,3472904974487
4.5780905 ,Left ,51,1340302099797 ,45,0650221011983 ,66,3454170932203
4.5780927 ,Left ,51,1340302099797 ,45,0650221011983 ,66,3454170932203
4.5780943 ,Left ,51,1340302099797 ,45,0650221011983 ,66,3454170932203
4.5929434 ,Left ,51,1489572447651 ,45,0214476064716 ,66,3202344393179
4.5929455 ,Left ,51,1489572447651 ,45,0214476064716 ,66,3202344393179
4.5929472 ,Left ,51,1489572447651 ,45,0214476064716 ,66,3202344393179
4.615556 ,Left ,51,11814716974 ,44,9823563062606 ,66,3040994619994
4.6155611 ,Left ,51,11814716974 ,44,9823563062606 ,66,3040994619994
4.6155637 ,Left ,51,11814716974 ,44,9823563062606 ,66,3040994619994
4.6380087 ,Left ,51,0855327139404 ,44,9992065188339 ,66,2805406638236
4.6380106 ,Left ,51,0855327139404 ,44,9992065188339 ,66,2805406638236
4.638012 ,Left ,51,0855327139404 ,44,9992065188339 ,66,2805406638236
4.6529459 ,Left ,51,0710081560542 ,45,0368874171523 ,66,2418256000132
4.6529476 ,Left ,51,0710081560542 ,45,0368874171523 ,66,2418256000132
4.6529491 ,Left ,51,0710081560542 ,45,0368874171523 ,66,2418256000132
4.6754698 ,Left ,51,012772916176 ,45,0574819762874 ,66,1927434985692
4.6754746 ,Left ,51,012772916176 ,45,0574819762874 ,66,1927434985692
4.6754764 ,Left ,51,012772916176 ,45,0574819762874 ,66,1927434985692
4.6985579 ,Left ,50,9659487352894 ,45,1317585990567 ,66,2243289260228
4.6985653 ,Left ,50,9659487352894 ,45,1317585990567 ,66,2243289260228
4.6985721 ,Left ,50,9659487352894 ,45,1317585990567 ,66,2243289260228
4.713013 ,Left ,51,0148528120891 ,45,1863337804224 ,66,2528816462817
4.7130149 ,Left ,51,0148528120891 ,45,1863337804224 ,66,2528816462817
4.7130164 ,Left ,51,0148528120891 ,45,1863337804224 ,66,2528816462817
4.7354655 ,Left ,51,0819968407565 ,45,2134391651358 ,66,235780408174
4.7354673 ,Left ,51,0819968407565 ,45,2134391651358 ,66,235780408174
4.7354688 ,Left ,51,0819968407565 ,45,2134391651358 ,66,235780408174
4.7580624 ,Left ,51,0984780633662 ,45,1918944704039 ,66,2256277745444
4.7580648 ,Left ,51,0984780633662 ,45,1918944704039 ,66,2256277745444
4.7580667 ,Left ,51,0984780633662 ,45,1918944704039 ,66,2256277745444
4.7731643 ,Left ,51,1308265613168 ,45,1328558675353 ,66,2472049041189
4.7731677 ,Left ,51,1308265613168 ,45,1328558675353 ,66,2472049041189
4.7731698 ,Left ,51,1308265613168 ,45,1328558675353 ,66,2472049041189
4.7954349 ,Left ,51,1047825701706 ,45,0421280812522 ,66,2640081795279
4.7954366 ,Left ,51,1047825701706 ,45,0421280812522 ,66,2640081795279
4.7954381 ,Left ,51,1047825701706 ,45,0421280812522 ,66,2640081795279
4.8179264 ,Left ,51,0981647093505 ,44,9865963428025 ,66,2520956613636
4.8179282 ,Left ,51,0981647093505 ,44,9865963428025 ,66,2520956613636
4.8179299 ,Left ,51,0981647093505 ,44,9865963428025 ,66,2520956613636
4.832909 ,Left ,51,0529638784231 ,44,9190710067768 ,66,2762869685449
4.8329113 ,Left ,51,0529638784231 ,44,9190710067768 ,66,2762869685449
4.8329134 ,Left ,51,0529638784231 ,44,9190710067768 ,66,2762869685449
4.8554786 ,Left ,51,0388941340526 ,44,9120971434932 ,66,2513171851991
4.8554813 ,Left ,51,0388941340526 ,44,9120971434932 ,66,2513171851991
4.8554837 ,Left ,51,0388941340526 ,44,9120971434932 ,66,2513171851991
4.8780266 ,Left ,51,007783133087 ,44,9494921122463 ,66,2357061246991
4.8780293 ,Left ,51,007783133087 ,44,9494921122463 ,66,2357061246991
4.8780316 ,Left ,51,007783133087 ,44,9494921122463 ,66,2357061246991
4.8931817 ,Left ,50,9997392126115 ,44,9981683883165 ,66,242876749563
4.8931847 ,Left ,50,9997392126115 ,44,9981683883165 ,66,242876749563
4.893187 ,Left ,50,9997392126115 ,44,9981683883165 ,66,242876749563
4.9156096 ,Left ,51,0611289964757 ,45,0396451078098 ,66,2458951744992
4.9156125 ,Left ,51,0611289964757 ,45,0396451078098 ,66,2458951744992
4.9156149 ,Left ,51,0611289964757 ,45,0396451078098 ,66,2458951744992
4.9379119 ,Left ,51,1521480661766 ,45,0964484403529 ,66,2077915966841
4.9379269 ,Left ,51,1521480661766 ,45,0964484403529 ,66,2077915966841
4.9379284 ,Left ,51,1521480661766 ,45,0964484403529 ,66,2077915966841
4.9534089 ,Left ,51,1596830818862 ,45,1073123059398 ,66,212937796069
4.9534165 ,Left ,51,1596830818862 ,45,1073123059398 ,66,212937796069
4.9534232 ,Left ,51,1596830818862 ,45,1073123059398 ,66,212937796069
4.9762084 ,Left ,51,1854595726772 ,45,1003311693401 ,66,2251834553016
4.9762163 ,Left ,51,1854595726772 ,45,1003311693401 ,66,2251834553016
4.976223 ,Left ,51,1854595726772 ,45,1003311693401 ,66,2251834553016
4.9990641 ,Left ,51,1857017533032 ,45,0699055735648 ,66,2336999652244
4.9990718 ,Left ,51,1857017533032 ,45,0699055735648 ,66,2336999652244
4.9990786 ,Left ,51,1857017533032 ,45,0699055735648 ,66,2336999652244
5.013473 ,Left ,51,1792470098895 ,45,0420923281172 ,66,2336386508374
5.0134806 ,Left ,51,1792470098895 ,45,0420923281172 ,66,2336386508374
5.0134873 ,Left ,51,1792470098895 ,45,0420923281172 ,66,2336386508374
5.0354722 ,Left ,51,1783600011801 ,45,0184962120463 ,66,2284146832131
5.035475 ,Left ,51,1783600011801 ,45,0184962120463 ,66,2284146832131
5.0354775 ,Left ,51,1783600011801 ,45,0184962120463 ,66,2284146832131
5.0579236 ,Left ,51,1803492348934 ,45,0001559787755 ,66,2223148990234
5.0579258 ,Left ,51,1803492348934 ,45,0001559787755 ,66,2223148990234
5.0579273 ,Left ,51,1803492348934 ,45,0001559787755 ,66,2223148990234
5.0730168 ,Left ,51,1256984417791 ,45,0214387579121 ,66,2445263573421
5.0730187 ,Left ,51,1256984417791 ,45,0214387579121 ,66,2445263573421
5.0730202 ,Left ,51,1256984417791 ,45,0214387579121 ,66,2445263573421
5.095336 ,Left ,51,0745866378711 ,45,0482322697769 ,66,2979182793743
5.0953378 ,Left ,51,0745866378711 ,45,0482322697769 ,66,2979182793743
5.0953393 ,Left ,51,0745866378711 ,45,0482322697769 ,66,2979182793743
5.1180941 ,Left ,51,0987854935758 ,45,036346076914 ,66,3200376428493
5.1180963 ,Left ,51,0987854935758 ,45,036346076914 ,66,3200376428493
5.1180978 ,Left ,51,0987854935758 ,45,036346076914 ,66,3200376428493
5.1403906 ,Left ,51,1319144294052 ,45,0124570229146 ,66,3253586342574
5.1403928 ,Left ,51,1319144294052 ,45,0124570229146 ,66,3253586342574
5.1403947 ,Left ,51,1319144294052 ,45,0124570229146 ,66,3253586342574
5.1555751 ,Left ,51,119585541744 ,45,0016377977353 ,66,3234368932599
5.155578 ,Left ,51,119585541744 ,45,0016377977353 ,66,3234368932599
5.1555803 ,Left ,51,119585541744 ,45,0016377977353 ,66,3234368932599
5.1778955 ,Left ,51,1066941068643 ,45,0544113040572 ,66,2834714643002
5.1778973 ,Left ,51,1066941068643 ,45,0544113040572 ,66,2834714643002
5.1778989 ,Left ,51,1066941068643 ,45,0544113040572 ,66,2834714643002
5.2010054 ,Left ,51,136054418687 ,45,1039888941373 ,66,2570105840641
5.2010128 ,Left ,51,136054418687 ,45,1039888941373 ,66,2570105840641
5.2010194 ,Left ,51,136054418687 ,45,1039888941373 ,66,2570105840641
5.2235493 ,Left ,51,2020107460937 ,45,1339076013268 ,66,2235214645379
5.223557 ,Left ,51,2020107460937 ,45,1339076013268 ,66,2235214645379
5.2235638 ,Left ,51,2020107460937 ,45,1339076013268 ,66,2235214645379
5.2459109 ,Left ,51,2678380026188 ,45,1620492025176 ,66,2047897185514
5.2459165 ,Left ,51,2678380026188 ,45,1620492025176 ,66,2047897185514
5.2459212 ,Left ,51,2678380026188 ,45,1620492025176 ,66,2047897185514
5.2752541 ,Left ,51,2587467866866 ,45,2319832941366 ,66,1526834974054
5.2752559 ,Left ,51,2587467866866 ,45,2319832941366 ,66,1526834974054
5.2752574 ,Left ,51,2587467866866 ,45,2319832941366 ,66,1526834974054
5.297902 ,Left ,51,2498527451129 ,45,2655180359631 ,66,1390554256335
5.2979038 ,Left ,51,2498527451129 ,45,2655180359631 ,66,1390554256335
5.2979053 ,Left ,51,2498527451129 ,45,2655180359631 ,66,1390554256335
5.320659 ,Left ,51,2616826456583 ,45,2947137431626 ,66,1025920277584
5.3206615 ,Left ,51,2616826456583 ,45,2947137431626 ,66,1025920277584
5.3206634 ,Left ,51,2616826456583 ,45,2947137431626 ,66,1025920277584
5.335434 ,Left ,51,2819533093647 ,45,3134240176737 ,66,0585284613972
5.3354372 ,Left ,51,2819533093647 ,45,3134240176737 ,66,0585284613972
5.3354391 ,Left ,51,2819533093647 ,45,3134240176737 ,66,0585284613972
5.3578965 ,Left ,51,3003832590126 ,45,3212421135275 ,66,0202723504829
5.3578988 ,Left ,51,3003832590126 ,45,3212421135275 ,66,0202723504829
5.3579007 ,Left ,51,3003832590126 ,45,3212421135275 ,66,0202723504829
5.380451 ,Left ,51,2873928261837 ,45,323502897264 ,65,9876028420944
5.3804533 ,Left ,51,2873928261837 ,45,323502897264 ,65,9876028420944
5.3804549 ,Left ,51,2873928261837 ,45,323502897264 ,65,9876028420944
5.3954002 ,Left ,51,2490041137554 ,45,3311248930275 ,65,9519023360456
5.395402 ,Left ,51,2490041137554 ,45,3311248930275 ,65,9519023360456
5.3954034 ,Left ,51,2490041137554 ,45,3311248930275 ,65,9519023360456
5.41791 ,Left ,51,232418818024 ,45,3392772396234 ,65,9040893435031
5.4179122 ,Left ,51,232418818024 ,45,3392772396234 ,65,9040893435031
5.4179141 ,Left ,51,232418818024 ,45,3392772396234 ,65,9040893435031
5.4405098 ,Left ,51,2343512367958 ,45,3266327478602 ,65,8887897833334
5.440512 ,Left ,51,2343512367958 ,45,3266327478602 ,65,8887897833334
5.4405138 ,Left ,51,2343512367958 ,45,3266327478602 ,65,8887897833334
5.4554591 ,Left ,51,2443525693692 ,45,3091617245644 ,65,8770012724129
5.4554609 ,Left ,51,2443525693692 ,45,3091617245644 ,65,8770012724129
5.4554625 ,Left ,51,2443525693692 ,45,3091617245644 ,65,8770012724129
5.4780217 ,Left ,51,2379200454561 ,45,2824836529148 ,65,8497588255239
5.4780237 ,Left ,51,2379200454561 ,45,2824836529148 ,65,8497588255239
5.4780253 ,Left ,51,2379200454561 ,45,2824836529148 ,65,8497588255239
5.500429 ,Left ,51,2285642251798 ,45,2595018801955 ,65,8609251299813
5.500431 ,Left ,51,2285642251798 ,45,2595018801955 ,65,8609251299813
5.5004326 ,Left ,51,2285642251798 ,45,2595018801955 ,65,8609251299813
5.5154255 ,Left ,51,2199439874599 ,45,2672659194659 ,65,8728755833308
5.5154273 ,Left ,51,2199439874599 ,45,2672659194659 ,65,8728755833308
5.5154417 ,Left ,51,2199439874599 ,45,2672659194659 ,65,8728755833308
5.5388011 ,Left ,51,1463603930086 ,45,3510103315267 ,65,941385928096
5.538809 ,Left ,51,1463603930086 ,45,3510103315267 ,65,941385928096
5.5388156 ,Left ,51,1463603930086 ,45,3510103315267 ,65,941385928096
5.5613111 ,Left ,51,0739719318481 ,45,4724937766872 ,65,9902306952307
5.5613188 ,Left ,51,0739719318481 ,45,4724937766872 ,65,9902306952307
5.5613254 ,Left ,51,0739719318481 ,45,4724937766872 ,65,9902306952307
5.5760097 ,Left ,51,2023686096982 ,45,4657546010319 ,65,9949240229351
5.5760173 ,Left ,51,2023686096982 ,45,4657546010319 ,65,9949240229351
5.5760239 ,Left ,51,2023686096982 ,45,4657546010319 ,65,9949240229351
5.6055033 ,Left ,51,3998777732287 ,45,3322683387952 ,65,9914146697676
5.6055057 ,Left ,51,3998777732287 ,45,3322683387952 ,65,9914146697676
5.6055072 ,Left ,51,3998777732287 ,45,3322683387952 ,65,9914146697676
5.6282079 ,Left ,51,3948592343556 ,45,1521867114563 ,66,0400200293622
5.6282099 ,Left ,51,3948592343556 ,45,1521867114563 ,66,0400200293622
5.6282113 ,Left ,51,3948592343556 ,45,1521867114563 ,66,0400200293622
5.6429744 ,Left ,51,1518992672489 ,45,0881767730221 ,66,0747955339965
5.6429763 ,Left ,51,1518992672489 ,45,0881767730221 ,66,0747955339965
5.6429777 ,Left ,51,1518992672489 ,45,0881767730221 ,66,0747955339965
5.6578816 ,Left ,51,0279457847605 ,45,099796118987 ,66,0863345917934
5.657884 ,Left ,51,0279457847605 ,45,099796118987 ,66,0863345917934
5.6578858 ,Left ,51,0279457847605 ,45,099796118987 ,66,0863345917934
5.6812454 ,Left ,51,1570369488229 ,45,0955911706255 ,66,0825790827263
5.6812531 ,Left ,51,1570369488229 ,45,0955911706255 ,66,0825790827263
5.6812599 ,Left ,51,1570369488229 ,45,0955911706255 ,66,0825790827263
5.7037727 ,Left ,51,3108151170871 ,45,089503746924 ,66,0555678702611
5.7037805 ,Left ,51,3108151170871 ,45,089503746924 ,66,0555678702611
5.7037872 ,Left ,51,3108151170871 ,45,089503746924 ,66,0555678702611
5.7187069 ,Left ,51,2084438959702 ,45,0913577424822 ,66,0847049948473
5.7187217 ,Left ,51,2084438959702 ,45,0913577424822 ,66,0847049948473
5.7187448 ,Left ,51,2084438959702 ,45,0913577424822 ,66,0847049948473
5.7410029 ,Left ,51,1125792270064 ,45,092348743773 ,66,1474547835468
5.7410105 ,Left ,51,1125792270064 ,45,092348743773 ,66,1474547835468
5.7410171 ,Left ,51,1125792270064 ,45,092348743773 ,66,1474547835468
5.7630844 ,Left ,51,1362767093429 ,45,1339524903986 ,66,1760892425132
5.7630873 ,Left ,51,1362767093429 ,45,1339524903986 ,66,1760892425132
5.7630897 ,Left ,51,1362767093429 ,45,1339524903986 ,66,1760892425132
5.7779632 ,Left ,51,2148200888816 ,45,1660414552873 ,66,15935084279
5.7779657 ,Left ,51,2148200888816 ,45,1660414552873 ,66,15935084279
5.7779677 ,Left ,51,2148200888816 ,45,1660414552873 ,66,15935084279
5.800718 ,Left ,51,2980440660037 ,45,1528400361092 ,66,1607472377558
5.8007208 ,Left ,51,2980440660037 ,45,1528400361092 ,66,1607472377558
5.8007229 ,Left ,51,2980440660037 ,45,1528400361092 ,66,1607472377558
5.815234 ,Left ,51,3157409706888 ,45,1290821038436 ,66,181656775707
5.8152358 ,Left ,51,3157409706888 ,45,1290821038436 ,66,181656775707
5.8152373 ,Left ,51,3157409706888 ,45,1290821038436 ,66,181656775707
5.8380771 ,Left ,51,276662459198 ,45,1210849734185 ,66,2054462053011
5.838079 ,Left ,51,276662459198 ,45,1210849734185 ,66,2054462053011
5.8380805 ,Left ,51,276662459198 ,45,1210849734185 ,66,2054462053011
5.8604817 ,Left ,51,2644474121471 ,45,1207174345385 ,66,2273597851534
5.8604835 ,Left ,51,2644474121471 ,45,1207174345385 ,66,2273597851534
5.8604852 ,Left ,51,2644474121471 ,45,1207174345385 ,66,2273597851534
5.875681 ,Left ,51,307873317925 ,45,114013078537 ,66,2467264579021
5.8756833 ,Left ,51,307873317925 ,45,114013078537 ,66,2467264579021
5.8756852 ,Left ,51,307873317925 ,45,114013078537 ,66,2467264579021
5.8985915 ,Left ,51,3729898167229 ,45,1144747088318 ,66,2542469502771
5.8986033 ,Left ,51,3729898167229 ,45,1144747088318 ,66,2542469502771
5.8986143 ,Left ,51,3729898167229 ,45,1144747088318 ,66,2542469502771
5.9203845 ,Left ,51,4113887297234 ,45,1293462404389 ,66,2668051062278
5.9203861 ,Left ,51,4113887297234 ,45,1293462404389 ,66,2668051062278
5.9203876 ,Left ,51,4113887297234 ,45,1293462404389 ,66,2668051062278
5.9428411 ,Left ,51,4510443899431 ,45,1404085156082 ,66,2857638629143
5.9428429 ,Left ,51,4510443899431 ,45,1404085156082 ,66,2857638629143
5.9428444 ,Left ,51,4510443899431 ,45,1404085156082 ,66,2857638629143
5.9581756 ,Left ,51,4843443227856 ,45,1494254018352 ,66,3128906583843
5.9581775 ,Left ,51,4843443227856 ,45,1494254018352 ,66,3128906583843
5.958179 ,Left ,51,4843443227856 ,45,1494254018352 ,66,3128906583843
5.9802418 ,Left ,51,5047172143639 ,45,1651380219921 ,66,3276652217211
5.9802464 ,Left ,51,5047172143639 ,45,1651380219921 ,66,3276652217211
5.9802485 ,Left ,51,5047172143639 ,45,1651380219921 ,66,3276652217211
5.9953026 ,Left ,51,511399031944 ,45,1683622234622 ,66,3425170038824
5.9953045 ,Left ,51,511399031944 ,45,1683622234622 ,66,3425170038824
5.995306 ,Left ,51,511399031944 ,45,1683622234622 ,66,3425170038824
6.0184125 ,Left ,51,5253780391012 ,45,1660941447111 ,66,3503700733138
6.01842 ,Left ,51,5253780391012 ,45,1660941447111 ,66,3503700733138
6.0184267 ,Left ,51,5253780391012 ,45,1660941447111 ,66,3503700733138
6.0414077 ,Left ,51,5379833392291 ,45,1565500045653 ,66,351293012153
6.0414155 ,Left ,51,5379833392291 ,45,1565500045653 ,66,351293012153
6.0414223 ,Left ,51,5379833392291 ,45,1565500045653 ,66,351293012153
6.0635454 ,Left ,51,5330012346914 ,45,163820248094 ,66,3517553527429
6.0635532 ,Left ,51,5330012346914 ,45,163820248094 ,66,3517553527429
6.0635599 ,Left ,51,5330012346914 ,45,163820248094 ,66,3517553527429
6.0780325 ,Left ,51,5156732762784 ,45,1896053301252 ,66,3504990735791
6.0780358 ,Left ,51,5156732762784 ,45,1896053301252 ,66,3504990735791
6.0780387 ,Left ,51,5156732762784 ,45,1896053301252 ,66,3504990735791
6.1005388 ,Left ,51,5338903881876 ,45,201800433993 ,66,3500108252717
6.1005408 ,Left ,51,5338903881876 ,45,201800433993 ,66,3500108252717
6.1005422 ,Left ,51,5338903881876 ,45,201800433993 ,66,3500108252717
6.1229783 ,Left ,51,5698483920505 ,45,1941794095146 ,66,3548617651635
6.12298 ,Left ,51,5698483920505 ,45,1941794095146 ,66,3548617651635
6.1229815 ,Left ,51,5698483920505 ,45,1941794095146 ,66,3548617651635
6.1378475 ,Left ,51,5695318859316 ,45,1839569371602 ,66,348564424445
6.1378494 ,Left ,51,5695318859316 ,45,1839569371602 ,66,348564424445
6.137851 ,Left ,51,5695318859316 ,45,1839569371602 ,66,348564424445
6.1604083 ,Left ,51,5346810677371 ,45,190320029868 ,66,3483223417404
6.16041 ,Left ,51,5346810677371 ,45,190320029868 ,66,3483223417404
6.1604115 ,Left ,51,5346810677371 ,45,190320029868 ,66,3483223417404
6.1829976 ,Left ,51,5101623068915 ,45,202619273256 ,66,3438742251221
6.1829997 ,Left ,51,5101623068915 ,45,202619273256 ,66,3438742251221
6.1830012 ,Left ,51,5101623068915 ,45,202619273256 ,66,3438742251221
6.1979483 ,Left ,51,5089235046383 ,45,1993797274474 ,66,3396751837446
6.1979505 ,Left ,51,5089235046383 ,45,1993797274474 ,66,3396751837446
6.1979521 ,Left ,51,5089235046383 ,45,1993797274474 ,66,3396751837446
6.2204609 ,Left ,51,5364404444837 ,45,1820985148662 ,66,3349823117996
6.2204633 ,Left ,51,5364404444837 ,45,1820985148662 ,66,3349823117996
6.2204654 ,Left ,51,5364404444837 ,45,1820985148662 ,66,3349823117996
6.2431728 ,Left ,51,5446729758202 ,45,1788230047902 ,66,3245937274205
6.243175 ,Left ,51,5446729758202 ,45,1788230047902 ,66,3245937274205
6.2431765 ,Left ,51,5446729758202 ,45,1788230047902 ,66,3245937274205
6.2578879 ,Left ,51,5272472716966 ,45,1726529298452 ,66,2932767935608
6.2578899 ,Left ,51,5272472716966 ,45,1726529298452 ,66,2932767935608
6.2578915 ,Left ,51,5272472716966 ,45,1726529298452 ,66,2932767935608
6.2804694 ,Left ,51,5291015436093 ,45,1604118220347 ,66,2593036421486
6.2804718 ,Left ,51,5291015436093 ,45,1604118220347 ,66,2593036421486
6.2804739 ,Left ,51,5291015436093 ,45,1604118220347 ,66,2593036421486
6.3029146 ,Left ,51,5159357227808 ,45,1596683654928 ,66,2363269905483
6.3029167 ,Left ,51,5159357227808 ,45,1596683654928 ,66,2363269905483
6.3029184 ,Left ,51,5159357227808 ,45,1596683654928 ,66,2363269905483
6.3179598 ,Left ,51,452713719942 ,45,1611148768126 ,66,2577111597046
6.3179618 ,Left ,51,452713719942 ,45,1611148768126 ,66,2577111597046
6.3179635 ,Left ,51,452713719942 ,45,1611148768126 ,66,2577111597046
6.3408174 ,Left ,51,3176720794705 ,45,2064342657244 ,66,3071956285828
6.3408209 ,Left ,51,3176720794705 ,45,2064342657244 ,66,3071956285828
6.3408236 ,Left ,51,3176720794705 ,45,2064342657244 ,66,3071956285828
6.3632512 ,Left ,51,2412099645106 ,45,2317862110912 ,66,3614420120907
6.3632545 ,Left ,51,2412099645106 ,45,2317862110912 ,66,3614420120907
6.3632571 ,Left ,51,2412099645106 ,45,2317862110912 ,66,3614420120907
6.3780063 ,Left ,51,2632219189593 ,45,2278015712857 ,66,3653533852425
6.3780102 ,Left ,51,2632219189593 ,45,2278015712857 ,66,3653533852425
6.3780129 ,Left ,51,2632219189593 ,45,2278015712857 ,66,3653533852425
6.4006721 ,Left ,51,292371124271 ,45,2026457232595 ,66,3442491840838
6.4006752 ,Left ,51,292371124271 ,45,2026457232595 ,66,3442491840838
6.4006779 ,Left ,51,292371124271 ,45,2026457232595 ,66,3442491840838
6.4230981 ,Left ,51,2745785207775 ,45,1774843406059 ,66,3205103516912
6.4231103 ,Left ,51,2745785207775 ,45,1774843406059 ,66,3205103516912
6.423113 ,Left ,51,2745785207775 ,45,1774843406059 ,66,3205103516912
6.4457793 ,Left ,51,2492260433706 ,45,154418123444 ,66,3139183942612
6.4457826 ,Left ,51,2492260433706 ,45,154418123444 ,66,3139183942612
6.4457852 ,Left ,51,2492260433706 ,45,154418123444 ,66,3139183942612
6.4605132 ,Left ,51,2264658105704 ,45,1351023084882 ,66,2837213775978
6.4605214 ,Left ,51,2264658105704 ,45,1351023084882 ,66,2837213775978
6.4605255 ,Left ,51,2264658105704 ,45,1351023084882 ,66,2837213775978
6.4831263 ,Left ,51,2251072661833 ,45,1200112050813 ,66,2485446160025
6.4831291 ,Left ,51,2251072661833 ,45,1200112050813 ,66,2485446160025
6.4831314 ,Left ,51,2251072661833 ,45,1200112050813 ,66,2485446160025
6.4980469 ,Left ,51,2220264377677 ,45,0897347378394 ,66,1987416416053
6.4980495 ,Left ,51,2220264377677 ,45,0897347378394 ,66,1987416416053
6.4980539 ,Left ,51,2220264377677 ,45,0897347378394 ,66,1987416416053
6.5204727 ,Left ,51,1703210922693 ,45,0987109446471 ,66,1798146864768
6.5204753 ,Left ,51,1703210922693 ,45,0987109446471 ,66,1798146864768
6.5204775 ,Left ,51,1703210922693 ,45,0987109446471 ,66,1798146864768
6.5428788 ,Left ,51,0717097266391 ,45,1117884610615 ,66,2133468429775
6.5428807 ,Left ,51,0717097266391 ,45,1117884610615 ,66,2133468429775
6.5428821 ,Left ,51,0717097266391 ,45,1117884610615 ,66,2133468429775
6.5578706 ,Left ,51,1355456351454 ,45,1398257752137 ,66,2235074581993
6.5578751 ,Left ,51,1355456351454 ,45,1398257752137 ,66,2235074581993
6.5578765 ,Left ,51,1355456351454 ,45,1398257752137 ,66,2235074581993
6.581311 ,Left ,51,2393425574875 ,45,1279621194446 ,66,210361220777
6.5813188 ,Left ,51,2393425574875 ,45,1279621194446 ,66,210361220777
6.5813255 ,Left ,51,2393425574875 ,45,1279621194446 ,66,210361220777
6.6037796 ,Left ,51,2816381173053 ,45,0875450105327 ,66,1997948674415
6.6037875 ,Left ,51,2816381173053 ,45,0875450105327 ,66,1997948674415
6.6037942 ,Left ,51,2816381173053 ,45,0875450105327 ,66,1997948674415
6.6258228 ,Left ,51,2739614197916 ,45,0462624392919 ,66,2051146013723
6.6258283 ,Left ,51,2739614197916 ,45,0462624392919 ,66,2051146013723
6.625833 ,Left ,51,2739614197916 ,45,0462624392919 ,66,2051146013723
6.6482675 ,Left ,51,2386062072377 ,45,0089426289402 ,66,1957257168866
6.6482702 ,Left ,51,2386062072377 ,45,0089426289402 ,66,1957257168866
6.6482724 ,Left ,51,2386062072377 ,45,0089426289402 ,66,1957257168866
6.6780729 ,Left ,51,2478538722687 ,44,9867115804494 ,66,1707017009569
6.6780746 ,Left ,51,2478538722687 ,44,9867115804494 ,66,1707017009569
6.6780761 ,Left ,51,2478538722687 ,44,9867115804494 ,66,1707017009569
6.7003522 ,Left ,51,2082116495849 ,44,9743249693566 ,66,1606115029467
6.7003543 ,Left ,51,2082116495849 ,44,9743249693566 ,66,1606115029467
6.7003559 ,Left ,51,2082116495849 ,44,9743249693566 ,66,1606115029467
6.7229456 ,Left ,51,1904249624855 ,45,0128308479862 ,66,1657347723216
6.7229474 ,Left ,51,1904249624855 ,45,0128308479862 ,66,1657347723216
6.7229489 ,Left ,51,1904249624855 ,45,0128308479862 ,66,1657347723216
6.7380295 ,Left ,51,2309688136216 ,45,0010359739338 ,66,1857161779505
6.7380313 ,Left ,51,2309688136216 ,45,0010359739338 ,66,1857161779505
6.7380328 ,Left ,51,2309688136216 ,45,0010359739338 ,66,1857161779505
6.7605242 ,Left ,51,304475391928 ,45,0155876421413 ,66,1705671693577
6.7605266 ,Left ,51,304475391928 ,45,0155876421413 ,66,1705671693577
6.7605283 ,Left ,51,304475391928 ,45,0155876421413 ,66,1705671693577
6.7828752 ,Left ,51,338056295692 ,45,0250802419682 ,66,142599253429
6.7828774 ,Left ,51,338056295692 ,45,0250802419682 ,66,142599253429
6.7828791 ,Left ,51,338056295692 ,45,0250802419682 ,66,142599253429
6.7980028 ,Left ,51,338056295692 ,45,0250802419682 ,66,142599253429
6.7980048 ,Left ,51,338056295692 ,45,0250802419682 ,66,142599253429
6.7980065 ,Left ,51,338056295692 ,45,0250802419682 ,66,142599253429
6.8204456 ,Left ,51,3395287872111 ,45,0383283873506 ,66,1376446873397
6.8204479 ,Left ,51,3395287872111 ,45,0383283873506 ,66,1376446873397
6.82045 ,Left ,51,3395287872111 ,45,0383283873506 ,66,1376446873397
6.8430822 ,Left ,51,3379701363933 ,45,0567373657024 ,66,1234121767301
6.843085 ,Left ,51,3379701363933 ,45,0567373657024 ,66,1234121767301
6.8430874 ,Left ,51,3379701363933 ,45,0567373657024 ,66,1234121767301
6.8577813 ,Left ,51,2672783541288 ,45,0735246939547 ,66,179393700874
6.8577835 ,Left ,51,2672783541288 ,45,0735246939547 ,66,179393700874
6.857785 ,Left ,51,2672783541288 ,45,0735246939547 ,66,179393700874
6.8804613 ,Left ,51,1613802619746 ,45,067729417798 ,66,2711610993092
6.880463 ,Left ,51,1613802619746 ,45,067729417798 ,66,2711610993092
6.8804645 ,Left ,51,1613802619746 ,45,067729417798 ,66,2711610993092
6.9029127 ,Left ,51,1834724571017 ,45,0652194615076 ,66,2635259367549
6.9029149 ,Left ,51,1834724571017 ,45,0652194615076 ,66,2635259367549
6.9029168 ,Left ,51,1834724571017 ,45,0652194615076 ,66,2635259367549
6.918011 ,Left ,51,2167878221082 ,45,0384012694745 ,66,2737078349614
6.9180133 ,Left ,51,2167878221082 ,45,0384012694745 ,66,2737078349614
6.9180152 ,Left ,51,2167878221082 ,45,0384012694745 ,66,2737078349614
6.9404048 ,Left ,51,1645646994312 ,45,0295249302307 ,66,2566353506252
6.9404066 ,Left ,51,1645646994312 ,45,0295249302307 ,66,2566353506252
6.940408 ,Left ,51,1645646994312 ,45,0295249302307 ,66,2566353506252
6.9635876 ,Left ,51,1197390062037 ,45,1165567816346 ,66,210905850893
6.9635952 ,Left ,51,1197390062037 ,45,1165567816346 ,66,210905850893
6.963602 ,Left ,51,1197390062037 ,45,1165567816346 ,66,210905850893
6.9863789 ,Left ,51,1527800566193 ,45,1920664933491 ,66,1756726204155
6.9863867 ,Left ,51,1527800566193 ,45,1920664933491 ,66,1756726204155
6.9863933 ,Left ,51,1527800566193 ,45,1920664933491 ,66,1756726204155
7.0010644 ,Left ,51,2358665747841 ,45,2210218239929 ,66,1451924465881
7.00107 ,Left ,51,2358665747841 ,45,2210218239929 ,66,1451924465881
7.0010746 ,Left ,51,2358665747841 ,45,2210218239929 ,66,1451924465881
7.0231148 ,Left ,51,3103059177027 ,45,249082221987 ,66,1253191723341
7.0231208 ,Left ,51,3103059177027 ,45,249082221987 ,66,1253191723341
7.0231262 ,Left ,51,3103059177027 ,45,249082221987 ,66,1253191723341
7.0455712 ,Left ,51,288574024759 ,45,2603972033833 ,66,0958445535835
7.0455741 ,Left ,51,288574024759 ,45,2603972033833 ,66,0958445535835
7.0455766 ,Left ,51,288574024759 ,45,2603972033833 ,66,0958445535835
7.060712 ,Left ,51,2581740664244 ,45,2662020405237 ,66,0770462831515
7.0607153 ,Left ,51,2581740664244 ,45,2662020405237 ,66,0770462831515
7.0607178 ,Left ,51,2581740664244 ,45,2662020405237 ,66,0770462831515
7.0832883 ,Left ,51,2406883960934 ,45,2729012123489 ,66,0653005107983
7.0832916 ,Left ,51,2406883960934 ,45,2729012123489 ,66,0653005107983
7.083294 ,Left ,51,2406883960934 ,45,2729012123489 ,66,0653005107983
7.1056051 ,Left ,51,265189011547 ,45,2926877420752 ,66,0480429974284
7.105607 ,Left ,51,265189011547 ,45,2926877420752 ,66,0480429974284
7.1056085 ,Left ,51,265189011547 ,45,2926877420752 ,66,0480429974284
7.1206754 ,Left ,51,2861985350994 ,45,3189315485857 ,66,0306890890653
7.1206774 ,Left ,51,2861985350994 ,45,3189315485857 ,66,0306890890653
7.1206789 ,Left ,51,2861985350994 ,45,3189315485857 ,66,0306890890653
7.1430316 ,Left ,51,315938378937 ,45,3183909690198 ,65,9913750564168
7.1430338 ,Left ,51,315938378937 ,45,3183909690198 ,65,9913750564168
7.1430356 ,Left ,51,315938378937 ,45,3183909690198 ,65,9913750564168
7.1655294 ,Left ,51,3019267178049 ,45,2823420600472 ,65,9474233917153
7.1655318 ,Left ,51,3019267178049 ,45,2823420600472 ,65,9474233917153
7.1655337 ,Left ,51,3019267178049 ,45,2823420600472 ,65,9474233917153
7.1804084 ,Left ,51,2645671793208 ,45,2440376852606 ,65,9176303835431
7.1804119 ,Left ,51,2645671793208 ,45,2440376852606 ,65,9176303835431
7.1804138 ,Left ,51,2645671793208 ,45,2440376852606 ,65,9176303835431
7.2031885 ,Left ,51,2507163629965 ,45,2298201795643 ,65,895229526412
7.203191 ,Left ,51,2507163629965 ,45,2298201795643 ,65,895229526412
7.2031928 ,Left ,51,2507163629965 ,45,2298201795643 ,65,895229526412
7.2256828 ,Left ,51,2827604969266 ,45,2083306668565 ,65,8539056506182
7.2256851 ,Left ,51,2827604969266 ,45,2083306668565 ,65,8539056506182
7.2256869 ,Left ,51,2827604969266 ,45,2083306668565 ,65,8539056506182
7.2405321 ,Left ,51,3151846892558 ,45,1596738339525 ,65,8153745451821
7.2405344 ,Left ,51,3151846892558 ,45,1596738339525 ,65,8153745451821
7.2405363 ,Left ,51,3151846892558 ,45,1596738339525 ,65,8153745451821
7.2628333 ,Left ,51,3068258382562 ,45,1425156248851 ,65,7926519008502
7.2628365 ,Left ,51,3068258382562 ,45,1425156248851 ,65,7926519008502
7.2628381 ,Left ,51,3068258382562 ,45,1425156248851 ,65,7926519008502
7.285576 ,Left ,51,2851601700122 ,45,1433584191208 ,65,7911650281341
7.2855783 ,Left ,51,2851601700122 ,45,1433584191208 ,65,7911650281341
7.28558 ,Left ,51,2851601700122 ,45,1433584191208 ,65,7911650281341
7.3004283 ,Left ,51,2348915972129 ,45,1650782481906 ,65,8013838657673
7.3004305 ,Left ,51,2348915972129 ,45,1650782481906 ,65,8013838657673
7.3004322 ,Left ,51,2348915972129 ,45,1650782481906 ,65,8013838657673
7.3229433 ,Left ,51,1841897961562 ,45,2522722423204 ,65,8446469548315
7.3229455 ,Left ,51,1841897961562 ,45,2522722423204 ,65,8446469548315
7.3229474 ,Left ,51,1841897961562 ,45,2522722423204 ,65,8446469548315
7.3454648 ,Left ,51,2186934531056 ,45,2987621631466 ,65,8763544724505
7.3454666 ,Left ,51,2186934531056 ,45,2987621631466 ,65,8763544724505
7.3454681 ,Left ,51,2186934531056 ,45,2987621631466 ,65,8763544724505
7.360352 ,Left ,51,3255362659492 ,45,210708612262 ,65,8976629005122
7.3603537 ,Left ,51,3255362659492 ,45,210708612262 ,65,8976629005122
7.3603551 ,Left ,51,3255362659492 ,45,210708612262 ,65,8976629005122
7.3829907 ,Left ,51,4009537773331 ,45,0565120748976 ,65,9056074543707
7.3829928 ,Left ,51,4009537773331 ,45,0565120748976 ,65,9056074543707
7.3829946 ,Left ,51,4009537773331 ,45,0565120748976 ,65,9056074543707
7.405547 ,Left ,51,3050533363854 ,44,9131682185488 ,65,9538538008649
7.4055493 ,Left ,51,3050533363854 ,44,9131682185488 ,65,9538538008649
7.405551 ,Left ,51,3050533363854 ,44,9131682185488 ,65,9538538008649
7.4204442 ,Left ,51,1237346192866 ,44,8425930309928 ,65,9764471300912
7.4204497 ,Left ,51,1237346192866 ,44,8425930309928 ,65,9764471300912
7.4204517 ,Left ,51,1237346192866 ,44,8425930309928 ,65,9764471300912
7.4429619 ,Left ,51,1089837038282 ,44,8398422190928 ,65,9741479058899
7.442964 ,Left ,51,1089837038282 ,44,8398422190928 ,65,9741479058899
7.4429658 ,Left ,51,1089837038282 ,44,8398422190928 ,65,9741479058899
7.4655057 ,Left ,51,2596868285313 ,44,8535641678848 ,65,9680088270621
7.4655082 ,Left ,51,2596868285313 ,44,8535641678848 ,65,9680088270621
7.46551 ,Left ,51,2596868285313 ,44,8535641678848 ,65,9680088270621
7.4804305 ,Left ,51,3567144778786 ,44,8741509142182 ,65,9484230102305
7.4804323 ,Left ,51,3567144778786 ,44,8741509142182 ,65,9484230102305
7.4804338 ,Left ,51,3567144778786 ,44,8741509142182 ,65,9484230102305
7.503195 ,Left ,51,2051854596245 ,44,9125558038606 ,65,9880698801679
7.5031973 ,Left ,51,2051854596245 ,44,9125558038606 ,65,9880698801679
7.5031988 ,Left ,51,2051854596245 ,44,9125558038606 ,65,9880698801679
7.5255628 ,Left ,51,1280704233052 ,44,9329161966042 ,66,0413190631529
7.5255651 ,Left ,51,1280704233052 ,44,9329161966042 ,66,0413190631529
7.5255666 ,Left ,51,1280704233052 ,44,9329161966042 ,66,0413190631529
7.5405576 ,Left ,51,2101632389598 ,44,9304677447462 ,66,0725408497816
7.5405602 ,Left ,51,2101632389598 ,44,9304677447462 ,66,0725408497816
7.5405621 ,Left ,51,2101632389598 ,44,9304677447462 ,66,0725408497816
7.5636879 ,Left ,51,2923738061286 ,44,9475980626987 ,66,0537823236237
7.5636956 ,Left ,51,2923738061286 ,44,9475980626987 ,66,0537823236237
7.5637024 ,Left ,51,2923738061286 ,44,9475980626987 ,66,0537823236237
7.585759 ,Left ,51,3292419026625 ,44,9641840544735 ,66,0791003901677
7.5857643 ,Left ,51,3292419026625 ,44,9641840544735 ,66,0791003901677
7.585769 ,Left ,51,3292419026625 ,44,9641840544735 ,66,0791003901677
7.6081104 ,Left ,51,350546920888 ,44,9587270245098 ,66,1329771117006
7.6081132 ,Left ,51,350546920888 ,44,9587270245098 ,66,1329771117006
7.6081153 ,Left ,51,350546920888 ,44,9587270245098 ,66,1329771117006
7.6230146 ,Left ,51,3485232635232 ,44,9770221871819 ,66,1733335288871
7.6230168 ,Left ,51,3485232635232 ,44,9770221871819 ,66,1733335288871
7.6230185 ,Left ,51,3485232635232 ,44,9770221871819 ,66,1733335288871
7.6454522 ,Left ,51,348353548431 ,44,986003188881 ,66,2087366117678
7.6454543 ,Left ,51,348353548431 ,44,986003188881 ,66,2087366117678
7.645456 ,Left ,51,348353548431 ,44,986003188881 ,66,2087366117678
7.660381 ,Left ,51,3897408705036 ,45,0063035204869 ,66,2360031049333
7.6603831 ,Left ,51,3897408705036 ,45,0063035204869 ,66,2360031049333
7.6603849 ,Left ,51,3897408705036 ,45,0063035204869 ,66,2360031049333
7.6830712 ,Left ,51,4286529284923 ,45,0255120428008 ,66,2643314635104
7.6830734 ,Left ,51,4286529284923 ,45,0255120428008 ,66,2643314635104
7.6830751 ,Left ,51,4286529284923 ,45,0255120428008 ,66,2643314635104
7.7131286 ,Left ,51,4439500426587 ,45,0398273703515 ,66,2775859240024
7.7131329 ,Left ,51,4439500426587 ,45,0398273703515 ,66,2775859240024
7.713135 ,Left ,51,4439500426587 ,45,0398273703515 ,66,2775859240024
7.7354795 ,Left ,51,4538933354295 ,45,0325823210707 ,66,2898402312275
7.735482 ,Left ,51,4538933354295 ,45,0325823210707 ,66,2898402312275
7.735484 ,Left ,51,4538933354295 ,45,0325823210707 ,66,2898402312275
7.7504949 ,Left ,51,4702397606263 ,45,0426155421472 ,66,296745088023
7.7504974 ,Left ,51,4702397606263 ,45,0426155421472 ,66,296745088023
7.7504995 ,Left ,51,4702397606263 ,45,0426155421472 ,66,296745088023
7.7812627 ,Left ,51,509445257014 ,45,0445959816779 ,66,3006713278805
7.7812704 ,Left ,51,509445257014 ,45,0445959816779 ,66,3006713278805
7.7812771 ,Left ,51,509445257014 ,45,0445959816779 ,66,3006713278805
7.8037222 ,Left ,51,5114586764702 ,45,0438343602127 ,66,2979353642347
7.8037301 ,Left ,51,5114586764702 ,45,0438343602127 ,66,2979353642347
7.8037368 ,Left ,51,5114586764702 ,45,0438343602127 ,66,2979353642347
7.8255585 ,Left ,51,5006171334566 ,45,0365803054096 ,66,297280974661
7.8255625 ,Left ,51,5006171334566 ,45,0365803054096 ,66,297280974661
7.8255661 ,Left ,51,5006171334566 ,45,0365803054096 ,66,297280974661
7.8405288 ,Left ,51,5025704047642 ,45,0486032079614 ,66,2832003761319
7.8405312 ,Left ,51,5025704047642 ,45,0486032079614 ,66,2832003761319
7.8405333 ,Left ,51,5025704047642 ,45,0486032079614 ,66,2832003761319
7.8630435 ,Left ,51,5333984669231 ,45,0485997203084 ,66,2540100651169
7.8630461 ,Left ,51,5333984669231 ,45,0485997203084 ,66,2540100651169
7.8630483 ,Left ,51,5333984669231 ,45,0485997203084 ,66,2540100651169
7.8854937 ,Left ,51,5493678577269 ,45,0328621705833 ,66,2207801350333
7.885496 ,Left ,51,5493678577269 ,45,0328621705833 ,66,2207801350333
7.8854981 ,Left ,51,5493678577269 ,45,0328621705833 ,66,2207801350333
7.9004338 ,Left ,51,54691704267 ,45,0221098730153 ,66,1943993176203
7.9004407 ,Left ,51,54691704267 ,45,0221098730153 ,66,1943993176203
7.9004432 ,Left ,51,54691704267 ,45,0221098730153 ,66,1943993176203
7.9229415 ,Left ,51,5269037461281 ,45,0238111119172 ,66,1654555220567
7.9229434 ,Left ,51,5269037461281 ,45,0238111119172 ,66,1654555220567
7.9229449 ,Left ,51,5269037461281 ,45,0238111119172 ,66,1654555220567
7.9455116 ,Left ,51,5132878733216 ,45,0071870205461 ,66,1292159527094
7.9455135 ,Left ,51,5132878733216 ,45,0071870205461 ,66,1292159527094
7.945515 ,Left ,51,5132878733216 ,45,0071870205461 ,66,1292159527094
7.967991 ,Left ,51,5526758142855 ,44,9675267489035 ,66,0938348645348
7.9679927 ,Left ,51,5526758142855 ,44,9675267489035 ,66,0938348645348
7.9679942 ,Left ,51,5526758142855 ,44,9675267489035 ,66,0938348645348
7.9829505 ,Left ,51,5604408309558 ,44,9187089493071 ,66,0747622653917
7.9829524 ,Left ,51,5604408309558 ,44,9187089493071 ,66,0747622653917
7.982954 ,Left ,51,5604408309558 ,44,9187089493071 ,66,0747622653917
8.0056113 ,Left ,51,4970435084204 ,44,895289940747 ,66,0952378546485
8.0056139 ,Left ,51,4970435084204 ,44,895289940747 ,66,0952378546485
8.0056155 ,Left ,51,4970435084204 ,44,895289940747 ,66,0952378546485
8.0280294 ,Left ,51,3646378442787 ,44,9250386306102 ,66,1415203868759
8.0280311 ,Left ,51,3646378442787 ,44,9250386306102 ,66,1415203868759
8.0280326 ,Left ,51,3646378442787 ,44,9250386306102 ,66,1415203868759
8.0429356 ,Left ,51,3166223915587 ,44,9683199984109 ,66,1709654705251
8.0429373 ,Left ,51,3166223915587 ,44,9683199984109 ,66,1709654705251
8.0429388 ,Left ,51,3166223915587 ,44,9683199984109 ,66,1709654705251
8.0656507 ,Left ,51,3282184141217 ,44,9974546764042 ,66,1729102585656
8.0656527 ,Left ,51,3282184141217 ,44,9974546764042 ,66,1729102585656
8.0656542 ,Left ,51,3282184141217 ,44,9974546764042 ,66,1729102585656
8.0879994 ,Left ,51,3564300744719 ,45,0068621456986 ,66,1343943292723
8.0880013 ,Left ,51,3564300744719 ,45,0068621456986 ,66,1343943292723
8.0880029 ,Left ,51,3564300744719 ,45,0068621456986 ,66,1343943292723
8.1030527 ,Left ,51,3408164644636 ,44,9920547419347 ,66,108157849639
8.1030552 ,Left ,51,3408164644636 ,44,9920547419347 ,66,108157849639
8.1030574 ,Left ,51,3408164644636 ,44,9920547419347 ,66,108157849639
8.125741 ,Left ,51,3146518163526 ,44,9863591319851 ,66,109375499059
8.1257439 ,Left ,51,3146518163526 ,44,9863591319851 ,66,109375499059
8.1257463 ,Left ,51,3146518163526 ,44,9863591319851 ,66,109375499059
8.1479415 ,Left ,51,2724669133232 ,44,9904884561285 ,66,1035628230833
8.1479432 ,Left ,51,2724669133232 ,44,9904884561285 ,66,1035628230833
8.1479447 ,Left ,51,2724669133232 ,44,9904884561285 ,66,1035628230833
8.1629581 ,Left ,51,2378770365386 ,44,9690056909291 ,66,0891305326292
8.1629599 ,Left ,51,2378770365386 ,44,9690056909291 ,66,0891305326292
8.1629614 ,Left ,51,2378770365386 ,44,9690056909291 ,66,0891305326292
8.1854643 ,Left ,51,2629480537946 ,44,9873206892098 ,66,0465884039899
8.1854661 ,Left ,51,2629480537946 ,44,9873206892098 ,66,0465884039899
8.1854677 ,Left ,51,2629480537946 ,44,9873206892098 ,66,0465884039899
8.2081212 ,Left ,51,2131299979939 ,44,9934829363683 ,66,0395986469114
8.208124 ,Left ,51,2131299979939 ,44,9934829363683 ,66,0395986469114
8.2081263 ,Left ,51,2131299979939 ,44,9934829363683 ,66,0395986469114
8.2230227 ,Left ,51,1458821033642 ,45,0328439791672 ,66,0600726293873
8.2230272 ,Left ,51,1458821033642 ,45,0328439791672 ,66,0600726293873
8.2230306 ,Left ,51,1458821033642 ,45,0328439791672 ,66,0600726293873
8.2454727 ,Left ,51,1993129934843 ,45,0753959656671 ,66,055349713679
8.2454745 ,Left ,51,1993129934843 ,45,0753959656671 ,66,055349713679
8.2454759 ,Left ,51,1993129934843 ,45,0753959656671 ,66,055349713679
8.2681916 ,Left ,51,3141683773559 ,45,0945449804995 ,66,0008935493564
8.2681936 ,Left ,51,3141683773559 ,45,0945449804995 ,66,0008935493564
8.268195 ,Left ,51,3141683773559 ,45,0945449804995 ,66,0008935493564
8.2829859 ,Left ,51,3392883354311 ,45,072496093241 ,65,9942618689742
8.2829882 ,Left ,51,3392883354311 ,45,072496093241 ,65,9942618689742
8.2829897 ,Left ,51,3392883354311 ,45,072496093241 ,65,9942618689742
8.2979677 ,Left ,51,3266491956377 ,45,0417058936278 ,66,010234071443
8.2979695 ,Left ,51,3266491956377 ,45,0417058936278 ,66,010234071443
8.297971 ,Left ,51,3266491956377 ,45,0417058936278 ,66,010234071443
8.3355281 ,Left ,51,307368701556 ,44,9910717039281 ,65,9995220953098
8.3355301 ,Left ,51,307368701556 ,44,9910717039281 ,65,9995220953098
8.3355316 ,Left ,51,307368701556 ,44,9910717039281 ,65,9995220953098
8.3579927 ,Left ,51,2570004580147 ,44,9274734976115 ,66,032244062545
8.3579949 ,Left ,51,2570004580147 ,44,9274734976115 ,66,032244062545
8.3579965 ,Left ,51,2570004580147 ,44,9274734976115 ,66,032244062545
8.3954181 ,Left ,51,1753853519472 ,44,9305502774509 ,66,0297678914779
8.3954203 ,Left ,51,1753853519472 ,44,9305502774509 ,66,0297678914779
8.3954219 ,Left ,51,1753853519472 ,44,9305502774509 ,66,0297678914779
8.4189232 ,Left ,51,2538871808943 ,44,9294246490491 ,66,0304259931612
8.418931 ,Left ,51,2538871808943 ,44,9294246490491 ,66,0304259931612
8.4189378 ,Left ,51,2538871808943 ,44,9294246490491 ,66,0304259931612
8.4558121 ,Left ,51,3921217827682 ,44,8931036082609 ,65,9787189930073
8.4558175 ,Left ,51,3921217827682 ,44,8931036082609 ,65,9787189930073
8.4558221 ,Left ,51,3921217827682 ,44,8931036082609 ,65,9787189930073
8.4784052 ,Left ,51,3914104588167 ,44,8795802896788 ,65,9821212945437
8.478409 ,Left ,51,3914104588167 ,44,8795802896788 ,65,9821212945437
8.4784119 ,Left ,51,3914104588167 ,44,8795802896788 ,65,9821212945437
8.5156917 ,Left ,51,3370822922715 ,44,9019571578536 ,65,9726701825919
8.5156954 ,Left ,51,3370822922715 ,44,9019571578536 ,65,9726701825919
8.5156983 ,Left ,51,3370822922715 ,44,9019571578536 ,65,9726701825919
8.5383235 ,Left ,51,2539627097199 ,44,9180994776687 ,66,0487830649949
8.5383265 ,Left ,51,2539627097199 ,44,9180994776687 ,66,0487830649949
8.5383294 ,Left ,51,2539627097199 ,44,9180994776687 ,66,0487830649949
8.5757335 ,Left ,51,296035403654 ,44,886738096924 ,66,1100493668882
8.5757365 ,Left ,51,296035403654 ,44,886738096924 ,66,1100493668882
8.575739 ,Left ,51,296035403654 ,44,886738096924 ,66,1100493668882
8.5980585 ,Left ,51,2696029902753 ,44,875126709837 ,66,1232441538262
8.5980614 ,Left ,51,2696029902753 ,44,875126709837 ,66,1232441538262
8.5980638 ,Left ,51,2696029902753 ,44,875126709837 ,66,1232441538262
8.6360383 ,Left ,51,2434363924678 ,45,0542645905074 ,66,027988413847
8.6360461 ,Left ,51,2434363924678 ,45,0542645905074 ,66,027988413847
8.636053 ,Left ,51,2434363924678 ,45,0542645905074 ,66,027988413847
8.6588091 ,Left ,51,3279563158777 ,45,1056454020988 ,65,9941791921806
8.6588172 ,Left ,51,3279563158777 ,45,1056454020988 ,65,9941791921806
8.6588239 ,Left ,51,3279563158777 ,45,1056454020988 ,65,9941791921806
8.6956889 ,Left ,51,3546857099322 ,45,1815720323819 ,65,9488532712894
8.6956921 ,Left ,51,3546857099322 ,45,1815720323819 ,65,9488532712894
8.6956945 ,Left ,51,3546857099322 ,45,1815720323819 ,65,9488532712894
8.7182554 ,Left ,51,3105181258094 ,45,2123562978733 ,65,9331711708803
8.7182709 ,Left ,51,3105181258094 ,45,2123562978733 ,65,9331711708803
8.7182725 ,Left ,51,3105181258094 ,45,2123562978733 ,65,9331711708803
8.7629725 ,Left ,51,295558317972 ,45,2309281215894 ,65,8671146736414
8.7629752 ,Left ,51,295558317972 ,45,2309281215894 ,65,8671146736414
8.7629773 ,Left ,51,295558317972 ,45,2309281215894 ,65,8671146736414
8.7855851 ,Left ,51,2607854779354 ,45,2323743553026 ,65,8468587317824
8.7855877 ,Left ,51,2607854779354 ,45,2323743553026 ,65,8468587317824
8.7855898 ,Left ,51,2607854779354 ,45,2323743553026 ,65,8468587317824
8.8155214 ,Left ,51,2214648464235 ,45,2179717632918 ,65,8119309691319
8.8155243 ,Left ,51,2214648464235 ,45,2179717632918 ,65,8119309691319
8.8155264 ,Left ,51,2214648464235 ,45,2179717632918 ,65,8119309691319
8.8379782 ,Left ,51,2216942108211 ,45,1889562041688 ,65,7927794814779
8.83798 ,Left ,51,2216942108211 ,45,1889562041688 ,65,7927794814779
8.8379815 ,Left ,51,2216942108211 ,45,1889562041688 ,65,7927794814779
8.8755059 ,Left ,51,1841770759927 ,45,1529909360007 ,65,7612864173189
8.8755078 ,Left ,51,1841770759927 ,45,1529909360007 ,65,7612864173189
8.8755094 ,Left ,51,1841770759927 ,45,1529909360007 ,65,7612864173189
8.8980163 ,Left ,51,1743643688528 ,45,1925450494403 ,65,792163955149
8.898019 ,Left ,51,1743643688528 ,45,1925450494403 ,65,792163955149
8.8980213 ,Left ,51,1743643688528 ,45,1925450494403 ,65,792163955149
8.9207504 ,Left ,51,1283265883417 ,45,2968877889963 ,65,8388111547857
8.9207544 ,Left ,51,1283265883417 ,45,2968877889963 ,65,8388111547857
8.9207579 ,Left ,51,1283265883417 ,45,2968877889963 ,65,8388111547857
8.9356044 ,Left ,51,1570037746625 ,45,3665717220886 ,65,872150147588
8.9356069 ,Left ,51,1570037746625 ,45,3665717220886 ,65,872150147588
8.9356084 ,Left ,51,1570037746625 ,45,3665717220886 ,65,872150147588
8.958292 ,Left ,51,3212123905367 ,45,2893060640907 ,65,895050583343
8.958294 ,Left ,51,3212123905367 ,45,2893060640907 ,65,895050583343
8.9582954 ,Left ,51,3212123905367 ,45,2893060640907 ,65,895050583343
8.9804436 ,Left ,51,426502995731 ,45,1149521328424 ,65,9152187449687
8.9804456 ,Left ,51,426502995731 ,45,1149521328424 ,65,9152187449687
8.9804474 ,Left ,51,426502995731 ,45,1149521328424 ,65,9152187449687
8.9955012 ,Left ,51,3145795417764 ,44,9840211344908 ,65,9358817832763
8.9955035 ,Left ,51,3145795417764 ,44,9840211344908 ,65,9358817832763
8.9955056 ,Left ,51,3145795417764 ,44,9840211344908 ,65,9358817832763
9.0181097 ,Left ,51,1617856324671 ,44,9865175220909 ,65,9276815774196
9.0181117 ,Left ,51,1617856324671 ,44,9865175220909 ,65,9276815774196
9.0181132 ,Left ,51,1617856324671 ,44,9865175220909 ,65,9276815774196
9.0411809 ,Left ,51,1898754208864 ,45,0150704979412 ,65,9334805381632
9.0411888 ,Left ,51,1898754208864 ,45,0150704979412 ,65,9334805381632
9.0411956 ,Left ,51,1898754208864 ,45,0150704979412 ,65,9334805381632
9.0562304 ,Left ,51,3719670095551 ,45,0151565020538 ,65,9173146215531
9.0562382 ,Left ,51,3719670095551 ,45,0151565020538 ,65,9173146215531
9.0562496 ,Left ,51,3719670095551 ,45,0151565020538 ,65,9173146215531
9.0787087 ,Left ,51,3997850614451 ,45,0213204861681 ,65,8890910350332
9.0787166 ,Left ,51,3997850614451 ,45,0213204861681 ,65,8890910350332
9.0787236 ,Left ,51,3997850614451 ,45,0213204861681 ,65,8890910350332
9.1008668 ,Left ,51,2399243606717 ,45,0437841580586 ,65,930048017266
9.1008698 ,Left ,51,2399243606717 ,45,0437841580586 ,65,930048017266
9.1008722 ,Left ,51,2399243606717 ,45,0437841580586 ,65,930048017266
9.1154822 ,Left ,51,1880643380558 ,45,0700899659542 ,65,9852249164397
9.1154847 ,Left ,51,1880643380558 ,45,0700899659542 ,65,9852249164397
9.1154865 ,Left ,51,1880643380558 ,45,0700899659542 ,65,9852249164397
9.1382199 ,Left ,51,2771938803636 ,45,1086690038197 ,65,9802678188199
9.1382225 ,Left ,51,2771938803636 ,45,1086690038197 ,65,9802678188199
9.1382244 ,Left ,51,2771938803636 ,45,1086690038197 ,65,9802678188199
9.1604676 ,Left ,51,3657210411934 ,45,1064522362649 ,65,9819478795974
9.1604698 ,Left ,51,3657210411934 ,45,1064522362649 ,65,9819478795974
9.1604716 ,Left ,51,3657210411934 ,45,1064522362649 ,65,9819478795974
9.175522 ,Left ,51,3846354848003 ,45,0811032151006 ,66,0103600620066
9.1755242 ,Left ,51,3846354848003 ,45,0811032151006 ,66,0103600620066
9.175526 ,Left ,51,3846354848003 ,45,0811032151006 ,66,0103600620066
9.198 ,Left ,51,3087191067074 ,45,0540927183942 ,66,0438075044374
9.1980018 ,Left ,51,3087191067074 ,45,0540927183942 ,66,0438075044374
9.1980034 ,Left ,51,3087191067074 ,45,0540927183942 ,66,0438075044374
9.2354019 ,Left ,51,2580928097204 ,45,0009445838432 ,66,0845230951319
9.2354038 ,Left ,51,2580928097204 ,45,0009445838432 ,66,0845230951319
9.2354053 ,Left ,51,2580928097204 ,45,0009445838432 ,66,0845230951319
9.25829 ,Left ,51,3408979370883 ,44,9921656021418 ,66,0898008298884
9.2582923 ,Left ,51,3408979370883 ,44,9921656021418 ,66,0898008298884
9.2582941 ,Left ,51,3408979370883 ,44,9921656021418 ,66,0898008298884
9.2955513 ,Left ,51,4082429964745 ,44,9922710999233 ,66,1100403066386
9.2955536 ,Left ,51,4082429964745 ,44,9922710999233 ,66,1100403066386
9.2955553 ,Left ,51,4082429964745 ,44,9922710999233 ,66,1100403066386
9.3180303 ,Left ,51,3851102018245 ,44,9857728346906 ,66,1384343824316
9.3180325 ,Left ,51,3851102018245 ,44,9857728346906 ,66,1384343824316
9.3180343 ,Left ,51,3851102018245 ,44,9857728346906 ,66,1384343824316
9.3556132 ,Left ,51,4351720926695 ,44,9779660908401 ,66,18865573292
9.3556156 ,Left ,51,4351720926695 ,44,9779660908401 ,66,18865573292
9.3556175 ,Left ,51,4351720926695 ,44,9779660908401 ,66,18865573292
9.3782486 ,Left ,51,4475091226164 ,44,9667836427891 ,66,2035057806761
9.3782508 ,Left ,51,4475091226164 ,44,9667836427891 ,66,2035057806761
9.3782525 ,Left ,51,4475091226164 ,44,9667836427891 ,66,2035057806761
9.4156728 ,Left ,51,4548232676344 ,44,9645919376385 ,66,2227399599685
9.4156747 ,Left ,51,4548232676344 ,44,9645919376385 ,66,2227399599685
9.4156762 ,Left ,51,4548232676344 ,44,9645919376385 ,66,2227399599685
9.4382358 ,Left ,51,4758743861775 ,44,9821602349485 ,66,2211565887079
9.438238 ,Left ,51,4758743861775 ,44,9821602349485 ,66,2211565887079
9.4382395 ,Left ,51,4758743861775 ,44,9821602349485 ,66,2211565887079
9.475484 ,Left ,51,5287103465199 ,45,0125606072724 ,66,2244562958477
9.4754861 ,Left ,51,5287103465199 ,45,0125606072724 ,66,2244562958477
9.4754877 ,Left ,51,5287103465199 ,45,0125606072724 ,66,2244562958477
9.498184 ,Left ,51,5383178321806 ,45,0253445568667 ,66,2227276158707
9.4981861 ,Left ,51,5383178321806 ,45,0253445568667 ,66,2227276158707
9.4981877 ,Left ,51,5383178321806 ,45,0253445568667 ,66,2227276158707
9.5355127 ,Left ,51,4983816038938 ,45,0565489384714 ,66,2083261684816
9.5355149 ,Left ,51,4983816038938 ,45,0565489384714 ,66,2083261684816
9.5355167 ,Left ,51,4983816038938 ,45,0565489384714 ,66,2083261684816
9.5580033 ,Left ,51,4878349164668 ,45,0492440600278 ,66,1897788528811
9.5580054 ,Left ,51,4878349164668 ,45,0492440600278 ,66,1897788528811
9.558007 ,Left ,51,4878349164668 ,45,0492440600278 ,66,1897788528811
9.5954776 ,Left ,51,5213082017351 ,44,9468912231253 ,66,1601104225812
9.5954796 ,Left ,51,5213082017351 ,44,9468912231253 ,66,1601104225812
9.5954811 ,Left ,51,5213082017351 ,44,9468912231253 ,66,1601104225812
9.618042 ,Left ,51,5063086898175 ,44,8947085362418 ,66,1599915959472
9.618044 ,Left ,51,5063086898175 ,44,8947085362418 ,66,1599915959472
9.6180457 ,Left ,51,5063086898175 ,44,8947085362418 ,66,1599915959472
9.6555992 ,Left ,51,4205918906895 ,44,8607168803786 ,66,1528312136987
9.6556022 ,Left ,51,4205918906895 ,44,8607168803786 ,66,1528312136987
9.6556049 ,Left ,51,4205918906895 ,44,8607168803786 ,66,1528312136987
9.6780049 ,Left ,51,3758288151812 ,44,8441702662391 ,66,1958141547766
9.6780067 ,Left ,51,3758288151812 ,44,8441702662391 ,66,1958141547766
9.6780083 ,Left ,51,3758288151812 ,44,8441702662391 ,66,1958141547766
9.715496 ,Left ,51,3049782512064 ,44,891239830011 ,66,226331398976
9.715498 ,Left ,51,3049782512064 ,44,891239830011 ,66,226331398976
9.7154997 ,Left ,51,3049782512064 ,44,891239830011 ,66,226331398976
9.737969 ,Left ,51,2896180317336 ,44,8885466890716 ,66,2101555402269
9.7379708 ,Left ,51,2896180317336 ,44,8885466890716 ,66,2101555402269
9.7379723 ,Left ,51,2896180317336 ,44,8885466890716 ,66,2101555402269
9.7680347 ,Left ,51,3186111896758 ,44,8178398492018 ,66,1623397846781
9.7680368 ,Left ,51,3186111896758 ,44,8178398492018 ,66,1623397846781
9.7680385 ,Left ,51,3186111896758 ,44,8178398492018 ,66,1623397846781
9.7981705 ,Left ,51,2733192071246 ,44,8283955486524 ,66,1386086686747
9.7981741 ,Left ,51,2733192071246 ,44,8283955486524 ,66,1386086686747
9.7981772 ,Left ,51,2733192071246 ,44,8283955486524 ,66,1386086686747
9.8356699 ,Left ,51,2187851854649 ,44,8402599174624 ,66,0915865816458
9.835673 ,Left ,51,2187851854649 ,44,8402599174624 ,66,0915865816458
9.8356755 ,Left ,51,2187851854649 ,44,8402599174624 ,66,0915865816458
9.8580447 ,Left ,51,1614056046786 ,44,872317274492 ,66,1091389622428
9.8580476 ,Left ,51,1614056046786 ,44,872317274492 ,66,1091389622428
9.8580502 ,Left ,51,1614056046786 ,44,872317274492 ,66,1091389622428
9.8954658 ,Left ,51,236687455737 ,44,9107825926416 ,66,1285726190615
9.8954687 ,Left ,51,236687455737 ,44,9107825926416 ,66,1285726190615
9.8954713 ,Left ,51,236687455737 ,44,9107825926416 ,66,1285726190615
9.9181704 ,Left ,51,307747413806 ,44,9072279789848 ,66,0918115825506
9.918176 ,Left ,51,307747413806 ,44,9072279789848 ,66,0918115825506
9.9181785 ,Left ,51,307747413806 ,44,9072279789848 ,66,0918115825506
9.955721 ,Left ,51,3084778406661 ,44,8497739116766 ,66,1166320833575
9.9557251 ,Left ,51,3084778406661 ,44,8497739116766 ,66,1166320833575
9.9557285 ,Left ,51,3084778406661 ,44,8497739116766 ,66,1166320833575
9.9780125 ,Left ,51,3291387365757 ,44,8784980888714 ,66,0831832533803
9.9780142 ,Left ,51,3291387365757 ,44,8784980888714 ,66,0831832533803
9.9780158 ,Left ,51,3291387365757 ,44,8784980888714 ,66,0831832533803
10.0163487 ,Left ,51,2028197898894 ,44,8346081048077 ,66,1350230721522
10.0163565 ,Left ,51,2028197898894 ,44,8346081048077 ,66,1350230721522
10.0163632 ,Left ,51,2028197898894 ,44,8346081048077 ,66,1350230721522
10.0389264 ,Left ,51,1712521340576 ,44,879269556314 ,66,1168216158978
10.0389341 ,Left ,51,1712521340576 ,44,879269556314 ,66,1168216158978
10.0389408 ,Left ,51,1712521340576 ,44,879269556314 ,66,1168216158978
10.0755653 ,Left ,51,2797547936591 ,44,872159884213 ,66,1196761435441
10.0755681 ,Left ,51,2797547936591 ,44,872159884213 ,66,1196761435441
10.0755705 ,Left ,51,2797547936591 ,44,872159884213 ,66,1196761435441
10.0980489 ,Left ,51,2948031720155 ,44,8762906131495 ,66,0923686052322
10.0980516 ,Left ,51,2948031720155 ,44,8762906131495 ,66,0923686052322
10.098054 ,Left ,51,2948031720155 ,44,8762906131495 ,66,0923686052322
10.1354293 ,Left ,51,3240252394734 ,44,9174090668684 ,66,0643484424972
10.1354315 ,Left ,51,3240252394734 ,44,9174090668684 ,66,0643484424972
10.1354331 ,Left ,51,3240252394734 ,44,9174090668684 ,66,0643484424972
10.1587839 ,Left ,51,3475643104164 ,44,9445548221257 ,66,0481271546866
10.1587916 ,Left ,51,3475643104164 ,44,9445548221257 ,66,0481271546866
10.1587982 ,Left ,51,3475643104164 ,44,9445548221257 ,66,0481271546866
10.1735165 ,Left ,51,2682126483325 ,44,9544064356141 ,66,1060284290905
10.1735307 ,Left ,51,2682126483325 ,44,9544064356141 ,66,1060284290905
10.1735374 ,Left ,51,2682126483325 ,44,9544064356141 ,66,1060284290905
10.1881697 ,Left ,51,1812359717325 ,44,9407124591884 ,66,173013214139
10.1881731 ,Left ,51,1812359717325 ,44,9407124591884 ,66,173013214139
10.188176 ,Left ,51,1812359717325 ,44,9407124591884 ,66,173013214139
10.210785 ,Left ,51,2265140841695 ,44,9269971229775 ,66,1517200402595
10.2107899 ,Left ,51,2265140841695 ,44,9269971229775 ,66,1517200402595
10.2107931 ,Left ,51,2265140841695 ,44,9269971229775 ,66,1517200402595
10.233141 ,Left ,51,2469426489552 ,44,9036278775444 ,66,1570109232223
10.233144 ,Left ,51,2469426489552 ,44,9036278775444 ,66,1570109232223
10.2331464 ,Left ,51,2469426489552 ,44,9036278775444 ,66,1570109232223
10.2482915 ,Left ,51,2245114416295 ,44,9509277961613 ,66,0961424110106
10.2482946 ,Left ,51,2245114416295 ,44,9509277961613 ,66,0961424110106
10.2482971 ,Left ,51,2245114416295 ,44,9509277961613 ,66,0961424110106
10.2704309 ,Left ,51,2269869675417 ,45,0685043682716 ,66,0408850019493
10.2704327 ,Left ,51,2269869675417 ,45,0685043682716 ,66,0408850019493
10.2704343 ,Left ,51,2269869675417 ,45,0685043682716 ,66,0408850019493
10.2929386 ,Left ,51,2553503667593 ,45,1460605123832 ,65,992713137365
10.2929407 ,Left ,51,2553503667593 ,45,1460605123832 ,65,992713137365
10.2929421 ,Left ,51,2553503667593 ,45,1460605123832 ,65,992713137365
10.3081526 ,Left ,51,3334099781673 ,45,213228602505 ,65,9683834353186
10.3081547 ,Left ,51,3334099781673 ,45,213228602505 ,65,9683834353186
10.3081562 ,Left ,51,3334099781673 ,45,213228602505 ,65,9683834353186
10.3304581 ,Left ,51,3557710296604 ,45,2413114849972 ,65,9487130576227
10.33046 ,Left ,51,3557710296604 ,45,2413114849972 ,65,9487130576227
10.3304616 ,Left ,51,3557710296604 ,45,2413114849972 ,65,9487130576227
10.3530623 ,Left ,51,3157860783313 ,45,2690120078831 ,65,9211360238597
10.3530642 ,Left ,51,3157860783313 ,45,2690120078831 ,65,9211360238597
10.3530658 ,Left ,51,3157860783313 ,45,2690120078831 ,65,9211360238597
10.3682528 ,Left ,51,2749408521941 ,45,2847290015276 ,65,9033086276538
10.3682549 ,Left ,51,2749408521941 ,45,2847290015276 ,65,9033086276538
10.3682563 ,Left ,51,2749408521941 ,45,2847290015276 ,65,9033086276538
10.3905547 ,Left ,51,2497646522236 ,45,2801900986642 ,65,8889625592316
10.3905569 ,Left ,51,2497646522236 ,45,2801900986642 ,65,8889625592316
10.3905586 ,Left ,51,2497646522236 ,45,2801900986642 ,65,8889625592316
10.4131289 ,Left ,51,2265437397235 ,45,2562139342219 ,65,8791117513502
10.4131317 ,Left ,51,2265437397235 ,45,2562139342219 ,65,8791117513502
10.4131338 ,Left ,51,2265437397235 ,45,2562139342219 ,65,8791117513502
10.4280862 ,Left ,51,2158007266488 ,45,235536492737 ,65,8771679912387
10.4280889 ,Left ,51,2158007266488 ,45,235536492737 ,65,8771679912387
10.4280936 ,Left ,51,2158007266488 ,45,235536492737 ,65,8771679912387
10.4504577 ,Left ,51,1890788372158 ,45,2175144247821 ,65,8703719640515
10.4504595 ,Left ,51,1890788372158 ,45,2175144247821 ,65,8703719640515
10.450461 ,Left ,51,1890788372158 ,45,2175144247821 ,65,8703719640515
10.4735146 ,Left ,51,167441958545 ,45,2068869846353 ,65,8532430894989
10.4735225 ,Left ,51,167441958545 ,45,2068869846353 ,65,8532430894989
10.4735294 ,Left ,51,167441958545 ,45,2068869846353 ,65,8532430894989
10.4963814 ,Left ,51,170671568828 ,45,1975576333987 ,65,8602687831911
10.4963892 ,Left ,51,170671568828 ,45,1975576333987 ,65,8602687831911
10.4963959 ,Left ,51,170671568828 ,45,1975576333987 ,65,8602687831911
10.5182113 ,Left ,51,1430675155342 ,45,2700476776036 ,65,9232111348016
10.5182147 ,Left ,51,1430675155342 ,45,2700476776036 ,65,9232111348016
10.5182176 ,Left ,51,1430675155342 ,45,2700476776036 ,65,9232111348016
10.5555716 ,Left ,51,2476310814554 ,45,3831962797355 ,65,9901405262125
10.5555745 ,Left ,51,2476310814554 ,45,3831962797355 ,65,9901405262125
10.5555796 ,Left ,51,2476310814554 ,45,3831962797355 ,65,9901405262125
10.5706926 ,Left ,51,4338080509688 ,45,2564146455725 ,65,9831274678563
10.5706946 ,Left ,51,4338080509688 ,45,2564146455725 ,65,9831274678563
10.5706961 ,Left ,51,4338080509688 ,45,2564146455725 ,65,9831274678563
10.5932212 ,Left ,51,4409964731053 ,45,0726158612057 ,66,0074166325779
10.5932238 ,Left ,51,4409964731053 ,45,0726158612057 ,66,0074166325779
10.5932255 ,Left ,51,4409964731053 ,45,0726158612057 ,66,0074166325779
10.6154819 ,Left ,51,2454104433635 ,44,9837270372594 ,66,0105329111949
10.6154837 ,Left ,51,2454104433635 ,44,9837270372594 ,66,0105329111949
10.6154851 ,Left ,51,2454104433635 ,44,9837270372594 ,66,0105329111949
10.6306431 ,Left ,51,1324155905109 ,44,9879093374701 ,66,0124055825298
10.6306451 ,Left ,51,1324155905109 ,44,9879093374701 ,66,0124055825298
10.6306466 ,Left ,51,1324155905109 ,44,9879093374701 ,66,0124055825298
10.653529 ,Left ,51,2570892320199 ,45,0100266542831 ,65,998971997255
10.6535366 ,Left ,51,2570892320199 ,45,0100266542831 ,65,998971997255
10.6535433 ,Left ,51,2570892320199 ,45,0100266542831 ,65,998971997255
10.6759639 ,Left ,51,4055233736435 ,45,0202625084704 ,65,97617508481
10.6759716 ,Left ,51,4055233736435 ,45,0202625084704 ,65,97617508481
10.6759784 ,Left ,51,4055233736435 ,45,0202625084704 ,65,97617508481
10.6907104 ,Left ,51,3366375746462 ,45,0443666493961 ,66,0158933284752
10.6907255 ,Left ,51,3366375746462 ,45,0443666493961 ,66,0158933284752
10.6907336 ,Left ,51,3366375746462 ,45,0443666493961 ,66,0158933284752
10.7128929 ,Left ,51,2570486974369 ,45,0730478700755 ,66,0860140436771
10.7128946 ,Left ,51,2570486974369 ,45,0730478700755 ,66,0860140436771
10.7128961 ,Left ,51,2570486974369 ,45,0730478700755 ,66,0860140436771
10.7355014 ,Left ,51,2758409073701 ,45,1233931308059 ,66,1014473795124
10.7355037 ,Left ,51,2758409073701 ,45,1233931308059 ,66,1014473795124
10.7355052 ,Left ,51,2758409073701 ,45,1233931308059 ,66,1014473795124
10.7504725 ,Left ,51,3742896830269 ,45,1509408218382 ,66,0694553070371
10.7504744 ,Left ,51,3742896830269 ,45,1509408218382 ,66,0694553070371
10.750476 ,Left ,51,3742896830269 ,45,1509408218382 ,66,0694553070371
10.7731954 ,Left ,51,4569537276797 ,45,1280322591054 ,66,0637821456376
10.7731978 ,Left ,51,4569537276797 ,45,1280322591054 ,66,0637821456376
10.7731993 ,Left ,51,4569537276797 ,45,1280322591054 ,66,0637821456376
10.7953984 ,Left ,51,4610536421466 ,45,0968753897898 ,66,0787162740024
10.7954002 ,Left ,51,4610536421466 ,45,0968753897898 ,66,0787162740024
10.7954016 ,Left ,51,4610536421466 ,45,0968753897898 ,66,0787162740024
10.8104593 ,Left ,51,3687962826443 ,45,0770129636538 ,66,0934155101336
10.8104614 ,Left ,51,3687962826443 ,45,0770129636538 ,66,0934155101336
10.8104631 ,Left ,51,3687962826443 ,45,0770129636538 ,66,0934155101336
10.833586 ,Left ,51,314419893409 ,45,0631886673788 ,66,1058322232326
10.8335936 ,Left ,51,314419893409 ,45,0631886673788 ,66,1058322232326
10.8336005 ,Left ,51,314419893409 ,45,0631886673788 ,66,1058322232326
10.8556622 ,Left ,51,3357073852749 ,45,0458832622123 ,66,112973373906
10.8556641 ,Left ,51,3357073852749 ,45,0458832622123 ,66,112973373906
10.8556656 ,Left ,51,3357073852749 ,45,0458832622123 ,66,112973373906
10.8705164 ,Left ,51,3849814356535 ,45,0552852245819 ,66,1219412492854
10.8705183 ,Left ,51,3849814356535 ,45,0552852245819 ,66,1219412492854
10.8705198 ,Left ,51,3849814356535 ,45,0552852245819 ,66,1219412492854
10.8934967 ,Left ,51,4063434365321 ,45,0612597780919 ,66,1392229917215
10.8935043 ,Left ,51,4063434365321 ,45,0612597780919 ,66,1392229917215
10.893511 ,Left ,51,4063434365321 ,45,0612597780919 ,66,1392229917215
10.9162002 ,Left ,51,4206528778313 ,45,0566826932352 ,66,1644231150462
10.916208 ,Left ,51,4206528778313 ,45,0566826932352 ,66,1644231150462
10.9162147 ,Left ,51,4206528778313 ,45,0566826932352 ,66,1644231150462
10.9306499 ,Left ,51,446735853448 ,45,0523630041102 ,66,1882325542215
10.930654 ,Left ,51,446735853448 ,45,0523630041102 ,66,1882325542215
10.9306576 ,Left ,51,446735853448 ,45,0523630041102 ,66,1882325542215
10.9532241 ,Left ,51,4593285857376 ,45,0602171006575 ,66,2110635412242
10.9532265 ,Left ,51,4593285857376 ,45,0602171006575 ,66,2110635412242
10.9532284 ,Left ,51,4593285857376 ,45,0602171006575 ,66,2110635412242
10.9756877 ,Left ,51,4579665436157 ,45,0785344300233 ,66,2310728651854
10.9756926 ,Left ,51,4579665436157 ,45,0785344300233 ,66,2310728651854
10.9756957 ,Left ,51,4579665436157 ,45,0785344300233 ,66,2310728651854
10.9907822 ,Left ,51,4842303273702 ,45,0713317642801 ,66,2414008150008
10.9907847 ,Left ,51,4842303273702 ,45,0713317642801 ,66,2414008150008
10.9907865 ,Left ,51,4842303273702 ,45,0713317642801 ,66,2414008150008
11.0129001 ,Left ,51,5101303214505 ,45,0493475671344 ,66,2459241580748
11.0129019 ,Left ,51,5101303214505 ,45,0493475671344 ,66,2459241580748
11.0129034 ,Left ,51,5101303214505 ,45,0493475671344 ,66,2459241580748
11.0362924 ,Left ,51,5091530077396 ,45,0463313236465 ,66,2391348997292
11.0363002 ,Left ,51,5091530077396 ,45,0463313236465 ,66,2391348997292
11.036307 ,Left ,51,5091530077396 ,45,0463313236465 ,66,2391348997292
11.0512502 ,Left ,51,4919532307157 ,45,0548036174429 ,66,2317094410927
11.0512614 ,Left ,51,4919532307157 ,45,0548036174429 ,66,2317094410927
11.0512681 ,Left ,51,4919532307157 ,45,0548036174429 ,66,2317094410927
11.0734058 ,Left ,51,5008094686448 ,45,0730882073116 ,66,2255116060473
11.0734101 ,Left ,51,5008094686448 ,45,0730882073116 ,66,2255116060473
11.0734138 ,Left ,51,5008094686448 ,45,0730882073116 ,66,2255116060473
11.0955705 ,Left ,51,4969870364152 ,45,064817269007 ,66,2195209472541
11.0955724 ,Left ,51,4969870364152 ,45,064817269007 ,66,2195209472541
11.0955739 ,Left ,51,4969870364152 ,45,064817269007 ,66,2195209472541
11.1104923 ,Left ,51,486047501197 ,45,0617953668105 ,66,2210642878295
11.110494 ,Left ,51,486047501197 ,45,0617953668105 ,66,2210642878295
11.1104955 ,Left ,51,486047501197 ,45,0617953668105 ,66,2210642878295
11.1330572 ,Left ,51,4700998787849 ,45,0572673990702 ,66,2212989092713
11.1330591 ,Left ,51,4700998787849 ,45,0572673990702 ,66,2212989092713
11.1330606 ,Left ,51,4700998787849 ,45,0572673990702 ,66,2212989092713
11.1555084 ,Left ,51,4575887131502 ,45,0449699367625 ,66,214677679715
11.1555106 ,Left ,51,4575887131502 ,45,0449699367625 ,66,214677679715
11.1555122 ,Left ,51,4575887131502 ,45,0449699367625 ,66,214677679715
11.1705621 ,Left ,51,4297476661691 ,45,017304063199 ,66,2030910679892
11.1705644 ,Left ,51,4297476661691 ,45,017304063199 ,66,2030910679892
11.1705661 ,Left ,51,4297476661691 ,45,017304063199 ,66,2030910679892
11.1930894 ,Left ,51,4320017304626 ,45,0062598873638 ,66,1920775397544
11.1930916 ,Left ,51,4320017304626 ,45,0062598873638 ,66,1920775397544
11.1930933 ,Left ,51,4320017304626 ,45,0062598873638 ,66,1920775397544
11.2157014 ,Left ,51,424288748742 ,45,0111677470945 ,66,1706297166559
11.2157047 ,Left ,51,424288748742 ,45,0111677470945 ,66,1706297166559
11.2157074 ,Left ,51,424288748742 ,45,0111677470945 ,66,1706297166559
11.2308505 ,Left ,51,3508753427278 ,45,0066475974688 ,66,1081022786836
11.2308537 ,Left ,51,3508753427278 ,45,0066475974688 ,66,1081022786836
11.2308564 ,Left ,51,3508753427278 ,45,0066475974688 ,66,1081022786836
11.2532455 ,Left ,51,2341068027428 ,44,9941614169907 ,66,1019365420331
11.2532488 ,Left ,51,2341068027428 ,44,9941614169907 ,66,1019365420331
11.2532514 ,Left ,51,2341068027428 ,44,9941614169907 ,66,1019365420331
11.2755863 ,Left ,51,1778319218671 ,45,0349207476404 ,66,1168212152185
11.2755894 ,Left ,51,1778319218671 ,45,0349207476404 ,66,1168212152185
11.275592 ,Left ,51,1778319218671 ,45,0349207476404 ,66,1168212152185
11.2904718 ,Left ,51,1480870124373 ,45,0759811982711 ,66,1369472056726
11.2904739 ,Left ,51,1480870124373 ,45,0759811982711 ,66,1369472056726
11.2904753 ,Left ,51,1480870124373 ,45,0759811982711 ,66,1369472056726
11.3129901 ,Left ,51,1529154388064 ,45,105010625364 ,66,1345521045995
11.3129918 ,Left ,51,1529154388064 ,45,105010625364 ,66,1345521045995
11.3129933 ,Left ,51,1529154388064 ,45,105010625364 ,66,1345521045995
11.3355305 ,Left ,51,1778190497494 ,45,1249305998749 ,66,1509445796083
11.3355324 ,Left ,51,1778190497494 ,45,1249305998749 ,66,1509445796083
11.3355339 ,Left ,51,1778190497494 ,45,1249305998749 ,66,1509445796083
11.3513234 ,Left ,51,1993304589323 ,45,1267952249032 ,66,1475987965847
11.351331 ,Left ,51,1993304589323 ,45,1267952249032 ,66,1475987965847
11.3513377 ,Left ,51,1993304589323 ,45,1267952249032 ,66,1475987965847
11.3730687 ,Left ,51,1645007280163 ,45,1170229909131 ,66,1665761532892
11.3730706 ,Left ,51,1645007280163 ,45,1170229909131 ,66,1665761532892
11.3730721 ,Left ,51,1645007280163 ,45,1170229909131 ,66,1665761532892
11.3955561 ,Left ,51,1285940782146 ,45,1172305944529 ,66,1644024645204
11.3955582 ,Left ,51,1285940782146 ,45,1172305944529 ,66,1644024645204
11.3955598 ,Left ,51,1285940782146 ,45,1172305944529 ,66,1644024645204
11.4107219 ,Left ,51,1057220618117 ,45,0973946678857 ,66,1371546874566
11.410724 ,Left ,51,1057220618117 ,45,0973946678857 ,66,1371546874566
11.4107256 ,Left ,51,1057220618117 ,45,0973946678857 ,66,1371546874566
11.4331557 ,Left ,51,0245725296473 ,45,1197609502054 ,66,1421925101584
11.4331634 ,Left ,51,0245725296473 ,45,1197609502054 ,66,1421925101584
11.433165 ,Left ,51,0245725296473 ,45,1197609502054 ,66,1421925101584
11.455583 ,Left ,51,021241336916 ,45,1548051798887 ,66,1457632577255
11.455585 ,Left ,51,021241336916 ,45,1548051798887 ,66,1457632577255
11.4555865 ,Left ,51,021241336916 ,45,1548051798887 ,66,1457632577255
11.4706897 ,Left ,51,1474981380213 ,45,15702529046 ,66,1373934574333
11.4706919 ,Left ,51,1474981380213 ,45,15702529046 ,66,1373934574333
11.4706935 ,Left ,51,1474981380213 ,45,15702529046 ,66,1373934574333
11.4932738 ,Left ,51,249242083234 ,45,0983161150287 ,66,1156599168571
11.4932758 ,Left ,51,249242083234 ,45,0983161150287 ,66,1156599168571
11.4932772 ,Left ,51,249242083234 ,45,0983161150287 ,66,1156599168571
11.5155693 ,Left ,51,2584078996687 ,45,0285316766315 ,66,1129179217653
11.5155712 ,Left ,51,2584078996687 ,45,0285316766315 ,66,1129179217653
11.5155728 ,Left ,51,2584078996687 ,45,0285316766315 ,66,1129179217653
11.538098 ,Left ,51,2529861821551 ,45,0094345320916 ,66,1103280203673
11.5381002 ,Left ,51,2529861821551 ,45,0094345320916 ,66,1103280203673
11.538102 ,Left ,51,2529861821551 ,45,0094345320916 ,66,1103280203673
11.5533001 ,Left ,51,2398754885673 ,45,011330045884 ,66,0644906940491
11.5533049 ,Left ,51,2398754885673 ,45,011330045884 ,66,0644906940491
11.5533073 ,Left ,51,2398754885673 ,45,011330045884 ,66,0644906940491
11.5756445 ,Left ,51,2284315787372 ,44,9980990624584 ,66,0778683904931
11.5756477 ,Left ,51,2284315787372 ,44,9980990624584 ,66,0778683904931
11.5756503 ,Left ,51,2284315787372 ,44,9980990624584 ,66,0778683904931
11.5906679 ,Left ,51,2026226463299 ,44,9978050499044 ,66,0339093514146
11.5906711 ,Left ,51,2026226463299 ,44,9978050499044 ,66,0339093514146
11.5906738 ,Left ,51,2026226463299 ,44,9978050499044 ,66,0339093514146
11.6129584 ,Left ,51,158613758115 ,45,057670399973 ,66,0007444348805
11.6129602 ,Left ,51,158613758115 ,45,057670399973 ,66,0007444348805
11.6129617 ,Left ,51,158613758115 ,45,057670399973 ,66,0007444348805
11.6355356 ,Left ,51,1192527051097 ,45,1004600782911 ,66,0492887773127
11.6355379 ,Left ,51,1192527051097 ,45,1004600782911 ,66,0492887773127
11.6355395 ,Left ,51,1192527051097 ,45,1004600782911 ,66,0492887773127
11.6504348 ,Left ,51,2010574732365 ,45,1513742701036 ,66,0490370048839
11.6504367 ,Left ,51,2010574732365 ,45,1513742701036 ,66,0490370048839
11.6504383 ,Left ,51,2010574732365 ,45,1513742701036 ,66,0490370048839
11.6731418 ,Left ,51,2947042962215 ,45,1702810394226 ,66,0182825139647
11.6731437 ,Left ,51,2947042962215 ,45,1702810394226 ,66,0182825139647
11.6731451 ,Left ,51,2947042962215 ,45,1702810394226 ,66,0182825139647
11.6954969 ,Left ,51,3353333427836 ,45,1252058270037 ,66,0194624135682
11.6954991 ,Left ,51,3353333427836 ,45,1252058270037 ,66,0194624135682
11.695501 ,Left ,51,3353333427836 ,45,1252058270037 ,66,0194624135682
11.7186043 ,Left ,51,3293962331439 ,45,0905125819341 ,66,0369587275387
11.7186162 ,Left ,51,3293962331439 ,45,0905125819341 ,66,0369587275387
11.7186274 ,Left ,51,3293962331439 ,45,0905125819341 ,66,0369587275387
11.7407008 ,Left ,51,3188919539348 ,45,1063492209991 ,66,0286806448088
11.7407032 ,Left ,51,3188919539348 ,45,1063492209991 ,66,0286806448088
11.7407047 ,Left ,51,3188919539348 ,45,1063492209991 ,66,0286806448088
11.7631268 ,Left ,51,2848805773611 ,45,1109028410549 ,66,0176860379559
11.7631289 ,Left ,51,2848805773611 ,45,1109028410549 ,66,0176860379559
11.7631304 ,Left ,51,2848805773611 ,45,1109028410549 ,66,0176860379559
11.792977 ,Left ,51,1747354752609 ,45,1264941385907 ,66,0606905768863
11.792979 ,Left ,51,1747354752609 ,45,1264941385907 ,66,0606905768863
11.7929804 ,Left ,51,1747354752609 ,45,1264941385907 ,66,0606905768863
11.815627 ,Left ,51,2073786486915 ,45,112367918537 ,66,0640899194694
11.815629 ,Left ,51,2073786486915 ,45,112367918537 ,66,0640899194694
11.8156304 ,Left ,51,2073786486915 ,45,112367918537 ,66,0640899194694
11.8379382 ,Left ,51,2419669967489 ,45,0586277007938 ,66,1070369639267
11.83794 ,Left ,51,2419669967489 ,45,0586277007938 ,66,1070369639267
11.8379415 ,Left ,51,2419669967489 ,45,0586277007938 ,66,1070369639267
11.8529976 ,Left ,51,2408687498818 ,45,0857865877259 ,66,0741163112916
11.8529997 ,Left ,51,2408687498818 ,45,0857865877259 ,66,0741163112916
11.8530015 ,Left ,51,2408687498818 ,45,0857865877259 ,66,0741163112916
11.8757006 ,Left ,51,2375567144125 ,45,1686013027866 ,66,0349288685317
11.8757038 ,Left ,51,2375567144125 ,45,1686013027866 ,66,0349288685317
11.8757065 ,Left ,51,2375567144125 ,45,1686013027866 ,66,0349288685317
11.8979855 ,Left ,51,2794112632138 ,45,1847405350242 ,66,0061437398311
11.8979874 ,Left ,51,2794112632138 ,45,1847405350242 ,66,0061437398311
11.8979889 ,Left ,51,2794112632138 ,45,1847405350242 ,66,0061437398311
11.9208353 ,Left ,51,3653753709177 ,45,1843734579428 ,65,9681564859216
11.9208372 ,Left ,51,3653753709177 ,45,1843734579428 ,65,9681564859216
11.9208387 ,Left ,51,3653753709177 ,45,1843734579428 ,65,9681564859216
11.9429235 ,Left ,51,3761742614664 ,45,184509481738 ,65,9375035287628
11.9429254 ,Left ,51,3761742614664 ,45,184509481738 ,65,9375035287628
11.9429269 ,Left ,51,3761742614664 ,45,184509481738 ,65,9375035287628
11.9731196 ,Left ,51,3182919252731 ,45,1940873780126 ,65,9196789312927
11.9731218 ,Left ,51,3182919252731 ,45,1940873780126 ,65,9196789312927
11.9731236 ,Left ,51,3182919252731 ,45,1940873780126 ,65,9196789312927
11.995657 ,Left ,51,3196827455972 ,45,209087941202 ,65,918719055296
11.995659 ,Left ,51,3196827455972 ,45,209087941202 ,65,918719055296
11.9956605 ,Left ,51,3196827455972 ,45,209087941202 ,65,918719055296
12.018268 ,Left ,51,3508837872679 ,45,2268855756087 ,65,9069677741306
12.0182705 ,Left ,51,3508837872679 ,45,2268855756087 ,65,9069677741306
12.0182724 ,Left ,51,3508837872679 ,45,2268855756087 ,65,9069677741306
12.0329478 ,Left ,51,3700917458762 ,45,2454708959271 ,65,8880180878585
12.0329497 ,Left ,51,3700917458762 ,45,2454708959271 ,65,8880180878585
12.0329513 ,Left ,51,3700917458762 ,45,2454708959271 ,65,8880180878585
12.0556371 ,Left ,51,3663144701334 ,45,2558853266299 ,65,8567731583967
12.0556396 ,Left ,51,3663144701334 ,45,2558853266299 ,65,8567731583967
12.0556412 ,Left ,51,3663144701334 ,45,2558853266299 ,65,8567731583967
12.0782493 ,Left ,51,3935693165105 ,45,2113251813971 ,65,8260292439325
12.0782513 ,Left ,51,3935693165105 ,45,2113251813971 ,65,8260292439325
12.078253 ,Left ,51,3935693165105 ,45,2113251813971 ,65,8260292439325
12.0931127 ,Left ,51,3874675068873 ,45,1790704829825 ,65,8077165890828
12.0931148 ,Left ,51,3874675068873 ,45,1790704829825 ,65,8077165890828
12.0931164 ,Left ,51,3874675068873 ,45,1790704829825 ,65,8077165890828
12.1154175 ,Left ,51,3994040029017 ,45,1765552683338 ,65,8110938707229
12.1154192 ,Left ,51,3994040029017 ,45,1765552683338 ,65,8110938707229
12.1154207 ,Left ,51,3994040029017 ,45,1765552683338 ,65,8110938707229
12.1380003 ,Left ,51,3830510276675 ,45,1690864166281 ,65,8176536331497
12.1380021 ,Left ,51,3830510276675 ,45,1690864166281 ,65,8176536331497
12.1380036 ,Left ,51,3830510276675 ,45,1690864166281 ,65,8176536331497
12.1529525 ,Left ,51,2931225998166 ,45,149007724165 ,65,854805482418
12.1529544 ,Left ,51,2931225998166 ,45,149007724165 ,65,854805482418
12.152956 ,Left ,51,2931225998166 ,45,149007724165 ,65,854805482418
12.1753501 ,Left ,51,2009511293957 ,45,2069535386964 ,65,9229233852098
12.175352 ,Left ,51,2009511293957 ,45,2069535386964 ,65,9229233852098
12.1753535 ,Left ,51,2009511293957 ,45,2069535386964 ,65,9229233852098
12.2056056 ,Left ,51,1608773504552 ,45,3309299188648 ,65,9874595417229
12.2056075 ,Left ,51,1608773504552 ,45,3309299188648 ,65,9874595417229
12.2056221 ,Left ,51,1608773504552 ,45,3309299188648 ,65,9874595417229
12.2208504 ,Left ,51,1988789311586 ,45,4055655765766 ,66,0292446411159
12.2208526 ,Left ,51,1988789311586 ,45,4055655765766 ,66,0292446411159
12.2208542 ,Left ,51,1988789311586 ,45,4055655765766 ,66,0292446411159
12.2432384 ,Left ,51,3406192649627 ,45,3531904716777 ,66,033826550308
12.2432408 ,Left ,51,3406192649627 ,45,3531904716777 ,66,033826550308
12.2432427 ,Left ,51,3406192649627 ,45,3531904716777 ,66,033826550308
12.2735494 ,Left ,51,2960396040755 ,45,0867631373732 ,66,071339537995
12.2735569 ,Left ,51,2960396040755 ,45,0867631373732 ,66,071339537995
12.2735636 ,Left ,51,2960396040755 ,45,0867631373732 ,66,071339537995
12.2956054 ,Left ,51,1620764972138 ,45,0795987566352 ,66,0804304167064
12.2956163 ,Left ,51,1620764972138 ,45,0795987566352 ,66,0804304167064
12.2956207 ,Left ,51,1620764972138 ,45,0795987566352 ,66,0804304167064
12.3180565 ,Left ,51,1649760827955 ,45,1064690322121 ,66,0856369384692
12.3180582 ,Left ,51,1649760827955 ,45,1064690322121 ,66,0856369384692
12.3180596 ,Left ,51,1649760827955 ,45,1064690322121 ,66,0856369384692
12.3406859 ,Left ,51,2678006665258 ,45,1367933526796 ,66,0478516581447
12.3406879 ,Left ,51,2678006665258 ,45,1367933526796 ,66,0478516581447
12.3406894 ,Left ,51,2678006665258 ,45,1367933526796 ,66,0478516581447
12.3557257 ,Left ,51,2588866088226 ,45,183573580996 ,66,0355661224039
12.3557276 ,Left ,51,2588866088226 ,45,183573580996 ,66,0355661224039
12.3557292 ,Left ,51,2588866088226 ,45,183573580996 ,66,0355661224039
12.3856864 ,Left ,51,1908690721423 ,45,2138714614141 ,66,097342589812
12.3856884 ,Left ,51,1908690721423 ,45,2138714614141 ,66,097342589812
12.3856899 ,Left ,51,1908690721423 ,45,2138714614141 ,66,097342589812
12.401076 ,Left ,51,2051132033564 ,45,2470813648625 ,66,12767911848
12.4010835 ,Left ,51,2051132033564 ,45,2470813648625 ,66,12767911848
12.4010902 ,Left ,51,2051132033564 ,45,2470813648625 ,66,12767911848
12.4237724 ,Left ,51,291175509265 ,45,2741850658834 ,66,099425412263
12.4237803 ,Left ,51,291175509265 ,45,2741850658834 ,66,099425412263
12.423787 ,Left ,51,291175509265 ,45,2741850658834 ,66,099425412263
12.4390968 ,Left ,51,371738863016 ,45,2575016738224 ,66,0880498718742
12.4391059 ,Left ,51,371738863016 ,45,2575016738224 ,66,0880498718742
12.4391106 ,Left ,51,371738863016 ,45,2575016738224 ,66,0880498718742
12.4532341 ,Left ,51,4081043244533 ,45,2273170140857 ,66,0955810977477
12.4532363 ,Left ,51,4081043244533 ,45,2273170140857 ,66,0955810977477
12.4532378 ,Left ,51,4081043244533 ,45,2273170140857 ,66,0955810977477
12.475493 ,Left ,51,3731291235632 ,45,2057426386 ,66,1192529705621
12.4754948 ,Left ,51,3731291235632 ,45,2057426386 ,66,1192529705621
12.4754963 ,Left ,51,3731291235632 ,45,2057426386 ,66,1192529705621
12.4979962 ,Left ,51,3532051547674 ,45,1929463474973 ,66,1313259599782
12.497998 ,Left ,51,3532051547674 ,45,1929463474973 ,66,1313259599782
12.4979995 ,Left ,51,3532051547674 ,45,1929463474973 ,66,1313259599782
