timestamp,event,roll,pitch,yaw
0.0333766 ,Left ,72,9370268856311 ,42,7649360081874 ,68,1848977440445
0.0486025 ,Left ,72,9379953348723 ,42,7674608953619 ,68,1837428190406
0.071245 ,Left ,72,9353680803137 ,42,7676638703176 ,68,1865563965135
0.0935177 ,Left ,72,9353680803137 ,42,7676638703176 ,68,1865563965135
0.1162831 ,Left ,72,9353680803137 ,42,7676638703176 ,68,1865563965135
0.1312536 ,Left ,72,9353680803137 ,42,7676638703176 ,68,1865563965135
0.1536054 ,Left ,72,93148064548 ,42,7676325927248 ,68,1849970018378
0.1761057 ,Left ,72,9316578311828 ,42,7680762830265 ,68,185464753988
0.1914586 ,Left ,72,9316578311828 ,42,7680762830265 ,68,185464753988
0.2136272 ,Left ,72,9316578311828 ,42,7680762830265 ,68,185464753988
0.2362158 ,Left ,72,9316578311828 ,42,7680762830265 ,68,185464753988
0.2515815 ,Left ,72,9316578311828 ,42,7680762830265 ,68,185464753988
0.2738193 ,Left ,72,9287965385908 ,42,7692026380195 ,68,1852805101267
0.2964669 ,Left ,72,9290315061382 ,42,7682795180893 ,68,1882786251088
0.3115058 ,Left ,72,9290315061382 ,42,7682795180893 ,68,1882786251088
0.3338508 ,Left ,72,9261705073709 ,42,769405998023 ,68,1880944611769
0.3564567 ,Left ,72,9261705073709 ,42,769405998023 ,68,1880944611769
0.3713477 ,Left ,72,9261705073709 ,42,769405998023 ,68,1880944611769
0.3938131 ,Left ,72,9261705073709 ,42,769405998023 ,68,1880944611769
0.416345 ,Left ,72,9235450342803 ,42,7696096206875 ,68,1909085003953
0.4313651 ,Left ,72,9235450342803 ,42,7696096206875 ,68,1909085003953
0.4538096 ,Left ,72,9120799978821 ,42,7644339373515 ,68,185763428447
0.4836147 ,Left ,72,8805646627066 ,42,7512309443042 ,68,1881213528346
0.506549 ,Left ,72,8665510746181 ,42,7448801443084 ,68,1883658489123
0.5435579 ,Left ,72,8608897223195 ,42,7235054478263 ,68,1828916373268
0.5663112 ,Left ,72,8599325810353 ,42,7084179050826 ,68,1807921543814
0.603604 ,Left ,72,861619319044 ,42,6714698101711 ,68,1869247290344
0.6262298 ,Left ,72,8672724102543 ,42,6590059095611 ,68,189550753967
0.6494913 ,Left ,72,8724044768415 ,42,6522415674524 ,68,1931243746658
0.6636934 ,Left ,72,8803558344493 ,42,6457115968705 ,68,1943333780587
0.686274 ,Left ,72,883524861554 ,42,6356285704821 ,68,1871038750057
0.7089944 ,Left ,72,8732963943994 ,42,6278549847788 ,68,1804332025067
0.7235702 ,Left ,72,8577663520755 ,42,646332755173 ,68,1717951774421
0.746304 ,Left ,72,7954128259564 ,42,7104523538947 ,68,1799141830881
0.7687578 ,Left ,72,7188876663538 ,42,7914656036345 ,68,1928878781532
0.7835791 ,Left ,72,6603577703405 ,42,8442602775708 ,68,2143604454
0.8060998 ,Left ,72,6097273453835 ,42,8748860724714 ,68,2383788624347
0.8285806 ,Left ,72,5512041634647 ,42,9186675947459 ,68,2414275774794
0.843473 ,Left ,72,5117570432826 ,42,9467185402362 ,68,2209768937379
0.8661615 ,Left ,72,5234657165915 ,42,9435361261414 ,68,1800366987052
0.8885286 ,Left ,72,5760776169284 ,42,9249212684581 ,68,1274895216169
0.9034543 ,Left ,72,6192793442484 ,42,9054563896144 ,68,0776344715155
0.9261102 ,Left ,72,6289279511605 ,42,8961956341189 ,68,0486640869446
0.9485277 ,Left ,72,6431630475234 ,42,8715239268376 ,68,0444357138025
0.9635468 ,Left ,72,6958474203697 ,42,8377866019625 ,68,0682044306786
0.986228 ,Left ,72,7670950765129 ,42,8036221136015 ,68,084337991059
1.0086129 ,Left ,72,811233793242 ,42,7636717093369 ,68,0928676755672
1.0234857 ,Left ,72,8339201889744 ,42,7276817269756 ,68,0858178862107
1.0462019 ,Left ,72,8356545112689 ,42,7214580759891 ,68,0596030709228
1.0685115 ,Left ,72,8304646537548 ,42,715504868899 ,68,0347523797827
1.08345 ,Left ,72,8262327052236 ,42,7215874612498 ,68,0346457747941
1.106426 ,Left ,72,8194749546882 ,42,7733322733279 ,68,0535521356786
1.1288329 ,Left ,72,7998700090203 ,42,8482522465877 ,68,0546004224797
1.1438061 ,Left ,72,7773009351808 ,42,881959698468 ,68,0346885888526
1.166332 ,Left ,72,7706516489858 ,42,8342722473223 ,68,0142349996172
1.1889746 ,Left ,72,8033331383674 ,42,763615349951 ,68,003545748479
1.2036003 ,Left ,72,8738835764156 ,42,7396953709827 ,68,0025069773267
1.2265331 ,Left ,72,9576251829329 ,42,7514139506377 ,67,9894610329417
1.2488239 ,Left ,73,0182073132119 ,42,7816379932456 ,68,0052411656824
1.263705 ,Left ,73,0587396976673 ,42,7924280256489 ,68,0116484916402
1.2862634 ,Left ,73,081668716919 ,42,7546647160884 ,68,0064258406592
1.3090262 ,Left ,73,0674266212741 ,42,7252932900523 ,68,026941640446
1.3238061 ,Left ,72,9815519676432 ,42,7592602033706 ,68,0810760437525
1.3464425 ,Left ,72,8888559714358 ,42,8456635319204 ,68,1508427962243
1.3689659 ,Left ,72,8505653298478 ,42,9257935213869 ,68,2174995052483
1.4064241 ,Left ,72,9233752953049 ,43,0361923358991 ,68,3311761379358
1.4290608 ,Left ,72,9729439233555 ,43,0920908338054 ,68,4270992622703
1.466348 ,Left ,73,0270821453926 ,43,2306811029155 ,68,6503384823075
1.4888844 ,Left ,73,0581088784824 ,43,2599894387942 ,68,7541554842597
1.5260384 ,Left ,73,0271843795389 ,43,2479871522389 ,68,8917937444803
1.5485675 ,Left ,72,9944952635143 ,43,2345461397067 ,68,9432555315416
1.5861884 ,Left ,72,9596063919273 ,43,2519102652075 ,68,9756561277867
1.6088354 ,Left ,72,9271684718625 ,43,2610786270172 ,68,9654882159866
1.6468681 ,Left ,72,8458966673133 ,43,2710839565289 ,68,9422660717948
1.669189 ,Left ,72,8391163136494 ,43,2752430808538 ,68,9464620297785
1.7067426 ,Left ,72,8606864692705 ,43,2889204872961 ,69,0037339061805
1.7295827 ,Left ,72,8376086762638 ,43,3440070866437 ,69,0213899320436
1.7665472 ,Left ,72,7384986862694 ,43,4648769419446 ,69,0530081247888
1.7885255 ,Left ,72,7395291690037 ,43,5213713604226 ,69,0566262689396
1.826227 ,Left ,72,85118040543 ,43,6286087713213 ,69,0867664293834
1.848553 ,Left ,72,9240080468795 ,43,6746675292771 ,69,0855111033224
1.8861469 ,Left ,73,0026118589081 ,43,7751498874296 ,69,0428853126729
1.9090478 ,Left ,72,9870327365618 ,43,8273525106827 ,69,0147484970498
1.9465186 ,Left ,72,9693243393351 ,43,917125483923 ,68,9024444810145
1.9691632 ,Left ,72,9758642691339 ,43,9529370197123 ,68,8317231394859
2.0063036 ,Left ,72,9453621326451 ,44,0007060812198 ,68,7191846775774
2.0288643 ,Left ,72,927282626337 ,44,0175947229373 ,68,6649732048022
2.0663979 ,Left ,72,8909346078929 ,44,0248086784303 ,68,5487691322357
2.0887548 ,Left ,72,8571331009505 ,44,0191490560546 ,68,4869143464294
2.1341153 ,Left ,72,7880489969033 ,43,944023048112 ,68,3875630184914
2.15662 ,Left ,72,7511701442525 ,43,8658105029829 ,68,3420355367737
2.1864634 ,Left ,72,6112839538934 ,43,786207904424 ,68,3450257161214
2.209137 ,Left ,72,6194269085002 ,43,7518124079488 ,68,3410875283761
2.2463643 ,Left ,72,7516321083152 ,43,7308335261643 ,68,2967062197361
2.2685553 ,Left ,72,8495618077662 ,43,6571109125099 ,68,2963931144351
2.3059972 ,Left ,73,0184934788429 ,43,5523047521458 ,68,2883713651404
2.3288333 ,Left ,73,0235608858147 ,43,5177748765243 ,68,2754260066227
2.3661491 ,Left ,73,0060025727036 ,43,4296235375289 ,68,2326779261415
2.3889788 ,Left ,73,0250211048062 ,43,3865279018114 ,68,2110210743133
2.4335908 ,Left ,73,0766007162411 ,43,2840163622816 ,68,1949694404464
2.4560003 ,Left ,73,0602900186681 ,43,2428891720431 ,68,2072978257319
2.5086134 ,Left ,72,9426779144302 ,43,1303198498125 ,68,320499358762
2.5467409 ,Left ,72,8614315060588 ,43,3196915074842 ,68,3890908400759
2.5687473 ,Left ,72,8968652008546 ,43,3849350959582 ,68,4080799892621
2.6061273 ,Left ,72,9299173004263 ,43,3741081390146 ,68,3802687284297
2.6285889 ,Left ,72,8819734626714 ,43,3464984475189 ,68,3518182601465
2.6736347 ,Left ,72,8945130234393 ,43,1586668403158 ,68,307039587046
2.6961482 ,Left ,72,919733516516 ,43,0512146412668 ,68,3026009608598
2.7486528 ,Left ,72,9240268643461 ,42,8334050916075 ,68,342651277867
2.7865587 ,Left ,72,9106381143456 ,42,8131962867812 ,68,371406762912
2.8093938 ,Left ,72,9023691762358 ,42,7968303036059 ,68,3908985525924
2.8463919 ,Left ,72,8898884572864 ,42,7476104815511 ,68,4141565461278
2.8683855 ,Left ,72,8826748502254 ,42,7193119761081 ,68,4242364365592
2.9062918 ,Left ,72,8575635055322 ,42,6537414788748 ,68,4475771938287
2.9288579 ,Left ,72,8609938471083 ,42,6227366759411 ,68,4597331923215
2.9663762 ,Left ,72,8218984731599 ,42,5855505165038 ,68,4649828074778
2.9961027 ,Left ,72,8128124137875 ,42,5826692239499 ,68,4554450857837
3.048527 ,Left ,72,8431706428756 ,42,5335515149283 ,68,4190563386852
3.0861584 ,Left ,72,7937181420142 ,42,5007099977275 ,68,4206363665592
3.1089089 ,Left ,72,770884983818 ,42,4863315629446 ,68,4184063252784
3.1464351 ,Left ,72,766877704508 ,42,4625302761151 ,68,4009027592681
3.1690111 ,Left ,72,7647535806376 ,42,4570238262814 ,68,4028975303344
3.2062808 ,Left ,72,7442830551774 ,42,47338174225 ,68,4232823042778
3.228878 ,Left ,72,7543589972635 ,42,4719173205054 ,68,4332494120955
3.2662768 ,Left ,72,8051090955899 ,42,4606511942945 ,68,4174981648096
3.2887833 ,Left ,72,820038294808 ,42,4466763006339 ,68,4079252491623
3.3261367 ,Left ,72,8243618051788 ,42,4395240103736 ,68,39997161858
3.348448 ,Left ,72,8216572242766 ,42,4411194326717 ,68,4002614890306
3.3863521 ,Left ,72,8266546319852 ,42,4794366355771 ,68,4008915370939
3.4092498 ,Left ,72,8120771539571 ,42,500225575307 ,68,401539267387
3.4463395 ,Left ,72,7870201072267 ,42,5397860357594 ,68,3881339097499
3.4686807 ,Left ,72,7607815921167 ,42,5693145332372 ,68,3660800001219
3.5062501 ,Left ,72,6843848575315 ,42,6646261474291 ,68,3610276322133
3.5289298 ,Left ,72,6533639148051 ,42,682643671572 ,68,3785393519877
3.5512559 ,Left ,72,6518756900051 ,42,6871869580978 ,68,3780777574382
3.5888902 ,Left ,72,7133468712675 ,42,7041330855035 ,68,3355538190852
3.6110765 ,Left ,72,8060106931446 ,42,6961366972573 ,68,3134014058772
3.6494974 ,Left ,72,9165602522725 ,42,7375705579405 ,68,2812910899789
3.67171 ,Left ,72,9333009895753 ,42,7607573919937 ,68,2744174248107
3.7089927 ,Left ,72,9938971071964 ,42,7150436713048 ,68,3033346124427
3.7313017 ,Left ,72,9898068371373 ,42,6919429743221 ,68,3042141035614
3.7690792 ,Left ,72,9749334110234 ,42,651982635228 ,68,2904295873583
3.7915673 ,Left ,72,9876048644556 ,42,6307897012831 ,68,2848201105488
3.8294277 ,Left ,72,9844478457726 ,42,635636653866 ,68,2510851411859
3.8514187 ,Left ,72,9713509689346 ,42,6271506232081 ,68,2279464339324
3.8886163 ,Left ,72,9301370125567 ,42,5688232002632 ,68,1961554510125
3.9110861 ,Left ,72,9268963619956 ,42,5623363568043 ,68,2260766430779
3.9411713 ,Left ,72,9159552364049 ,42,6898058900813 ,68,2483576406973
3.9710798 ,Left ,72,9902285566847 ,42,7078600883273 ,68,2374290010058
4.008501 ,Left ,73,02972964438 ,42,7565388978434 ,68,2099584260485
4.0310648 ,Left ,73,0134147518539 ,42,7590751290704 ,68,2021282396109
4.0684244 ,Left ,73,0479799567362 ,42,7196368475253 ,68,1821268169791
4.0911953 ,Left ,73,0365442574476 ,42,6927979005689 ,68,187850916822
4.1060438 ,Left ,72,9795734536846 ,42,6932058443771 ,68,2100385928453
4.121186 ,Left ,72,9027213958701 ,42,7533639736103 ,68,2709522581446
4.1436106 ,Left ,72,849120730404 ,42,8638434363971 ,68,3424019199143
4.1662132 ,Left ,72,8227616196807 ,42,9602888486434 ,68,4050907447788
4.1812441 ,Left ,72,8460974280184 ,43,0123957534354 ,68,4504964268559
4.2035701 ,Left ,72,8829665038763 ,43,029312447058 ,68,4830568772372
4.2262061 ,Left ,72,893816986004 ,43,04231142415 ,68,5382457550425
4.241209 ,Left ,72,8988220996121 ,43,0809549416408 ,68,6235838178555
4.2636948 ,Left ,72,9323133105897 ,43,1165584501121 ,68,7366628849
4.2868461 ,Left ,72,9775848316847 ,43,1413648826623 ,68,8462751324646
4.3018399 ,Left ,72,9755454506701 ,43,1611071541016 ,68,9429355161755
4.3242336 ,Left ,72,9488896778727 ,43,1718664661614 ,69,0211971601078
4.3463869 ,Left ,72,9036886918224 ,43,1758112827639 ,69,0637018952018
4.3614304 ,Left ,72,8498726871464 ,43,1718977615015 ,69,0884653719155
4.3838128 ,Left ,72,8172606007333 ,43,1697956952596 ,69,1017873269228
4.4065273 ,Left ,72,8002730639112 ,43,1700112541754 ,69,094757885697
4.4214566 ,Left ,72,7948123761947 ,43,1742619126774 ,69,0774673891762
4.4438496 ,Left ,72,7662329973194 ,43,1642862965317 ,69,0752056186297
4.4663484 ,Left ,72,7073268777917 ,43,1666585293463 ,69,1140350270919
4.4813616 ,Left ,72,6404230782372 ,43,1808773186315 ,69,1774262146305
4.5035754 ,Left ,72,644025401291 ,43,1968382489845 ,69,2322881962678
4.5262772 ,Left ,72,6941245732572 ,43,2198746545868 ,69,2326751916496
4.5411025 ,Left ,72,7675675563678 ,43,2283333918898 ,69,2131465008559
4.5638057 ,Left ,72,8629604685459 ,43,2000997348468 ,69,1912639828861
4.5865112 ,Left ,72,9481399187457 ,43,171851992057 ,69,1611622404705
4.6013711 ,Left ,73,0048585421413 ,43,1479226184659 ,69,1365843615737
4.6237412 ,Left ,73,0483390988934 ,43,1358936496362 ,69,1236701513625
4.6537293 ,Left ,73,0581596590325 ,43,1467919279371 ,69,1075190977925
4.6685391 ,Left ,73,0450816577061 ,43,1554303032428 ,69,0831464495006
4.6911804 ,Left ,73,0282864615934 ,43,1806072042725 ,69,0561511033521
4.7060827 ,Left ,73,008210892101 ,43,2227419426261 ,69,0238357881094
4.7288816 ,Left ,73,0180739179144 ,43,2649425420001 ,68,9830048448912
4.743449 ,Left ,73,0479378576539 ,43,3078946504493 ,68,9296816533445
4.7662181 ,Left ,73,0424726503849 ,43,3783152998156 ,68,8697957223144
4.7813161 ,Left ,73,0097099430657 ,43,4586351963044 ,68,8104146334707
4.8039212 ,Left ,72,9715281875604 ,43,5329852886555 ,68,7443033699487
4.8266556 ,Left ,72,944658174847 ,43,5947514509819 ,68,6694614474584
4.8489748 ,Left ,72,9340492741563 ,43,6191497550273 ,68,6063389514688
4.8639821 ,Left ,72,927344268746 ,43,6275916803968 ,68,5461132571438
4.8864455 ,Left ,72,9171739804933 ,43,6179039229634 ,68,4836082904785
4.9091953 ,Left ,72,8838368726894 ,43,597016903315 ,68,4306735475941
4.9239249 ,Left ,72,8357074808332 ,43,553638186022 ,68,3885785467457
4.9465148 ,Left ,72,7873430713218 ,43,5003330872577 ,68,3741134721137
4.9689466 ,Left ,72,7251589595481 ,43,5279549238536 ,68,3859709608088
4.9835331 ,Left ,72,7024005583467 ,43,5693987543282 ,68,3792024929162
5.0063176 ,Left ,72,7248865244594 ,43,6005976078402 ,68,368149108603
5.0288119 ,Left ,72,8070056725173 ,43,6134627419319 ,68,3699583835959
5.0436429 ,Left ,72,9448379547322 ,43,5566617489241 ,68,3721468591632
5.0663392 ,Left ,73,0567709953953 ,43,4432248006984 ,68,3907207315868
5.0889029 ,Left ,73,1001444304426 ,43,3714104537919 ,68,3945655004534
5.1037641 ,Left ,73,0901759375814 ,43,2965030525462 ,68,4059559460987
5.126257 ,Left ,73,0809793524842 ,43,2198915829515 ,68,4201685351155
5.1488217 ,Left ,73,0760990786038 ,43,1808762757229 ,68,413969273837
5.1637461 ,Left ,73,0746923142602 ,43,1534128264783 ,68,4009294946674
5.1862032 ,Left ,73,0966438465478 ,43,1169473917388 ,68,3861592790858
5.208846 ,Left ,73,1196235911025 ,43,0807201298887 ,68,364667842
5.2242024 ,Left ,73,1076038247488 ,43,055028323183 ,68,341470982912
5.2461852 ,Left ,73,0741393802732 ,43,0503187972832 ,68,3275120944898
5.2686358 ,Left ,73,0386886546605 ,43,0410218810559 ,68,3234592218172
5.2835717 ,Left ,72,9996760793296 ,43,0164785195562 ,68,3305516465795
5.3063834 ,Left ,72,9281499866384 ,42,9691062301803 ,68,3672870885033
5.3290072 ,Left ,72,8494077737345 ,42,9455970375868 ,68,4287545206021
5.34373 ,Left ,72,8048919284717 ,43,005864558002 ,68,4829092034934
5.3662686 ,Left ,72,8118189921772 ,43,1071531632936 ,68,5011582785012
5.3886017 ,Left ,72,8672181457611 ,43,132018963815 ,68,4973489614026
5.4034907 ,Left ,72,9303897597868 ,43,0923023035354 ,68,4643842801701
5.4268941 ,Left ,72,913553301949 ,43,0545656690601 ,68,4186473639643
5.4492621 ,Left ,72,888172684525 ,42,9824529968167 ,68,3951898226172
5.4638909 ,Left ,72,9246856359862 ,42,8885606959222 ,68,3818670431693
5.486323 ,Left ,72,971895950704 ,42,8105542012522 ,68,364161110531
5.5089033 ,Left ,72,9775832489172 ,42,7395630200398 ,68,3504852287591
5.5237272 ,Left ,72,9706456530531 ,42,6828667624846 ,68,3513067778237
5.5463608 ,Left ,72,9600228040196 ,42,6734829037487 ,68,3649138508057
5.568788 ,Left ,72,9573399630024 ,42,6760199709875 ,68,3733166447061
5.5837601 ,Left ,72,9545431443974 ,42,6767366240722 ,68,3838093324345
5.6062863 ,Left ,72,9432959261632 ,42,6748632340181 ,68,3851540585429
5.6289679 ,Left ,72,9207949908784 ,42,665601349726 ,68,3869286861442
5.6437444 ,Left ,72,9072949233745 ,42,6564174376094 ,68,3922844567015
5.6664385 ,Left ,72,9049144218145 ,42,6472898372641 ,68,3983769404547
5.6886094 ,Left ,72,9024701038055 ,42,6340106598449 ,68,4010024150218
5.7036383 ,Left ,72,8940489767887 ,42,618415987806 ,68,3993470562228
5.7263376 ,Left ,72,8894207846254 ,42,6010062446071 ,68,4013574080027
5.7487933 ,Left ,72,8846667566924 ,42,5636515232153 ,68,4013930411791
5.7637883 ,Left ,72,863641210487 ,42,5515736255571 ,68,390544870528
5.7864488 ,Left ,72,8406533212079 ,42,5483798868314 ,68,3827545324195
5.8089706 ,Left ,72,8423402861528 ,42,5404759961394 ,68,3695392043207
5.8312728 ,Left ,72,8578521956477 ,42,5314476282184 ,68,346010092184
5.8463625 ,Left ,72,8611381539289 ,42,5235505129845 ,68,326011385235
5.8688039 ,Left ,72,8601810852495 ,42,5214081851188 ,68,3165367478781
5.8914824 ,Left ,72,855299003209 ,42,514293791862 ,68,3234446614406
5.906453 ,Left ,72,8489522805295 ,42,5061339513504 ,68,3361769423462
5.9288122 ,Left ,72,8526744071914 ,42,5094889859995 ,68,3513797811737
5.9513517 ,Left ,72,8618777201077 ,42,5128504454063 ,68,3613365426738
5.9662404 ,Left ,72,8719956318564 ,42,5155374109337 ,68,3747743799529
5.9885523 ,Left ,72,8861894255482 ,42,5242012016234 ,68,391117022509
6.0114195 ,Left ,72,8901236094998 ,42,5335013955383 ,68,4077107854993
6.0264529 ,Left ,72,8900930236914 ,42,5344666782654 ,68,4158484822203
6.0487944 ,Left ,72,8900930236914 ,42,5344666782654 ,68,4158484822203
6.0714107 ,Left ,72,8873935753717 ,42,5360616362723 ,68,4161324816042
6.0863174 ,Left ,72,8884267813304 ,42,537213603411 ,68,4174995146365
6.1088571 ,Left ,72,8884267813304 ,42,537213603411 ,68,4174995146365
6.1311984 ,Left ,72,8873935753717 ,42,5360616362723 ,68,4161324816042
6.1462855 ,Left ,72,8852945374958 ,42,5295939639109 ,68,4099403145262
6.1691566 ,Left ,72,8885450690914 ,42,5213125622541 ,68,4006092548344
6.1915943 ,Left ,72,8894095433765 ,42,5168880564511 ,68,3899206705313
6.2066552 ,Left ,72,8948022615438 ,42,5141114150754 ,68,3786439511803
6.2291066 ,Left ,72,905743371104 ,42,5095609630899 ,68,3753922251435
6.2514684 ,Left ,72,9177344035015 ,42,5103287527627 ,68,3769661276968
6.2664765 ,Left ,72,918782839076 ,42,515644624042 ,68,3817940245383
6.2965294 ,Left ,72,9189626974877 ,42,5160878386039 ,68,3822587256886
6.3189058 ,Left ,72,9160773329764 ,42,5172381453297 ,68,3820796876108
6.333925 ,Left ,72,9160773329764 ,42,5172381453297 ,68,3820796876108
6.3489397 ,Left ,72,9085569997499 ,42,5316743096776 ,68,3912500324608
6.3716946 ,Left ,72,8841270407179 ,42,5697743874158 ,68,3916128120724
6.3865825 ,Left ,72,8516630287892 ,42,642856683336 ,68,3996652405998
6.4089305 ,Left ,72,8281753630621 ,42,7091601473656 ,68,4201049688048
6.4315364 ,Left ,72,8019459422397 ,42,745378819412 ,68,4253713535254
6.4465444 ,Left ,72,7795414618766 ,42,7754552789618 ,68,4125103720127
6.469137 ,Left ,72,7585170032998 ,42,8181178510536 ,68,4033357434878
6.4916821 ,Left ,72,7859152140662 ,42,8317324860192 ,68,3998657910089
6.5066279 ,Left ,72,8569687702616 ,42,8159318540962 ,68,3890452105266
6.5293122 ,Left ,72,9245262496085 ,42,8027563894131 ,68,3644681868942
6.5517231 ,Left ,72,972463944381 ,42,805652593333 ,68,3347229161031
6.5664658 ,Left ,72,9855116109503 ,42,8226992887809 ,68,2995486824648
6.5890224 ,Left ,73,0038746023 ,42,8088555205896 ,68,2805019173356
6.6115135 ,Left ,73,039355335667 ,42,7890656233277 ,68,2850104641433
6.626514 ,Left ,73,0602699036177 ,42,7686829491301 ,68,2906048411419
6.6488079 ,Left ,73,05935253969 ,42,7531696235332 ,68,2990417013257
6.6714345 ,Left ,73,0548163163364 ,42,7399110675197 ,68,3043124650531
6.6864869 ,Left ,73,0384270562889 ,42,7254066704622 ,68,3002344736307
6.7090065 ,Left ,73,0192966789762 ,42,7083376509311 ,68,2929708873458
6.731489 ,Left ,72,9837167605897 ,42,6636769979388 ,68,2780341185703
6.7538362 ,Left ,72,9501509095853 ,42,6371176012491 ,68,2829773547341
6.7689479 ,Left ,72,9380387720457 ,42,6531552966977 ,68,3063857631916
6.7915244 ,Left ,72,9558118029415 ,42,6929463165214 ,68,3283919095756
6.8137656 ,Left ,72,9650286757916 ,42,7407026469903 ,68,31731342936
6.8291132 ,Left ,72,9713509722734 ,42,7530317821492 ,68,308260489673
6.851363 ,Left ,73,0078016539314 ,42,7347918172756 ,68,3034826025255
6.8738028 ,Left ,73,0308513612109 ,42,7360716395706 ,68,2953133901481
6.8888118 ,Left ,73,0569591761647 ,42,7250505383518 ,68,2925811289084
6.9115305 ,Left ,73,0705041573874 ,42,7374609187767 ,68,2827935009598
6.9336256 ,Left ,73,0548702265883 ,42,7380130736891 ,68,269792737488
6.9488133 ,Left ,73,0007777591061 ,42,7523001831791 ,68,300910352175
6.9713581 ,Left ,72,928653967493 ,42,7934463317288 ,68,3692286412087
6.9936805 ,Left ,72,8575931462639 ,42,8806032259735 ,68,4431784430264
7.00895 ,Left ,72,8346382174069 ,42,9869885402364 ,68,5008475840796
7.0313663 ,Left ,72,8637990030444 ,43,057291914617 ,68,5422208116981
7.0537641 ,Left ,72,9406346526405 ,43,0751082254777 ,68,574010216911
7.0690076 ,Left ,72,9870191686414 ,43,1052219682524 ,68,6295229731487
7.091478 ,Left ,72,9912494631289 ,43,1475521631631 ,68,7071678180372
7.1137083 ,Left ,73,0031746542356 ,43,1627474995804 ,68,8093348472949
7.1288807 ,Left ,73,0241479118487 ,43,1634926468419 ,68,9255278078469
7.1511713 ,Left ,73,0317526492917 ,43,1638569323439 ,69,0435203953884
7.1737154 ,Left ,73,0183924773408 ,43,1808937444371 ,69,1408950762475
7.1889297 ,Left ,73,0023373626519 ,43,1918098486747 ,69,1985310439577
7.2113143 ,Left ,72,9720835972912 ,43,1769996992463 ,69,216861287697
7.234176 ,Left ,72,9241245938802 ,43,1600221565638 ,69,2144822673499
7.2493816 ,Left ,72,8831162357922 ,43,163807369915 ,69,1920585462281
7.2719398 ,Left ,72,8599966066683 ,43,1751030376547 ,69,1581150716168
7.2943065 ,Left ,72,8498192478861 ,43,1824455570612 ,69,1339577985883
7.3092521 ,Left ,72,8350793364143 ,43,2036268161575 ,69,1230672511587
7.3314399 ,Left ,72,8178411382893 ,43,2540236706574 ,69,1353754343426
7.3538827 ,Left ,72,7676234187646 ,43,323298202237 ,69,1635046956298
7.3688184 ,Left ,72,725975343291 ,43,43469187579 ,69,2043677224151
7.3914697 ,Left ,72,7255889913594 ,43,5776690819236 ,69,2457604520273
7.4138062 ,Left ,72,8077204071592 ,43,682533633952 ,69,2827746390537
7.4365204 ,Left ,72,9193326160104 ,43,7048307674116 ,69,2835031359698
7.4515904 ,Left ,72,984275841539 ,43,669172812738 ,69,2471653337714
7.4737879 ,Left ,73,0124435432058 ,43,6017538185933 ,69,2031368351232
7.4964125 ,Left ,73,0144096650962 ,43,4961237311468 ,69,1328777059776
7.5115521 ,Left ,73,014161964005 ,43,3524616985947 ,69,0369272077303
7.5337742 ,Left ,73,0274476814851 ,43,2155594780893 ,68,9342084314813
7.5563936 ,Left ,73,0606860798064 ,43,1026427354 ,68,849338977979
7.5712748 ,Left ,73,128139764548 ,43,0236336697865 ,68,7890730268429
7.5935156 ,Left ,73,1863630214063 ,42,984814917181 ,68,7586837059686
7.6162131 ,Left ,73,2013282076084 ,42,9887697867612 ,68,7537159897478
7.6311572 ,Left ,73,1751690575262 ,43,0460817356426 ,68,7841542313839
7.6536097 ,Left ,73,1344291754924 ,43,1476334574979 ,68,8090553797214
7.6763479 ,Left ,73,0937347083962 ,43,253919857207 ,68,826765883611
7.6914027 ,Left ,73,068216430577 ,43,3459187025515 ,68,8279613003374
7.7137881 ,Left ,73,0283283235625 ,43,4217949220741 ,68,8164641005798
7.7360816 ,Left ,72,9585255368401 ,43,4849046957212 ,68,792201688306
7.7511242 ,Left ,72,8847099320362 ,43,5313846573064 ,68,763105531272
7.7737335 ,Left ,72,8354571349301 ,43,5732909474446 ,68,7194915204007
7.7964581 ,Left ,72,7976509374951 ,43,5970580124229 ,68,6587056636473
7.811443 ,Left ,72,7408773990323 ,43,6009479667926 ,68,5951706584763
7.8340138 ,Left ,72,6378681415428 ,43,5836974915123 ,68,5416966666488
7.8564065 ,Left ,72,5844274580999 ,43,5322514002296 ,68,5131555867248
7.8713878 ,Left ,72,5981526910862 ,43,4968164725723 ,68,5074023296658
7.8938066 ,Left ,72,6436349920288 ,43,5152353023518 ,68,4984438360114
7.9163977 ,Left ,72,7165058113073 ,43,5078003854494 ,68,4865475728782
7.9313543 ,Left ,72,8046546919709 ,43,4537102961778 ,68,4777875031713
7.9538808 ,Left ,72,879838810341 ,43,3696371270859 ,68,4743219135449
7.9765314 ,Left ,72,930073168014 ,43,3004514531401 ,68,4585382953934
7.9915206 ,Left ,72,9529194994799 ,43,250592981665 ,68,4295514284581
8.013699 ,Left ,72,9563465799546 ,43,2056450346858 ,68,4075210063227
8.0362028 ,Left ,72,9529765210433 ,43,164259428819 ,68,3821056944697
8.0511569 ,Left ,72,9604758777411 ,43,1174807753376 ,68,3637842761301
8.0736261 ,Left ,72,9800376683803 ,43,0764168803571 ,68,3479103830796
8.0962919 ,Left ,72,9989679808986 ,43,03195390874 ,68,3360868540998
8.1114796 ,Left ,72,9949664611783 ,43,0023374506643 ,68,3276068254581
8.1337819 ,Left ,72,9774252284928 ,42,986731971113 ,68,3219454442009
8.1562975 ,Left ,72,9305993777799 ,42,9542954450445 ,68,319572954611
8.1713187 ,Left ,72,8410175130646 ,42,9348944074672 ,68,3477306879848
8.1936501 ,Left ,72,7873097928333 ,42,9758011267235 ,68,3859447714579
8.2161804 ,Left ,72,795504560823 ,43,0601648542606 ,68,4050870518754
8.2313411 ,Left ,72,8400221860718 ,43,1324378873466 ,68,4036905650984
8.2612629 ,Left ,72,8772861001983 ,43,1475772169752 ,68,3952658695125
8.283757 ,Left ,72,8892849170353 ,43,1165967175655 ,68,3669344885278
8.2987462 ,Left ,72,8520895598263 ,43,0967832475033 ,68,3355455807337
8.3138163 ,Left ,72,8444228373452 ,43,052285540446 ,68,3205905492057
8.3363597 ,Left ,72,8826969677196 ,42,9748327286145 ,68,3178875800921
8.3514559 ,Left ,72,9282935674811 ,42,9021245441412 ,68,318393523631
8.3737313 ,Left ,72,9347758273176 ,42,8477428929047 ,68,3225150437601
8.3963272 ,Left ,72,924701275142 ,42,8021466643437 ,68,3385427368637
8.4114782 ,Left ,72,9099554965898 ,42,801133902402 ,68,3392033445755
8.4337746 ,Left ,72,8941863984156 ,42,8119094712819 ,68,3311512778251
8.4564394 ,Left ,72,8858094687398 ,42,8079109802276 ,68,3245535565709
8.4714618 ,Left ,72,8905913477744 ,42,7816482827208 ,68,3153697523272
8.5012495 ,Left ,72,8879409750224 ,42,7669706092865 ,68,3093557654255
8.5236407 ,Left ,72,8734995061647 ,42,754272069509 ,68,3077159230488
8.5388322 ,Left ,72,8677683203958 ,42,7370943514106 ,68,3057028119904
8.5609799 ,Left ,72,8735009103807 ,42,7069682754515 ,68,3046441861096
8.5762166 ,Left ,72,8610883414871 ,42,6849819473171 ,68,3106604484157
8.5914078 ,Left ,72,8509721194493 ,42,6828659685695 ,68,3159574482568
8.6136668 ,Left ,72,855201187419 ,42,6757490547504 ,68,308015563555
8.6364518 ,Left ,72,8729321606433 ,42,6639100181323 ,68,2940164538719
8.6586585 ,Left ,72,8887001082457 ,42,6483937908968 ,68,2798238551858
8.6735493 ,Left ,72,8887028068984 ,42,6358223061027 ,68,276579088163
8.6967739 ,Left ,72,884854642244 ,42,6298744041022 ,68,2847741793799
8.7195168 ,Left ,72,8807653877804 ,42,6248575626135 ,68,2899539084159
8.7341425 ,Left ,72,8736530990622 ,42,6149989275722 ,68,2935922885739
8.7568825 ,Left ,72,8684488590214 ,42,6014682917633 ,68,2986127990389
8.7794275 ,Left ,72,8739823459756 ,42,5871467416143 ,68,303388478839
8.794259 ,Left ,72,8766891385752 ,42,5684155208834 ,68,3071020668269
8.8163974 ,Left ,72,8716504015445 ,42,5482802267649 ,68,3103036571825
8.8463429 ,Left ,72,8704303442845 ,42,537938047609 ,68,3122557587009
8.8614085 ,Left ,72,8770775180689 ,42,5237720651389 ,68,3103104638695
8.8838036 ,Left ,72,8988991036533 ,42,5202694694119 ,68,3046770026338
8.8988316 ,Left ,72,9147191013927 ,42,5224573575841 ,68,3052178092775
8.9136642 ,Left ,72,921343471432 ,42,5296286662782 ,68,3027011289049
8.9361531 ,Left ,72,9186369019866 ,42,5312154940715 ,68,3029896053952
8.9587951 ,Left ,72,9187170191735 ,42,5497894450157 ,68,3075725743347
8.9736144 ,Left ,72,8999721040469 ,42,5780847361619 ,68,3167293131723
8.9961505 ,Left ,72,8814234242626 ,42,6081882415707 ,68,3237823028486
9.0188718 ,Left ,72,8592299697481 ,42,6387088540311 ,68,3297439532406
9.0336628 ,Left ,72,8251726123067 ,42,6833409909295 ,68,3428575721843
9.0560759 ,Left ,72,7967000183497 ,42,7442419980439 ,68,3569559534358
9.0785949 ,Left ,72,7726147781311 ,42,8099189197449 ,68,3947761108707
9.0935543 ,Left ,72,7366589063894 ,42,871534451341 ,68,4244588230557
9.1161298 ,Left ,72,7128213742384 ,42,9326933812444 ,68,4294454307063
9.1384824 ,Left ,72,6864721232069 ,43,0054315024249 ,68,4213692803609
9.1537043 ,Left ,72,6910793747321 ,43,0457486583093 ,68,4060094883463
9.1761556 ,Left ,72,7461359219095 ,43,0324702882891 ,68,3986718767993
9.1985817 ,Left ,72,8318299323424 ,43,010716105276 ,68,3891837602781
9.2137537 ,Left ,72,908307991914 ,42,9980696269835 ,68,3619446088707
9.2361683 ,Left ,72,9204245596386 ,42,9919757150601 ,68,3182114404741
9.2586858 ,Left ,72,9295352184934 ,42,9659555847652 ,68,292732691331
9.2735479 ,Left ,72,970046459824 ,42,9407918980141 ,68,2911887708855
9.2962278 ,Left ,73,0111425779068 ,42,912208561375 ,68,2942270107858
9.3187023 ,Left ,73,0271003638389 ,42,8879724099931 ,68,3018937000809
9.3336731 ,Left ,73,0236606617634 ,42,863806986823 ,68,3055806443781
9.356414 ,Left ,73,0036267936498 ,42,8224475114175 ,68,317390665551
9.3788571 ,Left ,72,9971054282732 ,42,7879574951565 ,68,3185670506782
9.3937239 ,Left ,72,9874379339434 ,42,7610743246056 ,68,2921257052395
9.416339 ,Left ,72,9519732429792 ,42,7488598231621 ,68,2826219753487
9.4388955 ,Left ,72,9184515771781 ,42,7562644312312 ,68,308600720622
9.4534873 ,Left ,72,8982483364505 ,42,8039735644645 ,68,3333701350875
9.4768844 ,Left ,72,9023323025701 ,42,853552402382 ,68,3437352835627
9.4993498 ,Left ,72,9272834970415 ,42,8715239268376 ,68,3467977596204
9.5142092 ,Left ,72,9422043800519 ,42,8904605227128 ,68,3322363025432
9.5367012 ,Left ,72,9353032626222 ,42,8970938783326 ,68,3060455086164
9.5592519 ,Left ,72,9368311214408 ,42,8946489881891 ,68,275566883536
9.5814047 ,Left ,72,9504979401062 ,42,8772400817686 ,68,2409091280767
9.5965408 ,Left ,72,9765222749682 ,42,839656820656 ,68,197611841382
9.6264307 ,Left ,72,9800703276857 ,42,8042161240018 ,68,2163557814427
9.6487687 ,Left ,72,9546384217308 ,42,8130033467473 ,68,2792877718697
9.6636122 ,Left ,72,9070634210525 ,42,8861573888737 ,68,3401999623844
9.6790416 ,Left ,72,8898206032806 ,42,9528656617907 ,68,3928449043776
9.7014318 ,Left ,72,9230186405967 ,42,9787687053873 ,68,4423085566556
9.7163479 ,Left ,72,9816555254095 ,43,0031326117595 ,68,4828776877817
9.7388879 ,Left ,72,9933411755114 ,43,0254775497345 ,68,5539148391398
9.7613719 ,Left ,72,9897497532896 ,43,0540828587197 ,68,6496304178373
9.7764476 ,Left ,73,0032015930053 ,43,0685227405781 ,68,7590612850683
9.7989722 ,Left ,73,0048268952697 ,43,0701035451765 ,68,8640522071579
9.8214719 ,Left ,72,9738886803653 ,43,0765843814333 ,68,9631142095845
9.8364869 ,Left ,72,9338321487563 ,43,0843046254726 ,69,0481531800293
9.8589475 ,Left ,72,8995600305889 ,43,0989535252955 ,69,1118871515871
9.8888508 ,Left ,72,8643821295284 ,43,1142192223786 ,69,1462117545783
9.9036792 ,Left ,72,8260170436986 ,43,13133123415 ,69,1546752375458
9.9339008 ,Left ,72,775447644706 ,43,1520432915875 ,69,1461743501647
9.9715466 ,Left ,72,7313084824798 ,43,1905353996334 ,69,1294164104093
9.9864833 ,Left ,72,7463222263616 ,43,2240430828325 ,69,1196593077176
10.0164082 ,Left ,72,6526036303056 ,43,2927757776009 ,69,1575277826251
10.0390066 ,Left ,72,5755000536512 ,43,3707302307325 ,69,2203990984407
10.0615568 ,Left ,72,5573857385214 ,43,5078465022906 ,69,2696822277699
10.0762816 ,Left ,72,610559820128 ,43,621995063458 ,69,2780136637603
10.0989026 ,Left ,72,7285639343778 ,43,6551055186566 ,69,2639773429983
10.1211232 ,Left ,72,840844776087 ,43,5965743654172 ,69,2262258461413
10.1362791 ,Left ,72,885436667426 ,43,5062627368058 ,69,1745584821879
10.1586112 ,Left ,72,8815193410101 ,43,3976617109758 ,69,0854576918891
10.1811051 ,Left ,72,8754426680285 ,43,2694421718251 ,68,9866431191851
10.2036822 ,Left ,72,9227576243509 ,43,1291488942703 ,68,8968768165077
10.2187482 ,Left ,73,013165439951 ,43,0042552142774 ,68,8304399806477
10.2413034 ,Left ,73,0986812729861 ,42,9199863913708 ,68,7917809130786
10.2635888 ,Left ,73,1561369565342 ,42,8700950629092 ,68,7626535701534
10.2789446 ,Left ,73,1583496052369 ,42,8459587106836 ,68,7651693898978
10.3016699 ,Left ,73,1245044456621 ,42,8602457882061 ,68,7890233939947
10.3241366 ,Left ,73,1017727087583 ,42,9269940961108 ,68,8249851234043
10.3391428 ,Left ,73,0900705980381 ,43,0304035446182 ,68,8301459241961
10.3613948 ,Left ,73,0583117305216 ,43,1478037443709 ,68,8203782475492
10.3837715 ,Left ,73,0141931106419 ,43,2465459786774 ,68,8043491737803
10.3987898 ,Left ,72,9717042907956 ,43,3086334810613 ,68,7873630788102
10.4215162 ,Left ,72,909902322762 ,43,3567413112843 ,68,7685313714587
10.4364416 ,Left ,72,8437104781534 ,43,400987347919 ,68,7339554352548
10.4590512 ,Left ,72,7907154510763 ,43,4370391440808 ,68,6983149977706
10.4813433 ,Left ,72,7716647167576 ,43,45105294653 ,68,651671589168
10.5038916 ,Left ,72,7524792143078 ,43,4534313741193 ,68,6026315220042
10.5189293 ,Left ,72,7072373131178 ,43,464263912066 ,68,5571317642135
10.5415542 ,Left ,72,6279259415155 ,43,4707074546192 ,68,5016187258483
10.5638093 ,Left ,72,5387558050915 ,43,4828064971092 ,68,4755594852067
10.5790274 ,Left ,72,4560483704701 ,43,509334869731 ,68,4711631195799
10.6013994 ,Left ,72,4517712789924 ,43,5100918188189 ,68,477120831846
10.6236759 ,Left ,72,5118669108673 ,43,5213510867919 ,68,471434902718
10.6393554 ,Left ,72,6115091341432 ,43,5042536077139 ,68,4692755098814
10.661912 ,Left ,72,7331167331529 ,43,453588171012 ,68,4769328256732
10.6842767 ,Left ,72,831639972433 ,43,378531148097 ,68,476279973579
10.6992557 ,Left ,72,870545372858 ,43,3128023649977 ,68,4732014980618
10.7214325 ,Left ,72,864972305108 ,43,2808026825382 ,68,4657377786662
10.7436586 ,Left ,72,8688765923393 ,43,2395141419998 ,68,450749898922
10.7588798 ,Left ,72,8832090308266 ,43,195902654124 ,68,4272903194934
10.7812944 ,Left ,72,9016231917462 ,43,1412228853531 ,68,4105661409384
10.8036135 ,Left ,72,9109426596158 ,43,0744172648171 ,68,3944484167987
10.8189073 ,Left ,72,8978530274122 ,43,0165586844575 ,68,3841303662988
10.8410098 ,Left ,72,8590817763527 ,42,958059309325 ,68,3813871407536
10.8635218 ,Left ,72,8024615607817 ,42,8886923159118 ,68,3846941046058
10.8788812 ,Left ,72,7097288857448 ,42,861983535751 ,68,4242189529935
10.9012093 ,Left ,72,6344562122618 ,42,9371391422855 ,68,4818965180368
10.9236329 ,Left ,72,5923681211934 ,43,0826912697093 ,68,5160045766283
10.9388576 ,Left ,72,6078789236144 ,43,2019097014796 ,68,5299347533302
10.9612497 ,Left ,72,6581732115314 ,43,2229826956123 ,68,5279380844302
10.9838119 ,Left ,72,6985769042147 ,43,1986989397899 ,68,5097989878659
10.9987949 ,Left ,72,6643393939421 ,43,1844275895572 ,68,4700490997375
11.0213105 ,Left ,72,6123304006181 ,43,136639374361 ,68,4389743679891
11.043623 ,Left ,72,6227424617221 ,43,0395821477065 ,68,4137727273857
11.0588458 ,Left ,72,6837749336741 ,42,9337864277559 ,68,3902195764136
11.0813593 ,Left ,72,7121845008392 ,42,8463842268932 ,68,3761804082594
11.1035611 ,Left ,72,7143930179935 ,42,7680265298342 ,68,3848930206501
11.1187645 ,Left ,72,7152412173514 ,42,755491318018 ,68,403883193039
11.1415906 ,Left ,72,7081237019412 ,42,7740868863758 ,68,416432261419
11.1639471 ,Left ,72,7133236220322 ,42,7822466497045 ,68,4287827660501
11.1791323 ,Left ,72,723069264236 ,42,7654426906496 ,68,4295877719132
11.2010547 ,Left ,72,7187056066733 ,42,7392096852863 ,68,4353645112786
11.2235987 ,Left ,72,717996349404 ,42,7138953413242 ,68,4397017153835
11.2387647 ,Left ,72,7210243546519 ,42,6936730421554 ,68,4460273798487
11.2613927 ,Left ,72,7211418441921 ,42,6811871912423 ,68,4540003093142
11.2911513 ,Left ,72,69251507622 ,42,676746946936 ,68,4611929628669
11.3061216 ,Left ,72,6575374599756 ,42,673304749597 ,68,4595228441385
11.3290421 ,Left ,72,6482796060387 ,42,6545983503533 ,68,4516160822169
11.3436443 ,Left ,72,673951644583 ,42,624382068897 ,68,4366777984474
11.3589328 ,Left ,72,7038854597547 ,42,5935742273003 ,68,4227575810662
11.3812079 ,Left ,72,7055242704651 ,42,5908253047578 ,68,4211179750916
11.4037575 ,Left ,72,7040818710746 ,42,5940140911632 ,68,4232192943556
11.4262957 ,Left ,72,7040818710746 ,42,5940140911632 ,68,4232192943556
11.4411916 ,Left ,72,7191388490335 ,42,5875036150604 ,68,4235805081813
11.4636138 ,Left ,72,7360466838054 ,42,578679737618 ,68,4227644785469
11.4861022 ,Left ,72,7436992129946 ,42,5730263732291 ,68,4209850681217
11.5010966 ,Left ,72,7476339598086 ,42,5632570587397 ,68,4253902050016
11.5234897 ,Left ,72,7495648575683 ,42,5497996763065 ,68,4296601769455
11.5462253 ,Left ,72,7588775166617 ,42,5368370187549 ,68,4335016906152
11.5611134 ,Left ,72,7757135793919 ,42,5261775207441 ,68,4347964207245
11.5838004 ,Left ,72,7865797510939 ,42,5086353596707 ,68,4391132933793
11.6139826 ,Left ,72,7994678461735 ,42,4947683836454 ,68,4435712516274
11.6292144 ,Left ,72,8134725674219 ,42,4852397680532 ,68,4446916766268
11.6513889 ,Left ,72,825108451187 ,42,4795627500178 ,68,444443647983
11.6811799 ,Left ,72,829984622529 ,42,4954844931159 ,68,4264674909264
11.7036722 ,Left ,72,831591298376 ,42,507103669984 ,68,4146820053332
11.7263703 ,Left ,72,8318033370997 ,42,5247087905583 ,68,4110406056151
11.733747 ,Left ,72,8191198557301 ,42,5431806649256 ,68,410509385611
11.7563972 ,Left ,72,7806940253046 ,42,5773442211651 ,68,4167557222236
11.7939723 ,Left ,72,7056147420467 ,42,7070330632809 ,68,4256620453872
11.8164089 ,Left ,72,6552777839399 ,42,7995607765836 ,68,4423611403951
11.8614862 ,Left ,72,529750651398 ,42,9327516849633 ,68,4953403010252
11.9139207 ,Left ,72,5949972034639 ,43,052206637365 ,68,4814030040629
11.9360051 ,Left ,72,6786409997339 ,43,0338841383095 ,68,4632688273122
11.9734845 ,Left ,72,7792465100452 ,43,0121774995164 ,68,391295018732
11.9966018 ,Left ,72,8202304441476 ,42,9770699431671 ,68,3493912814671
12.0335548 ,Left ,72,9052915053705 ,42,9034432067662 ,68,3031994365753
12.0562972 ,Left ,72,9237934042901 ,42,8765905623743 ,68,2843160087588
12.0936569 ,Left ,72,9487325959566 ,42,8328760153061 ,68,2573612182029
12.1163089 ,Left ,72,9531674517293 ,42,8016025822516 ,68,2436799496388
12.1461233 ,Left ,72,9381485628741 ,42,7762561532078 ,68,2675020138796
12.161024 ,Left ,72,9268186844165 ,42,7602615928454 ,68,3151927681409
12.1836462 ,Left ,72,9032080174285 ,42,8259250567871 ,68,3354867428184
12.1988207 ,Left ,72,8651770050683 ,42,9002886075003 ,68,3536984527101
12.2136719 ,Left ,72,8776428674135 ,42,9258753472891 ,68,3509670937161
12.2363763 ,Left ,72,8973186535923 ,42,9455114532129 ,68,3389218723865
12.2589411 ,Left ,72,8868634516537 ,42,9672359225957 ,68,3023345352886
12.2737464 ,Left ,72,8706390608355 ,42,9596908028871 ,68,2607731209129
12.2962402 ,Left ,72,8657187062262 ,42,9374212991092 ,68,222231243152
12.3186728 ,Left ,72,8663183394395 ,42,8868061950357 ,68,2162869953463
12.3335719 ,Left ,72,8803396501033 ,42,8506273713188 ,68,2819198089019
12.3561653 ,Left ,72,874868251616 ,42,92113147813 ,68,3604143954898
12.3788409 ,Left ,72,8563874675723 ,43,0331617061305 ,68,4212689625699
12.3939681 ,Left ,72,8905892680919 ,43,1190296828994 ,68,4742581158007
12.4164752 ,Left ,72,9794009338085 ,43,1545049451561 ,68,5477404213331
12.4392064 ,Left ,73,0377708664877 ,43,2233666730251 ,68,6595771366704
12.4538455 ,Left ,73,0619497233215 ,43,2866998599749 ,68,7786241537091
12.4763379 ,Left ,73,0734503250515 ,43,3187241028401 ,68,8913374292855
12.498798 ,Left ,73,0512523270914 ,43,3289514241149 ,68,9856805510052
12.5364709 ,Left ,73,0226898562263 ,43,3201806536422 ,69,0979231112831
12.5589856 ,Left ,73,004754082557 ,43,3026903180501 ,69,1120749195336
12.5963443 ,Left ,72,936216816754 ,43,3023980121159 ,69,0995789430465
12.6190263 ,Left ,72,905725388007 ,43,3149057796356 ,69,0817658754611
12.6337527 ,Left ,72,8745486141021 ,43,3482729174594 ,69,0667392393132
12.6564793 ,Left ,72,8282735895678 ,43,3827961227064 ,69,075092843201
12.6790031 ,Left ,72,7808215406724 ,43,4136194685132 ,69,1090465026172
12.6937204 ,Left ,72,7243718835056 ,43,473875141632 ,69,1667145684316
12.716461 ,Left ,72,692414357633 ,43,5851382143981 ,69,2188813092898
12.7386239 ,Left ,72,7165992601012 ,43,6814708046662 ,69,2188312233358
12.7760794 ,Left ,72,9009525541426 ,43,6702875626543 ,69,1440993545491
12.7988194 ,Left ,72,9565858379908 ,43,6193936875318 ,69,075466605032
12.8363448 ,Left ,72,9580588677377 ,43,430739813178 ,68,8516453675938
12.8586928 ,Left ,72,9673154892655 ,43,3355533336538 ,68,7352937829273
12.8964386 ,Left ,73,1034947780804 ,43,1743130248666 ,68,5836890756523
12.9191595 ,Left ,73,1677244055311 ,43,1203593893621 ,68,5610838236057
12.9639137 ,Left ,73,1530814555107 ,43,0750768422526 ,68,5931044453312
12.9866703 ,Left ,73,0909880942147 ,43,1331336886616 ,68,6237607902568
13.0163921 ,Left ,73,0102081794553 ,43,3075690041692 ,68,6319329295619
13.0390065 ,Left ,72,971451810844 ,43,3785780771017 ,68,6211104055724
13.076637 ,Left ,72,8477505432421 ,43,4894724386348 ,68,5864261180051
13.0989888 ,Left ,72,7746168752381 ,43,5466399301775 ,68,5677319668972
13.1362856 ,Left ,72,6659412140363 ,43,6257787721793 ,68,5100096470285
13.1588957 ,Left ,72,6338490420479 ,43,6209610513037 ,68,464542131631
13.1962712 ,Left ,72,4668648925923 ,43,6252085745778 ,68,42876848619
13.2192069 ,Left ,72,403646928314 ,43,6811214505794 ,68,4313035062935
13.2566808 ,Left ,72,5415646829898 ,43,7050756900822 ,68,3939687622326
13.2791948 ,Left ,72,6468167895369 ,43,6478396097909 ,68,3825539700328
13.3163903 ,Left ,72,8041186680905 ,43,4898659824142 ,68,3508627812077
13.3392354 ,Left ,72,834629238931 ,43,4187125734733 ,68,3252255736939
13.3764478 ,Left ,72,8553041535561 ,43,2709622491423 ,68,2778271576718
13.3989263 ,Left ,72,8698751265243 ,43,2140178613655 ,68,253880067863
13.4363056 ,Left ,72,9028008273756 ,43,1152622946247 ,68,2307930372745
13.458895 ,Left ,72,9174863156609 ,43,0622513779666 ,68,2280621627315
13.5036337 ,Left ,72,8203541410671 ,42,9088684553485 ,68,2458295084515
13.5262184 ,Left ,72,7368222525155 ,42,9121309066256 ,68,2956381552417
13.563743 ,Left ,72,7383955735378 ,43,0285144951402 ,68,3384320957643
13.5861986 ,Left ,72,7939246313146 ,43,0341425762501 ,68,3252390624482
13.6161573 ,Left ,72,7977167599549 ,43,0246569831384 ,68,2649118064611
13.6389026 ,Left ,72,7711164617744 ,42,9897187763973 ,68,2436033654385
13.6762796 ,Left ,72,8341194886295 ,42,8520913013903 ,68,2255191381887
13.6986369 ,Left ,72,8573131358204 ,42,7941669863279 ,68,2223339188273
13.7363598 ,Left ,72,8500686747863 ,42,720118465377 ,68,2448488974663
13.7590109 ,Left ,72,8491372796089 ,42,708828163303 ,68,2568432238717
13.7962278 ,Left ,72,8145694051748 ,42,7459443098241 ,68,3071689354817
13.818584 ,Left ,72,7966658425568 ,42,7565354653749 ,68,3308294818197
13.8636545 ,Left ,72,7979785985097 ,42,7470195332248 ,68,3379765432752
13.9164357 ,Left ,72,7729359141765 ,42,70904234696 ,68,3332591821556
13.9387598 ,Left ,72,7839268929353 ,42,6955700706265 ,68,3226576279023
13.9764272 ,Left ,72,8497577876785 ,42,6570144189617 ,68,2903528057264
13.9987096 ,Left ,72,8515008480273 ,42,6393430009488 ,68,279936224222
14.0363066 ,Left ,72,8446835691873 ,42,5978521254081 ,68,2792815983108
14.0590084 ,Left ,72,8583619272377 ,42,5819829736175 ,68,2785371754196
14.0962009 ,Left ,72,8725069479805 ,42,5372478985772 ,68,2795260652815
14.1187705 ,Left ,72,8702241141063 ,42,5271200249882 ,68,2775507398326
14.1564254 ,Left ,72,8671973342109 ,42,4994917408798 ,68,2680558495319
14.1788006 ,Left ,72,8822163067783 ,42,4925786904816 ,68,2679042051172
14.2162266 ,Left ,72,9043010880555 ,42,4695617665514 ,68,26073248792
14.2389574 ,Left ,72,9056697897277 ,42,4617631735523 ,68,2546926727846
14.2762125 ,Left ,72,901171363881 ,42,4762798792887 ,68,2431655216891
14.2987003 ,Left ,72,8991641943585 ,42,488373782453 ,68,2415536146252
14.3360608 ,Left ,72,8691542226425 ,42,5522944175154 ,68,2506221732982
14.3586658 ,Left ,72,8285910032938 ,42,6025276716489 ,68,2588401367964
14.4036266 ,Left ,72,7528224666062 ,42,7487866678169 ,68,2931974134379
14.4263982 ,Left ,72,6832954800738 ,42,8716102276662 ,68,3425698904653
14.4413093 ,Left ,72,6075738608602 ,42,9688891392128 ,68,3967539808784
14.4789447 ,Left ,72,4768183655788 ,43,1321369783121 ,68,436115937892
14.5011784 ,Left ,72,4719191891278 ,43,2102822493409 ,68,3979421471855
14.5387448 ,Left ,72,6146167848944 ,43,2058956754384 ,68,2862368419417
14.56125 ,Left ,72,6909734901708 ,43,1563395906178 ,68,2287886052754
14.5987066 ,Left ,72,7996052568209 ,43,0245200018488 ,68,1400163454456
14.6363414 ,Left ,72,9164954313962 ,42,8813244753795 ,68,1190897500711
14.658912 ,Left ,72,9718291298261 ,42,8417655288848 ,68,117901223041
14.6963117 ,Left ,72,9973262867609 ,42,8069956754144 ,68,1164719450011
14.7189862 ,Left ,72,9717258910684 ,42,7890947702053 ,68,1205755399886
14.7562734 ,Left ,72,9241218292204 ,42,7277504373524 ,68,181455923797
14.7787919 ,Left ,72,9074517028248 ,42,7935449693802 ,68,2120460266566
14.8012485 ,Left ,72,8449820278053 ,42,8971810328902 ,68,231145725543
14.838934 ,Left ,72,8767277496819 ,42,9257971989598 ,68,2564867752646
14.8614807 ,Left ,72,8880675829767 ,42,9174396574692 ,68,2502969663655
14.8986393 ,Left ,72,8700186592483 ,42,8562515835737 ,68,2102669732966
14.9363052 ,Left ,72,8307748258676 ,42,7974018903876 ,68,2329376602755
14.9590927 ,Left ,72,796985801549 ,42,8567993692146 ,68,3018730510467
14.981351 ,Left ,72,7466021569512 ,42,9620377893113 ,68,3658541097365
15.0189605 ,Left ,72,7846348124935 ,43,1007316710138 ,68,4776878898555
15.0414346 ,Left ,72,8320892903775 ,43,1354858633785 ,68,558262895375
15.0789375 ,Left ,72,8711786813519 ,43,2431213284827 ,68,7731435645262
15.1013237 ,Left ,72,8810733662929 ,43,2872536651563 ,68,8760989576366
15.1387432 ,Left ,72,8583491213896 ,43,3432458894292 ,69,0370539627133
15.1615429 ,Left ,72,8223468824297 ,43,3797087624307 ,69,07360571848
15.1988425 ,Left ,72,7485038135591 ,43,3822664797425 ,69,0433893343967
15.2213124 ,Left ,72,7162945346118 ,43,3667724673704 ,69,0057901301147
15.2590825 ,Left ,72,6781756188705 ,43,3615578920671 ,68,9996426710358
15.2812904 ,Left ,72,653337431705 ,43,42971402665 ,69,0376284518797
15.3190203 ,Left ,72,6432482231274 ,43,6033355776646 ,69,0748784960291
15.3418664 ,Left ,72,7002703127938 ,43,641311658262 ,69,0734492504778
15.3787964 ,Left ,72,8602014316591 ,43,5301286573148 ,69,0228340021334
15.3937281 ,Left ,72,8857437044165 ,43,4479057938081 ,68,9471488552724
15.4164519 ,Left ,72,8897474641244 ,43,3310668679055 ,68,8473915103627
15.4387766 ,Left ,72,9104683800911 ,43,2475918632991 ,68,7571550347052
15.46167 ,Left ,72,9450683526106 ,43,2167654264955 ,68,6804306157239
15.4839311 ,Left ,72,9669629676326 ,43,2275436696353 ,68,6405486582897
15.4989511 ,Left ,73,0043541648589 ,43,2596257615878 ,68,6287952328595
15.5138604 ,Left ,73,0287772102613 ,43,3097857300549 ,68,6307500672308
15.5363064 ,Left ,73,0230738619518 ,43,3899000528118 ,68,634543253206
15.5514855 ,Left ,72,9812973185867 ,43,5064344223432 ,68,6249631438671
15.5737525 ,Left ,72,9277224227604 ,43,6348528674804 ,68,595458554642
15.5962183 ,Left ,72,8773654219986 ,43,7491246694361 ,68,5486326693876
15.611399 ,Left ,72,8151156134496 ,43,833675710274 ,68,4936624655557
15.633671 ,Left ,72,7677499276175 ,43,8732526372299 ,68,4395853843959
15.6564189 ,Left ,72,7419494194312 ,43,8780660751385 ,68,3800252346076
15.6711277 ,Left ,72,7158165764466 ,43,8719995421147 ,68,3080121272346
15.6936376 ,Left ,72,6687544263735 ,43,8632682202271 ,68,2291267897935
15.7163516 ,Left ,72,5931405386034 ,43,8305101400394 ,68,1716713466692
15.7311148 ,Left ,72,5504865723831 ,43,7649865532541 ,68,1601344820273
15.7536585 ,Left ,72,5898603157592 ,43,721053946618 ,68,1779803489162
15.776486 ,Left ,72,6663240824217 ,43,7406332038202 ,68,1686157752275
15.7915689 ,Left ,72,7459242197071 ,43,7261050358584 ,68,1499302804677
15.8139322 ,Left ,72,8389984809224 ,43,6215875921451 ,68,1598550612641
15.8365875 ,Left ,72,9523998053619 ,43,5253323818719 ,68,1707196672318
15.8590821 ,Left ,73,0153516821853 ,43,4714732174577 ,68,1755881760816
15.8735872 ,Left ,73,0402841872626 ,43,4126087398227 ,68,1892852691207
15.8962009 ,Left ,73,06238184993 ,43,3538199698687 ,68,1948120721996
15.9188329 ,Left ,73,0742401266061 ,43,3145670806031 ,68,1948904190587
15.9338572 ,Left ,73,0693694179906 ,43,2981945169314 ,68,1861455996041
15.9565654 ,Left ,73,066693721792 ,43,2739020936005 ,68,1751476191623
15.9714892 ,Left ,73,0623779510977 ,43,2250979696647 ,68,1642135730661
15.9938126 ,Left ,73,029711989245 ,43,1582511037368 ,68,1591077149446
16.0164313 ,Left ,72,9721085166468 ,43,0696514270873 ,68,1549436853624
16.0389795 ,Left ,72,8796616622651 ,43,0124274564688 ,68,1967098866777
16.0538761 ,Left ,72,7940333387551 ,43,0369250455885 ,68,2485393187348
16.0765227 ,Left ,72,7658495647274 ,43,1234216199521 ,68,2914105554746
16.0990474 ,Left ,72,791727123159 ,43,2028301531775 ,68,3066585014276
16.1138548 ,Left ,72,8451361775586 ,43,2182056079279 ,68,294118532051
16.1363783 ,Left ,72,8996784496907 ,43,1735939268342 ,68,2641203505808
16.1514195 ,Left ,72,9204977547731 ,43,1233189841298 ,68,219383313903
16.1738877 ,Left ,72,9254242734522 ,43,0604262326765 ,68,1864602263246
16.1963658 ,Left ,72,9510357803466 ,42,9750518796486 ,68,1606823553006
16.2190816 ,Left ,72,9872504166431 ,42,8936880989951 ,68,1459012818717
16.2338966 ,Left ,73,0123918225125 ,42,8160217267536 ,68,1444314097587
16.2563543 ,Left ,73,0230171752347 ,42,759377161337 ,68,1515118279266
16.27912 ,Left ,73,0243925567496 ,42,7340904563922 ,68,1597804687137
16.2939079 ,Left ,73,0074501989407 ,42,7455806116095 ,68,1665877165406
16.3164948 ,Left ,73,0057238109381 ,42,7496778577222 ,68,1657224715524
16.3390657 ,Left ,72,9981077403599 ,42,7409485834834 ,68,1773012019996
16.3539242 ,Left ,72,9799293851012 ,42,730957331969 ,68,1800406820631
16.3763405 ,Left ,72,9656991822168 ,42,719622837678 ,68,1868983457955
16.3985927 ,Left ,72,9599313378202 ,42,7131689390733 ,68,1901937212235
16.4137152 ,Left ,72,9598747068389 ,42,7145401666147 ,68,1876580040581
16.4361371 ,Left ,72,9526192741637 ,42,7158140486961 ,68,1859471310242
16.4589424 ,Left ,72,9412124776898 ,42,7092729233331 ,68,1833455706717
16.4737982 ,Left ,72,9051906415196 ,42,698557048943 ,68,1897657594537
16.4963959 ,Left ,72,8820974530898 ,42,678649605831 ,68,1934108092993
16.5195061 ,Left ,72,8909114320604 ,42,6561027863469 ,68,1887994041304
16.5342527 ,Left ,72,9093070592808 ,42,6543643353353 ,68,172493937594
16.5568269 ,Left ,72,9098561014007 ,42,6490461573825 ,68,1609258119759
16.58665 ,Left ,72,9057907124179 ,42,6356704450387 ,68,1591669678501
16.6015958 ,Left ,72,8950771210802 ,42,6206485270546 ,68,1607863911962
16.6239537 ,Left ,72,8831161489641 ,42,6053997318627 ,68,1580402228574
16.6392671 ,Left ,72,8788278612937 ,42,5883836379701 ,68,1604833637741
16.6540386 ,Left ,72,8690578116797 ,42,5800741371504 ,68,1644099138165
16.6766883 ,Left ,72,8530194884429 ,42,5738138582121 ,68,178673448181
16.6992335 ,Left ,72,8450179451239 ,42,5642125308628 ,68,1895169296146
16.7139787 ,Left ,72,8370719437244 ,42,5532366703437 ,68,202936439281
16.736605 ,Left ,72,8301482652807 ,42,5479873572233 ,68,210518567097
16.7592613 ,Left ,72,8393932269483 ,42,5304559274436 ,68,210355046687
16.7740241 ,Left ,72,8516379164716 ,42,5177806955525 ,68,2117063828352
16.7963605 ,Left ,72,8703918354208 ,42,506296149797 ,68,209171261176
16.8264415 ,Left ,72,8841135179385 ,42,4890080295448 ,68,1998258757501
16.8412021 ,Left ,72,8957110232598 ,42,4774083468866 ,68,1981921317147
16.8637551 ,Left ,72,8993774414381 ,42,4783717671974 ,68,1966907839113
16.893832 ,Left ,72,8927770707586 ,42,4971514471448 ,68,2025698516304
16.9164763 ,Left ,72,8844405746473 ,42,5154698372228 ,68,2147609313907
16.938751 ,Left ,72,8529965925941 ,42,5513506749523 ,68,2182044980507
16.953835 ,Left ,72,7994836200658 ,42,6079036189502 ,68,2233309118074
16.9762954 ,Left ,72,7522569807434 ,42,6799955726569 ,68,2217259808995
16.9990317 ,Left ,72,7014208071372 ,42,7794010107219 ,68,2592623466342
17.0137498 ,Left ,72,6676067519703 ,42,8507586156078 ,68,301483953977
17.0365095 ,Left ,72,6296429758069 ,42,9355297919389 ,68,3313148088383
17.0590156 ,Left ,72,5921908642372 ,43,0322937983923 ,68,3351931031551
17.0815044 ,Left ,72,5949979384325 ,43,0954238791869 ,68,3307007624455
17.0963721 ,Left ,72,647303418962 ,43,0967380319252 ,68,3162641607334
17.1187589 ,Left ,72,7347330323041 ,43,0547318379765 ,68,2940833365733
17.1412936 ,Left ,72,8264179981076 ,43,0041843238226 ,68,2554578912295
17.1565606 ,Left ,72,8733404951574 ,42,9718627045926 ,68,196307146725
17.1789536 ,Left ,72,9022272654632 ,42,9215124206239 ,68,1509045463509
17.2013709 ,Left ,72,9390162070854 ,42,8782962799419 ,68,1251723796641
17.2164645 ,Left ,72,9682583013518 ,42,8430035124255 ,68,1067100748045
17.2389427 ,Left ,72,988089322385 ,42,8206856746564 ,68,102737637776
17.2615221 ,Left ,73,0082363808396 ,42,7854549022737 ,68,1170114905868
17.2764991 ,Left ,73,0325759540549 ,42,7162884535005 ,68,1368931480564
17.2988369 ,Left ,73,0304984132967 ,42,6599167974519 ,68,1576970597685
17.3213378 ,Left ,72,9772764594385 ,42,6622331617474 ,68,1976981425942
17.3363409 ,Left ,72,9198093180356 ,42,7254243778563 ,68,2396254228906
17.3589871 ,Left ,72,8840950345118 ,42,805991499695 ,68,2569532760211
17.3813932 ,Left ,72,8845386238324 ,42,8586449530453 ,68,2540290951068
17.3963322 ,Left ,72,8869259530601 ,42,8806553079657 ,68,2408019494898
17.4264431 ,Left ,72,8717859648101 ,42,8864648304229 ,68,2217269803004
17.4488293 ,Left ,72,8696657650111 ,42,8801799909945 ,68,1867728660321
17.4639352 ,Left ,72,8851093044912 ,42,8419060256326 ,68,1462844498133
17.4791977 ,Left ,72,89894321649 ,42,7816916831641 ,68,1481486410059
17.5018427 ,Left ,72,8854640477874 ,42,7941096246495 ,68,2004315401001
17.5165702 ,Left ,72,8598961798905 ,42,8887662122208 ,68,2623997269848
17.5392431 ,Left ,72,8471160613935 ,42,9983867901773 ,68,3163544204926
17.5616571 ,Left ,72,8725380289781 ,43,0757162697862 ,68,3512898750487
17.5767548 ,Left ,72,9238804028749 ,43,1258176748818 ,68,3958003133437
17.5988688 ,Left ,72,9475889611797 ,43,1851866110317 ,68,4662022155374
17.6214637 ,Left ,72,9591538123784 ,43,2327398098951 ,68,5545311010573
17.6363257 ,Left ,72,9868889200302 ,43,2780042052748 ,68,6406273112887
17.6590183 ,Left ,73,0151714173988 ,43,3066914200217 ,68,7132890267062
17.6887688 ,Left ,73,0084513535853 ,43,325825540899 ,68,7666507668238
17.7037382 ,Left ,72,9793011724055 ,43,3284511038606 ,68,7964353750156
17.7262895 ,Left ,72,9360856653461 ,43,3288584746444 ,68,8145088406214
17.7563295 ,Left ,72,8766090300376 ,43,3463954228006 ,68,8145460973192
17.778776 ,Left ,72,8567114643784 ,43,3488038400561 ,68,8153456768614
17.8012755 ,Left ,72,7854419802684 ,43,4047203569567 ,68,8640109510953
17.8162537 ,Left ,72,7305508263743 ,43,4991694475393 ,68,9151332447719
17.8387331 ,Left ,72,7076963102277 ,43,6218508263305 ,68,9671189235496
17.8611052 ,Left ,72,7375138186687 ,43,7179953801688 ,68,9841919125432
17.8835942 ,Left ,72,782071604669 ,43,7781841549155 ,68,9748238771062
17.8986229 ,Left ,72,8466228782217 ,43,7804613983632 ,68,9551590192652
17.921031 ,Left ,72,9222960872507 ,43,7603741585552 ,68,9324877031964
17.9435306 ,Left ,72,9756602567838 ,43,7328337766115 ,68,8933870790611
17.9586063 ,Left ,72,9741278270489 ,43,7396988353106 ,68,8480941505452
17.981146 ,Left ,72,9481113217794 ,43,7655023146983 ,68,7971660095403
18.0035753 ,Left ,72,9309515253298 ,43,798116257231 ,68,7416964766101
18.0263718 ,Left ,72,9364514671462 ,43,8363760270394 ,68,6903791075884
18.0642637 ,Left ,72,9372563141635 ,43,9246608020681 ,68,5872001920624
18.0789721 ,Left ,72,9085584755615 ,43,9671679914303 ,68,53254855886
18.1015124 ,Left ,72,8705210391696 ,44,005429769691 ,68,4776601046213
18.1238256 ,Left ,72,8395000001642 ,44,0263852928048 ,68,4186767917118
18.1387435 ,Left ,72,8122049215487 ,44,0332333560123 ,68,363542959686
18.1613347 ,Left ,72,7825457641622 ,44,0261470839573 ,68,3101408118269
18.1838756 ,Left ,72,7502220199567 ,44,008981639554 ,68,2544145094076
18.1988735 ,Left ,72,7258497627992 ,43,9673480913412 ,68,1991932573148
18.2213378 ,Left ,72,6963042186573 ,43,9044110869482 ,68,1488184390341
18.2435929 ,Left ,72,6342042405111 ,43,8438605053002 ,68,1259873580536
18.2588617 ,Left ,72,555965457785 ,43,8198500008536 ,68,1446800597082
18.2812371 ,Left ,72,5656225578893 ,43,8042342721346 ,68,1635062684059
18.303783 ,Left ,72,6218644067544 ,43,8371508047918 ,68,1642711035127
18.3190638 ,Left ,72,7115590639096 ,43,841360588657 ,68,1654275413493
18.3419127 ,Left ,72,8053822100888 ,43,7532322476056 ,68,1754782179882
18.3640314 ,Left ,72,8591615588553 ,43,6830308365179 ,68,1913074364821
18.3794446 ,Left ,72,8661840240171 ,43,6159772001883 ,68,1908502628557
18.4014676 ,Left ,72,8838874783697 ,43,536044613896 ,68,1804307051375
18.4238113 ,Left ,72,9045950075713 ,43,4788496854963 ,68,165494349208
18.4388328 ,Left ,72,9236322518626 ,43,4375562087439 ,68,1419212563451
18.4611197 ,Left ,72,9510391859335 ,43,3828338429437 ,68,1209525017119
18.4913642 ,Left ,72,9799553926635 ,43,3066333552984 ,68,1037286166604
18.5064001 ,Left ,72,9790320137677 ,43,2234565145396 ,68,1009488124631
18.5289185 ,Left ,72,9565291735627 ,43,138125293568 ,68,1096231036865
18.559378 ,Left ,72,8854782186291 ,43,0067729739881 ,68,1906223608221
18.581951 ,Left ,72,8493276111668 ,43,0908527033721 ,68,2360388266938
18.6043035 ,Left ,72,8110666009405 ,43,2154262481984 ,68,2568335314877
18.6192827 ,Left ,72,8162963270859 ,43,2871767230151 ,68,2651308671
18.6418997 ,Left ,72,8748768292722 ,43,3060630949275 ,68,2542539607378
18.6644379 ,Left ,72,8816063022506 ,43,3058112161956 ,68,2174452564589
18.6796959 ,Left ,72,8623500606116 ,43,269067798873 ,68,1897318696928
18.701913 ,Left ,72,8868810035167 ,43,1941652218709 ,68,1688018481818
18.723768 ,Left ,72,9224658512248 ,43,1019021550216 ,68,1518828817485
18.7388842 ,Left ,72,9236142192278 ,43,0341243783033 ,68,1420712338338
18.7613578 ,Left ,72,9071982774659 ,42,9896144268598 ,68,1486879501216
18.7837655 ,Left ,72,8976947744795 ,42,9523042304743 ,68,1641508698888
18.7988719 ,Left ,72,891119328153 ,42,9180091621876 ,68,1833734179382
18.8210711 ,Left ,72,8637937678187 ,42,9030784867063 ,68,2072581114178
18.8436395 ,Left ,72,8199941144265 ,42,9046190896086 ,68,2313261210397
18.8586461 ,Left ,72,792944034023 ,42,9085890796459 ,68,2494495705748
18.881145 ,Left ,72,7944331619228 ,42,9040610531461 ,68,2498623984547
18.9036042 ,Left ,72,80224829021 ,42,8965514905382 ,68,2430390827564
18.9187388 ,Left ,72,8115776675334 ,42,8692606862708 ,68,2383895734423
18.941563 ,Left ,72,7894795412233 ,42,8505805076348 ,68,2432835630549
18.9638618 ,Left ,72,759795655567 ,42,8582730280906 ,68,2491151412736
18.9792075 ,Left ,72,758042035334 ,42,8581884033924 ,68,2447806296168
19.0015904 ,Left ,72,7744469812152 ,42,8410530286615 ,68,2260526535749
19.0240252 ,Left ,72,779979412295 ,42,8126869173643 ,68,2118507878588
19.0463885 ,Left ,72,7686042149795 ,42,7866752271201 ,68,2076765699993
19.0615577 ,Left ,72,7508005997212 ,42,7650035839023 ,68,2082667896423
19.091351 ,Left ,72,7432529988022 ,42,7413857699612 ,68,2112303555326
19.1137399 ,Left ,72,7413386597327 ,42,7224082988893 ,68,2129253503846
19.1291157 ,Left ,72,7400721697795 ,42,7037178749356 ,68,2150558410457
19.1439007 ,Left ,72,7315433030352 ,42,6831065239456 ,68,2201651878008
19.1665575 ,Left ,72,7262179636392 ,42,6677866430778 ,68,227287673454
19.1812975 ,Left ,72,7221854441249 ,42,6614291928444 ,68,2350286735519
19.203782 ,Left ,72,7238423439484 ,42,6628901450713 ,68,2368005871876
19.226332 ,Left ,72,7346194704704 ,42,6636252301544 ,68,245035492004
19.2412077 ,Left ,72,7521767349549 ,42,6677711544565 ,68,2478053469518
19.2636174 ,Left ,72,7619580497462 ,42,6760494844405 ,68,2438593253966
19.2862327 ,Left ,72,7627551298097 ,42,6910524405862 ,68,234797725364
19.3014043 ,Left ,72,7637444013462 ,42,7064881803601 ,68,2262193353376
19.3311823 ,Left ,72,7585571050126 ,42,7243337693015 ,68,2173387624457
19.3537227 ,Left ,72,7427762391846 ,42,7331613181004 ,68,2114834175287
19.3686832 ,Left ,72,7236682859864 ,42,7488050226934 ,68,2063828708864
19.3837013 ,Left ,72,6985424627256 ,42,7835858122735 ,68,2076098489814
19.4063441 ,Left ,72,6676909856543 ,42,8579723001471 ,68,1960808370751
19.4214147 ,Left ,72,6395582060442 ,42,956252686122 ,68,2159965324959
19.4434942 ,Left ,72,600753011903 ,43,0534165954005 ,68,2629205009587
19.4663763 ,Left ,72,5649784993818 ,43,1038437274105 ,68,3153523413734
19.4810455 ,Left ,72,5163644677593 ,43,174355661763 ,68,3327268567971
19.5043425 ,Left ,72,4764029161273 ,43,2376181321221 ,68,3261645858784
19.5266185 ,Left ,72,5098370732721 ,43,2408356139996 ,68,3168577271278
19.541485 ,Left ,72,6012160089164 ,43,2039156427184 ,68,3007555153201
19.5638095 ,Left ,72,6946359001317 ,43,1657469036958 ,68,2629128918842
19.5860493 ,Left ,72,7444416249695 ,43,1442186701864 ,68,2180837025768
19.6086058 ,Left ,72,7757402090424 ,43,1014806390258 ,68,1804779004679
19.6317865 ,Left ,72,8268278447053 ,43,0668237551973 ,68,1642260890009
19.6618196 ,Left ,72,9172151021012 ,43,0036688238876 ,68,1283930192592
19.6838168 ,Left ,72,9491201400204 ,42,9885039232982 ,68,1100038416369
19.7064122 ,Left ,72,9626548706161 ,42,9878650820678 ,68,0894862451423
19.7213121 ,Left ,72,9814239527601 ,42,9778005237039 ,68,0774796694263
19.7437302 ,Left ,72,9919037678445 ,42,9540821953256 ,68,0795158000903
19.7664446 ,Left ,72,9896623797145 ,42,9352390843596 ,68,0879438300362
19.781199 ,Left ,72,9660123222703 ,42,9178620246447 ,68,0966617913078
19.8037236 ,Left ,72,9343012511121 ,42,9055358998218 ,68,0957381618341
19.8261502 ,Left ,72,889211824178 ,42,8787709662708 ,68,0885170024889
19.8412474 ,Left ,72,8758833699751 ,42,8381891780697 ,68,1071601499257
19.863698 ,Left ,72,8643917539901 ,42,8614183336766 ,68,1222149953417
19.8864185 ,Left ,72,8331093454453 ,42,9468211852575 ,68,1060574612974
19.9013419 ,Left ,72,8262297800709 ,42,9849091860231 ,68,1028870469161
19.9238039 ,Left ,72,8916600661641 ,42,9697561829819 ,68,0973040238306
19.9463328 ,Left ,72,9339704921092 ,42,9932683039412 ,68,0829819415602
19.9686048 ,Left ,72,9441298925814 ,42,9778662240314 ,68,0739539268906
19.984281 ,Left ,72,9451948385188 ,42,9502841549227 ,68,0655199615216
20.0066334 ,Left ,72,9556980475429 ,42,9246009156708 ,68,0515270321948
20.0286203 ,Left ,72,9629901901952 ,42,8863015106729 ,68,036493744394
20.0436103 ,Left ,72,9713689567324 ,42,8546660864944 ,68,0238203168584
20.0669514 ,Left ,72,9559737277529 ,42,8811958510872 ,68,061926775148
20.0895262 ,Left ,72,910210139711 ,42,9772443607102 ,68,1358908805764
20.1039725 ,Left ,72,8403140018382 ,43,1083978918476 ,68,2077004925312
20.126358 ,Left ,72,809343671869 ,43,2029700753482 ,68,2600799388348
20.1487938 ,Left ,72,8292632927522 ,43,236846579904 ,68,2926257661564
20.1637569 ,Left ,72,8892101201869 ,43,2356818007424 ,68,3012407154939
20.1864599 ,Left ,72,9114369082459 ,43,2297587786857 ,68,3015975370275
20.2089313 ,Left ,72,9084132050191 ,43,2442489051123 ,68,337690081517
20.2237783 ,Left ,72,919580175359 ,43,2511884649729 ,68,3912093343656
20.2463107 ,Left ,72,9444387381796 ,43,2493433057057 ,68,4719425861084
20.2690282 ,Left ,72,9627972815315 ,43,2713060454242 ,68,5667594845325
20.2838252 ,Left ,72,9629218686772 ,43,3073133691024 ,68,640713034969
20.3062932 ,Left ,72,9332580526855 ,43,3393959248669 ,68,684122840521
20.3286603 ,Left ,72,8703595839662 ,43,3548595899417 ,68,7030811970055
20.3438284 ,Left ,72,8238961521658 ,43,3623231104142 ,68,7114064464541
20.3664774 ,Left ,72,8008509708974 ,43,3802654064471 ,68,7021878394054
20.3889396 ,Left ,72,7673902606872 ,43,4027330941847 ,68,6960075226322
20.4038041 ,Left ,72,7120773604047 ,43,4150158440659 ,68,7117129190408
20.4264077 ,Left ,72,6423348434734 ,43,442393999059 ,68,748242960879
20.4490539 ,Left ,72,5996837730217 ,43,5441095647369 ,68,7923880745359
20.4640647 ,Left ,72,6051511935181 ,43,6942968314003 ,68,8250547639533
20.4864455 ,Left ,72,6842060970592 ,43,7961688775203 ,68,850263946102
20.509159 ,Left ,72,7884678255851 ,43,8363155809216 ,68,8576818075589
20.523879 ,Left ,72,8425757566788 ,43,8427631942458 ,68,8583573210552
20.5464893 ,Left ,72,8555126214109 ,43,8192159395127 ,68,8444155418211
20.5689739 ,Left ,72,8570469312257 ,43,7892511766903 ,68,8128449031089
20.5913693 ,Left ,72,8657749689224 ,43,7778928848185 ,68,7497944596412
20.6066644 ,Left ,72,8569757168185 ,43,7854505753133 ,68,6951317958696
20.6290352 ,Left ,72,842637985966 ,43,8099976286037 ,68,6382516991136
20.6438274 ,Left ,72,8257698098818 ,43,8557042547568 ,68,5909623428809
20.6663479 ,Left ,72,8412346765755 ,43,8938269091497 ,68,5445027807903
20.6888173 ,Left ,72,868011175569 ,43,9207158870827 ,68,4972371086142
20.7038176 ,Left ,72,8698812289065 ,43,9603778493236 ,68,4430224213918
20.726479 ,Left ,72,8446173348308 ,44,0024138451587 ,68,3795532619678
20.748833 ,Left ,72,8066244690674 ,44,028754432116 ,68,3049855020448
20.7637123 ,Left ,72,7711352503248 ,44,040528864652 ,68,2301224215077
20.7863564 ,Left ,72,7459942827105 ,44,0336905744173 ,68,1617560807172
20.8090525 ,Left ,72,712804586398 ,43,9955861805017 ,68,095651109111
20.823675 ,Left ,72,6596405691632 ,43,9339807534343 ,68,043981982868
20.8462921 ,Left ,72,6051507077927 ,43,8535598052962 ,68,0218198711068
20.8691169 ,Left ,72,5618861854631 ,43,8298571675755 ,68,0407703693793
20.8838727 ,Left ,72,582563701404 ,43,8810452651555 ,68,0597890939175
20.9064519 ,Left ,72,6587752865797 ,43,9308026746625 ,68,0548656373034
20.9291616 ,Left ,72,7735139617205 ,43,9080927644359 ,68,0507072353443
20.9513494 ,Left ,72,872856226053 ,43,8195662183627 ,68,065537012749
20.966332 ,Left ,72,9128090041123 ,43,7489442052081 ,68,0643332634211
20.9889133 ,Left ,72,9215253168653 ,43,6902790717582 ,68,0570382624433
21.011546 ,Left ,72,9425811345812 ,43,6268197339299 ,68,0506960265733
21.0263912 ,Left ,72,9658629120559 ,43,5779731106866 ,68,0399163325264
21.0490093 ,Left ,72,9673587051637 ,43,5402331557913 ,68,0297933031104
21.0714236 ,Left ,72,9641043089822 ,43,4954526860124 ,68,0259975498674
21.0862927 ,Left ,72,9655790409366 ,43,4394226280948 ,68,0217175160388
21.1088404 ,Left ,72,9597185192683 ,43,3786619528225 ,68,0141741631493
21.1315292 ,Left ,72,9379957028215 ,43,3114688999545 ,68,0093264845756
21.1463854 ,Left ,72,889430745196 ,43,2284605842028 ,68,002417379662
21.1691312 ,Left ,72,7739055150561 ,43,1586556218854 ,68,0526382227012
21.1915536 ,Left ,72,673894245744 ,43,2089583239727 ,68,1235104690258
21.2061084 ,Left ,72,6068273222389 ,43,3603804615554 ,68,158622615607
21.2289293 ,Left ,72,6211645344629 ,43,4749227015426 ,68,1772394231282
21.2512882 ,Left ,72,7208549114422 ,43,4899746747145 ,68,1688872826595
21.2661306 ,Left ,72,7806453292296 ,43,490188439608 ,68,1326794079864
21.2889264 ,Left ,72,7495298680975 ,43,4788134868684 ,68,0862936094183
21.3112779 ,Left ,72,7189680440109 ,43,4110889673167 ,68,0428715112629
21.3264113 ,Left ,72,7401155010691 ,43,3157867976247 ,68,0143157178793
21.3490534 ,Left ,72,7906566010285 ,43,2226291826822 ,68,0022159094428
21.3715744 ,Left ,72,8276006118101 ,43,148651904072 ,68,0114874172306
21.3866212 ,Left ,72,8273489011377 ,43,0876827395431 ,68,0353032563315
21.4091023 ,Left ,72,8252668215496 ,43,0247635819623 ,68,0570157266772
21.431419 ,Left ,72,8354923610597 ,42,9528493885514 ,68,0761323695133
21.4464665 ,Left ,72,8440456508636 ,42,8821046275806 ,68,0885886745028
21.469137 ,Left ,72,8285545668759 ,42,8499569246991 ,68,1099207652532
21.4911814 ,Left ,72,7938888836825 ,42,8528379189102 ,68,12797483034
21.5062839 ,Left ,72,7748432908897 ,42,8548868181496 ,68,151267222349
21.5288396 ,Left ,72,7882254838225 ,42,8370190994382 ,68,1630926216168
21.5588951 ,Left ,72,7977356526477 ,42,8138975299056 ,68,1618987349944
21.5813738 ,Left ,72,7847994365524 ,42,7766842896124 ,68,1586174642338
21.6113875 ,Left ,72,7418303386314 ,42,7535251829489 ,68,1522166368211
21.6263464 ,Left ,72,7083277407645 ,42,7544965150072 ,68,1477424755057
21.6411557 ,Left ,72,7236405986958 ,42,7506968398396 ,68,1359001913739
21.6564137 ,Left ,72,7688089252246 ,42,7253897559275 ,68,1173755590845
21.6711428 ,Left ,72,8029169760108 ,42,6907501667756 ,68,10141050432
21.6861904 ,Left ,72,8047618471109 ,42,6702308391166 ,68,0850495976729
21.7088482 ,Left ,72,7892480045656 ,42,6497648710181 ,68,0804068351126
21.731418 ,Left ,72,7860805688751 ,42,6399184392873 ,68,0855683524555
21.7462776 ,Left ,72,8019090493168 ,42,6311410486076 ,68,0913487525326
21.7690955 ,Left ,72,8218143279864 ,42,615819845784 ,68,0967801760709
21.7915305 ,Left ,72,8318784537952 ,42,5990785213604 ,68,0974414929541
21.8064647 ,Left ,72,8383073037339 ,42,5785297271507 ,68,0936215753555
21.8364411 ,Left ,72,8510561577261 ,42,5587619403448 ,68,0854578530384
21.8590977 ,Left ,72,8699194021738 ,42,5446016193058 ,68,0880019839727
21.8963003 ,Left ,72,886664399129 ,42,5393233510892 ,68,1006529509855
21.9187711 ,Left ,72,893339494556 ,42,5494187245747 ,68,1152153635934
21.9488353 ,Left ,72,8868196928696 ,42,5794206195866 ,68,1450720556694
21.9712688 ,Left ,72,8631060843263 ,42,6046855878257 ,68,1645446642411
21.9936318 ,Left ,72,8148406487766 ,42,6487946170392 ,68,1794921188166
22.0086611 ,Left ,72,7622698030438 ,42,7193867840549 ,68,1857486201223
22.0313151 ,Left ,72,7217765626202 ,42,7753870652055 ,68,1843435005535
22.0540296 ,Left ,72,6762869960362 ,42,840110202993 ,68,2241078379217
22.0690118 ,Left ,72,6414077739784 ,42,9042650279916 ,68,2635947163021
22.091371 ,Left ,72,5951739420789 ,42,9720159010225 ,68,2942880999225
22.1137134 ,Left ,72,5749556055201 ,43,0547824735406 ,68,2969990758516
22.1290855 ,Left ,72,5984629250203 ,43,1183657246358 ,68,2902087584073
22.1511717 ,Left ,72,6811349079446 ,43,1311146513024 ,68,2647980288855
22.1742942 ,Left ,72,7879736652094 ,43,1194784090587 ,68,225190696253
22.1895825 ,Left ,72,8459415149449 ,43,11106708717 ,68,1548332516394
22.2113564 ,Left ,72,8752797175262 ,43,0743764657955 ,68,1032955300603
22.2338082 ,Left ,72,9270121014848 ,43,0432292056305 ,68,0648723999516
22.2489234 ,Left ,72,9819716615107 ,43,0193186255014 ,68,0335957763411
22.2713307 ,Left ,73,0188127787877 ,42,9943086572255 ,68,0122537761171
22.2937682 ,Left ,73,0353357868441 ,42,962671216641 ,68,002592761591
22.3088822 ,Left ,73,0475758349617 ,42,9150568283967 ,68,0029807301671
22.3318043 ,Left ,73,0472116651693 ,42,8538285563696 ,68,015934022198
22.3542711 ,Left ,73,0297529789514 ,42,8121239001052 ,67,9956123056787
22.3693141 ,Left ,72,9793625390925 ,42,7917501923204 ,68,0135518458281
22.3916753 ,Left ,72,9569081232882 ,42,8088646152502 ,68,0555804952382
22.4137752 ,Left ,72,9350320216838 ,42,9143851859059 ,68,0674413111327
22.4437081 ,Left ,72,9169051067239 ,43,0111620631902 ,68,0806813855145
22.4587814 ,Left ,72,9583515665857 ,43,0372809873029 ,68,0791384763724
22.4811793 ,Left ,72,9751331415291 ,43,0438861136132 ,68,0768458186589
22.4963425 ,Left ,72,9652245574797 ,43,0457002342216 ,68,0673472177015
22.5116415 ,Left ,72,9667220273641 ,43,023024695962 ,68,0452160523151
22.5335953 ,Left ,72,9756543536938 ,42,9680374207613 ,68,0094495929209
22.5492666 ,Left ,72,9831382753189 ,42,8811634976591 ,67,9821616588909
22.571532 ,Left ,72,9622558959484 ,42,8505988055418 ,67,995294449503
22.5938112 ,Left ,72,9274317699882 ,42,9050601499657 ,68,0603357603986
22.6090406 ,Left ,72,916534936621 ,43,0079139298542 ,68,1209036786805
22.6314622 ,Left ,72,9354841958028 ,43,1072133889166 ,68,1686243605478
22.653789 ,Left ,72,9754091177161 ,43,1842026042314 ,68,2062013664172
22.6764784 ,Left ,72,989517293486 ,43,2196571894832 ,68,2849832903327
22.6914711 ,Left ,73,0040112985916 ,43,2463903554704 ,68,3928110637523
22.7138477 ,Left ,73,0408108459345 ,43,2571759155726 ,68,511311487436
22.7364137 ,Left ,73,0809136007349 ,43,267181309797 ,68,6276828571765
22.7515281 ,Left ,73,0990477152275 ,43,2885660748283 ,68,7193934400281
22.7738417 ,Left ,73,0802182707049 ,43,31487850721 ,68,7775228507051
22.7964269 ,Left ,73,0368223882493 ,43,3482313982542 ,68,812477694491
22.8114844 ,Left ,72,9890009915469 ,43,37512163119 ,68,8181818834353
22.8338629 ,Left ,72,9470054142579 ,43,3955070355144 ,68,8134478103257
22.8565227 ,Left ,72,9023489383583 ,43,4169532228128 ,68,8085486987269
22.8714132 ,Left ,72,8636238573557 ,43,4258779445717 ,68,8247212161092
22.8938791 ,Left ,72,7966665798106 ,43,465011186356 ,68,8791321420531
22.9161825 ,Left ,72,7582950318291 ,43,5635168785169 ,68,9371296314673
22.9313457 ,Left ,72,74405597955 ,43,6859291908911 ,68,9676173457826
22.9537631 ,Left ,72,7953230557781 ,43,7561563386413 ,68,9840028081469
22.9766158 ,Left ,72,8843784930939 ,43,7715426247792 ,68,9862343619065
22.9914854 ,Left ,72,9379634242742 ,43,7583943340675 ,68,9776154184526
23.013855 ,Left ,72,9747364646072 ,43,7584614462549 ,68,9472061166604
23.0438798 ,Left ,73,0163698928753 ,43,7500652260286 ,68,8324608259227
23.0661383 ,Left ,73,0486178473856 ,43,7676176341936 ,68,77867634689
23.1035646 ,Left ,73,0329893770565 ,43,87115917576 ,68,701783178208
23.1263488 ,Left ,73,0290301163132 ,43,9189037933332 ,68,6654587723278
23.1636426 ,Left ,73,0527155276144 ,43,9640482155824 ,68,5894949456747
23.1863138 ,Left ,73,0264438596047 ,43,9841474256613 ,68,5451816241258
23.223683 ,Left ,72,9513582637693 ,44,0146545455829 ,68,4320511776449
23.2460969 ,Left ,72,9321726622991 ,44,012504382023 ,68,3655331323792
23.2837122 ,Left ,72,8700153144025 ,43,9533225010471 ,68,219032620684
23.3061803 ,Left ,72,8014790739448 ,43,9091464536567 ,68,1606676387339
23.3290571 ,Left ,72,723642223163 ,43,8679110316201 ,68,1260582768815
23.3438708 ,Left ,72,6726039654905 ,43,840962615437 ,68,1389407895056
23.3663005 ,Left ,72,6933281309308 ,43,8817415154716 ,68,1532257203593
23.3887909 ,Left ,72,7745037253882 ,43,9406725775437 ,68,1480431843282
23.4037167 ,Left ,72,8697367899383 ,43,9153904210628 ,68,14843944617
23.4264652 ,Left ,72,9703802513576 ,43,8235368071198 ,68,1439672314709
23.4490096 ,Left ,72,9989456053012 ,43,726883055214 ,68,1230649924739
23.4635927 ,Left ,72,986222931819 ,43,6312753014673 ,68,1003992317133
23.4862507 ,Left ,72,9824286698164 ,43,5492467692911 ,68,0824406026133
23.5235634 ,Left ,73,0189982210674 ,43,4442219964576 ,68,0612899466741
23.546261 ,Left ,73,035407976769 ,43,3965104676268 ,68,0557982903302
23.5689178 ,Left ,73,0441134803523 ,43,3222175434995 ,68,0567433459275
23.5838535 ,Left ,73,0152106495501 ,43,2389230164392 ,68,0639170465306
23.6065889 ,Left ,72,9494050227854 ,43,140848573478 ,68,069739879983
23.6291894 ,Left ,72,8284098500425 ,43,1064689875927 ,68,1156155593307
23.6437747 ,Left ,72,7197790077224 ,43,1819760054583 ,68,1863172231462
23.6664159 ,Left ,72,6542111770444 ,43,3247749500532 ,68,2643872802059
23.6885804 ,Left ,72,6840517009619 ,43,4387748732618 ,68,3311385201711
23.7036631 ,Left ,72,7679537788654 ,43,4675065165825 ,68,3602732394389
23.7263754 ,Left ,72,7973168555245 ,43,4425918661532 ,68,3514212080657
23.7488109 ,Left ,72,7465111234974 ,43,4006918258692 ,68,3245891253635
23.7638153 ,Left ,72,702128783704 ,43,3225092973174 ,68,2990982472379
23.7939116 ,Left ,72,7279109790978 ,43,215968411248 ,68,2710070639694
23.8164759 ,Left ,72,7776752425008 ,43,103278644465 ,68,2470856417431
23.8313782 ,Left ,72,8017047002211 ,43,0163536872328 ,68,2308290417007
23.8463838 ,Left ,72,7936430001532 ,42,9456998173054 ,68,2301384914218
23.8691813 ,Left ,72,7786947514237 ,42,8637761954547 ,68,2357060953455
23.8838342 ,Left ,72,7764725611533 ,42,7731441121526 ,68,2463734246936
23.9065789 ,Left ,72,7851169724528 ,42,7230783280189 ,68,2697133861966
23.9286275 ,Left ,72,7790122110066 ,42,7293329819617 ,68,2834435096954
23.9436308 ,Left ,72,7626511494479 ,42,7462883270801 ,68,2839948836569
23.9664227 ,Left ,72,7672317886936 ,42,7445671478117 ,68,2698394780911
23.988753 ,Left ,72,775967819971 ,42,7186314273129 ,68,251713311396
24.0039119 ,Left ,72,7579109293062 ,42,6881540668211 ,68,2450585499171
24.0267018 ,Left ,72,7291044258313 ,42,674711955152 ,68,2449145256544
24.0494888 ,Left ,72,7072450406766 ,42,6748664104696 ,68,2440920304653
24.0641869 ,Left ,72,7014305993619 ,42,6701044243157 ,68,2343503722796
24.086601 ,Left ,72,707070692849 ,42,6482135102167 ,68,2221512137238
24.1093569 ,Left ,72,710376477787 ,42,6259550020562 ,68,2122766900765
24.1239661 ,Left ,72,7075050713715 ,42,6057737756363 ,68,2127276355215
24.1464324 ,Left ,72,7038013661434 ,42,5890621851602 ,68,2157197539117
24.1693393 ,Left ,72,7127441452733 ,42,5711257595689 ,68,2151179968984
24.206533 ,Left ,72,7297560554356 ,42,5509619027195 ,68,2302324751402
24.2293386 ,Left ,72,7338808175743 ,42,5458738054201 ,68,2384547223044
24.26643 ,Left ,72,7509156338299 ,42,5203452786808 ,68,2310010562875
24.288993 ,Left ,72,759334320785 ,42,5224060235588 ,68,2212562430552
24.3262184 ,Left ,72,7564709712368 ,42,5469224265781 ,68,1895459901084
24.3488023 ,Left ,72,7530905390091 ,42,5624864442099 ,68,1794311931841
24.3863081 ,Left ,72,7619029218571 ,42,6056770817639 ,68,1639783464093
24.4090711 ,Left ,72,7430737212477 ,42,6463454722994 ,68,165251559267
24.446479 ,Left ,72,6503714662057 ,42,8193247057122 ,68,1543454777459
24.4688511 ,Left ,72,610137266119 ,42,902546973995 ,68,1824587362855
24.5065133 ,Left ,72,5969118475795 ,43,0071631674005 ,68,2130071054866
24.5290604 ,Left ,72,5481728773355 ,43,1101054012304 ,68,1968252833492
24.566542 ,Left ,72,6100959179361 ,43,1597555326004 ,68,1615520209797
24.5964175 ,Left ,72,6963551309167 ,43,1432596035232 ,68,1311449667088
24.6338366 ,Left ,72,8061505720993 ,43,0969173257174 ,68,0420467934488
24.6564569 ,Left ,72,8508097080374 ,43,0566504415746 ,68,0254602745666
24.6938169 ,Left ,72,9441600539229 ,42,9914963395889 ,67,9992150421248
24.7090176 ,Left ,72,9642664656181 ,42,9778664863079 ,67,9846076244259
24.7464161 ,Left ,72,9454308833684 ,42,9098030196995 ,67,9776122446241
24.7686695 ,Left ,72,9239830645606 ,42,8650763820931 ,67,9894509203004
24.8061919 ,Left ,72,8784833536927 ,42,9229991056542 ,68,0495764321489
24.8289457 ,Left ,72,8528179618288 ,43,0159375325059 ,68,0565569200517
24.8663726 ,Left ,72,8785019166568 ,43,0795937694112 ,68,0588333695248
24.888847 ,Left ,72,8672271195963 ,43,0737963821392 ,68,0460723253473
24.9265319 ,Left ,72,8949212665137 ,42,9685265744986 ,68,0042561155435
24.9488526 ,Left ,72,9103095379272 ,42,8865755507628 ,68,02032458417
24.9865486 ,Left ,72,8535565493875 ,43,0178334381122 ,68,1587671548331
25.0090812 ,Left ,72,8570980315732 ,43,1374417316701 ,68,2313713316358
25.0464634 ,Left ,72,991424449118 ,43,3229193326963 ,68,3335331952835
25.0686948 ,Left ,73,0148262984078 ,43,4297254186836 ,68,4013378809852
25.1062833 ,Left ,73,08640640452 ,43,5422803363981 ,68,5634914827405
25.1290452 ,Left ,73,1132798841621 ,43,5625576079682 ,68,6502998074033
25.1666508 ,Left ,73,0577648244236 ,43,6313754697036 ,68,807736035596
25.1891313 ,Left ,73,0395468965593 ,43,6365032637597 ,68,858332921465
25.2265754 ,Left ,73,0108170727922 ,43,6331050678669 ,68,87896533466
25.2489459 ,Left ,72,9370916331688 ,43,6723829516311 ,68,8505076401832
25.2713198 ,Left ,72,8423711072557 ,43,7116361024009 ,68,8309449893237
25.3089197 ,Left ,72,717971029332 ,43,8750261450229 ,68,8982062197263
25.3313934 ,Left ,72,6975530479614 ,44,0549851414394 ,68,9564106619347
25.3691055 ,Left ,72,8398934689871 ,44,2638417274794 ,69,0248924056583
25.3915201 ,Left ,72,9358048642878 ,44,3043398665646 ,69,0039550128894
25.4287329 ,Left ,72,9909817354161 ,44,3889051866505 ,68,8879895687044
25.4587961 ,Left ,72,9856580441664 ,44,4029158881944 ,68,7981995665377
25.4963407 ,Left ,73,0267207959644 ,44,4074655970235 ,68,6197166815616
25.5264352 ,Left ,73,0970709444368 ,44,4792040101042 ,68,4458544102786
25.548913 ,Left ,73,0877413772516 ,44,4952964500289 ,68,3504637426652
25.5864162 ,Left ,73,0023639615398 ,44,4996472716449 ,68,1911235377934
25.608652 ,Left ,72,9801239328572 ,44,4706232588335 ,68,1116912746627
25.6463055 ,Left ,72,8975926326344 ,44,3419176745882 ,67,9811798700277
25.668924 ,Left ,72,8157746851664 ,44,2581237983012 ,67,9490415809689
25.7066818 ,Left ,72,7506830840382 ,44,2053570708605 ,68,0091894346263
25.729601 ,Left ,72,8035601089953 ,44,2556633510916 ,68,014389856975
25.7661718 ,Left ,72,9401260182832 ,44,1014574156654 ,68,013455883163
25.7889281 ,Left ,72,9751304440354 ,44,0014345455921 ,68,0057599774998
25.8262547 ,Left ,72,9948792140152 ,43,7918676557969 ,68,0039342875702
25.8486818 ,Left ,73,0128943070162 ,43,7011925937515 ,67,9904534131413
25.8715083 ,Left ,73,0315885592859 ,43,6317456263611 ,67,9671138005455
25.9088687 ,Left ,73,0705791728336 ,43,5080526709924 ,67,9480360727426
25.9313841 ,Left ,73,0499462138515 ,43,4684302434866 ,67,955675571029
25.9687984 ,Left ,72,9667027853113 ,43,3629475943247 ,67,9894372067274
26.006441 ,Left ,72,7757121322964 ,43,5232363576997 ,68,1123996631133
26.0289145 ,Left ,72,7160944473294 ,43,693003728818 ,68,1805945060219
26.0520878 ,Left ,72,7640474858905 ,43,7899220133054 ,68,2244226392989
26.0888592 ,Left ,72,8127587512351 ,43,8451152689732 ,68,2202662078629
26.1112141 ,Left ,72,7658792001879 ,43,7994133877957 ,68,190979554298
26.1487552 ,Left ,72,7915261949529 ,43,6203940002948 ,68,1222098383008
26.1865084 ,Left ,72,8625841027305 ,43,4380961743112 ,68,086164203672
26.20902 ,Left ,72,8647245536634 ,43,3817132369314 ,68,0751695259704
26.2466618 ,Left ,72,8474320826423 ,43,2867942193192 ,68,0741018982081
26.2685888 ,Left ,72,854633522271 ,43,2326316380314 ,68,0813735585731
26.3061193 ,Left ,72,8667179290192 ,43,1267192535839 ,68,1044361420915
26.3288925 ,Left ,72,861343253346 ,43,1114866570288 ,68,1110763554701
26.3663217 ,Left ,72,8320544045167 ,43,0953635022269 ,68,1113086619188
26.3886437 ,Left ,72,8103244435989 ,43,0658180573349 ,68,1033623205748
26.411404 ,Left ,72,7835296303138 ,43,0387590415889 ,68,0885292593385
26.4487841 ,Left ,72,8012848074279 ,42,9669942887972 ,68,0427818349009
26.4713831 ,Left ,72,8183079710612 ,42,9474290421085 ,68,0185693521317
26.5088486 ,Left ,72,8431863349242 ,42,914107170307 ,67,996611190173
26.5314232 ,Left ,72,8612893194702 ,42,8977758599344 ,67,9897279105502
26.5690877 ,Left ,72,8962255254744 ,42,850192694933 ,67,9737677620456
26.5915779 ,Left ,72,9048541876521 ,42,8227933589491 ,67,9756089537446
26.629173 ,Left ,72,90734053987 ,42,8204514059673 ,67,9853650841412
26.6514353 ,Left ,72,9096564074743 ,42,8333728230698 ,67,9934515988286
26.6815335 ,Left ,72,8714996141911 ,42,8882201382838 ,68,0106873909684
26.7039414 ,Left ,72,8423958154077 ,42,9043588665151 ,68,0168261836697
26.7265922 ,Left ,72,8165609616833 ,42,8990477682215 ,68,0313763763626
26.7414942 ,Left ,72,7959100871786 ,42,9072456519156 ,68,0411604348224
26.7640097 ,Left ,72,7618733110469 ,42,943954488289 ,68,0445898093202
26.7862518 ,Left ,72,7101395865767 ,42,9851766511229 ,68,0415125827057
26.8012347 ,Left ,72,6379289397778 ,43,047235506061 ,68,0584992073748
26.8237167 ,Left ,72,5711835108413 ,43,1113286004902 ,68,0967278678477
26.846196 ,Left ,72,5053483426532 ,43,2023336464319 ,68,1249546762022
26.8616474 ,Left ,72,4563266298756 ,43,3111988759718 ,68,1350882899495
26.8838924 ,Left ,72,4725434774543 ,43,407769310604 ,68,1283784530681
26.9061121 ,Left ,72,5360149148523 ,43,4475851633459 ,68,1114274234373
26.9212022 ,Left ,72,6181286178227 ,43,4452042839404 ,68,091920331976
26.944302 ,Left ,72,6807714721025 ,43,4389019661281 ,68,061687313317
26.9667967 ,Left ,72,7190973492293 ,43,4399720135186 ,68,0140846384843
26.9818415 ,Left ,72,7580248600743 ,43,3951343694867 ,67,9742732369549
27.0041302 ,Left ,72,8000004015887 ,43,3412061748354 ,67,9525103712399
27.0265704 ,Left ,72,8328978656049 ,43,2788347886305 ,67,9271539173972
27.0414223 ,Left ,72,851415890637 ,43,2147636075515 ,67,9018244562398
27.0637822 ,Left ,72,8767886475655 ,43,167201189573 ,67,882252298462
27.0864281 ,Left ,72,9136483130258 ,43,131779800457 ,67,8664305720835
27.1015275 ,Left ,72,9382319963349 ,43,0822489922464 ,67,8553856318175
27.1238176 ,Left ,72,9131378710684 ,43,0170915404567 ,67,8552875902704
27.1463562 ,Left ,72,8324939087845 ,43,0024227597122 ,67,887747350494
27.1612955 ,Left ,72,7963189353804 ,43,0262859180919 ,67,9404224699838
27.1837466 ,Left ,72,8356364290504 ,43,071561215868 ,67,9750986874162
27.2063859 ,Left ,72,8877459596995 ,43,1284694633603 ,67,9712499969641
27.2213451 ,Left ,72,8832382616347 ,43,1744662305965 ,67,9547131468044
27.2438427 ,Left ,72,8540525140587 ,43,1969797587833 ,67,9234115261856
27.2662362 ,Left ,72,8332265368903 ,43,1932157417553 ,67,9017550705258
27.281494 ,Left ,72,8445242521948 ,43,1687816506376 ,67,8891547251367
27.3040247 ,Left ,72,8646671845335 ,43,1266321651115 ,67,8756431102989
27.3266805 ,Left ,72,8379103002992 ,43,1069028535015 ,67,93430678342
27.3416488 ,Left ,72,7698366473342 ,43,1906120321004 ,68,0279524256884
27.3715515 ,Left ,72,7035915121045 ,43,3277749983088 ,68,1232256847721
27.393843 ,Left ,72,7614291221884 ,43,430789781343 ,68,1887854923795
27.4166175 ,Left ,72,9022462166972 ,43,4577470532356 ,68,2392508203119
27.4314068 ,Left ,72,9626081012319 ,43,4802391686558 ,68,3149325633723
27.4466931 ,Left ,72,9503882062856 ,43,5089398549695 ,68,3949348607584
27.4692789 ,Left ,72,9620732080991 ,43,5304894921871 ,68,489659880256
27.4839913 ,Left ,73,0262177663663 ,43,5467191626183 ,68,577437003454
27.5064757 ,Left ,73,0668595734074 ,43,5704914517005 ,68,6585046422109
27.5292047 ,Left ,73,0511888600418 ,43,5946823730846 ,68,7157051259008
27.543957 ,Left ,73,0100880138847 ,43,5991976855636 ,68,7484954697836
27.5665438 ,Left ,72,9803174584341 ,43,5829809767259 ,68,7506393258053
27.58905 ,Left ,72,9571108565731 ,43,5653740808255 ,68,7364771042269
27.6039768 ,Left ,72,9420450647155 ,43,5760636709445 ,68,7209648230515
27.6265414 ,Left ,72,9219835026824 ,43,6057565343665 ,68,7120335555805
27.6491477 ,Left ,72,88741645852 ,43,6208169389925 ,68,7205742656593
27.6641769 ,Left ,72,7851453564788 ,43,6682373338455 ,68,7878399676671
27.6864273 ,Left ,72,7275615797215 ,43,7857608948258 ,68,8569291667447
27.7090891 ,Left ,72,7187295363665 ,43,9385354242763 ,68,8906091568147
27.723627 ,Left ,72,7847209303986 ,44,026937921725 ,68,9009725214308
27.746175 ,Left ,72,8830751838346 ,44,0370871834775 ,68,8930290519613
27.7686572 ,Left ,72,9334781875233 ,44,0122515565575 ,68,8771156797674
27.783703 ,Left ,72,9169621499246 ,44,0120626057787 ,68,8408903829844
27.8065199 ,Left ,72,9144978371363 ,43,9962806825246 ,68,7764161147048
27.8290539 ,Left ,72,9219345091808 ,43,9948415385461 ,68,7144402835467
27.8439365 ,Left ,72,9397021241547 ,44,0018877886479 ,68,6571189762948
27.8665684 ,Left ,72,9478467136741 ,44,0278355452544 ,68,6187105448398
27.8890638 ,Left ,72,948633480469 ,44,066316761138 ,68,5878273497867
27.903637 ,Left ,72,9498512145396 ,44,1014212859728 ,68,5543817260963
27.9263906 ,Left ,72,9453964040707 ,44,1369126639282 ,68,5154001115871
27.9489483 ,Left ,72,9280669971878 ,44,1814949480435 ,68,4680422148724
27.9638535 ,Left ,72,909344146092 ,44,2126733676889 ,68,4019717940188
27.9863197 ,Left ,72,8714972212871 ,44,227127350428 ,68,3279181421353
28.0088885 ,Left ,72,8310289615502 ,44,2301363313116 ,68,2539111314285
28.02358 ,Left ,72,7980314956437 ,44,2242455018917 ,68,1829549717514
28.0462212 ,Left ,72,7825509910373 ,44,1942549399243 ,68,109753078501
28.0687759 ,Left ,72,7498830536426 ,44,1538611241374 ,68,0486928751704
28.0839572 ,Left ,72,6904735822248 ,44,1013438105738 ,68,0049804293336
28.1065454 ,Left ,72,6020114253112 ,44,0619878042716 ,68,0162427624716
28.1291099 ,Left ,72,6104787285379 ,44,0526595680587 ,68,0325991925612
28.1438731 ,Left ,72,6697858660616 ,44,1235269638351 ,68,0185226328503
28.1665674 ,Left ,72,7587640367886 ,44,1540669532161 ,67,99376295161
28.1890167 ,Left ,72,8575552776852 ,44,1036832740389 ,67,9882598785808
28.2038776 ,Left ,72,9235353783103 ,44,0211931940194 ,67,9908505164055
28.2265027 ,Left ,72,9362310432688 ,43,9613001959087 ,67,987190577624
28.248971 ,Left ,72,959536824512 ,43,9111151909017 ,67,9716105476788
28.263915 ,Left ,73,0004411855885 ,43,8549382928598 ,67,9545270593273
28.2865634 ,Left ,73,0334600352211 ,43,8217464859631 ,67,9396758516714
28.3090856 ,Left ,73,0166764599539 ,43,8172471958194 ,67,9219970256816
28.3239125 ,Left ,72,999069538796 ,43,8028574504538 ,67,9131742194845
28.3463968 ,Left ,73,0252745901623 ,43,7431374508208 ,67,9150121319045
28.368958 ,Left ,73,0542905955536 ,43,6575258482276 ,67,9205739059978
28.391538 ,Left ,73,0601395308904 ,43,5735461399857 ,67,9183307322118
28.4065099 ,Left ,73,0012253362662 ,43,5019344206579 ,67,9152805617731
28.4291231 ,Left ,72,9453792869143 ,43,4052924196694 ,67,9246987379464
28.4513655 ,Left ,72,8680324995988 ,43,4008136107856 ,67,9862718447127
28.4664017 ,Left ,72,8428683994856 ,43,5344583143397 ,68,0355089250413
28.4889659 ,Left ,72,8273137141975 ,43,7203541626604 ,68,0725502353182
28.5115718 ,Left ,72,8517166754269 ,43,8336165406997 ,68,1073176529506
28.5265172 ,Left ,72,9132878113726 ,43,8584683258927 ,68,1148201187917
28.5489047 ,Left ,72,8997159534878 ,43,8526954896973 ,68,0973812896155
28.5714192 ,Left ,72,8294326082509 ,43,8227486916301 ,68,0751487594592
28.5863521 ,Left ,72,8204092085074 ,43,7166830412469 ,68,0597036543906
28.6088607 ,Left ,72,8727257399525 ,43,5752076211913 ,68,0392341101788
28.6312716 ,Left ,72,9088879267193 ,43,4799919923998 ,68,0228900954369
28.6462726 ,Left ,72,9016281403235 ,43,4145048043116 ,68,0179898623332
28.6690806 ,Left ,72,8753157912032 ,43,3448694804402 ,68,0235978998274
28.6913946 ,Left ,72,8586958938411 ,43,2832248957395 ,68,0435226822344
28.7062837 ,Left ,72,857797200435 ,43,241376473988 ,68,0685615498572
28.7287577 ,Left ,72,8586550703944 ,43,2391755019316 ,68,0919680243787
28.7516684 ,Left ,72,8510742270488 ,43,2476133323647 ,68,1067499028282
28.7661324 ,Left ,72,8547175091512 ,43,2307208072259 ,68,1118642188804
28.7889191 ,Left ,72,854731733395 ,43,2052939522343 ,68,108415545455
28.8111776 ,Left ,72,849556861266 ,43,1957939775535 ,68,0984619174223
28.8263899 ,Left ,72,839313364109 ,43,1777839145692 ,68,086574244987
28.848908 ,Left ,72,8422756042415 ,43,1543723950151 ,68,0788523402144
28.8714697 ,Left ,72,8604755009917 ,43,1292359763974 ,68,0755476177168
28.8863955 ,Left ,72,859408086209 ,43,0976776150926 ,68,0773153166499
28.9093017 ,Left ,72,8307600835357 ,43,0859988222448 ,68,074445984387
28.9318941 ,Left ,72,8101335813303 ,43,0727863122053 ,68,0662751362729
28.9464595 ,Left ,72,8184538465677 ,43,0475837496446 ,68,0555714516872
28.9688623 ,Left ,72,8354350888715 ,43,0135154289616 ,68,0514908948809
28.9914564 ,Left ,72,8469380506433 ,42,9928149006954 ,68,0529054755956
29.0063535 ,Left ,72,8453611903521 ,42,9803057006203 ,68,0562012117807
29.0290692 ,Left ,72,837447316152 ,42,9697321788938 ,68,0586968714742
29.0515597 ,Left ,72,8336399648571 ,42,9544459657229 ,68,0587969529346
29.0738791 ,Left ,72,8354603239912 ,42,933782619751 ,68,0638281547047
29.0961955 ,Left ,72,8342028300271 ,42,9151398630705 ,68,065708695953
29.126525 ,Left ,72,8357772943094 ,42,9092668836252 ,68,0686081355344
29.1489011 ,Left ,72,8398969270668 ,42,9045523254937 ,68,0661981289826
29.17143 ,Left ,72,8373209035919 ,42,9037318256468 ,68,0609853128373
29.186448 ,Left ,72,8251500438899 ,42,9092659637765 ,68,0502798565088
29.20885 ,Left ,72,8154681546673 ,42,9127953678985 ,68,0388280656188
29.2312702 ,Left ,72,813767958101 ,42,9168704057857 ,68,037970885312
29.2462953 ,Left ,72,8035509370901 ,42,9409816014595 ,68,0363320591699
29.2688298 ,Left ,72,7865598030061 ,42,9771820688341 ,68,0278380519809
29.2914621 ,Left ,72,7741346001987 ,43,0137017104552 ,68,0213509384
29.3064523 ,Left ,72,7732324254626 ,43,043396346002 ,68,0171585518277
29.3291515 ,Left ,72,7671486763068 ,43,0596168426705 ,68,0176824414453
29.3514429 ,Left ,72,7309155110521 ,43,0746594426237 ,68,0235992517693
29.3739335 ,Left ,72,6693847571828 ,43,11418356458 ,68,0331193866731
29.3890996 ,Left ,72,5955603378231 ,43,1783565174961 ,68,0228698198939
29.4113673 ,Left ,72,5129758551247 ,43,2442305570684 ,68,0598501384272
29.433798 ,Left ,72,461131671767 ,43,2912171294551 ,68,1382689460938
29.4489406 ,Left ,72,4174511278688 ,43,3693654668741 ,68,2024740380548
29.4714359 ,Left ,72,3689365208725 ,43,501862714868 ,68,2313217770082
29.4938182 ,Left ,72,3486619391538 ,43,5870562129106 ,68,2328467139154
29.5091108 ,Left ,72,3860233909123 ,43,5798072875976 ,68,2135337112523
29.5314245 ,Left ,72,47196215013 ,43,5300535205943 ,68,1784559343282
29.5544243 ,Left ,72,5736031962064 ,43,4689759594655 ,68,1258295670613
29.5689205 ,Left ,72,6339281878319 ,43,422803323088 ,68,0620079066475
29.5988815 ,Left ,72,6867494451703 ,43,3497669281052 ,68,0044330506361
29.6213473 ,Left ,72,7461361161033 ,43,2863585525921 ,67,9674905093979
29.6363714 ,Left ,72,8120623274824 ,43,235053774961 ,67,9392460393107
29.6516033 ,Left ,72,8744663136239 ,43,2074548446643 ,67,9257558300262
29.6739132 ,Left ,72,9198829800408 ,43,1811742855729 ,67,9210191959673
29.6888406 ,Left ,72,9300214275964 ,43,1506573929917 ,67,9134594448831
29.711485 ,Left ,72,9042263106393 ,43,0934044605955 ,67,9018007525501
29.733968 ,Left ,72,8698692129318 ,43,0306356913022 ,67,9217266131574
29.7489512 ,Left ,72,857774772678 ,42,9979523282719 ,67,9611866893075
29.7716247 ,Left ,72,8736479802141 ,43,0420039644413 ,67,982599040193
29.7940055 ,Left ,72,8898801923487 ,43,1004073570541 ,67,9770761733318
29.8091083 ,Left ,72,8938725711542 ,43,1250979618506 ,67,9636287723108
29.8315999 ,Left ,72,8930697287771 ,43,1393383640576 ,67,9432449049302
29.8539352 ,Left ,72,8801302569594 ,43,1655547941244 ,67,9211847795901
29.876615 ,Left ,72,8780334055672 ,43,1901961555855 ,67,9020022277566
29.8987811 ,Left ,72,8759603880411 ,43,1858124035337 ,67,8833371009546
29.929148 ,Left ,72,8819266798286 ,43,0840695752042 ,67,921157490433
29.9516273 ,Left ,72,8607118357033 ,43,1152513233304 ,67,992623163084
29.9736519 ,Left ,72,8373875155801 ,43,234912028316 ,68,0516864855634
29.9962332 ,Left ,72,8533501208342 ,43,3447534750203 ,68,1036046785693
30.0113133 ,Left ,72,9375764463431 ,43,4061336566965 ,68,1459199727379
30.0344094 ,Left ,72,9854521555956 ,43,4461363391187 ,68,2311451490043
30.0567254 ,Left ,72,9854042657812 ,43,5102773077246 ,68,3318727768797
30.0718123 ,Left ,73,0001118347345 ,43,5573118163371 ,68,4351646876614
30.0941184 ,Left ,73,0355470096145 ,43,5767692299298 ,68,5277573721584
30.1166773 ,Left ,73,0464383030187 ,43,5874193311814 ,68,6063324224566
30.1315739 ,Left ,73,0245744551559 ,43,6081246429701 ,68,6541431723724
30.1541888 ,Left ,72,9699395429595 ,43,6192247122803 ,68,6722269364425
30.1767042 ,Left ,72,9210893276945 ,43,6160566718916 ,68,6628583634311
30.1916653 ,Left ,72,8663405393562 ,43,6079181270789 ,68,6468255235912
30.2141042 ,Left ,72,809196433844 ,43,6060354690315 ,68,6495707067784
30.229043 ,Left ,72,7613976339071 ,43,6309160841341 ,68,6893524422049
30.2513317 ,Left ,72,7433856585074 ,43,7116677080651 ,68,7344348063629
30.273832 ,Left ,72,6997356606288 ,43,8749813669193 ,68,7586060036103
30.2961716 ,Left ,72,6757969426645 ,44,0265994119182 ,68,7993375961573
30.3114722 ,Left ,72,7383725239695 ,44,0837810972394 ,68,8354010995379
30.3338064 ,Left ,72,8099599591414 ,44,0816927619608 ,68,8477698855102
30.3566039 ,Left ,72,828734629236 ,44,0791743481278 ,68,8364392832147
30.3715489 ,Left ,72,8118628529782 ,44,0796623618199 ,68,7902462448345
30.3939061 ,Left ,72,8046577437267 ,44,0659649558857 ,68,7189755692387
30.4239304 ,Left ,72,8202700435736 ,44,0567223249688 ,68,654324962974
30.4388199 ,Left ,72,8393144014932 ,44,0640045695034 ,68,5839159885325
30.4612694 ,Left ,72,8374344432884 ,44,1027698941952 ,68,5134945457352
30.4912315 ,Left ,72,8321810654419 ,44,1835110663605 ,68,3896615572845
30.5138861 ,Left ,72,8372101644975 ,44,2049780248805 ,68,3330050278239
30.5363644 ,Left ,72,836425859343 ,44,2336574210461 ,68,2696665751328
30.551579 ,Left ,72,8219124151969 ,44,2583175810971 ,68,2042598227283
30.5739334 ,Left ,72,801387610395 ,44,2712129739924 ,68,1302485922074
30.5963945 ,Left ,72,7848913028055 ,44,2675016625397 ,68,0545542510138
30.6115458 ,Left ,72,7452719745454 ,44,2391075846727 ,67,9868996381054
30.6338952 ,Left ,72,6928586007654 ,44,2000653436394 ,67,9331278846745
30.6565927 ,Left ,72,6381994946608 ,44,1561951912606 ,67,8885709587705
30.6715293 ,Left ,72,5832937753817 ,44,100922718404 ,67,8657791265428
30.6939055 ,Left ,72,5547062167088 ,44,0539104448028 ,67,8809836691548
30.7163939 ,Left ,72,5805549978253 ,44,1008128011855 ,67,9023026624807
30.7312322 ,Left ,72,637780013317 ,44,189432142804 ,67,8953787959446
30.7539124 ,Left ,72,7338058446364 ,44,1957654003886 ,67,8875842171746
30.7764796 ,Left ,72,828139933224 ,44,1166696395302 ,67,8903353180947
30.7916077 ,Left ,72,8623343495471 ,44,0398862154662 ,67,8844908599902
30.8139049 ,Left ,72,8667276124553 ,43,9746524947521 ,67,8763493515893
30.8364929 ,Left ,72,891806634183 ,43,9029530222569 ,67,8571881732731
30.8514494 ,Left ,72,9391039477506 ,43,8366366358185 ,67,8338963845579
30.8738806 ,Left ,72,9772647316494 ,43,8026239165519 ,67,806262352189
30.8963979 ,Left ,72,979252155025 ,43,784853652058 ,67,7814756294595
30.9116091 ,Left ,72,9644804022706 ,43,7568002889686 ,67,7623059348476
30.9339526 ,Left ,72,9377877402385 ,43,7069788629432 ,67,758511795595
30.9564255 ,Left ,72,8869938413877 ,43,6324126716525 ,67,7596243813317
30.9714525 ,Left ,72,8232377905734 ,43,5293731519286 ,67,7744317783271
30.9938816 ,Left ,72,7487953484386 ,43,4286181739923 ,67,8125309109
31.0164356 ,Left ,72,695472697793 ,43,4602153287078 ,67,8605726895727
31.0387181 ,Left ,72,6263208099533 ,43,6394531991343 ,67,8882911719044
31.0536984 ,Left ,72,621360474924 ,43,8131579480658 ,67,9221413395843
31.0762963 ,Left ,72,7085152402 ,43,8716282375172 ,67,9527036075055
31.0989525 ,Left ,72,7683960670106 ,43,8720404852049 ,67,9628887124491
31.1137258 ,Left ,72,7180152063142 ,43,8671964934081 ,67,9562402423917
31.1362783 ,Left ,72,6531733038392 ,43,8173576408023 ,67,9449209102017
31.1587322 ,Left ,72,6749628653724 ,43,711982350018 ,67,9356379859371
31.1737151 ,Left ,72,753969284402 ,43,5864417267698 ,67,9283145697402
31.1962574 ,Left ,72,7998208271993 ,43,4892364395863 ,67,9210736361468
31.2189268 ,Left ,72,7844022769993 ,43,4187977805463 ,67,9196430281582
31.2339152 ,Left ,72,7515798435544 ,43,357930146134 ,67,9232728614268
31.2563954 ,Left ,72,7454617028854 ,43,2891464932514 ,67,9342888794914
31.2791273 ,Left ,72,7550321522253 ,43,2116992525268 ,67,9513142151881
31.2936529 ,Left ,72,7595138832577 ,43,1686376789424 ,67,9738909998527
31.3162712 ,Left ,72,7456079119741 ,43,1656365679822 ,67,9873751379672
31.3388826 ,Left ,72,7374042674251 ,43,1635692084155 ,67,9967454046758
31.353768 ,Left ,72,7489189702505 ,43,1326784821434 ,67,9931985220005
31.3765208 ,Left ,72,7461080105402 ,43,0719566830144 ,67,9915074312186
31.3988016 ,Left ,72,723942228411 ,43,0291398689564 ,67,9904708683696
31.4136916 ,Left ,72,7147033519066 ,43,0099133924407 ,67,9817935578793
31.4362555 ,Left ,72,7354871772115 ,42,991456227469 ,67,9671580028353
31.4586777 ,Left ,72,7657301635439 ,42,9652309129443 ,67,9495188109095
31.4739627 ,Left ,72,7768853088366 ,42,9353194428048 ,67,943104038903
31.4963559 ,Left ,72,7707935901394 ,42,906759281715 ,67,9456837414718
31.5190568 ,Left ,72,764899335571 ,42,8828192687765 ,67,9522043085751
31.5339689 ,Left ,72,769528962797 ,42,8679407968467 ,67,9558696618763
31.5566107 ,Left ,72,7861697877642 ,42,8547778345471 ,67,9510986073917
31.5789584 ,Left ,72,8046258055482 ,42,8406882794715 ,67,9426287387703
31.5939726 ,Left ,72,8044385913671 ,42,8402570274783 ,67,9421505021632
31.6164348 ,Left ,72,7989002892296 ,42,8384029088224 ,67,9493309929362
31.6388593 ,Left ,72,7902224062678 ,42,8511294404332 ,67,9566539785117
31.6539386 ,Left ,72,7878886193284 ,42,8744660531256 ,67,9680777773661
31.6764873 ,Left ,72,7966974027543 ,42,9043248270812 ,67,9711259191725
31.6990504 ,Left ,72,8042626798072 ,42,9297319701744 ,67,9664313079985
31.7138623 ,Left ,72,8009735777715 ,42,9351631900953 ,67,969741834879
31.7363252 ,Left ,72,770740868917 ,42,9593173797131 ,67,9714475064209
31.7587086 ,Left ,72,7150536738506 ,42,9972027864488 ,67,9714487702383
31.7737247 ,Left ,72,666153380656 ,43,0560773838739 ,67,9699186477622
31.79631 ,Left ,72,6429331060523 ,43,0998381668992 ,67,9725847623884
31.826492 ,Left ,72,5877648657515 ,43,1564139502244 ,68,0125688934894
31.8414879 ,Left ,72,5570854203229 ,43,2084424953409 ,68,0577382635787
31.8636794 ,Left ,72,5304913913701 ,43,2884565142622 ,68,0743142475665
31.8788006 ,Left ,72,518261846217 ,43,3812058741798 ,68,054070876994
31.9012881 ,Left ,72,5493624344278 ,43,4289592964665 ,68,0068521590928
31.9166534 ,Left ,72,6109239333301 ,43,4174978976849 ,67,9542929600254
31.9391565 ,Left ,72,6853431838669 ,43,4117088515468 ,67,8901153489797
31.9616408 ,Left ,72,748143710934 ,43,3902201568458 ,67,8153825659782
31.9765246 ,Left ,72,8030340758426 ,43,346507011273 ,67,768057938328
31.9992664 ,Left ,72,8592515802218 ,43,2936651406268 ,67,7343434314977
32.0140838 ,Left ,72,8956360631618 ,43,2476074771663 ,67,7234205436659
32.0363574 ,Left ,72,9076565112479 ,43,2214479158511 ,67,7235288586791
32.0587657 ,Left ,72,9282337853095 ,43,1889034009197 ,67,7355779113549
32.0737985 ,Left ,72,9515427928257 ,43,117353176731 ,67,7690709578154
32.0962073 ,Left ,72,9595938777538 ,43,0676327129587 ,67,8083716900171
32.1188722 ,Left ,72,8853804786366 ,43,1383413104161 ,67,8009434862541
32.1415601 ,Left ,72,7865149526189 ,43,2201934273437 ,67,7972046477475
32.1564822 ,Left ,72,7874857517394 ,43,2365342057717 ,67,7970966506949
32.1788747 ,Left ,72,831380416461 ,43,2478251597765 ,67,7771060845877
32.2013926 ,Left ,72,8476245672714 ,43,2471610479526 ,67,7650096119547
32.2163702 ,Left ,72,8511894562753 ,43,2474086600746 ,67,7453659509733
32.2389629 ,Left ,72,8476342160862 ,43,2263193437112 ,67,7264260925308
32.2615932 ,Left ,72,8622407762749 ,43,1778069909621 ,67,7158812185096
32.2766085 ,Left ,72,8614571432554 ,43,1686002514204 ,67,7643993045059
32.2990558 ,Left ,72,8321560777115 ,43,2482843316554 ,67,8448235350053
32.3215123 ,Left ,72,7943296609036 ,43,3655010564171 ,67,8966033490956
32.3366599 ,Left ,72,8192582065502 ,43,4297472965564 ,67,9316234707196
32.3589372 ,Left ,72,8899769211826 ,43,4349701647537 ,67,9705038473436
32.3812418 ,Left ,72,9258755065912 ,43,4605762039754 ,68,038025722299
32.3962482 ,Left ,72,9616313844172 ,43,4876808241062 ,68,1283982665757
32.419043 ,Left ,73,0085671676881 ,43,5122855916073 ,68,2288730464385
32.4414504 ,Left ,73,0399989632468 ,43,5363194244446 ,68,3265991246832
32.4563465 ,Left ,73,0295889598612 ,43,5555016876764 ,68,395924443976
32.4789617 ,Left ,72,9881217022938 ,43,5689809080731 ,68,4256905477385
32.5015067 ,Left ,72,930280197045 ,43,5714828859348 ,68,4214073798588
32.5163535 ,Left ,72,8710732189416 ,43,5700182930437 ,68,4097902036029
32.5391482 ,Left ,72,8067885184565 ,43,5605525661655 ,68,4038253320987
32.5614564 ,Left ,72,7343100617439 ,43,5711334109591 ,68,4290846149007
32.5766435 ,Left ,72,6726184940193 ,43,6365696900521 ,68,4862476845607
32.59906 ,Left ,72,6073358563527 ,43,7805533522649 ,68,5566172420684
32.6216122 ,Left ,72,597500731761 ,43,8918061565352 ,68,629823590871
32.6365965 ,Left ,72,6444357613403 ,43,9277955488706 ,68,6759158543809
32.6590283 ,Left ,72,6714269459137 ,43,9234150885831 ,68,6873424605746
32.6814797 ,Left ,72,6482198392765 ,43,91299205964 ,68,654718431809
32.6964207 ,Left ,72,6309395399574 ,43,9086897263534 ,68,5945283930817
32.718998 ,Left ,72,6584408028017 ,43,9236430485159 ,68,5234872255756
32.7415909 ,Left ,72,7086744337086 ,43,966640451017 ,68,4537561089577
32.7565619 ,Left ,72,7366504409584 ,44,0295137406103 ,68,3881645796698
32.7789678 ,Left ,72,7430819498025 ,44,0987416206596 ,68,3297949432345
32.8013009 ,Left ,72,7460003980063 ,44,1657045414117 ,68,2753894100914
32.8165352 ,Left ,72,757535429539 ,44,2199994211035 ,68,2248243227455
32.83903 ,Left ,72,7684364713649 ,44,2592961135881 ,68,1756043401565
32.8614899 ,Left ,72,7608484813475 ,44,2845979031275 ,68,1244820401053
32.8764395 ,Left ,72,7375932967315 ,44,303927906927 ,68,068882829861
32.8986925 ,Left ,72,7023272957559 ,44,3028684914852 ,68,0088356572654
32.9212501 ,Left ,72,6670764903639 ,44,2784956551972 ,67,9536422300429
32.9363617 ,Left ,72,6303586771553 ,44,2421318092534 ,67,9018421042584
32.9587898 ,Left ,72,5954680345664 ,44,1924980405284 ,67,8537669122089
32.9814045 ,Left ,72,5386920967616 ,44,1120201683525 ,67,8062399612101
32.9962885 ,Left ,72,464661974617 ,44,0198947781495 ,67,7910100166121
33.0187209 ,Left ,72,4066042923051 ,43,9732665576649 ,67,8094143890304
33.0413911 ,Left ,72,4182326282578 ,44,0152348724716 ,67,8274697750537
33.0564221 ,Left ,72,4859639168346 ,44,0640639070846 ,67,8318571834979
33.0790338 ,Left ,72,5835357829474 ,44,0062776309741 ,67,842719644922
33.1015689 ,Left ,72,6568951433438 ,43,9366904214024 ,67,8585001551651
33.1165111 ,Left ,72,6726068779981 ,43,8653144982052 ,67,8607012584852
33.139073 ,Left ,72,6844576985552 ,43,8018238407889 ,67,850709538671
33.1615288 ,Left ,72,7254711126337 ,43,7487619431786 ,67,8294277764234
33.1839963 ,Left ,72,7810988372002 ,43,6939018356418 ,67,8121426634384
33.1989499 ,Left ,72,8248360264786 ,43,6455352638117 ,67,7990095309886
33.2215002 ,Left ,72,8379224058584 ,43,6005429726803 ,67,7838022821915
33.2439826 ,Left ,72,8363932499765 ,43,5540627846644 ,67,7582017338912
33.2588921 ,Left ,72,827879699397 ,43,5055625512295 ,67,7352910995697
33.2814573 ,Left ,72,8196930244481 ,43,4598359531219 ,67,7183916683076
33.3037051 ,Left ,72,7907263484717 ,43,3969670822082 ,67,7144164922078
33.3191297 ,Left ,72,725382972624 ,43,3037707898433 ,67,7386659125187
33.3415642 ,Left ,72,621990205964 ,43,2379537937033 ,67,8039513948404
33.363814 ,Left ,72,536746444423 ,43,2963245202656 ,67,8729189709457
33.3788736 ,Left ,72,5010756663355 ,43,4686265469966 ,67,9165107313095
33.4013751 ,Left ,72,5372454558824 ,43,6173249762837 ,67,9577006330662
33.4238484 ,Left ,72,6266610383102 ,43,6762463589747 ,67,9847898586755
33.4389052 ,Left ,72,6591316616041 ,43,6967347115402 ,67,9690559823185
33.4615561 ,Left ,72,6086725637121 ,43,6920683229394 ,67,9352881667575
33.4838165 ,Left ,72,5463283626704 ,43,6390707606913 ,67,9061011312193
33.498905 ,Left ,72,5669138763021 ,43,5444340000702 ,67,8780084927761
33.521393 ,Left ,72,6251458841735 ,43,4493582998732 ,67,8461128677238
33.5438881 ,Left ,72,6449299540207 ,43,3828518605001 ,67,8301510831393
33.5590586 ,Left ,72,6207411171588 ,43,3243240381962 ,67,825443667129
33.5815057 ,Left ,72,5951621451452 ,43,2572658008965 ,67,8379527868371
33.6038479 ,Left ,72,5879581567774 ,43,1848052123012 ,67,8600637725938
33.6191103 ,Left ,72,5912715106355 ,43,111709894326 ,67,8821918473893
33.6411806 ,Left ,72,6078179765617 ,43,0599182566743 ,67,9021936816371
33.6638222 ,Left ,72,6089704029294 ,43,0628710313438 ,67,9015268512692
33.6790234 ,Left ,72,5882055654309 ,43,0938526061259 ,67,8981196449497
33.701416 ,Left ,72,5900320196838 ,43,091336694436 ,67,9073646879771
33.7236802 ,Left ,72,5846817544284 ,43,0622475844028 ,67,9133427251552
33.738977 ,Left ,72,5575120820798 ,43,0448870918962 ,67,9103895577934
33.7612768 ,Left ,72,5526414374451 ,43,0311721234579 ,67,8869155059959
33.7839288 ,Left ,72,563006218771 ,43,0027539035486 ,67,8568795776449
33.799013 ,Left ,72,5957783561142 ,42,9891664805209 ,67,8293281875508
33.8216674 ,Left ,72,6255824060242 ,42,9843383244971 ,67,811443208637
33.8439363 ,Left ,72,6350872929283 ,42,9783940513559 ,67,8064041648484
33.8591382 ,Left ,72,647678238443 ,42,9621321219339 ,67,8046055169121
33.881542 ,Left ,72,6643661524869 ,42,9338465679139 ,67,801506786896
33.9039123 ,Left ,72,6815225426653 ,42,9137550489255 ,67,7982351805799
33.9187876 ,Left ,72,6886722817656 ,42,8927494008335 ,67,7976813388862
33.9414676 ,Left ,72,6829368758282 ,42,8748128029594 ,67,8055801649281
33.9637615 ,Left ,72,6803250346954 ,42,8650712503973 ,67,8214297581238
33.9787589 ,Left ,72,6871079500631 ,42,8629879793056 ,67,8434672299161
34.0015418 ,Left ,72,6966187553148 ,42,877886957818 ,67,8698926313563
34.02388 ,Left ,72,7108781417361 ,42,9025626145743 ,67,8846578231154
34.0391703 ,Left ,72,720932601765 ,42,9230364098525 ,67,8945991703608
34.0616315 ,Left ,72,7207354047783 ,42,9351315455502 ,67,8974439941173
34.0839381 ,Left ,72,7012926845756 ,42,9464969729298 ,67,8961061338214
34.1063931 ,Left ,72,6698008205013 ,42,9600631722499 ,67,8887492391052
34.1215624 ,Left ,72,620480556298 ,42,9801841440407 ,67,8909002597277
34.1438433 ,Left ,72,5815416028884 ,43,0086877349585 ,67,9001195276028
34.1666022 ,Left ,72,5627896044282 ,43,0516827058091 ,67,8967810792366
34.1815598 ,Left ,72,5440786605825 ,43,1053198239968 ,67,916074144391
34.2039053 ,Left ,72,5167968655757 ,43,1610005863568 ,67,9373723899256
34.2265329 ,Left ,72,4790459104357 ,43,2271064896724 ,67,963244735362
34.2487833 ,Left ,72,4342463640495 ,43,3288475699421 ,67,9662880851938
34.2714404 ,Left ,72,4377642100262 ,43,4138303140505 ,67,9528196518431
34.2939059 ,Left ,72,6059379824001 ,43,4399158458723 ,67,900924560742
34.3163229 ,Left ,72,6851850207304 ,43,4402980171093 ,67,8506948760641
34.353867 ,Left ,72,7473851160947 ,43,3866223869857 ,67,7631566886893
34.3763188 ,Left ,72,7829355516546 ,43,3386639603904 ,67,7434823714968
34.4140449 ,Left ,72,7954608041271 ,43,2571951674413 ,67,7152953432952
34.436583 ,Left ,72,8158667898181 ,43,2017941384575 ,67,7011806332758
34.4738877 ,Left ,72,7954009902167 ,43,102493784382 ,67,7307389859668
34.4965021 ,Left ,72,7326800466704 ,43,1499231913504 ,67,7647615996303
34.5193344 ,Left ,72,6604279828559 ,43,2544514100722 ,67,8000685101595
34.5338015 ,Left ,72,6623932786681 ,43,3199915923707 ,67,830290125479
34.5566692 ,Left ,72,7245211958244 ,43,341074584727 ,67,8463709653571
34.57925 ,Left ,72,7453881136472 ,43,3618320755659 ,67,836322594507
34.5938203 ,Left ,72,7288703454376 ,43,3536591075701 ,67,812837770158
34.616575 ,Left ,72,7058091680637 ,43,3267130401682 ,67,767891587264
34.6542686 ,Left ,72,7073980748974 ,43,2063801469391 ,67,7249605851036
34.6770162 ,Left ,72,7240235519227 ,43,1937271037299 ,67,7872910286028
34.6988641 ,Left ,72,7321635676571 ,43,2903657828948 ,67,8598865048174
34.7136733 ,Left ,72,7500050974945 ,43,4134496773885 ,67,9196107201269
34.7361997 ,Left ,72,8131922416851 ,43,4965259905348 ,67,9639708651105
34.7586504 ,Left ,72,8516246292906 ,43,54388320682 ,68,0362945471746
34.7735799 ,Left ,72,8451156982777 ,43,6056467636656 ,68,1172032731173
34.7962458 ,Left ,72,8417867436827 ,43,6463559900471 ,68,1958453499272
34.8188399 ,Left ,72,8491701549974 ,43,6600453430524 ,68,2739433742737
34.8335943 ,Left ,72,8595921736059 ,43,6469606158924 ,68,3416640944116
34.8561947 ,Left ,72,8440195653514 ,43,6510200324796 ,68,3847366045485
34.8787307 ,Left ,72,7981747455584 ,43,6694885782746 ,68,3953947761266
34.8936319 ,Left ,72,7478684871524 ,43,6809982693875 ,68,3877339334117
34.9162559 ,Left ,72,6900889934396 ,43,6830129645964 ,68,3728185243716
34.9539117 ,Left ,72,597625536862 ,43,7335428343469 ,68,4506024035443
34.9764752 ,Left ,72,5909167403183 ,43,8905325508944 ,68,5065634385056
34.9989247 ,Left ,72,6094531591062 ,44,0565235205601 ,68,5492875440904
35.0363653 ,Left ,72,6803670675842 ,44,1828912210057 ,68,5826405386292
35.0585986 ,Left ,72,6665998067431 ,44,2117115114516 ,68,5621280067091
35.0737714 ,Left ,72,6549696433021 ,44,2388287597894 ,68,4994421157822
35.0962624 ,Left ,72,6628726519956 ,44,2641908434388 ,68,4195404050237
35.118871 ,Left ,72,6829445528559 ,44,2956284884479 ,68,3362161835529
35.1340108 ,Left ,72,6912346999466 ,44,3392646111865 ,68,2583950476862
35.1567021 ,Left ,72,7099888811336 ,44,377771715691 ,68,1879323293057
35.1790031 ,Left ,72,731231821536 ,44,3982542846195 ,68,1210392994852
35.1938413 ,Left ,72,7336764541345 ,44,4129589162827 ,68,0587244352512
35.2165681 ,Left ,72,7130771719988 ,44,4188302085804 ,67,993367306473
35.2390345 ,Left ,72,6864890720635 ,44,3976795074293 ,67,9306409980168
35.2538452 ,Left ,72,6566311296885 ,44,3436710299133 ,67,8770140623671
35.2761259 ,Left ,72,6131299833361 ,44,2624631030794 ,67,823022950735
35.2987612 ,Left ,72,5423929994158 ,44,1926299279692 ,67,7785178343061
35.3136644 ,Left ,72,4437468332333 ,44,1473904535712 ,67,7781266218035
35.336404 ,Left ,72,4065174378054 ,44,1489333717573 ,67,8024409852293
35.3590889 ,Left ,72,4282739185685 ,44,2038096482488 ,67,8113764210316
35.3738851 ,Left ,72,4986418624366 ,44,2058741769192 ,67,8063800812525
35.3964591 ,Left ,72,6011125913087 ,44,1225753713334 ,67,7948265909701
35.4191228 ,Left ,72,6690990632373 ,44,0495702302302 ,67,7848992093318
35.4338627 ,Left ,72,6879641577996 ,43,9789189909039 ,67,7679271916733
35.4561434 ,Left ,72,7117491475837 ,43,9256306144779 ,67,7397201708998
35.478705 ,Left ,72,7347990718609 ,43,896622824683 ,67,7037937867516
35.5163051 ,Left ,72,7934467096165 ,43,8093593056376 ,67,6292304099975
35.5389532 ,Left ,72,8035767105958 ,43,7392048098947 ,67,6019476968173
35.5766584 ,Left ,72,7210332220605 ,43,5827832172533 ,67,5892986314222
35.5989267 ,Left ,72,6796688451093 ,43,4868749438669 ,67,6053324056898
35.6363159 ,Left ,72,6198945788178 ,43,4063704534908 ,67,7113076312664
35.6589129 ,Left ,72,5609005512433 ,43,604861610329 ,67,7520826954552
35.6963381 ,Left ,72,6265621922579 ,43,8269144289571 ,67,8284030731834
35.7190255 ,Left ,72,6855759020056 ,43,8335517358249 ,67,8290256728842
35.7565836 ,Left ,72,5879649660346 ,43,8151358681808 ,67,7970241456912
35.7792379 ,Left ,72,6054825244218 ,43,7211865033694 ,67,7780297223457
35.8163558 ,Left ,72,6712861235571 ,43,5444838136765 ,67,7296174196439
35.8390305 ,Left ,72,6612854050724 ,43,4820829837136 ,67,7125693664063
35.8766389 ,Left ,72,64157763591 ,43,3472443947332 ,67,708920581403
35.8989759 ,Left ,72,6508742235688 ,43,2649902709138 ,67,7212722069642
35.9365115 ,Left ,72,6945834052922 ,43,138702988778 ,67,7627251606018
35.9586657 ,Left ,72,6896044401798 ,43,1354070206665 ,67,772189836154
35.9962042 ,Left ,72,6836710430658 ,43,1253820883809 ,67,7793610876758
36.0187056 ,Left ,72,6754664152275 ,43,0911450855032 ,67,793923420915
36.0563167 ,Left ,72,6305458643302 ,43,04364096892 ,67,81254946291
36.079188 ,Left ,72,6369587962379 ,43,0100749322305 ,67,7978480014413
36.1164004 ,Left ,72,6632989286179 ,42,9381561561389 ,67,772867906609
36.1391068 ,Left ,72,6665774460509 ,42,9068445711396 ,67,7660150100677
36.1764033 ,Left ,72,6658810857689 ,42,8519844147082 ,67,7595466293509
36.1989656 ,Left ,72,6632381503539 ,42,8378473113338 ,67,7610887567619
36.2363589 ,Left ,72,6665211446757 ,42,7963263496099 ,67,7777944090589
36.2591396 ,Left ,72,6752046518813 ,42,7922393150963 ,67,7881875543835
36.2962725 ,Left ,72,655780921445 ,42,8311834935509 ,67,8097301334603
36.3189174 ,Left ,72,65697185693 ,42,8644676784659 ,67,8268277395189
36.3565878 ,Left ,72,6634129489149 ,42,9252937617279 ,67,8508482564261
36.3791839 ,Left ,72,6328753902347 ,42,9481673548183 ,67,8621336173049
36.4164507 ,Left ,72,51058371945 ,43,0038483456 ,67,9059050146943
36.4391406 ,Left ,72,4830040517892 ,43,0404001289641 ,67,9150724179261
36.4766028 ,Left ,72,3652472635007 ,43,2060458766506 ,68,0166316311172
36.4989197 ,Left ,72,2923462050848 ,43,297750024834 ,68,0599504956204
36.5365706 ,Left ,72,2775987573047 ,43,4743656961285 ,68,0636599294847
36.5591524 ,Left ,72,3625937139089 ,43,4853708021606 ,68,0347471404824
36.5964933 ,Left ,72,5080587065845 ,43,4522100947279 ,67,9301097616617
36.6188895 ,Left ,72,5726400855969 ,43,4218192649042 ,67,8457712618666
36.6564341 ,Left ,72,7051170835074 ,43,3115147479791 ,67,7585939959145
36.6790148 ,Left ,72,7383087503944 ,43,2615295624392 ,67,7259132524625
36.7162824 ,Left ,72,7516579745069 ,43,1870337158566 ,67,6900195390825
36.7388843 ,Left ,72,778327390094 ,43,1162735978698 ,67,6936020854805
36.7764003 ,Left ,72,746201445111 ,43,0803231950057 ,67,7507477557589
36.79887 ,Left ,72,6560718944135 ,43,1734109880103 ,67,7738176872248
36.8213986 ,Left ,72,6340849541235 ,43,2280693719845 ,67,7932702948274
36.8592011 ,Left ,72,74663520281 ,43,2885259156565 ,67,7689058323661
36.8815 ,Left ,72,7579866761529 ,43,3100139413314 ,67,75243579393
36.9189234 ,Left ,72,7077925016973 ,43,2907557855864 ,67,7179134755962
36.9564197 ,Left ,72,669163227199 ,43,2366083948793 ,67,7045458747585
36.9791595 ,Left ,72,6440610176814 ,43,2474705953622 ,67,7742969073652
37.0015046 ,Left ,72,6437575837061 ,43,3088648171001 ,67,8422147959317
37.0391637 ,Left ,72,7173116135263 ,43,4622108337506 ,67,9335281551711
37.0616204 ,Left ,72,749468264209 ,43,4776093449886 ,67,9973080231854
37.0988856 ,Left ,72,7423643395957 ,43,5473625650609 ,68,1650834512055
37.1216019 ,Left ,72,7851131394939 ,43,5659262320565 ,68,2647342158221
37.1588312 ,Left ,72,801085187545 ,43,6283794486268 ,68,4048129669429
37.1813914 ,Left ,72,7147090161621 ,43,6622471743461 ,68,4257358265894
37.2187853 ,Left ,72,5926271306201 ,43,7175665884045 ,68,4249135820713
37.256272 ,Left ,72,5763301759735 ,43,7225625231948 ,68,464554527233
37.2790169 ,Left ,72,5548038446925 ,43,8516783071082 ,68,5052773858063
37.3012624 ,Left ,72,5373781041984 ,43,9893210890093 ,68,5581902693941
37.3389831 ,Left ,72,600609545822 ,44,0840781494168 ,68,6068045636084
37.3615962 ,Left ,72,6267695293409 ,44,1240313599645 ,68,5913930120913
37.3988395 ,Left ,72,6623851865319 ,44,1680180003463 ,68,4858433417416
37.4366163 ,Left ,72,6692495536954 ,44,2574703292827 ,68,3784283664103
37.4589253 ,Left ,72,6540037846618 ,44,3078098416061 ,68,3340697830657
37.4965513 ,Left ,72,698920858862 ,44,3707234816411 ,68,2360373894126
37.5190172 ,Left ,72,712014711214 ,44,3899479497091 ,68,1680094450561
37.5561569 ,Left ,72,654920582887 ,44,3970788255369 ,68,030053602382
37.5788207 ,Left ,72,6226753254562 ,44,3816530361636 ,67,9630573557722
37.6162557 ,Left ,72,5822176444109 ,44,2680509485628 ,67,8324466439633
37.6463836 ,Left ,72,5331744014216 ,44,1651686449221 ,67,7829960900667
37.6693026 ,Left ,72,4695153031786 ,44,0321264786818 ,67,7517219369726
37.7214722 ,Left ,72,3371170440504 ,43,962801053991 ,67,7204459639243
37.7592529 ,Left ,72,5223587683956 ,44,0647974703326 ,67,7032284615213
37.7815414 ,Left ,72,6421009072954 ,44,0734725305915 ,67,7017648155889
37.8192715 ,Left ,72,6629988845461 ,44,0655399333949 ,67,6690721793318
37.8417465 ,Left ,72,6503679659906 ,44,0098905006481 ,67,6556660246704
37.8790349 ,Left ,72,7065242036462 ,43,8621729889302 ,67,6298715505298
37.9015375 ,Left ,72,7182587691213 ,43,776260397742 ,67,6110253816307
37.9387225 ,Left ,72,6481654143337 ,43,5696562948841 ,67,5584740605751
37.9615515 ,Left ,72,5822656155286 ,43,4558851941307 ,67,530605831254
37.9915444 ,Left ,72,3949057964526 ,43,3758809861232 ,67,6573411621449
38.0139792 ,Left ,72,3691484060884 ,43,5442357773879 ,67,72552143846
