timestamp,event,roll,pitch,yaw
0.0174311 ,Left ,56,998064748924 ,46,1102932858381 ,74,5367868596102
0.040258 ,Left ,56,9780514212402 ,46,1562478409132 ,74,5541479018992
0.0551371 ,Left ,56,9623877728116 ,46,1956208624469 ,74,5626145428784
0.0775859 ,Left ,56,9460326520288 ,46,2276845700807 ,74,5730699205086
0.1004145 ,Left ,56,9434327789695 ,46,2502056308703 ,74,5867506000444
0.1153841 ,Left ,56,9441545678767 ,46,2732893245614 ,74,5979587305226
0.1375716 ,Left ,56,9380189472402 ,46,2985713539583 ,74,6058606147405
0.1600355 ,Left ,56,925329200346 ,46,3176999902314 ,74,6095604716817
0.175334 ,Left ,56,922763760286 ,46,3318521123066 ,74,6165931197035
0.197672 ,Left ,56,9194762861245 ,46,3402413243541 ,74,6171897134662
0.220081 ,Left ,56,9070585291387 ,46,3476798081448 ,74,6224914647634
0.2275581 ,Left ,56,8912585698114 ,46,3568375437437 ,74,6333677188191
0.2508204 ,Left ,56,8767412027012 ,46,3696315272896 ,74,6476220258579
0.2882536 ,Left ,56,8306627764366 ,46,3956501735254 ,74,6802335226931
0.3102286 ,Left ,56,807517004501 ,46,4148073638928 ,74,691438541806
0.3481567 ,Left ,56,7430050535699 ,46,4446821514696 ,74,7282895985847
0.3709811 ,Left ,56,7128135810833 ,46,4583118280541 ,74,7525495524827
0.4082879 ,Left ,56,6555973649579 ,46,4873958073089 ,74,8130856473136
0.4309552 ,Left ,56,6340602462965 ,46,4952404586322 ,74,8376443892263
0.4678119 ,Left ,56,5580055228152 ,46,4985639118811 ,74,87638756599
0.4904049 ,Left ,56,5382467631459 ,46,5061767339113 ,74,8895716049604
0.5282928 ,Left ,56,5421671170106 ,46,573537289356 ,74,8969219214168
0.5509684 ,Left ,56,5498031609132 ,46,6243270652315 ,74,8971923500252
0.5882833 ,Left ,56,4920689765787 ,46,704660056665 ,74,9025857311334
0.6104155 ,Left ,56,5261211568749 ,46,7561619253224 ,74,9030620915578
0.6478025 ,Left ,56,6029116691161 ,46,7265979298629 ,74,9023569639345
0.670508 ,Left ,56,6757551138657 ,46,6970185952024 ,74,9156511299428
0.7152088 ,Left ,56,6082162451326 ,46,6860785286705 ,74,8726231579493
0.7677879 ,Left ,56,4656546105198 ,46,6437818942187 ,74,7272863800472
0.7901217 ,Left ,56,4167076837937 ,46,5964334758672 ,74,671981055964
0.8277477 ,Left ,56,4723242600236 ,46,6050071284011 ,74,655339760692
0.8509088 ,Left ,56,5021558679407 ,46,6300938243353 ,74,6266864189954
0.8883008 ,Left ,56,6378445742467 ,46,7340662443574 ,74,6233935365435
0.9106111 ,Left ,56,5563826074865 ,46,8176117097927 ,74,5645185701397
0.9478131 ,Left ,56,5762423567335 ,46,9286710968979 ,74,5653119897353
0.9705596 ,Left ,56,624770616511 ,47,0184935091972 ,74,5729783865396
1.0075648 ,Left ,56,7401358556444 ,47,2928341328942 ,74,5200167435129
1.0302616 ,Left ,56,8542911771558 ,47,3811356289428 ,74,5214293207826
1.0677894 ,Left ,56,716667488689 ,47,5353450734411 ,74,5080437463771
1.0904967 ,Left ,56,6070972499925 ,47,5688537809262 ,74,5434946262123
1.1280649 ,Left ,56,4207031450639 ,47,4809946192922 ,74,499866050725
1.1504869 ,Left ,56,3305333844831 ,47,4161271873175 ,74,458472210122
1.1883459 ,Left ,56,260439301204 ,47,3813616109154 ,74,3845123894426
1.2106429 ,Left ,56,2549372490727 ,47,3499495542206 ,74,3520705568392
1.2480662 ,Left ,56,0773126440208 ,47,3580440656041 ,74,32011472798
1.2703627 ,Left ,56,0162643708976 ,47,4038114739869 ,74,2772379992778
1.3079336 ,Left ,56,1334515392513 ,47,4474287051781 ,74,2807502512534
1.3304729 ,Left ,56,2948970754292 ,47,4105453665516 ,74,3163491118359
1.3678495 ,Left ,56,4235692635857 ,47,3076806635888 ,74,3684979564064
1.3907114 ,Left ,56,4334261754866 ,47,2237077578302 ,74,3732282877559
1.4279592 ,Left ,56,4489592519028 ,47,0391239935918 ,74,4146314838274
1.4503589 ,Left ,56,4198805716795 ,46,9651923926063 ,74,4114479116296
1.4878623 ,Left ,56,4965893935931 ,46,8885342251816 ,74,3654433810166
1.5101967 ,Left ,56,558028509164 ,46,8564462187417 ,74,3567970709693
1.5478081 ,Left ,56,5918563702516 ,46,8304118098587 ,74,3798770286545
1.5701811 ,Left ,56,5969278586911 ,46,8276428635582 ,74,3998695797251
1.6078447 ,Left ,56,6252714007867 ,46,8260839653144 ,74,4139799283987
1.6304096 ,Left ,56,6241042198124 ,46,8323222765173 ,74,4032835658326
1.6676674 ,Left ,56,6458098821735 ,46,8652052461749 ,74,3614299803067
1.690474 ,Left ,56,6683990879371 ,46,8502387137812 ,74,3648878603308
1.7278355 ,Left ,56,7049136791603 ,46,8502268616253 ,74,385782675171
1.7505151 ,Left ,56,6916543486778 ,46,9033240344156 ,74,368171367459
1.7959137 ,Left ,56,7623345753035 ,46,9904635846608 ,74,3558978010226
1.8182545 ,Left ,56,799442560439 ,47,0026411460854 ,74,3786861389654
1.8706235 ,Left ,56,7615651257124 ,47,0728418791912 ,74,3946003463999
1.9001856 ,Left ,56,7724356139286 ,47,0663270343316 ,74,3978752658285
1.9303198 ,Left ,56,7919734041951 ,47,0625179139901 ,74,4025129052862
1.9678715 ,Left ,56,7881276908724 ,47,0867515103662 ,74,3882647991043
1.9900646 ,Left ,56,7911121919987 ,47,1022627633879 ,74,3821741666177
2.0277198 ,Left ,56,8146780128284 ,47,1262319388618 ,74,3881867369351
2.0500458 ,Left ,56,8307830159003 ,47,142366326117 ,74,3922890151275
2.0876609 ,Left ,56,8497070107798 ,47,1811645260293 ,74,4026610645906
2.1102644 ,Left ,56,854578951357 ,47,1825296152946 ,74,4091082352608
2.1251784 ,Left ,56,8525367874401 ,47,1827101881 ,74,4145367099896
2.140431 ,Left ,56,8702588466937 ,47,1785247559254 ,74,4076974946764
2.1626052 ,Left ,56,8916576905731 ,47,1794289820866 ,74,3907118561658
2.1853816 ,Left ,56,9024973827661 ,47,1795865521309 ,74,3638555388315
2.2002838 ,Left ,56,8909353118869 ,47,1942257368836 ,74,316470732957
2.2225563 ,Left ,56,8788771925195 ,47,2253292639584 ,74,251714685611
2.2451281 ,Left ,56,8569278091981 ,47,2694526904413 ,74,1905532535792
2.2604876 ,Left ,56,8190103103934 ,47,3101405802164 ,74,1383224276179
2.2833415 ,Left ,56,7871890796517 ,47,3656676971921 ,74,0890844214998
2.305863 ,Left ,56,7638355384233 ,47,439627119062 ,74,0380959728615
2.3210266 ,Left ,56,6822126782499 ,47,5208845348699 ,73,9755891199688
2.343013 ,Left ,56,593678450485 ,47,596824137572 ,73,89516706838
2.3654576 ,Left ,56,5914886061409 ,47,6237399353051 ,73,7856062826742
2.3806675 ,Left ,56,5130767789952 ,47,578792053289 ,73,7286563839149
2.4029661 ,Left ,56,4704019168394 ,47,4676626209605 ,73,7222691526589
2.4252686 ,Left ,56,4406825717785 ,47,4048033934278 ,73,7023690043795
2.4404049 ,Left ,56,4050007053486 ,47,4231488288431 ,73,6487366676388
2.463395 ,Left ,56,4894635478009 ,47,4369420383401 ,73,6269282589066
2.485821 ,Left ,56,6114701380545 ,47,388285656903 ,73,644887709276
2.5010644 ,Left ,56,8104045205269 ,47,2687723691038 ,73,6455047459873
2.5233713 ,Left ,56,9641038677818 ,47,1527617561165 ,73,5778902459906
2.545273 ,Left ,56,9495542030965 ,47,1365333457189 ,73,5077712512786
2.5677195 ,Left ,56,8659438094729 ,47,2057782190686 ,73,4778691589602
2.5832466 ,Left ,56,93356895231 ,47,2595505266509 ,73,4028749707214
2.6061964 ,Left ,57,0338436806846 ,47,2610227523109 ,73,3134705181481
2.6282949 ,Left ,57,0521953005468 ,47,2114083102106 ,73,3355944153245
2.6433771 ,Left ,57,0377547841856 ,47,1821217290097 ,73,4145711068604
2.6657043 ,Left ,56,9196933012587 ,47,2102841506699 ,73,4571379483097
2.6878285 ,Left ,56,9080464199834 ,47,2779020713439 ,73,4903188361602
2.7026907 ,Left ,57,0025843435324 ,47,2788305750536 ,73,5374414910119
2.7256699 ,Left ,57,0909766234229 ,47,2441345429307 ,73,5953822794861
2.7482409 ,Left ,57,0539925963351 ,47,2008052460852 ,73,6396887679593
2.7634511 ,Left ,56,9775966339141 ,47,186608857164 ,73,6892829827003
2.785964 ,Left ,56,9270934737826 ,47,1731899232596 ,73,7146824075509
2.8078437 ,Left ,56,9156801355965 ,47,1694151211321 ,73,7432394708155
2.8226975 ,Left ,56,9420534362148 ,47,1501983825209 ,73,763051438468
2.845039 ,Left ,56,9770383533412 ,47,1274811995722 ,73,7916915715316
2.8675917 ,Left ,57,022498497909 ,47,1056154612372 ,73,8301231417744
2.8825692 ,Left ,57,0389128677066 ,47,1015803196657 ,73,8816475737922
2.9050614 ,Left ,57,0495616387963 ,47,1218656537084 ,73,9304439921564
2.9275235 ,Left ,57,0255402474616 ,47,1535805690557 ,73,9711276845996
2.942568 ,Left ,56,9998244735406 ,47,2100283677888 ,73,9900145151647
2.9651472 ,Left ,56,9810922781418 ,47,2505300993747 ,74,0046864241457
2.9876268 ,Left ,57,0064622364699 ,47,2723431274434 ,74,022210375022
3.0026133 ,Left ,57,0388370505227 ,47,2821211766002 ,74,0501370677774
3.0251197 ,Left ,57,0488672387476 ,47,3026969950636 ,74,0656499053857
3.0477799 ,Left ,57,0138803071533 ,47,3213717199993 ,74,0694676582588
3.0628045 ,Left ,56,9844262289721 ,47,3248260739198 ,74,0773614616891
3.085544 ,Left ,56,965475558576 ,47,323723629253 ,74,0887557776729
3.1078926 ,Left ,56,962287487167 ,47,3341214072741 ,74,0982492215442
3.1226651 ,Left ,56,9653235253804 ,47,3536498299755 ,74,1070856091241
3.1453706 ,Left ,56,9625020079496 ,47,3774461574423 ,74,1074087292923
3.1678527 ,Left ,56,9460682783688 ,47,3884229187693 ,74,1152755728029
3.1903612 ,Left ,56,9249527195259 ,47,3945318350347 ,74,1246202456127
3.2129319 ,Left ,56,9020706165898 ,47,405462063657 ,74,1260514765073
3.2427054 ,Left ,56,8906898212558 ,47,4066648673271 ,74,138742053688
3.2656183 ,Left ,56,8965366098205 ,47,3850243678582 ,74,1475516103313
3.2882048 ,Left ,56,8808614477732 ,47,3517115739594 ,74,1631536795604
3.3032844 ,Left ,56,8573129571098 ,47,3204217503448 ,74,1893485067071
3.3258816 ,Left ,56,8421703579604 ,47,3045376162939 ,74,2104475483606
3.3477333 ,Left ,56,8224416079304 ,47,2888488198538 ,74,2170211375948
3.3625648 ,Left ,56,8113923573145 ,47,2658684607371 ,74,212474220247
3.3857645 ,Left ,56,8150368796935 ,47,2775355288123 ,74,1977090080042
3.4082376 ,Left ,56,7857847184546 ,47,2849623637029 ,74,1755303479403
3.4234827 ,Left ,56,777740490463 ,47,3040731335476 ,74,1911838502375
3.4455762 ,Left ,56,8725130460077 ,47,3255080291672 ,74,2256399927367
3.4680177 ,Left ,57,0059302442274 ,47,3329253857983 ,74,2467746037218
3.4829019 ,Left ,57,128269792407 ,47,293534249129 ,74,2854435898969
3.5055086 ,Left ,57,2439811167908 ,47,244587290392 ,74,3390978766616
3.5280132 ,Left ,57,2121875453965 ,47,250898194348 ,74,3497764907439
3.5505397 ,Left ,57,0675803434941 ,47,2888789001468 ,74,2428283868011
3.5655516 ,Left ,56,9392806402344 ,47,3157089259494 ,74,1178252302146
3.5879347 ,Left ,56,8812030573339 ,47,2628315884003 ,74,0526905491784
3.6106967 ,Left ,56,859733228407 ,47,1749567915574 ,74,0266737630703
3.6255244 ,Left ,56,9341423087547 ,47,1225593895822 ,74,0311259297436
3.6478628 ,Left ,57,0035089826834 ,47,0779341661683 ,74,0500568076341
3.6705092 ,Left ,57,0008550988611 ,47,0930801878863 ,74,0714695282284
3.6852886 ,Left ,56,9661150008 ,47,1435261749488 ,74,0855045753936
3.7079251 ,Left ,56,919729170714 ,47,1919986533728 ,74,0222900885856
3.7230645 ,Left ,56,8785523208784 ,47,2352397226839 ,73,9452969943454
3.7455125 ,Left ,56,8340642537542 ,47,2938944718506 ,73,9064762278902
3.7679768 ,Left ,56,8220813469276 ,47,3806478426346 ,73,942340468922
3.7904656 ,Left ,56,8492800665135 ,47,4481029436079 ,74,0111010374535
3.8054853 ,Left ,56,927793623086 ,47,5073837696785 ,74,0802054254594
3.8278087 ,Left ,56,9921635423566 ,47,5736365413011 ,74,1156773876223
3.850571 ,Left ,56,9395978724766 ,47,6798414521259 ,74,1387456310322
3.8652848 ,Left ,56,8383604451006 ,47,7758148915293 ,74,2036764694391
3.8875695 ,Left ,56,7969064089229 ,47,7757641187489 ,74,2873285000035
3.9102165 ,Left ,56,8035803354941 ,47,7185858504046 ,74,3047847519415
3.9251396 ,Left ,56,7714721262349 ,47,684309762622 ,74,2672540166015
3.9478066 ,Left ,56,7212985183591 ,47,7005944179835 ,74,2154054215928
3.9704326 ,Left ,56,6415595556163 ,47,7929431810304 ,74,1738020795098
3.9852609 ,Left ,56,5846958068609 ,47,8801659111924 ,74,1707714502638
4.0076512 ,Left ,56,6645537079861 ,47,9069369919981 ,74,2023655161346
4.0302022 ,Left ,56,8406003534548 ,47,8623626003925 ,74,2285729605363
4.0453842 ,Left ,57,0033523857347 ,47,8104817811172 ,74,2271149380633
4.0678246 ,Left ,57,0621345090464 ,47,7683643408326 ,74,2149798835894
4.0903649 ,Left ,57,0125753781658 ,47,723804823622 ,74,2230509764445
4.105636 ,Left ,56,9535292225433 ,47,6918970681841 ,74,2376289876385
4.1278933 ,Left ,56,9229128596262 ,47,6667275265478 ,74,2294436438264
4.1505076 ,Left ,56,9207980441021 ,47,6426637538747 ,74,1974862168519
4.1654639 ,Left ,56,9303585927395 ,47,6398854514545 ,74,1452856395887
4.1875324 ,Left ,56,9684935259303 ,47,6231830544158 ,74,0893437669879
4.2101563 ,Left ,57,0363173052298 ,47,5935367689598 ,74,0550506469621
4.2252226 ,Left ,57,0811838942985 ,47,5734457869973 ,74,0330257227037
4.2477407 ,Left ,57,033160610427 ,47,5776163878134 ,73,9991926675085
4.2705987 ,Left ,56,9428878575207 ,47,6085214247366 ,73,9416768283261
4.2854988 ,Left ,56,8690038806066 ,47,6387937972505 ,73,8616426778167
4.3078115 ,Left ,56,8299488236082 ,47,6704319055783 ,73,8033016883041
4.3303432 ,Left ,56,7975882559373 ,47,7104162869789 ,73,7582843218222
4.3454652 ,Left ,56,7621219903564 ,47,7600611813902 ,73,7061851360045
4.367497 ,Left ,56,6887087774257 ,47,8058929388535 ,73,6405556748153
4.3909547 ,Left ,56,5949652470966 ,47,8031228087788 ,73,5462255815332
4.406 ,Left ,56,4927635234788 ,47,7396146709912 ,73,4481891120174
4.4280097 ,Left ,56,4138782781887 ,47,6636067835804 ,73,4065325434363
4.4503392 ,Left ,56,3635273514613 ,47,6562386660724 ,73,3563978491389
4.4734614 ,Left ,56,4124290071819 ,47,7193070950439 ,73,3110645642124
4.4881646 ,Left ,56,616888801876 ,47,7328327949653 ,73,3315145047784
4.5107567 ,Left ,56,8435172794475 ,47,6307819954969 ,73,3982819745102
4.5332213 ,Left ,57,0048277539976 ,47,4872686322397 ,73,4510718787354
4.547912 ,Left ,56,968173329074 ,47,4137940175897 ,73,4463105287679
4.5704413 ,Left ,56,7603019490741 ,47,4460930676072 ,73,4098198889162
4.5930432 ,Left ,56,7086074541157 ,47,5070291443912 ,73,3608421007287
4.6078835 ,Left ,56,8685941828726 ,47,532013498668 ,73,2826740735136
4.6302938 ,Left ,56,9736928182671 ,47,4613715171737 ,73,2546835982605
4.6526215 ,Left ,57,0204947597104 ,47,3713820752026 ,73,3121581147034
4.6676006 ,Left ,56,997856049403 ,47,3356371878211 ,73,3476756788461
4.6902948 ,Left ,56,9490621049618 ,47,366533778141 ,73,3684534717125
4.7129326 ,Left ,56,9341410756161 ,47,3586443841375 ,73,3955689132502
4.7279537 ,Left ,57,0072598786968 ,47,3121725578705 ,73,4632097798359
4.7505909 ,Left ,57,0294020170132 ,47,2428737961053 ,73,52979992489
4.7728036 ,Left ,57,0275444109764 ,47,199337460553 ,73,592088966298
4.7876671 ,Left ,57,0183653204168 ,47,1944047202001 ,73,6455117967507
4.8103766 ,Left ,57,0238047965738 ,47,2044739423213 ,73,6835779450918
4.8326732 ,Left ,57,0532082493453 ,47,2314339429882 ,73,7437553998412
4.8477555 ,Left ,57,104696660691 ,47,2585587589318 ,73,7986369172495
4.8706033 ,Left ,57,1077949404451 ,47,2706778097385 ,73,8453013790106
4.8930405 ,Left ,57,1260203241218 ,47,3061801896274 ,73,9031058275907
4.9078985 ,Left ,57,1040948018776 ,47,3380796549794 ,73,9552412632025
4.9303884 ,Left ,57,0579861031063 ,47,3904788184575 ,73,9961419968995
4.952809 ,Left ,57,0177287431952 ,47,4479645647452 ,74,0218193726837
4.9676487 ,Left ,56,9918522474796 ,47,4940962321717 ,74,0476681281157
4.9903526 ,Left ,56,9720770403227 ,47,5138072656079 ,74,0731186452314
5.0127993 ,Left ,56,9702216130618 ,47,5051388288919 ,74,0994799683049
5.0280197 ,Left ,56,9776503254904 ,47,4770489335797 ,74,1241956764609
5.0506656 ,Left ,56,953967439969 ,47,4483938749224 ,74,1503382626118
5.0730453 ,Left ,56,9191086082748 ,47,4322438409641 ,74,1713552033855
5.0877585 ,Left ,56,8976246153185 ,47,4273066881509 ,74,1930312290401
5.1106753 ,Left ,56,87909873441 ,47,4224129007524 ,74,2151246623438
5.1329211 ,Left ,56,8854612384271 ,47,4163881739264 ,74,2431234471752
5.1479029 ,Left ,56,8999067218397 ,47,4189321558613 ,74,2706471633936
5.1705418 ,Left ,56,8954436325938 ,47,4335843525246 ,74,2806207871148
5.1928838 ,Left ,56,8623879723489 ,47,4399261242167 ,74,2828179935218
5.2079987 ,Left ,56,8334418536906 ,47,4338683588893 ,74,2978157177746
5.2300821 ,Left ,56,8023425091646 ,47,4472017958201 ,74,3069231459396
5.252613 ,Left ,56,7604352375342 ,47,4720371660757 ,74,296599637356
5.2674992 ,Left ,56,7496451973881 ,47,5025259909311 ,74,2715156269769
5.290429 ,Left ,56,7214374439149 ,47,5163551107579 ,74,2530339729243
5.3126486 ,Left ,56,7227118848608 ,47,528818761841 ,74,2801818531766
5.3276475 ,Left ,56,7863773089601 ,47,5643439984947 ,74,2936314884481
5.3502852 ,Left ,56,8816010177401 ,47,5411752774455 ,74,3114029329689
5.3728483 ,Left ,57,0620843115082 ,47,4791433198428 ,74,3775889704466
5.3876559 ,Left ,57,227054594358 ,47,4415600049113 ,74,400906120075
5.4102457 ,Left ,57,1853678704682 ,47,4875752982924 ,74,3540693291922
5.4327319 ,Left ,57,0354640257301 ,47,5520409162288 ,74,252769814173
5.4553259 ,Left ,56,9941630902356 ,47,5625749696965 ,74,1226265218361
5.4703882 ,Left ,57,0041893204732 ,47,4848068646226 ,73,9754427481712
5.4928374 ,Left ,56,9645084636054 ,47,4242069935826 ,73,9138320516149
5.5154128 ,Left ,56,9674950113048 ,47,4253605446684 ,73,9282933162716
5.5307793 ,Left ,56,9698970473592 ,47,4453296835482 ,73,9733338190912
5.5533871 ,Left ,56,994928339925 ,47,4432390259446 ,74,0097272441401
5.5754808 ,Left ,57,0353793168499 ,47,4311981378836 ,74,0216250125764
5.5905284 ,Left ,57,0053104655545 ,47,4169624140941 ,73,9569979882465
5.6127323 ,Left ,56,9559312171913 ,47,4048063977722 ,73,8792872632309
5.6278549 ,Left ,56,9021874756933 ,47,3935179358515 ,73,8431094264049
5.6502605 ,Left ,56,9165505552296 ,47,4261585667126 ,73,849706614658
5.6728821 ,Left ,56,9494197913568 ,47,5227488693002 ,73,8822684316295
5.6953358 ,Left ,57,0107780832213 ,47,6233191571433 ,73,9309556489995
5.7103425 ,Left ,57,0691176805739 ,47,6820326646899 ,73,9761348576956
5.7326852 ,Left ,57,1257328790362 ,47,7592470239175 ,73,9828437393285
5.7552934 ,Left ,57,0607029714156 ,47,8766246539415 ,73,9649023036533
5.7701947 ,Left ,56,9423790678872 ,47,9299083089696 ,74,0090941072238
5.7927119 ,Left ,56,8828954644776 ,47,9014037082448 ,74,0708875643128
5.8155782 ,Left ,56,853229635419 ,47,8148463504973 ,74,0446993039569
5.8306149 ,Left ,56,7987547117081 ,47,7508007795437 ,74,024563835111
5.8528053 ,Left ,56,763808628666 ,47,7374686889101 ,74,0039614113961
5.8752762 ,Left ,56,6662830790332 ,47,793957042041 ,73,9967423432634
5.8902985 ,Left ,56,6620190330084 ,47,8220107811011 ,74,0169983732744
5.9130037 ,Left ,56,8079486112763 ,47,771262494256 ,74,053935988476
5.9354505 ,Left ,56,9523306677693 ,47,7004046101095 ,74,0712193951813
5.9505849 ,Left ,57,0376529897516 ,47,6673032389101 ,74,0473048699936
5.9729869 ,Left ,57,0346122629432 ,47,6619592920809 ,74,0014843333954
5.9954764 ,Left ,57,0061515941446 ,47,6728653035662 ,73,9436601252378
6.0030087 ,Left ,56,9747526305194 ,47,6896813674332 ,73,8643485888122
6.0253633 ,Left ,56,9823343798355 ,47,7039018632054 ,73,7819194525334
6.0628048 ,Left ,56,9649903356696 ,47,7617038500871 ,73,6702062426909
6.0853003 ,Left ,56,8946180633991 ,47,7755282166167 ,73,624449718423
6.1078198 ,Left ,56,7810658069925 ,47,7453907090304 ,73,5528061185192
6.1229902 ,Left ,56,6465267261961 ,47,6815471572623 ,73,419914863664
6.1455788 ,Left ,56,5552833821015 ,47,6334118562721 ,73,3368222559211
6.168022 ,Left ,56,5696718763858 ,47,6349095516507 ,73,2844285758034
6.1828726 ,Left ,56,5363161527671 ,47,7204748543973 ,73,2252847435671
6.2053017 ,Left ,56,6521272103292 ,47,8172178248551 ,73,2237965495933
6.2280336 ,Left ,56,8512064739529 ,47,7761202462138 ,73,2884420412979
6.2428441 ,Left ,57,0335277709684 ,47,653749627474 ,73,33608385006
6.2655587 ,Left ,57,0529776101539 ,47,5277169396325 ,73,3267138369703
6.2879178 ,Left ,56,9101986355236 ,47,4643046610202 ,73,3156373422108
6.302935 ,Left ,56,7551521105164 ,47,4735965404636 ,73,3395862532033
6.3255359 ,Left ,56,7558739344338 ,47,5264847569877 ,73,3365167518504
6.3478763 ,Left ,56,8731473586159 ,47,5433430971667 ,73,2577892257555
6.3628639 ,Left ,56,9225371732997 ,47,5193424599969 ,73,2138611148084
6.3855289 ,Left ,57,0273702439441 ,47,4926836593435 ,73,2634454832794
6.4076718 ,Left ,57,0978650712075 ,47,5151964943884 ,73,2949740965339
6.4226204 ,Left ,57,1054352453969 ,47,5701834740848 ,73,3102162685022
6.4454599 ,Left ,57,1467277294272 ,47,5418964090259 ,73,3410311824925
6.4831282 ,Left ,57,1796958129726 ,47,3918362530734 ,73,4529698221968
6.5059117 ,Left ,57,1103086990892 ,47,3651673286805 ,73,4867011853931
6.5427592 ,Left ,57,0892089176682 ,47,3109430554853 ,73,5362744220908
6.5653199 ,Left ,57,1426045803718 ,47,3037064540001 ,73,5749314082752
6.6026275 ,Left ,57,2325047517097 ,47,2903484910342 ,73,6811480229754
6.6258452 ,Left ,57,2632711636628 ,47,2952339250231 ,73,7552801973489
6.6634636 ,Left ,57,2301619159655 ,47,3635623326543 ,73,8449794502904
6.6859695 ,Left ,57,2123848510483 ,47,3994741403969 ,73,8593363462993
6.722974 ,Left ,57,2067375565117 ,47,4071725904369 ,73,8876169181962
6.7455708 ,Left ,57,2258680312819 ,47,3961501335215 ,73,8996179906803
6.7828705 ,Left ,57,1462683607666 ,47,3864551994917 ,73,9124623043831
6.8055958 ,Left ,57,11649099763 ,47,3881104133598 ,73,9282532189428
6.8428823 ,Left ,57,1477622631316 ,47,3853026268562 ,73,9738127554271
6.8654215 ,Left ,57,142043292857 ,47,4053006712387 ,73,9789168783625
6.9030409 ,Left ,57,0838256592348 ,47,4494408361545 ,73,9862442725801
6.9256212 ,Left ,57,0689672313924 ,47,4556945041404 ,73,9963675763849
6.9630014 ,Left ,57,0245090390084 ,47,443025080595 ,74,0247593207415
6.9852939 ,Left ,57,0006777808218 ,47,4287710159888 ,74,0501608299601
7.0227419 ,Left ,56,9397948188541 ,47,4481039045715 ,74,0869186242978
7.0451551 ,Left ,56,9230183281647 ,47,4771668573065 ,74,0694901694155
7.0831945 ,Left ,56,9273243549454 ,47,5360088790132 ,74,084436324739
7.1057406 ,Left ,56,9951763189965 ,47,5448708880366 ,74,111682541285
7.1430603 ,Left ,57,1910763213162 ,47,4124074511165 ,74,2248523473795
7.1657978 ,Left ,57,248271607269 ,47,3962299360265 ,74,2219505522666
7.2025443 ,Left ,57,0287019444273 ,47,4088759970455 ,74,0452893751374
7.2253927 ,Left ,56,991329266789 ,47,369319273874 ,73,9146682685864
7.2629687 ,Left ,56,9914480034243 ,47,3798314140611 ,73,8606640410383
7.28558 ,Left ,57,0065367082599 ,47,3860673241048 ,73,9107802244147
7.3229086 ,Left ,57,1613513085979 ,47,3462337422103 ,73,9528788420245
7.3453837 ,Left ,57,0442339609353 ,47,33699552486 ,73,9110755462316
7.3826892 ,Left ,56,9684958521924 ,47,447596514462 ,73,8401230814236
7.4054718 ,Left ,57,0075195949395 ,47,5099294960411 ,73,8436002285003
7.4430298 ,Left ,57,1139975332263 ,47,5927418692135 ,73,9181355262612
7.4655774 ,Left ,57,1830411708818 ,47,6439819624971 ,73,872201874876
7.5029191 ,Left ,57,0344862615706 ,47,8348438086004 ,73,8406855562126
7.5253278 ,Left ,56,9594890672207 ,47,8189347222204 ,73,9049262599413
7.5628581 ,Left ,56,8593039222907 ,47,6807428472851 ,73,8695433541673
7.5855674 ,Left ,56,8536310880866 ,47,642527316254 ,73,8436066181416
7.6226545 ,Left ,56,7780835660904 ,47,6867415306524 ,73,8404186114981
7.6454006 ,Left ,56,8687725029546 ,47,6819125764097 ,73,8709726303823
7.6826843 ,Left ,57,1161543609865 ,47,6108210774468 ,73,9129773778587
7.7056362 ,Left ,57,0924016765674 ,47,6092364512166 ,73,912203896067
7.7431434 ,Left ,57,0920063471891 ,47,6706661144287 ,73,8969782520552
7.7657775 ,Left ,57,0915612129787 ,47,6978970541992 ,73,8514001512278
7.8030514 ,Left ,57,1108340477175 ,47,7184907224373 ,73,6971087369162
7.825579 ,Left ,57,1086484679269 ,47,718824269005 ,73,6197322900967
7.8628348 ,Left ,56,952263237215 ,47,7244403756889 ,73,4788174131189
7.8778359 ,Left ,56,8331403220806 ,47,6979550524148 ,73,3991086007068
7.9004252 ,Left ,56,7444453141612 ,47,6842263497719 ,73,3097675709577
7.9150935 ,Left ,56,6941716989976 ,47,7002092897942 ,73,2246860997876
7.9377919 ,Left ,56,6313167607663 ,47,6863390960356 ,73,1637303706215
7.9609943 ,Left ,56,5958413733345 ,47,6717882482499 ,73,1790781949243
7.9756605 ,Left ,56,5890192140138 ,47,6875383659744 ,73,2103141466812
7.9980111 ,Left ,56,6245635809423 ,47,7088682357237 ,73,2365655874715
8.0206531 ,Left ,56,7159626899335 ,47,6806227575769 ,73,2812863791152
8.0354834 ,Left ,56,8751122894647 ,47,5633080692784 ,73,3291189520474
8.0580234 ,Left ,57,0028996787748 ,47,3986946471468 ,73,3715716725957
8.0805056 ,Left ,57,0013868989027 ,47,2798406551709 ,73,3835937086956
8.0952786 ,Left ,56,8918467900734 ,47,2503653107905 ,73,3994312374175
8.1178303 ,Left ,56,8625659546349 ,47,2549216235677 ,73,3940394563853
8.1404489 ,Left ,56,9408195367456 ,47,2901244563346 ,73,3014203988746
8.1553438 ,Left ,57,0041268505367 ,47,2870253342228 ,73,2101563669912
8.1778444 ,Left ,57,0599188503425 ,47,2666517030597 ,73,2599858745631
8.2006471 ,Left ,57,1195378131201 ,47,2625482718324 ,73,3321305397612
8.2152936 ,Left ,57,1017315497948 ,47,3007529948282 ,73,3549671998816
8.2376157 ,Left ,57,0829211574831 ,47,3186590247219 ,73,3608927500161
8.2601389 ,Left ,57,1320849799884 ,47,2841708542435 ,73,3890330174098
8.27544 ,Left ,57,1657028840868 ,47,2191384384274 ,73,4244022740208
8.297689 ,Left ,57,1532975271989 ,47,1793062266368 ,73,4608484293731
8.3207681 ,Left ,57,1283751355401 ,47,1805383511752 ,73,4718332729547
8.3427563 ,Left ,57,0961199195672 ,47,1930576391101 ,73,4753468552762
8.3577378 ,Left ,57,118550374313 ,47,1997864583045 ,73,4735549503429
8.380497 ,Left ,57,1388869517424 ,47,1921168142557 ,73,4720890052194
8.3953564 ,Left ,57,1975207177206 ,47,1787075052801 ,73,488209471019
8.4179055 ,Left ,57,2018942212127 ,47,1584073738798 ,73,5160159194135
8.4409126 ,Left ,57,1992775864334 ,47,1773438029418 ,73,557209781686
8.4628326 ,Left ,57,2076589881968 ,47,1928974430294 ,73,5771996690517
8.4777409 ,Left ,57,1953136347072 ,47,2116490362805 ,73,6061804050889
8.5001078 ,Left ,57,2029027651683 ,47,2353090682361 ,73,6273304809722
8.5235033 ,Left ,57,1881568586794 ,47,2552364994375 ,73,650658309556
8.5382101 ,Left ,57,2084680917481 ,47,266861232486 ,73,6827317607605
8.5608301 ,Left ,57,2240864384035 ,47,2724471034986 ,73,7216383336641
8.5832477 ,Left ,57,2263654570844 ,47,287147943853 ,73,7630691205579
8.5979534 ,Left ,57,2118482741087 ,47,3058397436021 ,73,7973838230253
8.6205593 ,Left ,57,1939571064252 ,47,3135320768265 ,73,8379530050851
8.6427898 ,Left ,57,1852044192298 ,47,3083568493999 ,73,8721811585897
8.6578084 ,Left ,57,1770420408354 ,47,3073070210057 ,73,9015968565071
8.6802712 ,Left ,57,1841346606761 ,47,3112209309369 ,73,9282233881119
8.7026298 ,Left ,57,1768562379957 ,47,3169642268449 ,73,9588362182852
8.7181702 ,Left ,57,1567237334295 ,47,3247126547796 ,73,985265890129
8.7483141 ,Left ,57,1321639158619 ,47,3279825108761 ,74,007655125094
8.770933 ,Left ,57,0993806647693 ,47,3220296447156 ,74,0331801566024
8.7855229 ,Left ,57,0805663985567 ,47,3173608050832 ,74,0523798182347
8.8004205 ,Left ,57,0716467346429 ,47,3106679459436 ,74,0753967314948
8.8228649 ,Left ,57,0613825157012 ,47,2916200160522 ,74,090832825555
8.8376919 ,Left ,57,0308900085397 ,47,2721628538653 ,74,1064362385214
8.86032 ,Left ,57,0267096156911 ,47,2736588250395 ,74,1061165068743
8.8826832 ,Left ,57,0415162209067 ,47,3263573993001 ,74,0737907730221
8.8976508 ,Left ,57,0229324398558 ,47,3712851814005 ,74,0361140077297
8.9202353 ,Left ,57,0425433530995 ,47,4190628858009 ,74,0570383351388
8.9426325 ,Left ,57,1158125693702 ,47,4683238710563 ,74,0688792675235
8.9576776 ,Left ,57,1995068154059 ,47,4665495587175 ,74,0801962003179
8.9805544 ,Left ,57,2908822225258 ,47,423013538643 ,74,1254232161994
9.0029341 ,Left ,57,3653409643253 ,47,3814238760674 ,74,1546962047453
9.0177585 ,Left ,57,3442033135138 ,47,3795923261079 ,74,1373249372094
9.0403619 ,Left ,57,2603963401706 ,47,3912782096218 ,74,0600289650372
9.0634126 ,Left ,57,2172304241013 ,47,3832586364503 ,73,9438217658977
9.0782564 ,Left ,57,1986076331708 ,47,3132946255529 ,73,8329615674589
9.1005758 ,Left ,57,1284791659143 ,47,2807433883666 ,73,7827507174515
9.1228666 ,Left ,57,1359591011353 ,47,3066538045192 ,73,7626637203935
9.1378142 ,Left ,57,1730342149346 ,47,3470004364892 ,73,7820067031517
9.1606532 ,Left ,57,2452036322081 ,47,3659522640801 ,73,8167784719605
9.1830255 ,Left ,57,3046871809962 ,47,3642580747028 ,73,8162188959082
9.1977992 ,Left ,57,249890410869 ,47,3765954420061 ,73,77742481578
9.2206341 ,Left ,57,149982004657 ,47,3889552573756 ,73,7328211441536
9.2429234 ,Left ,57,1103874743274 ,47,4424251662191 ,73,7110116826967
9.2579078 ,Left ,57,1156917742267 ,47,5271998712365 ,73,7056570970553
9.2806305 ,Left ,57,1196009415477 ,47,6238480974462 ,73,7299168569934
9.3029438 ,Left ,57,1366110927442 ,47,7005795592981 ,73,7613112857802
9.318416 ,Left ,57,1991972341693 ,47,7339962188887 ,73,7702140459355
9.3410524 ,Left ,57,2149829893436 ,47,7780802444333 ,73,7328920807685
9.3633633 ,Left ,57,1327771341323 ,47,8592555370092 ,73,7346264860782
9.3782765 ,Left ,57,0392811759262 ,47,8760380433682 ,73,8205036954778
9.4008237 ,Left ,56,9777625113168 ,47,8316184795826 ,73,9123139588705
9.422921 ,Left ,56,9460281224256 ,47,7672976780399 ,73,8948121760455
9.4453915 ,Left ,56,9154061046148 ,47,731478885747 ,73,835150804711
9.460382 ,Left ,56,8922562344166 ,47,7265705566465 ,73,7981327639943
9.4830602 ,Left ,56,8312361082635 ,47,7596076348472 ,73,7950752723436
9.5054956 ,Left ,56,8128214995927 ,47,7905138529075 ,73,8139590415636
9.5205552 ,Left ,56,9202054684507 ,47,7545812535428 ,73,8339204726319
9.5430246 ,Left ,57,0633148031201 ,47,6842636219011 ,73,8397099122515
9.5657538 ,Left ,57,1609084318287 ,47,6435335695773 ,73,8163146625286
9.5806333 ,Left ,57,1276676679409 ,47,6241173031822 ,73,7670042520474
9.6028902 ,Left ,57,0601069528954 ,47,6280261652894 ,73,7307569324323
9.6256505 ,Left ,57,0105345291692 ,47,6371803346226 ,73,6703402473222
9.6406249 ,Left ,56,9527505003691 ,47,6517190815681 ,73,5906978222932
9.6628704 ,Left ,56,9355303394989 ,47,670110676646 ,73,498110807992
9.6855352 ,Left ,56,9745925132534 ,47,6965040092934 ,73,4035279023411
9.700695 ,Left ,56,9858639164986 ,47,7133342803358 ,73,3339759996131
9.7228601 ,Left ,56,9530210343966 ,47,7218429154275 ,73,2956351036274
9.7454472 ,Left ,56,8840255379769 ,47,7322656932567 ,73,25586975154
9.7603126 ,Left ,56,7808628195922 ,47,7511156642225 ,73,2078691307387
9.7828579 ,Left ,56,6649213902295 ,47,7602041793133 ,73,1004728660869
9.8052827 ,Left ,56,6101190213407 ,47,7185067767852 ,72,9692716903649
9.8201183 ,Left ,56,6132408192132 ,47,6514208141732 ,72,946219996865
9.8434196 ,Left ,56,5983225439273 ,47,6101807776309 ,72,9438265857553
9.8659881 ,Left ,56,5676994560336 ,47,6447595720624 ,72,9267434199858
9.8809082 ,Left ,56,6825059972219 ,47,6558060284872 ,72,9547426332015
9.9028036 ,Left ,56,8764899311574 ,47,5580140372757 ,73,0191635623625
9.9254706 ,Left ,57,015060709359 ,47,4047953417844 ,73,0878529439186
9.9403739 ,Left ,57,0042789110185 ,47,2972875231577 ,73,1109429074007
9.9627645 ,Left ,56,8810270038954 ,47,2648565421923 ,73,1139926797077
9.9851418 ,Left ,56,7998852793218 ,47,2803223466173 ,73,118076518684
10.0002723 ,Left ,56,8414371113253 ,47,310799065153 ,73,1026358576478
10.0226403 ,Left ,56,9628265092023 ,47,3497534382181 ,73,0570304976759
10.0451959 ,Left ,57,0064211172719 ,47,3571917342156 ,73,0252829005824
10.0604566 ,Left ,57,043299419515 ,47,3427077823481 ,73,0789046602045
10.0829861 ,Left ,57,0585941818395 ,47,354246328708 ,73,1450005046385
10.1054193 ,Left ,57,0347615410212 ,47,3828201434503 ,73,1656178754955
10.1205304 ,Left ,57,0468934408193 ,47,3844218111595 ,73,1863929740214
10.1429001 ,Left ,57,1377462756429 ,47,3495566003505 ,73,2247341340375
10.1655371 ,Left ,57,1740165477795 ,47,3024799677811 ,73,262762282428
10.1803765 ,Left ,57,1916132508789 ,47,2923478142935 ,73,2990091279098
10.2026566 ,Left ,57,1925661259679 ,47,3271010428798 ,73,3209861255734
10.2251765 ,Left ,57,181851871796 ,47,3498798134447 ,73,3368465990993
10.2402473 ,Left ,57,1936278622154 ,47,3757282502225 ,73,3753362034066
10.2627128 ,Left ,57,2047410092559 ,47,3846149710797 ,73,4000956284943
10.2852455 ,Left ,57,1788792046814 ,47,3844139982112 ,73,4351952805323
10.3003227 ,Left ,57,1897763543105 ,47,3821194880567 ,73,4719589080892
10.3225953 ,Left ,57,1545700836874 ,47,3500936048331 ,73,509230238393
10.345451 ,Left ,57,1578866932647 ,47,321229670199 ,73,5685513689361
10.367834 ,Left ,57,1628003988473 ,47,3164870557133 ,73,6208647926654
10.3826533 ,Left ,57,1671122994944 ,47,3384336932182 ,73,6690695232652
10.4054267 ,Left ,57,1588487375833 ,47,353331920229 ,73,7145700692935
10.4278288 ,Left ,57,1687518810659 ,47,3573766531437 ,73,7608543595945
10.4430299 ,Left ,57,1841238550409 ,47,3584120963025 ,73,8074475496304
10.4654546 ,Left ,57,1854511058285 ,47,3756890617195 ,73,8436587708488
10.4879712 ,Left ,57,1710628128603 ,47,3956891045035 ,73,8671037944528
10.5029518 ,Left ,57,1647007525092 ,47,4082226375019 ,73,8988104679357
10.5254797 ,Left ,57,1753405476084 ,47,4111077448528 ,73,9369089144146
10.548076 ,Left ,57,1674612738489 ,47,4173230097116 ,73,9591145626772
10.562889 ,Left ,57,1412305567891 ,47,4113557670672 ,73,9713766573237
10.5856347 ,Left ,57,1290376944567 ,47,3814018789237 ,73,9846653566175
10.6079683 ,Left ,57,1323443770809 ,47,335226495962 ,74,0003947519061
10.6230155 ,Left ,57,1144563590881 ,47,2981462936471 ,74,0008221958906
10.645572 ,Left ,57,0934961202174 ,47,2722042518344 ,73,9830494350361
10.6679479 ,Left ,57,0703668070277 ,47,238062140151 ,73,9638744360703
10.6828753 ,Left ,57,0647378713752 ,47,2031079841391 ,73,9357095922531
10.7053437 ,Left ,57,0580524760357 ,47,1812647521452 ,73,9121618556256
10.727859 ,Left ,57,0488551778857 ,47,1862679638209 ,73,8894619009738
10.7428769 ,Left ,56,996873719722 ,47,2011116389138 ,73,8963664624891
10.7659933 ,Left ,56,9726194584661 ,47,2348858909937 ,73,9205052337458
10.7883662 ,Left ,56,9866718892459 ,47,3069298882892 ,73,9410690677212
10.8034657 ,Left ,57,1063619375776 ,47,3278119668883 ,73,9623445505305
10.8261512 ,Left ,57,2316919623146 ,47,2900969031575 ,73,9927685698203
10.8483884 ,Left ,57,3327036347996 ,47,2606999527334 ,74,0327114045117
10.8629207 ,Left ,57,3227310051745 ,47,2583728012876 ,74,0365898520454
10.8853002 ,Left ,57,2167001340145 ,47,2878349879385 ,74,0015994927118
10.90789 ,Left ,57,1344607746308 ,47,2771272280772 ,73,9193223992698
10.9229356 ,Left ,57,0902223183956 ,47,2218503407862 ,73,8219074487261
10.945433 ,Left ,57,0620051602853 ,47,2086144437246 ,73,7386956729162
10.967911 ,Left ,57,0617968796599 ,47,2837249202657 ,73,7138204932387
10.9827916 ,Left ,57,1107694813058 ,47,3464207267237 ,73,7544198606075
11.0052824 ,Left ,57,181371436212 ,47,3728379949267 ,73,8120977918543
11.0279421 ,Left ,57,2431043445569 ,47,3693670004766 ,73,8198050739146
11.042961 ,Left ,57,1767389993973 ,47,3627678796665 ,73,7627384293183
11.0653583 ,Left ,57,0928536953159 ,47,3913134254683 ,73,7035950086455
11.0876685 ,Left ,57,0528503813106 ,47,4424033030308 ,73,6731134681412
11.1101856 ,Left ,57,0740285550293 ,47,5336905213385 ,73,6790524789871
11.1254199 ,Left ,57,0651448528368 ,47,648928546608 ,73,687857307231
11.1478931 ,Left ,57,0635914511136 ,47,7222625913178 ,73,7077256900931
11.1704205 ,Left ,57,117079991958 ,47,7473986749136 ,73,7275799819904
11.1855553 ,Left ,57,125663664885 ,47,7684387086604 ,73,7101897960726
11.2078318 ,Left ,57,0493366270706 ,47,8334981769834 ,73,7018589084144
11.2225075 ,Left ,56,9832811922271 ,47,8488979857423 ,73,739129624934
11.2460123 ,Left ,56,9259854181872 ,47,771062747877 ,73,7848511512935
11.2681724 ,Left ,56,8867958857539 ,47,686233154096 ,73,7883816041031
11.2832419 ,Left ,56,8659181183209 ,47,6671921241465 ,73,7633782942657
11.305995 ,Left ,56,8598062773068 ,47,721000923133 ,73,6964962815121
11.3280187 ,Left ,56,7870096812501 ,47,8220369951197 ,73,6503698551954
11.3505931 ,Left ,56,8430216401021 ,47,8978123618641 ,73,672592122705
11.3654372 ,Left ,56,9544682615362 ,47,8726354533409 ,73,7114273661017
11.3879467 ,Left ,57,0708095069529 ,47,8375189876399 ,73,7303593349912
11.4105633 ,Left ,57,0992476175923 ,47,8186861010716 ,73,7037279665459
11.4253371 ,Left ,57,0734540439851 ,47,8150363240185 ,73,6609416148231
11.4478402 ,Left ,57,0608255929389 ,47,8302878915593 ,73,6094412093612
11.4704359 ,Left ,57,0422632198718 ,47,8538069093862 ,73,5586046749042
11.4853245 ,Left ,57,0360897487593 ,47,8900791717126 ,73,4952734281375
11.5075054 ,Left ,57,0492689747781 ,47,9314526822525 ,73,4193791937585
11.5302068 ,Left ,57,0442006010511 ,47,972353193432 ,73,3546908915271
11.5452631 ,Left ,57,0139890717766 ,48,0033496013553 ,73,2878348121874
11.5675958 ,Left ,56,9219318502252 ,48,0035027050534 ,73,1910399153867
11.5901711 ,Left ,56,8273309148697 ,47,9531328377311 ,73,0783733610939
11.6052589 ,Left ,56,7481340947211 ,47,8410064900611 ,72,956140885879
11.6276744 ,Left ,56,7134641598174 ,47,7666063237875 ,72,9188529822409
11.6501996 ,Left ,56,6749300953389 ,47,7759173949976 ,72,8647512305975
11.6659347 ,Left ,56,6837877559778 ,47,8613870300927 ,72,809473119311
11.6881532 ,Left ,56,8176642536417 ,47,8995309534913 ,72,8239262263825
11.7105248 ,Left ,57,0241463286416 ,47,8048449447074 ,72,8802429018129
11.7255708 ,Left ,57,1553867827396 ,47,6592311181984 ,72,9403395135322
11.7479115 ,Left ,57,1353650319042 ,47,5575800350479 ,72,9723985137067
11.7630997 ,Left ,56,9887533032053 ,47,5183819372622 ,73,0291312091038
11.7780273 ,Left ,56,8723591321473 ,47,5154820683876 ,73,117705031655
11.8004934 ,Left ,56,8703686205681 ,47,5278523275802 ,73,1246881813523
11.8229453 ,Left ,56,9330949605305 ,47,4959972008061 ,73,0434262266853
11.8380688 ,Left ,57,0190069945404 ,47,4490830015293 ,73,0219526041785
11.8606428 ,Left ,57,0755600508453 ,47,4169163932975 ,73,0508525627835
11.8828528 ,Left ,57,0247289800494 ,47,474643955565 ,73,0618879228982
11.897941 ,Left ,56,976130959075 ,47,5076972170572 ,73,06928183255
11.9202128 ,Left ,57,0330262636347 ,47,4568517688074 ,73,1252487125758
11.9426163 ,Left ,57,1509002583888 ,47,3699320239319 ,73,1858396927668
11.9576481 ,Left ,57,1880123170923 ,47,3170483059022 ,73,225793295863
11.9801405 ,Left ,57,1681829392943 ,47,3107200327709 ,73,2442039136012
12.0029251 ,Left ,57,1520934334353 ,47,3352746005184 ,73,2460719385564
12.0178753 ,Left ,57,1527113966115 ,47,3410485323131 ,73,2525555363135
12.040185 ,Left ,57,1805537910882 ,47,3345210398205 ,73,2604095090185
12.0777673 ,Left ,57,2176897177303 ,47,3533016201522 ,73,2707285679963
12.1005513 ,Left ,57,2034287978082 ,47,3854621295986 ,73,276775205307
12.1377683 ,Left ,57,1293023210875 ,47,3553413227668 ,73,3366444048816
12.1604328 ,Left ,57,1446360645072 ,47,3552483804216 ,73,3714474845181
12.1983108 ,Left ,57,1103566015459 ,47,3834649005564 ,73,4428362224948
12.2210963 ,Left ,57,1182440996495 ,47,4084751133601 ,73,4779466914752
12.2581936 ,Left ,57,1195716294377 ,47,4681933267535 ,73,5589609320198
12.2807163 ,Left ,57,087746347584 ,47,5024211830675 ,73,6042254778258
12.3179751 ,Left ,57,0673643857252 ,47,5651143996152 ,73,7024339822675
12.3402948 ,Left ,57,0662551964143 ,47,5946659552123 ,73,740068217386
12.3779398 ,Left ,57,04098223698 ,47,6402555682482 ,73,813006380801
12.4005324 ,Left ,57,0227488719694 ,47,6466899039857 ,73,8392072812574
12.4379935 ,Left ,56,9899790678092 ,47,5940920077021 ,73,8958316384481
12.4604097 ,Left ,56,9782498363809 ,47,5603005280609 ,73,9195692703367
12.4983355 ,Left ,56,9635792959308 ,47,5095289019391 ,73,9126728242191
12.5210611 ,Left ,56,952010162809 ,47,4955110662954 ,73,8840297906003
12.5584188 ,Left ,56,9085053715562 ,47,5593282717327 ,73,8602883760977
12.5811646 ,Left ,56,9781911447215 ,47,5448873286752 ,73,9005533170583
12.6035294 ,Left ,57,081145385573 ,47,4779373209075 ,73,9735562628444
12.6179999 ,Left ,57,221241926294 ,47,4177897032868 ,74,0223958041465
12.6402943 ,Left ,57,229335770098 ,47,4088969064009 ,73,999756045051
12.6776912 ,Left ,57,0503203291881 ,47,4413503805365 ,73,8109580225622
12.7010301 ,Left ,57,0463568255027 ,47,3890089838672 ,73,7028074196398
12.7384451 ,Left ,56,928529110963 ,47,3612097322697 ,73,6039422156696
12.7609022 ,Left ,56,8486220762699 ,47,4499472558118 ,73,6155542385796
12.7979113 ,Left ,56,7971975377579 ,47,6750391582856 ,73,6868209452106
12.8204308 ,Left ,56,8405003658862 ,47,6449014018734 ,73,7263314323025
12.8579932 ,Left ,56,8777892438785 ,47,5138929750822 ,73,6892496231774
12.8806296 ,Left ,56,8123499158632 ,47,4857264023218 ,73,6356596543571
12.9176452 ,Left ,56,7383669333979 ,47,4321849724067 ,73,4928135951852
12.9410269 ,Left ,56,7285481890274 ,47,4339176154084 ,73,4426443058231
12.9783867 ,Left ,56,753122076741 ,47,5517200456822 ,73,4435710984488
13.0010075 ,Left ,56,8235183034277 ,47,6262074915494 ,73,4688099220074
13.0381232 ,Left ,56,972034277887 ,47,5745206049322 ,73,5839044203666
13.0608569 ,Left ,56,9645771799209 ,47,5543093007975 ,73,6045743842592
13.0980311 ,Left ,56,8512024641593 ,47,5777859004021 ,73,6459685007303
13.1207637 ,Left ,56,7775112374338 ,47,5643285208241 ,73,7062359983741
13.157985 ,Left ,56,6454021064456 ,47,5781694321093 ,73,6920421653647
13.1808621 ,Left ,56,5900784789434 ,47,5837704891898 ,73,6450463453142
13.2181021 ,Left ,56,5582732751956 ,47,6197217892547 ,73,5834216143224
13.2408076 ,Left ,56,4704317539373 ,47,6749674842223 ,73,548129017269
13.2779412 ,Left ,56,5157051653021 ,47,7820543816113 ,73,5469941558452
13.3003922 ,Left ,56,6511054411176 ,47,7479957635069 ,73,5887251525283
13.3376757 ,Left ,56,7868490915126 ,47,7402649858303 ,73,5911150651705
13.3602894 ,Left ,56,7687465535068 ,47,7253919598234 ,73,5782617514189
13.3984017 ,Left ,56,8038334498646 ,47,7142867989768 ,73,5235955200639
13.4204409 ,Left ,56,7988017922512 ,47,7446244767837 ,73,4401999034051
13.4579585 ,Left ,56,7681231073198 ,47,8081955233965 ,73,2829809448053
13.4953467 ,Left ,56,7610664930643 ,47,8186231377106 ,73,2186191000785
13.5252785 ,Left ,56,6285883684901 ,47,8695345233355 ,73,1370739282198
13.5403365 ,Left ,56,5494193926771 ,47,904437183581 ,73,0735459267866
13.5778317 ,Left ,56,4534739633248 ,47,8252537332784 ,72,9403768963744
13.6002736 ,Left ,56,4787010334661 ,47,764379063618 ,72,9476658517585
13.615329 ,Left ,56,4146276232783 ,47,7634571532733 ,72,9082782276144
13.6301806 ,Left ,56,4221250480398 ,47,8366105922057 ,72,8608094386564
13.6527325 ,Left ,56,6129256208015 ,47,8243130435233 ,72,8675545550374
13.6757517 ,Left ,56,8525173181509 ,47,704019650605 ,72,9204571477135
13.6910975 ,Left ,56,9773106392901 ,47,5730300853633 ,72,9391503077427
13.713545 ,Left ,56,8779382378686 ,47,5292782109728 ,72,923246135837
13.73578 ,Left ,56,7188047220237 ,47,5615992552607 ,72,9340378676458
13.750365 ,Left ,56,695588653304 ,47,5800292468752 ,72,9422751972339
13.7731135 ,Left ,56,8351286922511 ,47,5711251547675 ,72,8896719006848
13.795616 ,Left ,56,9260631804302 ,47,5246274528552 ,72,8634821500705
13.8105747 ,Left ,57,0141862637511 ,47,4720375263498 ,72,9033410583263
13.8328163 ,Left ,57,029454831917 ,47,4745014107279 ,72,9217946881486
13.855521 ,Left ,57,0299515104417 ,47,4896655013742 ,72,9295618003662
13.8704584 ,Left ,57,0678837544766 ,47,4381110563958 ,72,9666212419432
13.8927948 ,Left ,57,1513384464199 ,47,3749901573152 ,73,0181383128926
13.9154976 ,Left ,57,1538523625843 ,47,3144668398802 ,73,0741499030403
13.9302653 ,Left ,57,1254821650536 ,47,320816509733 ,73,1097480507715
13.9526688 ,Left ,57,0800087116293 ,47,3451946787661 ,73,1189218914059
13.9752554 ,Left ,57,0944215477616 ,47,3768945215746 ,73,1392590295802
13.9902966 ,Left ,57,1165894036386 ,47,3837845128845 ,73,161976036058
14.0126819 ,Left ,57,1522702397041 ,47,3903954054349 ,73,2029185014909
14.035438 ,Left ,57,168983208411 ,47,4039828433985 ,73,2398954297026
14.0502537 ,Left ,57,1222198384963 ,47,4266576575787 ,73,294911582084
14.0726376 ,Left ,57,098004711014 ,47,4436349617577 ,73,3492795331076
14.0959831 ,Left ,57,0529576730692 ,47,4468333823173 ,73,4043098581043
14.110743 ,Left ,57,0517293374049 ,47,4657240014598 ,73,4537211986718
14.13351 ,Left ,57,0532317160543 ,47,4855279183402 ,73,4981232185044
14.155774 ,Left ,57,0485183947336 ,47,5153204953034 ,73,5489028721476
14.1781862 ,Left ,57,0402382493221 ,47,5541698681084 ,73,5951208994727
14.1932391 ,Left ,57,0375780977977 ,47,5908645287662 ,73,6335795248152
14.2154007 ,Left ,57,0245625598606 ,47,6061574372486 ,73,6783568771578
14.237825 ,Left ,57,0159792033055 ,47,6111421253541 ,73,7248785691134
14.2526717 ,Left ,57,0092871303403 ,47,6121147374295 ,73,7710930150996
14.2752344 ,Left ,56,9881150610001 ,47,6186004272664 ,73,816270499833
14.2979072 ,Left ,56,9528691298094 ,47,6308399099701 ,73,860505981337
14.3129581 ,Left ,56,9280381472285 ,47,6400878348816 ,73,9001648323144
14.3352252 ,Left ,56,9235498935178 ,47,6387386447368 ,73,9381792353131
14.3582401 ,Left ,56,9433367371467 ,47,6246515156548 ,73,9775526714626
14.3732555 ,Left ,56,9595070867688 ,47,5994657603051 ,74,0036765938943
14.3953724 ,Left ,56,9573348493728 ,47,5748115320797 ,74,0135234887784
14.4178784 ,Left ,56,9271212308899 ,47,5548160326345 ,74,0120043884369
14.43282 ,Left ,56,9027077109362 ,47,5370548050787 ,73,9949729772472
14.455622 ,Left ,56,9252117149299 ,47,5056436448033 ,73,9459386554896
14.4779896 ,Left ,56,9541604881707 ,47,4744444888067 ,73,8783846335434
14.5005049 ,Left ,56,9597647750699 ,47,4632304741293 ,73,8524539503029
14.5229684 ,Left ,56,9359333757922 ,47,5030083698163 ,73,8553478850398
14.5531245 ,Left ,57,0218234273644 ,47,6166832556137 ,73,8731609960609
14.5755558 ,Left ,57,1490352083842 ,47,551480532085 ,73,9275552522176
14.5980488 ,Left ,57,2870063746104 ,47,4964776900478 ,73,9855026443735
14.6130467 ,Left ,57,3202175458472 ,47,4808663731532 ,73,9877054270825
14.6355338 ,Left ,57,2196098996685 ,47,4928393855184 ,73,9475240433635
14.6580902 ,Left ,57,0935798872132 ,47,4838940427739 ,73,8593358384848
14.6730869 ,Left ,57,0541053439264 ,47,4481987996852 ,73,7487941126731
14.6953789 ,Left ,57,0744845323803 ,47,3744148255701 ,73,6378673989162
14.7180913 ,Left ,57,0796338745444 ,47,3648067779963 ,73,6177209652248
14.7329276 ,Left ,57,1418179099738 ,47,3752260110753 ,73,6410765511763
14.7555825 ,Left ,57,1523674327595 ,47,3788932097954 ,73,6955657231536
14.778298 ,Left ,57,2207905788622 ,47,3707480561581 ,73,7254423221021
14.7934162 ,Left ,57,2618497484525 ,47,3797500352722 ,73,7018410879463
14.815687 ,Left ,57,1980008638983 ,47,4249388230648 ,73,6589895981281
14.8383852 ,Left ,57,1418684587998 ,47,439777883125 ,73,631853320134
14.8529854 ,Left ,57,1605105498392 ,47,4471899037853 ,73,6188715111408
14.8754652 ,Left ,57,1680418173678 ,47,4609101954665 ,73,6220513915073
14.897836 ,Left ,57,1631438325315 ,47,4998373285461 ,73,6496598360004
14.9129763 ,Left ,57,1472285543797 ,47,53783153176 ,73,6618780201852
14.9354627 ,Left ,57,175806177886 ,47,5633635014735 ,73,6588217961359
14.958043 ,Left ,57,1673433575184 ,47,5972571360601 ,73,6327966647921
14.9729478 ,Left ,57,1361758956105 ,47,6644368728786 ,73,6201710819463
14.9953419 ,Left ,57,0797292769737 ,47,6877543218421 ,73,6354723151256
15.0178694 ,Left ,57,0270643546991 ,47,6813905144369 ,73,6961254642267
15.0325882 ,Left ,56,9766463950089 ,47,6756610905973 ,73,7490796359322
15.0550559 ,Left ,56,9307102024049 ,47,6585111535594 ,73,7512745454056
15.0783413 ,Left ,56,9014967614687 ,47,6158314479604 ,73,7436116469165
15.0934075 ,Left ,56,9037120065637 ,47,5907395394676 ,73,7483241036568
15.115982 ,Left ,56,8626024897207 ,47,6071549214858 ,73,7399851823522
15.1383916 ,Left ,56,7872609026924 ,47,691247785889 ,73,6879622592075
15.1607435 ,Left ,56,85851954266 ,47,7455066555495 ,73,6616572496873
15.1755697 ,Left ,57,0052387321077 ,47,7126685907143 ,73,6678778494594
15.1980134 ,Left ,57,1289452969394 ,47,6772814058444 ,73,6818928908915
15.2203548 ,Left ,57,1109491213102 ,47,6693770005626 ,73,6450245399386
15.235305 ,Left ,57,0583676753136 ,47,6886829751248 ,73,5722494079911
15.2575413 ,Left ,57,0253127107206 ,47,7014357278341 ,73,4848459081531
15.2802571 ,Left ,57,0119149225158 ,47,6940988230006 ,73,413494764716
15.295247 ,Left ,57,0437780860899 ,47,6869536531237 ,73,3536795304566
15.3183105 ,Left ,57,07116814888 ,47,6830719860502 ,73,3184981063356
15.3405336 ,Left ,57,039659884871 ,47,7003800453037 ,73,292627277525
15.355714 ,Left ,56,9305757130404 ,47,7074307571313 ,73,2415463996168
15.3782287 ,Left ,56,7959772215111 ,47,7007789531008 ,73,1883926030071
15.4008434 ,Left ,56,6877346552208 ,47,6644833816636 ,73,0967700794568
15.4157639 ,Left ,56,5709529187624 ,47,6307683262378 ,73,0433210401618
15.438194 ,Left ,56,5032969579532 ,47,646372560341 ,73,0622716801161
15.4607817 ,Left ,56,5821416658371 ,47,7048686028377 ,73,0636162219606
15.4755308 ,Left ,56,7072229057435 ,47,7530849609329 ,73,0559155087772
15.497839 ,Left ,56,8688537144646 ,47,7497072400928 ,73,0995356831278
15.5204904 ,Left ,57,0332668720872 ,47,7016195425707 ,73,1316487382375
15.5353296 ,Left ,57,0576807756467 ,47,6731313894712 ,73,1573824374302
15.5579288 ,Left ,56,9640881884282 ,47,7229467925833 ,73,1831838079655
15.5804015 ,Left ,56,8697045135612 ,47,8161890866836 ,73,2375111434758
15.5954517 ,Left ,56,8761608545074 ,47,9147495904517 ,73,2786115729799
15.6177334 ,Left ,56,9390465192944 ,47,965918206231 ,73,2440062617503
15.6406626 ,Left ,57,0141817376824 ,47,9185378930897 ,73,1514332869858
15.6552761 ,Left ,57,0345755372095 ,47,7928745762695 ,73,1034769999549
15.6853957 ,Left ,57,0141756323946 ,47,6693941409037 ,73,1403232759194
15.707868 ,Left ,56,9748983620253 ,47,6124920269451 ,73,1859706903005
15.7228287 ,Left ,56,9011580958612 ,47,6297426471546 ,73,1903341704301
15.7379222 ,Left ,56,9109280075971 ,47,6584441436181 ,73,1959796357675
15.7610567 ,Left ,57,0015724608909 ,47,6332875169909 ,73,2306184058789
15.782538 ,Left ,57,0933258984397 ,47,5797903987622 ,73,2774265744923
15.797731 ,Left ,57,126799076616 ,47,5406438761798 ,73,3000428986001
15.8202088 ,Left ,57,130109048993 ,47,5390653773033 ,73,2947412796069
15.8352681 ,Left ,57,1141420965516 ,47,5596462388379 ,73,2823348246013
15.857842 ,Left ,57,1125296229933 ,47,5754334536018 ,73,2873912418497
15.8806599 ,Left ,57,1495764639195 ,47,5892529710007 ,73,3081572050569
15.8953381 ,Left ,57,1524969427628 ,47,5842282533996 ,73,3240706720698
15.9180029 ,Left ,57,1709911185424 ,47,5885526823126 ,73,351822981661
15.9478581 ,Left ,57,161703868019 ,47,5732552722852 ,73,3863702608075
15.9627737 ,Left ,57,1478118076178 ,47,5716130881193 ,73,4363403304665
15.9858521 ,Left ,57,1387656348009 ,47,5758037974578 ,73,4851548782904
16.0160512 ,Left ,57,1432194745203 ,47,6193819402423 ,73,5697761000114
16.0382454 ,Left ,57,1405267225912 ,47,611491834997 ,73,6038826669237
16.0609655 ,Left ,57,146246849778 ,47,6059008986505 ,73,6423437881759
16.0835458 ,Left ,57,1158137217115 ,47,6154606462524 ,73,6783457672208
16.0982302 ,Left ,57,0925167456766 ,47,6313269658421 ,73,7052883985136
16.1211007 ,Left ,57,0757758940082 ,47,6353381972725 ,73,7367945833292
16.142752 ,Left ,57,0660734908221 ,47,6350945589101 ,73,7685900537343
16.1576803 ,Left ,57,0455462555928 ,47,6323135409035 ,73,798541492329
16.1801904 ,Left ,57,024214010704 ,47,6314820030991 ,73,8314710045775
16.2027369 ,Left ,57,022563713267 ,47,6256825201173 ,73,8580428837447
16.2178017 ,Left ,57,0110575164289 ,47,6185455040869 ,73,8830808707948
16.2403642 ,Left ,57,00077175473 ,47,6099078185174 ,73,9080697530879
16.2630506 ,Left ,57,0110996436928 ,47,6007248975577 ,73,9246966323845
16.2777521 ,Left ,57,0151612259612 ,47,5693405252312 ,73,9453756443588
16.3004736 ,Left ,56,9943806717981 ,47,5484061646162 ,73,9560314868752
16.3226817 ,Left ,56,9669617139131 ,47,5472020722344 ,73,9466216146583
16.3378983 ,Left ,56,9712249309279 ,47,5375110967164 ,73,9207113620401
16.3602903 ,Left ,56,9797956060362 ,47,5444686315893 ,73,8757107078094
16.383009 ,Left ,57,028219422197 ,47,5768068504134 ,73,8677767353138
16.3982574 ,Left ,56,9928718056637 ,47,6101409611435 ,73,8682143193002
16.4208911 ,Left ,56,9892563431124 ,47,6537762408205 ,73,8690065849603
16.443212 ,Left ,57,0477059045099 ,47,6108312713625 ,73,9007320041711
16.4579252 ,Left ,57,1967938053146 ,47,5522578692686 ,73,9649867577547
16.4804845 ,Left ,57,2928824970992 ,47,5270827263132 ,73,9634049546853
16.5028107 ,Left ,57,2450989039316 ,47,5316709616206 ,73,9099906297847
16.5176068 ,Left ,57,1418723699651 ,47,500335567906 ,73,8156959818862
16.5403212 ,Left ,57,0776030394771 ,47,4183679003563 ,73,7140802876071
16.5628837 ,Left ,57,0193984241144 ,47,3742699702914 ,73,6391903506648
16.5776911 ,Left ,57,0075146935916 ,47,4334984536521 ,73,6190782990413
16.6011353 ,Left ,57,0662536512555 ,47,4766917991597 ,73,6608462038436
16.6229855 ,Left ,57,155453983576 ,47,4638134477541 ,73,7147915127309
16.6376682 ,Left ,57,2610387515624 ,47,4204217218029 ,73,7470293409313
16.6611787 ,Left ,57,2252055571982 ,47,3976604808738 ,73,7191746938341
16.6834972 ,Left ,57,1118753001529 ,47,4116746861724 ,73,684318999605
16.6982404 ,Left ,57,0468071227682 ,47,407343713555 ,73,6835281792457
16.7205434 ,Left ,57,0701320888465 ,47,4546334360609 ,73,6772376213376
16.7429469 ,Left ,57,0660433869779 ,47,5410093048537 ,73,651557720536
16.7577962 ,Left ,57,0528372104796 ,47,6342984139111 ,73,6562744481896
16.780284 ,Left ,57,0893866836985 ,47,6934562646315 ,73,6873176477558
16.8028074 ,Left ,57,1288988454403 ,47,7192464723372 ,73,6832166824845
16.8178607 ,Left ,57,0997187659155 ,47,7790552015879 ,73,653165768876
16.8402365 ,Left ,57,0380917430069 ,47,8468221531366 ,73,6529353103592
16.8628054 ,Left ,57,0046059255673 ,47,86081936962 ,73,6945347771321
16.8776801 ,Left ,56,9505119889213 ,47,8481424999077 ,73,7261718044675
16.9005758 ,Left ,56,888110543142 ,47,828257808771 ,73,7061259887463
16.9229143 ,Left ,56,8906766953857 ,47,798777428068 ,73,6605764955861
16.9377521 ,Left ,56,8699983755248 ,47,7707736658609 ,73,6368934799496
16.9605391 ,Left ,56,8201656582195 ,47,7819115311018 ,73,6183340370679
16.9829545 ,Left ,56,7224526167543 ,47,8796496663753 ,73,5906044613303
17.0054414 ,Left ,56,7062010563328 ,47,9839993077414 ,73,574720328624
17.0206033 ,Left ,56,8135177036831 ,48,026499384927 ,73,5961533054299
17.0429456 ,Left ,56,9720568209491 ,48,0146327636284 ,73,6138027813929
17.0659655 ,Left ,57,0486845610791 ,48,0119654296734 ,73,6107285168194
17.0807805 ,Left ,57,0229018867026 ,48,0339995242093 ,73,5778405385741
17.1029251 ,Left ,56,9591759555828 ,48,067212555026 ,73,5332337938098
17.1254879 ,Left ,56,9204227256369 ,48,0925350373117 ,73,4828401766977
17.1406815 ,Left ,56,910969385601 ,48,0855002829397 ,73,4421557438922
17.1630398 ,Left ,56,9145873727483 ,48,0607269388738 ,73,4140119566896
17.1853753 ,Left ,56,8975754888133 ,48,0607239522382 ,73,3517644927793
17.2002354 ,Left ,56,8747469977898 ,48,071550773085 ,73,2528253110051
17.2229521 ,Left ,56,8202767505212 ,48,0606289771904 ,73,1220237018389
17.2453768 ,Left ,56,7207761417498 ,47,9682870414855 ,72,9622076257759
17.2602899 ,Left ,56,6840091160312 ,47,8394257572176 ,72,8810396275858
17.2829371 ,Left ,56,6903456403982 ,47,7505782397421 ,72,8412470387425
17.3052932 ,Left ,56,6658050478469 ,47,7530498679423 ,72,7959398441642
17.3202195 ,Left ,56,7125382078738 ,47,8028866041754 ,72,7797604932882
17.3429622 ,Left ,56,8827384611313 ,47,7926121297522 ,72,8442449738418
17.3655598 ,Left ,57,0629223155247 ,47,6857359206946 ,72,9220923372369
17.3806017 ,Left ,57,1671115486526 ,47,547684238891 ,72,9720357013672
17.4028439 ,Left ,57,1440448504612 ,47,4513718474293 ,72,9860647364227
17.4253901 ,Left ,57,0315623134547 ,47,4188480464323 ,73,0079820974048
17.4408179 ,Left ,56,9802015432349 ,47,4364106837285 ,73,0397545885719
17.4634722 ,Left ,57,0308276921669 ,47,4617901998914 ,73,025448709898
17.4858953 ,Left ,57,1355045956905 ,47,4695810267199 ,72,9852125207603
17.5010238 ,Left ,57,1887869457931 ,47,4129431422885 ,72,9636884964611
17.5235506 ,Left ,57,2042260094329 ,47,3578054039677 ,72,997403951978
17.5383804 ,Left ,57,1196167022047 ,47,3665266850614 ,73,0184408830654
17.553133 ,Left ,57,0170841496496 ,47,4303657963698 ,73,0296756005597
17.5754749 ,Left ,57,0437207202152 ,47,4669843126128 ,73,0494916966743
17.5977477 ,Left ,57,1243167941952 ,47,4453138271996 ,73,0910689162744
17.612988 ,Left ,57,2444083850831 ,47,4396888662839 ,73,1325071735746
17.6352062 ,Left ,57,2722048846099 ,47,4187456731434 ,73,1544275715381
17.6583775 ,Left ,57,2801516071521 ,47,4081117209601 ,73,1837083900349
17.6735081 ,Left ,57,2712764202982 ,47,4245104914209 ,73,2151920516717
17.6958458 ,Left ,57,2586014430006 ,47,4375246870436 ,73,2375670589722
17.7183589 ,Left ,57,2432979979289 ,47,4477547137896 ,73,2591347386754
17.7328823 ,Left ,57,2746549908184 ,47,4691829131369 ,73,269432773689
17.7555345 ,Left ,57,2590115607799 ,47,4815212913134 ,73,2748555197142
17.7779608 ,Left ,57,2462065966371 ,47,4877479626333 ,73,3015325197321
17.7930508 ,Left ,57,2328435080124 ,47,4638127271461 ,73,3424104546112
17.8155866 ,Left ,57,2305540010922 ,47,4543569367091 ,73,3899072237519
17.83807 ,Left ,57,2192409582611 ,47,4514840361471 ,73,4071613055192
17.8530785 ,Left ,57,1904251222855 ,47,4567712952113 ,73,4234445030231
17.875482 ,Left ,57,2008043042796 ,47,4799364636301 ,73,4477356201717
17.8979312 ,Left ,57,1968457268509 ,47,5047098834427 ,73,4759472457937
17.9129535 ,Left ,57,1840490263561 ,47,5302902399836 ,73,5168047056665
17.9354285 ,Left ,57,1792813332816 ,47,5549107070957 ,73,5587032360239
17.9730559 ,Left ,57,1522687011504 ,47,5760479333547 ,73,6438684725672
17.9954989 ,Left ,57,1422128370565 ,47,5784369557327 ,73,6953310301876
18.0326008 ,Left ,57,0955200353245 ,47,5935479241418 ,73,799203589039
18.0553906 ,Left ,57,0729628458961 ,47,5942300672553 ,73,8516528053982
18.0929887 ,Left ,57,0662562679804 ,47,5776797301295 ,73,9564285505725
18.1155477 ,Left ,57,0763575356553 ,47,5759509988757 ,74,0020884897872
18.1529764 ,Left ,57,0741418047464 ,47,5749304220728 ,74,0518055390818
18.175436 ,Left ,57,0305874652943 ,47,5731693725901 ,74,0510941359779
18.2129131 ,Left ,57,0670068634841 ,47,6160916799457 ,73,943118877607
18.2354943 ,Left ,57,0792134210403 ,47,6375481827541 ,73,9482115895809
18.2732433 ,Left ,57,1290864901158 ,47,7412491353058 ,73,9498009294454
18.2959375 ,Left ,57,1732138342034 ,47,7087382319741 ,73,9842349872733
18.3183779 ,Left ,57,2862532445629 ,47,6710841891486 ,74,044795492034
18.3556282 ,Left ,57,3097643862487 ,47,6643279127854 ,74,0387846512299
18.3779714 ,Left ,57,2138419381801 ,47,6764238487215 ,73,9736894268411
18.4152906 ,Left ,57,1553842512169 ,47,5956053751401 ,73,7385571648871
18.4454756 ,Left ,57,1434059728755 ,47,5214855380023 ,73,6836041221288
18.4826728 ,Left ,57,1976953116139 ,47,532920244119 ,73,7010783749422
18.4979159 ,Left ,57,228426460615 ,47,5464944183558 ,73,7130326539735
18.5353929 ,Left ,57,2523088047092 ,47,5234242799667 ,73,698750310651
18.5728112 ,Left ,57,138280386038 ,47,5344791553188 ,73,6187505315369
18.5952996 ,Left ,57,1599283349606 ,47,5874642146729 ,73,6246676762252
18.6331106 ,Left ,57,2121898490199 ,47,6877504868915 ,73,6759711433101
18.6555044 ,Left ,57,2627158274074 ,47,7021890787091 ,73,7049258985521
18.6927014 ,Left ,57,148319354118 ,47,7957565393395 ,73,6353069610446
18.7227706 ,Left ,57,0613629127991 ,47,8601958254183 ,73,6529421507297
18.7610621 ,Left ,57,0590073518479 ,47,7759197899373 ,73,737840763574
18.7760947 ,Left ,57,0242286241205 ,47,7172830453889 ,73,7373136555326
18.8135075 ,Left ,56,944693578616 ,47,7893701709899 ,73,6773822682854
18.8359525 ,Left ,56,8604059904996 ,47,9154485588028 ,73,6202358768238
18.8728951 ,Left ,56,8478583091061 ,48,0876132091347 ,73,676683816809
18.895417 ,Left ,56,9629504709848 ,48,0624369556864 ,73,7412645474028
18.9331392 ,Left ,57,1259940034194 ,48,0306473033115 ,73,7573130078895
18.9555816 ,Left ,57,1211191553578 ,48,0341496037665 ,73,7406481791858
18.9930756 ,Left ,57,0135606262447 ,48,1182015949782 ,73,6429115652772
19.0156007 ,Left ,57,0009498638235 ,48,1593930495991 ,73,5441442814667
19.0529785 ,Left ,57,0262153151712 ,48,2296283356433 ,73,3775754430849
19.0754694 ,Left ,57,0160789001373 ,48,2618694370137 ,73,3329078898233
19.1129769 ,Left ,56,8294683803286 ,48,2685242541475 ,73,1421223948869
19.1354206 ,Left ,56,731393372784 ,48,2306799925707 ,73,0253213475548
19.1728587 ,Left ,56,6238410929875 ,48,2105098260596 ,72,9540923119888
19.1952651 ,Left ,56,6502386707332 ,48,2315465835485 ,72,9743633414602
19.2326029 ,Left ,56,87724643844 ,48,1953909303985 ,73,0797877508435
19.2554041 ,Left ,57,0559038053869 ,48,0701905262038 ,73,126313191107
19.2932864 ,Left ,57,0666179321881 ,47,7593142118935 ,73,1400932575611
19.3157109 ,Left ,56,9867749384806 ,47,6699168600703 ,73,1775749240839
19.352809 ,Left ,57,0552576747371 ,47,6335489050894 ,73,2648002632981
19.3755595 ,Left ,57,1620507255221 ,47,6222559923239 ,73,2006851141112
19.4055718 ,Left ,57,2542785639214 ,47,5764459876041 ,73,1562851075247
19.4278711 ,Left ,57,254204796386 ,47,6126114736937 ,73,1596191532946
19.4501584 ,Left ,57,2579632016704 ,47,6616695639955 ,73,1683367940795
19.4726598 ,Left ,57,3062184508045 ,47,6505508228972 ,73,1948216831227
19.4878903 ,Left ,57,3791680188432 ,47,605413365646 ,73,2243955194733
19.510182 ,Left ,57,4396786633257 ,47,5475848777049 ,73,2446797314519
19.5250856 ,Left ,57,4207487929216 ,47,4929428826573 ,73,2628348947241
19.547731 ,Left ,57,3813455417929 ,47,4902788178427 ,73,2926092019743
19.5702866 ,Left ,57,3494079581669 ,47,511049638504 ,73,3027518273926
19.585498 ,Left ,57,3425119795818 ,47,5323531540977 ,73,3135806033274
19.608439 ,Left ,57,3674027931881 ,47,5495782030838 ,73,3226196389798
19.6308255 ,Left ,57,380353565418 ,47,570510165908 ,73,3389449176165
19.6460189 ,Left ,57,3916069996452 ,47,6096149503505 ,73,3662990774377
19.6680986 ,Left ,57,3559551328455 ,47,638362048222 ,73,3963692366887
19.6909513 ,Left ,57,3308458578558 ,47,6747787103332 ,73,4319755042757
19.7056465 ,Left ,57,3042449248151 ,47,6914680485704 ,73,4667298770207
19.7281825 ,Left ,57,2865955703409 ,47,7075889202389 ,73,5108833675707
19.7509001 ,Left ,57,2838288521941 ,47,7156981888003 ,73,5365911830686
19.7658675 ,Left ,57,2550699108976 ,47,7160947645186 ,73,5628320258917
19.7881063 ,Left ,57,2465110333092 ,47,7259387306367 ,73,5935565593861
19.8103169 ,Left ,57,24148772235 ,47,7496856806096 ,73,6188655161532
19.8254626 ,Left ,57,2340789848316 ,47,7785192276541 ,73,6336819400795
19.8475054 ,Left ,57,2202961588009 ,47,7900938337053 ,73,6556869736525
19.870857 ,Left ,57,2223329641981 ,47,794720185611 ,73,6788115455618
19.8935794 ,Left ,57,1982872336235 ,47,795052547767 ,73,7002144156542
19.9082676 ,Left ,57,1695234417234 ,47,8055627630699 ,73,7199016834005
19.9307608 ,Left ,57,1430970409782 ,47,8229866807154 ,73,7327796552855
19.9530664 ,Left ,57,126339003722 ,47,8292251576464 ,73,7479731642579
19.967683 ,Left ,57,1183118911243 ,47,8104583178173 ,73,7740604758846
19.990447 ,Left ,57,1069185012344 ,47,7894168667705 ,73,8104016407388
20.01307 ,Left ,57,104420025305 ,47,7858641012604 ,73,8371019739817
20.027806 ,Left ,57,082937362514 ,47,7918208354784 ,73,8599240901527
20.0504006 ,Left ,57,0363398394453 ,47,7853665950733 ,73,8467044678116
20.0726073 ,Left ,57,058628991341 ,47,7642194244484 ,73,8104643424666
20.0878485 ,Left ,57,1009294709215 ,47,7446127383091 ,73,7883575196482
20.1104023 ,Left ,57,1292432014164 ,47,7431729690974 ,73,8031917276942
20.1326693 ,Left ,57,102361884251 ,47,8039316232864 ,73,8204333218747
20.1476905 ,Left ,57,1560614326567 ,47,8160045017861 ,73,8468223139295
20.170913 ,Left ,57,2412033587272 ,47,7333384402424 ,73,9120412146598
20.1935594 ,Left ,57,3396722016101 ,47,6637139463709 ,73,9817428126029
20.2082965 ,Left ,57,3687800325419 ,47,6406801159254 ,73,9849924047958
20.2310281 ,Left ,57,3186838408729 ,47,6286198325413 ,73,9671686641403
20.2533947 ,Left ,57,2670046008312 ,47,617535416151 ,73,9132315163034
20.26822 ,Left ,57,2465354023283 ,47,577655856799 ,73,7954282549892
20.2902167 ,Left ,57,2298585738734 ,47,4986982120239 ,73,6805972634669
20.3127214 ,Left ,57,2006123779889 ,47,4682755925025 ,73,6496599472814
20.3278588 ,Left ,57,2133934604601 ,47,4879446411229 ,73,6517683482953
20.3501923 ,Left ,57,2551593007531 ,47,5152853237138 ,73,6729354586926
20.3729451 ,Left ,57,3503048740007 ,47,5265136833247 ,73,6880056022222
20.3877019 ,Left ,57,3748278825148 ,47,5171935748537 ,73,6650445346977
20.4109931 ,Left ,57,2921836135764 ,47,5370674065322 ,73,6180465574919
20.4334236 ,Left ,57,2361723476105 ,47,583159653936 ,73,5848422709219
20.4479941 ,Left ,57,2168569606188 ,47,650420389532 ,73,5602158882971
20.4711394 ,Left ,57,2463336729532 ,47,7144116442052 ,73,5695738387935
20.4936081 ,Left ,57,25496888179 ,47,7484897216485 ,73,5875350079564
20.5085102 ,Left ,57,3019199000393 ,47,7791057334053 ,73,6216431543485
20.530741 ,Left ,57,3297634916513 ,47,8177862963167 ,73,5911036724587
20.5535309 ,Left ,57,2468892243946 ,47,9183100528965 ,73,5441530716534
20.5759834 ,Left ,57,157642357513 ,48,0196691023932 ,73,5403685634839
20.5910275 ,Left ,57,0959150420947 ,48,055418981663 ,73,6059313156928
20.6129551 ,Left ,57,0276405794356 ,48,0441532773376 ,73,6597506985293
20.6359584 ,Left ,57,0245888389622 ,48,0065572105291 ,73,6309662451552
20.6508141 ,Left ,56,9949755053975 ,47,9450670523518 ,73,5862646347076
20.6733601 ,Left ,56,9686647092225 ,47,9370715292477 ,73,5483710525715
20.6879287 ,Left ,56,8927767107324 ,47,9992996362799 ,73,4989045295717
20.7104633 ,Left ,56,8353643679311 ,48,0974510688948 ,73,466207337356
20.7327894 ,Left ,56,9178680573807 ,48,1488477062466 ,73,4701974234824
20.7553173 ,Left ,57,0782851016745 ,48,1400917519315 ,73,4840020459322
20.7702442 ,Left ,57,175467267362 ,48,1108407508375 ,73,4715535171052
20.7926846 ,Left ,57,2034981526511 ,48,0948007269949 ,73,4647111663128
20.8154847 ,Left ,57,1688680725336 ,48,0935519151741 ,73,4592979074692
20.830203 ,Left ,57,1205989425684 ,48,1187814651702 ,73,4401603890527
20.8528858 ,Left ,57,0549124845636 ,48,1477616446701 ,73,3892439071132
20.875492 ,Left ,57,0410543880444 ,48,1775341861582 ,73,3163194096621
20.8905528 ,Left ,57,0529499537888 ,48,2113118621149 ,73,2480370426283
20.912837 ,Left ,57,0593075431151 ,48,2393130944048 ,73,1755578359649
20.9351946 ,Left ,56,9995366542447 ,48,2392716941758 ,73,1182014592756
20.9502448 ,Left ,56,8786651566201 ,48,2058329615471 ,73,0440496217989
20.9729462 ,Left ,56,7580563340208 ,48,1446101426588 ,72,9261664717583
20.9952823 ,Left ,56,6404299367879 ,48,1140675588266 ,72,8656648855853
21.0104166 ,Left ,56,5828164966863 ,48,1260553035189 ,72,833656405814
21.0326064 ,Left ,56,5571080462587 ,48,1555466656375 ,72,8485577880281
21.0553629 ,Left ,56,6946320176367 ,48,1462171229182 ,72,9019954545113
21.0703685 ,Left ,56,8999620481091 ,48,0225777860965 ,72,9621218495203
21.0927954 ,Left ,57,1002537497642 ,47,8464371638741 ,72,977999228422
21.1152817 ,Left ,57,1214651111065 ,47,7049402572206 ,72,9948594590655
21.1304092 ,Left ,56,9878051904359 ,47,6780567371091 ,73,0435778121586
21.1532884 ,Left ,56,8923475070802 ,47,7107010924847 ,73,0881479599673
21.1756648 ,Left ,56,9486131148474 ,47,7580950013676 ,73,0515511991537
21.1907852 ,Left ,57,0791659279259 ,47,7651644419224 ,72,9696533762664
21.213189 ,Left ,57,1959409267527 ,47,7343227708174 ,72,9744993948702
21.2354424 ,Left ,57,2468046541078 ,47,7284929675282 ,73,0100031948178
21.2507581 ,Left ,57,207235522276 ,47,7861699078336 ,73,0226399603978
21.2731653 ,Left ,57,1833664813586 ,47,8316922078604 ,73,0488747893557
21.2956498 ,Left ,57,2674092398657 ,47,8117617208144 ,73,0786965403559
21.3106692 ,Left ,57,3401244276966 ,47,7479948052931 ,73,1102321512356
21.333186 ,Left ,57,3856602476837 ,47,6818375511292 ,73,1349761954545
21.3556106 ,Left ,57,3693445298654 ,47,6366388713699 ,73,1493700974202
21.3701128 ,Left ,57,3212944345833 ,47,6416546149011 ,73,1627346164071
21.3927135 ,Left ,57,3180224441518 ,47,6442414060962 ,73,162690533384
21.4152318 ,Left ,57,3426386411561 ,47,6392715846793 ,73,1760904120113
21.4302671 ,Left ,57,3947183066462 ,47,6370570788366 ,73,1937527999333
21.4527306 ,Left ,57,3877312796849 ,47,6427307736965 ,73,2238077495303
21.4754262 ,Left ,57,3715464515302 ,47,665166027628 ,73,277289402697
21.4903643 ,Left ,57,3549949876543 ,47,6897104885694 ,73,3338548547081
21.5129914 ,Left ,57,3342735607421 ,47,7233142300361 ,73,3996482879022
21.5352285 ,Left ,57,3179519232667 ,47,7459246848716 ,73,4478496109303
21.5503475 ,Left ,57,3028714087243 ,47,7641735565881 ,73,4954514120802
21.572832 ,Left ,57,3131256359956 ,47,7896113125844 ,73,53977265938
21.5951174 ,Left ,57,302103057405 ,47,8219834897878 ,73,5822565780039
21.6103379 ,Left ,57,2754628442204 ,47,8580028046171 ,73,6258486898498
21.6328065 ,Left ,57,2545812509071 ,47,8808105261365 ,73,6597429126833
21.6559977 ,Left ,57,2491117036416 ,47,887836219641 ,73,6904577524186
21.6710464 ,Left ,57,2479165641318 ,47,8911319054936 ,73,7184126607182
21.6933316 ,Left ,57,241806730267 ,47,902562203434 ,73,7360339590684
21.7155479 ,Left ,57,2210515968427 ,47,9155534515483 ,73,7572443833988
21.7379999 ,Left ,57,2042437145222 ,47,9320899667101 ,73,7824265711878
21.7529684 ,Left ,57,187705630197 ,47,9459545347014 ,73,8071923301636
21.7754575 ,Left ,57,168705655636 ,47,9787472029598 ,73,8099742661451
21.7979397 ,Left ,57,1462056743884 ,48,0059271209904 ,73,8057348136606
21.8129538 ,Left ,57,1342240297714 ,48,0123789364387 ,73,8326522077049
21.8355546 ,Left ,57,1217574659117 ,48,0032152619699 ,73,8789495165229
21.8580319 ,Left ,57,0836150537024 ,47,9936237289512 ,73,924142968878
21.8726349 ,Left ,57,045678714337 ,47,9755063660626 ,73,9320261502663
21.8951981 ,Left ,57,0054172206189 ,47,9478862394427 ,73,9076439324026
21.917757 ,Left ,56,9828928463465 ,47,9187965898599 ,73,8829707112529
21.9326326 ,Left ,57,017065397788 ,47,9240327185561 ,73,8943232111374
21.9553738 ,Left ,57,0305281821815 ,47,9784246771195 ,73,885994666859
21.9783264 ,Left ,57,0819976132281 ,48,0017001093704 ,73,9003582410549
21.9964339 ,Left ,57,1984533873288 ,47,9556047438847 ,73,9461615492558
22.0152435 ,Left ,57,3275487103341 ,47,9053491250716 ,73,971283067291
22.0379388 ,Left ,57,3162384298616 ,47,8898201738536 ,73,9390141974425
22.0528764 ,Left ,57,2056607228465 ,47,9021537110529 ,73,9020224718374
22.0752487 ,Left ,57,1671175872321 ,47,9055115609333 ,73,8275894214567
22.097884 ,Left ,57,1636251963761 ,47,8482123882365 ,73,7124468483184
22.1131769 ,Left ,57,1748689867809 ,47,765153903183 ,73,5927085173792
22.1354261 ,Left ,57,1505999752772 ,47,7759211071542 ,73,5663235806208
22.1581176 ,Left ,57,1798414696996 ,47,8291735706977 ,73,5849415514474
22.1730667 ,Left ,57,1853329336444 ,47,8766567182335 ,73,6075690699043
22.1952926 ,Left ,57,2808609990789 ,47,9054517539405 ,73,6294074783103
22.2179216 ,Left ,57,2997044402834 ,47,8860681708787 ,73,5985611949128
22.2330498 ,Left ,57,2164973738843 ,47,8851564413192 ,73,5613787165277
22.2549995 ,Left ,57,1378620065626 ,47,914651275277 ,73,5522671759221
22.2778475 ,Left ,57,0946060831284 ,47,9681323404942 ,73,5414396603016
22.292664 ,Left ,57,0731300291887 ,48,0412165271559 ,73,5207147339548
22.3152964 ,Left ,57,0528303952353 ,48,1283052597007 ,73,5136517899229
22.3378799 ,Left ,57,0602136514187 ,48,1650629861726 ,73,5402964684841
22.3529554 ,Left ,57,0893691814572 ,48,1584332544102 ,73,592753750499
22.3755026 ,Left ,57,0405741896789 ,48,1637618234654 ,73,6000236432217
22.3979785 ,Left ,56,9591758581274 ,48,1925433048552 ,73,592879068606
22.4131819 ,Left ,56,9051096934144 ,48,2160576360996 ,73,5998456622415
22.4358855 ,Left ,56,8835191175692 ,48,1885916208937 ,73,6247827411497
22.4584676 ,Left ,56,8348833727817 ,48,1191055513302 ,73,6526329350976
22.4733855 ,Left ,56,779585623895 ,48,060216103723 ,73,6433783865054
22.4961619 ,Left ,56,7694983105881 ,48,0527011231096 ,73,6189116838468
22.518145 ,Left ,56,7604679409376 ,48,0980354483535 ,73,5703758350241
22.5330107 ,Left ,56,6785751163994 ,48,2079512993404 ,73,5169324116296
22.5555445 ,Left ,56,7220116246285 ,48,2813659000433 ,73,5243370751184
22.5780851 ,Left ,56,8986492117357 ,48,2539077810377 ,73,5808011901261
22.6005941 ,Left ,57,0269569422519 ,48,1851992416978 ,73,6345564865497
22.6153989 ,Left ,57,0536793995274 ,48,1652487291284 ,73,6406275097627
22.6380645 ,Left ,56,9998741355062 ,48,1545947226313 ,73,6224595626478
22.6606697 ,Left ,56,9816358812534 ,48,1417639739975 ,73,6148305175604
22.6754669 ,Left ,56,9861118787062 ,48,1211419981701 ,73,5873266053944
22.6981128 ,Left ,56,9924815157372 ,48,0998853094486 ,73,5381667570676
22.7203621 ,Left ,56,9993122340006 ,48,0889679006919 ,73,466285186514
22.7352941 ,Left ,57,0156796861897 ,48,0960024703177 ,73,3853789767514
22.7580218 ,Left ,57,0020297842581 ,48,1142477590847 ,73,3267867570942
22.7804906 ,Left ,56,9876339309875 ,48,133885867751 ,73,2928269429083
22.7955379 ,Left ,56,9919721024253 ,48,1545845752222 ,73,2698991050292
22.8180395 ,Left ,56,9932729640752 ,48,1774745054625 ,73,2496825049353
22.840206 ,Left ,56,9537470214424 ,48,2006531563785 ,73,226355492061
22.8560143 ,Left ,56,8742788105319 ,48,2340457437497 ,73,1802650518185
22.8784192 ,Left ,56,790075387355 ,48,2712360514264 ,73,0939723478467
22.9010525 ,Left ,56,7226809325214 ,48,2939424912802 ,72,9651641769354
22.9160432 ,Left ,56,6813858428135 ,48,2532554641244 ,72,8243899683889
22.9383119 ,Left ,56,6703563285359 ,48,1437606799647 ,72,7516028094125
22.9611417 ,Left ,56,6748894697434 ,48,082647002389 ,72,7208887313297
22.9758521 ,Left ,56,6565996233038 ,48,1106539778755 ,72,6567854421593
22.9978741 ,Left ,56,6952985880257 ,48,152982349557 ,72,634020286039
23.0204842 ,Left ,56,8339639783758 ,48,1021326009976 ,72,6672823933701
23.0355155 ,Left ,57,0175416642944 ,47,9726255247361 ,72,7013117477567
23.0577732 ,Left ,57,053516987892 ,47,8311192565217 ,72,7032982975507
23.0805308 ,Left ,56,9207194059353 ,47,7699086906842 ,72,7033263683408
23.0954233 ,Left ,56,793585559127 ,47,7663774681889 ,72,6927998829522
23.1179239 ,Left ,56,8071406373495 ,47,7585238823363 ,72,6397484695394
23.1403212 ,Left ,56,9277396514867 ,47,7176756616904 ,72,5594918264552
23.1552474 ,Left ,57,0181761307825 ,47,6608682226315 ,72,5397545048597
23.1778527 ,Left ,57,0736626021411 ,47,6572639706243 ,72,5593134209431
23.2004836 ,Left ,57,0479623931033 ,47,7205659072388 ,72,5613608318222
23.2229618 ,Left ,57,0023412330121 ,47,7911745299211 ,72,5887892182694
23.2380121 ,Left ,57,0545077782918 ,47,8152034334228 ,72,6286595303217
23.2605969 ,Left ,57,1572278430637 ,47,8144042747955 ,72,68451877607
23.2755702 ,Left ,57,2154383816084 ,47,7730945640184 ,72,7252564843936
23.2978832 ,Left ,57,1933265360164 ,47,7259383712352 ,72,765260024277
23.3126838 ,Left ,57,1701209802022 ,47,731471817871 ,72,7980992252469
23.327637 ,Left ,57,1101851768762 ,47,7711745963127 ,72,8158678702936
23.3504326 ,Left ,57,0776813386046 ,47,8181218236409 ,72,851770534839
23.372895 ,Left ,57,0806634062393 ,47,8539694157636 ,72,8824133302277
23.387925 ,Left ,57,1215009103995 ,47,8992205394123 ,72,9117945406239
23.41077 ,Left ,57,1168482659395 ,47,9304132161899 ,72,935320702388
23.4331698 ,Left ,57,1024726367329 ,47,9662671860669 ,72,9745610608417
23.4481239 ,Left ,57,0877471731931 ,48,0042389388223 ,73,0168213981983
23.47014 ,Left ,57,0457105013559 ,48,05413275794 ,73,057381681345
23.492912 ,Left ,57,016703227271 ,48,0939155958089 ,73,0817374680848
23.5078043 ,Left ,57,0127137194838 ,48,082078202207 ,73,1088095946416
23.5302148 ,Left ,57,0353253527774 ,48,0500345818633 ,73,1632679952147
23.5529085 ,Left ,57,056535664942 ,48,010823618148 ,73,2353269962891
23.5679137 ,Left ,57,0135734770298 ,47,9883448941527 ,73,3232438371285
23.5905129 ,Left ,56,9583846618517 ,47,9677862351819 ,73,4127406102151
23.6132255 ,Left ,56,9421076730484 ,47,9521748621088 ,73,5143427554317
23.6282317 ,Left ,56,9368016911299 ,47,9326731944691 ,73,6226469892741
23.6504828 ,Left ,56,9530027371958 ,47,9054216112049 ,73,7220513350468
23.6732682 ,Left ,56,9965116558267 ,47,866851459868 ,73,8128710825208
23.688376 ,Left ,57,0535679608654 ,47,8176853865524 ,73,8931791991482
23.7107619 ,Left ,57,0838926569297 ,47,7827086418312 ,73,9639478571425
23.7332939 ,Left ,57,0857148064535 ,47,7634523628647 ,74,0055455577425
23.7481928 ,Left ,57,0836984848638 ,47,7464438056385 ,74,0247531400814
23.7709085 ,Left ,57,0653028449355 ,47,7210500435201 ,74,0235830733599
23.792727 ,Left ,57,0311578622796 ,47,6894972929104 ,74,0109262442359
23.8077691 ,Left ,56,9838688627939 ,47,658169390434 ,73,982728485615
23.83025 ,Left ,56,9364089369821 ,47,637812677724 ,73,9369942078991
23.8529715 ,Left ,56,9445405717201 ,47,5983055607111 ,73,8793055051603
23.868064 ,Left ,56,9625844468535 ,47,5954993429765 ,73,8480195288197
23.8902726 ,Left ,56,9294841903543 ,47,6064456376472 ,73,8342464534537
23.9129262 ,Left ,56,8607313590106 ,47,6715021423896 ,73,8406644766958
23.9280078 ,Left ,56,8086990156293 ,47,7529649500458 ,73,857303059896
23.9504309 ,Left ,56,9079330236067 ,47,8176166768877 ,73,8809091719905
23.9731757 ,Left ,57,0284923687133 ,47,7980885402912 ,73,9224274067623
24.0106158 ,Left ,57,1985436619066 ,47,7316985886492 ,73,972237504988
24.033123 ,Left ,57,0925503550633 ,47,7507080746425 ,73,9238761006259
24.0706684 ,Left ,56,9043920790572 ,47,7690827487636 ,73,7402586280124
24.0931371 ,Left ,56,9171192567629 ,47,7069254724033 ,73,6248886730815
24.1302986 ,Left ,56,9028677109957 ,47,7181814960722 ,73,5643822337355
24.1527267 ,Left ,56,9131941216564 ,47,7702726205467 ,73,5931996791358
24.1903241 ,Left ,57,0977456446859 ,47,7605187980559 ,73,6415973565691
24.2280077 ,Left ,56,9653888064256 ,47,7772124512649 ,73,5876150241219
24.2503928 ,Left ,56,9455165725988 ,47,7919938455142 ,73,5434515636038
24.2880146 ,Left ,56,9358034242645 ,47,9040265444987 ,73,5274520046722
24.3102223 ,Left ,56,9219578142527 ,48,0007886425489 ,73,5223342746492
24.3478407 ,Left ,57,0222017360511 ,48,0316125664748 ,73,5882806852853
24.3708233 ,Left ,57,0042041678251 ,48,0164918212491 ,73,6160004142979
24.4083314 ,Left ,56,9058417681468 ,48,0447794742875 ,73,647719519317
24.4309041 ,Left ,56,8231498791114 ,48,034807155679 ,73,6700156741617
24.468201 ,Left ,56,7331397553429 ,48,0686431938099 ,73,7643933415638
24.4908669 ,Left ,56,6973222823161 ,48,0975297745555 ,73,7695024983209
24.528171 ,Left ,56,6337958539242 ,48,1195507207252 ,73,7176278204447
24.5506902 ,Left ,56,5744089732398 ,48,140265828273 ,73,704556105681
24.5879691 ,Left ,56,4731608003932 ,48,3187546549752 ,73,642498802865
24.610779 ,Left ,56,5037154583746 ,48,3850354321353 ,73,6601391658963
24.6330859 ,Left ,56,6453912885546 ,48,3882214224875 ,73,7137733322198
24.6705722 ,Left ,56,7720798534618 ,48,355170123533 ,73,7597656306022
24.6929743 ,Left ,56,7500543474477 ,48,3696286470502 ,73,7425070854322
24.730667 ,Left ,56,7034434479967 ,48,3608698425101 ,73,6849161664018
24.7680691 ,Left ,56,792778006178 ,48,2989630724256 ,73,5647276285714
24.7906045 ,Left ,56,8060873917965 ,48,2752770535995 ,73,4863891177729
24.835558 ,Left ,56,7617371228363 ,48,2585673235267 ,73,3387942903144
24.8654862 ,Left ,56,7334098016848 ,48,2453006109188 ,73,2974926943893
24.917705 ,Left ,56,6542699655645 ,48,2488112082652 ,73,2304082676086
24.9477562 ,Left ,56,6250714318041 ,48,161497174086 ,73,0884154518946
24.9704216 ,Left ,56,6462486988819 ,48,0599323719193 ,73,0936888131042
25.0078715 ,Left ,56,6434867457346 ,48,0202061503104 ,73,0735383579855
25.0306694 ,Left ,56,8010835205572 ,47,9819843694166 ,73,0957770428951
25.0679688 ,Left ,57,0534819321926 ,47,7914743356966 ,73,1328312125801
25.0907155 ,Left ,57,0022118306551 ,47,7413849702491 ,73,0799647778255
25.1279726 ,Left ,56,901014361998 ,47,8083438478114 ,72,945750459938
25.1579922 ,Left ,57,0351382832473 ,47,8081719399166 ,72,8606489259051
25.1956753 ,Left ,57,2305451579488 ,47,6363942767915 ,72,8625589001242
25.2180849 ,Left ,57,2255167784177 ,47,6018217427386 ,72,8695298357236
25.2330448 ,Left ,57,1286325084483 ,47,633508377986 ,72,8651844944548
25.2480215 ,Left ,57,1519895051059 ,47,6583261868398 ,72,8992707440931
25.2629999 ,Left ,57,2343181375958 ,47,6112282336661 ,72,9560631535948
25.2859476 ,Left ,57,296072780676 ,47,5637443270475 ,73,0021347571034
25.3083385 ,Left ,57,2875462260184 ,47,5490870453569 ,73,0148132510295
25.3229289 ,Left ,57,245414975044 ,47,5361825406871 ,73,0071990317268
25.3454177 ,Left ,57,2140945929641 ,47,5217263223598 ,73,0089740364916
25.3677468 ,Left ,57,2002000656067 ,47,5425918539509 ,73,0132424149949
25.3829042 ,Left ,57,1501245932284 ,47,5637916001933 ,73,0240214053443
25.4054515 ,Left ,57,1268575568609 ,47,6034226723274 ,73,0572930186412
25.4203015 ,Left ,57,1409693265432 ,47,6443043486487 ,73,0983008218061
25.4429477 ,Left ,57,1338715851329 ,47,6740574112576 ,73,1538455960525
25.4652498 ,Left ,57,1635633754052 ,47,70096540515 ,73,2166738512004
25.4805109 ,Left ,57,1444913748762 ,47,7019714738354 ,73,2714188731124
25.5030294 ,Left ,57,1310529949713 ,47,7280180883035 ,73,3229665034476
25.5256654 ,Left ,57,1049707312244 ,47,7753871540914 ,73,360023663243
25.5481046 ,Left ,57,0698780160301 ,47,8188077184169 ,73,395220108185
25.5632091 ,Left ,57,0633785801029 ,47,8479634707105 ,73,434667528393
25.5858381 ,Left ,57,0597822126081 ,47,8671294129498 ,73,4810833430607
25.6083374 ,Left ,57,0602323247026 ,47,88607881825 ,73,5171684387774
25.623539 ,Left ,57,0337150695947 ,47,8951919017746 ,73,5423352881086
25.6460307 ,Left ,57,0030592516618 ,47,8962847839129 ,73,5710716372838
25.6682974 ,Left ,56,9715567583926 ,47,8896495818852 ,73,6039758248337
25.6832452 ,Left ,56,9590546010937 ,47,8822355338832 ,73,6421663402014
25.7055707 ,Left ,56,9599016878906 ,47,8790899898527 ,73,6692300365308
25.7281476 ,Left ,56,9506061747213 ,47,8780121444985 ,73,6870282087064
25.743006 ,Left ,56,9225208759819 ,47,8724379161023 ,73,7014283382869
25.7655632 ,Left ,56,9146177831153 ,47,8609962253475 ,73,7204911158115
25.7880569 ,Left ,56,9225226949418 ,47,8445058557341 ,73,7464934715968
25.80314 ,Left ,56,9355577841911 ,47,8320236254658 ,73,7655627965515
25.8255065 ,Left ,56,9388717642998 ,47,8195113249129 ,73,7723029200609
25.8477343 ,Left ,56,9328349673508 ,47,7921785888127 ,73,7532893204512
25.8628554 ,Left ,56,904834925826 ,47,7807161538614 ,73,7256283078823
25.8854193 ,Left ,56,8958720576191 ,47,7750885033089 ,73,7180206698209
25.9080198 ,Left ,56,9056317521289 ,47,8141413987564 ,73,7475703101336
25.9228292 ,Left ,56,9376293048144 ,47,8804111715593 ,73,7571145552924
25.9452901 ,Left ,57,0107151782523 ,47,8916208254011 ,73,7527516599626
25.967807 ,Left ,57,1550200558384 ,47,84640604874 ,73,7991990040811
25.9830866 ,Left ,57,2363608894301 ,47,7985282843929 ,73,8252214850938
26.005691 ,Left ,57,1802669551557 ,47,7843520588591 ,73,8146143509461
26.0283312 ,Left ,57,0421422089955 ,47,7749936629596 ,73,7601761019408
26.0431814 ,Left ,56,9667621422966 ,47,7388371390892 ,73,6338277248282
26.0657162 ,Left ,56,970030767526 ,47,6810194605981 ,73,5180617986078
26.088407 ,Left ,56,9620736282145 ,47,6602186342764 ,73,4561905373536
26.1033347 ,Left ,56,9982685279042 ,47,7085952875814 ,73,4604553524823
26.1251708 ,Left ,57,0100624831019 ,47,770937127821 ,73,4940087766802
26.1484651 ,Left ,57,0225858439174 ,47,7872896749217 ,73,5175317999203
26.1633066 ,Left ,57,1213382353549 ,47,7736129604824 ,73,5289080253649
26.1855498 ,Left ,57,0895354198953 ,47,7852033934116 ,73,4990440269343
26.2154554 ,Left ,56,9758281939117 ,47,8542513482376 ,73,4510055611713
26.2380939 ,Left ,56,9302143137554 ,47,9058971957087 ,73,4341495917475
26.2529083 ,Left ,56,9414883158298 ,47,9805115169102 ,73,4234383761045
26.2902024 ,Left ,56,8332044531285 ,48,2262316956083 ,73,3977250960129
26.3052775 ,Left ,56,8315873488643 ,48,3126840396729 ,73,4285457744744
26.3279432 ,Left ,56,8940591043359 ,48,3178994319153 ,73,4876175751723
26.3503587 ,Left ,56,8774178137364 ,48,2997980106472 ,73,5228554252533
26.3656265 ,Left ,56,8098793029129 ,48,318693244112 ,73,5215616200193
26.3880369 ,Left ,56,7371223960202 ,48,3348875540537 ,73,5191305519919
26.4029324 ,Left ,56,7126249486138 ,48,2954368645301 ,73,5416262999674
26.4252853 ,Left ,56,7010231757528 ,48,2208589753319 ,73,5930346059596
26.4478043 ,Left ,56,6611774289254 ,48,1767732553608 ,73,6157383582414
26.4703082 ,Left ,56,6325822517491 ,48,1775610424628 ,73,6009953241911
26.4933023 ,Left ,56,6079635876595 ,48,2231192010399 ,73,5749662396121
26.5153805 ,Left ,56,5298824094551 ,48,3011657917374 ,73,538674202676
26.5378038 ,Left ,56,4997886270588 ,48,3652940694677 ,73,52852202398
26.5529073 ,Left ,56,5899210507519 ,48,3475592003688 ,73,5491641467771
26.5677022 ,Left ,56,72304427232 ,48,2580624744322 ,73,5668562072929
26.5904606 ,Left ,56,8333473375977 ,48,1952039150284 ,73,5558378954056
26.6053039 ,Left ,56,8437220997441 ,48,1670971921057 ,73,5034829376674
26.628039 ,Left ,56,7796188580461 ,48,164221409866 ,73,4340731057386
26.6504614 ,Left ,56,7161832596968 ,48,1769483593362 ,73,3432919983085
26.6655902 ,Left ,56,6783442524518 ,48,1811106839261 ,73,2360865126456
26.6878447 ,Left ,56,6936410466313 ,48,1734011177484 ,73,1209190735996
26.7104392 ,Left ,56,7247226750455 ,48,1754631316017 ,73,0179106317876
26.7254219 ,Left ,56,7312716677641 ,48,1870350252658 ,72,9107870717439
26.7476392 ,Left ,56,6856361720392 ,48,1913871713994 ,72,8387647644321
26.7702129 ,Left ,56,5576225177633 ,48,1686772889447 ,72,7840240880516
26.7853861 ,Left ,56,5120182201612 ,48,1096506061199 ,72,7423737756468
26.8077795 ,Left ,56,4424844552512 ,48,0917920211853 ,72,7125873593452
26.8305739 ,Left ,56,4231390542109 ,48,1023727700456 ,72,6747096922878
26.8455226 ,Left ,56,4678600475453 ,48,1426277761947 ,72,6916906721291
26.8680577 ,Left ,56,5883687261864 ,48,1101463219116 ,72,7544619301557
26.8906503 ,Left ,56,743918053023 ,48,0048934183538 ,72,8076628546373
26.9055884 ,Left ,56,8250036725453 ,47,8693304001528 ,72,8145616535339
26.9280954 ,Left ,56,7874522153449 ,47,7884902512759 ,72,8399522601868
26.9505251 ,Left ,56,6948562516241 ,47,7880924951597 ,72,9199877904527
26.9655289 ,Left ,56,6919715334041 ,47,8047057142412 ,72,9544054503491
26.9879356 ,Left ,56,7784446693182 ,47,8266666088336 ,72,8904172141055
27.0104873 ,Left ,56,8415430411064 ,47,8013682027905 ,72,8190578754849
27.0256737 ,Left ,56,9132081431524 ,47,750472599057 ,72,8439375174377
27.0478903 ,Left ,56,9276900602847 ,47,7478275968518 ,72,8720956614985
27.0701796 ,Left ,56,8539737260721 ,47,7927150969797 ,72,870282167657
27.0854018 ,Left ,56,8563535141208 ,47,7962083847047 ,72,8872068664884
27.1078739 ,Left ,56,9269732200179 ,47,7472815325844 ,72,9338367638056
27.1301687 ,Left ,57,0008772586633 ,47,7008265247657 ,72,9678623968555
27.1454082 ,Left ,56,9849244988928 ,47,6552993044418 ,72,9855705823745
27.1679161 ,Left ,57,0002362295557 ,47,6364762879775 ,73,003326181271
27.190458 ,Left ,57,0149562656769 ,47,6299413327829 ,73,0365910885867
27.2054097 ,Left ,57,0289794469519 ,47,6146891778469 ,73,0628826783023
27.2278861 ,Left ,57,0342873961133 ,47,6066831055462 ,73,0948605374108
27.2504605 ,Left ,57,078034973852 ,47,6160856838243 ,73,1181694571228
27.2655136 ,Left ,57,0566507947622 ,47,6173439024841 ,73,1536739365916
27.287789 ,Left ,57,0401802583439 ,47,6335279221236 ,73,2111596981842
27.3102829 ,Left ,57,0306165391423 ,47,6345446919318 ,73,256353538619
27.3328261 ,Left ,57,0126047583641 ,47,6354624142543 ,73,3004798636866
27.3479718 ,Left ,57,0019499927806 ,47,6400218924565 ,73,3352309942531
27.3704598 ,Left ,56,9907989528952 ,47,6507434755641 ,73,3628388897659
27.3853534 ,Left ,57,0026391876661 ,47,6649970147194 ,73,3967010822574
27.4077766 ,Left ,57,0015547689883 ,47,677057638624 ,73,431252910625
27.4304324 ,Left ,56,9830344673858 ,47,6899391431461 ,73,4527059663013
27.4529078 ,Left ,56,9668298590272 ,47,7000134898153 ,73,4685770112507
27.4679153 ,Left ,56,966914792828 ,47,6968602709847 ,73,4900115527475
27.4903648 ,Left ,56,9663313061726 ,47,6952245492961 ,73,5170787462607
27.512763 ,Left ,56,9535325303826 ,47,6971241411552 ,73,5321159085483
27.5278171 ,Left ,56,9212617802162 ,47,6912855349656 ,73,5351867868093
27.5503162 ,Left ,56,9122925730507 ,47,6784313966649 ,73,5347516729773
27.5731008 ,Left ,56,9170120299205 ,47,6621453313834 ,73,5382764624325
27.5876736 ,Left ,56,9126077060181 ,47,6385911715707 ,73,5422786382553
27.6103706 ,Left ,56,9170531249441 ,47,6006229485433 ,73,5479162692363
27.633485 ,Left ,56,9413034208698 ,47,5556498608541 ,73,5633260567067
27.6477636 ,Left ,56,9370594387403 ,47,5127213658892 ,73,5782026886558
27.6707118 ,Left ,56,9475274422882 ,47,5064521853495 ,73,5758193430444
27.692795 ,Left ,56,9724498830085 ,47,5278202809812 ,73,5327941855677
27.7077201 ,Left ,56,9719450877365 ,47,5477515596399 ,73,5139143820382
27.7305305 ,Left ,57,0142071696519 ,47,5738748037307 ,73,509678486794
27.752912 ,Left ,57,073160368863 ,47,5860417764089 ,73,5000527710577
27.7680333 ,Left ,57,1356944254135 ,47,5431104043707 ,73,5179948839856
27.7906301 ,Left ,57,2275425244008 ,47,491562711901 ,73,5494034770919
27.8132264 ,Left ,57,2540142174567 ,47,449617290548 ,73,5572388619047
27.8281364 ,Left ,57,1893738236082 ,47,4502136776317 ,73,5652619056519
27.8507527 ,Left ,57,1032094248878 ,47,4460098223951 ,73,5038370443929
27.8734433 ,Left ,57,0751169333606 ,47,4207070881697 ,73,3975495718283
27.88838 ,Left ,57,0783238464516 ,47,3676079528373 ,73,2994528900688
27.9109753 ,Left ,57,052374218523 ,47,3727236715898 ,73,2725158781988
27.9331755 ,Left ,57,0857180191576 ,47,4346783251365 ,73,2725184947757
27.9481522 ,Left ,57,0952288800601 ,47,472897857298 ,73,2933754387687
27.9702525 ,Left ,57,1628527481784 ,47,4846214671218 ,73,333938308468
27.9928154 ,Left ,57,2301700427104 ,47,5027975544407 ,73,326505227606
28.0079782 ,Left ,57,1466443412385 ,47,576860955733 ,73,2675052824032
28.0303644 ,Left ,57,0770235171891 ,47,6146236993109 ,73,2264689944654
28.0527868 ,Left ,57,0797702534961 ,47,5934574831695 ,73,2260936834882
28.067741 ,Left ,57,0646780750179 ,47,5964878128559 ,73,2355462203934
28.0901828 ,Left ,57,0060436513431 ,47,6541875480523 ,73,2263651268566
28.112711 ,Left ,56,9908627441451 ,47,7293958793486 ,73,2419385177944
28.1276898 ,Left ,57,0204727110214 ,47,7651194127563 ,73,2652604955711
28.1501973 ,Left ,57,0604639997082 ,47,7717406626596 ,73,2553754462117
28.1726794 ,Left ,57,0769815569103 ,47,8133498940531 ,73,2237250894819
28.1876769 ,Left ,57,0406770316709 ,47,8562104969626 ,73,215097034522
28.2099741 ,Left ,56,9839760204336 ,47,8507083555262 ,73,2744100377354
28.2326804 ,Left ,56,9274493646321 ,47,8333786097452 ,73,332084387337
28.2559828 ,Left ,56,9057938208743 ,47,786161646038 ,73,3243425059323
28.2710054 ,Left ,56,8560874882767 ,47,7449789062666 ,73,2895908243538
28.2930439 ,Left ,56,8206816670061 ,47,7461901147116 ,73,2581658771521
28.3079549 ,Left ,56,7284387487962 ,47,8013266598693 ,73,2334690321044
28.3305655 ,Left ,56,6400406675007 ,47,8917165276201 ,73,2229409960539
28.3535359 ,Left ,56,7144316835853 ,47,9407277187477 ,73,2318211966497
28.3760711 ,Left ,56,8703653717938 ,47,9200904242154 ,73,2597481636194
28.3908389 ,Left ,56,9694858439444 ,47,8905195265975 ,73,2845086207868
28.4131934 ,Left ,56,9942001129027 ,47,8728818061039 ,73,3039100234105
28.4354402 ,Left ,56,9287175015348 ,47,860124149333 ,73,3256773982754
28.4504224 ,Left ,56,8921449046052 ,47,8452268987262 ,73,3156483044164
28.4730385 ,Left ,56,8879901897001 ,47,8235441116448 ,73,2654675013156
28.4952836 ,Left ,56,9144717520949 ,47,8150678066827 ,73,1726483970323
28.510267 ,Left ,56,9670844388085 ,47,8214528639806 ,73,0560851585077
28.5331512 ,Left ,57,0062097268008 ,47,8363659585475 ,72,9450140593276
28.5555746 ,Left ,56,9752649888149 ,47,8381389425094 ,72,8391625259097
28.5706418 ,Left ,56,8911007676516 ,47,8191424048591 ,72,7691971640484
28.5929461 ,Left ,56,7950724253984 ,47,8100779962117 ,72,7265283407645
28.6156969 ,Left ,56,7285874871605 ,47,7660398723989 ,72,6423729870686
28.6307049 ,Left ,56,6920338674514 ,47,6990523393016 ,72,6145597959372
28.6529678 ,Left ,56,7303382293483 ,47,6884032654464 ,72,5878655562157
28.6754111 ,Left ,56,6827458791531 ,47,7386478761495 ,72,5636312494428
28.6977432 ,Left ,56,7122056713035 ,47,8186408536408 ,72,5954107949781
28.7208535 ,Left ,56,8163108035453 ,47,790582099895 ,72,6646209639987
28.7510172 ,Left ,57,0255991305434 ,47,5814823576898 ,72,7229763941914
28.7727522 ,Left ,56,9643934358452 ,47,516623155941 ,72,7457249841368
28.7952917 ,Left ,56,8646912193442 ,47,5027368068758 ,72,7992507973057
28.8105324 ,Left ,56,816529254165 ,47,5021063986558 ,72,8770050640606
28.8328614 ,Left ,56,8465761543303 ,47,4840502629429 ,72,9018653301983
28.8554445 ,Left ,56,9687299183789 ,47,45651798312 ,72,8605566288996
28.8705107 ,Left ,57,0452763979862 ,47,383440980674 ,72,7906999547912
28.9004095 ,Left ,57,1096413391324 ,47,3040370431051 ,72,7992495334282
28.9230949 ,Left ,57,1533610238707 ,47,2949812675921 ,72,8245052381399
28.9380938 ,Left ,57,1158653575045 ,47,3122699935277 ,72,8147384694335
28.9606508 ,Left ,57,1064410860486 ,47,3079075430611 ,72,8129520399574
28.9756202 ,Left ,57,1707072806846 ,47,2721202524475 ,72,8418623043361
28.990182 ,Left ,57,2200311004203 ,47,2496080498525 ,72,8765048170109
29.0128277 ,Left ,57,1997629416458 ,47,2296280950968 ,72,8980779182591
29.0355867 ,Left ,57,1836210491122 ,47,2455703019865 ,72,8985639224152
29.0503414 ,Left ,57,1683518558588 ,47,2673552675222 ,72,8813498077189
29.065661 ,Left ,57,163982884592 ,47,3049551796124 ,72,8893676035281
29.0879005 ,Left ,57,1656277882842 ,47,323349208865 ,72,9033641205033
29.1028745 ,Left ,57,1650821328209 ,47,3317310328405 ,72,9289487889659
29.125585 ,Left ,57,1632137899732 ,47,3314760688107 ,72,9611590022188
29.1476977 ,Left ,57,1585131427005 ,47,342895134593 ,72,9976017272279
29.1634879 ,Left ,57,1310019357824 ,47,3718412975927 ,73,0287998240685
29.1861174 ,Left ,57,0964779051486 ,47,4074248286914 ,73,0464519270758
29.2085452 ,Left ,57,0799123939637 ,47,4323930545774 ,73,0646207936836
29.2235352 ,Left ,57,0767218343798 ,47,4330782088503 ,73,0996615000348
29.245508 ,Left ,57,088280749193 ,47,4352889790312 ,73,155790007454
29.2679737 ,Left ,57,0992752882397 ,47,4428502961481 ,73,212777379416
29.283092 ,Left ,57,0767738853803 ,47,4562374052893 ,73,2639170584079
29.3055384 ,Left ,57,0396643507867 ,47,4720878446268 ,73,3135779997145
29.3276458 ,Left ,57,0084656324561 ,47,4748446228032 ,73,372947332964
29.3427306 ,Left ,56,9888930600599 ,47,4712648553826 ,73,4384197972047
29.3654765 ,Left ,56,9707501758155 ,47,4723035284086 ,73,4829225071599
29.3878895 ,Left ,56,9183178403964 ,47,459168659603 ,73,5100939991974
29.4029887 ,Left ,56,8492869820841 ,47,4305212602337 ,73,5412989395465
29.4254015 ,Left ,56,8096473887788 ,47,4042421802615 ,73,5931681274267
29.4555208 ,Left ,56,7878889364426 ,47,3888219626614 ,73,6434082575977
29.4705336 ,Left ,56,7765644787717 ,47,3874537881059 ,73,6749127921628
29.492895 ,Left ,56,7852831089109 ,47,3826930906906 ,73,691816701079
29.508127 ,Left ,56,784197705443 ,47,3658449054005 ,73,6975424295833
29.5231772 ,Left ,56,7839769990314 ,47,3780153403885 ,73,6937511115089
29.5454846 ,Left ,56,7966940542893 ,47,426515163432 ,73,6802154070637
29.5677065 ,Left ,56,7847930030194 ,47,4722751869139 ,73,6688554782865
29.5828209 ,Left ,56,8043981535241 ,47,538468438427 ,73,6920087355808
29.6053552 ,Left ,56,8753716224881 ,47,5879291599223 ,73,7194182260459
29.6278398 ,Left ,56,9363239381691 ,47,6074343640909 ,73,7330558223904
29.6429871 ,Left ,56,9791833198674 ,47,5952005571947 ,73,7671824437602
29.6655003 ,Left ,57,0475728911457 ,47,5973394175646 ,73,7656438482913
29.6880077 ,Left ,57,0556121978572 ,47,6098115151111 ,73,7216932099191
29.7029097 ,Left ,57,0100433501861 ,47,6160055756088 ,73,6889734797401
29.7255588 ,Left ,56,9874561944168 ,47,6336521412209 ,73,6254026941822
29.7480898 ,Left ,56,9998294999413 ,47,5881899409987 ,73,4881518570135
29.785552 ,Left ,56,905227679484 ,47,4953367344521 ,73,3606506728059
29.8078846 ,Left ,56,8697749517598 ,47,5420781012195 ,73,374333906084
29.8455939 ,Left ,56,9621905735961 ,47,5607966716202 ,73,4324414741607
29.868249 ,Left ,57,0389104566093 ,47,5157692020874 ,73,4297050056111
29.9057477 ,Left ,56,8379642856592 ,47,5235639947095 ,73,3377241562987
29.9282168 ,Left ,56,7954822188328 ,47,4982473882048 ,73,3097724514547
29.9657442 ,Left ,56,9149238572462 ,47,5701823943085 ,73,2915325140621
29.9882853 ,Left ,56,980772431866 ,47,6598405550244 ,73,2866129972916
30.0258496 ,Left ,57,1240846151736 ,47,6944220181236 ,73,3328430277957
30.0481085 ,Left ,57,1014180653963 ,47,759241155447 ,73,3187350206804
30.0856103 ,Left ,56,9517083823876 ,47,8946490457058 ,73,3072128930082
30.1235366 ,Left ,56,8906336581988 ,47,8030677383116 ,73,4258215786055
30.145973 ,Left ,56,8542315794007 ,47,7635097279946 ,73,42026500355
30.1832137 ,Left ,56,7299049586003 ,47,8388772589737 ,73,3643725609589
30.2054339 ,Left ,56,6255410948407 ,47,9387327622522 ,73,3122645468693
30.2280073 ,Left ,56,5939402843134 ,48,0144013953342 ,73,2956942279625
30.265521 ,Left ,56,8060513120483 ,48,0257546764023 ,73,3878148456046
30.2878044 ,Left ,56,9017060425544 ,48,0299523284446 ,73,4234014233959
30.3260052 ,Left ,57,0765501940666 ,47,9950747928778 ,73,4368116832367
30.348446 ,Left ,57,1674099480459 ,47,966228569984 ,73,4340451133363
30.3854274 ,Left ,57,1347773232866 ,47,9438721336702 ,73,3845659223604
30.4231146 ,Left ,57,0510866848017 ,47,9433651297276 ,73,277373570494
30.4455936 ,Left ,57,0390767148081 ,47,924182093387 ,73,2155007184972
30.4831513 ,Left ,56,9772601217058 ,47,9101997386041 ,73,1316082823529
30.5055314 ,Left ,56,8655823589292 ,47,9516810450013 ,73,1128024841579
30.5280559 ,Left ,56,7338818095565 ,48,0304305422983 ,73,0787013484972
30.5655442 ,Left ,56,5831857045174 ,48,050392529302 ,72,872399994334
30.5881213 ,Left ,56,5626145496923 ,47,9922143640733 ,72,8554756612236
30.6254235 ,Left ,56,5312523048994 ,48,0858704356585 ,72,8716130229003
30.648135 ,Left ,56,6337909827706 ,48,1249552077637 ,72,9066866710464
30.6931223 ,Left ,56,9942793103356 ,47,8927218747967 ,73,05253031321
30.7305895 ,Left ,57,0324416119689 ,47,7927246753217 ,73,0464200105356
30.7911039 ,Left ,56,8724781519387 ,47,8734340938736 ,73,011970600567
30.8434118 ,Left ,57,0199071075641 ,47,7976254482947 ,73,0212612659293
30.8660828 ,Left ,56,9499246494068 ,47,8396093473687 ,73,0082880974022
30.903525 ,Left ,57,0971267672167 ,47,7399439614812 ,73,0488627742918
30.9254712 ,Left ,57,1498482788362 ,47,6778084015902 ,73,0643535502902
30.9405083 ,Left ,57,1282094561601 ,47,6138124096802 ,73,0808511784482
30.9553464 ,Left ,57,1240873973378 ,47,5872957974607 ,73,0840839523474
30.9778504 ,Left ,57,1000510807211 ,47,5982778539369 ,73,0746719153046
31.0004112 ,Left ,57,0614907632253 ,47,6111116636223 ,73,0664122120463
31.0152151 ,Left ,57,0887661054075 ,47,6376437415294 ,73,0742565457673
31.0377113 ,Left ,57,1172550101834 ,47,6598044732 ,73,0815119124685
31.0603842 ,Left ,57,1239322178517 ,47,6769176490405 ,73,1204619537
31.0752458 ,Left ,57,1209788039083 ,47,6776294606341 ,73,1745458522726
31.0977591 ,Left ,57,1185220894548 ,47,6754674038317 ,73,2336247535011
31.1208613 ,Left ,57,1000063560681 ,47,6773419319815 ,73,2859795170201
31.1360493 ,Left ,57,0943987837281 ,47,6890801280774 ,73,3280799968139
31.1581232 ,Left ,57,1019623748477 ,47,6955558897715 ,73,362854086069
31.1807496 ,Left ,57,1027071223181 ,47,7068051718784 ,73,3948446818007
31.2033434 ,Left ,57,1076417548902 ,47,7261340052722 ,73,4233120429971
31.2181219 ,Left ,57,1056129376159 ,47,7550526660135 ,73,4578896734333
31.2408701 ,Left ,57,0906360172184 ,47,7764330243539 ,73,4867442029909
31.2631792 ,Left ,57,0680787618445 ,47,7863823195894 ,73,5154204470682
31.2781075 ,Left ,57,0520189534465 ,47,7931428888955 ,73,5334926824322
31.3006867 ,Left ,57,0262537097498 ,47,8013688013915 ,73,5504882619679
31.3229763 ,Left ,57,0126293722087 ,47,8179383191639 ,73,5622505542027
31.3379187 ,Left ,57,0075961100525 ,47,8192728796397 ,73,5755158360466
31.3602523 ,Left ,57,0025898605068 ,47,8121297068265 ,73,5873516349714
31.3827615 ,Left ,56,9977531589581 ,47,8073600427463 ,73,5831837398203
31.3978266 ,Left ,57,0072132983322 ,47,7837176847442 ,73,5696565037067
31.4203794 ,Left ,56,9964485177375 ,47,7467065991259 ,73,5567283039717
31.4434762 ,Left ,56,9838600456251 ,47,7396974429012 ,73,510071731784
31.4583808 ,Left ,56,9786792272714 ,47,7643239743578 ,73,4285140949201
31.480287 ,Left ,56,9050071109611 ,47,7964032978396 ,73,3939411179805
31.5030474 ,Left ,56,9130855209837 ,47,842510607837 ,73,4296665705586
31.5178323 ,Left ,57,0176126610898 ,47,8787441089213 ,73,4744493134763
31.5402796 ,Left ,57,1113031091907 ,47,8584861175112 ,73,5142489643442
31.5630658 ,Left ,57,2811946071516 ,47,7962423867743 ,73,5995162540341
31.5779806 ,Left ,57,3787058518811 ,47,7325623019474 ,73,6469446257807
31.600604 ,Left ,57,2910281257539 ,47,7159476362918 ,73,6230158979799
31.6227495 ,Left ,57,1528209386031 ,47,7334019302471 ,73,5238988661174
31.6377465 ,Left ,57,078413921877 ,47,7030237859034 ,73,4018962712658
31.6610719 ,Left ,57,1001324953176 ,47,6145770488273 ,73,3002823718722
31.6834446 ,Left ,57,1226341772824 ,47,6180517937866 ,73,2819696581511
31.6983431 ,Left ,57,1749347633244 ,47,683795262513 ,73,2943117732389
31.7211897 ,Left ,57,1602064680736 ,47,7218110473102 ,73,3368415677605
31.7435801 ,Left ,57,2300587147942 ,47,7158867721145 ,73,3864684025827
31.7587606 ,Left ,57,2939377230008 ,47,6897859877752 ,73,4046604173387
31.7810133 ,Left ,57,2109153874806 ,47,6959626043363 ,73,3585687043193
31.8029762 ,Left ,57,1068652996363 ,47,6976273141596 ,73,3038333575015
31.8179983 ,Left ,57,0898167384589 ,47,6818247273141 ,73,2825980875639
31.8402871 ,Left ,57,1289446129398 ,47,6893834445797 ,73,299974119771
31.8627887 ,Left ,57,0833803656099 ,47,7432468745087 ,73,2918343068076
31.8779504 ,Left ,57,0358918501154 ,47,8149475021591 ,73,2918169527855
31.9002665 ,Left ,57,0562999695391 ,47,835368388867 ,73,306191937992
31.9227977 ,Left ,57,0855476822136 ,47,8225445164994 ,73,3053337059911
31.9381208 ,Left ,57,07177647196 ,47,8356123065149 ,73,3001057493947
31.9605246 ,Left ,57,0049313209131 ,47,8674394321669 ,73,3180944231835
31.9832172 ,Left ,56,9327563569142 ,47,8494386583384 ,73,3679685355151
31.9980842 ,Left ,56,8772917010768 ,47,8153598887844 ,73,4260442558759
32.0205724 ,Left ,56,8137735651601 ,47,8122176928977 ,73,4226140105077
32.0432614 ,Left ,56,7840220898441 ,47,8517811850707 ,73,3787389652433
32.058292 ,Left ,56,7371576952853 ,47,9471808807721 ,73,3605721136941
32.0806118 ,Left ,56,6727040120065 ,48,0793297231184 ,73,3703690557962
32.1032646 ,Left ,56,6030144456761 ,48,1832838231736 ,73,3858306365861
32.125716 ,Left ,56,6342810704713 ,48,2304750071798 ,73,422118617226
32.1407306 ,Left ,56,7589138675481 ,48,1962497418653 ,73,4664301063138
32.1631011 ,Left ,56,8720715726242 ,48,1469515996979 ,73,4851282199396
32.1854399 ,Left ,56,9505083479798 ,48,1145712591375 ,73,4772501417537
32.2002475 ,Left ,56,9495558023016 ,48,0943619243379 ,73,4273537820369
32.222831 ,Left ,56,9027191033001 ,48,0929624996071 ,73,374245779862
32.2457066 ,Left ,56,8741249912973 ,48,0982571129718 ,73,3113678340798
32.2606888 ,Left ,56,8638949576076 ,48,0940921208928 ,73,2442615894545
32.2831546 ,Left ,56,8852451698677 ,48,0904465553707 ,73,187099604539
32.305569 ,Left ,56,9214440083864 ,48,080570905652 ,73,1417512669554
32.3207243 ,Left ,56,9524010398226 ,48,0550502957671 ,73,1174858306868
32.3430105 ,Left ,56,9736957408765 ,48,0262467676633 ,73,1047071314824
32.3655243 ,Left ,56,9644808291513 ,48,0086551757106 ,73,0923427271201
32.3804063 ,Left ,56,8965794018946 ,48,0295765194515 ,73,0920364286656
32.4031898 ,Left ,56,8049483334544 ,48,0654772751964 ,73,0561062168678
32.4255931 ,Left ,56,7329682110821 ,48,0867790313545 ,72,9587996266747
32.4405958 ,Left ,56,7127454781438 ,48,0998964164197 ,72,8378941596118
32.463161 ,Left ,56,7062971223437 ,48,1162827273863 ,72,7384368561781
32.4856135 ,Left ,56,6632322302632 ,48,0982838655731 ,72,6900440188293
32.5007625 ,Left ,56,6376301785106 ,48,083872984166 ,72,7325063392777
32.5230974 ,Left ,56,6323478205167 ,48,1085700802244 ,72,754423317109
32.5460602 ,Left ,56,6393176891932 ,48,1628667596138 ,72,7535106154816
32.5684419 ,Left ,56,6936404540769 ,48,1449148256651 ,72,8001338735988
32.5910688 ,Left ,56,8484648797437 ,48,0365777375457 ,72,8852491533504
32.6279434 ,Left ,56,8401698291843 ,47,8306372666478 ,72,947144130949
32.6578216 ,Left ,56,7615230663881 ,47,8225501423135 ,72,933429627747
32.6878913 ,Left ,56,8152550260892 ,47,8142217220543 ,72,8849323895324
32.7107188 ,Left ,57,0028471511875 ,47,668102015243 ,72,8013780708335
32.7405489 ,Left ,57,0420143294498 ,47,6154971028818 ,72,8568523863056
32.7627296 ,Left ,57,0369105921843 ,47,6338433855897 ,72,8618151312135
32.7854384 ,Left ,57,0792846759473 ,47,5993585326383 ,72,8803623951106
32.8005539 ,Left ,57,1552179031534 ,47,5582855727125 ,72,9101750429502
32.8227251 ,Left ,57,1628827130628 ,47,5019947471975 ,72,9342729444481
32.8454848 ,Left ,57,1678819953974 ,47,4720047413967 ,72,9679097068578
32.8605467 ,Left ,57,1557014390806 ,47,4767247026535 ,72,9888368108263
32.883142 ,Left ,57,1348895778434 ,47,4957649995332 ,73,0137021369763
32.905631 ,Left ,57,1271392927277 ,47,5293547856262 ,73,0398618984047
32.9206705 ,Left ,57,1396362101015 ,47,5693684796657 ,73,0533372492279
32.9429328 ,Left ,57,144844014276 ,47,5944868743317 ,73,0689684846408
32.9654596 ,Left ,57,1549249243606 ,47,603410078955 ,73,1069997230402
32.9880104 ,Left ,57,1558526438537 ,47,6208541717041 ,73,1425269172568
33.0031055 ,Left ,57,1119611345545 ,47,6495976246676 ,73,1714660134289
33.025764 ,Left ,57,0625231428803 ,47,6797974668227 ,73,1916443954478
33.0412198 ,Left ,57,041948993234 ,47,698398066695 ,73,2191737100836
33.0634945 ,Left ,57,0602437749814 ,47,7023051903837 ,73,2493914679512
33.0855753 ,Left ,57,0818827367713 ,47,7117836342333 ,73,2673821968423
33.1080192 ,Left ,57,059681401795 ,47,7338925989453 ,73,2789623980834
33.1229828 ,Left ,57,0222642358567 ,47,7689621561866 ,73,2933522941788
33.145187 ,Left ,57,0017447625948 ,47,7942261902147 ,73,3165298972213
33.167816 ,Left ,56,9908701579546 ,47,8080742539788 ,73,3472361440678
33.1830162 ,Left ,56,9798252542262 ,47,8220981611399 ,73,3726220210254
33.2055152 ,Left ,56,9634073792205 ,47,8348307628826 ,73,3888212029679
33.2283844 ,Left ,56,9380998825589 ,47,840872688702 ,73,402783687488
33.2432702 ,Left ,56,9240930461599 ,47,8380592342111 ,73,4195162911793
33.2651228 ,Left ,56,9304943516182 ,47,8301271475457 ,73,4382314178158
33.2878164 ,Left ,56,9390987139138 ,47,8323564783818 ,73,4478915520429
33.3027884 ,Left ,56,924273573359 ,47,8359315051371 ,73,4355530111815
33.3254589 ,Left ,56,9423556220276 ,47,8476319787597 ,73,3907586748268
33.3477541 ,Left ,56,9566403216769 ,47,8512112044622 ,73,3905937016789
33.3632047 ,Left ,56,9892900480863 ,47,8905829299109 ,73,409690766028
33.3858389 ,Left ,57,020097136535 ,47,9543227641165 ,73,394600223783
33.4082605 ,Left ,57,0704082265322 ,47,946893785838 ,73,4113738009955
33.4232991 ,Left ,57,1924571475862 ,47,8882290892198 ,73,4515581795128
33.4458153 ,Left ,57,249656853468 ,47,8346424974523 ,73,4642339751373
33.4682786 ,Left ,57,1905419467699 ,47,8180796882617 ,73,4420113050213
33.4831871 ,Left ,57,1042449291193 ,47,8424486148236 ,73,390303098298
33.505741 ,Left ,57,0702981484551 ,47,8276058431526 ,73,2605466445925
33.5283179 ,Left ,57,0849144439134 ,47,7621431365392 ,73,1565641603947
33.5433358 ,Left ,57,0915056539257 ,47,7350138454489 ,73,1014197854508
33.5656118 ,Left ,57,0959107377781 ,47,7787096208298 ,73,1092517374935
33.5881897 ,Left ,57,1208550682989 ,47,830121282719 ,73,1375135122393
33.6031861 ,Left ,57,1441938919063 ,47,8339672288551 ,73,1440834038148
33.6257763 ,Left ,57,2422976357064 ,47,7972517886742 ,73,1485428489508
33.6480446 ,Left ,57,2201661597829 ,47,7700612563568 ,73,1409320823935
33.6629433 ,Left ,57,1134967743664 ,47,7674612647931 ,73,1124346237932
33.6852699 ,Left ,57,0686870277869 ,47,7651777351037 ,73,0953161614164
33.7078021 ,Left ,57,0615610616166 ,47,8035767799691 ,73,0925960615841
33.7229903 ,Left ,57,058366538544 ,47,8856273210185 ,73,092426045712
33.7460394 ,Left ,57,0424550481682 ,47,9943076674305 ,73,1033266089743
33.7683915 ,Left ,57,0671530424714 ,48,0439432300547 ,73,1396475736494
33.7832517 ,Left ,57,1200619786442 ,48,0291104908674 ,73,185204021029
33.8056997 ,Left ,57,0867551762423 ,48,012153420055 ,73,2100231332928
33.8283154 ,Left ,57,0292103654973 ,48,0411049295666 ,73,2150024631837
33.8432691 ,Left ,56,9509911830401 ,48,0580032181517 ,73,225891816903
33.8657057 ,Left ,56,8983333947676 ,48,0516298059399 ,73,2581669846765
33.8879641 ,Left ,56,8468512100754 ,48,0322496983115 ,73,2858425022527
33.9028398 ,Left ,56,8265454497488 ,48,0181271384649 ,73,2889216913036
33.9254398 ,Left ,56,8057680593943 ,48,0317471148349 ,73,2666194967031
33.9479563 ,Left ,56,7631356554365 ,48,0817088749414 ,73,2419736099323
33.9629872 ,Left ,56,7185050173504 ,48,147056422296 ,73,2386315600002
33.9855578 ,Left ,56,7793957652527 ,48,1811256037107 ,73,2634148252284
34.0080499 ,Left ,56,8977851193738 ,48,1561152735285 ,73,2838245221843
34.0305968 ,Left ,57,0151990386251 ,48,143436056065 ,73,2930227698884
34.0455447 ,Left ,57,0132364279301 ,48,1401808198269 ,73,2623318394302
34.0679858 ,Left ,56,9633362397725 ,48,1446531230616 ,73,2261826690138
34.0906803 ,Left ,56,949527935796 ,48,1487742836473 ,73,1789748198825
34.1056483 ,Left ,56,9395411790483 ,48,156879303084 ,73,1141956102423
34.1281042 ,Left ,56,9447705012524 ,48,1702699012564 ,73,0283823867264
34.1505568 ,Left ,56,9768761928677 ,48,1782498750552 ,72,9401389321215
34.1655369 ,Left ,56,9686868294644 ,48,1823073649151 ,72,8941361090691
34.1881373 ,Left ,56,9329167410487 ,48,201896570509 ,72,8604587973883
34.2106434 ,Left ,56,8325094418419 ,48,214668764916 ,72,8274847775769
34.2253703 ,Left ,56,719778036473 ,48,1832180577739 ,72,7458861765308
34.2480806 ,Left ,56,6516911845139 ,48,0909538089393 ,72,6475834303014
34.2704935 ,Left ,56,6518185450759 ,48,0072358201423 ,72,628752881902
34.2856511 ,Left ,56,6460309406174 ,48,0080449360378 ,72,5963783700916
34.3080453 ,Left ,56,5758270495508 ,48,0901442566379 ,72,5533088607332
34.330423 ,Left ,56,6498757191996 ,48,1556026550561 ,72,5729003669129
34.3454315 ,Left ,56,8584846565435 ,48,1040366244487 ,72,6388552283726
34.3679194 ,Left ,56,9937412272143 ,47,9764885481879 ,72,677502282036
34.3904968 ,Left ,57,0304591516133 ,47,8507081161878 ,72,6610167544563
34.4055515 ,Left ,56,9976662355766 ,47,7640261326077 ,72,6530653540141
34.4277267 ,Left ,56,9461468871989 ,47,7234744069848 ,72,669496906166
34.4511281 ,Left ,56,8863631384009 ,47,7093518243572 ,72,7187775057461
34.4659841 ,Left ,56,9018757270447 ,47,6974847147581 ,72,7321579243177
34.4886077 ,Left ,56,970912105623 ,47,7003375062368 ,72,684806828471
34.510442 ,Left ,57,002091892059 ,47,6812205681011 ,72,6373042946073
34.5255063 ,Left ,57,0483174872741 ,47,6597066566317 ,72,6634867419355
34.5554583 ,Left ,57,0713925378029 ,47,6840621604978 ,72,681038352097
34.5778684 ,Left ,57,0666860424402 ,47,7225332293063 ,72,6787810656089
34.5930681 ,Left ,57,1154445507454 ,47,7173985420597 ,72,6760171118417
34.6080135 ,Left ,57,1985820020963 ,47,6861721535432 ,72,6974546062655
34.6302524 ,Left ,57,2141381264796 ,47,6450887895765 ,72,7192499034497
34.6452332 ,Left ,57,1919029338119 ,47,6224080449742 ,72,7395277122394
34.6679492 ,Left ,57,1611912228373 ,47,6407721949499 ,72,7522369139197
34.690639 ,Left ,57,1334559334618 ,47,6646371721681 ,72,7526805605342
34.7056263 ,Left ,57,1397802297092 ,47,6972696169894 ,72,7722613490436
34.7280539 ,Left ,57,1598556829627 ,47,7225811509704 ,72,7980187784265
34.7506381 ,Left ,57,1527040362913 ,47,7478217277831 ,72,8228575046342
34.7659342 ,Left ,57,174117679497 ,47,780933604971 ,72,8500458018324
34.7883013 ,Left ,57,1343390199659 ,47,7895713219084 ,72,8785861263522
34.8107619 ,Left ,57,1113081833751 ,47,8064089114348 ,72,918811442824
34.8254553 ,Left ,57,1128019923763 ,47,820813428516 ,72,9565100048545
34.840559 ,Left ,57,1024704331453 ,47,855351428871 ,72,9960252044008
34.8629387 ,Left ,57,0945002000955 ,47,8914217645402 ,73,0226372526469
34.8779236 ,Left ,57,0897024766425 ,47,909956333438 ,73,065665054855
34.9003651 ,Left ,57,0926325831857 ,47,9089995729364 ,73,1334807148995
34.9230364 ,Left ,57,1039048711942 ,47,9137336631199 ,73,2036354586774
34.9380741 ,Left ,57,0963827915066 ,47,9177571349899 ,73,2602953098939
34.9606712 ,Left ,57,0597250043191 ,47,9197463359515 ,73,315372171877
34.9830563 ,Left ,57,0441270224404 ,47,928236910004 ,73,3636264064839
34.9980336 ,Left ,57,0518109265924 ,47,9341419545723 ,73,4010849763107
35.0206811 ,Left ,57,0604124173375 ,47,934825504372 ,73,4379026716979
35.0431468 ,Left ,57,0522109657704 ,47,9454219504028 ,73,4658658423335
35.0580265 ,Left ,57,046192201362 ,47,9575184821901 ,73,4807238558669
35.0807174 ,Left ,57,0301392221174 ,47,9613752813008 ,73,4981846262792
35.1029566 ,Left ,57,0071436696725 ,47,9651855725301 ,73,5229285093434
35.1180986 ,Left ,56,9884457520187 ,47,981956994912 ,73,5340329117953
35.1402855 ,Left ,56,9852536691004 ,47,9845677066904 ,73,5339966031813
35.1629726 ,Left ,56,9847984123811 ,47,9590318998391 ,73,540599415956
35.1779281 ,Left ,56,9767931716862 ,47,9259367854023 ,73,5421871534211
35.2003022 ,Left ,56,9556334061988 ,47,9100519014218 ,73,5338666075483
35.2237409 ,Left ,56,9354675304988 ,47,9032770318531 ,73,5108526648189
35.2384344 ,Left ,56,9140992492971 ,47,9103736503971 ,73,4680852810881
35.2608585 ,Left ,56,9484163827474 ,47,9267580328295 ,73,4700513648593
35.2831139 ,Left ,56,9480645235842 ,47,977131935443 ,73,4920088089292
35.298008 ,Left ,56,9974194598982 ,48,0333559485741 ,73,5002124461807
35.3206221 ,Left ,57,0574968042636 ,47,9767191494648 ,73,5347737796247
35.3430662 ,Left ,57,1680813177288 ,47,8893902242036 ,73,579748380132
35.3803701 ,Left ,57,0962594749297 ,47,8367309939053 ,73,5468763658647
35.402805 ,Left ,57,0338429946467 ,47,8464450623299 ,73,4685726779532
35.4405061 ,Left ,57,0140139671645 ,47,7647506759018 ,73,2398629550209
35.4629268 ,Left ,57,0269419148512 ,47,8096057348647 ,73,219119617684
35.5005745 ,Left ,57,0917207156209 ,47,9174246414994 ,73,286798722331
35.5232399 ,Left ,57,1815197163687 ,47,9058338004987 ,73,3219753102403
35.5607564 ,Left ,57,0983612225582 ,47,86163903026 ,73,2836736755901
35.5832028 ,Left ,57,0420719388886 ,47,8693263320436 ,73,2391957907689
35.6204767 ,Left ,56,9990383730529 ,47,9643672126908 ,73,1977304596121
35.6429646 ,Left ,56,9553593183844 ,48,0709642452539 ,73,1935273950644
35.6803064 ,Left ,57,0682943672714 ,48,1554348061121 ,73,2675638279329
35.702943 ,Left ,57,0929626632268 ,48,1567054867351 ,73,279567891823
35.7405355 ,Left ,56,9829884000206 ,48,234391513544 ,73,2580942106422
35.7629544 ,Left ,56,953502277492 ,48,2086350892507 ,73,3062488708949
35.8002496 ,Left ,56,8859135632085 ,48,0824690286361 ,73,3022571575993
35.8235303 ,Left ,56,8487581412678 ,48,0924648086716 ,73,2229940040314
35.8611199 ,Left ,56,7247757430442 ,48,2319001148833 ,73,1456488898727
35.8837653 ,Left ,56,77829926867 ,48,2748654199328 ,73,1602314331702
35.9283565 ,Left ,57,0460499616969 ,48,2176171316114 ,73,1994301463304
35.9506118 ,Left ,57,0873192886418 ,48,1865338603084 ,73,1891932287759
35.9809349 ,Left ,57,0101524591904 ,48,1431486814836 ,73,1271925201218
36.0033728 ,Left ,56,9663846535302 ,48,142463731805 ,73,0696617458172
36.0409425 ,Left ,56,9552994686178 ,48,1435635656555 ,72,9257696403019
36.0633381 ,Left ,56,9920749354834 ,48,1346457238772 ,72,8596338664315
36.1005196 ,Left ,56,8976856159943 ,48,134855985008 ,72,814613389446
36.1231526 ,Left ,56,8292066271696 ,48,1553894414972 ,72,7476113251365
36.1606854 ,Left ,56,6970850606359 ,48,1131679869068 ,72,5613300352638
36.1831878 ,Left ,56,7078025981337 ,48,0528137859254 ,72,5289085547774
36.2204443 ,Left ,56,6600434687381 ,48,1057297170498 ,72,4840761322384
36.2430853 ,Left ,56,7746397298421 ,48,1167495202228 ,72,5213866125807
36.2807118 ,Left ,57,0472525153926 ,47,900908847366 ,72,6235704153759
36.3031612 ,Left ,57,0217717564069 ,47,8018780900392 ,72,6088651742982
36.3412367 ,Left ,56,8391691230698 ,47,7340939689431 ,72,6369775648214
36.3634863 ,Left ,56,9349819959976 ,47,7299970178336 ,72,5971266567972
36.4010396 ,Left ,57,0783661653835 ,47,6760552948308 ,72,4883509944443
36.4234325 ,Left ,57,1164862096553 ,47,6567144575123 ,72,5216828520456
36.4682175 ,Left ,57,0779444617904 ,47,687768822748 ,72,5568344535976
36.5207947 ,Left ,57,243617707863 ,47,5857946650654 ,72,6754833694061
36.5577883 ,Left ,57,2179919876147 ,47,6227709079078 ,72,751027067288
36.5803224 ,Left ,57,221038210165 ,47,6664213896774 ,72,7963447437264
36.6179862 ,Left ,57,1908787993152 ,47,7634896082864 ,72,8681015945773
36.6409102 ,Left ,57,1958076755846 ,47,8186094916545 ,72,9078684994469
36.6784544 ,Left ,57,1610030621803 ,47,9223980746783 ,73,0128318954913
36.7010819 ,Left ,57,1285916339912 ,47,9632420636878 ,73,0451372970222
36.7159379 ,Left ,57,0931725597134 ,48,0115998455454 ,73,0674123278591
36.7382273 ,Left ,57,0733711446457 ,48,056821674965 ,73,0833405948734
36.7532755 ,Left ,57,0357437732188 ,48,095839085462 ,73,1090425261998
36.7758872 ,Left ,57,0229933289413 ,48,1171679486421 ,73,1515157954959
36.7983207 ,Left ,57,0320204790973 ,48,1206969534681 ,73,1939180410373
36.8134876 ,Left ,57,0372479821941 ,48,1109059541246 ,73,233631592229
36.8359619 ,Left ,57,0191922834376 ,48,1098865818747 ,73,2660613768874
36.8585122 ,Left ,57,0036664450455 ,48,117288198805 ,73,3003943363472
36.8733708 ,Left ,57,0014254610129 ,48,1157543144979 ,73,332376993942
36.8956898 ,Left ,56,9976210781194 ,48,1045297337724 ,73,3570761105862
36.9179893 ,Left ,56,9941562597021 ,48,0944944968782 ,73,3766221488356
36.9330668 ,Left ,56,9883451478044 ,48,0828529260816 ,73,3901272268082
36.9555966 ,Left ,56,9767990267634 ,48,0644439329146 ,73,4070927773326
36.9781433 ,Left ,56,9625770292742 ,48,0312714152477 ,73,4212808468534
36.9929822 ,Left ,56,944427532533 ,47,9811652833895 ,73,440310592562
37.0152417 ,Left ,56,9422992140791 ,47,9344672271731 ,73,4732350651392
37.0380529 ,Left ,56,9153827260009 ,47,9389924922925 ,73,4866202826129
37.0529696 ,Left ,56,9249516113382 ,47,9368349942337 ,73,4520770169286
37.075425 ,Left ,56,9147046453951 ,47,9488870550121 ,73,3764059324686
37.0981305 ,Left ,56,9736056766578 ,47,9805569423752 ,73,2810723535615
37.1131802 ,Left ,56,9557468252874 ,48,0006612326833 ,73,1789883479385
37.1355178 ,Left ,56,9248110154077 ,48,0109673908793 ,73,1439860686648
37.1581937 ,Left ,56,9891107307343 ,47,9189552999949 ,73,1833131446899
37.1731883 ,Left ,57,0601985143774 ,47,7994053730772 ,73,251756663754
37.1957107 ,Left ,57,0729276645084 ,47,7033607345214 ,73,2975052770644
37.2181372 ,Left ,57,0913493329998 ,47,639010570332 ,73,3358674746742
37.2328574 ,Left ,57,1007919074067 ,47,596457226924 ,73,3247466524408
37.2552297 ,Left ,57,0828647969118 ,47,5348611683369 ,73,2743796137011
37.2778249 ,Left ,57,0671349896823 ,47,499187932862 ,73,2286069461719
