timestamp,event,roll,pitch,yaw
0.0587917 ,Left ,62,8205111015011 ,47,0351957607164 ,29,6445011885764
0.0738003 ,Left ,62,8178242866981 ,47,0352998965387 ,29,6379684049463
0.0964041 ,Left ,62,8210711306036 ,47,0345367939778 ,29,6311935804448
0.1192187 ,Left ,62,8177598621314 ,47,0316022118024 ,29,6259283951942
0.1345813 ,Left ,62,8150765671196 ,47,0317032145792 ,29,6193919405959
0.1565709 ,Left ,62,8168588851131 ,47,032727354184 ,29,6192212073031
0.1786704 ,Left ,62,8208526859199 ,47,0294347861455 ,29,6159320110016
0.201412 ,Left ,62,8254731765077 ,47,029180401706 ,29,6113717205451
0.2163488 ,Left ,62,82531758365 ,47,0277758430545 ,29,6081517131622
0.2387832 ,Left ,62,8275131707993 ,47,0293178514582 ,29,605590717592
0.2614799 ,Left ,62,8292951791086 ,47,0303423820567 ,29,6054202703181
0.2765207 ,Left ,62,8307188325212 ,47,0319642283632 ,29,6055421646953
0.2989824 ,Left ,62,8318767131971 ,47,0299516379335 ,29,6066396021149
0.3214288 ,Left ,62,8336589059744 ,47,0309760401561 ,29,6064690769995
0.3363558 ,Left ,62,8340724099105 ,47,031493968549 ,29,6040788848584
0.3663603 ,Left ,62,8350826755248 ,47,0325978742772 ,29,6065909335261
0.3888418 ,Left ,62,8335035136377 ,47,0295722354827 ,29,6032484592332
0.4040646 ,Left ,62,8347115791829 ,47,0241544620238 ,29,5976103238942
0.4189092 ,Left ,62,8366117043451 ,47,0150911540337 ,29,5975541316088
0.4413149 ,Left ,62,8311534926161 ,47,0052636186631 ,29,5976231227427
0.4564771 ,Left ,62,8179801427169 ,46,9952697763243 ,29,5981123069432
0.4787814 ,Left ,62,8059694456143 ,46,983263314804 ,29,5996973676834
0.5014549 ,Left ,62,7848273091249 ,46,9694666445494 ,29,6015811893886
0.5163254 ,Left ,62,7560383710295 ,46,9611481156285 ,29,6064189180201
0.5390505 ,Left ,62,718138936993 ,46,9633507718178 ,29,6071966614377
0.5689757 ,Left ,62,6800698828175 ,46,9753232893851 ,29,6024492406582
0.5840163 ,Left ,62,6329359710966 ,46,9900282248754 ,29,6025022662682
0.6065282 ,Left ,62,59547083042 ,47,0119013357913 ,29,609732271928
0.6287845 ,Left ,62,5227614396754 ,47,0395705613587 ,29,6436116029535
0.6439912 ,Left ,62,4577335546361 ,47,0565461135678 ,29,6922222309039
0.6661464 ,Left ,62,4169225299774 ,47,0675590694836 ,29,7362087766696
0.6968118 ,Left ,62,3469521816485 ,47,0929259589592 ,29,7824660233002
0.7192669 ,Left ,62,3282525259584 ,47,1265429297894 ,29,7848281956254
0.7419453 ,Left ,62,3374420926924 ,47,1635754988451 ,29,7678287695022
0.7569889 ,Left ,62,3185582643309 ,47,2099867006403 ,29,7657786391549
0.779419 ,Left ,62,295214053558 ,47,254297405428 ,29,7592781823506
0.8014691 ,Left ,62,3341904947701 ,47,2700373319237 ,29,7391119564994
0.8163055 ,Left ,62,3741823336118 ,47,2719971414594 ,29,7043297534537
0.8462814 ,Left ,62,426057534579 ,47,2633384027264 ,29,6524476632773
0.8688988 ,Left ,62,4509155966933 ,47,2592728568451 ,29,6025583505632
0.8837584 ,Left ,62,4828230379193 ,47,2444110550087 ,29,542338730825
0.8988649 ,Left ,62,5189923076984 ,47,2059827106007 ,29,5051889527602
0.9213974 ,Left ,62,5359637442645 ,47,1487854342846 ,29,4615927025728
0.9364321 ,Left ,62,5384588066044 ,47,0738567183209 ,29,4253220703987
0.959118 ,Left ,62,5444497332268 ,47,0229239679726 ,29,4117924832398
0.9888849 ,Left ,62,5588377258559 ,47,0839933535165 ,29,4323107070392
1.0042026 ,Left ,62,6236274420903 ,47,1279210401925 ,29,4559285169146
1.0264643 ,Left ,62,6918445874288 ,47,1129192800717 ,29,5015640464987
1.041624 ,Left ,62,6573939145071 ,47,1094425649819 ,29,5238303933165
1.0567445 ,Left ,62,6204240064433 ,47,1397262389247 ,29,4935799764969
1.0792324 ,Left ,62,663798475465 ,47,1647416950507 ,29,4523037924672
1.1089905 ,Left ,62,6698208132454 ,47,2040576054823 ,29,432428421687
1.1243632 ,Left ,62,6822398220453 ,47,2740453595294 ,29,4272786866082
1.146756 ,Left ,62,7318972074338 ,47,265294865083 ,29,4498946946124
1.1842491 ,Left ,62,66403378837 ,47,1931448434724 ,29,5993929515517
1.1991356 ,Left ,62,6404914979872 ,47,2118153404076 ,29,5839744532895
1.2216336 ,Left ,62,6716206302014 ,47,2506633504081 ,29,5594525128227
1.2442847 ,Left ,62,7018745859325 ,47,2605123144247 ,29,5419523892372
1.2591272 ,Left ,62,6313763831724 ,47,213884301813 ,29,5038544040778
1.2817284 ,Left ,62,5231923627022 ,47,1284937095979 ,29,4159021838563
1.3043241 ,Left ,62,4465251660448 ,47,0453201069421 ,29,2963818432022
1.3191253 ,Left ,62,4362365887663 ,47,0534493075544 ,29,1829346887987
1.3416511 ,Left ,62,4432285057762 ,47,0819862144437 ,29,1029456285466
1.3642982 ,Left ,62,5031912057649 ,47,0465128727909 ,29,0805458566035
1.3792418 ,Left ,62,5079057089992 ,46,9691608737552 ,29,0912948226389
1.4015827 ,Left ,62,4523424857627 ,46,888752296698 ,29,1168888055466
1.4240457 ,Left ,62,414638352935 ,46,8389914302799 ,29,1472659925949
1.4391319 ,Left ,62,4442396761044 ,46,8035189395359 ,29,1677313582687
1.4692256 ,Left ,62,4770701525344 ,46,7771101079971 ,29,1830011729874
1.4917373 ,Left ,62,4513678154306 ,46,7819311428351 ,29,1984154800833
1.5065348 ,Left ,62,4281122524275 ,46,7914176376348 ,29,2251252987116
1.5216558 ,Left ,62,4613729997197 ,46,8093424306562 ,29,2614052814802
1.5440878 ,Left ,62,4720119591049 ,46,8368098102077 ,29,3164398591563
1.5591432 ,Left ,62,4559232402017 ,46,8682624684003 ,29,3789756922251
1.5817767 ,Left ,62,4211370227966 ,46,88775307945 ,29,4610179418011
1.604005 ,Left ,62,402423652168 ,46,8977866348436 ,29,5345612462849
1.6191041 ,Left ,62,4196861150715 ,46,8990429320888 ,29,6051484874677
1.6416208 ,Left ,62,4216010376607 ,46,9141790889422 ,29,6753361118197
1.671627 ,Left ,62,4239175729643 ,46,9318062576703 ,29,7464520573103
1.686597 ,Left ,62,4041064364009 ,46,9436074891459 ,29,8335435843767
1.7092088 ,Left ,62,3777936687785 ,46,9678900772338 ,29,9337935483832
1.7241723 ,Left ,62,3900372131638 ,46,9792619423602 ,29,9852300888241
1.7464631 ,Left ,62,3675695661203 ,46,9512197303237 ,30,0060566579867
1.7690416 ,Left ,62,3331076707898 ,46,9309387814221 ,30,0097894078978
1.7989543 ,Left ,62,32629787397 ,47,0506245649685 ,30,0198119461649
1.8211243 ,Left ,62,3262870223301 ,47,1135775230827 ,30,0235503443488
1.8436481 ,Left ,62,2859884821069 ,47,1510278237745 ,30,0027160860802
1.8588327 ,Left ,62,2744941558073 ,47,1401818060739 ,29,9740963421565
1.8819701 ,Left ,62,2968635623393 ,47,0867963714399 ,29,9259096226313
1.9042091 ,Left ,62,3303494384685 ,47,0233415366263 ,29,8228035624586
1.9265757 ,Left ,62,3391091925032 ,46,911251711575 ,29,6831727869687
1.9413967 ,Left ,62,3543956857561 ,46,8185263915015 ,29,5443955720818
1.9638575 ,Left ,62,3970698829493 ,46,746229931618 ,29,447437065077
1.9863836 ,Left ,62,4272915207772 ,46,7346903776566 ,29,3940273837743
2.001377 ,Left ,62,4352148030331 ,46,7649207887726 ,29,374216302015
2.0239181 ,Left ,62,4436349984042 ,46,7840895988571 ,29,367151779464
2.0463142 ,Left ,62,4813429741615 ,46,8093323873978 ,29,358869295993
2.0612855 ,Left ,62,476749059397 ,46,8491173468735 ,29,3769729493347
2.0913879 ,Left ,62,429187315285 ,46,9114766100293 ,29,3945641167545
2.1135954 ,Left ,62,4149432204002 ,46,9561010353381 ,29,4083498353737
2.1287864 ,Left ,62,4073787536283 ,46,9439857140878 ,29,4185207051448
2.1736634 ,Left ,62,3318621103188 ,46,8218844887564 ,29,4781436897755
2.196582 ,Left ,62,322114062688 ,46,8534041435674 ,29,460899165591
2.2416252 ,Left ,62,2931880597629 ,46,9416559366362 ,29,4596215160512
2.2642299 ,Left ,62,2543587912153 ,47,0065325157821 ,29,5100261944307
2.2941716 ,Left ,62,4326260863506 ,47,0098876612686 ,29,4471857302734
2.3164459 ,Left ,62,4663765006006 ,46,9261333031456 ,29,3431156090539
2.354137 ,Left ,62,2190504723699 ,47,0086651659301 ,29,2475412613588
2.3763093 ,Left ,62,3262992184141 ,46,9935528110037 ,29,1751399529224
2.4139349 ,Left ,62,3220946922682 ,46,8085601416664 ,29,0386128151907
2.4364414 ,Left ,62,2573541106757 ,46,7977054223962 ,29,0414041057701
2.4738359 ,Left ,62,3675434236188 ,46,8991379331819 ,29,0758319295258
2.4961167 ,Left ,62,4638922130379 ,46,9342744066718 ,29,159682919832
2.5336224 ,Left ,62,5099212037875 ,46,9854855453133 ,29,1834757346647
2.5562354 ,Left ,62,5011651094044 ,46,9482601022807 ,29,1358775984124
2.6014757 ,Left ,62,4745563696221 ,46,8814798241085 ,29,0502180533471
2.6535914 ,Left ,62,4045100555077 ,46,7787982971541 ,29,1229436213542
2.6761073 ,Left ,62,3981098586912 ,46,7502093495775 ,29,1430118218007
2.7136731 ,Left ,62,4493197913058 ,46,7139389941006 ,29,1126784927324
2.7361599 ,Left ,62,4254384274503 ,46,716829767438 ,29,1029685776541
2.7811805 ,Left ,62,415546951197 ,46,6923052767879 ,29,1109145222478
2.8035979 ,Left ,62,3958927250943 ,46,6750655985373 ,29,1160031079035
2.8337694 ,Left ,62,3858226400841 ,46,6355814347978 ,29,1165783167347
2.8561226 ,Left ,62,3913957572158 ,46,6123584873866 ,29,1161340005654
2.8939676 ,Left ,62,3933397307914 ,46,5925004960545 ,29,1111858667543
2.9165045 ,Left ,62,4129883102519 ,46,5852078273413 ,29,1022705565305
2.9541411 ,Left ,62,434721378765 ,46,5514954901056 ,29,0952525727314
2.9765529 ,Left ,62,4365256011543 ,46,5377135111876 ,29,0982719608161
3.0141172 ,Left ,62,435753524698 ,46,5310456752643 ,29,100516104626
3.0362943 ,Left ,62,4358691517679 ,46,5335959043319 ,29,1016751425789
3.0738062 ,Left ,62,4344701449662 ,46,5387376238096 ,29,1020030485306
3.0966019 ,Left ,62,4297749131597 ,46,5480894925582 ,29,1009087663368
3.1417186 ,Left ,62,4034859713276 ,46,5813056781915 ,29,101679059603
3.1643846 ,Left ,62,3882591419375 ,46,615826509365 ,29,1037859491396
3.1938691 ,Left ,62,3675788892429 ,46,6688455447937 ,29,1219036167144
3.216348 ,Left ,62,3399101507589 ,46,6920424207044 ,29,1389324440701
3.2540922 ,Left ,62,2601180016166 ,46,7464286591557 ,29,1992487578849
3.2761272 ,Left ,62,2569779233748 ,46,7740760929541 ,29,2237612324875
3.3139813 ,Left ,62,2363829899222 ,46,8005567489194 ,29,3009163682162
3.3366031 ,Left ,62,1816849935071 ,46,8303793897124 ,29,341579675907
3.3740784 ,Left ,62,1922549266123 ,46,8560313037163 ,29,3621151590765
3.396267 ,Left ,62,2052233168675 ,46,8539305742095 ,29,3662225412998
3.4340404 ,Left ,62,157119787087 ,46,8920749129905 ,29,3026634557611
3.4640914 ,Left ,62,1917178687585 ,46,8801499900519 ,29,2836246007897
3.501607 ,Left ,62,3112562500169 ,46,7536814386748 ,29,1280911624527
3.5164421 ,Left ,62,3121448861959 ,46,6868109214809 ,29,05227377802
3.5541792 ,Left ,62,3663426623991 ,46,7056902172219 ,28,977238167791
3.5760975 ,Left ,62,4230751052645 ,46,682533055327 ,28,9532935532365
3.6142886 ,Left ,62,3943695581902 ,46,6544655107837 ,28,9699313240773
3.6368916 ,Left ,62,3835539659651 ,46,6615132381502 ,28,9828472978244
3.6739291 ,Left ,62,4599666803114 ,46,6097691622703 ,28,947363935594
3.6964431 ,Left ,62,3963257895605 ,46,6025973610248 ,28,9338787740187
3.7338846 ,Left ,62,4340663035907 ,46,6997704196819 ,28,9181958953909
3.7565326 ,Left ,62,50448640915 ,46,7096188026766 ,28,9171826788203
3.7939155 ,Left ,62,4423229519806 ,46,7114378733572 ,28,9825832966102
3.8162945 ,Left ,62,4382742172341 ,46,7384692246606 ,28,9787969864892
3.8544063 ,Left ,62,510353113915 ,46,7962261672252 ,28,9691016679141
3.884331 ,Left ,62,5017072933682 ,46,8177659723356 ,28,9673895155303
3.9218676 ,Left ,62,502366288964 ,46,8082046301815 ,28,933942041285
3.9367255 ,Left ,62,4784999100368 ,46,7850079412485 ,28,9170554230771
3.9819283 ,Left ,62,450690571094 ,46,7704782892538 ,28,9113104508422
3.9964683 ,Left ,62,4599134924583 ,46,7591488168292 ,28,9487924460223
4.0264573 ,Left ,62,4916708644697 ,46,6842724221705 ,29,0035574799969
4.0488658 ,Left ,62,4600362767503 ,46,6668486953046 ,29,0262574364078
4.0713383 ,Left ,62,4342258411365 ,46,7459942674603 ,29,0436003117392
4.0863315 ,Left ,62,4144349239056 ,46,8366380455912 ,29,0559280907292
4.1090497 ,Left ,62,4698516049689 ,46,8747760266834 ,29,0748371182884
4.1313115 ,Left ,62,5105305866441 ,46,891463031001 ,29,1464596291134
4.1461791 ,Left ,62,5235515444183 ,46,9458621961555 ,29,1748481904617
4.1688473 ,Left ,62,5667774664238 ,46,9732072938919 ,29,1367004979622
4.1913522 ,Left ,62,6149818532929 ,46,9853387265948 ,29,0581617926224
4.2062098 ,Left ,62,5651460055046 ,46,9971392990749 ,28,9724166862989
4.2288481 ,Left ,62,4653478248286 ,46,997388831194 ,28,9038825620978
4.2511928 ,Left ,62,4429218805268 ,46,9730835180115 ,28,8208814456011
4.2663059 ,Left ,62,4830642069703 ,46,926227789172 ,28,7509593206685
4.2887041 ,Left ,62,5137696143253 ,46,8653048822217 ,28,7066955225235
4.3113846 ,Left ,62,5041809663644 ,46,8233227306688 ,28,6854200343052
4.3263957 ,Left ,62,4511348585372 ,46,8694291491765 ,28,6926572074329
4.3489143 ,Left ,62,4944718063561 ,46,9085742722555 ,28,6752467956628
4.3714497 ,Left ,62,5442580600254 ,46,9041347605049 ,28,6708680355401
4.3864697 ,Left ,62,5041531374449 ,46,864934632109 ,28,6923558045655
4.4089295 ,Left ,62,419986173021 ,46,8342093507088 ,28,7227775837818
4.43143 ,Left ,62,3639564218705 ,46,8925406509435 ,28,757722502126
4.4464785 ,Left ,62,414964308878 ,46,9724093286693 ,28,7693890079683
4.4689483 ,Left ,62,4528355468347 ,46,9792924916067 ,28,7780621945956
4.4912466 ,Left ,62,4555641824144 ,47,0129986189623 ,28,813765266695
4.5138557 ,Left ,62,4196074409226 ,47,1164362410966 ,28,8273875357366
4.5365084 ,Left ,62,4854169361031 ,47,1451738473812 ,28,7882890388655
4.5594043 ,Left ,62,5196408559442 ,47,0906932864425 ,28,7018071524799
4.574435 ,Left ,62,520278786399 ,46,9573781735107 ,28,5990546944461
4.5894842 ,Left ,62,4618455584633 ,46,8143821689806 ,28,5341222789048
4.611735 ,Left ,62,3963581124738 ,46,6894979167836 ,28,5019538950359
4.634158 ,Left ,62,3708153633433 ,46,5953178323821 ,28,491034060821
4.6491082 ,Left ,62,3888464022488 ,46,5484521865418 ,28,4896593485497
4.6717647 ,Left ,62,4184549632237 ,46,537372622847 ,28,490196444255
4.6943312 ,Left ,62,4238364784242 ,46,5196641222378 ,28,5055090026425
4.7166611 ,Left ,62,4147039611442 ,46,5022351928458 ,28,5114042199685
4.7392248 ,Left ,62,4254981727875 ,46,5146087453636 ,28,5179138487526
4.7543731 ,Left ,62,4265253520961 ,46,542762525907 ,28,5102463978121
4.7767334 ,Left ,62,4356047536585 ,46,561656676017 ,28,5077251181485
4.7992758 ,Left ,62,4398336065328 ,46,5559159687961 ,28,5030430306631
4.8214367 ,Left ,62,3827492721747 ,46,5157438553106 ,28,5053136603305
4.8367099 ,Left ,62,314405135115 ,46,486955511893 ,28,5308840569226
4.8516361 ,Left ,62,2965242991967 ,46,4611992350431 ,28,567716082707
4.8665893 ,Left ,62,3022972144291 ,46,4364001379039 ,28,5897965007747
4.8886657 ,Left ,62,3062933548781 ,46,4048719635855 ,28,5913265525627
4.9113384 ,Left ,62,2829510996864 ,46,3769716283112 ,28,5955885009934
4.9336987 ,Left ,62,2824265724617 ,46,3477844102147 ,28,597445681709
4.9486138 ,Left ,62,3182497515793 ,46,3406936334987 ,28,5943777685381
4.9714436 ,Left ,62,3083821555115 ,46,3584613796492 ,28,6019271027716
5.0015608 ,Left ,62,3192778225143 ,46,3706083050972 ,28,6137405223593
5.0165322 ,Left ,62,3444635351997 ,46,3735008200039 ,28,6226327799275
5.0386439 ,Left ,62,3495678104604 ,46,3691277947114 ,28,6313433434828
5.0538363 ,Left ,62,3484207663241 ,46,373637031297 ,28,6314357405046
5.0687102 ,Left ,62,3469319276025 ,46,3828158815444 ,28,6363323108343
5.0912766 ,Left ,62,3532812880337 ,46,3906912551352 ,28,6427504375334
5.1136796 ,Left ,62,353139090014 ,46,397680124209 ,28,654050822047
5.1288933 ,Left ,62,3537594985286 ,46,3982251415757 ,28,6643167918501
5.1588226 ,Left ,62,3470871749572 ,46,3896579298724 ,28,6656438466126
5.1814341 ,Left ,62,3458403807149 ,46,3850041841651 ,28,6588031357219
5.1961398 ,Left ,62,3578858937189 ,46,3832913990476 ,28,6526967760964
5.2113539 ,Left ,62,3612940484585 ,46,3854366030325 ,28,6524100986206
5.2337064 ,Left ,62,3600952155534 ,46,3873839756107 ,28,6513133303817
5.2488465 ,Left ,62,3673842056855 ,46,3964956487831 ,28,660254236388
5.2713264 ,Left ,62,3690892126944 ,46,3975678104288 ,28,6601107121401
5.2938064 ,Left ,62,3690892126944 ,46,3975678104288 ,28,6601107121401
5.3089701 ,Left ,62,3690892126944 ,46,3975678104288 ,28,6601107121401
5.3312134 ,Left ,62,3707366885676 ,46,3960783883235 ,28,6587799987208
5.3541189 ,Left ,62,368152790569 ,46,3927561555365 ,28,6712682638673
5.3685975 ,Left ,62,3687170200347 ,46,3907333618074 ,28,6803417651072
5.391335 ,Left ,62,3783840828172 ,46,3839701650774 ,28,6886500430643
5.4143791 ,Left ,62,3904554604369 ,46,3692673014944 ,28,694573672981
5.4288238 ,Left ,62,3942570675649 ,46,3616924998878 ,28,6997778515127
5.4513475 ,Left ,62,3915504222108 ,46,3532377428489 ,28,7098725436739
5.4737527 ,Left ,62,3993883080605 ,46,3483225177433 ,28,7250224998246
5.4888029 ,Left ,62,393259252878 ,46,3417607009329 ,28,7399573096385
5.5114323 ,Left ,62,394149864217 ,46,3390927573732 ,28,7487595022711
5.5337617 ,Left ,62,3967912218467 ,46,3413991274589 ,28,7511372471382
5.5488621 ,Left ,62,3945184865185 ,46,3463983893095 ,28,7467876566471
5.5713856 ,Left ,62,3882043426498 ,46,356796390319 ,28,7415928768437
5.5938001 ,Left ,62,3655916149429 ,46,3644052129933 ,28,744279290144
5.6088271 ,Left ,62,345023020078 ,46,3684146744516 ,28,741998743888
5.631402 ,Left ,62,3323418778678 ,46,3749820880887 ,28,7349210638683
5.6537768 ,Left ,62,3173424873409 ,46,3880046502599 ,28,726809092251
5.6687179 ,Left ,62,3035559575868 ,46,4200998075832 ,28,7167691511291
5.6918012 ,Left ,62,2921447966808 ,46,4613916841063 ,28,7076122622262
5.7144945 ,Left ,62,2615048401747 ,46,5051931004062 ,28,7152462817515
5.7293991 ,Left ,62,2139511055525 ,46,551583275807 ,28,7335903240453
5.7512858 ,Left ,62,1592400422365 ,46,5853734868712 ,28,7564640874866
5.7739145 ,Left ,62,103706365482 ,46,6262841797854 ,28,7802206404454
5.7964232 ,Left ,62,0757839472004 ,46,6711672154684 ,28,8047952668087
5.8113627 ,Left ,62,0565436446113 ,46,7078762631473 ,28,8244781566279
5.8337684 ,Left ,62,0311955963397 ,46,7428727995556 ,28,837810948824
5.8486944 ,Left ,62,0412733069298 ,46,7697962142634 ,28,835993971514
5.871096 ,Left ,62,0611135305157 ,46,7672760923255 ,28,8500574993588
5.9012866 ,Left ,62,0441013192425 ,46,7806672949215 ,28,8527599433959
5.9237325 ,Left ,62,0269230598301 ,46,7854640218509 ,28,8410873794178
5.9387255 ,Left ,62,0607586383711 ,46,77693567018 ,28,8185042403926
5.9770216 ,Left ,62,2047845693612 ,46,7307894912151 ,28,7906767660927
5.991934 ,Left ,62,25420829152 ,46,7009507810141 ,28,7538345041292
6.0144917 ,Left ,62,2582298355606 ,46,6903586173233 ,28,6952006446399
6.0368344 ,Left ,62,236234438095 ,46,6864730254344 ,28,6296204657946
6.0518558 ,Left ,62,2686677966774 ,46,7014474700078 ,28,5788808875063
6.0739716 ,Left ,62,3609469969835 ,46,688547159696 ,28,5579200109536
6.1040822 ,Left ,62,3836541362945 ,46,631113124805 ,28,5654020542063
6.1189835 ,Left ,62,3818581592902 ,46,544290870911 ,28,6004147895065
6.1414955 ,Left ,62,3260403197956 ,46,4382768835365 ,28,6278033059478
6.171517 ,Left ,62,288908613758 ,46,3016786009162 ,28,5907579577209
6.1937083 ,Left ,62,2919115503469 ,46,2860898588299 ,28,5767803518296
6.2161376 ,Left ,62,2540656163317 ,46,3645788171276 ,28,5889302305306
6.2313476 ,Left ,62,2289746076594 ,46,4489553282602 ,28,6161785274464
6.2619665 ,Left ,62,3076514297677 ,46,4366470169895 ,28,650264983341
6.2845108 ,Left ,62,3217627982592 ,46,4222674692359 ,28,6450517021881
6.2993751 ,Left ,62,2759291825586 ,46,4394518913512 ,28,5842577390545
6.3142827 ,Left ,62,2321730621422 ,46,4662717880536 ,28,5244013574493
6.3367598 ,Left ,62,2428621807026 ,46,4866290863123 ,28,4721354595364
6.3515784 ,Left ,62,3030236838191 ,46,4894063294039 ,28,4351563917927
6.3741224 ,Left ,62,3236570559442 ,46,451074674824 ,28,4053604538589
6.396704 ,Left ,62,3016677223373 ,46,436920042352 ,28,4234392451065
6.4117408 ,Left ,62,2829013054391 ,46,4601526092897 ,28,4347776710552
6.4340456 ,Left ,62,2840398362356 ,46,4809234445426 ,28,3919145102145
6.4566436 ,Left ,62,2974001925973 ,46,4891799297678 ,28,3379317189479
6.4716409 ,Left ,62,3086699627813 ,46,456002060284 ,28,2961415842365
6.4941574 ,Left ,62,2992632478934 ,46,4065149846182 ,28,2606334883066
6.5165915 ,Left ,62,2970041423851 ,46,3855654884011 ,28,2331188972649
6.5391427 ,Left ,62,3051876110558 ,46,3836130743695 ,28,2051803121537
6.5617586 ,Left ,62,3294220216519 ,46,4138448369006 ,28,2250099126443
6.5990747 ,Left ,62,3779643780035 ,46,4029127949888 ,28,3405781066962
6.6143259 ,Left ,62,3884123555674 ,46,4020851628286 ,28,4036640700358
6.6367676 ,Left ,62,3782031649541 ,46,4468349448812 ,28,4637322681395
6.6515301 ,Left ,62,3595991530116 ,46,4906210732525 ,28,5343812420091
6.6740845 ,Left ,62,3565628817424 ,46,5231770199789 ,28,5903307808771
6.6965981 ,Left ,62,2896890544278 ,46,5966565054513 ,28,6325481786018
6.7115925 ,Left ,62,2888000043742 ,46,6683738557295 ,28,6384832252434
6.7341587 ,Left ,62,3509584339431 ,46,7132086811716 ,28,633916996658
6.7567691 ,Left ,62,3887070996141 ,46,737522108093 ,28,6088791095771
6.7716372 ,Left ,62,3966597230243 ,46,7149581250959 ,28,5712512134996
6.7940671 ,Left ,62,3542813470063 ,46,7015692485877 ,28,5356436865699
6.8167792 ,Left ,62,2934062926668 ,46,6849973181929 ,28,5008766279328
6.8391667 ,Left ,62,2518076841537 ,46,6862994713522 ,28,4664891366363
6.8543152 ,Left ,62,2635617032429 ,46,6842707253651 ,28,3979460641004
6.8765829 ,Left ,62,2621266738587 ,46,6825080874662 ,28,3425624929822
6.899159 ,Left ,62,2417745215677 ,46,6618781611138 ,28,3125410545933
6.9144003 ,Left ,62,2660638561081 ,46,6286587263978 ,28,3259866486821
6.9443801 ,Left ,62,2361854723667 ,46,6082237492573 ,28,349810434949
6.9666103 ,Left ,62,2085071531603 ,46,6360334417112 ,28,3614244961513
6.9817451 ,Left ,62,2246519308788 ,46,6851480898712 ,28,36462043865
6.9967178 ,Left ,62,272834234799 ,46,7093730903066 ,28,395465806488
7.0191766 ,Left ,62,2937552782853 ,46,6885993940806 ,28,4239739646439
7.0340413 ,Left ,62,2718507468273 ,46,6881140128485 ,28,4589476859526
7.0564971 ,Left ,62,3071337912786 ,46,7335314938438 ,28,4736017136558
7.0864258 ,Left ,62,3732199468373 ,46,7345195984322 ,28,4571202153959
7.1013569 ,Left ,62,4427367956941 ,46,647662304952 ,28,3863397941352
7.1236718 ,Left ,62,4018243489612 ,46,4974894051885 ,28,2737866844205
7.1540675 ,Left ,62,2494880254075 ,46,2727206286052 ,28,1230010545634
7.1765379 ,Left ,62,2688180690963 ,46,2075482054566 ,28,0885131947548
7.1989345 ,Left ,62,294504089075 ,46,1680049894406 ,28,0816853532059
7.2215816 ,Left ,62,2957547094595 ,46,1635134420002 ,28,0815424219436
7.2440866 ,Left ,62,2331652314046 ,46,1869874534358 ,28,1072471172779
7.2740563 ,Left ,62,364002210057 ,46,2227792786853 ,28,1359789622353
7.3041121 ,Left ,62,3824309930299 ,46,2646129226382 ,28,1532453734024
7.3264555 ,Left ,62,3618301760836 ,46,2859688288077 ,28,1649609748624
7.3489619 ,Left ,62,3455604526142 ,46,3032623289101 ,28,188082160884
7.3714379 ,Left ,62,2972033863751 ,46,2865308304135 ,28,1983537369856
7.3940363 ,Left ,62,2570811870242 ,46,2744287743075 ,28,2047464220364
7.4088313 ,Left ,62,2029180278651 ,46,2685896658025 ,28,2383538667039
7.4241038 ,Left ,62,1671169452973 ,46,2563931441119 ,28,3027793662471
7.4386461 ,Left ,62,1784428378806 ,46,2124631753616 ,28,3605903346849
7.4537638 ,Left ,62,1731203160501 ,46,1518193521318 ,28,3805274500866
7.4761882 ,Left ,62,1336297056306 ,46,1093878152259 ,28,3718265713674
7.4987713 ,Left ,62,1164582514138 ,46,1077292393582 ,28,3601977336294
7.5136582 ,Left ,62,1249841350778 ,46,1221964217703 ,28,3555279903934
7.5361956 ,Left ,62,1409570359165 ,46,1283583426116 ,28,36727032399
7.559433 ,Left ,62,1455141799609 ,46,118300074182 ,28,3814944913361
7.5739055 ,Left ,62,1330078189809 ,46,1001541894691 ,28,3910834755574
7.5961766 ,Left ,62,1229536400142 ,46,0908403735501 ,28,3960910037547
7.6262915 ,Left ,62,1361808658691 ,46,0911530850673 ,28,4010065789005
7.6489853 ,Left ,62,1631281769839 ,46,0973545528649 ,28,4107979862347
7.6711989 ,Left ,62,1884453485184 ,46,1101813401067 ,28,4243374511164
7.686337 ,Left ,62,1968739744003 ,46,118376691075 ,28,4376617479741
7.7013797 ,Left ,62,2031664177486 ,46,1274299137433 ,28,4419681748902
7.7161871 ,Left ,62,2014960110898 ,46,128922919511 ,28,4433147714132
7.7388628 ,Left ,62,2031790705717 ,46,1300068541322 ,28,4431771371887
7.7540927 ,Left ,62,206745592 ,46,143560356807 ,28,4455303075313
7.7841675 ,Left ,62,217642229826 ,46,1554189802704 ,28,4518563109477
7.8067044 ,Left ,62,2192856515217 ,46,1708741956119 ,28,4611603806988
7.8442315 ,Left ,62,2128491547398 ,46,1878206714218 ,28,4617381334207
7.8665577 ,Left ,62,2243180742401 ,46,2014121206262 ,28,4580388719576
7.8891491 ,Left ,62,2228482907241 ,46,2166781713087 ,28,4504060083609
7.904405 ,Left ,62,2288485366072 ,46,2313300279374 ,28,4445520905387
7.9117033 ,Left ,62,2447573148971 ,46,2440781542554 ,28,4438834288402
7.9487728 ,Left ,62,2636633810402 ,46,2662597069155 ,28,4489821861956
7.9712285 ,Left ,62,2754828904669 ,46,2742221461037 ,28,455427024938
8.0089356 ,Left ,62,3070557967312 ,46,294950417788 ,28,457287962654
8.0315515 ,Left ,62,3087462401879 ,46,2960325879144 ,28,4571509399883
8.0690588 ,Left ,62,3070837554892 ,46,2975192028773 ,28,4584891649384
8.0916236 ,Left ,62,3178222270029 ,46,3059154802319 ,28,4604301042518
8.1290199 ,Left ,62,3334677691808 ,46,3230833808758 ,28,4699592244819
8.1516594 ,Left ,62,3381238775134 ,46,328442590963 ,28,4731796906419
8.189094 ,Left ,62,3492982866785 ,46,3347127770075 ,28,4714856557748
8.2116186 ,Left ,62,3493308267743 ,46,3372789538684 ,28,4726857104471
8.2490442 ,Left ,62,3511873726098 ,46,3420127904294 ,28,4715500309119
8.2716602 ,Left ,62,35288090884 ,46,3430937201145 ,28,4714127040998
8.3088381 ,Left ,62,3485697959917 ,46,3551883434522 ,28,4582343969646
8.3316785 ,Left ,62,3499072018913 ,46,3543382196301 ,28,4571317194307
8.3690561 ,Left ,62,3476542157009 ,46,3618630672365 ,28,453936933178
8.3990872 ,Left ,62,3401941955106 ,46,3650549479463 ,28,4533479795755
8.436541 ,Left ,62,345239260639 ,46,3657354769149 ,28,4517409468343
8.451684 ,Left ,62,3449162765896 ,46,366368886263 ,28,4519738171965
8.4965345 ,Left ,62,3487541461163 ,46,3689857312296 ,28,4492684713823
8.5190416 ,Left ,62,3470946104248 ,46,3704692879683 ,28,4506027632553
8.5489948 ,Left ,62,3396448617231 ,46,3828377892568 ,28,456997590336
8.5716427 ,Left ,62,3273101366748 ,46,3978193297678 ,28,4565782180495
8.6166304 ,Left ,62,27382185976 ,46,4537211539566 ,28,4747531330593
8.6391381 ,Left ,62,2443669311208 ,46,4912516478744 ,28,4971045660103
8.6691331 ,Left ,62,1737476197405 ,46,5562150042825 ,28,5834048626523
8.6915136 ,Left ,62,1279036691037 ,46,575843022633 ,28,6429030658206
8.7291202 ,Left ,61,9999155054719 ,46,6519933320328 ,28,7617733381017
8.7514016 ,Left ,61,9909340104166 ,46,7060422037108 ,28,7853274882575
8.7888901 ,Left ,62,0023241515385 ,46,799949726795 ,28,821459582903
8.8114173 ,Left ,61,9627601011172 ,46,8580401930598 ,28,8043067874741
8.8490647 ,Left ,62,0455259174035 ,46,8047478078766 ,28,6974906905487
8.871533 ,Left ,62,0869559580664 ,46,7393883525434 ,28,6424683742086
8.9090902 ,Left ,62,1539709810379 ,46,5766869590811 ,28,471118251106
8.9316731 ,Left ,62,1768836705323 ,46,5200779777515 ,28,4086303185063
8.9691236 ,Left ,62,2476200074371 ,46,4993210265535 ,28,3245469098624
8.9916285 ,Left ,62,330227746606 ,46,454293089663 ,28,291501727473
9.0286687 ,Left ,62,3624092670323 ,46,4072980339534 ,28,3074085002593
9.0511059 ,Left ,62,3679931242164 ,46,429214966153 ,28,3075969854628
9.088872 ,Left ,62,3983533318267 ,46,5245353671623 ,28,322259834318
9.1112115 ,Left ,62,3858787399163 ,46,5770445336924 ,28,3055050552167
9.1563093 ,Left ,62,3286795188204 ,46,6677409318642 ,28,2260671878145
9.1792281 ,Left ,62,3225136738349 ,46,6950323092065 ,28,1865752758927
9.2316857 ,Left ,62,2766786021963 ,46,4721299466555 ,28,0627635474785
9.2690143 ,Left ,62,2056322481897 ,46,4444824821226 ,28,0061888819842
9.2917145 ,Left ,62,2969773252309 ,46,4837703069352 ,27,9750235108073
9.3291346 ,Left ,62,3080780671854 ,46,4938848349185 ,27,953979261271
9.3514332 ,Left ,62,2000900661706 ,46,5355916462904 ,27,9385940840157
9.3891061 ,Left ,62,2117665439594 ,46,5826700948178 ,27,8870425729399
9.4116429 ,Left ,62,1965890580482 ,46,5626213275932 ,27,8944668865119
9.4567054 ,Left ,62,1179218219272 ,46,5625390182815 ,27,9916252183282
9.4791639 ,Left ,62,1659805302678 ,46,5932359966888 ,28,05969748896
9.5090927 ,Left ,62,2358812252116 ,46,5908542390088 ,28,2418621419444
9.5316974 ,Left ,62,2225229733481 ,46,570651863973 ,28,3376746758939
9.5691051 ,Left ,62,2292535594589 ,46,5765050153177 ,28,4971716532381
9.5990546 ,Left ,62,2148432172963 ,46,6321987541306 ,28,5424020185781
9.629187 ,Left ,62,1587765297882 ,46,6930624523122 ,28,5707905248247
9.651607 ,Left ,62,1620994557196 ,46,7504261099812 ,28,5571903749556
9.6891307 ,Left ,62,2682252553331 ,46,7909786573881 ,28,5170120460266
9.7191262 ,Left ,62,2785920628785 ,46,7279985745852 ,28,4960540135963
9.7561153 ,Left ,62,2096433385625 ,46,5370393838067 ,28,3846188414351
9.7713983 ,Left ,62,158490912509 ,46,4848080755294 ,28,3159937843245
9.7865223 ,Left ,62,1645895105465 ,46,500681528384 ,28,2396538910123
9.8013849 ,Left ,62,1985913416922 ,46,5343038264405 ,28,1677337552683
9.8243042 ,Left ,62,2507750153542 ,46,5247956645032 ,28,1252974529349
9.8470665 ,Left ,62,2597338625031 ,46,4861122224818 ,28,1370843119889
9.8619524 ,Left ,62,2122015995187 ,46,4826265441322 ,28,168888644601
9.8845464 ,Left ,62,1690387630007 ,46,5148508566915 ,28,2077106132104
9.9067829 ,Left ,62,1816233578173 ,46,5707455744246 ,28,229086636068
9.9216143 ,Left ,62,1731225042281 ,46,634475479783 ,28,2549035076367
9.9439829 ,Left ,62,0969432773701 ,46,6972292055912 ,28,2819829735582
9.9664416 ,Left ,62,0910768137912 ,46,7713247608928 ,28,3321513284237
9.9815539 ,Left ,62,1039046102296 ,46,8292714111026 ,28,3826719127012
10.0038619 ,Left ,62,182342739097 ,46,8418367839884 ,28,3957517051917
10.0265497 ,Left ,62,2360748612656 ,46,7715266924042 ,28,3484070948287
10.0416005 ,Left ,62,1690487123746 ,46,6138572286363 ,28,2493825452002
10.0716312 ,Left ,62,0896711352198 ,46,4156150149628 ,28,14974528502
10.0940545 ,Left ,62,0443578430564 ,46,2482711295251 ,28,0607105922721
10.1089853 ,Left ,62,0378399084924 ,46,1563814443888 ,27,9932488843672
10.1239213 ,Left ,62,0851024785228 ,46,1445033323479 ,27,9618236874814
10.146451 ,Left ,62,1117921231046 ,46,1312968737359 ,27,9568430001279
10.1688888 ,Left ,62,1301437609472 ,46,1321872519125 ,27,9730562570636
10.1837895 ,Left ,62,0529005100363 ,46,1412666210823 ,28,0003898682128
10.2064991 ,Left ,62,1311039383908 ,46,1425719277248 ,28,0408944493236
10.2212683 ,Left ,62,1960634704431 ,46,1655129663604 ,28,0655020441358
10.2437938 ,Left ,62,2414862990267 ,46,2081887257806 ,28,0717514791257
10.2663045 ,Left ,62,2597043429953 ,46,2628277122268 ,28,0822238858601
10.2813322 ,Left ,62,2190220292371 ,46,2935084721036 ,28,0859073681346
10.3037355 ,Left ,62,193656540965 ,46,2973771112552 ,28,0828053392455
10.3263474 ,Left ,62,1532076452596 ,46,2846897730854 ,28,0915317779457
10.3414047 ,Left ,62,0982227382134 ,46,2776306373527 ,28,1170605970812
10.363984 ,Left ,62,0850778760309 ,46,2645028267009 ,28,1610280539466
10.3864444 ,Left ,62,1134690158964 ,46,2403779052153 ,28,2082741559061
10.4011672 ,Left ,62,1310766835927 ,46,2069243968287 ,28,2264335092269
10.4313483 ,Left ,62,1293053301595 ,46,1637067422266 ,28,222300478197
10.454097 ,Left ,62,1364667636551 ,46,1508948037189 ,28,2182809353863
10.4688794 ,Left ,62,1415672747173 ,46,186189746479 ,28,2119022473898
10.483839 ,Left ,62,1779727835751 ,46,2167379565391 ,28,2137098056108
10.5062847 ,Left ,62,2077325522095 ,46,2302093553364 ,28,2228304396726
10.5213761 ,Left ,62,2077325522095 ,46,2302093553364 ,28,2228304396726
10.5436948 ,Left ,62,1899696896827 ,46,2267721981713 ,28,2212258120729
10.5662138 ,Left ,62,1882966423891 ,46,2256770668112 ,28,2213541886836
10.58117 ,Left ,62,1983124804571 ,46,2350366386231 ,28,2163576688828
10.6037529 ,Left ,62,2030161378292 ,46,2441142544166 ,28,2186136480788
10.6264203 ,Left ,62,195133171026 ,46,2491718632051 ,28,2270844138792
10.6488268 ,Left ,62,1872524430713 ,46,2490790586895 ,28,2331327031093
10.6640759 ,Left ,62,1925650084667 ,46,2418390520486 ,28,2351151500515
10.6865426 ,Left ,62,2024417430488 ,46,2322902756285 ,28,2367283123574
10.7089775 ,Left ,62,2123230339471 ,46,2253157194835 ,28,2395407263587
10.7239535 ,Left ,62,2250982798318 ,46,2175111332806 ,28,2433135515549
10.7465049 ,Left ,62,240772201343 ,46,2062974094798 ,28,2468242261968
10.7687087 ,Left ,62,2558405552718 ,46,2036704160995 ,28,2469910307953
10.7837568 ,Left ,62,2579771127315 ,46,205201936642 ,28,2444210203708
10.8065397 ,Left ,62,256299353114 ,46,2066849757428 ,28,2457666786424
10.8366537 ,Left ,62,2540158915089 ,46,206648366937 ,28,2517709711103
10.8516411 ,Left ,62,249009868813 ,46,2082962310549 ,28,2600210645482
10.8886796 ,Left ,62,2420111173614 ,46,2196056315436 ,28,2606335110354
10.9037003 ,Left ,62,2383669208203 ,46,2279478246619 ,28,258551808803
10.9264061 ,Left ,62,2315156090615 ,46,2351825226194 ,28,2545057653691
10.9486873 ,Left ,62,2188915041617 ,46,2492216190549 ,28,250926022744
10.9639565 ,Left ,62,2005494675928 ,46,2724239051463 ,28,2544131636135
10.9864316 ,Left ,62,1766451077412 ,46,3086540602663 ,28,2584576065106
11.0090415 ,Left ,62,1555939110229 ,46,3507066275978 ,28,2691856680494
11.0240737 ,Left ,62,1380379988996 ,46,3925829876327 ,28,2911729712651
11.0467439 ,Left ,62,1147137902841 ,46,4389521931726 ,28,3232218723086
11.0691399 ,Left ,62,0841807184048 ,46,4809870091895 ,28,3636405784982
11.0841463 ,Left ,62,0564008676802 ,46,5216278192911 ,28,4126694548984
11.1066775 ,Left ,62,0095426003876 ,46,5596847212184 ,28,4759300872072
11.1292001 ,Left ,61,9749153308427 ,46,5908610347796 ,28,5360162932778
11.1443341 ,Left ,61,978522045337 ,46,61113729522 ,28,5698848508333
11.166513 ,Left ,61,9531829414426 ,46,6479635133718 ,28,5842756099656
11.1889782 ,Left ,61,9429332852372 ,46,6902472430813 ,28,6080502899678
11.2040364 ,Left ,61,9408722320057 ,46,7242790510573 ,28,5776462741274
11.2267485 ,Left ,61,9745949575892 ,46,7132044407808 ,28,4781556496551
11.2492651 ,Left ,62,0352019823913 ,46,6829169048427 ,28,3454555911362
11.2717466 ,Left ,62,0455154203417 ,46,6577899521864 ,28,2062775281481
11.2867647 ,Left ,62,0848938624703 ,46,5995865269701 ,28,0836343195742
11.3092159 ,Left ,62,1335188865676 ,46,5079826186153 ,27,988220668295
11.3315615 ,Left ,62,1328116977653 ,46,441551217082 ,27,9487797909001
11.3465503 ,Left ,62,1196291969162 ,46,4117843370784 ,27,9271410873387
11.3690665 ,Left ,62,1517207840308 ,46,4086128702009 ,27,9198360799579
11.3917124 ,Left ,62,2511099475945 ,46,3668082397966 ,27,9122284439516
11.4061185 ,Left ,62,288156126771 ,46,3686980730806 ,27,8838906564352
11.4294105 ,Left ,62,2749847521604 ,46,4035837027115 ,27,8402766154579
11.4520081 ,Left ,62,2702660546724 ,46,4401313243505 ,27,8042604103426
11.4668583 ,Left ,62,2724828856888 ,46,4481029510896 ,27,7778449894189
11.4894473 ,Left ,62,2976561406932 ,46,478774002188 ,27,7447069524567
11.5038591 ,Left ,62,2841116363378 ,46,4976990099956 ,27,7330201957775
11.5338417 ,Left ,62,2638992318841 ,46,459221829949 ,27,7576912137791
11.5563345 ,Left ,62,2340407528266 ,46,4043857659431 ,27,7684460132801
11.5864179 ,Left ,62,2089887520977 ,46,3889552452447 ,27,7162467104827
11.6093628 ,Left ,62,2208463809537 ,46,4019084897006 ,27,7010650231665
11.6312298 ,Left ,62,2522600188709 ,46,3875710305003 ,27,699207142471
11.6545436 ,Left ,62,2244812067025 ,46,3770201945255 ,27,7407997835036
11.676767 ,Left ,62,1890795051834 ,46,3822423838343 ,27,7932905535205
11.6990522 ,Left ,62,1995754305236 ,46,3781631338685 ,27,8447788992146
11.7142973 ,Left ,62,2207951986175 ,46,3644279787779 ,27,9136789255291
11.736765 ,Left ,62,2335792160513 ,46,3540475776194 ,27,995558344467
11.7592182 ,Left ,62,1919589261384 ,46,3533565825327 ,28,0686007072708
11.7741845 ,Left ,62,1582719966639 ,46,3683407812315 ,28,1243089952263
11.7891292 ,Left ,62,1657456034772 ,46,3822565022564 ,28,1722566895532
11.811766 ,Left ,62,1789122890224 ,46,3856940084151 ,28,2207509393401
11.826529 ,Left ,62,1271181154791 ,46,3755051315643 ,28,2824231270215
11.8490567 ,Left ,62,0756609475634 ,46,386916762123 ,28,3383984032115
11.8716358 ,Left ,62,0108187788852 ,46,4424417363398 ,28,3710345972477
11.8865289 ,Left ,62,0350019032537 ,46,4921341269888 ,28,3658549568597
11.909096 ,Left ,62,0786929709104 ,46,5302027851074 ,28,3550906889624
11.9390594 ,Left ,62,1208295023079 ,46,5691114507687 ,28,3272097872207
11.9541447 ,Left ,62,1588335251467 ,46,5803568098135 ,28,2642385742641
11.9765817 ,Left ,62,1402692716645 ,46,5587885038738 ,28,1829684537951
11.9915815 ,Left ,62,1472533296159 ,46,5291019119461 ,28,0818661959734
12.0140481 ,Left ,62,1202103039932 ,46,5218688136627 ,27,9924370445892
12.0366241 ,Left ,62,1250223408856 ,46,5399793393144 ,27,8959466680164
12.0664378 ,Left ,62,1583272681733 ,46,4800315888523 ,27,7764330716016
12.0889425 ,Left ,62,174018510458 ,46,4527601358542 ,27,7697461842793
12.1115566 ,Left ,62,1429738571464 ,46,4552242989986 ,27,7871667771753
12.1265886 ,Left ,62,1504123021375 ,46,485089299816 ,27,8033989949963
12.1488932 ,Left ,62,1855930373349 ,46,5176279717245 ,27,8356182610103
12.1714941 ,Left ,62,1626764389037 ,46,5846914283732 ,27,8669669796684
12.186511 ,Left ,62,1109167683998 ,46,6645793843269 ,27,9052974488457
12.2090498 ,Left ,62,130333433414 ,46,7673361423049 ,27,9612267349757
12.2313929 ,Left ,62,1465309404482 ,46,8404830644466 ,27,9835728071624
12.2540957 ,Left ,62,1946016239809 ,46,8401244313271 ,27,9579682778111
12.2687401 ,Left ,62,2163623632949 ,46,7852857295137 ,27,877912776998
12.291326 ,Left ,62,1741245743785 ,46,6341323744742 ,27,7794514167735
12.3139597 ,Left ,62,1153755237584 ,46,4398485827638 ,27,7096073290609
12.328842 ,Left ,62,0629861539187 ,46,248837595609 ,27,6701326003913
12.3512275 ,Left ,62,0267727156704 ,46,1341713776323 ,27,6443931202345
12.3737265 ,Left ,62,0275561323086 ,46,1269807834388 ,27,6326243740222
12.3888487 ,Left ,62,0952191850517 ,46,1288143051246 ,27,6141701859981
12.4113886 ,Left ,62,1229578383768 ,46,1153438384024 ,27,6193533193466
12.4339294 ,Left ,62,0784661804265 ,46,1059231012717 ,27,6424173473464
12.4488368 ,Left ,62,0654665784196 ,46,1357988500592 ,27,6623567360052
12.4714184 ,Left ,62,1185539010836 ,46,19573107347 ,27,6653386877771
12.4862888 ,Left ,62,1772072604227 ,46,2336207176684 ,27,6630914586126
12.5093582 ,Left ,62,1958955189969 ,46,2541760415671 ,27,6648332986974
12.5321286 ,Left ,62,1088962659636 ,46,2364481381432 ,27,6919603884314
12.5613801 ,Left ,62,0367920720527 ,46,2207533253318 ,27,7184602455786
12.5764247 ,Left ,62,0169801612701 ,46,2016149493771 ,27,7340337103286
12.598654 ,Left ,62,009283075454 ,46,1985548776566 ,27,7517503618657
12.6364049 ,Left ,61,9998406766357 ,46,185142520022 ,27,8364944306043
12.6589242 ,Left ,61,9981863473114 ,46,1709450114704 ,27,8859203992752
12.6739119 ,Left ,61,9945156631814 ,46,1589976476531 ,27,905527605904
12.6891089 ,Left ,61,9964616760678 ,46,1373016783234 ,27,9018985280354
12.7115838 ,Left ,62,0145302891518 ,46,1036507509128 ,27,8887284180332
12.7339834 ,Left ,62,0320010079501 ,46,0799438960679 ,27,8828424669451
12.7489909 ,Left ,62,0433216487452 ,46,0608547042305 ,27,8818919161007
12.771531 ,Left ,62,0437272713883 ,46,0475769080337 ,27,8885249804028
12.794204 ,Left ,62,0486707488988 ,46,0434640749913 ,27,8974668735452
12.8090651 ,Left ,62,0662965569258 ,46,0443545857354 ,27,9033999461229
12.8315232 ,Left ,62,0815469898538 ,46,0478171687165 ,27,9166118044967
12.8541834 ,Left ,62,0918741507499 ,46,0500247347832 ,27,9239574946095
12.8689367 ,Left ,62,0895401297907 ,46,050015804854 ,27,9300122160006
12.8915486 ,Left ,62,0911910759279 ,46,0511255529013 ,27,9298935082095
12.9141648 ,Left ,62,0911910759279 ,46,0511255529013 ,27,9298935082095
12.9290673 ,Left ,62,0869011100184 ,46,0641697408308 ,27,9327381494174
12.9514846 ,Left ,62,0768631989816 ,46,0787910040245 ,27,9336000702741
12.9740731 ,Left ,62,0617724994549 ,46,0999386961444 ,27,9322582807252
12.989043 ,Left ,62,051963646233 ,46,1244479521551 ,27,9322417541737
13.0115738 ,Left ,62,0431765147586 ,46,1532620853023 ,27,9317694241564
13.0411239 ,Left ,62,025011912453 ,46,1958876631199 ,27,9390212594778
13.0564048 ,Left ,62,0044229362589 ,46,2426164470659 ,27,9568543070202
13.0788822 ,Left ,61,9698659740908 ,46,2928108868538 ,27,9876725652327
13.1088296 ,Left ,61,8873394784698 ,46,4014906535244 ,28,0974349626139
13.1311782 ,Left ,61,8476510679959 ,46,4441385922905 ,28,1574920971781
13.1540677 ,Left ,61,8044568896813 ,46,4738115004055 ,28,2206959442034
13.1689513 ,Left ,61,7677793885867 ,46,5154444086418 ,28,2836349332282
13.1915226 ,Left ,61,7490022528509 ,46,5292121943516 ,28,3524924984834
13.213949 ,Left ,61,7166598704031 ,46,5620904430314 ,28,4171077598802
13.2286951 ,Left ,61,6791698432259 ,46,6103000644466 ,28,4699210548484
13.2512737 ,Left ,61,6594579974506 ,46,6586643530452 ,28,4789919629494
13.2739396 ,Left ,61,7064164931605 ,46,6625539306963 ,28,4254738138074
13.2890081 ,Left ,61,7582955108714 ,46,6407399956648 ,28,321684214116
13.31135 ,Left ,61,8049001514167 ,46,5587457687682 ,28,1759487803549
13.3338397 ,Left ,61,8365141611005 ,46,4282448541208 ,28,0341013338383
13.356419 ,Left ,61,8527902369342 ,46,3412177919749 ,27,9630208182091
13.3713353 ,Left ,61,8552653772604 ,46,2863890811581 ,27,9361899306272
13.393965 ,Left ,61,9435670261472 ,46,2072458200912 ,27,9109356601419
13.4161666 ,Left ,61,9654531089148 ,46,1222610595253 ,27,8926397808161
13.4315157 ,Left ,61,9888707444133 ,46,0374648175795 ,27,8946341180462
13.45363 ,Left ,62,0334642819299 ,46,0066880776673 ,27,8652955480911
13.4762544 ,Left ,62,1012674249115 ,46,0297512534035 ,27,8098712925613
13.4912774 ,Left ,62,1556273550234 ,46,052173507956 ,27,7461909362889
13.5138911 ,Left ,62,1563718801952 ,46,1360751815476 ,27,7073516709914
13.5362713 ,Left ,62,1643081174492 ,46,2360838004629 ,27,6753377312537
13.5513488 ,Left ,62,2485078879745 ,46,2546367347924 ,27,6470988185135
13.5741194 ,Left ,62,2598936333257 ,46,2259112949447 ,27,7130471133626
13.5964592 ,Left ,62,2096698730708 ,46,175026682546 ,27,768929753139
13.6113896 ,Left ,62,1700164061917 ,46,201311072133 ,27,7356665769002
13.6337928 ,Left ,62,2160740904795 ,46,2759100177071 ,27,6850622118679
13.6563063 ,Left ,62,2522538821661 ,46,3379336970907 ,27,6751966818248
13.671573 ,Left ,62,2466232961009 ,46,4552244205814 ,27,7075812316336
13.6865101 ,Left ,62,2859249671213 ,46,5438525041719 ,27,7543913962065
13.7241047 ,Left ,62,2024201378805 ,46,586388552886 ,27,9194737227208
13.7465533 ,Left ,62,2097286040307 ,46,5618393853611 ,28,0313807652716
13.769229 ,Left ,62,1531814417226 ,46,5326761659893 ,28,1046209673789
13.7840179 ,Left ,62,1758797270622 ,46,4715164625103 ,28,0974097285584
13.806512 ,Left ,62,150423063833 ,46,4802454991182 ,28,0652510538143
13.8289229 ,Left ,62,0913791901511 ,46,5877258116578 ,27,9987305941475
13.8439355 ,Left ,62,1825714093708 ,46,6666677009121 ,27,9129647572222
13.874039 ,Left ,62,2305819257499 ,46,6310714021673 ,27,8704671649165
13.8966871 ,Left ,62,1913570409408 ,46,592219205457 ,27,8660279464022
13.9116847 ,Left ,62,1091033847441 ,46,5651598805905 ,27,8644970805948
13.9266721 ,Left ,62,0806930601437 ,46,5777686593866 ,27,8692166517817
13.9641729 ,Left ,62,1694819592337 ,46,556170446495 ,27,8768752498565
13.9866207 ,Left ,62,1379068563724 ,46,5282716306015 ,27,8953830136417
14.0240872 ,Left ,62,0170136752928 ,46,5950787810459 ,27,8967154041013
14.0466308 ,Left ,62,0739266264465 ,46,6103083142674 ,27,8877675521116
14.0839878 ,Left ,62,0137563665557 ,46,6199893275432 ,27,999287316742
14.1065053 ,Left ,61,9381054847026 ,46,6830008981763 ,28,0602428070784
14.1286515 ,Left ,61,9918138071009 ,46,756219925494 ,28,1008068823564
14.1514076 ,Left ,62,0367916504031 ,46,7767384738683 ,28,1025116493381
14.1739136 ,Left ,62,1017031210302 ,46,7371081345372 ,28,0330907596163
14.196799 ,Left ,62,0512940747973 ,46,6510764140548 ,27,9163981365701
14.2041101 ,Left ,61,968878331553 ,46,5162970691049 ,27,7875669997761
14.2340785 ,Left ,61,9568335119065 ,46,3430233311197 ,27,6736680284375
14.2715592 ,Left ,61,9005811347587 ,46,0633535033973 ,27,5574096206424
14.2866406 ,Left ,61,8833176459831 ,46,0136305713463 ,27,5144341706425
14.3241177 ,Left ,62,0431903217334 ,45,8316875710126 ,27,4560787708966
14.3466551 ,Left ,62,0615682569824 ,45,7892722705772 ,27,4561520238243
14.3836873 ,Left ,62,0312937069164 ,45,9390336658974 ,27,4947564318109
14.4062585 ,Left ,62,0674225979643 ,46,077230060615 ,27,4899958658382
14.4437261 ,Left ,62,2477952823776 ,46,111511355139 ,27,6681217828276
14.4662523 ,Left ,62,3144317685322 ,46,1844257235376 ,27,6580865099591
14.5043283 ,Left ,62,390444413687 ,46,3894083279611 ,27,4977389571573
14.5266792 ,Left ,62,3770814327492 ,46,4458278679895 ,27,4241082572505
14.5639882 ,Left ,62,3714512898271 ,46,430107953541 ,27,3412821918296
14.5865999 ,Left ,62,3300246378407 ,46,4092438172804 ,27,3790301047654
14.6243094 ,Left ,62,3177930867972 ,46,2138150051059 ,27,5055888900888
14.6466705 ,Left ,62,2801026993296 ,46,132330068009 ,27,5147846227448
14.6841142 ,Left ,62,2453707840885 ,46,0839561733267 ,27,5014567362885
14.7065618 ,Left ,62,2299720341985 ,46,0778240697821 ,27,5055657385101
14.744279 ,Left ,62,1979658734055 ,46,0725016318077 ,27,5224640939934
14.7661518 ,Left ,62,1729035655773 ,46,0641451584673 ,27,529523118854
14.803697 ,Left ,62,1507954856863 ,46,0319714478307 ,27,5636803062366
14.8264089 ,Left ,62,133102097595 ,46,006767523464 ,27,5860569846894
14.8640623 ,Left ,62,1109318748011 ,45,9444105609933 ,27,6079232193088
14.8866527 ,Left ,62,0848842907459 ,45,9364661226762 ,27,6103972588412
14.9241337 ,Left ,62,0939028247922 ,45,9038504479001 ,27,6171071269767
14.9467654 ,Left ,62,1006544366002 ,45,8757473818714 ,27,632211064501
14.9915437 ,Left ,62,0724606235206 ,45,8566243667343 ,27,6671685084245
15.0143004 ,Left ,62,0836286932499 ,45,8710938727067 ,27,6797115576459
15.0666369 ,Left ,62,0862186492397 ,45,9203749378726 ,27,7156900007056
15.1043464 ,Left ,62,0406462789932 ,45,9548002870193 ,27,7212489367062
15.1267269 ,Left ,62,017066260988 ,45,9816910126788 ,27,7232957163545
15.1642262 ,Left ,61,9628778745263 ,46,0756710351363 ,27,7475280790999
15.186795 ,Left ,61,9361924897418 ,46,1310389696272 ,27,7670922290753
15.2242278 ,Left ,61,8722096367321 ,46,2266796061722 ,27,8243253203929
15.2467752 ,Left ,61,8221434320342 ,46,2748309355676 ,27,8764003729053
15.2767752 ,Left ,61,7574192787515 ,46,3629199422334 ,27,9713310949439
15.3065428 ,Left ,61,8034794028232 ,46,3589382835611 ,28,007721583361
15.343738 ,Left ,61,7550916408453 ,46,4024570023185 ,28,0613039235814
15.3661576 ,Left ,61,7501128148043 ,46,3982642015971 ,28,0063340103596
15.4042752 ,Left ,61,916167265519 ,46,2716400319768 ,27,7500249934427
15.4192973 ,Left ,61,9534803861414 ,46,1805972228152 ,27,6113944770984
15.4645682 ,Left ,61,9969425218234 ,46,1063596687732 ,27,4661562990277
15.4867192 ,Left ,62,0293214360909 ,46,1014709686211 ,27,4387747451966
15.5241548 ,Left ,62,0971996691936 ,46,01380560172 ,27,4273719123216
15.5390541 ,Left ,62,1069836488749 ,45,9917891511756 ,27,3829926413848
15.5617131 ,Left ,62,1209608265641 ,46,00098595421 ,27,3169588167026
15.5766747 ,Left ,62,1041790578699 ,46,02161402605 ,27,2785233758132
15.5990109 ,Left ,62,1617010689194 ,46,0811656036983 ,27,2547132316168
15.6216887 ,Left ,62,2153884882532 ,46,0782555727384 ,27,2423401613745
15.6366017 ,Left ,62,1605088034521 ,46,0458379266375 ,27,307718310747
15.659139 ,Left ,62,1238090022804 ,45,9909173569941 ,27,335127803782
15.6816793 ,Left ,62,1270807808216 ,46,0019468524104 ,27,3013744570808
15.6966225 ,Left ,62,1445694763612 ,46,0727109819203 ,27,2611960998192
15.7190642 ,Left ,62,1981103878388 ,46,1597693115321 ,27,2524573500894
15.7416025 ,Left ,62,246247311147 ,46,239928211875 ,27,2565692728184
15.7565856 ,Left ,62,2872358762075 ,46,2913103958843 ,27,2979136513698
15.7792454 ,Left ,62,2020577782655 ,46,3544683810678 ,27,3827655628746
15.8016752 ,Left ,62,1539926313258 ,46,4010220753584 ,27,4905592010152
15.8240593 ,Left ,62,1701588474406 ,46,4295071161046 ,27,5983284746659
15.8466741 ,Left ,62,1636344506048 ,46,4618085539623 ,27,6592565633885
15.8763708 ,Left ,62,1446190916305 ,46,4315113874665 ,27,6770120394957
15.8990679 ,Left ,62,068155472305 ,46,5005703514389 ,27,6739516608621
15.921735 ,Left ,62,128058782575 ,46,5716086274395 ,27,6340182527706
15.936704 ,Left ,62,2219583124694 ,46,5794993222065 ,27,5807997276281
15.9591799 ,Left ,62,2553114610653 ,46,5911339572693 ,27,5238713576638
15.98166 ,Left ,62,1967139180042 ,46,6041524774919 ,27,4915163345648
15.9966764 ,Left ,62,1895160239774 ,46,6339681587875 ,27,4663661075123
16.0190404 ,Left ,62,2214530648222 ,46,650252730298 ,27,4467810604735
16.0416822 ,Left ,62,2471471593912 ,46,6302295459001 ,27,4526306091094
16.0567828 ,Left ,62,2285353721695 ,46,6193563555878 ,27,4741985271505
16.0791585 ,Left ,62,1597864288895 ,46,6230856928294 ,27,4767048711484
16.1091682 ,Left ,62,1535457706554 ,46,6353408160955 ,27,4852001635692
16.1241028 ,Left ,62,1518076520739 ,46,6481027187837 ,27,5132997664983
16.1542359 ,Left ,62,0658712918708 ,46,6230624032515 ,27,5706253496765
16.1691059 ,Left ,62,0440010522417 ,46,5939097238332 ,27,6488227856577
16.1842523 ,Left ,62,0291157814219 ,46,6532670799594 ,27,7016613731523
16.2066438 ,Left ,62,0942580710246 ,46,6732421356764 ,27,6777479464485
16.2216529 ,Left ,62,1735885293076 ,46,6165138588094 ,27,587608382051
16.2366294 ,Left ,62,1276514868841 ,46,4930520783456 ,27,4474696741142
16.2587021 ,Left ,62,1087492432433 ,46,3399604868444 ,27,3317276632714
16.2813583 ,Left ,62,1092772543624 ,46,2380751307986 ,27,2608621041426
16.303769 ,Left ,62,1079956474305 ,46,1699373433652 ,27,2068046509664
16.3187327 ,Left ,62,1311117455812 ,46,1374072243627 ,27,1648168491062
16.3412773 ,Left ,62,1284271422551 ,46,1284012266838 ,27,1588885547907
16.364016 ,Left ,62,0638888834259 ,46,1132291025496 ,27,188771668912
16.3788916 ,Left ,62,045847612458 ,46,139940399486 ,27,2549836362388
16.401504 ,Left ,62,0807039634036 ,46,2175594488993 ,27,2876598949377
16.4238281 ,Left ,62,1730130121282 ,46,2943548511783 ,27,2836246441006
16.4465371 ,Left ,62,2181661526859 ,46,3392100385091 ,27,2799834054055
16.4687597 ,Left ,62,1783372648175 ,46,3512123223929 ,27,2739233112723
16.4913617 ,Left ,62,1012611177806 ,46,355739664157 ,27,2458566754115
16.5064434 ,Left ,62,0570496661194 ,46,3515171012397 ,27,220638140218
16.5288584 ,Left ,62,0225444808241 ,46,3441130127956 ,27,2349233388534
16.5512588 ,Left ,62,0212074595103 ,46,3113018820636 ,27,2602037892715
16.566314 ,Left ,62,0197640260839 ,46,2504302600984 ,27,2932826877709
16.5811921 ,Left ,62,018108598911 ,46,1914755479669 ,27,3111191682695
16.603807 ,Left ,62,0106078647145 ,46,1296428975141 ,27,3114722236157
16.6190154 ,Left ,61,9911029653751 ,46,0620617377472 ,27,3088068293564
16.64122 ,Left ,61,9987966416116 ,45,9917574386531 ,27,309076976496
16.6640548 ,Left ,62,0107613470501 ,45,9546647844661 ,27,3310446589427
16.6790197 ,Left ,61,9839985844606 ,45,9545428809186 ,27,3560548957288
16.7015551 ,Left ,61,9781667768096 ,45,9529926631889 ,27,3714564987443
16.7240475 ,Left ,61,9960911924774 ,45,9364392836744 ,27,3818911379926
16.7389269 ,Left ,62,0112957453568 ,45,9009269107847 ,27,3871769112845
16.7614657 ,Left ,61,9978080289807 ,45,8724644945242 ,27,3954013204172
16.7840277 ,Left ,61,9822864103706 ,45,857828922286 ,27,4111649875665
16.8066557 ,Left ,61,9853244813145 ,45,8525353722919 ,27,4259985516727
16.8290956 ,Left ,61,9840129900727 ,45,8433512938757 ,27,4352725560773
16.8592354 ,Left ,61,9489228128587 ,45,8333795094374 ,27,4382024216184
16.8815523 ,Left ,61,9307907165256 ,45,8316010208419 ,27,4402889928748
16.9042929 ,Left ,61,9138761571483 ,45,8342247240107 ,27,4437035370342
16.9265967 ,Left ,61,8987274060071 ,45,8461989636504 ,27,4483224743166
16.9489882 ,Left ,61,8850155661027 ,45,8582580454714 ,27,4551113999443
16.9716033 ,Left ,61,8661154432262 ,45,8819008400102 ,27,4695378079745
16.986456 ,Left ,61,8407647305198 ,45,9226998386794 ,27,4820479979959
17.0013629 ,Left ,61,8130424163842 ,45,9723958015205 ,27,5019436833596
17.0241808 ,Left ,61,7910281434577 ,46,026754404193 ,27,529519659381
17.0390653 ,Left ,61,7603706816317 ,46,0810680342392 ,27,5712683564331
17.0615424 ,Left ,61,7175681487195 ,46,1286256650783 ,27,6177108327422
17.083973 ,Left ,61,6836489141768 ,46,1714463366997 ,27,6657837618658
17.0987425 ,Left ,61,6467061440831 ,46,223512491038 ,27,7162952817175
17.1212983 ,Left ,61,6106363111401 ,46,2822692023167 ,27,764082426078
17.1440535 ,Left ,61,5947532607082 ,46,3469869219265 ,27,7900471468772
17.1590069 ,Left ,61,6190272837607 ,46,3652117502117 ,27,8331204095174
17.181534 ,Left ,61,6295911354613 ,46,3688674056369 ,27,8698030886401
17.2039715 ,Left ,61,6016662768739 ,46,3860474372171 ,27,8763223128231
17.2264667 ,Left ,61,6450239309267 ,46,3939735513611 ,27,8066448694804
17.2414977 ,Left ,61,7476493291483 ,46,3454413584138 ,27,6746511203656
17.2639529 ,Left ,61,8202330101867 ,46,276805379335 ,27,5133297657764
17.2862911 ,Left ,61,8559117654202 ,46,2072384983943 ,27,3875464212495
17.3013064 ,Left ,61,8655969144276 ,46,1596826081846 ,27,3021174654302
17.3238405 ,Left ,61,9301602924492 ,46,1519562623361 ,27,2323098033935
17.3545797 ,Left ,61,9812567352554 ,46,1289898718195 ,27,1931295852198
17.3693282 ,Left ,61,9937461642752 ,46,0809524912643 ,27,1938955031144
17.392042 ,Left ,62,0219599597185 ,46,0104249804071 ,27,1979531242872
17.4217173 ,Left ,62,1553783816957 ,46,0342615525366 ,27,0524571818261
17.4442015 ,Left ,62,1393604689755 ,46,0770792953589 ,27,0050159645554
17.466619 ,Left ,62,2044484145115 ,46,1606485501805 ,26,994496642248
17.4892224 ,Left ,62,2251336440707 ,46,1880933630693 ,27,0365416349645
17.5117277 ,Left ,62,2364307757642 ,46,0784119597367 ,27,1659540276646
17.5416693 ,Left ,62,2194242068348 ,45,9641829267348 ,27,2540415249383
17.5639932 ,Left ,62,2333662077851 ,46,06275715663 ,27,1621996591544
17.5865779 ,Left ,62,3278041873453 ,46,1961911994314 ,27,1092246880613
17.6017851 ,Left ,62,3736402919014 ,46,3363540695975 ,27,1141813768956
17.6241914 ,Left ,62,367555756588 ,46,4060205250416 ,27,1643940936258
17.6467097 ,Left ,62,2803740209637 ,46,4089476889573 ,27,2563325299673
17.661671 ,Left ,62,2155167624733 ,46,3658765732195 ,27,3717669773585
17.6841516 ,Left ,62,2265315737163 ,46,3180038231557 ,27,4531683499397
17.7065955 ,Left ,62,2210256124058 ,46,3206199703432 ,27,5023254244657
17.7216716 ,Left ,62,2135041930367 ,46,3742595341597 ,27,5048576326303
17.7439885 ,Left ,62,1877905086828 ,46,3684021357394 ,27,5025475346366
17.7665874 ,Left ,62,1407750049495 ,46,364100248143 ,27,5266324042142
17.781601 ,Left ,62,1056508193641 ,46,4473201168237 ,27,515296998076
17.8042119 ,Left ,62,1901555957869 ,46,5261724431742 ,27,4652193232775
17.8267158 ,Left ,62,2904006654537 ,46,5412615930429 ,27,4148236126738
17.841439 ,Left ,62,3216508210967 ,46,5272522272827 ,27,3408589332294
17.8643243 ,Left ,62,2504756877262 ,46,4859080523313 ,27,2801159708178
17.8864621 ,Left ,62,2073709368474 ,46,5235091086649 ,27,2123824585409
17.9017119 ,Left ,62,2254093627562 ,46,5824865882135 ,27,1574216741016
17.9240744 ,Left ,62,2444743879241 ,46,6063708608275 ,27,1335459166003
17.9464573 ,Left ,62,2057959071566 ,46,5977852334493 ,27,1466032078907
17.9615834 ,Left ,62,1293869503097 ,46,5633695125258 ,27,1747564036377
17.9841001 ,Left ,62,070548017746 ,46,5158383660071 ,27,2152517038505
18.0066649 ,Left ,62,0835017191036 ,46,4979612277776 ,27,2520536164587
18.0216601 ,Left ,62,1432463739998 ,46,5112944224584 ,27,2966505663358
18.0515581 ,Left ,62,1877318246305 ,46,5619409982656 ,27,3388041909712
18.0740071 ,Left ,62,1800783260771 ,46,6329872232379 ,27,36794860687
18.0891478 ,Left ,62,2187755802173 ,46,7267654562232 ,27,3930763145647
18.1042812 ,Left ,62,2261408027629 ,46,8174052999867 ,27,3981289357688
18.1269553 ,Left ,62,2574364915274 ,46,8097327857047 ,27,3727123220151
18.149456 ,Left ,62,2399251227443 ,46,7214985565934 ,27,2873670211357
18.1642862 ,Left ,62,1542479193526 ,46,5989590824264 ,27,1885055029833
18.1946101 ,Left ,62,103966666472 ,46,3955357877648 ,27,1242381325468
18.2165828 ,Left ,62,1219452709922 ,46,1635427484519 ,27,0576927744104
18.2316628 ,Left ,62,1320433228626 ,45,9711849460727 ,26,9916934794453
18.246626 ,Left ,62,0634710886294 ,45,9223666647471 ,26,9668254338905
18.2690066 ,Left ,62,0521863771104 ,45,9920164033701 ,26,9254699954467
18.2837324 ,Left ,62,1180898080119 ,46,0160032313991 ,26,8824511528974
18.3070039 ,Left ,62,1090424283587 ,45,9922039837551 ,26,883334046387
18.3294656 ,Left ,62,0226133361729 ,46,020930144171 ,26,9099502119281
18.344537 ,Left ,61,9999330516146 ,46,0799234770151 ,26,9326672366926
18.3668324 ,Left ,62,070891962558 ,46,1489092393135 ,26,9367565804379
18.3964723 ,Left ,62,1129332912155 ,46,1762036056346 ,26,9389659371643
18.4112741 ,Left ,62,1010495124016 ,46,1867446634772 ,26,9386169898189
18.4337572 ,Left ,62,028280998393 ,46,17918256641 ,26,9300139188089
18.4488383 ,Left ,61,987994839113 ,46,1703894711942 ,26,9115226452741
18.4640294 ,Left ,61,9964882830941 ,46,1530422516353 ,26,9023617328724
18.4865736 ,Left ,62,011716831823 ,46,1392491214448 ,26,9263447795748
18.5086661 ,Left ,62,0254561719872 ,46,1124468586229 ,26,9665253790383
18.5240401 ,Left ,62,0158679201241 ,46,0888041658114 ,27,0160751452391
18.5464475 ,Left ,62,0050891042135 ,46,0697806286486 ,27,0599488576867
18.5690456 ,Left ,62,0062749570407 ,46,0541565869404 ,27,0760513752228
18.5841117 ,Left ,62,0151711989026 ,46,0259297253477 ,27,0879136131429
18.6066724 ,Left ,62,0154175152132 ,45,9995753693195 ,27,109740209108
18.6291656 ,Left ,62,0122151617248 ,45,9707438830541 ,27,1374667268601
18.6442695 ,Left ,62,0093072391943 ,45,9358143850386 ,27,1591788881805
18.6666554 ,Left ,62,0076089586089 ,45,925407820412 ,27,1765655789873
18.6891032 ,Left ,62,0055583155429 ,45,9329567310389 ,27,1839092601486
18.7043392 ,Left ,62,0269520865611 ,45,9343356329229 ,27,1934549942183
18.7267284 ,Left ,62,0504457539343 ,45,9227700771008 ,27,1988163886757
18.7491909 ,Left ,62,0442342115588 ,45,9028233879744 ,27,2104568377032
18.7642934 ,Left ,62,0306758797097 ,45,8831636421438 ,27,2201784064123
18.7866313 ,Left ,62,0208130851979 ,45,8661889687414 ,27,2272489465533
18.8092435 ,Left ,62,0150562408353 ,45,8565781032669 ,27,2356390867075
18.8242027 ,Left ,62,0149366547192 ,45,8492469155917 ,27,2376949769037
18.846568 ,Left ,62,0093410503346 ,45,8480721335336 ,27,2344122291263
18.8691603 ,Left ,61,9929230178244 ,45,8501058958905 ,27,2319575358298
18.8841321 ,Left ,61,9751944759264 ,45,8648076513674 ,27,2310283132945
18.9066582 ,Left ,61,9604487345826 ,45,8915524160131 ,27,2348113693465
18.9292049 ,Left ,61,9402437038836 ,45,9287811066064 ,27,2485668908516
18.9517053 ,Left ,61,9138359540835 ,45,9642831291958 ,27,267085121185
18.9742655 ,Left ,61,8914064201481 ,46,0024400889323 ,27,2901261019206
19.0115707 ,Left ,61,8384972678813 ,46,064745405677 ,27,3406957103083
19.0342583 ,Left ,61,7977757942947 ,46,0798666215339 ,27,3791110252178
19.0717501 ,Left ,61,7347341211895 ,46,1071945407964 ,27,4252980118742
19.0943642 ,Left ,61,7583083114974 ,46,1227934326549 ,27,4141161120233
19.1165895 ,Left ,61,777801482727 ,46,1284956692831 ,27,400420584266
19.1317482 ,Left ,61,7822379124629 ,46,1583400347532 ,27,409934090161
19.1543038 ,Left ,61,7942374490579 ,46,1994118683893 ,27,3735662594976
19.1767405 ,Left ,61,8420537916482 ,46,2277804544012 ,27,2862679143002
19.2069391 ,Left ,61,9514275049842 ,46,2287378260722 ,27,055953430676
19.2288111 ,Left ,61,9809836913287 ,46,1957607315541 ,26,9595770632559
19.2511478 ,Left ,62,011338434605 ,46,1527986017797 ,26,900610832713
19.2662435 ,Left ,62,0490632066413 ,46,1238238315121 ,26,8803758217484
19.2887731 ,Left ,62,073685635855 ,46,0787764536566 ,26,8851549204841
19.3114996 ,Left ,62,1018111928326 ,46,0342493166796 ,26,8991443349073
19.3261548 ,Left ,62,0962617248711 ,46,0284811893807 ,26,8933739586933
19.3487872 ,Left ,62,0788388720543 ,46,0653682723003 ,26,8597368909656
19.3714916 ,Left ,62,0896966237046 ,46,0881452205205 ,26,8146282237814
19.3866472 ,Left ,62,1195433836077 ,46,0825959938389 ,26,7845123569501
19.40914 ,Left ,62,1175248023627 ,46,0722160976794 ,26,7616489344767
19.4316619 ,Left ,62,0907348717684 ,46,0582814404412 ,26,7590359999001
19.4389686 ,Left ,62,0630211448628 ,46,0681689558698 ,26,7820781050375
19.4614103 ,Left ,62,0753887636126 ,46,0751245723245 ,26,8066819874814
19.5065287 ,Left ,62,1873535331476 ,45,9471137798689 ,26,8895495687315
19.5291037 ,Left ,62,1415933218123 ,45,96086451593 ,26,8853596550686
19.5590853 ,Left ,62,1712883249382 ,46,0929827466498 ,26,8391224704129
19.5816323 ,Left ,62,1763336909906 ,46,1492040794007 ,26,8534918667443
19.6188712 ,Left ,62,1288006179452 ,46,2355558914795 ,26,9361104004512
19.6415657 ,Left ,62,1172722098594 ,46,2408465002289 ,26,9981180976053
19.6790983 ,Left ,62,0905463308528 ,46,1745892377498 ,27,1230532110865
19.7016077 ,Left ,62,0517380572508 ,46,1633770447148 ,27,1834594914044
19.7390347 ,Left ,61,9934681504887 ,46,2189509478731 ,27,2763926078727
19.7616196 ,Left ,61,9884356688977 ,46,2209837889064 ,27,3142218498335
19.7989816 ,Left ,61,94345845974 ,46,2295685616269 ,27,3864346285074
19.8216619 ,Left ,61,9141843321336 ,46,2715293381025 ,27,357840636578
19.8590086 ,Left ,61,9072248832943 ,46,3181283284742 ,27,3351377908459
19.8815438 ,Left ,61,9480879997328 ,46,3160572708322 ,27,2948508998288
19.9188656 ,Left ,61,9710711420642 ,46,3069636009413 ,27,1517688826651
19.941421 ,Left ,61,9763826347616 ,46,3683411464371 ,27,0900168519528
19.9866448 ,Left ,62,069295449382 ,46,4097484734808 ,26,9927994082997
20.0090881 ,Left ,62,0398008365226 ,46,3790771065091 ,26,9862477772598
20.0388835 ,Left ,61,9126339383741 ,46,3828046842664 ,27,0713250298171
20.0616086 ,Left ,61,8902785035802 ,46,4385590234176 ,27,0832693809056
20.0989905 ,Left ,61,8510448296359 ,46,5885903627055 ,27,1465323131403
20.1216195 ,Left ,61,8553131830235 ,46,6975918951789 ,27,1875499813353
20.144154 ,Left ,61,9162548835112 ,46,7081223438519 ,27,1554942676878
20.1591063 ,Left ,61,9702417169802 ,46,6648917990306 ,27,0445487394983
20.1816504 ,Left ,61,928436587895 ,46,539237227125 ,26,9034845156077
20.2040765 ,Left ,61,8905665034927 ,46,3744813161779 ,26,7856008224005
20.2189592 ,Left ,61,8484637241849 ,46,2271824560165 ,26,7290902242109
20.2416473 ,Left ,61,863341228837 ,46,1306401996994 ,26,6923044713898
20.2864606 ,Left ,61,9744200033959 ,46,0860531766767 ,26,6687291992421
20.3390874 ,Left ,62,0451588211235 ,46,1395317901969 ,26,6977557837805
20.361455 ,Left ,62,1320829114384 ,46,213666267372 ,26,6992218285882
20.406547 ,Left ,62,1994954097952 ,46,2711660463433 ,26,7344295416738
20.4290759 ,Left ,62,1324722028337 ,46,2687598589675 ,26,7611829531081
20.4590963 ,Left ,62,054941082646 ,46,2487917419145 ,26,7867323365506
20.4811448 ,Left ,62,0316162388345 ,46,2299211026262 ,26,8099050063054
20.5189289 ,Left ,61,9960618642011 ,46,1834836954491 ,26,9089888237841
20.5414887 ,Left ,61,9974874748675 ,46,143212722703 ,26,967256906119
20.5790873 ,Left ,61,995242875077 ,46,0547113045369 ,27,0517949845514
20.6016218 ,Left ,62,0098184574185 ,46,0043618253952 ,27,0475490374229
20.6390576 ,Left ,62,024729507277 ,45,9516005824964 ,27,0287766860813
20.6615548 ,Left ,62,0255708559737 ,45,939431453246 ,27,0331539858914
20.6989822 ,Left ,62,0312874278882 ,45,8987374147816 ,27,0589376514915
20.7215074 ,Left ,62,0332265850599 ,45,8918606178843 ,27,068095483894
20.7591272 ,Left ,62,0387928155753 ,45,8976099558597 ,27,0738236426876
20.7816805 ,Left ,62,036634620541 ,45,9150843105627 ,27,0804277116673
20.819158 ,Left ,61,9940840224503 ,45,9646465761147 ,27,0945693430783
20.8415693 ,Left ,61,9739568693199 ,46,0028215518674 ,27,1059991975508
20.886426 ,Left ,61,9192364686501 ,46,0812774782689 ,27,1444396009517
20.9087194 ,Left ,61,8973416834655 ,46,1231910295299 ,27,1768673012656
20.9614058 ,Left ,61,7702851411546 ,46,2231524738138 ,27,2832718103656
20.9989428 ,Left ,61,717199737867 ,46,2987173425796 ,27,2833252287906
21.0214325 ,Left ,61,7444072313805 ,46,297300215921 ,27,2788550264196
21.058669 ,Left ,61,7268712368626 ,46,2914812624528 ,27,2570913739355
21.0812992 ,Left ,61,7410364034361 ,46,3075238429175 ,27,1862017959039
21.11907 ,Left ,61,9100555494379 ,46,2276568782725 ,26,9097607354167
21.141451 ,Left ,61,9423442633677 ,46,1609455347572 ,26,7683460363717
21.1713801 ,Left ,61,9800236236513 ,46,078218890822 ,26,6133464622509
21.2014464 ,Left ,62,0235048020127 ,46,0992336624029 ,26,5711456731625
21.2391344 ,Left ,62,0910380860538 ,46,012341818557 ,26,5679025015344
21.2614597 ,Left ,62,1238913661227 ,45,9869524974686 ,26,5701744773188
21.2988474 ,Left ,62,1668046146429 ,46,0241950373595 ,26,4348444255503
21.3137861 ,Left ,62,1330826049947 ,46,0690565488678 ,26,395977016123
21.336684 ,Left ,62,1555709311965 ,46,1548283785162 ,26,3649780037954
21.3516935 ,Left ,62,2124577744949 ,46,2071563733052 ,26,3747491713795
21.3739452 ,Left ,62,2413514052614 ,46,1345923596655 ,26,4323161091962
21.3965915 ,Left ,62,2237671613013 ,46,0642356606537 ,26,514870230528
21.4114839 ,Left ,62,1723782046276 ,46,0494059977835 ,26,5073963751153
21.4414617 ,Left ,62,1701643759958 ,46,0819003042333 ,26,4425670785948
21.4641068 ,Left ,62,2279914087901 ,46,1054815197354 ,26,4020611439756
21.4791241 ,Left ,62,2641942691938 ,46,1412798135334 ,26,441033539097
21.5016914 ,Left ,62,2532482382471 ,46,2555834749414 ,26,5025986352084
21.5165932 ,Left ,62,2725551158201 ,46,329207653169 ,26,5682455412432
21.5316544 ,Left ,62,2442089164944 ,46,3890355663302 ,26,6651582061779
21.5542366 ,Left ,62,225949133331 ,46,4009636701711 ,26,7826646123202
21.5764189 ,Left ,62,2362881355391 ,46,3914814202794 ,26,8980856433443
21.599081 ,Left ,62,1361012287038 ,46,4377391120413 ,26,9739629028663
21.6140721 ,Left ,62,1308829605385 ,46,4383919286427 ,26,979020519029
21.6366481 ,Left ,62,1323812800236 ,46,4421331021075 ,26,9801871641458
21.6591168 ,Left ,62,0885211351273 ,46,5326075464547 ,26,9701628571569
21.6741528 ,Left ,62,1176482710012 ,46,610830841473 ,26,9241041184691
21.696587 ,Left ,62,2059265213072 ,46,6499809963264 ,26,8601346214534
21.7190449 ,Left ,62,2293988836739 ,46,6055858684737 ,26,7876053399448
21.7416011 ,Left ,62,2038557869469 ,46,5597138584156 ,26,7308386850539
21.7642174 ,Left ,62,1428971477523 ,46,5701107201692 ,26,6761565879075
21.7790989 ,Left ,62,1344464433778 ,46,6016786171491 ,26,6376851270418
21.8017035 ,Left ,62,166978087771 ,46,5730891461529 ,26,6230204994069
21.8240435 ,Left ,62,1517675880342 ,46,5313025483248 ,26,6205435201016
21.8390841 ,Left ,62,0796547608618 ,46,4890348294603 ,26,6056913011705
21.8539036 ,Left ,62,0276691250669 ,46,4767050794634 ,26,588114192712
21.8766311 ,Left ,62,0852768713537 ,46,4934673034395 ,26,5780933400718
21.8914107 ,Left ,62,1227316693019 ,46,5187443267785 ,26,5950897263999
21.9137439 ,Left ,62,0743871507913 ,46,5190638027687 ,26,6527214623807
21.9363721 ,Left ,62,009510064041 ,46,5189731834882 ,26,7251472727614
21.9512725 ,Left ,62,0138737235988 ,46,5481425550324 ,26,7966544840473
21.9737938 ,Left ,62,0676410289479 ,46,6391695200979 ,26,8325399632312
21.9970581 ,Left ,62,0989686457691 ,46,7177182635111 ,26,847721294433
22.0194068 ,Left ,62,1537590371639 ,46,7144899952944 ,26,8164617990113
22.0345419 ,Left ,62,1452008658857 ,46,6264429542692 ,26,7399375468799
22.0565919 ,Left ,62,1239111586347 ,46,4727102415942 ,26,6431769687285
22.0790501 ,Left ,62,1043679020261 ,46,3121593680476 ,26,5583678118947
22.0941037 ,Left ,62,0643757649711 ,46,2007687270694 ,26,5060623897028
22.1165513 ,Left ,62,0268323153684 ,46,1739768345023 ,26,4805941119061
22.1390571 ,Left ,62,0520694805994 ,46,165164229335 ,26,4672985937314
22.1542157 ,Left ,62,0802213234007 ,46,1282544921755 ,26,4854428271889
22.1766305 ,Left ,62,0516034446223 ,46,1327429989903 ,26,5444181452953
22.2064477 ,Left ,62,0439020901601 ,46,2083860423634 ,26,5765338893895
22.2216399 ,Left ,62,1221942074692 ,46,2757347229021 ,26,5867381082878
22.244159 ,Left ,62,1767498338764 ,46,29363984741 ,26,5978658504534
22.2591192 ,Left ,62,189473218675 ,46,2973607816671 ,26,6045919954974
22.2742738 ,Left ,62,114572093106 ,46,2699242562763 ,26,6203081159634
22.2966064 ,Left ,62,0557898998048 ,46,2433528539395 ,26,6234218920201
22.31903 ,Left ,62,0385283102057 ,46,2061492648428 ,26,6161277615873
22.3339575 ,Left ,62,0236545195221 ,46,160575647097 ,26,6145077644731
22.3564422 ,Left ,62,0306094144111 ,46,1062210723595 ,26,630859170878
22.3789002 ,Left ,62,0350514443424 ,46,0518836003457 ,26,6625551546649
22.3939431 ,Left ,62,0330253790343 ,46,006414851902 ,26,6925342643044
22.416467 ,Left ,62,0442510785046 ,45,9578562433218 ,26,6989062305635
22.439446 ,Left ,62,0473057441292 ,45,9289101705256 ,26,6967188567562
22.4546715 ,Left ,62,0208795693085 ,45,9334101996831 ,26,6922498558444
22.4845985 ,Left ,62,0376660036772 ,45,9374401621061 ,26,6891209565931
22.5071261 ,Left ,62,0592361908943 ,45,9266514511263 ,26,6983644163604
22.5219543 ,Left ,62,0588624889783 ,45,9062093334924 ,26,7156361672225
22.5366574 ,Left ,62,0432737301009 ,45,8865844209533 ,26,734936460322
22.5665957 ,Left ,62,0321780510407 ,45,8784659330741 ,26,7520550351486
22.5816511 ,Left ,62,0280048022852 ,45,8745164428388 ,26,7628844055486
22.6039716 ,Left ,62,0295866872818 ,45,8756804009868 ,26,7628103112128
22.6261699 ,Left ,62,0258844405149 ,45,8876614311166 ,26,7705018631004
22.6414313 ,Left ,62,0123844511453 ,45,9080275426067 ,26,7838057394009
22.6637728 ,Left ,61,9995399057047 ,45,9343874744169 ,26,7947035022898
22.6939925 ,Left ,61,9799832620219 ,45,9859366296398 ,26,8125673827998
22.7162224 ,Left ,61,9731758521694 ,46,0120115782413 ,26,823048627845
22.7388366 ,Left ,61,972313607009 ,46,0459985535309 ,26,8345955363452
22.7614956 ,Left ,61,9624603742846 ,46,0816001405412 ,26,8454167292507
22.7843857 ,Left ,61,9515939310785 ,46,1200772692049 ,26,8526918970927
22.8142634 ,Left ,61,9224271686722 ,46,1907030401211 ,26,8540737886443
22.8367982 ,Left ,61,8875940117925 ,46,2270842529885 ,26,8597844833737
22.8588671 ,Left ,61,8541786732536 ,46,2608610235285 ,26,8721590072734
22.8738423 ,Left ,61,8232844488734 ,46,3025870222025 ,26,905793395645
22.8962468 ,Left ,61,7916905709734 ,46,3490615410493 ,26,9499317257859
22.918807 ,Left ,61,7860085555903 ,46,3898464389569 ,26,9717043106944
22.9414488 ,Left ,61,8065603367119 ,46,3964065750208 ,26,9735819542159
22.9569609 ,Left ,61,8087274045132 ,46,3944340241538 ,26,9663726841656
22.9793794 ,Left ,61,7895621306881 ,46,4040888868252 ,26,9658674578983
23.0018665 ,Left ,61,7914440931748 ,46,4192991424103 ,26,9127116271268
23.0167719 ,Left ,61,8405044749786 ,46,4112237323387 ,26,8172890055679
23.0391911 ,Left ,61,9296086950929 ,46,3826351426503 ,26,6879552268967
23.0615383 ,Left ,61,9359342063432 ,46,3241827624724 ,26,5566614017148
23.0767284 ,Left ,61,9586112565395 ,46,2377737395012 ,26,4475420949808
23.099103 ,Left ,62,0077359920117 ,46,1926076234417 ,26,4026280222544
23.1215991 ,Left ,62,0442506303893 ,46,2060654299615 ,26,3844997627558
23.1365192 ,Left ,62,0811432571923 ,46,2032319431025 ,26,3877112224435
23.1588825 ,Left ,62,1060003197548 ,46,1767639795705 ,26,4099224836576
23.1814711 ,Left ,62,1127517997265 ,46,1569406464322 ,26,4295643967271
23.1965701 ,Left ,62,1359344394015 ,46,1732792054234 ,26,3940888682636
23.2189633 ,Left ,62,1751922525728 ,46,2117270332358 ,26,3285107145401
23.2413216 ,Left ,62,1984937572822 ,46,2356788429321 ,26,2775113387203
23.2564039 ,Left ,62,2078906756348 ,46,3135147779794 ,26,2504391906692
23.2788128 ,Left ,62,2198391620265 ,46,3958800396564 ,26,2437088293918
23.3014448 ,Left ,62,2837077446855 ,46,3728449570169 ,26,2524321579082
23.3162845 ,Left ,62,3130566914582 ,46,2589859700566 ,26,3391681294238
23.3388207 ,Left ,62,2943626708388 ,46,1785905941319 ,26,3962883449155
23.3612919 ,Left ,62,2482072965685 ,46,1914785994097 ,26,3641258402448
23.376653 ,Left ,62,2560049827366 ,46,2508201278041 ,26,3127049171348
23.3989483 ,Left ,62,3215102693979 ,46,2987947237319 ,26,2834742106145
23.4214765 ,Left ,62,3379058882351 ,46,3474268872259 ,26,3106884206187
23.4362156 ,Left ,62,318356164889 ,46,417650584903 ,26,3544052630216
23.4587546 ,Left ,62,313877827629 ,46,4491368674523 ,26,4189159172282
23.481471 ,Left ,62,2853276490523 ,46,4831938702914 ,26,5142875001148
23.496511 ,Left ,62,2643745557628 ,46,5169887625479 ,26,6171746667245
23.5187739 ,Left ,62,2363625029335 ,46,525645541498 ,26,7101329600688
23.5413431 ,Left ,62,1870487321899 ,46,5006368146171 ,26,7779189189393
23.5641335 ,Left ,62,1981165429648 ,46,4332099681601 ,26,7975068296584
23.5865283 ,Left ,62,1979055699075 ,46,3860986745065 ,26,7907232027374
23.6163953 ,Left ,62,1943803220383 ,46,4825023345854 ,26,6728995436301
23.6388478 ,Left ,62,2097752447373 ,46,4628512648682 ,26,6182935997497
23.6617559 ,Left ,62,2198379815916 ,46,4399898928954 ,26,5755910233667
23.676671 ,Left ,62,2077556636067 ,46,4063605880476 ,26,5264058593053
23.6990738 ,Left ,62,1565484326379 ,46,4130253645778 ,26,4819764433646
23.7216691 ,Left ,62,1664626428002 ,46,4307452734251 ,26,4424024441789
23.7363247 ,Left ,62,1923089404933 ,46,4346397309626 ,26,4078860403609
23.7588797 ,Left ,62,1845859434585 ,46,4089608286139 ,26,3932647520399
23.7815191 ,Left ,62,1328574003862 ,46,4025864642898 ,26,4000069768683
23.7965778 ,Left ,62,0763301678061 ,46,4355237709147 ,26,4147015628072
23.8189942 ,Left ,62,0643704485453 ,46,4721540142823 ,26,4325111825462
23.8414486 ,Left ,62,0438116613323 ,46,4757967617007 ,26,4764158788279
23.8638176 ,Left ,61,9700066316116 ,46,5081943794159 ,26,549843918646
23.8864552 ,Left ,61,9315146428373 ,46,5717965312953 ,26,6161761134328
23.9088952 ,Left ,61,9813631282337 ,46,6141219375779 ,26,6496286736442
23.9238712 ,Left ,62,036369895809 ,46,5784978755764 ,26,6298039176357
23.9391067 ,Left ,62,0572922185561 ,46,5142072493578 ,26,5435019178977
23.9615915 ,Left ,62,0113030000055 ,46,3864086532098 ,26,4400829590786
23.9839717 ,Left ,61,9544615476211 ,46,2562968135081 ,26,3543268469018
23.9990278 ,Left ,61,9272175359833 ,46,1270109617706 ,26,2934600332717
24.0216113 ,Left ,61,9018076042691 ,46,0150014254344 ,26,2481828235846
24.0439716 ,Left ,61,8999466538953 ,45,9457969237071 ,26,2318122127591
24.0589942 ,Left ,61,9210044773215 ,45,9413960876709 ,26,2307248882011
24.081607 ,Left ,61,8897860637001 ,45,9486228545597 ,26,2541814264274
24.1042902 ,Left ,61,9321639599389 ,45,9683100793895 ,26,2878744816128
24.119064 ,Left ,61,9774587248491 ,46,0305461468935 ,26,3189798376772
24.1487574 ,Left ,62,0092118694415 ,46,1071009222555 ,26,3389262517273
24.1713092 ,Left ,62,0061859742897 ,46,1546054970048 ,26,3632190348365
24.1862626 ,Left ,61,9898391274574 ,46,1884292824562 ,26,3899815012517
24.2014793 ,Left ,61,9410703865419 ,46,1951809929006 ,26,3993126247769
24.2315277 ,Left ,61,8713837029831 ,46,1890061516082 ,26,4091102337791
24.2467337 ,Left ,61,8179991453303 ,46,1740188336336 ,26,4239579309423
24.2692311 ,Left ,61,8271350941356 ,46,1361934344476 ,26,4506082527843
24.2841692 ,Left ,61,8425172409608 ,46,0892503864731 ,26,4755058663549
24.2988029 ,Left ,61,8103808133795 ,46,0480855647461 ,26,4975912167967
24.3214623 ,Left ,61,7869933919871 ,46,0124037537211 ,26,5074220985741
24.3440394 ,Left ,61,8063539323832 ,45,9782371157378 ,26,5094185170104
24.3589532 ,Left ,61,8457230925528 ,45,9532814406186 ,26,503528090815
24.3812609 ,Left ,61,8668400922226 ,45,9331786859781 ,26,5032170762638
24.4044426 ,Left ,61,8586574741149 ,45,9234970951543 ,26,5105352080194
24.4270156 ,Left ,61,8576524200415 ,45,9117808823135 ,26,5187285267734
24.4493015 ,Left ,61,8735457343291 ,45,894258725381 ,26,5246930150364
24.4789663 ,Left ,61,8942770282903 ,45,8547393161766 ,26,5526469052616
24.5014762 ,Left ,61,8944727788175 ,45,8440397499453 ,26,566654116132
24.5241721 ,Left ,61,8914823123323 ,45,8363625660299 ,26,5774752621969
24.5388887 ,Left ,61,8958763004627 ,45,8295746058878 ,26,5805757463179
24.5614397 ,Left ,61,8869816132999 ,45,8257967151454 ,26,5906093293435
24.5839199 ,Left ,61,8788208632923 ,45,8355586286049 ,26,5995907280933
24.5989509 ,Left ,61,8666611488182 ,45,8514925848041 ,26,6127053338372
24.6214506 ,Left ,61,8515832466254 ,45,8762950030041 ,26,6261415954364
24.6441591 ,Left ,61,8403919265692 ,45,9048641252078 ,26,6345389136332
24.6589142 ,Left ,61,8305591941931 ,45,9389212898889 ,26,6418545335979
24.6814969 ,Left ,61,8195039351048 ,45,9747882917051 ,26,6479710423989
24.711625 ,Left ,61,8097661500803 ,46,0117053271299 ,26,6598241485398
24.7265696 ,Left ,61,7906505500836 ,46,0507544158003 ,26,6842254243001
24.7488513 ,Left ,61,7642817017632 ,46,0872160838061 ,26,7109986083886
24.7712832 ,Left ,61,7223151497559 ,46,1230986562904 ,26,7442204906829
24.7937843 ,Left ,61,6880540202637 ,46,158265297265 ,26,7792083373561
24.8095487 ,Left ,61,6574254420495 ,46,1932408448023 ,26,8200001411733
24.8470022 ,Left ,61,6446239560648 ,46,2538764307313 ,26,8839072752509
24.8620557 ,Left ,61,6774346768427 ,46,2460520480281 ,26,911369434158
24.8846628 ,Left ,61,6751613022392 ,46,244424275936 ,26,9197213004275
24.9070806 ,Left ,61,6450137121927 ,46,2740708621576 ,26,9280283590551
24.9220488 ,Left ,61,6519094183785 ,46,3123978003349 ,26,9078930877015
24.944224 ,Left ,61,714327546597 ,46,3079323852921 ,26,8430794158695
24.9664769 ,Left ,61,8053781546917 ,46,2647232622376 ,26,7311550677078
24.9813752 ,Left ,61,8516162394414 ,46,2001186148975 ,26,6032330073346
25.0042132 ,Left ,61,8893120594551 ,46,1038780873742 ,26,4691358424428
25.0266834 ,Left ,61,9207775276222 ,46,0022478875274 ,26,3617587969923
25.0488848 ,Left ,61,9476422574923 ,45,9161865575214 ,26,2880075967988
25.0637927 ,Left ,62,0024806421115 ,45,8587585830355 ,26,2447191604121
25.0862312 ,Left ,62,0403119437233 ,45,8313181666382 ,26,218746330126
25.1013215 ,Left ,62,0705501459864 ,45,8018359760339 ,26,1953737228704
25.1236801 ,Left ,62,1304765427223 ,45,7569700059624 ,26,1987155691901
25.1470354 ,Left ,62,1469776171097 ,45,7450836953656 ,26,1875486599368
25.1619668 ,Left ,62,132226972938 ,45,7772531854216 ,26,1558088852465
25.1845336 ,Left ,62,1420462095135 ,45,8235645636172 ,26,1304470629765
25.2067745 ,Left ,62,1491530517639 ,45,9032469174264 ,26,1089632166272
25.2143014 ,Left ,62,1674097523754 ,45,985905159022 ,26,1051233666502
25.2367314 ,Left ,62,2240630640424 ,45,989012223532 ,26,1071382609301
25.2815116 ,Left ,62,1794287233503 ,45,8596708047279 ,26,2401124320175
25.3340701 ,Left ,62,2389719592896 ,46,0042102725985 ,26,1323940200248
25.3561761 ,Left ,62,2467455296696 ,46,0872192624549 ,26,1726329384673
25.3940098 ,Left ,62,2714040672625 ,46,1804863758062 ,26,3012623050419
25.4164695 ,Left ,62,2269937520381 ,46,2187873369401 ,26,3959662262469
25.4537867 ,Left ,62,2439805172055 ,46,2507112284849 ,26,584088280911
25.4764273 ,Left ,62,1800387013723 ,46,2853618471491 ,26,6548087248031
25.5140117 ,Left ,62,1587550914874 ,46,279524791467 ,26,6889636853243
25.5367565 ,Left ,62,1324779184722 ,46,3864325070294 ,26,6412220357336
25.5591375 ,Left ,62,1747806290341 ,46,4768262605442 ,26,594839096868
25.5739729 ,Left ,62,2066082883118 ,46,4887441418546 ,26,5557544448948
25.5964402 ,Left ,62,2346021444399 ,46,4943836578731 ,26,5129606349641
25.6187133 ,Left ,62,1629791026044 ,46,5094899579212 ,26,4956168880639
25.6338622 ,Left ,62,1411537790867 ,46,5770785189681 ,26,4915654015115
25.6638239 ,Left ,62,1480670555886 ,46,6040339369653 ,26,4821955870703
25.7014682 ,Left ,62,1149499493708 ,46,5824603729466 ,26,4841394071173
25.7166453 ,Left ,62,0548043460647 ,46,5944889155029 ,26,489770403735
25.7540053 ,Left ,62,0120333467851 ,46,6082713083772 ,26,5019507139299
25.7767929 ,Left ,61,9418328994698 ,46,6513931291305 ,26,5401074267226
25.7991593 ,Left ,61,9386909343768 ,46,728036367289 ,26,5859407897422
25.8369711 ,Left ,62,0488373541534 ,46,9129134800936 ,26,6485220547107
25.8593461 ,Left ,62,1141652692143 ,46,8833266852422 ,26,5922052331724
25.8747142 ,Left ,62,0733133520612 ,46,7857484656699 ,26,4601133343508
25.8967263 ,Left ,62,0209408847701 ,46,6451941446279 ,26,3343402552627
25.9189341 ,Left ,61,9435797746317 ,46,5039144537643 ,26,2419878911084
25.9339513 ,Left ,61,9248188620872 ,46,3694530666304 ,26,1668270520629
25.9566109 ,Left ,61,9376290689583 ,46,2490339368676 ,26,114307557298
25.9789514 ,Left ,61,9744071663436 ,46,1642493962532 ,26,1000119389459
25.9941221 ,Left ,61,9932573098303 ,46,1093809712906 ,26,1111447185205
26.0164622 ,Left ,61,9948363965481 ,46,0506693989177 ,26,1312413053042
26.039136 ,Left ,62,0317640099085 ,46,0605214175197 ,26,1492454770232
26.0838332 ,Left ,62,1486137652674 ,46,2119380053608 ,26,1679931829644
26.1213152 ,Left ,62,1328323942769 ,46,21952376594 ,26,2039505987184
26.1364704 ,Left ,62,0552263346713 ,46,1915036212351 ,26,2076436860106
26.1742685 ,Left ,61,9940347030307 ,46,1435326292084 ,26,2235064217
26.1962302 ,Left ,61,9894577297407 ,46,124591029856 ,26,2413084144395
26.2338479 ,Left ,61,9727166704872 ,46,0710294358089 ,26,3022633851211
26.256518 ,Left ,61,9610419059092 ,46,0395119826975 ,26,3308557067619
26.2945008 ,Left ,61,9847269154068 ,45,9692304531071 ,26,3784057742001
26.3167025 ,Left ,61,979970735237 ,45,9317442373516 ,26,3979547351106
26.36198 ,Left ,61,9281452153648 ,45,8553959797568 ,26,4258564063337
26.3842761 ,Left ,61,9235023970393 ,45,812165650088 ,26,4283938501173
26.4441117 ,Left ,61,8950202945807 ,45,7570310982414 ,26,4582199730407
26.4816926 ,Left ,61,8870934830894 ,45,7698216995876 ,26,4735240647856
26.49666 ,Left ,61,8686851334038 ,45,7746613539196 ,26,479375886118
26.5340579 ,Left ,61,8394631762066 ,45,8165466125156 ,26,4833453395261
26.5566253 ,Left ,61,8248013326282 ,45,844364520718 ,26,4823433294671
26.5943655 ,Left ,61,7744983577047 ,45,9174770841463 ,26,4998552746271
26.616953 ,Left ,61,733309430187 ,45,9652253673246 ,26,5230403943099
26.6616748 ,Left ,61,6648379810807 ,46,0480445836581 ,26,5909192139257
26.6842768 ,Left ,61,6297832809891 ,46,0903385404725 ,26,6431089503465
26.7218088 ,Left ,61,588381203322 ,46,1726645921436 ,26,7194922006023
26.7444417 ,Left ,61,6060445413665 ,46,180394572854 ,26,7369081442176
26.7969343 ,Left ,61,5952506337273 ,46,2412400833239 ,26,7162204384114
26.8268913 ,Left ,61,7182450910821 ,46,2014387251553 ,26,552859786531
26.856828 ,Left ,61,769539403587 ,46,1357805256479 ,26,4166669804386
26.8792017 ,Left ,61,7923553813426 ,46,0654044724883 ,26,2768508674591
26.9167706 ,Left ,61,8515426080033 ,46,0049975351543 ,26,1239664292437
26.9540767 ,Left ,61,9129977660996 ,45,9794526087476 ,26,0610036088185
26.9764606 ,Left ,61,9300689204489 ,45,910078648424 ,26,0763995502767
27.0139967 ,Left ,61,986298794388 ,45,8834933524107 ,26,0338618291653
27.0368914 ,Left ,61,9979699337404 ,45,9214664240564 ,25,9919516934481
27.0668721 ,Left ,62,0075715715517 ,46,1008188772724 ,25,9814282727737
27.0894184 ,Left ,62,0697952458132 ,46,1137380875552 ,26,0107963578136
27.1117425 ,Left ,62,0729992915398 ,46,0478201046865 ,26,1118761863001
27.1269544 ,Left ,62,0284940648845 ,45,9830516747075 ,26,1591496484667
27.1493041 ,Left ,61,989037938669 ,46,0060720938653 ,26,1095062870959
27.1717327 ,Left ,62,0240578018871 ,46,0716714392796 ,26,0394858304572
27.1866107 ,Left ,62,1185087806487 ,46,1342485863836 ,26,000747612176
27.2091032 ,Left ,62,102484133995 ,46,2297349514546 ,26,0249433719131
27.2316153 ,Left ,62,0984107653211 ,46,3248407992898 ,26,0786204930281
27.2469927 ,Left ,62,1356132293769 ,46,3660579649356 ,26,1641438473319
27.26954 ,Left ,62,085753855471 ,46,3927723405678 ,26,2716473510576
27.2920705 ,Left ,62,0689835700542 ,46,3909922077505 ,26,3828979921372
27.3067751 ,Left ,62,0931229618118 ,46,3801393151374 ,26,4764484550691
27.3291619 ,Left ,62,0888668870253 ,46,3730426416952 ,26,5184333712673
27.3515937 ,Left ,62,0827493042807 ,46,3586409647399 ,26,5063430994815
27.3663378 ,Left ,62,025753179304 ,46,4160633004409 ,26,4749053944311
27.3887916 ,Left ,62,0305554061853 ,46,5227261348531 ,26,4283998291846
27.4114218 ,Left ,62,1213519934324 ,46,5810633040582 ,26,3820480931051
27.4264164 ,Left ,62,1595937880372 ,46,586840861954 ,26,3533638850619
27.4487841 ,Left ,62,1215104305999 ,46,5751265246866 ,26,3459838479371
27.4790138 ,Left ,62,0661049089114 ,46,6396837180717 ,26,3305968820533
27.5013772 ,Left ,62,092276673311 ,46,7000340971091 ,26,3198414783443
27.5163156 ,Left ,62,1681262786085 ,46,7009730769548 ,26,3080524659385
27.5315017 ,Left ,62,14953878092 ,46,6898511905816 ,26,3168173761228
27.5462201 ,Left ,62,0396672801323 ,46,721637868407 ,26,3430280734354
27.5690659 ,Left ,61,968165300648 ,46,7772151820792 ,26,3630557607355
27.5987448 ,Left ,61,9492582484931 ,46,8045258748361 ,26,3924026543183
27.6212495 ,Left ,61,9818083639379 ,46,7719910844562 ,26,4478201680258
27.6364447 ,Left ,61,973254524509 ,46,7933202198641 ,26,4838985860318
27.6743538 ,Left ,62,0563856708333 ,46,8236326848106 ,26,414146614085
27.6893382 ,Left ,62,0360554025586 ,46,7331121693073 ,26,2842907052993
27.7118641 ,Left ,61,9639135000561 ,46,6368640745485 ,26,1609646439687
27.7343201 ,Left ,61,9034139348553 ,46,5569358167794 ,26,0647755287612
27.756723 ,Left ,61,9246157710516 ,46,4604797650915 ,25,9815027015373
27.7793281 ,Left ,61,9901548898698 ,46,3507290326476 ,25,9262693220535
27.8092264 ,Left ,61,9966622352749 ,46,1978152839127 ,25,9565450471825
27.8317932 ,Left ,61,965070528109 ,46,1637097949735 ,25,9799877155995
27.8546415 ,Left ,62,0531917856714 ,46,177068459591 ,26,006012418393
27.8693564 ,Left ,62,1474241087524 ,46,2315404492639 ,26,0207451083821
27.8915834 ,Left ,62,2017594835134 ,46,2979462071094 ,26,0361665432496
27.9142361 ,Left ,62,1864986549009 ,46,3251548323765 ,26,0618750504746
27.9291071 ,Left ,62,1340230673776 ,46,3177582229506 ,26,094069983239
27.9514945 ,Left ,62,0822946358208 ,46,3108726476304 ,26,0934022412178
27.9738396 ,Left ,62,0578192456736 ,46,2940643170735 ,26,0854615541613
27.9886861 ,Left ,62,034337593503 ,46,2596963457379 ,26,0988801375776
28.0115263 ,Left ,62,0245677521717 ,46,2147777046833 ,26,139367797575
28.0417628 ,Left ,62,0228602986123 ,46,1716532878992 ,26,2048424658151
28.0568389 ,Left ,61,9912177080842 ,46,1327114795001 ,26,280102269615
28.0792953 ,Left ,61,9941327348695 ,46,1012386121886 ,26,3371175576572
28.1017261 ,Left ,62,0337104946145 ,46,0554815404591 ,26,3485000733365
28.1166807 ,Left ,62,0531408654606 ,45,9924679666755 ,26,3384623541547
28.1392489 ,Left ,62,0418096969975 ,45,9516562075213 ,26,3376713401151
28.1692803 ,Left ,62,0016382835114 ,45,9105509238138 ,26,3528172448145
28.191785 ,Left ,61,9901323987354 ,45,9010578733622 ,26,3615673163495
28.2142807 ,Left ,61,9885907480386 ,45,8925504790761 ,26,3637515211448
28.2292037 ,Left ,61,9799763416139 ,45,8880399316513 ,26,3737021829971
28.2516579 ,Left ,61,9685575200981 ,45,8897609384362 ,26,3827486509291
28.2741471 ,Left ,61,9536250684251 ,45,9072723836895 ,26,392534077079
28.2892341 ,Left ,61,9533467774618 ,45,9329627364565 ,26,3944919255177
28.3192877 ,Left ,61,9544331685567 ,45,9660997298203 ,26,3965992064362
28.3417401 ,Left ,61,9349177743998 ,46,002178474517 ,26,3960785303464
28.3565826 ,Left ,61,9021494522854 ,46,0513248210597 ,26,4048683987102
28.3717281 ,Left ,61,8665430660815 ,46,1019933702553 ,26,4159165512198
28.3944315 ,Left ,61,8528208890737 ,46,1524732453507 ,26,4330921308306
28.4090429 ,Left ,61,8158526846249 ,46,2002092917156 ,26,459347649728
28.4392412 ,Left ,61,7676911712043 ,46,2340065371832 ,26,4916371759925
28.4691634 ,Left ,61,7081343855977 ,46,2620793288 ,26,523856536617
28.4839963 ,Left ,61,6664941266877 ,46,2905585534353 ,26,5530390168534
28.499238 ,Left ,61,6601443673923 ,46,3133579782412 ,26,5749246827984
28.5143914 ,Left ,61,6820903661089 ,46,309805458836 ,26,6066788640396
28.5292244 ,Left ,61,7081688164394 ,46,2982511040185 ,26,6141387098756
28.551724 ,Left ,61,6955378928761 ,46,3243015311604 ,26,6075805871362
28.5741038 ,Left ,61,7120916644267 ,46,346279172172 ,26,5617554658395
28.5967128 ,Left ,61,7911764278554 ,46,3206890425664 ,26,4679492822521
28.6115705 ,Left ,61,881843367756 ,46,2787882974825 ,26,3356517339319
28.6341354 ,Left ,61,9194110668461 ,46,2205360373362 ,26,2052153612218
28.6643131 ,Left ,61,9559852867158 ,46,1491801404878 ,26,0930711810887
28.6792111 ,Left ,61,9702948902216 ,46,0995720013452 ,26,0097135261236
28.7017006 ,Left ,61,9950561474224 ,46,0879331095878 ,25,9510567633974
28.7166165 ,Left ,62,0253382818708 ,46,0614680694761 ,25,9233613206485
28.7318477 ,Left ,62,0799528677002 ,46,0070474803379 ,25,9398031106514
28.7542191 ,Left ,62,0822868842224 ,45,9828610050383 ,25,9486186688077
28.7767064 ,Left ,62,0665825727969 ,45,9934450365163 ,25,9143453459393
28.791793 ,Left ,62,0654065199616 ,46,0236323394949 ,25,8800165090783
28.81417 ,Left ,62,0532308256169 ,46,0569772170055 ,25,8743725412529
28.8366938 ,Left ,62,0728585554768 ,46,1506072994381 ,25,8837976824088
28.8516408 ,Left ,62,1284338160317 ,46,1723627775322 ,25,9040765251583
28.8742654 ,Left ,62,17804062124 ,46,1441541154251 ,25,9606631651462
28.8966123 ,Left ,62,1545969233494 ,46,1276334630574 ,26,0134963291288
28.9118039 ,Left ,62,1206429413455 ,46,1462543964227 ,26,0192914933491
28.9340188 ,Left ,62,1164872528499 ,46,1976392935415 ,26,0076825246107
28.9567553 ,Left ,62,1624769148527 ,46,2567594430054 ,25,9904316831379
28.9717404 ,Left ,62,1456162398482 ,46,3096977521212 ,26,0266825807111
28.9942245 ,Left ,62,1198066944064 ,46,3650095385275 ,26,0824582585547
29.0167149 ,Left ,62,085911961931 ,46,3781250361967 ,26,1348946650715
29.0318353 ,Left ,62,0462575558159 ,46,3768104710034 ,26,1749542542433
29.0543131 ,Left ,62,0349428989019 ,46,37662910772 ,26,1994983828446
29.0767529 ,Left ,62,0546198625681 ,46,3905301299442 ,26,2244754391545
29.0915775 ,Left ,62,0741578300107 ,46,4171130192175 ,26,2532371664091
29.1143071 ,Left ,62,0506305889496 ,46,4460987903631 ,26,3111826786758
29.136694 ,Left ,62,028770837471 ,46,4333169946301 ,26,3670496763172
29.1516896 ,Left ,62,0314049420879 ,46,4068949520182 ,26,4025144819032
29.174253 ,Left ,62,0124904641609 ,46,4293877993904 ,26,3807662631457
29.1967908 ,Left ,61,9947302695058 ,46,4682296671712 ,26,3471310455981
29.2117375 ,Left ,62,0433844295226 ,46,4844619517989 ,26,3217593580508
29.2341516 ,Left ,62,1063673871745 ,46,4840477678099 ,26,2871588657342
29.256561 ,Left ,62,1133786925023 ,46,4501049874814 ,26,2453316692893
29.27142 ,Left ,62,0981242922739 ,46,4341809841269 ,26,2033324810251
29.294032 ,Left ,62,0915244284652 ,46,4163747263702 ,26,1645630302126
29.3165187 ,Left ,62,0977081095372 ,46,3935111284468 ,26,1371794908225
29.3315983 ,Left ,62,0860463306938 ,46,3653905871397 ,26,1236290558713
29.3541975 ,Left ,62,0836049576834 ,46,3488277431438 ,26,1330563940477
29.3764872 ,Left ,62,0707524697667 ,46,3492611210226 ,26,142013238208
29.3912866 ,Left ,62,0627461583489 ,46,3616137295268 ,26,1462126078821
29.4138591 ,Left ,62,0485703549393 ,46,3977889089966 ,26,1510975972986
29.4365226 ,Left ,61,9465772188712 ,46,4639751676375 ,26,1966864146429
29.451531 ,Left ,61,942759517362 ,46,5489406730833 ,26,2968029556608
29.4739755 ,Left ,61,9639421066102 ,46,594553472095 ,26,3748641455784
29.5038508 ,Left ,62,0214843874441 ,46,6009167498965 ,26,3625993599769
29.5263616 ,Left ,62,0451465198696 ,46,5608183923609 ,26,2530850592111
29.5416292 ,Left ,61,9768790413939 ,46,4719878502473 ,26,1317673439925
29.5642179 ,Left ,61,8836537499018 ,46,3884358332993 ,26,0434885377939
29.5865355 ,Left ,61,8300445851013 ,46,3058418845354 ,25,9816708814559
29.6014634 ,Left ,61,8433346294202 ,46,2339787260511 ,25,9384168652252
29.6240348 ,Left ,61,8734308918356 ,46,1711843196618 ,25,9018804949161
29.6390685 ,Left ,61,829793024968 ,46,1191334459826 ,25,9168337006029
29.6540641 ,Left ,61,8223673996348 ,46,1001803468621 ,25,9471756819311
29.6765426 ,Left ,61,8960581651192 ,46,1231395888931 ,25,9621164846274
29.7065943 ,Left ,61,963486308506 ,46,1817188667246 ,25,96466997669
29.7214902 ,Left ,61,9979701843916 ,46,229794480851 ,25,9828579134267
29.7593784 ,Left ,61,9691211355246 ,46,2765465850972 ,26,0215591335038
29.7739512 ,Left ,61,9347922046201 ,46,2521700742815 ,26,0258669108872
29.7964222 ,Left ,61,8640118125973 ,46,2149319305279 ,26,0518620123817
29.818963 ,Left ,61,8144783547415 ,46,1757914408051 ,26,0892140737916
29.8339071 ,Left ,61,8144064416984 ,46,1245955506663 ,26,1221943950743
29.8566341 ,Left ,61,8090776406553 ,46,0729741359845 ,26,1491860512337
29.8793319 ,Left ,61,8048606017526 ,46,0247981146031 ,26,1664157363169
29.8939972 ,Left ,61,8125116100896 ,45,9881774923388 ,26,1700280969292
29.9162702 ,Left ,61,8114305455174 ,45,9817484474039 ,26,1674729474687
29.9387961 ,Left ,61,811158958345 ,45,9824121881094 ,26,1675605743805
29.9540611 ,Left ,61,8390309090806 ,45,9693988724121 ,26,1623500480228
29.9840524 ,Left ,61,8646609929076 ,45,9481794237604 ,26,1618916508491
30.006675 ,Left ,61,8718621125769 ,45,927720149143 ,26,1646799516315
30.0217417 ,Left ,61,8795864559467 ,45,9188315743055 ,26,1652415544109
30.0366577 ,Left ,61,8867733645867 ,45,9261409355828 ,26,1651713662042
30.0591201 ,Left ,61,8944647165861 ,45,9394214044294 ,26,1627567313924
30.074103 ,Left ,61,903432666866 ,45,9545640762262 ,26,160380005628
30.104008 ,Left ,61,8981302500221 ,45,9756279805651 ,26,164868749105
30.1266105 ,Left ,61,8864681351221 ,46,0057271304735 ,26,1710891769206
30.1416315 ,Left ,61,880420307388 ,46,0381999058474 ,26,1709191187096
30.1566264 ,Left ,61,8703533265911 ,46,0767770301134 ,26,174776721374
30.1790205 ,Left ,61,8563091847229 ,46,1252803886473 ,26,1776157130977
30.1942202 ,Left ,61,8191446888783 ,46,1791603477087 ,26,1849679382789
30.2165265 ,Left ,61,7762568089209 ,46,2368223536617 ,26,1910879032549
30.2391738 ,Left ,61,7312363934915 ,46,2753741358965 ,26,2051958227793
30.2539461 ,Left ,61,6908167172044 ,46,3066413195722 ,26,2357648253168
30.2764613 ,Left ,61,6506758360212 ,46,3445859983837 ,26,2771400148637
30.2994204 ,Left ,61,6259876680915 ,46,3813672794323 ,26,3166220531713
30.3146853 ,Left ,61,6304894853832 ,46,3967874497302 ,26,3299181136387
30.3370529 ,Left ,61,679492308261 ,46,3938395707249 ,26,34792064016
30.3593362 ,Left ,61,6854887675145 ,46,3949466980981 ,26,3755605591081
30.3741023 ,Left ,61,6828435392192 ,46,4100697823256 ,26,3564756822955
30.396635 ,Left ,61,7180316158611 ,46,3935926611329 ,26,2698291585058
30.4190917 ,Left ,61,7991511994922 ,46,3251221866464 ,26,1347994426123
30.4416127 ,Left ,61,8581732084454 ,46,2341079013417 ,25,9782126997221
30.4566606 ,Left ,61,9293249889585 ,46,1274473852884 ,25,8240758534702
30.4790361 ,Left ,61,9224314220669 ,46,0376485904557 ,25,7334438414621
30.5017491 ,Left ,61,943683695232 ,46,020792706016 ,25,6705543396855
30.5241145 ,Left ,61,9947848486397 ,46,0168592517235 ,25,6301042147015
30.5467099 ,Left ,62,0474007032706 ,45,9959063760378 ,25,6085679854389
30.5690079 ,Left ,62,0902752563805 ,45,9866532247381 ,25,6136658335705
30.5838368 ,Left ,62,1134175671479 ,46,0080021641844 ,25,5875362647555
30.6064765 ,Left ,62,1404872858425 ,46,0178035041289 ,25,5348421307009
30.6288908 ,Left ,62,1715418763781 ,46,0550309223986 ,25,5126507473691
30.6438328 ,Left ,62,175974677979 ,46,1891879021731 ,25,5125559753287
30.6589394 ,Left ,62,2528880920994 ,46,2686913428602 ,25,5121541475803
30.6815044 ,Left ,62,3210194876929 ,46,2328493158332 ,25,5534433840699
30.6965173 ,Left ,62,3133379364389 ,46,186433515043 ,25,6208634189645
30.7190025 ,Left ,62,2459936861845 ,46,2283479500929 ,25,6242386192823
30.741475 ,Left ,62,2557992763245 ,46,2990787788201 ,25,5844997499177
30.7565618 ,Left ,62,2902810653548 ,46,3756217415983 ,25,5918024035959
30.7790544 ,Left ,62,2978539069207 ,46,516767795524 ,25,6547134416476
30.8089887 ,Left ,62,3516489891295 ,46,60372733228 ,25,7249269246538
30.8240605 ,Left ,62,339841793951 ,46,6369111301237 ,25,7945100585585
30.854181 ,Left ,62,2563417401485 ,46,6537985192341 ,25,8840507472181
30.8689226 ,Left ,62,2427108037273 ,46,6301001313304 ,25,9847601378895
30.8838514 ,Left ,62,2137660606696 ,46,6187085787438 ,26,0702651130627
30.8988718 ,Left ,62,1904728659098 ,46,6028547091696 ,26,0984943007378
30.9214672 ,Left ,62,0833068935963 ,46,6475275853327 ,26,0951065855648
30.9366572 ,Left ,62,0508061393837 ,46,7554039232387 ,26,0610949681071
30.9665902 ,Left ,62,1631185352277 ,46,8203622562221 ,26,0156408061863
30.9816919 ,Left ,62,2607296413322 ,46,8445974921352 ,25,9408119470176
30.9965595 ,Left ,62,2405442241412 ,46,8006010410189 ,25,8702482804557
31.0114779 ,Left ,62,1769344477221 ,46,8000257258361 ,25,815844991818
31.0340833 ,Left ,62,1569906166817 ,46,817847640618 ,25,7860993087653
31.0490943 ,Left ,62,1726860721731 ,46,803247871935 ,25,7770372016994
31.0791496 ,Left ,62,1730616084997 ,46,7622314852101 ,25,7995226664877
31.1016282 ,Left ,62,1047869127934 ,46,7512100751871 ,25,8484943201805
31.1164955 ,Left ,62,0340291032109 ,46,7538963729488 ,25,8878615456873
31.1315895 ,Left ,62,0311985434265 ,46,7828967179764 ,25,9003588972033
31.1542291 ,Left ,61,9942672706507 ,46,8278338827253 ,25,9245603236676
31.1689717 ,Left ,62,0353931422223 ,46,8936220035731 ,25,9728676617266
31.1916793 ,Left ,62,1057424529925 ,46,9103903000028 ,25,9850226922561
31.2142123 ,Left ,62,186050452697 ,46,8778793078396 ,25,9018211615955
31.2290479 ,Left ,62,1851252185434 ,46,7586887064994 ,25,7332945791639
31.2511562 ,Left ,62,0874923099854 ,46,6372600438571 ,25,61121930561
31.2739675 ,Left ,61,9993806474391 ,46,6431083798117 ,25,5236502058353
31.2888537 ,Left ,62,0756773143169 ,46,576914175738 ,25,4503441911008
31.3111902 ,Left ,62,1532479533239 ,46,4542823902282 ,25,4266387600278
31.3339052 ,Left ,62,0255003006017 ,46,3707665554263 ,25,4754428473172
31.3564123 ,Left ,61,9714718949424 ,46,3706269299626 ,25,5067213727991
31.3789849 ,Left ,62,0576291797806 ,46,4078438272473 ,25,4975956337173
31.401631 ,Left ,62,1526188167834 ,46,4670676616531 ,25,5010203281674
31.409126 ,Left ,62,2093483253203 ,46,4960036843108 ,25,5184234369785
31.4316711 ,Left ,62,21580786375 ,46,49191259684 ,25,530399059983
31.468699 ,Left ,62,0666064119684 ,46,42100069694 ,25,5223002073068
31.491242 ,Left ,62,0371825613851 ,46,387067672791 ,25,5001783083832
31.5289618 ,Left ,62,0167557929855 ,46,3031390146581 ,25,5196371421786
31.5518037 ,Left ,62,0006009194687 ,46,2402381310466 ,25,5751917740921
31.5893322 ,Left ,62,0111334310741 ,46,0854127862059 ,25,678464787463
31.6117526 ,Left ,62,0072511271075 ,46,0238620451737 ,25,6999625788202
31.6490624 ,Left ,61,9745370921237 ,45,9638331968152 ,25,7140820441113
31.6717268 ,Left ,61,9591961569337 ,45,9495164454621 ,25,7339315533241
31.7166651 ,Left ,61,9625398411978 ,45,916125260808 ,25,787895475304
31.7393337 ,Left ,61,9452465761489 ,45,912499327381 ,25,8081943443147
31.7692953 ,Left ,61,9103500480686 ,45,9271166110177 ,25,8347795377587
31.7917726 ,Left ,61,9090675667201 ,45,9348363978507 ,25,8448803329944
31.8292534 ,Left ,61,8612244329075 ,45,9478912349021 ,25,843662389288
31.8512353 ,Left ,61,8385204044373 ,45,9637137614477 ,25,8426363941912
31.8889806 ,Left ,61,7958943582611 ,46,0287508920036 ,25,8534017751271
31.9190605 ,Left ,61,7803346641015 ,46,0684751756416 ,25,8770196985931
31.9565429 ,Left ,61,7037282877371 ,46,1703081543502 ,25,9757521192306
31.9715619 ,Left ,61,6512452738042 ,46,2117258130365 ,26,0413993918813
32.0089255 ,Left ,61,6107231965836 ,46,2284385879247 ,26,1558142066987
32.0314887 ,Left ,61,6176472333486 ,46,2005362397908 ,26,1916692461531
32.0690658 ,Left ,61,6382210406726 ,46,1718641454631 ,26,223440208031
32.0915485 ,Left ,61,6376383865439 ,46,1931931215098 ,26,2116752777188
32.1291582 ,Left ,61,7236481603608 ,46,2143341813467 ,26,1001490841803
32.1515183 ,Left ,61,8183738015599 ,46,1616662539949 ,25,9731267897465
32.1743163 ,Left ,61,8692746664195 ,46,0883640546878 ,25,8363137360485
32.2115998 ,Left ,61,9427689650941 ,45,9408606967458 ,25,6593061548427
32.2339379 ,Left ,61,9657097640653 ,45,9291490544935 ,25,6344497905727
32.2714367 ,Left ,62,0545556995071 ,45,8912287594269 ,25,6362772159763
32.309057 ,Left ,62,1239210495659 ,45,9109191047992 ,25,626270268367
32.3390061 ,Left ,62,1201149417137 ,45,9530100609343 ,25,5850400050119
32.3769338 ,Left ,62,1535017072897 ,46,0881807964058 ,25,5295676482293
32.3920339 ,Left ,62,1760046365144 ,46,175239116299 ,25,5169904989762
32.4292525 ,Left ,62,2286972949547 ,46,0998329660274 ,25,6386546511544
32.4516443 ,Left ,62,1827639328917 ,46,0578900417048 ,25,7239375331968
32.4974717 ,Left ,62,143656017433 ,46,1730397828651 ,25,6574195216663
32.5495704 ,Left ,62,2046043000875 ,46,4375804066372 ,25,7390943118788
32.5721103 ,Left ,62,1551534966452 ,46,4747364959226 ,25,7918716245167
32.6092054 ,Left ,62,1271159875991 ,46,4492955466693 ,25,9263093643213
32.6319227 ,Left ,62,1176720479545 ,46,4533127471871 ,25,9741608025461
32.6692752 ,Left ,62,1033446253507 ,46,5225027561768 ,25,9894311080673
32.6917929 ,Left ,62,0488585592828 ,46,6196643508605 ,25,9866095091598
32.7291791 ,Left ,62,1592776888373 ,46,8384224440219 ,25,8897808474795
32.7593524 ,Left ,62,1611693851905 ,46,846468913306 ,25,8509272439652
32.8117561 ,Left ,62,0822953573555 ,46,8201323822715 ,25,8218435410778
32.8419034 ,Left ,61,9882061892934 ,46,7753613541457 ,25,8159321418886
32.8644233 ,Left ,61,9098846945342 ,46,7680449948871 ,25,7953160584474
32.8866491 ,Left ,61,8686823297944 ,46,746132444734 ,25,7787391038
32.9016195 ,Left ,61,8404679824411 ,46,7404092025652 ,25,8279896994252
32.9243147 ,Left ,61,8769532692055 ,46,8357859908041 ,25,9034344502275
32.9467784 ,Left ,61,9339427027838 ,46,9003955388885 ,25,9247179582864
32.9692976 ,Left ,62,0127334751787 ,46,8875964142108 ,25,8578064631288
32.9842836 ,Left ,62,0005879926551 ,46,780525305933 ,25,6813399797638
33.0067484 ,Left ,61,9412325809117 ,46,6157556632408 ,25,5183187109571
33.0363291 ,Left ,61,8561725195039 ,46,5167289227499 ,25,4321983698062
33.0512266 ,Left ,61,8247027156114 ,46,4709010281417 ,25,3912834185006
33.0888087 ,Left ,61,8783093416204 ,46,2616252712777 ,25,3719655040331
33.1041453 ,Left ,61,8485627408836 ,46,1659343544279 ,25,4411259597858
33.1264669 ,Left ,61,8283959440434 ,46,2057695053959 ,25,4613565123871
33.1490366 ,Left ,61,9558428754054 ,46,3127461268267 ,25,4464864149794
33.1642603 ,Left ,62,1133392676618 ,46,3905200291833 ,25,45707560816
33.186635 ,Left ,62,1520592264798 ,46,4281696869029 ,25,4876746226126
33.2091562 ,Left ,62,0972692254121 ,46,4340624051202 ,25,5253552422665
33.2241575 ,Left ,62,0295072149156 ,46,4187502763647 ,25,5221465853838
33.2465157 ,Left ,61,9964247005787 ,46,3924306287241 ,25,5163680142289
33.2689544 ,Left ,61,9817176376027 ,46,3669482382525 ,25,5223724491222
33.2838644 ,Left ,61,9896145731313 ,46,3307863507995 ,25,5434330941083
33.3064831 ,Left ,61,9739545125371 ,46,2783402048174 ,25,5894576404067
33.3214812 ,Left ,61,9376967178828 ,46,2302697382032 ,25,6337581154776
33.3437973 ,Left ,61,9267888430031 ,46,2007880094418 ,25,657982622238
33.3741349 ,Left ,61,9467271903037 ,46,1509795647194 ,25,6522133287165
33.3966868 ,Left ,61,9660525063132 ,46,0997467927964 ,25,6512068796588
33.4115865 ,Left ,61,9621909295894 ,46,0659928449262 ,25,6564483450005
33.4569409 ,Left ,61,9277965011256 ,46,0411711259403 ,25,674302058104
33.4716804 ,Left ,61,9268377635888 ,46,0347268804018 ,25,6716747827303
33.49441 ,Left ,61,9318336638348 ,46,0245687795039 ,25,6699200954122
33.5093019 ,Left ,61,9314590115666 ,46,0169003756521 ,25,6746190941788
33.5243733 ,Left ,61,9148792322196 ,46,0182990626243 ,25,6888729775126
33.5467547 ,Left ,61,8934879316298 ,46,0365026317424 ,25,7025762389061
33.5691428 ,Left ,61,8842431689285 ,46,0658864466586 ,25,7099562366692
33.5842951 ,Left ,61,8670885027212 ,46,0993491721068 ,25,7201551959431
33.6067329 ,Left ,61,839723611682 ,46,1397619309947 ,25,7307555192665
33.6292447 ,Left ,61,812286332009 ,46,1755132036491 ,25,744766796756
33.6442618 ,Left ,61,7919883094941 ,46,2104787574426 ,25,770753202794
33.6666161 ,Left ,61,7622744520515 ,46,2420107773695 ,25,8053720817869
33.6892303 ,Left ,61,7120509798718 ,46,275075351882 ,25,8391715494797
33.7043419 ,Left ,61,6478845495216 ,46,2992201356881 ,25,880307565403
33.7266278 ,Left ,61,590813342766 ,46,3211698661227 ,25,9112344426768
33.7491331 ,Left ,61,5494158736809 ,46,3365754876001 ,25,9342973863406
33.7643389 ,Left ,61,5714358662265 ,46,3422678017521 ,25,9521471342697
33.7866711 ,Left ,61,6259287070809 ,46,3441018091836 ,25,9558468879367
33.8093184 ,Left ,61,6465973304049 ,46,3511725049999 ,25,9688954933649
33.8244431 ,Left ,61,6161507721273 ,46,3810660413359 ,25,9307705601353
33.8467749 ,Left ,61,674435908846 ,46,3900456568418 ,25,8391529008373
33.8692474 ,Left ,61,7734128746314 ,46,357664624918 ,25,7052483287243
33.88424 ,Left ,61,817695121139 ,46,2827137338618 ,25,5623062775481
33.906784 ,Left ,61,8370542185963 ,46,1829825851512 ,25,4431826814948
33.9291827 ,Left ,61,8359700930829 ,46,1016946460271 ,25,3764955642767
33.9516653 ,Left ,61,8635012773563 ,46,0772682104039 ,25,3400236597273
33.9667379 ,Left ,61,9261396783327 ,46,0442143852673 ,25,3242418736635
33.9893212 ,Left ,61,9854353458603 ,45,9880205121458 ,25,3211456392759
34.0118348 ,Left ,62,0172043630503 ,45,9701054935451 ,25,3215972588029
34.0266699 ,Left ,62,0141323232637 ,46,0010690800217 ,25,2768603477778
34.0491817 ,Left ,62,0389120282459 ,46,0533748365899 ,25,2254527196082
34.0643836 ,Left ,62,0403300010866 ,46,1126256476046 ,25,2063818439528
34.0868334 ,Left ,62,0525706832705 ,46,1932230248557 ,25,2261807988762
34.109275 ,Left ,62,0509115445328 ,46,2007899620868 ,25,3011534976791
34.1242342 ,Left ,62,0430228811936 ,46,0905472203851 ,25,4527885908098
34.1468424 ,Left ,62,0264222740798 ,46,0180557511168 ,25,551078392415
34.1691404 ,Left ,61,9698663154506 ,46,0999000710585 ,25,5153778520039
34.1916725 ,Left ,61,9846973627125 ,46,2446553885945 ,25,4363036854698
34.2067098 ,Left ,62,069798619181 ,46,3894511656035 ,25,4040765092576
34.2292708 ,Left ,62,1098660463896 ,46,5301095078944 ,25,4335782475027
34.2518197 ,Left ,62,1286564640164 ,46,6059951089648 ,25,4754612645409
34.2666769 ,Left ,62,0902669900499 ,46,6028414838508 ,25,5625811092941
34.2893226 ,Left ,62,0199848821654 ,46,5735292781529 ,25,6939386157484
34.3118765 ,Left ,62,0332756077097 ,46,5305144370005 ,25,8200487107081
34.3266436 ,Left ,62,0455225172192 ,46,5293953502192 ,25,8916339329608
34.3491771 ,Left ,61,9928318818608 ,46,5784220170418 ,25,9096439444447
34.3717052 ,Left ,61,9685837788156 ,46,6121012938196 ,25,9059164214206
34.3866388 ,Left ,61,9126947010492 ,46,6840134164989 ,25,9213352974745
34.4091552 ,Left ,61,9188615967807 ,46,7958509937375 ,25,9244296517816
34.4321473 ,Left ,62,0250291922006 ,46,8777614317793 ,25,9061647696322
34.4470464 ,Left ,62,0785888903181 ,46,8593290384072 ,25,8758440223918
34.4694187 ,Left ,62,089026586534 ,46,8335307349925 ,25,8279389853136
34.4921204 ,Left ,62,033369095512 ,46,8429633338684 ,25,765711259221
34.5070714 ,Left ,62,0538854571151 ,46,8962813246754 ,25,6949518100937
34.5291785 ,Left ,62,1336697869272 ,46,9266742402042 ,25,6241948221136
34.5517258 ,Left ,62,1573122857723 ,46,9202072875368 ,25,5624023122533
34.5665141 ,Left ,62,0925948435983 ,46,8890381822409 ,25,5300232063851
34.5892265 ,Left ,62,0157511437 ,46,875923751784 ,25,5286588931088
34.6115843 ,Left ,61,9889032677917 ,46,8643125064779 ,25,5498381445196
34.6267248 ,Left ,61,9600282459339 ,46,8568688711398 ,25,6042587502867
34.6495363 ,Left ,61,9709085754893 ,46,8410441738466 ,25,6812216083751
34.6719556 ,Left ,61,954574383552 ,46,9313963219251 ,25,7345122080501
34.6943296 ,Left ,61,9976693838801 ,47,0176205448823 ,25,7355446275864
34.7166127 ,Left ,62,0854352213969 ,46,9984935481141 ,25,6695955519212
34.7467337 ,Left ,61,978677636241 ,46,8147774597177 ,25,3980439273087
34.7692038 ,Left ,61,9537326099751 ,46,6821978065635 ,25,2704970859871
34.7918508 ,Left ,61,9473910371722 ,46,5323543215878 ,25,195944385137
34.8066804 ,Left ,61,9504570850345 ,46,4343758181193 ,25,161368735413
34.8289051 ,Left ,61,9523014054429 ,46,3718022339505 ,25,1560754912846
34.8514938 ,Left ,61,9882856260041 ,46,3018807577005 ,25,178110022227
34.8740853 ,Left ,62,0279581630317 ,46,3241767935789 ,25,2261089165441
34.8886399 ,Left ,62,1217447764903 ,46,4145308455602 ,25,25061424943
34.9114934 ,Left ,62,2342196303999 ,46,5069953651895 ,25,2807027472191
34.9340392 ,Left ,62,2763848578297 ,46,5531841623324 ,25,3165953870158
34.9489446 ,Left ,62,2267757928796 ,46,5607409371328 ,25,3332231594111
34.971716 ,Left ,62,1412408768461 ,46,5619155040019 ,25,3382380325392
34.9937721 ,Left ,62,099721790777 ,46,5636164373542 ,25,3505540008781
35.0089916 ,Left ,62,0825632467871 ,46,5467698393523 ,25,3790914110428
35.0389755 ,Left ,62,068602405465 ,46,5142234064267 ,25,4343752515779
35.0615601 ,Left ,62,0441110248367 ,46,4736403566749 ,25,4970836960252
35.0765707 ,Left ,62,0046606444944 ,46,4305196579868 ,25,5564245736498
35.1064472 ,Left ,62,0230000183038 ,46,334404756189 ,25,6187875961455
35.1366877 ,Left ,62,0321100744693 ,46,2654000484199 ,25,6338642091938
35.1591216 ,Left ,62,0240509521095 ,46,2086681662167 ,25,6374865254919
35.1740365 ,Left ,62,001086063726 ,46,196165691207 ,25,6342732832051
35.189012 ,Left ,61,9834554487353 ,46,2083208803665 ,25,629108690885
35.2114026 ,Left ,61,9991118550529 ,46,2104394662646 ,25,6335368900954
35.2339971 ,Left ,62,0235307073052 ,46,1963073898778 ,25,6457490195659
35.2490089 ,Left ,62,031862631077 ,46,1760291440043 ,25,6571137565211
35.2715343 ,Left ,62,0189027243877 ,46,1587276424974 ,25,6718333081367
35.2940728 ,Left ,62,0039115147554 ,46,159368154928 ,25,6847320857384
35.3092658 ,Left ,61,9959741718522 ,46,1730060853817 ,25,6977355065745
35.3313682 ,Left ,61,9920791468251 ,46,18787755348 ,25,704427302287
35.3540053 ,Left ,61,9883389949221 ,46,2035504556466 ,25,7050338553762
35.3688282 ,Left ,61,9794120471071 ,46,220705622077 ,25,7009160606257
35.3921496 ,Left ,61,9468074758699 ,46,2490697904259 ,25,6941818645628
35.4148536 ,Left ,61,9220202238485 ,46,2842587840628 ,25,6811116256389
35.4295442 ,Left ,61,9033957505536 ,46,3199676180881 ,25,6824625173024
35.4520268 ,Left ,61,8805950050865 ,46,3583352436695 ,25,7060258503132
35.4740674 ,Left ,61,8411142132307 ,46,4040298758652 ,25,732462684083
35.4892216 ,Left ,61,7814087629417 ,46,451594227182 ,25,7689417391546
35.5118264 ,Left ,61,7220144016911 ,46,4864137369681 ,25,8073316793872
35.5345166 ,Left ,61,6781423469194 ,46,5173917006587 ,25,8390362171587
35.5496498 ,Left ,61,7007400705376 ,46,524480829709 ,25,8655359914283
35.5720121 ,Left ,61,7159151718528 ,46,5320707329682 ,25,889755142093
35.601906 ,Left ,61,7208399812207 ,46,5693327430264 ,25,9106525918193
35.617025 ,Left ,61,7106531124666 ,46,5927319107614 ,25,8597172866994
35.6393754 ,Left ,61,7556443475647 ,46,5658536545539 ,25,7511434566789
35.6543153 ,Left ,61,8224923506468 ,46,5184535173564 ,25,614250649481
35.669241 ,Left ,61,8746731780611 ,46,4610610069327 ,25,4840012774646
35.691686 ,Left ,61,9192295139026 ,46,3768236167798 ,25,3685675982673
35.7142557 ,Left ,61,9431171979847 ,46,2705638066507 ,25,2832601378483
35.7292519 ,Left ,61,9542557010556 ,46,2174262148345 ,25,2290904784353
35.751705 ,Left ,61,9812022043052 ,46,1986846108119 ,25,1989590131384
35.7742476 ,Left ,62,0698295046147 ,46,1676722612443 ,25,2022246186411
35.7892753 ,Left ,62,1882585498147 ,46,1457462800524 ,25,2178585044453
35.8117056 ,Left ,62,2250709542818 ,46,1689991344859 ,25,188568685188
35.8339726 ,Left ,62,212999851009 ,46,2173626479373 ,25,1336005938862
35.8564863 ,Left ,62,2476318734383 ,46,2765734031995 ,25,0945243261865
35.879293 ,Left ,62,279903836695 ,46,3666740844862 ,25,0779169030624
35.9011786 ,Left ,62,3201255257594 ,46,4326207115317 ,25,0937847244754
35.9163376 ,Left ,62,3581610707513 ,46,3925159351513 ,25,1432232295206
35.9312973 ,Left ,62,3449156183026 ,46,3549728303941 ,25,221946875063
35.9539628 ,Left ,62,333338029503 ,46,3640079670942 ,25,2438791552892
35.9691625 ,Left ,62,3013303940039 ,46,4309150622442 ,25,2101945724108
35.9913403 ,Left ,62,2963721206849 ,46,513955903207 ,25,1857504909982
36.0140001 ,Left ,62,319727539347 ,46,5929437874552 ,25,2047876197825
36.0291076 ,Left ,62,3281161949113 ,46,6787470572798 ,25,2652202305148
36.0512667 ,Left ,62,316551758183 ,46,7352816826353 ,25,3325612903213
36.0739815 ,Left ,62,240619919197 ,46,7557277097063 ,25,4016986856841
36.0893008 ,Left ,62,1895081440251 ,46,763329640925 ,25,494269386409
36.1116335 ,Left ,62,2059383001205 ,46,711787288897 ,25,5579870637017
36.1340056 ,Left ,62,2262447689872 ,46,6925538318827 ,25,5840508666739
36.1488272 ,Left ,62,146478380498 ,46,792933776738 ,25,5657811859154
36.1715457 ,Left ,62,1387242246764 ,46,8983080598016 ,25,5268720302354
36.1940321 ,Left ,62,199584307586 ,46,928230939616 ,25,4732756313368
36.2164582 ,Left ,62,2796728265054 ,46,91699325463 ,25,3988804596708
36.2314954 ,Left ,62,2666800560889 ,46,8518752618146 ,25,3165600719914
36.2539007 ,Left ,62,2381838151195 ,46,7926356829075 ,25,2479809225727
36.2764455 ,Left ,62,2189895770028 ,46,7366286345743 ,25,1901886559816
36.2912887 ,Left ,62,2246424204647 ,46,7106358108 ,25,143476935299
36.3140401 ,Left ,62,2426556645621 ,46,6733175333438 ,25,1246798275432
36.3368446 ,Left ,62,2465537731642 ,46,6186586002192 ,25,1393531115393
36.3591173 ,Left ,62,2402816728909 ,46,6022635714933 ,25,1913258254469
36.3817266 ,Left ,62,1838822711005 ,46,6207301331696 ,25,2529675073182
36.4117473 ,Left ,62,1119348698908 ,46,6429318147085 ,25,3346236587901
36.4415619 ,Left ,62,0227307644735 ,46,629943184023 ,25,3995400681347
36.4637575 ,Left ,61,9688543864014 ,46,6693649933344 ,25,4803201405495
36.4787481 ,Left ,62,024382778925 ,46,7560887893443 ,25,5124521727507
36.4939879 ,Left ,62,137242761774 ,46,8101784366568 ,25,4715710518537
36.5163441 ,Left ,62,1927702412682 ,46,7911160280925 ,25,376381856022
36.5314985 ,Left ,62,1706561128131 ,46,687532278415 ,25,2436655432828
36.5544571 ,Left ,62,1170179382624 ,46,5448736152581 ,25,123565782589
36.5769171 ,Left ,62,0816858223776 ,46,3981350965827 ,25,040629347441
36.5990604 ,Left ,62,0398080049428 ,46,2758739348085 ,24,9867714270956
36.6140201 ,Left ,62,0265503077501 ,46,2042067574498 ,24,9634536191813
36.6366094 ,Left ,62,0485895162962 ,46,2114192982428 ,24,9503810058505
36.651321 ,Left ,62,1032700134493 ,46,1842987696593 ,24,9524683087379
36.6739917 ,Left ,62,1115184866935 ,46,1724516615927 ,24,9881414022764
36.7038703 ,Left ,62,0949876890005 ,46,2381630719096 ,25,0262748240091
36.7190321 ,Left ,62,1376826682299 ,46,3277431745233 ,25,0466416613741
36.7419537 ,Left ,62,1902618375245 ,46,3748480704899 ,25,063932271148
36.7638144 ,Left ,62,1245626123375 ,46,4052060703971 ,25,0545548187314
36.7940947 ,Left ,62,0436160524475 ,46,3898958479667 ,25,0489926301671
36.8163752 ,Left ,62,0057733964755 ,46,3723111811953 ,25,0508620101683
36.8464789 ,Left ,62,0047607112933 ,46,3206242340627 ,25,1419303928261
36.8689728 ,Left ,62,0064428341634 ,46,2738697185878 ,25,1979200964181
36.8839583 ,Left ,61,9839606644082 ,46,2174736764508 ,25,2430622889729
36.9140614 ,Left ,61,9776668214042 ,46,1747076643461 ,25,2730841567303
36.9365213 ,Left ,61,9981528443175 ,46,1436551435736 ,25,2875332915887
36.9516417 ,Left ,62,0172000941801 ,46,119678675441 ,25,2972064814517
36.9664585 ,Left ,62,0163392972409 ,46,0823956017816 ,25,3046519321532
36.988895 ,Left ,62,0076272593657 ,46,0417868855703 ,25,3172353470508
37.0043796 ,Left ,62,0022840809406 ,46,0200077239591 ,25,3315840700827
37.0267387 ,Left ,61,9930510174449 ,46,0205290882614 ,25,3444070688019
37.0490976 ,Left ,61,9825309865882 ,46,0313678280416 ,25,3551715337527
37.0642924 ,Left ,61,9903984671902 ,46,0350365668417 ,25,3611914434126
37.0866615 ,Left ,61,9848317529089 ,46,0430713605057 ,25,3679118713952
37.1091246 ,Left ,61,9729187741673 ,46,058947179639 ,25,3652140874823
37.1240893 ,Left ,61,9554998311379 ,46,0929002314776 ,25,3620449286119
37.1466982 ,Left ,61,9268573848157 ,46,1395546332959 ,25,3620661617503
37.1692727 ,Left ,61,8970791781186 ,46,1866261367283 ,25,3743744814222
37.1841016 ,Left ,61,8666502371059 ,46,2240076792516 ,25,3961835049381
37.2062383 ,Left ,61,8165885573951 ,46,2609368634393 ,25,432018417606
37.2289681 ,Left ,61,7790250151703 ,46,3006332005916 ,25,4772149733614
37.2439242 ,Left ,61,7308212666562 ,46,3403137865762 ,25,5273453463084
37.2664039 ,Left ,61,6921828155755 ,46,3845331816336 ,25,5720830699181
37.3043107 ,Left ,61,7091089175672 ,46,3945649614168 ,25,647033236222
37.3265674 ,Left ,61,7224016199616 ,46,3836018772212 ,25,6773545634266
37.3642854 ,Left ,61,6891403028916 ,46,4270263567692 ,25,6466206913445
37.3866154 ,Left ,61,7463303870582 ,46,423840745462 ,25,5714493108139
37.408996 ,Left ,61,8473670411867 ,46,3641640413019 ,25,4618375239354
37.4243451 ,Left ,61,9010917807146 ,46,2844640404932 ,25,3358544967865
37.4464684 ,Left ,61,913307285973 ,46,2067496512498 ,25,201408058157
37.4691405 ,Left ,61,9429856997023 ,46,1470888711533 ,25,087333812873
37.4840854 ,Left ,61,9833996718122 ,46,1051213345783 ,25,0155014032469
37.5063584 ,Left ,62,0769059922259 ,46,0534449266363 ,24,9659526799236
37.5290925 ,Left ,62,1326505049775 ,45,9788020627242 ,24,9578939082124
37.5664131 ,Left ,62,1472936234779 ,45,9351790628165 ,24,9539387923614
37.5890008 ,Left ,62,1931073729981 ,45,9778248836481 ,24,9525885142842
37.6268423 ,Left ,62,2827383541183 ,46,1024497653678 ,24,9843870669138
37.6644472 ,Left ,62,2590083895141 ,46,2498273447499 ,24,9591192026189
37.686945 ,Left ,62,2246420526421 ,46,3321247009603 ,24,9372329507645
37.7240213 ,Left ,62,2434987125797 ,46,4347191478581 ,24,8988128026174
37.7463544 ,Left ,62,2202515962647 ,46,4103598228066 ,24,9150338528795
37.7840242 ,Left ,62,1572824017085 ,46,2775006934135 ,25,0154585738037
37.806675 ,Left ,62,1405021300135 ,46,2426654760658 ,25,0686208783395
37.8439146 ,Left ,62,179709371142 ,46,2600933529386 ,25,0577842698306
37.8662246 ,Left ,62,1642886873515 ,46,3344551796215 ,25,0196680896303
37.9114013 ,Left ,62,2418216565003 ,46,4204525741815 ,25,0236758179602
37.9341168 ,Left ,62,2417846227644 ,46,466022217164 ,25,0751847271212
37.9641447 ,Left ,62,2357236554328 ,46,5345056722294 ,25,2280866723851
37.9868511 ,Left ,62,2215992512857 ,46,5345410134013 ,25,2918011059182
38.0241373 ,Left ,62,1994469249697 ,46,5811966888211 ,25,4186137954319
38.0463598 ,Left ,62,1089880534372 ,46,6100734366552 ,25,4785265927468
38.0838597 ,Left ,62,0209896061902 ,46,6260294606501 ,25,5364134317698
38.1062836 ,Left ,61,9986673876455 ,46,7201066358711 ,25,5100174608642
38.1440944 ,Left ,62,10459904279 ,46,8628357095197 ,25,4384593772692
38.1664593 ,Left ,62,1444800381203 ,46,8949042325366 ,25,4011839835991
38.2043508 ,Left ,62,0945313995296 ,46,905985694545 ,25,3453620970728
38.2265453 ,Left ,62,1040993320936 ,46,9093126766884 ,25,2883773865161
38.2566941 ,Left ,62,1162335612723 ,46,8080566410924 ,25,1800793137357
