timestamp,event,roll,pitch,yaw
0.0209786 ,Left ,45.4039355302375 ,51.8596915481301 ,23.7047292204914
0.0359742 ,Left ,45.499098444377 ,51.8379361527228 ,23.7177389176614
0.0584548 ,Left ,45.5742949023415 ,51.8239380247572 ,23.7304513568041
0.0815114 ,Left ,45.6266707646386 ,51.8216177539383 ,23.7216066695157
0.095964 ,Left ,45.7227881951276 ,51.8161947096324 ,23.699170879723
0.1186526 ,Left ,45.8577550960019 ,51.7985496443118 ,23.6892672905002
0.1409475 ,Left ,45.9695185625012 ,51.7735882507247 ,23.6812778071213
0.1635294 ,Left ,46.0622539151416 ,51.7568563026977 ,23.6647921182339
0.1784209 ,Left ,46.154750043559 ,51.7270960286176 ,23.6327879305807
0.2009996 ,Left ,46.2472676991682 ,51.665307270533 ,23.5972725947208
0.2236148 ,Left ,46.3261705378865 ,51.5744345815004 ,23.563556006897
0.2384436 ,Left ,46.3976522432551 ,51.4801528006462 ,23.5135865419039
0.2609401 ,Left ,46.4526290085931 ,51.3944086228719 ,23.4700625889054
0.2833882 ,Left ,46.4992517649779 ,51.3171023184747 ,23.4640802530978
0.2983962 ,Left ,46.5497403683796 ,51.251742230994 ,23.4936723399824
0.3210823 ,Left ,46.6195741693287 ,51.2134548819056 ,23.5245588478168
0.3433548 ,Left ,46.7038827895053 ,51.1837270027886 ,23.5217142173902
0.3583694 ,Left ,46.8126860161399 ,51.1411593690543 ,23.4918399348176
0.3809191 ,Left ,46.9382684384103 ,51.0907618790518 ,23.4559411468952
0.4036697 ,Left ,47.0508229864098 ,51.0451099504348 ,23.445516123648
0.4186803 ,Left ,47.1581354081809 ,51.009692673427 ,23.4583922608641
0.4411181 ,Left ,47.2719346387545 ,50.9939461237971 ,23.4892353604119
0.4636787 ,Left ,47.4183304858308 ,50.9941269546412 ,23.5302868548508
0.4784631 ,Left ,47.5958764716813 ,51.0173962835653 ,23.5889507489704
0.5011881 ,Left ,47.7917611959098 ,51.0488101687671 ,23.6676482837543
0.5235304 ,Left ,47.9726324961537 ,51.0982142018367 ,23.7704972291099
0.5383562 ,Left ,48.1412528593138 ,51.1678616410111 ,23.8920204426097
0.5609967 ,Left ,48.3119742517978 ,51.235146897419 ,24.0187046580258
0.5834427 ,Left ,48.4877202579539 ,51.2916679297851 ,24.1486460837355
0.600357 ,Left ,48.6554690674812 ,51.3408592908683 ,24.2718639235337
0.621046 ,Left ,48.8178726360331 ,51.3689988935332 ,24.3814268012975
0.6433701 ,Left ,48.9588567663809 ,51.3990996639648 ,24.4713579936268
0.6586306 ,Left ,49.0704338250273 ,51.4180102943946 ,24.5426213858117
0.681309 ,Left ,49.1412269613422 ,51.4173695583161 ,24.586873308371
0.6961837 ,Left ,49.1572491189376 ,51.4110898236165 ,24.6051509506691
0.7107816 ,Left ,49.1369577003411 ,51.4102883991932 ,24.5815065265503
0.7338117 ,Left ,49.1197625922009 ,51.4162582164545 ,24.5072999816745
0.7561951 ,Left ,49.1168734739367 ,51.4100381631278 ,24.3788952861625
0.7709678 ,Left ,49.1440691975202 ,51.4042767587725 ,24.2464048196469
0.7954949 ,Left ,49.1137463353372 ,51.3974685944148 ,24.1177932910477
0.8167521 ,Left ,49.0240171446924 ,51.3672470508113 ,23.9660181756656
0.8307528 ,Left ,48.9701169433369 ,51.3090061455825 ,23.7839903435146
0.8541765 ,Left ,49.0466320733807 ,51.2675878340604 ,23.6294787892653
0.875765 ,Left ,49.123632571093 ,51.2843057693504 ,23.512788134884
0.8908726 ,Left ,49.1178418425465 ,51.2969001180378 ,23.4219671723649
0.9133194 ,Left ,49.1136225048672 ,51.3190082598092 ,23.3822640966084
0.936109 ,Left ,49.0675193922787 ,51.3790818048722 ,23.3453177761382
0.95109 ,Left ,48.9999477562852 ,51.4508985786289 ,23.2791240250355
0.9734693 ,Left ,48.9622107473445 ,51.571548497507 ,23.184241944894
0.9960182 ,Left ,48.9840897708774 ,51.7274520837349 ,23.098945661981
1.0175795 ,Left ,49.0451542416882 ,51.8996026959803 ,23.0088954224373
1.0340163 ,Left ,49.1223749616259 ,52.0678580126567 ,22.9229531740583
1.0561997 ,Left ,49.1362886699631 ,52.2365323078284 ,22.8328949876876
1.0708666 ,Left ,49.1269903885915 ,52.4094397880505 ,22.7446653245569
1.093396 ,Left ,49.1074542118522 ,52.5860420807234 ,22.6651762337328
1.1158535 ,Left ,49.1475775367182 ,52.7221761467365 ,22.6259689834444
1.1307567 ,Left ,49.2031394342961 ,52.8381282187056 ,22.6206375239305
1.1533309 ,Left ,49.2649806772426 ,52.941745564216 ,22.6712801096206
1.1758795 ,Left ,49.3291905880645 ,53.0291892816181 ,22.7596847722563
1.1909348 ,Left ,49.376817866449 ,53.0920616552612 ,22.8670121288245
1.2134879 ,Left ,49.3999269342507 ,53.1338487000703 ,22.9884044545177
1.2359563 ,Left ,49.4027986352308 ,53.1672409101807 ,23.107780595859
1.2507971 ,Left ,49.4294156527469 ,53.1879825993381 ,23.2050475547313
1.2733326 ,Left ,49.4932526232611 ,53.1825611856058 ,23.2718840298146
1.2958541 ,Left ,49.5624074497028 ,53.1561480407675 ,23.312438038669
1.3107904 ,Left ,49.5861286054029 ,53.1145202888421 ,23.3201931687705
1.333434 ,Left ,49.5864494214855 ,53.0576883461925 ,23.3066231712692
1.3707704 ,Left ,49.5258696248674 ,52.9087382598748 ,23.2359405522417
1.3932859 ,Left ,49.4996559029193 ,52.828142660391 ,23.1841959676877
1.4308011 ,Left ,49.5155240476883 ,52.6856624698548 ,23.0962133215723
1.4534456 ,Left ,49.5214256184957 ,52.63053754639 ,23.0590237215368
1.4908013 ,Left ,49.583007124651 ,52.5497363533426 ,23.0237027695087
1.5133069 ,Left ,49.6091648384066 ,52.523632673102 ,23.0199412995387
1.5507989 ,Left ,49.6813201908891 ,52.483923498535 ,23.0275903647791
1.5733922 ,Left ,49.715034574533 ,52.458412252429 ,23.0505970024234
1.6111868 ,Left ,49.7702692682597 ,52.4191397675102 ,23.1089991638189
1.6335 ,Left ,49.7967403861833 ,52.3959353075608 ,23.14851830089
1.6708319 ,Left ,49.8395025491457 ,52.3461025606443 ,23.2384143118678
1.6936073 ,Left ,49.8579642071551 ,52.33461137918 ,23.2757107549339
1.7310496 ,Left ,49.8855874165698 ,52.3057753500858 ,23.3298992044941
1.753466 ,Left ,49.9044079982827 ,52.2874724315244 ,23.3474642901747
1.791023 ,Left ,49.8607140697185 ,52.2618004866438 ,23.3927890867744
1.8133526 ,Left ,49.8549503536304 ,52.2505495575784 ,23.4194727887764
1.8510349 ,Left ,49.8599341109852 ,52.2232470136039 ,23.47132686629
1.8736283 ,Left ,49.8439251541736 ,52.2099799212518 ,23.4912846857602
1.9184562 ,Left ,49.81607436743 ,52.1963858680511 ,23.4962499841821
1.9707593 ,Left ,49.8592002884327 ,52.1624810123601 ,23.4586974688996
1.9932701 ,Left ,49.8414704110713 ,52.1437320645258 ,23.4473748192312
2.0313211 ,Left ,49.8301619882542 ,52.1003686854427 ,23.4325047594675
2.0533885 ,Left ,49.8440783251358 ,52.0844538442954 ,23.4230764049173
2.0911143 ,Left ,49.8857290862389 ,52.0299900998511 ,23.4068871308866
2.1134104 ,Left ,49.8827654287532 ,51.998120609969 ,23.4002983202592
2.1511968 ,Left ,49.859443311618 ,51.9624987448669 ,23.3723740868678
2.1733482 ,Left ,49.8890676646162 ,51.9433602764738 ,23.3670367019292
2.2108016 ,Left ,49.8966747064901 ,51.9050999036343 ,23.3701018372238
2.2336865 ,Left ,49.8242056067183 ,51.9124639496996 ,23.362075512816
2.2710696 ,Left ,49.729353383103 ,51.9651694243987 ,23.2992679473835
2.2934087 ,Left ,49.756033285449 ,51.9582572688128 ,23.2784521070563
2.3308229 ,Left ,49.7950195801794 ,51.9064058046613 ,23.2150428815016
2.3536071 ,Left ,49.7648778635802 ,51.8921720101622 ,23.1818979555133
2.3910151 ,Left ,49.7172350865551 ,51.8851553964667 ,23.1383288278331
2.4133672 ,Left ,49.7117791669262 ,51.8971880955279 ,23.1282488494346
2.4507997 ,Left ,49.6441656186826 ,51.8877821051856 ,23.1416338982554
2.4736114 ,Left ,49.6689407639045 ,51.8546677883785 ,23.13128828738
2.5109315 ,Left ,49.7530718143335 ,51.8356334327747 ,23.0181453339216
2.5343711 ,Left ,49.7339025450213 ,51.8604498203382 ,22.9767756087629
2.548476 ,Left ,49.6565510553517 ,51.9203564862904 ,22.9697033610367
2.5635826 ,Left ,49.6509251188444 ,51.9545637450403 ,22.9812707474721
2.5859549 ,Left ,49.6937176833743 ,51.9725116603369 ,23.000571996499
2.6086021 ,Left ,49.6981061190856 ,51.975691136461 ,23.0300027220383
2.6235369 ,Left ,49.6427583975916 ,51.9670589240277 ,23.0619454568464
2.6459875 ,Left ,49.6026506298524 ,51.9497274236011 ,23.0868203480242
2.6685508 ,Left ,49.5793654207501 ,51.9401377547315 ,23.1032579643381
2.6834715 ,Left ,49.5661639395036 ,51.9255806539513 ,23.0977111781426
2.705921 ,Left ,49.5681479520366 ,51.9132255074279 ,23.095855424286
2.7286094 ,Left ,49.5880386110441 ,51.9061904626768 ,23.097997996266
2.7433765 ,Left ,49.6027537600944 ,51.893313456904 ,23.1001630311419
2.7659078 ,Left ,49.5890917908049 ,51.8785161292123 ,23.0884272919984
2.7886737 ,Left ,49.602477359588 ,51.8475668119153 ,23.0715547750806
2.8034616 ,Left ,49.6365272254994 ,51.8135438389215 ,23.0529743920643
2.8259803 ,Left ,49.6623897870005 ,51.7819312157326 ,23.0366287062696
2.8484996 ,Left ,49.6651776305632 ,51.7681396170793 ,23.0229709504486
2.8636154 ,Left ,49.6651776305632 ,51.7681396170793 ,23.0229709504486
2.8861284 ,Left ,49.6693166905843 ,51.7781130482644 ,23.0342454433754
2.9085345 ,Left ,49.680490486821 ,51.7899873168661 ,23.0489494053212
2.9236366 ,Left ,49.7022999489129 ,51.8051704745021 ,23.0610414672086
2.9460423 ,Left ,49.7151352190999 ,51.8129723746324 ,23.0761090092288
2.9685726 ,Left ,49.7167993664902 ,51.8227042980556 ,23.092863363275
2.9837281 ,Left ,49.7238104464283 ,51.832906030895 ,23.1044666911058
3.006066 ,Left ,49.7308305221974 ,51.8431039838172 ,23.1160650522216
3.0286476 ,Left ,49.7248142871167 ,51.8592017956058 ,23.1258800397092
3.0434723 ,Left ,49.7129485090351 ,51.8751140485385 ,23.1269195490924
3.0660982 ,Left ,49.7054708781334 ,51.8843618769098 ,23.1257835692231
3.0885112 ,Left ,49.6953256493218 ,51.8933748406951 ,23.1272052250292
3.1036042 ,Left ,49.68664292717 ,51.9010900773259 ,23.1288069069279
3.1260648 ,Left ,49.6846784690578 ,51.9106610008131 ,23.1280068086743
3.1486826 ,Left ,49.6846784690578 ,51.9106610008131 ,23.1280068086743
3.1634332 ,Left ,49.6764065428752 ,51.9185066062585 ,23.1355988916498
3.1860621 ,Left ,49.6652159903462 ,51.9317328610239 ,23.1454991717893
3.2085804 ,Left ,49.6606754417562 ,51.9467231386737 ,23.1528246889191
3.2236788 ,Left ,49.6640743179377 ,51.9621519943452 ,23.1548701402744
3.2461267 ,Left ,49.667487366772 ,51.97463106329 ,23.1567847306414
3.2684578 ,Left ,49.6694193181229 ,51.9885837237377 ,23.155917727367
3.2834392 ,Left ,49.6681722093182 ,52.0050232191496 ,23.1515570842549
3.3060754 ,Left ,49.6685601322908 ,52.0201817016452 ,23.1503061650796
3.3284813 ,Left ,49.6722845793849 ,52.027318765773 ,23.1500571773666
3.3436076 ,Left ,49.6747247137989 ,52.0357747006616 ,23.1525208089432
3.3659977 ,Left ,49.680024956459 ,52.0443082130184 ,23.1579248965491
3.3888334 ,Left ,49.6937562960954 ,52.0507333068072 ,23.1615436639992
3.4108849 ,Left ,49.7076705455004 ,52.0542153802445 ,23.1679557113254
3.4260997 ,Left ,49.7173322449599 ,52.0562437356779 ,23.1686868197552
3.4485306 ,Left ,49.7173322449599 ,52.0562437356779 ,23.1686868197552
3.470929 ,Left ,49.7160339389813 ,52.0547849139023 ,23.1686979671157
3.4860269 ,Left ,49.7160339389813 ,52.0547849139023 ,23.1686979671157
3.5083956 ,Left ,49.7160339389813 ,52.0547849139023 ,23.1686979671157
3.530973 ,Left ,49.7160339389813 ,52.0547849139023 ,23.1686979671157
3.5459131 ,Left ,49.7157064020943 ,52.0603055697064 ,23.1682703302007
3.5683923 ,Left ,49.7192080126736 ,52.0728803186881 ,23.1703422849526
3.5908918 ,Left ,49.718997199183 ,52.081092181463 ,23.1753623738082
3.6073155 ,Left ,49.7175738811316 ,52.0879437001778 ,23.1805581529875
3.6285715 ,Left ,49.7191607179761 ,52.0922897154262 ,23.1863283224956
3.6510531 ,Left ,49.7221262247345 ,52.09523411478 ,23.1921367751886
3.6662943 ,Left ,49.7221262247345 ,52.09523411478 ,23.1921367751886
3.6884559 ,Left ,49.7221262247345 ,52.09523411478 ,23.1921367751886
3.7109958 ,Left ,49.7234259217905 ,52.0966923464087 ,23.1921256034336
3.7261381 ,Left ,49.7234259217905 ,52.0966923464087 ,23.1921256034336
3.7484471 ,Left ,49.7219644583736 ,52.0979952125768 ,23.1919200036946
3.7708656 ,Left ,49.7219644583736 ,52.0979952125768 ,23.1919200036946
3.7859213 ,Left ,49.7108140610071 ,52.0944988454813 ,23.1882769800006
3.8084372 ,Left ,49.7021643532101 ,52.0940007739574 ,23.1818589184623
3.8384721 ,Left ,49.7021643532101 ,52.0940007739574 ,23.1818589184623
3.8536356 ,Left ,49.6850596590728 ,52.1303513305601 ,23.1834544443023
3.875815 ,Left ,49.5792158919633 ,52.1840900651695 ,23.2343211484875
3.8911069 ,Left ,49.4371353478391 ,52.2485341189407 ,23.2655717934203
3.9210855 ,Left ,49.336309235228 ,52.2931615178037 ,23.278174148356
3.9361302 ,Left ,49.3175997923493 ,52.3111977829644 ,23.2628527611044
3.9735796 ,Left ,49.3988844453831 ,52.2945810495671 ,23.2488734690678
3.9886509 ,Left ,49.3588130908981 ,52.2871725348308 ,23.260533575777
4.0109298 ,Left ,49.3010865747813 ,52.2718193455975 ,23.2710854073122
4.0258865 ,Left ,49.2896491764289 ,52.2644055306018 ,23.2793901086673
4.0485662 ,Left ,49.3095627793367 ,52.2712725885599 ,23.2923421196407
4.0770034 ,Left ,49.3146416797921 ,52.2871346733806 ,23.3173760393794
4.0859319 ,Left ,49.3034909639162 ,52.31167463155 ,23.3341197893419
4.1085597 ,Left ,49.2968867278086 ,52.3240205734917 ,23.3467806542896
4.1311433 ,Left ,49.3334380584064 ,52.3119566191436 ,23.3484617507153
4.1460695 ,Left ,49.3727897991935 ,52.3014315344578 ,23.3302679532264
4.1686363 ,Left ,49.3914821267554 ,52.2854911874857 ,23.310291572375
4.1911176 ,Left ,49.3935181929404 ,52.268589157552 ,23.2886929818804
4.2059753 ,Left ,49.4020964142713 ,52.2479921473712 ,23.256719355128
4.2286339 ,Left ,49.4216298727074 ,52.2222951558245 ,23.2201426092262
4.2509611 ,Left ,49.4149443409175 ,52.190886879483 ,23.1786077879045
4.2661362 ,Left ,49.3682307580012 ,52.1810768888661 ,23.1521441888228
4.2885659 ,Left ,49.3036491739652 ,52.1703690896599 ,23.1471721086488
4.3109133 ,Left ,49.2203791948127 ,52.1410072377307 ,23.1540610652611
4.3335451 ,Left ,49.1548530852235 ,52.1411753612216 ,23.1447358655877
4.348625 ,Left ,49.1766373380864 ,52.1329299347045 ,23.1535056985896
4.3709321 ,Left ,49.2246754844737 ,52.1332855426452 ,23.1698388294566
4.3936078 ,Left ,49.2627267047141 ,52.1482221656365 ,23.1951504858954
4.4084271 ,Left ,49.2738671976228 ,52.1668069052324 ,23.1915854172299
4.4311099 ,Left ,49.225449927467 ,52.2206938159582 ,23.1960007661635
4.4535937 ,Left ,49.1402362075706 ,52.3090172968839 ,23.2134160591667
4.4684564 ,Left ,49.0733986822341 ,52.3773197477514 ,23.2221063725788
4.4913115 ,Left ,49.021053713417 ,52.4138854098265 ,23.1976380796967
4.5135966 ,Left ,48.9360677056202 ,52.4241802467142 ,23.1429933324707
4.5284562 ,Left ,48.9907932097581 ,52.4196764824479 ,23.1147142879782
4.5510867 ,Left ,49.0605406856216 ,52.372240272599 ,23.1043238357899
4.5734196 ,Left ,48.9827666891632 ,52.3449287041779 ,23.0755968954896
4.5960567 ,Left ,48.8862909034862 ,52.3757847276844 ,23.0494184341549
4.6185408 ,Left ,48.930644427512 ,52.3831938246608 ,23.0213992991366
4.6483986 ,Left ,49.1338363787501 ,52.3154205842063 ,22.9658620222022
4.67091 ,Left ,49.1434671440236 ,52.268484457141 ,22.9424179443067
4.6933147 ,Left ,49.1038586108627 ,52.2373968600487 ,22.9004703282779
4.7084413 ,Left ,49.0720237793559 ,52.2272915105689 ,22.8511324062477
4.7308796 ,Left ,49.0754532352246 ,52.234250420072 ,22.7913844815302
4.7536305 ,Left ,49.0735356951711 ,52.2523632079288 ,22.7447806444298
4.7685779 ,Left ,49.0289197693051 ,52.2745167517854 ,22.7049284339989
4.7910561 ,Left ,48.9592501450126 ,52.3070366216666 ,22.6551102841983
4.8135687 ,Left ,48.9065864991157 ,52.3445220771568 ,22.6000794863169
4.8285682 ,Left ,48.853889374206 ,52.3933194130499 ,22.5582073513522
4.8509665 ,Left ,48.8205967718281 ,52.4248088842019 ,22.5355636124958
4.8733807 ,Left ,48.8481113624224 ,52.4182515667612 ,22.5275669018213
4.8883814 ,Left ,48.8786461623237 ,52.3911734711186 ,22.5193899811275
4.9109875 ,Left ,48.8451215447974 ,52.4028171092597 ,22.5262254292892
4.9410163 ,Left ,48.7871087768734 ,52.4268419047494 ,22.5519625160963
4.9560025 ,Left ,48.7812804533525 ,52.43774982748 ,22.5589135816893
4.9783111 ,Left ,48.8300744520217 ,52.4231588388929 ,22.5488450127563
5.0085906 ,Left ,48.8860024407744 ,52.3272739722903 ,22.5847483134816
5.0308487 ,Left ,48.9153228159825 ,52.2554693112672 ,22.6056165763492
5.0536951 ,Left ,48.985024590517 ,52.171077901044 ,22.6196786264561
5.0695169 ,Left ,49.0455453790105 ,52.0734358274648 ,22.6274900799779
5.0909247 ,Left ,49.0682815230521 ,51.9799484867525 ,22.6334568482897
5.113445 ,Left ,49.0704527470596 ,51.9015601573145 ,22.6385954625624
5.136051 ,Left ,49.0860088249775 ,51.8447039141523 ,22.6423938386524
5.1509885 ,Left ,49.1082274617344 ,51.8049568443952 ,22.6395000209697
5.1736341 ,Left ,49.1186336258182 ,51.796023101401 ,22.6411188376463
5.1886672 ,Left ,49.1167119140211 ,51.8028043304306 ,22.6403930195892
5.2111136 ,Left ,49.1226424228406 ,51.8279375664849 ,22.6326805939541
5.2409847 ,Left ,49.1458143327054 ,51.8487881071987 ,22.6324383603517
5.2635934 ,Left ,49.1472737325503 ,51.8740163403463 ,22.6422038042356
5.2783346 ,Left ,49.1304689529547 ,51.8982328485112 ,22.6681036467041
5.3165089 ,Left ,49.1408944702251 ,51.902740977891 ,22.7074713262345
5.3309094 ,Left ,49.1635531253919 ,51.8950963451183 ,22.7308357378218
5.3683965 ,Left ,49.1588725178858 ,51.8678100930471 ,22.7568565783241
5.3983494 ,Left ,49.1593207374241 ,51.8491838665204 ,22.7881952657272
5.4133973 ,Left ,49.1732262189521 ,51.8285500352647 ,22.811994381937
5.4510959 ,Left ,49.1925715069556 ,51.7884589003271 ,22.8114112749223
5.473517 ,Left ,49.2017551365365 ,51.7931807203688 ,22.808846251705
5.4959322 ,Left ,49.2090146430936 ,51.8075070602098 ,22.8082790119223
5.5108922 ,Left ,49.2157794178832 ,51.8300443941089 ,22.8097260608745
5.5355776 ,Left ,49.2283891221056 ,51.853065830947 ,22.8174640261025
5.5561504 ,Left ,49.2385986331323 ,51.8705555075957 ,22.8229353828495
5.5708736 ,Left ,49.2452028644517 ,51.8835213125678 ,22.8339235886847
5.5935974 ,Left ,49.2575052717297 ,51.8914539236002 ,22.8403453965242
5.6158979 ,Left ,49.2727396135608 ,51.8938917076689 ,22.8443251652789
5.6310542 ,Left ,49.2910971335327 ,51.8938045280247 ,22.8516856225787
5.6535172 ,Left ,49.3012700085123 ,51.8904685761255 ,22.8559091178446
5.6761128 ,Left ,49.2996485629771 ,51.9000616637301 ,22.8635792908311
5.6908905 ,Left ,49.2922102383961 ,51.9121086133379 ,22.8678439516934
5.7135936 ,Left ,49.2934909852225 ,51.9135771441003 ,22.8678292583331
5.7359849 ,Left ,49.3005775270097 ,51.9249359683324 ,22.8614326699602
5.7509001 ,Left ,49.3128180356696 ,51.945090440733 ,22.8578656774827
5.7735722 ,Left ,49.322149225933 ,51.9676504065867 ,22.8563820471235
5.7959734 ,Left ,49.3341887589525 ,51.9905715714302 ,22.8525642672941
5.8110965 ,Left ,49.350307192031 ,52.00278569532 ,22.8587480656333
5.8334693 ,Left ,49.3603971194906 ,52.0049332154191 ,22.8681858948521
5.8560483 ,Left ,49.3702100567585 ,51.9975304198346 ,22.8844278602954
5.8710565 ,Left ,49.3777240125659 ,51.9817351918264 ,22.8984197556756
5.893498 ,Left ,49.3950963889613 ,51.9623129428686 ,22.9132770697282
5.9162527 ,Left ,49.4104888145367 ,51.9497498849141 ,22.9246612626389
5.9309531 ,Left ,49.4175133366076 ,51.9393396033836 ,22.937914668732
5.9534586 ,Left ,49.4201110762095 ,51.9327981963268 ,22.9505032352722
5.9759297 ,Left ,49.4254115306383 ,51.9235285889633 ,22.9603995417621
5.9911442 ,Left ,49.4289615070792 ,51.9155755427609 ,22.964402737293
6.0135682 ,Left ,49.427926001403 ,51.9114577829356 ,22.9648306540442
6.0358968 ,Left ,49.4195715635212 ,51.9136294596908 ,22.9667391426227
6.0510442 ,Left ,49.4252722678186 ,51.9112195002644 ,22.9673708282942
6.0735672 ,Left ,49.4325089712689 ,51.9076215439422 ,22.9684007905047
6.0960941 ,Left ,49.4272825553353 ,51.9044540045431 ,22.9709681121876
6.1109294 ,Left ,49.4150306087297 ,51.9024011938109 ,22.970363195894
6.1335198 ,Left ,49.4100535336469 ,51.8965830788663 ,22.9733435860531
6.156071 ,Left ,49.4063982286575 ,51.886636167901 ,22.9709110903896
6.1709187 ,Left ,49.3930838069841 ,51.8747671703486 ,22.9651477857689
6.1934259 ,Left ,49.3826337806208 ,51.8630073935917 ,22.9623265701828
6.2160892 ,Left ,49.3734948893447 ,51.8499118756571 ,22.9567917335907
6.2385794 ,Left ,49.3571886626257 ,51.8405112100059 ,22.9504143959618
6.2535779 ,Left ,49.3476587829598 ,51.8357216492766 ,22.9471246251923
6.2760219 ,Left ,49.3378840389406 ,51.8335809527759 ,22.943416770026
6.2986012 ,Left ,49.3276012867624 ,51.8398084393536 ,22.9392057030132
6.3133413 ,Left ,49.3272234856968 ,51.845318964731 ,22.9387444365255
6.3444958 ,Left ,49.3285074814605 ,51.8467842574862 ,22.9387307762491
6.3658851 ,Left ,49.3369172175747 ,51.8501594808313 ,22.9449672945691
6.3734515 ,Left ,49.3401658388905 ,51.850474658753 ,22.9539545238064
6.3885531 ,Left ,49.3499217182075 ,51.8554142129088 ,22.9603623228981
6.4334712 ,Left ,49.383107645779 ,51.8659356301509 ,22.9738072047057
6.4860647 ,Left ,49.3922757013692 ,51.8762276470134 ,22.9766413393841
6.5084223 ,Left ,49.4029540062981 ,51.8796316664812 ,22.9742909773855
6.5458454 ,Left ,49.397235079785 ,51.8943027664314 ,22.9637668990721
6.5683863 ,Left ,49.3964276255879 ,51.905223398753 ,22.9626621489507
6.606001 ,Left ,49.3918254292432 ,51.9118543244757 ,22.9617804254899
6.6283669 ,Left ,49.3918254292432 ,51.9118543244757 ,22.9617804254899
6.6660393 ,Left ,49.3945831885106 ,51.9120278714948 ,22.9619843908198
6.6883843 ,Left ,49.3967821355699 ,51.9204713954339 ,22.9614952454831
6.7259861 ,Left ,49.406260990261 ,51.9251493103036 ,22.9646046361129
6.748531 ,Left ,49.416971176612 ,51.9342587161248 ,22.9678430492122
6.7860785 ,Left ,49.4409483478531 ,51.9551253000738 ,22.9766618816699
6.808466 ,Left ,49.4532461381755 ,51.9628684378741 ,22.982858769505
6.8459325 ,Left ,49.4513786246975 ,51.9780597524901 ,22.9902701556579
6.8685111 ,Left ,49.4513786246975 ,51.9780597524901 ,22.9902701556579
6.9060571 ,Left ,49.4499075848166 ,51.9793530036379 ,22.9900517602276
6.9285661 ,Left ,49.4499075848166 ,51.9793530036379 ,22.9900517602276
6.9681486 ,Left ,49.4309540096168 ,51.975434093899 ,22.9917709465533
6.9885861 ,Left ,49.4273421495278 ,51.9683894648958 ,22.9922284090299
7.0258516 ,Left ,49.4326824386524 ,51.9479258717441 ,22.9913467915139
7.0483108 ,Left ,49.4303030530632 ,51.9394442551895 ,22.9889068650845
7.0860436 ,Left ,49.4439350343515 ,51.937469265224 ,22.9842959966093
7.1083662 ,Left ,49.4568312278808 ,51.9465278016367 ,22.9787657589007
7.1458232 ,Left ,49.4554339639966 ,51.9769015497987 ,22.9877654281449
7.1684761 ,Left ,49.4539172222916 ,51.9949616070007 ,23.0037175874425
7.2061119 ,Left ,49.4866387821415 ,52.0220659271677 ,23.0245813002294
7.2283903 ,Left ,49.4918304967848 ,52.0267956237894 ,23.0451962834593
7.2658244 ,Left ,49.4512305435709 ,52.0478339859284 ,23.0573579101838
7.2886567 ,Left ,49.4376393989222 ,52.0538359716148 ,23.0441116677653
7.326055 ,Left ,49.4781588043313 ,51.9979594966327 ,23.0199792647869
7.348453 ,Left ,49.4676186626421 ,51.9628274537552 ,23.0135210731414
7.3867417 ,Left ,49.3843142126846 ,51.9188879992927 ,23.0045690531762
7.4085571 ,Left ,49.3755296606696 ,51.8974878580605 ,22.9968128690564
7.4459253 ,Left ,49.2776586492961 ,51.9350501464584 ,23.0353799233692
7.4682862 ,Left ,49.1762078021436 ,51.9929165619388 ,23.0590493658721
7.5060248 ,Left ,49.2012567668125 ,52.0940276869914 ,23.0748481843482
7.5286046 ,Left ,49.2667409717775 ,52.1135694601322 ,23.1024313233277
7.5660278 ,Left ,49.2331777857254 ,52.1207219355705 ,23.1425417780637
7.5884599 ,Left ,49.1919738132212 ,52.1297090513905 ,23.1524872171584
7.6261491 ,Left ,49.1614945803794 ,52.1588632991035 ,23.1758092641574
7.6483754 ,Left ,49.1407252700949 ,52.1759176115642 ,23.1894786044819
7.6862585 ,Left ,49.0816372359893 ,52.2266765940061 ,23.1957675141952
7.71612 ,Left ,49.0450484211546 ,52.2478565650597 ,23.1838998467074
7.753425 ,Left ,49.0295741951572 ,52.3044028874694 ,23.114436012737
7.7685769 ,Left ,48.9843487063168 ,52.3257999586001 ,23.0808479037241
7.8097029 ,Left ,49.0754859911152 ,52.2334764282356 ,23.039248009087
7.8282607 ,Left ,49.1032926903584 ,52.1628307258105 ,23.0173049543593
7.866072 ,Left ,49.0800271727221 ,52.0884761937457 ,22.9698336433726
7.8886821 ,Left ,49.0658144696425 ,52.1016254177963 ,22.9760046058899
7.9268084 ,Left ,49.0222521086779 ,52.1631014492647 ,23.0032192804929
7.9483575 ,Left ,49.0445634810386 ,52.170176148169 ,23.0134562530022
7.9860108 ,Left ,49.096030307789 ,52.1607703997238 ,23.0107899725911
8.0083478 ,Left ,49.1174377643034 ,52.1627988901141 ,22.9833015404492
8.0460907 ,Left ,49.0905462621356 ,52.2356393793052 ,22.9256316835884
8.0684969 ,Left ,49.0862325941944 ,52.2829937157985 ,22.8907185727154
8.1061037 ,Left ,49.0780672584962 ,52.3373109370356 ,22.8129843990972
8.1285731 ,Left ,49.0407516665427 ,52.3738693713963 ,22.7750372822656
8.1660021 ,Left ,49.0148156750196 ,52.4368763449704 ,22.7142936360329
8.1885895 ,Left ,49.0130554820739 ,52.4730621446957 ,22.674091956617
8.2033866 ,Left ,49.0368739923893 ,52.494404015473 ,22.6295657659261
8.2194406 ,Left ,49.0331832802352 ,52.5110269456015 ,22.5825018515
8.2411631 ,Left ,49.02070828188 ,52.5408303795412 ,22.5442970239798
8.263549 ,Left ,48.986743000324 ,52.61478812275 ,22.5070383076177
8.2785589 ,Left ,48.9431758541598 ,52.7160274453275 ,22.4825729044145
8.3011136 ,Left ,48.9206404500885 ,52.8137576935754 ,22.4754567224913
8.3236138 ,Left ,48.9127298600535 ,52.8818380612455 ,22.4501968041608
8.3385836 ,Left ,48.8924125319705 ,52.9170345109769 ,22.4275252977709
8.3609577 ,Left ,48.8649352188753 ,52.9081529277386 ,22.4370147335479
8.3833767 ,Left ,48.8294913043204 ,52.8675496584952 ,22.4652327624461
8.3985354 ,Left ,48.841042249644 ,52.8154977159366 ,22.4982318627595
8.4214687 ,Left ,48.9542292607703 ,52.7225762633399 ,22.534287393861
8.4435975 ,Left ,49.0472554361817 ,52.6022294318697 ,22.5397965375517
8.4736039 ,Left ,49.0293193730695 ,52.5000128392132 ,22.5415099263328
8.4885897 ,Left ,48.9670286053068 ,52.4406658488667 ,22.5683904716043
8.5108686 ,Left ,48.9491111712711 ,52.4019426010906 ,22.6186756190296
8.5260572 ,Left ,48.9866679522786 ,52.3551999051153 ,22.6285273937137
8.5409867 ,Left ,49.0410354111033 ,52.3201343379872 ,22.6176295962715
8.563412 ,Left ,49.0680458727776 ,52.2851820706241 ,22.6277424986046
8.5784165 ,Left ,49.0360138466258 ,52.2594244120145 ,22.6359230667657
8.6009318 ,Left ,49.0000789929412 ,52.233194999751 ,22.6263237151955
8.6235433 ,Left ,49.0030097629056 ,52.2126643468536 ,22.6259529150475
8.6385505 ,Left ,49.017828348077 ,52.1875610852777 ,22.633081431252
8.6610815 ,Left ,49.0528726958656 ,52.1503178124345 ,22.6380902990881
8.683586 ,Left ,49.054481789075 ,52.1187693035703 ,22.6473692587817
8.698544 ,Left ,49.0458339618181 ,52.0850064160299 ,22.6443075113907
8.7209925 ,Left ,49.0846951090222 ,52.0472514516439 ,22.6252080259255
8.7433765 ,Left ,49.1258505051247 ,52.0086548577426 ,22.6182003099242
8.758437 ,Left ,49.1311772711445 ,51.9995582090009 ,22.625603606297
8.78098 ,Left ,49.116611275835 ,52.0000839861376 ,22.6360195221461
8.8033804 ,Left ,49.1260753383922 ,52.0077993818244 ,22.6420659969599
8.8184922 ,Left ,49.1606470710644 ,52.0146692920115 ,22.6506592781417
8.8408555 ,Left ,49.1902827797021 ,52.0184861381872 ,22.6649404623307
8.863518 ,Left ,49.1969408309222 ,52.0193414480921 ,22.6833132559377
8.8785371 ,Left ,49.1998420128707 ,52.015881633085 ,22.7019389341492
8.9013601 ,Left ,49.2035206186341 ,52.0012757478042 ,22.7213732938748
8.9233377 ,Left ,49.2086968873523 ,51.9825741189278 ,22.738336095097
8.938561 ,Left ,49.2157764370408 ,51.9600038825763 ,22.7589135919191
8.9610578 ,Left ,49.2281343758793 ,51.9405611436965 ,22.7796346082462
8.9833599 ,Left ,49.2248211519921 ,51.9241561860773 ,22.7958075695692
8.9983562 ,Left ,49.2111378228836 ,51.911012391766 ,22.8047531381426
9.0210534 ,Left ,49.2119719321437 ,51.9029166627254 ,22.8086381386035
9.0438231 ,Left ,49.2164451394169 ,51.8962508344095 ,22.8066410563194
9.0659689 ,Left ,49.2245484408494 ,51.8967532619165 ,22.8043478650101
9.0808762 ,Left ,49.2261636662433 ,51.8983353178677 ,22.8102102857241
9.1035773 ,Left ,49.2301987067014 ,51.8999916779129 ,22.8104097966744
9.1262089 ,Left ,49.2406877241164 ,51.903381613585 ,22.8051445293065
9.1409637 ,Left ,49.2489927779155 ,51.901131639209 ,22.8030910241826
9.1634461 ,Left ,49.2585752151829 ,51.9003541475194 ,22.8010184736669
9.1860896 ,Left ,49.2709145927999 ,51.899765358842 ,22.7991538358805
9.200874 ,Left ,49.2830849516382 ,51.8991280846292 ,22.7943433190409
9.2234691 ,Left ,49.2816051757349 ,51.9004119516602 ,22.7941176270492
9.2460103 ,Left ,49.2781808429347 ,51.9083800877917 ,22.7929785922743
9.2620905 ,Left ,49.2746119462755 ,51.9192140894234 ,22.7917954983989
9.283392 ,Left ,49.2741740181596 ,51.9275321702425 ,22.794004855012
9.3059793 ,Left ,49.266586375429 ,51.9271777487343 ,22.8051247482258
9.3209667 ,Left ,49.2662536085893 ,51.9232709333862 ,22.8173437751578
9.3434711 ,Left ,49.253919710528 ,51.920073275099 ,22.8372826116901
9.3658132 ,Left ,49.2317750855348 ,51.9232574354492 ,22.8617003800438
9.3809119 ,Left ,49.2324085060276 ,51.9291013361275 ,22.8788119471418
9.4034533 ,Left ,49.2578431343388 ,51.952679208115 ,22.8700064009942
9.4258695 ,Left ,49.2829033123445 ,52.0061116359001 ,22.9085574422017
9.4411788 ,Left ,49.2900463586067 ,52.0653678647331 ,22.9508320670016
9.4637297 ,Left ,49.2338954128874 ,52.1326834506905 ,22.9829054505729
9.4859386 ,Left ,49.202669773479 ,52.182236327573 ,22.9957249771589
9.5012198 ,Left ,49.204497688335 ,52.1950201347872 ,23.0149246943924
9.5235932 ,Left ,49.2007326085724 ,52.1739669327749 ,22.9994146021604
9.5458557 ,Left ,49.1825110861453 ,52.1280265549486 ,22.9727960102853
9.5610657 ,Left ,49.1535119146398 ,52.0814380671039 ,22.9481258988742
9.5834244 ,Left ,49.1102902793514 ,52.0366936144804 ,22.9163210564277
9.6060307 ,Left ,49.064069788876 ,51.9970389553901 ,22.8862840593275
9.6209017 ,Left ,48.9928431721048 ,51.9583189220348 ,22.8536260688881
9.6436073 ,Left ,48.9252960157043 ,51.9360504018184 ,22.8080048287824
9.6659529 ,Left ,48.8911466106409 ,51.9388367741352 ,22.7953085430038
9.6810567 ,Left ,48.894933104031 ,51.9167760776387 ,22.7862395275025
9.7033896 ,Left ,48.9261376157285 ,51.8814719291973 ,22.7811294564782
9.72609 ,Left ,48.9422703309473 ,51.8522369226828 ,22.785480746404
9.7409829 ,Left ,48.9462095227512 ,51.8246534862479 ,22.7711578908971
9.7634108 ,Left ,48.9434930575302 ,51.8251301045416 ,22.7499226341306
9.7858952 ,Left ,48.9564435825848 ,51.8785764315144 ,22.7546464378204
9.8009772 ,Left ,48.9166814131687 ,51.9361003371375 ,22.7806161245071
9.8235747 ,Left ,48.8397041286724 ,51.9866114434606 ,22.7997557400476
9.8459945 ,Left ,48.8456182836573 ,52.023169435245 ,22.8026074087639
9.8608467 ,Left ,48.8714175049684 ,52.0082503676336 ,22.8009635418644
9.8835691 ,Left ,48.8881433162501 ,51.9914346988077 ,22.8071489141126
9.9060131 ,Left ,48.8831328979056 ,51.982102311381 ,22.8255470644165
9.9209684 ,Left ,48.8855379591287 ,51.9821153374524 ,22.8199242260297
9.9435421 ,Left ,48.9044114320639 ,52.0295827909149 ,22.8433007930089
9.9660759 ,Left ,48.8829996335539 ,52.1191454468383 ,22.8843507642172
9.9887788 ,Left ,48.8671306691629 ,52.19768122267 ,22.9120951961112
10.0033849 ,Left ,48.8280043603594 ,52.2593279853743 ,22.9244580234846
10.0260014 ,Left ,48.8209541462577 ,52.3073136839435 ,22.9296241452175
10.0484306 ,Left ,48.8557495963161 ,52.3375255045049 ,22.9418162946355
10.063389 ,Left ,48.8638703864123 ,52.3465000827617 ,22.947565740077
10.0860358 ,Left ,48.8214422535006 ,52.3632432678159 ,22.9494487439768
10.1084068 ,Left ,48.7567562290258 ,52.4056982042217 ,22.9364621055624
10.1233965 ,Left ,48.7489479370527 ,52.4400449140533 ,22.9018511055127
10.1460444 ,Left ,48.7975479679195 ,52.4651888785274 ,22.8573737132957
10.1684278 ,Left ,48.8378540662749 ,52.4568269521324 ,22.8187859729579
10.1835389 ,Left ,48.8351084325553 ,52.4282914130232 ,22.7925847357759
10.2060157 ,Left ,48.8031076779799 ,52.3931720153125 ,22.7575158225291
10.2284837 ,Left ,48.7933737608782 ,52.3653737750615 ,22.7301758848057
10.2435536 ,Left ,48.8165433758305 ,52.3331937218607 ,22.7130070746289
10.26619 ,Left ,48.8585383623267 ,52.3022920393705 ,22.6890332959054
10.2885179 ,Left ,48.8816630903465 ,52.282408444583 ,22.6642208101486
10.3035087 ,Left ,48.868109597017 ,52.2709709389219 ,22.6372943293813
10.3259926 ,Left ,48.8561081872679 ,52.2762131468006 ,22.6114631328998
10.3485207 ,Left ,48.8520500420859 ,52.2941686201953 ,22.5760274925843
10.363392 ,Left ,48.852297031744 ,52.3263354818218 ,22.5394756212826
10.3859338 ,Left ,48.8598861122829 ,52.3548330423937 ,22.506762720551
10.4084003 ,Left ,48.8634775102922 ,52.3789606765856 ,22.47132193894
10.4235976 ,Left ,48.8523255564156 ,52.4035493700429 ,22.4430215535875
10.4458934 ,Left ,48.8347266251765 ,52.4197623762895 ,22.4299073653932
10.4685303 ,Left ,48.8233885977338 ,52.4281133726749 ,22.4183350702142
10.4835731 ,Left ,48.8279565051262 ,52.4367465230641 ,22.4149265582143
10.5060952 ,Left ,48.8344712031994 ,52.4442768240222 ,22.4177778752238
10.5285876 ,Left ,48.8523296897707 ,52.447066315351 ,22.4194718872458
10.5434689 ,Left ,48.8523296897707 ,52.447066315351 ,22.4194718872458
10.565956 ,Left ,48.8667719913889 ,52.4276300018721 ,22.423731258497
10.5885889 ,Left ,48.8776909482267 ,52.4104271145092 ,22.421156932914
10.6035008 ,Left ,48.8745009904311 ,52.3919136860081 ,22.4139476724099
10.6259094 ,Left ,48.8688890897457 ,52.3800306996615 ,22.3998253107507
10.6486298 ,Left ,48.8799417645033 ,52.3696099772033 ,22.3876073162375
10.6634021 ,Left ,48.8901388082468 ,52.3548809982334 ,22.3784504952108
10.6860161 ,Left ,48.8828635183623 ,52.352643521575 ,22.3717268211639
10.7083929 ,Left ,48.8888921652369 ,52.3475666625083 ,22.3729217027648
10.7234454 ,Left ,48.9060412453882 ,52.3435194220677 ,22.3754497342301
10.7458868 ,Left ,48.9091887670447 ,52.3467334898307 ,22.3843313739643
10.768474 ,Left ,48.8968299479613 ,52.3530234445184 ,22.3914684751149
10.7833834 ,Left ,48.8976412281041 ,52.3561778521965 ,22.4060206796036
10.8060596 ,Left ,48.9028252434083 ,52.3555848725488 ,22.4187299433199
10.8284893 ,Left ,48.902512877721 ,52.3517173976218 ,22.428233394256
10.8435778 ,Left ,48.9007604577628 ,52.3434448586608 ,22.4321327557296
10.8660238 ,Left ,48.9014942233396 ,52.3351650461343 ,22.4330922472247
10.8884604 ,Left ,48.9014861193755 ,52.3228616996519 ,22.4376009695971
10.9039904 ,Left ,48.895230835076 ,52.324886650719 ,22.430555717608
10.9260764 ,Left ,48.8711333965821 ,52.3593780329787 ,22.4417639907551
10.9486648 ,Left ,48.8272218543685 ,52.3911052305722 ,22.4625477133882
10.9710674 ,Left ,48.7677413957836 ,52.4152710393124 ,22.4524331060387
10.9858526 ,Left ,48.773693229476 ,52.4139762171158 ,22.4384725985342
11.0083867 ,Left ,48.8078569627009 ,52.4142010164789 ,22.4514198409648
11.0308823 ,Left ,48.8259861005994 ,52.4096285920716 ,22.4839995389511
11.0460361 ,Left ,48.8516291749321 ,52.3723383583629 ,22.5069115377704
11.069393 ,Left ,48.8361162835865 ,52.319429377218 ,22.5382274658436
11.0908642 ,Left ,48.8303429686066 ,52.2927144655591 ,22.579739894883
11.1060074 ,Left ,48.8350295618611 ,52.2742264743701 ,22.642018378111
11.1285378 ,Left ,48.7851357205362 ,52.2530412682326 ,22.6924980135239
11.1511493 ,Left ,48.7797047164738 ,52.2281423402707 ,22.7065502078559
11.1660106 ,Left ,48.8134990175346 ,52.2203156669173 ,22.6877191449039
11.1885819 ,Left ,48.8736609785154 ,52.1770080525851 ,22.6725183274691
11.211057 ,Left ,48.890587967013 ,52.1433891093307 ,22.6604774507418
11.2260717 ,Left ,48.8507898421474 ,52.1332818334048 ,22.6540558661092
11.24841 ,Left ,48.8285945220969 ,52.1165834131149 ,22.6537093056667
11.2709139 ,Left ,48.8855428355954 ,52.0750100419189 ,22.6525502851683
11.2858477 ,Left ,48.9383250779415 ,52.0166630506363 ,22.6525194626929
11.3083674 ,Left ,48.9326046326055 ,51.958642840902 ,22.6669606632774
11.3308681 ,Left ,48.9169874901839 ,51.8955827652148 ,22.6720426743696
11.3459986 ,Left ,48.9405175348715 ,51.8363124267415 ,22.6682927756927
11.3684316 ,Left ,48.9761416511909 ,51.7937161834237 ,22.6790712371506
11.3910418 ,Left ,48.988825743271 ,51.7782573105511 ,22.6876224040927
11.4061384 ,Left ,48.988825743271 ,51.7782573105511 ,22.6876224040927
11.4286027 ,Left ,48.9906782972866 ,51.7893432748661 ,22.6866017426199
11.4508475 ,Left ,48.9955446722293 ,51.7979913688108 ,22.6862747119241
11.4660405 ,Left ,48.9940586342326 ,51.7992698683407 ,22.6860333543673
11.4884256 ,Left ,48.9888587263831 ,51.8019790656478 ,22.6943724217012
11.5110378 ,Left ,48.9813555266167 ,51.8016598213575 ,22.7082041008695
11.5259999 ,Left ,48.981884090074 ,51.8020099756944 ,22.7172445228617
11.5485139 ,Left ,48.9868663278961 ,51.7985188543695 ,22.7270088801413
11.5709835 ,Left ,48.9915921252238 ,51.797658767511 ,22.7363006121716
11.5859064 ,Left ,48.9936030603168 ,51.7967249342039 ,22.7455731923501
11.6083532 ,Left ,49.0032602296594 ,51.8016708009622 ,22.751852696229
11.6309801 ,Left ,49.0172502300124 ,51.8028122071678 ,22.7561188141627
11.6460535 ,Left ,49.0290181408536 ,51.7982103586153 ,22.7634005875521
11.6685175 ,Left ,49.032396337681 ,51.7930833419712 ,22.7672766303604
11.6908722 ,Left ,49.0373023764101 ,51.7838476171066 ,22.7687005878675
11.706066 ,Left ,49.0405272891716 ,51.7727648272832 ,22.7638449729615
11.7286033 ,Left ,49.0417101956202 ,51.7534686540472 ,22.7599264106891
11.7511028 ,Left ,49.0462763698487 ,51.7261071899786 ,22.7569517778303
11.7659988 ,Left ,49.07240442517 ,51.7115279024115 ,22.760751361877
11.7884109 ,Left ,49.0765862129334 ,51.7039209054725 ,22.7765854853239
11.8111294 ,Left ,49.0645428495521 ,51.7046617660246 ,22.7843254469064
11.8258789 ,Left ,49.0629607735052 ,51.7209201310861 ,22.7767845963318
11.8485555 ,Left ,49.0757050683659 ,51.7420244905352 ,22.7610178142693
11.8710472 ,Left ,49.0987700739063 ,51.777918192985 ,22.7509509188487
11.8935388 ,Left ,49.1017117841998 ,51.8196338750468 ,22.7590059965019
11.9084777 ,Left ,49.117843868205 ,51.8734953709098 ,22.7702534291808
11.9308724 ,Left ,49.0537640827788 ,51.924547151692 ,22.7743943806605
11.9537002 ,Left ,49.0094597330894 ,51.9570509745016 ,22.7665839731289
11.9683762 ,Left ,48.9994177357081 ,51.9519598343531 ,22.7543959265245
11.9909077 ,Left ,49.014825003769 ,51.9204889543244 ,22.7207419541959
12.0132996 ,Left ,49.0334045693573 ,51.8713961101893 ,22.6947070359715
12.0286019 ,Left ,49.0028496382285 ,51.8253904369409 ,22.6576315252707
12.0434936 ,Left ,48.9586238082111 ,51.8198780836219 ,22.6270548395649
12.0808494 ,Left ,48.783998633166 ,51.8888614160925 ,22.6352001026228
12.1033291 ,Left ,48.7218473954143 ,51.9446906921264 ,22.6584247348949
12.1408394 ,Left ,48.6985527896573 ,51.9596059995331 ,22.6572869114449
12.1633993 ,Left ,48.69349847371 ,51.9415561848779 ,22.6646999917233
12.2009259 ,Left ,48.7282070194008 ,51.9039552503008 ,22.6664904992069
12.2235865 ,Left ,48.7151929372706 ,51.9329765494543 ,22.6916921388798
12.2607562 ,Left ,48.5978640111045 ,52.0172915830929 ,22.7255519602831
12.2833273 ,Left ,48.6646741753019 ,52.0368724722962 ,22.7546696654108
12.3208695 ,Left ,48.7271314962575 ,51.991317575113 ,22.7932608084801
12.3433673 ,Left ,48.7192037971723 ,51.990962260731 ,22.7983469474326
12.3810364 ,Left ,48.6965110403535 ,52.0636006475398 ,22.784737354906
12.4033683 ,Left ,48.7121202125068 ,52.105617717875 ,22.7754712816621
12.4483945 ,Left ,48.6178706169247 ,52.1921443425508 ,22.7426536761546
12.4709449 ,Left ,48.609399728201 ,52.2192527132449 ,22.7113997237745
12.500783 ,Left ,48.5475687386533 ,52.2723026120626 ,22.6585565324211
12.5236346 ,Left ,48.5150702357927 ,52.322027399668 ,22.6450970704262
12.5608197 ,Left ,48.569624295695 ,52.3731712516502 ,22.5798593855145
12.5835496 ,Left ,48.6185912167816 ,52.35335289599 ,22.5496052174862
12.6210578 ,Left ,48.6735816994462 ,52.2696712672482 ,22.4923390875465
12.643505 ,Left ,48.6994149543922 ,52.2225172831978 ,22.4713535420613
12.6807369 ,Left ,48.7636415986326 ,52.1717329749247 ,22.4608311147827
12.7033762 ,Left ,48.7685392180301 ,52.1596092607578 ,22.4569613094685
12.740755 ,Left ,48.8130632918738 ,52.1612256670155 ,22.4437314118261
12.7635045 ,Left ,48.8261224013809 ,52.1742380412858 ,22.4287136854539
12.8010455 ,Left ,48.8233925373887 ,52.2183618371391 ,22.3843565187687
12.8235704 ,Left ,48.8254884343628 ,52.2427576155125 ,22.3664412970112
12.8608591 ,Left ,48.8048046872176 ,52.3021266723524 ,22.3239844489699
12.8833883 ,Left ,48.7891693717655 ,52.3237636042225 ,22.3072789418368
12.9210823 ,Left ,48.7727883014974 ,52.353814345556 ,22.2897699231419
12.9434075 ,Left ,48.7673474089851 ,52.3655855212057 ,22.287330879326
12.9810146 ,Left ,48.746107833291 ,52.3867349295286 ,22.2699065315951
13.0034295 ,Left ,48.7265097863671 ,52.4010526277105 ,22.2477056609497
13.0410537 ,Left ,48.6600463322224 ,52.4185888998091 ,22.1977463785584
13.0633485 ,Left ,48.6628214948595 ,52.4175747446519 ,22.1619294259909
13.1010648 ,Left ,48.6386465924597 ,52.4066355967458 ,22.1059137659473
13.1236022 ,Left ,48.6547028079345 ,52.3990724041083 ,22.0904905877428
13.1608353 ,Left ,48.6559143044727 ,52.3998763631801 ,22.1060127399497
13.1833761 ,Left ,48.6623812538585 ,52.3791106926161 ,22.1278740810171
13.2209506 ,Left ,48.7107068604343 ,52.2604962506518 ,22.1821454112302
13.243539 ,Left ,48.7517391104245 ,52.1709876536261 ,22.2159701401342
13.2808647 ,Left ,48.8067033532386 ,51.9606696523922 ,22.1951088415126
13.3036567 ,Left ,48.7748779105604 ,51.8960370614561 ,22.1682536984652
13.3409687 ,Left ,48.7624348658394 ,51.8163687307397 ,22.0936875792963
13.3633383 ,Left ,48.8656478860446 ,51.8041289413066 ,22.0662244888261
13.4007346 ,Left ,48.9111262827133 ,51.8424531295845 ,22.1002640957289
13.4235471 ,Left ,48.9055932309556 ,51.8802388751556 ,22.1350448706709
13.4609609 ,Left ,48.9946384601873 ,51.9346468449058 ,22.2229438803944
13.4832156 ,Left ,49.0362079400164 ,51.9461306769729 ,22.2621427863116
13.5208973 ,Left ,49.0550650749028 ,51.9251730813511 ,22.3565133505295
13.5434325 ,Left ,49.094448089715 ,51.8937774187498 ,22.4143365859912
13.580909 ,Left ,49.1187675944399 ,51.8135235487958 ,22.5022760866927
13.6068182 ,Left ,49.0739032800492 ,51.8051430248053 ,22.5259782278073
13.6423497 ,Left ,49.0877586454025 ,51.8053599969038 ,22.5509653818983
13.6632846 ,Left ,49.0999873469559 ,51.7982465188175 ,22.561672975175
13.7007949 ,Left ,49.0721621670194 ,51.803753838494 ,22.5885455491357
13.723231 ,Left ,49.0370949911885 ,51.8165050354904 ,22.5959903861874
13.7610115 ,Left ,49.0150235191015 ,51.8564218686499 ,22.6018934631296
13.7832711 ,Left ,49.0159398230594 ,51.8814750339381 ,22.6027003391694
13.8208827 ,Left ,48.9920103599461 ,51.9339288852192 ,22.6159555172794
13.8434941 ,Left ,48.9713452886478 ,51.9574885177444 ,22.6234220852992
13.8808143 ,Left ,48.9627279951675 ,51.9953489633708 ,22.621339389772
13.8958708 ,Left ,48.9695266207661 ,52.0095745277565 ,22.6147568899948
13.9185344 ,Left ,48.9624267712476 ,52.025499015831 ,22.6094017753088
13.9335483 ,Left ,48.9576718261638 ,52.0319557698166 ,22.6081033654665
13.9559946 ,Left ,48.9478998884749 ,52.0326276578283 ,22.607100422802
13.9784365 ,Left ,48.9419289642945 ,52.0377355605395 ,22.606035319526
13.9935645 ,Left ,48.9389010666243 ,52.0431239308361 ,22.6081683728002
14.0160013 ,Left ,48.9389010666243 ,52.0431239308361 ,22.6081683728002
14.0385749 ,Left ,48.949490672491 ,52.0370950884684 ,22.6156570788752
14.0535192 ,Left ,48.9539374501981 ,52.0390595560731 ,22.6220111344699
14.0761138 ,Left ,48.9564249812443 ,52.0325020073201 ,22.631704496864
14.0985464 ,Left ,48.951627024271 ,52.0239658415812 ,22.6322848423743
14.1134155 ,Left ,48.9435608654994 ,52.0176476891349 ,22.6289450441319
14.1358591 ,Left ,48.9385316068335 ,52.0089032420907 ,22.6263539142681
14.1584805 ,Left ,48.9261391336159 ,52.0038405059465 ,22.619990523632
14.1735429 ,Left ,48.9198489713499 ,52.0029873337893 ,22.6074665335939
14.1958747 ,Left ,48.9465373902709 ,52.0254042155029 ,22.5988270539261
14.2183777 ,Left ,48.9902644325575 ,52.0615083136382 ,22.593229078997
14.2335481 ,Left ,49.0561406824036 ,52.1297362117839 ,22.5837470147212
14.2560324 ,Left ,49.1699140911181 ,52.1867985436115 ,22.5950741597227
14.2785629 ,Left ,49.1290644574294 ,52.2349444185127 ,22.5976933652642
14.3010388 ,Left ,49.0311403631437 ,52.2810616736358 ,22.5734358001274
14.3158424 ,Left ,48.9576785470818 ,52.3107464625031 ,22.5469161418991
14.3385571 ,Left ,48.9796593329568 ,52.3077066294444 ,22.5229676648057
14.3610542 ,Left ,49.0149837925248 ,52.2723591570125 ,22.4950123629243
14.3761948 ,Left ,48.9855598248802 ,52.2209978448703 ,22.4706073348382
14.3983752 ,Left ,48.9249521672073 ,52.1717156195485 ,22.4548938369578
14.4134269 ,Left ,48.8820349951989 ,52.1069949690948 ,22.4366023365232
14.4366441 ,Left ,48.874167863853 ,52.0381334511506 ,22.4194675492448
14.4585966 ,Left ,48.8246120368562 ,51.9951860608094 ,22.4099175711871
14.4734073 ,Left ,48.7531466518714 ,51.9829496063272 ,22.4215087151184
14.4958123 ,Left ,48.6772524226605 ,51.9805382364723 ,22.4406472301786
14.518331 ,Left ,48.6503624316911 ,51.9874749023886 ,22.4607944919454
14.5333589 ,Left ,48.6931144082075 ,51.9829852191299 ,22.475011238711
14.5558723 ,Left ,48.7427568218939 ,51.9833131441982 ,22.4952693386306
14.5783598 ,Left ,48.7815106968291 ,51.9771991060269 ,22.5093370398299
14.5933222 ,Left ,48.7800127976826 ,51.9784713161138 ,22.5090619318087
14.6159137 ,Left ,48.7693127683418 ,52.025362254725 ,22.5296063292392
14.6384041 ,Left ,48.767384983766 ,52.0996863759649 ,22.5685118002413
14.6534028 ,Left ,48.7365034940918 ,52.1674639896971 ,22.5986917796414
14.6758546 ,Left ,48.7438031363185 ,52.202009992311 ,22.6222786076767
14.6983132 ,Left ,48.7842568217725 ,52.182286483196 ,22.6443164352573
14.7208248 ,Left ,48.8007165733241 ,52.1617126517953 ,22.6601920343131
14.7358864 ,Left ,48.7941345629587 ,52.1392582890345 ,22.6593498659761
14.7583752 ,Left ,48.7692423621061 ,52.1409776815262 ,22.6414121367556
14.7808699 ,Left ,48.7260621062789 ,52.1598798570443 ,22.6373273132753
14.7959759 ,Left ,48.7161744049362 ,52.1905605446875 ,22.6293516969612
14.8183902 ,Left ,48.6805625821462 ,52.2183212449671 ,22.6249311972135
14.8409103 ,Left ,48.6055833313653 ,52.2334000233264 ,22.6171469534009
14.8561187 ,Left ,48.5973322406102 ,52.2486017907133 ,22.5963758478134
14.8785795 ,Left ,48.6295768496056 ,52.2627379456552 ,22.5805336541535
14.9008943 ,Left ,48.5740407494155 ,52.2886720264783 ,22.567584336281
14.9160295 ,Left ,48.4559631675572 ,52.3556303110264 ,22.5585506015701
14.9458463 ,Left ,48.4356041839759 ,52.4350683316675 ,22.5392582064563
14.968333 ,Left ,48.4820603123873 ,52.5024549645211 ,22.5150815616071
14.9834644 ,Left ,48.5234300999066 ,52.5394904751715 ,22.5004068946174
14.9985292 ,Left ,48.5345365429984 ,52.5374460630189 ,22.4990925287551
15.0210119 ,Left ,48.5135262211656 ,52.5105326145765 ,22.485291412074
15.0360896 ,Left ,48.4882488931791 ,52.4881251782261 ,22.4580891489505
15.0584229 ,Left ,48.4872973179211 ,52.4703025495069 ,22.4276594059539
15.0809099 ,Left ,48.5287107963782 ,52.4539513928978 ,22.3930772151036
15.0958547 ,Left ,48.5485690874574 ,52.4305956474873 ,22.3568506660356
15.1185753 ,Left ,48.5430707287615 ,52.4193539013226 ,22.3276433317826
15.1409255 ,Left ,48.5306319138142 ,52.4066701418901 ,22.2794159368661
15.1560175 ,Left ,48.5263765660655 ,52.406291105515 ,22.2427838803123
15.178372 ,Left ,48.5256201533313 ,52.4363213034726 ,22.2326011496628
15.2010477 ,Left ,48.5050374813778 ,52.4730699463715 ,22.2248041101679
15.2158958 ,Left ,48.5109193105855 ,52.5258765082072 ,22.2209146755771
15.2383802 ,Left ,48.5384691774322 ,52.5711721558464 ,22.2184656462813
15.2608878 ,Left ,48.5514261198033 ,52.6119702372397 ,22.2025658778991
15.2759631 ,Left ,48.5125202637694 ,52.6425087646322 ,22.1864376965799
15.2985222 ,Left ,48.4228962748218 ,52.6501206675264 ,22.1516095734349
15.3210089 ,Left ,48.365995608454 ,52.6325874053984 ,22.1157768589959
15.3359084 ,Left ,48.3748005235088 ,52.6044848035221 ,22.0908056040309
15.3585255 ,Left ,48.3784321048229 ,52.5688311765643 ,22.093492574123
15.380994 ,Left ,48.4398062531005 ,52.494770051949 ,22.1130238322478
15.3958506 ,Left ,48.4961302023627 ,52.383990227103 ,22.1328013548355
15.4185605 ,Left ,48.5350506230125 ,52.2525359266616 ,22.1553296187026
15.4409336 ,Left ,48.5256539997864 ,52.130097672945 ,22.1941093489671
15.4633512 ,Left ,48.5354698839456 ,52.03124419417 ,22.2257722034504
15.4785693 ,Left ,48.5883862121708 ,51.9688254933753 ,22.2512792124658
15.5010832 ,Left ,48.7233069213522 ,51.9255093406 ,22.2683774760953
15.5233746 ,Left ,48.8484826004669 ,51.9282109134057 ,22.2843638290383
15.5399946 ,Left ,48.9146595362528 ,51.9215503756987 ,22.2947503723543
15.5685271 ,Left ,48.9492725251233 ,51.9165984632417 ,22.310813332387
15.5908576 ,Left ,48.9444652201572 ,51.9230107698542 ,22.3095199481315
15.6059985 ,Left ,48.9367261490384 ,51.9530601038678 ,22.3149061168196
15.6214294 ,Left ,48.9794758974422 ,51.9675545742776 ,22.3116259540541
15.6359184 ,Left ,49.0119542975955 ,51.9663085218018 ,22.3209373797285
15.6583744 ,Left ,48.9825893684815 ,51.9547810784962 ,22.3432564478339
15.6809244 ,Left ,48.9289832710337 ,51.9178379467925 ,22.3629358728508
15.7037998 ,Left ,48.8952647149428 ,51.871356109805 ,22.3794087948422
15.7184024 ,Left ,48.8943273982915 ,51.830311897869 ,22.3983831419596
15.7411057 ,Left ,48.9083051033485 ,51.8071319483255 ,22.4143294870682
15.763526 ,Left ,48.918602105634 ,51.8032590337139 ,22.4427084552079
15.778525 ,Left ,48.9009326885145 ,51.8148929002138 ,22.4637068980105
15.8008595 ,Left ,48.884160448132 ,51.8163584661141 ,22.4620466703647
15.8235511 ,Left ,48.8934625237729 ,51.8305980236171 ,22.4524939904562
15.8386162 ,Left ,48.9288156000734 ,51.8388970035907 ,22.4549623204527
15.8608943 ,Left ,48.9447029668669 ,51.83623256599 ,22.4627911128314
15.8833426 ,Left ,48.9467396390071 ,51.8353216314658 ,22.4721607569899
15.8986056 ,Left ,48.9455756963232 ,51.8367476626848 ,22.4778352948231
15.9209908 ,Left ,48.9611287608012 ,51.8339144757063 ,22.4797265997205
15.9435287 ,Left ,48.9799734616096 ,51.8229621192896 ,22.4796636689601
15.9583788 ,Left ,48.9970432035972 ,51.8159125524159 ,22.478836101861
15.9808906 ,Left ,48.9972768238519 ,51.8131611915208 ,22.4790970867079
16.0034416 ,Left ,48.9969243230746 ,51.8159574301751 ,22.4761087571924
16.0183757 ,Left ,48.9976724112393 ,51.82282377904 ,22.4753329497785
16.0412548 ,Left ,48.9837280835774 ,51.8366800971682 ,22.4694422620756
16.0634525 ,Left ,48.968611422499 ,51.8586792117934 ,22.4540688392836
16.0785324 ,Left ,48.9564872930375 ,51.8751817525787 ,22.4362181168051
16.1008821 ,Left ,48.9437344379818 ,51.8847621588729 ,22.4218635482971
16.123299 ,Left ,48.9104643372977 ,51.891438398738 ,22.4061015081879
16.1385528 ,Left ,48.8822527102147 ,51.8886166059272 ,22.3941072803646
16.1610387 ,Left ,48.8606014374129 ,51.8879165707511 ,22.3773375804345
16.1833654 ,Left ,48.8415341275773 ,51.8987309840854 ,22.3742604881683
16.1983543 ,Left ,48.8176952792796 ,51.921728594039 ,22.3781574099864
16.2209444 ,Left ,48.8003290183936 ,51.9553650967664 ,22.388006134141
16.2434646 ,Left ,48.7925316808478 ,52.0003236284112 ,22.390929453459
16.2584928 ,Left ,48.8026472455303 ,52.0569837954313 ,22.4067415746043
16.281079 ,Left ,48.8347417377137 ,52.1202363169054 ,22.4479628238013
16.3041138 ,Left ,48.8715733154822 ,52.1760665142107 ,22.5056060350574
16.318692 ,Left ,48.8342321805739 ,52.2276536363187 ,22.5251497110093
16.3408913 ,Left ,48.8115435375908 ,52.2751932700389 ,22.5498829661072
16.363464 ,Left ,48.7660657013706 ,52.293901656281 ,22.5539876693933
16.3782803 ,Left ,48.7592943694182 ,52.2929392495744 ,22.5356565957977
16.4010539 ,Left ,48.788954554074 ,52.2833065406441 ,22.5161105504651
16.4234111 ,Left ,48.7724794523125 ,52.2714490503851 ,22.4858370033137
16.4385944 ,Left ,48.7221868803327 ,52.2709333226227 ,22.4592088735258
16.4608942 ,Left ,48.6353233390385 ,52.2749108977412 ,22.4483121372034
16.4833681 ,Left ,48.5323782408792 ,52.2814445809513 ,22.4288353041741
16.5059332 ,Left ,48.4323108696143 ,52.290348150465 ,22.4326978956205
16.5209915 ,Left ,48.3965388394023 ,52.2846551362073 ,22.428826932169
16.543581 ,Left ,48.4149325113454 ,52.2704346083731 ,22.4182105654668
16.5660381 ,Left ,48.4639305046339 ,52.2493536088938 ,22.421102346331
16.5810104 ,Left ,48.5286139593955 ,52.1982891584747 ,22.4330285540342
16.603463 ,Left ,48.5516770421608 ,52.1406736239993 ,22.4369347510463
16.6259883 ,Left ,48.5369458140546 ,52.1143731575168 ,22.4322982848063
16.6409814 ,Left ,48.5098454507071 ,52.1271867514615 ,22.4546879920006
16.6633649 ,Left ,48.4313285757814 ,52.1556434994537 ,22.4533283634011
16.6861479 ,Left ,48.4004022040967 ,52.1831058543991 ,22.4398797697934
16.7010555 ,Left ,48.3860966333388 ,52.1728685009455 ,22.4214133091676
16.7233981 ,Left ,48.3578372567222 ,52.1514848426018 ,22.4265075670056
16.7458775 ,Left ,48.3475553263043 ,52.139322545926 ,22.4235140929414
16.7610822 ,Left ,48.365312293793 ,52.1514576771857 ,22.4153109179074
16.7835714 ,Left ,48.3822707046084 ,52.2073766156858 ,22.4282195081614
16.8060633 ,Left ,48.3516446376932 ,52.2887511053111 ,22.443315940074
16.8209541 ,Left ,48.2607691921696 ,52.3569485148589 ,22.4515670045871
16.8435149 ,Left ,48.1864685249039 ,52.4089678994437 ,22.4426550917947
16.8659958 ,Left ,48.219512353022 ,52.427912417798 ,22.4087856614411
16.8810656 ,Left ,48.2050572708365 ,52.4332737877021 ,22.3728833706398
16.9040524 ,Left ,48.1414737970072 ,52.4653933868326 ,22.3408909664064
16.926117 ,Left ,48.1279466888447 ,52.493048287498 ,22.3076372431527
16.9410816 ,Left ,48.1807817457975 ,52.4965959323571 ,22.2638429519368
16.9633665 ,Left ,48.2341837843096 ,52.5034251798479 ,22.2311673409453
16.9859738 ,Left ,48.2569412946573 ,52.4917599246409 ,22.2089523949771
17.0008528 ,Left ,48.2927798859959 ,52.461437112025 ,22.2064831465821
17.0234986 ,Left ,48.3802624880865 ,52.4162136761655 ,22.2098384881436
17.046071 ,Left ,48.4643057080226 ,52.3610743164194 ,22.2107328998994
17.0609777 ,Left ,48.4966325963571 ,52.3322949748959 ,22.2188622880398
17.0833232 ,Left ,48.4930443407662 ,52.3307945228615 ,22.2245555384701
17.1061014 ,Left ,48.4938162834862 ,52.3318999025802 ,22.2183006159233
17.1210116 ,Left ,48.4969457371283 ,52.3244561282083 ,22.1957722852732
17.1436008 ,Left ,48.5004800723107 ,52.3205604088149 ,22.1660749966236
17.1658841 ,Left ,48.492779487027 ,52.3253108225408 ,22.1253364662984
17.1810741 ,Left ,48.4573549530727 ,52.3514113289063 ,22.0930123341828
17.2038322 ,Left ,48.4311117846346 ,52.3824469554951 ,22.0610670681282
17.2260523 ,Left ,48.4167539382912 ,52.4185224407934 ,22.0295522066128
17.2408953 ,Left ,48.4182378897044 ,52.4557284170445 ,21.9908037295222
17.2635005 ,Left ,48.4105807801926 ,52.5034541147641 ,21.9554698492477
17.2858641 ,Left ,48.3541278296892 ,52.5901464353331 ,21.9316807725986
17.3009413 ,Left ,48.2558748160967 ,52.6954787446233 ,21.9439129099671
17.3234502 ,Left ,48.1478332932489 ,52.7530436769201 ,21.9333324382627
17.3458751 ,Left ,48.1570108247215 ,52.7535318033598 ,21.8980341210938
17.3682376 ,Left ,48.2389460407369 ,52.712503961194 ,21.8682287897812
17.3835486 ,Left ,48.2244771617068 ,52.7041740170931 ,21.8673709565813
17.4058212 ,Left ,48.1658839299117 ,52.6973748259932 ,21.871514166647
17.4216387 ,Left ,48.1731943344016 ,52.6721146678886 ,21.8769711584278
17.4435209 ,Left ,48.2865700768771 ,52.6113969103044 ,21.8971451506216
17.4660725 ,Left ,48.416130606407 ,52.5090914200386 ,21.9126600667954
17.4884593 ,Left ,48.4259954026465 ,52.4416489133211 ,21.9666133755227
17.5036062 ,Left ,48.3687768349077 ,52.3967572331351 ,22.0441846573463
17.5260857 ,Left ,48.3145164779216 ,52.3570000684092 ,22.0971812480978
17.5483776 ,Left ,48.4289570265342 ,52.2917122891235 ,22.1184468307556
17.5635944 ,Left ,48.5599334622202 ,52.2650801902813 ,22.1329406572048
17.5858659 ,Left ,48.6160251417579 ,52.2313210632325 ,22.1380087071359
17.6083975 ,Left ,48.5609634418931 ,52.2170842084827 ,22.1423251385463
17.6233152 ,Left ,48.5165444088138 ,52.2156520122357 ,22.139557478522
17.6460519 ,Left ,48.5458034010237 ,52.2084013840256 ,22.1323715185307
17.668344 ,Left ,48.6214722423121 ,52.1925367638711 ,22.125326087111
17.6835526 ,Left ,48.6488633002709 ,52.1732233925136 ,22.1342754869459
17.7059218 ,Left ,48.6350902064352 ,52.1588704798443 ,22.155449320214
17.7359028 ,Left ,48.6611747003774 ,52.0936487520281 ,22.2055935265316
17.7584538 ,Left ,48.6900107373293 ,52.0483380859677 ,22.2233901088384
17.7958905 ,Left ,48.7056439997813 ,52.0016049155358 ,22.2700257162685
17.8184898 ,Left ,48.7001619528072 ,51.9946815781277 ,22.282304419199
17.8560508 ,Left ,48.7542059393359 ,52.0038183936783 ,22.2963022900235
17.8784948 ,Left ,48.7550974719788 ,52.019536538468 ,22.3096382807545
17.9157217 ,Left ,48.7833105320448 ,52.0366078919424 ,22.3406801904434
17.938343 ,Left ,48.7929877644423 ,52.0295629455474 ,22.351765900461
17.9757539 ,Left ,48.8147088257402 ,52.0094081403761 ,22.362125268442
18.0004089 ,Left ,48.8389586444496 ,51.9988697657826 ,22.3598907021679
18.0357487 ,Left ,48.8568540765735 ,51.9902584471957 ,22.3476695672817
18.0583499 ,Left ,48.8752304729624 ,51.9791247537746 ,22.3389307516648
18.0960317 ,Left ,48.8885891765363 ,51.9685830427166 ,22.3175101253597
18.1183043 ,Left ,48.8823884985191 ,51.9648364079045 ,22.302185195857
18.1560421 ,Left ,48.8651888566888 ,52.0057479128906 ,22.2839308017991
18.1783959 ,Left ,48.8562346133388 ,52.0371218693884 ,22.2945572270841
18.2160326 ,Left ,48.8479408056644 ,52.1472217444523 ,22.3923302246347
18.2384387 ,Left ,48.765276484489 ,52.2241425982594 ,22.4098467865355
18.2757555 ,Left ,48.767018434917 ,52.3243598841286 ,22.3798921685868
18.2984862 ,Left ,48.7634661509915 ,52.3367998126757 ,22.3477381027344
18.3360225 ,Left ,48.5694063619551 ,52.355026424449 ,22.2914642427241
18.3584389 ,Left ,48.4245481353492 ,52.3659451069324 ,22.2741589921985
18.3960773 ,Left ,48.28980901821 ,52.3355355574784 ,22.2150588238087
18.4183505 ,Left ,48.2882596209485 ,52.3161584767206 ,22.1902510981404
18.4557726 ,Left ,48.2438216713467 ,52.2878753703192 ,22.1727914820808
18.4784307 ,Left ,48.277829874218 ,52.2457015230296 ,22.1863078476786
18.5160349 ,Left ,48.3133141262567 ,52.2117486177482 ,22.1928856659362
18.5396136 ,Left ,48.172947741351 ,52.2301824416566 ,22.1895151599945
18.5759406 ,Left ,48.2134905053547 ,52.2458173406627 ,22.1593636281271
18.5985513 ,Left ,48.2653203934731 ,52.216591600863 ,22.1493788274542
18.6360307 ,Left ,48.2012665217449 ,52.2164477943261 ,22.1439153446307
18.6585274 ,Left ,48.2600995242163 ,52.1977834629281 ,22.1667485300041
18.6958092 ,Left ,48.3527366748719 ,52.185996743082 ,22.2830335604178
18.7185557 ,Left ,48.3288895828719 ,52.2548832270775 ,22.3788361390899
18.7558625 ,Left ,48.3134480758313 ,52.3426331757943 ,22.4728141747136
18.7782295 ,Left ,48.2906059507004 ,52.3671905371264 ,22.4722748859282
18.8158532 ,Left ,48.2967765633731 ,52.391414532103 ,22.4187690946836
18.8385012 ,Left ,48.2140016892645 ,52.4372314963069 ,22.3853732270813
18.8759678 ,Left ,48.240422731124 ,52.5299550498735 ,22.2851646682939
18.8985573 ,Left ,48.3172235697024 ,52.5281412898814 ,22.2574801380489
18.9360425 ,Left ,48.2824456498923 ,52.4949407653816 ,22.2029575824503
18.9585524 ,Left ,48.2741175797049 ,52.4896640292198 ,22.1633380300537
18.9958416 ,Left ,48.352834904283 ,52.5056701219167 ,22.0627983148518
19.0185099 ,Left ,48.3472655618234 ,52.5370868359901 ,22.0330048688742
19.0560316 ,Left ,48.3013607925301 ,52.5989731412635 ,21.9564627654839
19.0785373 ,Left ,48.3175576771925 ,52.6293863458412 ,21.9234645856593
19.1157775 ,Left ,48.3157943949972 ,52.6553189048949 ,21.8550238526532
19.1385546 ,Left ,48.3046834011383 ,52.6732401688803 ,21.8445097851186
19.1759708 ,Left ,48.2376016469037 ,52.6720356499992 ,21.8375992719631
19.1983713 ,Left ,48.2580940720874 ,52.6534139335804 ,21.8435478502431
19.2358269 ,Left ,48.3296027429718 ,52.5886266887498 ,21.9190659803537
19.2585452 ,Left ,48.380008427082 ,52.5033661094225 ,21.9542816011837
19.2959482 ,Left ,48.3834062520235 ,52.4059004356017 ,22.0299525121118
19.3182443 ,Left ,48.3676770461894 ,52.3824754966409 ,22.0645888696489
19.3559383 ,Left ,48.4284986287469 ,52.312956464598 ,22.0306345100727
19.3782277 ,Left ,48.4738191232054 ,52.2667784772952 ,22.0214645058306
19.4157211 ,Left ,48.434830216618 ,52.2222831813154 ,22.0346080331538
19.4386269 ,Left ,48.4418697177587 ,52.2150300943329 ,22.0455210214496
19.4760834 ,Left ,48.570137526598 ,52.1665006261479 ,22.0706887620812
19.4984978 ,Left ,48.580678663327 ,52.1382697903252 ,22.1029457433399
19.540006 ,Left ,48.5808902840146 ,52.081875448806 ,22.1492368606963
19.5508754 ,Left ,48.6022887113774 ,52.0581474046477 ,22.1668323280318
19.5733476 ,Left ,48.6349368408228 ,52.0267829517303 ,22.1774213193742
19.5890961 ,Left ,48.6622996392074 ,51.9921808270939 ,22.1876667870732
19.6108922 ,Left ,48.664819551792 ,51.9647114223893 ,22.1880397157535
19.6334956 ,Left ,48.6454234537156 ,51.9535150774325 ,22.1931409378641
19.6485258 ,Left ,48.6246970705677 ,51.956078993398 ,22.1966882858061
19.6709868 ,Left ,48.6179077776923 ,51.9721785052456 ,22.1999941724553
19.6934087 ,Left ,48.6414468148552 ,51.9881923247082 ,22.2010565412666
19.7085052 ,Left ,48.6742209177645 ,52.0024168423825 ,22.2148771765864
19.7310532 ,Left ,48.6775931889581 ,52.0088910499697 ,22.2326590808582
19.7535162 ,Left ,48.6642336223588 ,52.0138761724571 ,22.2458775693813
19.7691322 ,Left ,48.6631091097024 ,52.0030810414037 ,22.2560521496147
19.7910725 ,Left ,48.6867812679372 ,51.9885540849292 ,22.2602526025568
19.813465 ,Left ,48.7004813244663 ,51.9744980618332 ,22.2603784031942
19.8285516 ,Left ,48.7037383246184 ,51.9634305071101 ,22.2529197203847
19.8510548 ,Left ,48.7039002927516 ,51.9577332176174 ,22.2475705938428
19.8733729 ,Left ,48.7131475274689 ,51.9568784428398 ,22.2396796508546
19.8884663 ,Left ,48.7142589674739 ,51.9552885099317 ,22.2337421421339
19.9110518 ,Left ,48.7147936951452 ,51.956395259831 ,22.2217992598679
19.9334689 ,Left ,48.7157686140434 ,51.9548481066452 ,22.2131363200134
19.9483689 ,Left ,48.7068792593508 ,51.9535780426504 ,22.2029088656201
19.9735778 ,Left ,48.6960770688251 ,51.956350573858 ,22.1893710583315
19.9934928 ,Left ,48.6990082515177 ,51.9508908769576 ,22.1842684026245
20.0084111 ,Left ,48.6872687032837 ,51.9553455020025 ,22.1796557865756
20.0309476 ,Left ,48.6527988986311 ,51.9637631614908 ,22.1506480571681
20.0534645 ,Left ,48.6236816093584 ,51.991302635874 ,22.1046744193786
20.0686517 ,Left ,48.6083533895981 ,52.052952084395 ,22.0864973081112
20.0910732 ,Left ,48.6143089821907 ,52.1322889576866 ,22.1200545534358
20.1133315 ,Left ,48.6328867485727 ,52.2046402336081 ,22.1645221783516
20.1284282 ,Left ,48.6295982364383 ,52.2933331019954 ,22.2104889414403
20.1508885 ,Left ,48.5815698368957 ,52.371892176788 ,22.2364141939959
20.175051 ,Left ,48.544688860119 ,52.4370372427723 ,22.2469779847877
20.1899717 ,Left ,48.5554680433736 ,52.456804510889 ,22.2307822662127
20.2109605 ,Left ,48.5683282500791 ,52.463906630405 ,22.2101349564748
20.2333321 ,Left ,48.5167722256107 ,52.4614825966121 ,22.1857616307372
20.2485591 ,Left ,48.4125761750379 ,52.4751065643212 ,22.163522614089
20.271007 ,Left ,48.2876305946935 ,52.5000450147076 ,22.1545453316325
20.2934679 ,Left ,48.2198801753494 ,52.5172296449386 ,22.1422390250495
20.3158809 ,Left ,48.2050888170199 ,52.5276714926536 ,22.1264029901034
20.3310457 ,Left ,48.2144533418563 ,52.5420981168281 ,22.1224716205904
20.3534486 ,Left ,48.2257349622368 ,52.552877484439 ,22.1198566266048
20.3759341 ,Left ,48.2696254932801 ,52.5221950120364 ,22.1303033388039
20.3908821 ,Left ,48.3149313099389 ,52.4840201296839 ,22.1485331702176
20.4134986 ,Left ,48.3172851259211 ,52.4587336357586 ,22.1648208309172
20.4359925 ,Left ,48.2935264285356 ,52.462495864056 ,22.2002213960242
20.450858 ,Left ,48.2127751539256 ,52.4546436942206 ,22.2023387170772
20.4733726 ,Left ,48.1917756728437 ,52.4574452283252 ,22.1864801498925
20.4959724 ,Left ,48.218177528178 ,52.452530323791 ,22.1819551177564
20.511056 ,Left ,48.2247140275217 ,52.4325108430088 ,22.1886639689371
20.5335574 ,Left ,48.2322929299349 ,52.417102339346 ,22.1954506446775
20.5560908 ,Left ,48.3042046983789 ,52.3804824318097 ,22.2044711612019
20.5708266 ,Left ,48.344087287158 ,52.349035459824 ,22.1993476287495
20.593343 ,Left ,48.3519586131157 ,52.3686359834703 ,22.2519218099176
20.6160391 ,Left ,48.3099763160186 ,52.4114855829979 ,22.2944179383394
20.630992 ,Left ,48.242542003644 ,52.440159501742 ,22.3138916366572
20.6533843 ,Left ,48.247860855926 ,52.4435411558471 ,22.3144130894321
20.6760915 ,Left ,48.3072708296812 ,52.4410669687474 ,22.3108049175026
20.6907811 ,Left ,48.3064195127088 ,52.4522329601942 ,22.3122353103738
20.7134798 ,Left ,48.1879384659742 ,52.4765478730933 ,22.2949602925592
20.7360146 ,Left ,48.0829957523592 ,52.5384605771519 ,22.2667489686752
20.7510929 ,Left ,48.0925249927853 ,52.6099613242733 ,22.2120064489107
20.7734492 ,Left ,48.1734744018282 ,52.6475561646123 ,22.1639853725329
20.7959505 ,Left ,48.2368710867649 ,52.6543325044653 ,22.1360656027449
20.8108218 ,Left ,48.2249521328268 ,52.6503600711681 ,22.1073075442391
20.8333172 ,Left ,48.166471372192 ,52.6521912705313 ,22.0742842407674
20.855851 ,Left ,48.1513779625656 ,52.6665301790116 ,22.0299479024932
20.8711694 ,Left ,48.1795999759106 ,52.6692647739913 ,21.9761515766653
20.8935166 ,Left ,48.1995469313006 ,52.6887967520217 ,21.9424265718642
20.9158765 ,Left ,48.2013890177964 ,52.7140228102824 ,21.9143400285936
20.9310471 ,Left ,48.192900418384 ,52.735735714553 ,21.8912435448247
20.9533727 ,Left ,48.1818521773143 ,52.7604090669637 ,21.8736320220454
20.9760033 ,Left ,48.1842088928131 ,52.7887472769668 ,21.8567347472171
20.9910933 ,Left ,48.194072162962 ,52.8139928264901 ,21.8419483509352
21.0134607 ,Left ,48.1937672419548 ,52.8299126024505 ,21.8270166641949
21.0360444 ,Left ,48.1845375081169 ,52.8410975130987 ,21.814782312556
21.0510641 ,Left ,48.2058205042179 ,52.8272153554632 ,21.8048000992469
21.0733523 ,Left ,48.2192388143396 ,52.8253839055226 ,21.7979667554786
21.0958758 ,Left ,48.2061967528634 ,52.8347229851985 ,21.7881387767567
21.1110614 ,Left ,48.2054255443192 ,52.8145819865349 ,21.8008477855369
21.1334536 ,Left ,48.261744869546 ,52.7526181483601 ,21.8136362827037
21.1558572 ,Left ,48.3061510652118 ,52.6544380823688 ,21.8232274614908
21.1709426 ,Left ,48.3259448378976 ,52.5928385854514 ,21.8658770953896
21.1934535 ,Left ,48.3277957509601 ,52.54588761332 ,21.9283042547179
21.2158542 ,Left ,48.2867058366437 ,52.5036816323418 ,21.9655197320294
21.2311133 ,Left ,48.3145049444243 ,52.4657240334642 ,21.9874558023856
21.253515 ,Left ,48.3761919591377 ,52.4441679913573 ,22.0048942420649
21.2759292 ,Left ,48.4139896391938 ,52.3977477981391 ,22.0045931885742
21.2984672 ,Left ,48.4218880063212 ,52.3640078666937 ,22.0102692998037
21.3210484 ,Left ,48.3954641062603 ,52.3563620050584 ,22.0169249428336
21.343484 ,Left ,48.3916510107679 ,52.3423761621475 ,22.0214415027984
21.3733596 ,Left ,48.4999741906022 ,52.3004601942031 ,22.0444833784141
21.3958889 ,Left ,48.5135317872966 ,52.2848928434628 ,22.0756076187044
21.4183642 ,Left ,48.5340884548996 ,52.2628542601215 ,22.0995766306311
21.4333367 ,Left ,48.5434297979811 ,52.2425323343165 ,22.1246849029577
21.4559312 ,Left ,48.552340285583 ,52.2276616596207 ,22.151776873713
21.4783301 ,Left ,48.5618610342442 ,52.2139546178448 ,22.1698447881897
21.49345 ,Left ,48.586762096073 ,52.197296685186 ,22.1869700238787
21.5158597 ,Left ,48.5982846451766 ,52.1711264958366 ,22.197926842868
21.5384302 ,Left ,48.6158011742364 ,52.1491586920583 ,22.202542973602
21.5535535 ,Left ,48.6232617785775 ,52.1336561083183 ,22.2088346052628
21.5760471 ,Left ,48.6065560190396 ,52.1436396843119 ,22.220509019551
21.5983981 ,Left ,48.5893095205682 ,52.1715490080691 ,22.2271494184092
21.613516 ,Left ,48.5914927824495 ,52.1952170684974 ,22.2301683224181
21.6359886 ,Left ,48.6142440118017 ,52.206933857311 ,22.2343802248356
21.658507 ,Left ,48.6106832808274 ,52.2149677111501 ,22.2330893675004
21.6734243 ,Left ,48.5823910572606 ,52.2238841844169 ,22.2348504513722
21.6959739 ,Left ,48.5481921858298 ,52.2260899415764 ,22.2242328836877
21.7182954 ,Left ,48.5266256809604 ,52.2163739154349 ,22.201522163652
21.7334226 ,Left ,48.5328210747228 ,52.2062804985116 ,22.1793115389669
21.7560317 ,Left ,48.5183716386553 ,52.1959031666371 ,22.1577362338789
21.7783179 ,Left ,48.4808800686812 ,52.2009106941418 ,22.124947789781
21.7934736 ,Left ,48.4632474011446 ,52.2234825544356 ,22.1018581707614
21.8160137 ,Left ,48.46453212746 ,52.2708164007043 ,22.104858150678
21.8386687 ,Left ,48.4654940804433 ,52.3077483328012 ,22.1271457533756
21.8543085 ,Left ,48.4744206374872 ,52.3453355724986 ,22.144588233967
21.8760891 ,Left ,48.4505788196939 ,52.377108937489 ,22.1611390510517
21.8982295 ,Left ,48.4317483903974 ,52.4032804540213 ,22.1640163682506
21.9135219 ,Left ,48.4188787123738 ,52.4433149728386 ,22.1536725364874
21.9359232 ,Left ,48.4033753372453 ,52.4861106261548 ,22.148513619463
21.958483 ,Left ,48.3670779564573 ,52.5429900467178 ,22.1593213614437
21.9734478 ,Left ,48.2988324418494 ,52.5768973091792 ,22.1751644803498
21.9960783 ,Left ,48.2182123412309 ,52.5877107906712 ,22.1677589430961
22.0183228 ,Left ,48.1535490745736 ,52.5813497311688 ,22.1500459736308
22.033474 ,Left ,48.1249093842849 ,52.5687498410072 ,22.1416002335844
22.0588339 ,Left ,48.141461356979 ,52.5607147738472 ,22.1482238740796
22.078326 ,Left ,48.1809634555238 ,52.5394733001078 ,22.1816669477019
22.0935303 ,Left ,48.1638945802658 ,52.5276952706808 ,22.1960905404378
22.1160623 ,Left ,48.0948793784754 ,52.5399871120433 ,22.1960751549938
22.1382372 ,Left ,48.015750995277 ,52.5536104694969 ,22.1607048143855
22.1535073 ,Left ,48.0080835123123 ,52.5608060736311 ,22.1280066477522
22.1760848 ,Left ,48.0728988692875 ,52.5544707909509 ,22.0846063627167
22.1983925 ,Left ,48.0540179543605 ,52.5233394231437 ,22.0558804025958
22.2133818 ,Left ,48.0098280674138 ,52.5194209804518 ,22.0529858158509
22.2360075 ,Left ,48.0356925540393 ,52.5129632290534 ,22.0729602290784
22.2583845 ,Left ,48.0953874575503 ,52.4982618115155 ,22.0902817514194
22.2808661 ,Left ,48.1357322913471 ,52.4995292475756 ,22.1265177343034
22.2958918 ,Left ,48.1294141593135 ,52.520931852023 ,22.173934271447
22.3184519 ,Left ,48.1265226468557 ,52.5376662118223 ,22.2072258320272
22.341171 ,Left ,48.1346188213603 ,52.5493721567863 ,22.2337521643507
22.3558946 ,Left ,48.0978930690454 ,52.5662301542234 ,22.2436658269803
22.3784559 ,Left ,48.1514409079102 ,52.5931725408168 ,22.2505938015831
22.4008613 ,Left ,48.2067705601209 ,52.6014538971469 ,22.2424625112517
22.4160521 ,Left ,48.1418951900784 ,52.6286940212863 ,22.2257532701688
22.4383719 ,Left ,48.0344085213546 ,52.6819410673388 ,22.1946432218534
22.4610069 ,Left ,48.0600183979386 ,52.7021483438618 ,22.1467109947938
22.4760508 ,Left ,48.1397936258354 ,52.6861936640951 ,22.1072726182609
22.4985913 ,Left ,48.1572891826461 ,52.6529524269261 ,22.0815548521615
22.5210382 ,Left ,48.1315152365008 ,52.6229782977668 ,22.0549829948204
22.5365742 ,Left ,48.1313162106794 ,52.5970542706567 ,22.0074904942567
22.5584444 ,Left ,48.1501169963906 ,52.5726223056193 ,21.9563353663862
22.5810804 ,Left ,48.1618608140762 ,52.5701844563872 ,21.9127867442935
22.5958532 ,Left ,48.1867836813607 ,52.5744141774445 ,21.8697522822917
22.6185185 ,Left ,48.2188635607607 ,52.5878441733486 ,21.8236927563239
22.6409757 ,Left ,48.2091104071799 ,52.6173095537395 ,21.7958081127417
22.6564532 ,Left ,48.1737196211444 ,52.6586842636891 ,21.7746940071131
22.678325 ,Left ,48.1576920841707 ,52.693280873626 ,21.7453558483031
22.7010931 ,Left ,48.1722387278084 ,52.7184884169487 ,21.7218650459585
22.7158653 ,Left ,48.2049680545273 ,52.7157627251216 ,21.7121107556875
22.738411 ,Left ,48.2197755877861 ,52.7031268262185 ,21.7072129731657
22.7608777 ,Left ,48.1941401931893 ,52.7051408504129 ,21.718085307495
22.7760209 ,Left ,48.1260095114905 ,52.7444522367211 ,21.7474265939575
22.798386 ,Left ,48.0400869134251 ,52.7878981740586 ,21.7541948127029
22.8209487 ,Left ,48.0712665411808 ,52.7884226154838 ,21.7619973606303
22.8431686 ,Left ,48.0980255259176 ,52.7945623603246 ,21.8023185721302
22.8583461 ,Left ,48.0946599232583 ,52.7751010638575 ,21.8631925976863
22.8810598 ,Left ,48.1732936628407 ,52.713210379939 ,21.9251790497008
22.9034991 ,Left ,48.255827555535 ,52.619452768108 ,21.9829083027126
22.9183182 ,Left ,48.284383838033 ,52.5229611535888 ,22.026339193109
22.9409565 ,Left ,48.284087250041 ,52.4506819554191 ,22.0550181383343
22.9634955 ,Left ,48.2918997823384 ,52.4093044827106 ,22.1017908106993
22.9783801 ,Left ,48.2532199424782 ,52.3833854595733 ,22.1242614776259
23.0007591 ,Left ,48.262999174003 ,52.3552605694645 ,22.1266592625228
23.0160287 ,Left ,48.2843558048697 ,52.3385271446779 ,22.113867606562
23.0384477 ,Left ,48.3286822147211 ,52.3097556253135 ,22.0967002936474
23.0607865 ,Left ,48.3307261010977 ,52.2883309098015 ,22.0787076903347
23.0758283 ,Left ,48.2719856132347 ,52.3005663629744 ,22.0687861922156
23.0982944 ,Left ,48.2881441059097 ,52.296040980533 ,22.0567350418859
23.1209584 ,Left ,48.3535028917735 ,52.2738803707628 ,22.0504343045104
23.1358943 ,Left ,48.3845186238775 ,52.2493702574657 ,22.0636578661585
23.1585574 ,Left ,48.3734418291544 ,52.2354454892437 ,22.082458595649
23.180799 ,Left ,48.3694768590841 ,52.2178863468555 ,22.0995471674402
23.1960086 ,Left ,48.3740265893366 ,52.1918316514767 ,22.1278489586738
23.2183138 ,Left ,48.4078740321211 ,52.1612997498477 ,22.1543691139398
23.2409644 ,Left ,48.4303228525104 ,52.1418910554411 ,22.171937882874
23.2633323 ,Left ,48.4318412165314 ,52.1406325804815 ,22.1722565469623
23.2785176 ,Left ,48.4588478025475 ,52.127422934373 ,22.1652264716769
23.3008227 ,Left ,48.4815745798145 ,52.1152492393052 ,22.1575471871681
23.3233063 ,Left ,48.4925078938628 ,52.1132190555123 ,22.1530521670621
23.3392271 ,Left ,48.4819219565782 ,52.1189973343025 ,22.147958527108
23.3610024 ,Left ,48.4914399258019 ,52.130578904978 ,22.14149841261
23.3832395 ,Left ,48.5095979055573 ,52.1404408847076 ,22.1367645122815
23.3908771 ,Left ,48.5215709693791 ,52.1454937643277 ,22.137265533043
23.4134302 ,Left ,48.5316140606053 ,52.1452198507017 ,22.1416805897891
23.4510364 ,Left ,48.5432269995311 ,52.1401374268677 ,22.161960282432
23.474369 ,Left ,48.5496093659806 ,52.1381862690859 ,22.1718144567498
23.5109603 ,Left ,48.5381061331281 ,52.1638008809449 ,22.1792979852453
23.534165 ,Left ,48.5493877104322 ,52.1743925674363 ,22.176407089292
23.5710773 ,Left ,48.5653825486248 ,52.2000975411545 ,22.1628739858656
23.5933076 ,Left ,48.5592845598233 ,52.2145206127194 ,22.1543313859336
23.6309542 ,Left ,48.5691440307639 ,52.2300557425746 ,22.1385327012671
23.6534481 ,Left ,48.5757814949975 ,52.2290653869766 ,22.1334420323337
23.6909417 ,Left ,48.5702072966988 ,52.2284301029841 ,22.13260103123
23.7135707 ,Left ,48.5790949891177 ,52.2237959310758 ,22.1344105091129
23.750722 ,Left ,48.5806138991403 ,52.222538597869 ,22.1347236043119
23.7733426 ,Left ,48.5778514170856 ,52.2222986284324 ,22.1344382144246
23.8108902 ,Left ,48.5775760243972 ,52.2250532782528 ,22.1340971785739
23.8332778 ,Left ,48.5788196014911 ,52.226550617355 ,22.1340694483015
23.870984 ,Left ,48.5680872249166 ,52.2350411834323 ,22.1313325309275
23.8943193 ,Left ,48.5614564752714 ,52.2455799565631 ,22.1293811067166
23.9308279 ,Left ,48.5744001108734 ,52.2557541495348 ,22.1115483704204
23.9535411 ,Left ,48.5863803011019 ,52.2673587542737 ,22.1020929086602
23.9907355 ,Left ,48.5455375020694 ,52.3527480631906 ,22.1072187135503
24.0133086 ,Left ,48.4846879466546 ,52.4083589095991 ,22.1040828741965
24.0507719 ,Left ,48.4188880492239 ,52.4949149542604 ,22.0948972568155
24.0734778 ,Left ,48.4303927380862 ,52.5479394071466 ,22.1102466832991
24.1108725 ,Left ,48.460614984572 ,52.582489062946 ,22.1457514086103
24.1334542 ,Left ,48.405936281207 ,52.5850825884959 ,22.1253384545923
24.1707334 ,Left ,48.3338536669048 ,52.5384614178806 ,22.0555443175145
24.1934305 ,Left ,48.2987697783015 ,52.4856902426282 ,22.006168569774
24.2308945 ,Left ,48.1176703144216 ,52.4318413663809 ,21.9457715941066
24.2532152 ,Left ,48.0970061548693 ,52.4283840325168 ,21.9431686649304
24.2907879 ,Left ,48.2633139921932 ,52.46441129465 ,22.004312956822
24.3133728 ,Left ,48.278976387037 ,52.496532183854 ,22.0630637459499
24.3508699 ,Left ,48.1767873636008 ,52.6006451988184 ,22.1354331011073
24.3734357 ,Left ,48.1570832022173 ,52.6409102788682 ,22.1442068539658
24.4108423 ,Left ,48.254466759441 ,52.6317411765199 ,22.1542751521034
24.4334416 ,Left ,48.2233973252653 ,52.6303157444523 ,22.1773021178756
24.4710416 ,Left ,48.2350380749765 ,52.591494964509 ,22.1906215345863
24.493443 ,Left ,48.2664131483324 ,52.5943331618379 ,22.219351347997
24.5306965 ,Left ,48.2258784569888 ,52.5724100081136 ,22.2405967205464
24.5535027 ,Left ,48.189666126909 ,52.5604331866281 ,22.2251636592426
24.5911597 ,Left ,48.196460309243 ,52.513843490367 ,22.139568157992
24.6134387 ,Left ,48.1898531895217 ,52.491908183971 ,22.1023099218754
24.6509441 ,Left ,48.0249695348296 ,52.5716837306644 ,22.0469409140815
24.6732731 ,Left ,48.0610901080654 ,52.6016320063831 ,22.0021647592977
24.7107385 ,Left ,48.1883424994625 ,52.6254785466596 ,21.9474815529503
24.7335293 ,Left ,48.1557328988087 ,52.6547584242463 ,21.9257727629742
24.7709418 ,Left ,48.1666236636725 ,52.7263665669157 ,21.8669491441847
24.7933132 ,Left ,48.1669637421824 ,52.7536096871545 ,21.8259370228898
24.8308623 ,Left ,48.1356338474495 ,52.8188657104774 ,21.7429138873722
24.8535433 ,Left ,48.0791269943332 ,52.8542907139437 ,21.7001803697135
24.8910287 ,Left ,48.0164895117108 ,52.8863694319104 ,21.6349598483058
24.9132819 ,Left ,48.029767871651 ,52.8629811804508 ,21.6163075221212
24.9507343 ,Left ,48.0527752668454 ,52.8150190106521 ,21.5822044351364
24.973252 ,Left ,48.0608566243851 ,52.8037707785296 ,21.5665765296128
25.0108535 ,Left ,48.3123703887533 ,52.7128966961408 ,21.5622228248226
25.0331662 ,Left ,48.3314504524276 ,52.6699472926164 ,21.5813025114991
25.0708837 ,Left ,48.2531099511393 ,52.6176785726532 ,21.6179606730559
25.0935177 ,Left ,48.2771999704967 ,52.5608703439247 ,21.5992291608246
25.1308515 ,Left ,48.4355858343363 ,52.4231627978185 ,21.6017680839509
25.1532042 ,Left ,48.4605387171665 ,52.3715848509853 ,21.6341742329681
25.1909254 ,Left ,48.4781767049825 ,52.3403904407851 ,21.7088849680622
25.2132361 ,Left ,48.585703358344 ,52.3191170482234 ,21.7439881176537
25.2285448 ,Left ,48.632251817226 ,52.2964806171995 ,21.7958653770868
25.243295 ,Left ,48.6133301168322 ,52.2829172769249 ,21.8565031522414
25.2659974 ,Left ,48.589229332422 ,52.2576567632515 ,21.9060870258004
25.2882334 ,Left ,48.5703387204685 ,52.238561183709 ,21.9611637931965
25.3034875 ,Left ,48.5867130357568 ,52.2226402617208 ,22.0111154331875
25.3270147 ,Left ,48.6308274512797 ,52.2004282130941 ,22.0554999307582
25.3485668 ,Left ,48.6469775756721 ,52.1784324641407 ,22.0966221715106
25.3634416 ,Left ,48.6447423675395 ,52.1503107518895 ,22.1243977309636
25.3860417 ,Left ,48.6354715430594 ,52.1263763868269 ,22.1381685186364
25.4085103 ,Left ,48.612963862664 ,52.1146991601604 ,22.1369857998318
25.4233241 ,Left ,48.6041711573538 ,52.1164778941609 ,22.1325786213394
25.4459727 ,Left ,48.6024605600107 ,52.1176296350199 ,22.1292887249387
25.4684474 ,Left ,48.6022314839595 ,52.1205318274111 ,22.1292284810709
25.4831634 ,Left ,48.5904362690007 ,52.1306412427368 ,22.1325116815784
25.5058426 ,Left ,48.5800808129526 ,52.14235618124 ,22.1387402342851
25.5282883 ,Left ,48.5686063734058 ,52.1498709645461 ,22.1425948088259
25.5462453 ,Left ,48.5737333782816 ,52.155810925889 ,22.1452063801036
25.565958 ,Left ,48.5824573620047 ,52.1568923221431 ,22.1522883202558
25.5883398 ,Left ,48.5731255309455 ,52.1547871032281 ,22.1544611576409
25.6035261 ,Left ,48.5593174599654 ,52.1535951479961 ,22.153055708311
25.6257867 ,Left ,48.5593174599654 ,52.1535951479961 ,22.153055708311
25.6485089 ,Left ,48.556054122123 ,52.1464624591917 ,22.1564592805803
25.6633254 ,Left ,48.5516119074605 ,52.1443585048106 ,22.1499660161135
25.6933803 ,Left ,48.5268607848368 ,52.1545643885809 ,22.1457773297838
25.7157698 ,Left ,48.5127431699143 ,52.1837419633916 ,22.1406140100038
25.7310656 ,Left ,48.4936096784453 ,52.2220009425027 ,22.1361884324147
25.7459468 ,Left ,48.4735476660166 ,52.271395860233 ,22.1332269406595
25.7685534 ,Left ,48.4654848947569 ,52.3260116265932 ,22.1309326534398
25.7833448 ,Left ,48.4521605170836 ,52.3743656843337 ,22.1253740380396
25.8061781 ,Left ,48.433824219353 ,52.4197717334441 ,22.1227018705051
25.8356401 ,Left ,48.4155816477363 ,52.459433410052 ,22.1146743673025
25.8509492 ,Left ,48.3938186042334 ,52.4794760447137 ,22.1088539904482
25.8735781 ,Left ,48.3670307205885 ,52.4811562856745 ,22.1049534729714
25.8884247 ,Left ,48.3660749771872 ,52.4768980009082 ,22.105370760407
25.9034925 ,Left ,48.3869469690354 ,52.4497238841919 ,22.1090249484348
25.9259466 ,Left ,48.4015825010277 ,52.4181052135034 ,22.1156461436872
25.9483931 ,Left ,48.4113580674654 ,52.4103449469039 ,22.1422095659841
25.9633218 ,Left ,48.4221553484428 ,52.4005085722383 ,22.1786068230451
25.9860066 ,Left ,48.447851437646 ,52.3872724376283 ,22.2079917425906
26.0084909 ,Left ,48.4380371376317 ,52.3718141161895 ,22.2238026768343
26.0232972 ,Left ,48.4322834365827 ,52.3466389041621 ,22.2266954219291
26.0460197 ,Left ,48.44765962764 ,52.3072833652431 ,22.218684140643
26.0684951 ,Left ,48.478753176057 ,52.2654170424932 ,22.2132709272724
26.0909473 ,Left ,48.4576895070644 ,52.2342783236369 ,22.2084895407053
26.1060547 ,Left ,48.4128200459894 ,52.2206751359886 ,22.2018339638346
26.1290899 ,Left ,48.4058076843593 ,52.2096844227828 ,22.1871570457489
26.1507732 ,Left ,48.424260142312 ,52.1897575208243 ,22.1681328563253
26.1658438 ,Left ,48.4213383298981 ,52.1681124603054 ,22.1581212356228
26.1884677 ,Left ,48.3972147052842 ,52.151687446543 ,22.1480100655416
26.2108018 ,Left ,48.3890671366353 ,52.1300031497276 ,22.1409226956146
26.225981 ,Left ,48.3973127005172 ,52.1059926233932 ,22.1478911463589
26.2484577 ,Left ,48.3776388987696 ,52.1304587762612 ,22.1755295298614
26.2709419 ,Left ,48.2718149964797 ,52.1523601228652 ,22.2133988717368
26.285818 ,Left ,48.1403752622128 ,52.209069960836 ,22.2091489114443
26.3085025 ,Left ,48.1347803477605 ,52.227184094523 ,22.1937216510867
26.330931 ,Left ,48.2268532713311 ,52.2276307639239 ,22.1852163099144
26.3459176 ,Left ,48.2883121100218 ,52.2123665664573 ,22.1924789875298
26.3683528 ,Left ,48.265887401493 ,52.204293027272 ,22.1785586034919
26.3909439 ,Left ,48.1969600539607 ,52.2346124484057 ,22.1830491196947
26.407188 ,Left ,48.135627737361 ,52.2833675242199 ,22.1826025257067
26.4285457 ,Left ,48.1313561823676 ,52.2971791985796 ,22.1618783869195
26.4509147 ,Left ,48.1432468049553 ,52.284094297685 ,22.1564379053994
26.465941 ,Left ,48.1600631218002 ,52.2489617094126 ,22.1701094236582
26.4883525 ,Left ,48.1809633998487 ,52.2001126260955 ,22.1856205539754
26.5110853 ,Left ,48.1718782926557 ,52.1890798391294 ,22.1983063262433
26.5259314 ,Left ,48.1715703392167 ,52.1916602224283 ,22.1976694872251
26.5482641 ,Left ,48.2069870403908 ,52.2279490618561 ,22.1975746115461
26.5707565 ,Left ,48.2695983895718 ,52.244643599766 ,22.2038163647145
26.58585 ,Left ,48.2300017161078 ,52.2821618768008 ,22.2201663712054
26.6082629 ,Left ,48.1263578197367 ,52.2985609170049 ,22.2243152472799
26.630824 ,Left ,48.1421130047877 ,52.3088326256796 ,22.207203116581
26.6460132 ,Left ,48.2177428540336 ,52.3013971431615 ,22.2097163863743
26.6683229 ,Left ,48.1806277722369 ,52.3061674511943 ,22.2008734085164
26.6908605 ,Left ,48.0763873079654 ,52.3679763874718 ,22.1981469840867
26.705885 ,Left ,48.0629600738657 ,52.4169017656753 ,22.1738548465905
26.7282975 ,Left ,48.1394256940497 ,52.4204405322561 ,22.1478893969506
26.7509417 ,Left ,48.1793759084386 ,52.4172509704437 ,22.1240879046429
26.7658777 ,Left ,48.1655913447644 ,52.4012585683171 ,22.1062117525635
26.7884173 ,Left ,48.1264873888082 ,52.3797202323633 ,22.0764992111258
26.810868 ,Left ,48.1623202768268 ,52.3564205120237 ,22.0457327478348
26.8259334 ,Left ,48.2142745721779 ,52.330701988877 ,22.023164363893
26.8483076 ,Left ,48.2308006520543 ,52.3139289947965 ,22.0187158645223
26.8710255 ,Left ,48.2280336872415 ,52.3136815170939 ,22.0183976687241
26.8859335 ,Left ,48.251898846263 ,52.3088081786391 ,22.016337461548
26.9085756 ,Left ,48.2872408396292 ,52.2994669340206 ,22.0135420015774
26.93093 ,Left ,48.3026801101262 ,52.2965731220594 ,22.0128242978238
26.9534535 ,Left ,48.314767608138 ,52.2989413689446 ,22.011039037831
26.9683219 ,Left ,48.314767608138 ,52.2989413689446 ,22.011039037831
26.9910242 ,Left ,48.3132386054539 ,52.300194053752 ,22.0106968098734
27.0060534 ,Left ,48.3104729665672 ,52.2999452891074 ,22.010386145472
27.0285184 ,Left ,48.3132386054539 ,52.300194053752 ,22.0106968098734
27.0509819 ,Left ,48.3117095429137 ,52.3014467529094 ,22.0103543473892
27.0733337 ,Left ,48.3075893315342 ,52.3056310687367 ,22.0155982199399
27.0885162 ,Left ,48.3060602679503 ,52.3068841897799 ,22.0152548290675
27.1107705 ,Left ,48.3060602679503 ,52.3068841897799 ,22.0152548290675
27.1335031 ,Left ,48.3062300683246 ,52.3068412883911 ,22.0179710746402
27.148253 ,Left ,48.2967198745336 ,52.3169432345667 ,22.0152485991841
27.1707539 ,Left ,48.2981797091456 ,52.3251983970697 ,22.0084362702608
27.1933193 ,Left ,48.3011228004267 ,52.3320303146409 ,22.0016864986977
27.2083106 ,Left ,48.2985298162836 ,52.3383639999209 ,21.9943050871992
27.2310878 ,Left ,48.2824039816766 ,52.3530378310243 ,21.9838797467251
27.2533261 ,Left ,48.268610233997 ,52.3734204254321 ,21.9756853287046
27.2684065 ,Left ,48.2661173689962 ,52.3893850797198 ,21.9640800823396
27.290966 ,Left ,48.2747606163322 ,52.4034780028779 ,21.9511330791174
27.3134613 ,Left ,48.2783809795715 ,52.4144445296772 ,21.9409270326437
27.3286964 ,Left ,48.2624684933988 ,52.438689309374 ,21.9288883384897
27.3508109 ,Left ,48.2472299346364 ,52.4670569523271 ,21.9133550818382
27.3733567 ,Left ,48.2415702436014 ,52.4948071478813 ,21.8961030881709
27.3884864 ,Left ,48.2487909037511 ,52.5233305367948 ,21.8684251402405
27.4108815 ,Left ,48.2369639081355 ,52.5531888402564 ,21.8469938487052
27.4334606 ,Left ,48.2072692269849 ,52.5856788303904 ,21.831414410794
27.4482617 ,Left ,48.1660883521176 ,52.6102031512296 ,21.8182185385282
27.4709781 ,Left ,48.1316018129319 ,52.6310018294052 ,21.7976486974134
27.5009751 ,Left ,48.1069276380632 ,52.6416739898095 ,21.7827638470988
27.5159706 ,Left ,48.1402385003616 ,52.6362293168953 ,21.7764711242696
27.5383634 ,Left ,48.167670524428 ,52.6321933231651 ,21.7841425146535
27.5534601 ,Left ,48.1063661783872 ,52.6371245177322 ,21.8019676921803
27.5683177 ,Left ,48.1263391534627 ,52.6133586160711 ,21.8426120104732
27.5909673 ,Left ,48.2146800658679 ,52.5311383410695 ,21.8682366584018
27.6132837 ,Left ,48.2176092536988 ,52.4894747177102 ,21.9179013211071
27.6284537 ,Left ,48.1571820724801 ,52.4992423112342 ,22.0021518853842
27.6508123 ,Left ,48.1274246020283 ,52.4985880033935 ,22.0433047387581
27.6733541 ,Left ,48.1668037549168 ,52.4785821601952 ,22.0431936257852
27.688338 ,Left ,48.2411089887515 ,52.4268968518045 ,22.0432787572454
27.7109834 ,Left ,48.3054167809889 ,52.3750829979375 ,22.0568460678102
27.733734 ,Left ,48.2733458060011 ,52.3357171576484 ,22.076213397456
27.7558189 ,Left ,48.2024845703564 ,52.3446505864733 ,22.1015683742749
27.7707408 ,Left ,48.2679544902777 ,52.352455059196 ,22.1157277263864
27.7933715 ,Left ,48.3715277333624 ,52.3414858495748 ,22.1344016153683
27.808313 ,Left ,48.3837418565406 ,52.3454988477273 ,22.1716872872123
27.8309537 ,Left ,48.3659997597121 ,52.3538220184158 ,22.2017474807149
27.8533136 ,Left ,48.3419891118046 ,52.3610081335226 ,22.2216550242663
27.8682062 ,Left ,48.3564221512309 ,52.3654158604733 ,22.2347860103012
27.8908352 ,Left ,48.395645382671 ,52.3635005714507 ,22.2377188558837
27.9134387 ,Left ,48.4287499284537 ,52.3508539815837 ,22.2403360557662
27.9284876 ,Left ,48.425109928583 ,52.3255584466452 ,22.2345800557196
27.9512208 ,Left ,48.4116889807009 ,52.2947499998739 ,22.2218057207356
27.9734223 ,Left ,48.3963595000415 ,52.2649553683485 ,22.2027241339874
27.9958691 ,Left ,48.4137009713931 ,52.234725979198 ,22.1756681904772
28.0109464 ,Left ,48.4344837385563 ,52.2059152082796 ,22.1398266738593
28.0333132 ,Left ,48.4298121490584 ,52.1890654739009 ,22.1111755124398
28.0558428 ,Left ,48.4178339250172 ,52.1903347684785 ,22.1004079574549
28.070972 ,Left ,48.4110207651378 ,52.2034144802306 ,22.1004933854179
28.0934436 ,Left ,48.4192726531301 ,52.2223980169098 ,22.1052010709381
28.1157638 ,Left ,48.4327574752916 ,52.2381281238399 ,22.1201251581722
28.1310305 ,Left ,48.4308691639879 ,52.2537486784067 ,22.1329553522434
28.1533388 ,Left ,48.4194795809206 ,52.2641243836812 ,22.1420032647148
28.1757603 ,Left ,48.4133924966559 ,52.2691575842778 ,22.140679469137
28.1908695 ,Left ,48.4143180536718 ,52.264502081434 ,22.1291506334585
28.2132899 ,Left ,48.4122454215735 ,52.2625263997802 ,22.1172244208732
28.2359156 ,Left ,48.394990100943 ,52.2605565029514 ,22.1061747328876
28.2510947 ,Left ,48.3870850797677 ,52.2511616103765 ,22.1001025679111
28.2735242 ,Left ,48.3844052611004 ,52.2328186052212 ,22.0962888173333
28.2958843 ,Left ,48.3962334391597 ,52.207468807343 ,22.0923165137203
28.3107949 ,Left ,48.3925910357938 ,52.2001001750329 ,22.0897717972621
28.3332709 ,Left ,48.3624329550734 ,52.2403524836432 ,22.0894964050637
28.3558393 ,Left ,48.3347531355811 ,52.3165484579956 ,22.1117981747752
28.3709387 ,Left ,48.3063587198696 ,52.3851248201603 ,22.1497888588906
28.3932159 ,Left ,48.3812049690092 ,52.4019218509513 ,22.1362434999536
28.4159587 ,Left ,48.3628496527992 ,52.4153979553064 ,22.1650129775605
28.4310419 ,Left ,48.2780543473906 ,52.4202585465744 ,22.1831045003726
28.4533165 ,Left ,48.2537450262674 ,52.4097541817208 ,22.1783519007517
28.4759076 ,Left ,48.314305204171 ,52.3644028176787 ,22.1385006509552
28.4910303 ,Left ,48.34939061371 ,52.3254631604392 ,22.0973257493352
28.5207027 ,Left ,48.2926691330411 ,52.3250694315346 ,22.0802499347619
28.5431612 ,Left ,48.205818056307 ,52.3523993118003 ,22.0828394085182
28.5583927 ,Left ,48.1056028670454 ,52.369629761731 ,22.0807430893188
28.5734992 ,Left ,48.0803414757479 ,52.3700306090473 ,22.0770619209614
28.5960344 ,Left ,48.0675825723484 ,52.3672706326843 ,22.0697740086116
28.6107667 ,Left ,48.039226552119 ,52.3512915631256 ,22.0770641255292
28.6334576 ,Left ,48.0243168565913 ,52.3364121557158 ,22.0803276569589
28.6557935 ,Left ,48.0510534875644 ,52.3133736388401 ,22.0752750483762
28.6782941 ,Left ,48.090701633222 ,52.2938763738254 ,22.0624204286237
28.6934788 ,Left ,48.0958014923098 ,52.3094820321629 ,22.0580803960069
28.7160015 ,Left ,48.0395599629116 ,52.352000329137 ,22.0647978252958
28.7383 ,Left ,47.9766063944179 ,52.3931128883694 ,22.0552918851244
28.7534997 ,Left ,47.993193345434 ,52.4254258884053 ,22.0591233621615
28.7758167 ,Left ,48.0434292809113 ,52.4115997792432 ,22.0809114467165
28.7908702 ,Left ,48.0608829797317 ,52.4032274385446 ,22.1329001509722
28.8134044 ,Left ,48.0619429598827 ,52.4307970874814 ,22.1775158945086
28.8359502 ,Left ,48.0374933610464 ,52.480160477266 ,22.2055709493649
28.850867 ,Left ,48.0349963747498 ,52.5554213335881 ,22.2418080656657
28.8736584 ,Left ,48.0425197853332 ,52.5974424401922 ,22.2607409364427
28.895947 ,Left ,47.9936712856163 ,52.6095612053613 ,22.2539744710602
28.9184321 ,Left ,47.9647562465507 ,52.6121258894822 ,22.2429827073175
28.9334273 ,Left ,47.9330128284194 ,52.6036019260804 ,22.1880199558618
28.9560503 ,Left ,47.9502406428578 ,52.5760031485859 ,22.1649883039276
28.9783307 ,Left ,47.9255417638401 ,52.5562026281397 ,22.1461446616856
28.9935042 ,Left ,47.8745316515405 ,52.5753975943371 ,22.122702328303
29.0157066 ,Left ,47.9048273865584 ,52.59737574222 ,22.0968275151837
29.0382372 ,Left ,47.9807458429135 ,52.6031828445595 ,22.0836544981865
29.0531735 ,Left ,48.0156927553723 ,52.602623030445 ,22.0708155878842
29.0682702 ,Left ,48.0101108024261 ,52.6181372639406 ,22.0556129149609
29.1058507 ,Left ,48.0121764139572 ,52.6471230628963 ,22.0022558099307
29.1356267 ,Left ,48.0291322483751 ,52.6565954808228 ,21.9698655960227
29.1657092 ,Left ,48.0292199345121 ,52.6898602618389 ,21.9157554094622
29.1888597 ,Left ,48.0034529011641 ,52.712327447593 ,21.8866055089726
29.2256323 ,Left ,47.9767843530461 ,52.7293697265111 ,21.8120942126796
29.248195 ,Left ,47.9634937811874 ,52.7361277061348 ,21.7811853133702
29.2856243 ,Left ,47.8854221564532 ,52.7300885498103 ,21.7108154652396
29.308251 ,Left ,47.8873926199013 ,52.7142572035393 ,21.698417821542
29.3459536 ,Left ,47.8393546517786 ,52.716031777119 ,21.7364039099582
29.368359 ,Left ,47.8906321552155 ,52.7032572431878 ,21.7656023361279
29.405893 ,Left ,48.0374711311127 ,52.5993777830261 ,21.7939274445893
29.4284524 ,Left ,48.0150211451018 ,52.5792501369859 ,21.8458467975966
29.4657529 ,Left ,47.9533699081907 ,52.5514494885905 ,21.901578515687
29.4884543 ,Left ,48.0238504291142 ,52.5108141800419 ,21.8980316175662
29.5258793 ,Left ,48.1183897889299 ,52.3967417612532 ,21.9113074255074
29.5482805 ,Left ,48.0809997053062 ,52.3568458874002 ,21.9301837252551
29.585954 ,Left ,48.1100743293452 ,52.3201065325793 ,21.9705056281988
29.6083744 ,Left ,48.1983144764783 ,52.2971058652991 ,21.9892557655142
29.6459907 ,Left ,48.2494038066618 ,52.2682477435325 ,22.0401542641239
29.6684506 ,Left ,48.2475600858966 ,52.2592149087747 ,22.0592320839803
29.7059385 ,Left ,48.2524490112266 ,52.2609638955978 ,22.0897254251926
29.7295527 ,Left ,48.268223349643 ,52.2644081659832 ,22.100769457984
29.7659025 ,Left ,48.2767216844396 ,52.2588212976929 ,22.1147072125206
29.7885067 ,Left ,48.2884900573726 ,52.2427743828711 ,22.10350648214
29.8258272 ,Left ,48.290296449012 ,52.230530685235 ,22.0751261398679
29.8481235 ,Left ,48.2959179451592 ,52.2345820298374 ,22.0631026896994
29.8858323 ,Left ,48.3196489459468 ,52.2331356004671 ,22.0452803896955
29.9085754 ,Left ,48.306201069464 ,52.2473893343413 ,22.0505798679566
29.9457851 ,Left ,48.2947396403629 ,52.2826707080043 ,22.0535232097252
29.9684023 ,Left ,48.3119972161814 ,52.2911482993069 ,22.0546098182734
30.0058737 ,Left ,48.2799626326471 ,52.3047680209969 ,22.0513648885275
30.0284466 ,Left ,48.2661248866498 ,52.3157155248876 ,22.0476910919084
30.0657273 ,Left ,48.2555528664892 ,52.3396888240167 ,22.0487404464254
30.0881952 ,Left ,48.249173963925 ,52.3598094149118 ,22.0451013176909
30.1258467 ,Left ,48.2003429692476 ,52.4454293534155 ,22.0409413047311
30.1481884 ,Left ,48.1527147217454 ,52.4977843511126 ,22.0626149755829
30.1858924 ,Left ,48.1344275021792 ,52.5568855452102 ,22.0295213195393
30.2083842 ,Left ,48.1391934944197 ,52.5722026370286 ,22.0218227890818
30.2459339 ,Left ,48.0717188164096 ,52.5687749504999 ,21.9908912620021
30.2680963 ,Left ,48.0821001222513 ,52.5361813878883 ,21.9609508680744
30.305738 ,Left ,48.0335470265346 ,52.5026690330041 ,21.9373196436407
30.3285483 ,Left ,47.9789601004999 ,52.4675531108047 ,21.9220303139383
30.3658078 ,Left ,47.9522893757319 ,52.3581117128866 ,21.9169254573701
30.3882087 ,Left ,47.919610441646 ,52.3151206108201 ,21.9216108427833
30.4257734 ,Left ,47.9378101363883 ,52.3306461329092 ,21.9435257157113
30.4484363 ,Left ,47.9753176159733 ,52.3482800792563 ,21.9495104056157
30.4859298 ,Left ,48.0028087004577 ,52.33737159126 ,21.9854512205938
30.5082722 ,Left ,48.0427019855505 ,52.2926563524957 ,22.0133680540376
30.5533081 ,Left ,48.1409761791008 ,52.1718655940231 ,22.0019107633196
30.5757305 ,Left ,48.120300889316 ,52.2051866666843 ,22.0097880454869
30.6284749 ,Left ,48.1428401920366 ,52.2102606934004 ,21.9112300790768
30.6659672 ,Left ,47.9726767140685 ,52.2309294661688 ,21.9420387029655
30.688244 ,Left ,47.858455142837 ,52.2804528106108 ,21.9452288589706
30.7257861 ,Left ,48.0142209409277 ,52.3390713618952 ,21.9744957707236
30.7484193 ,Left ,48.0950189637645 ,52.3681103207396 ,22.0157294378454
30.7784708 ,Left ,48.0707957096404 ,52.4231398840389 ,22.0738123619516
30.808321 ,Left ,48.0701560390173 ,52.4764757351506 ,22.1112341309646
30.8457488 ,Left ,48.0886817459603 ,52.5334692966741 ,22.1655337273552
30.8682244 ,Left ,48.0975329335864 ,52.5311669237371 ,22.1854714145506
30.9059412 ,Left ,47.9750354243804 ,52.5248020789496 ,22.2041755546184
30.9207703 ,Left ,47.9199909437475 ,52.5329705307384 ,22.1851961783937
30.9433048 ,Left ,47.9136780652936 ,52.511266967789 ,22.151693497483
30.9584353 ,Left ,47.8883969905777 ,52.5243368608059 ,22.1302078228579
30.9808406 ,Left ,47.8626743773421 ,52.5619010770053 ,22.098821021078
31.0032823 ,Left ,47.9082483990302 ,52.5809499709041 ,22.0698894369473
31.018426 ,Left ,47.9639264160357 ,52.5837479667909 ,22.059875489949
31.0408956 ,Left ,47.9535401154525 ,52.5837716382325 ,22.0521305285665
31.0635972 ,Left ,47.9076714225276 ,52.5838421719532 ,22.0509095522721
31.0785208 ,Left ,47.9079117277505 ,52.5844990872756 ,22.0386215538561
31.1008817 ,Left ,47.9460426258712 ,52.5574789721669 ,22.0157123139349
31.1237314 ,Left ,47.9715376371129 ,52.539489274118 ,22.0012606490254
31.1382904 ,Left ,47.996038164073 ,52.5201797756702 ,21.9897759373223
31.1608375 ,Left ,48.0234976366154 ,52.4918643664135 ,21.9861520327691
31.1832435 ,Left ,48.0397873672749 ,52.4654745181754 ,21.9836361617567
31.1984628 ,Left ,48.0508166145577 ,52.4481743573181 ,21.9788228509643
31.2207955 ,Left ,48.0620949017875 ,52.4435523150217 ,21.9753016309197
31.2435246 ,Left ,48.0802985378499 ,52.4439836840419 ,21.9780023784354
31.2582543 ,Left ,48.0948587013222 ,52.4493448101338 ,21.9762550753556
31.2811515 ,Left ,48.1046580180711 ,52.4642685962309 ,21.9785625612825
31.3033201 ,Left ,48.0971522681667 ,52.4916829739328 ,21.9881937650079
31.3183109 ,Left ,48.1032614912591 ,52.5269749671091 ,21.9869306098972
31.3414386 ,Left ,48.124573920302 ,52.5715704342724 ,21.9801823250553
31.3635196 ,Left ,48.1346855103421 ,52.6273497791227 ,21.969721961517
31.3784992 ,Left ,48.131992621414 ,52.6869166031391 ,21.9446020025389
31.4008835 ,Left ,48.1104063471386 ,52.7552091485348 ,21.9058058049479
31.4232839 ,Left ,48.0780001130065 ,52.8109739693868 ,21.8579661286821
31.4384675 ,Left ,47.9452614583925 ,52.867952714241 ,21.8106451746442
31.4611777 ,Left ,47.8957905528857 ,52.8806301535429 ,21.7725458734777
31.4834072 ,Left ,47.9260613804425 ,52.881206981625 ,21.7560700931875
31.5058086 ,Left ,47.8938589365248 ,52.9130999175652 ,21.7602931003105
31.5209548 ,Left ,47.8556487291509 ,52.9347340934153 ,21.7623725740535
31.5433984 ,Left ,47.9168896913415 ,52.910121777052 ,21.7649551625437
31.5660903 ,Left ,47.9867743750132 ,52.8519509949048 ,21.777286380793
31.580893 ,Left ,47.9849664859443 ,52.8136595209488 ,21.8173240375774
31.603323 ,Left ,47.9015879572411 ,52.7810504898752 ,21.8676107418836
31.6258424 ,Left ,47.8552482790532 ,52.7448849491161 ,21.8963082322513
31.6409697 ,Left ,47.9435827528172 ,52.6763932792332 ,21.8890835760635
31.6634883 ,Left ,48.067749226946 ,52.6077012571965 ,21.8954624658388
31.6858123 ,Left ,48.124478936304 ,52.5555295660574 ,21.9123582003895
31.7011977 ,Left ,48.0855923621125 ,52.5417304653351 ,21.9271689114075
31.7234939 ,Left ,48.0339642824159 ,52.5710194528445 ,21.9419582432023
31.745765 ,Left ,48.0944566426038 ,52.5824599847067 ,21.9494081421949
31.7608406 ,Left ,48.2060286601886 ,52.5723725226936 ,21.9615774969527
31.7832721 ,Left ,48.2295113037263 ,52.563060244208 ,21.9818298267709
31.8059899 ,Left ,48.1963584921031 ,52.5616242916732 ,22.0137071387398
31.8209575 ,Left ,48.2086770170053 ,52.5511171173613 ,22.0322902607448
31.8432872 ,Left ,48.2173891593461 ,52.5303087267241 ,22.0457666768554
31.8659573 ,Left ,48.2233297504062 ,52.5129778779983 ,22.0464543551504
31.8807539 ,Left ,48.2492479635876 ,52.4918407169452 ,22.0502507326454
31.9034791 ,Left ,48.2635631489991 ,52.4687974782609 ,22.061958363031
31.9258615 ,Left ,48.2616578144305 ,52.4413080253892 ,22.0744936658646
31.9410019 ,Left ,48.2585990463936 ,52.4162346690661 ,22.0749158394394
31.9632739 ,Left ,48.2632432983082 ,52.3941624265418 ,22.0723632431995
31.9859748 ,Left ,48.2680148288869 ,52.3847943106591 ,22.0684885749682
32.0008282 ,Left ,48.2597807649839 ,52.3811770022376 ,22.0649162507838
32.0234047 ,Left ,48.2767576799606 ,52.3648221099927 ,22.0667386105422
32.0460522 ,Left ,48.3079540990086 ,52.3409890902541 ,22.0649817310015
32.0609722 ,Left ,48.3056473386135 ,52.3257698744513 ,22.0698539710664
32.0834625 ,Left ,48.2730861748383 ,52.3232403188748 ,22.0750480334207
32.1057992 ,Left ,48.2717725698447 ,52.324627521987 ,22.0776914751843
32.120851 ,Left ,48.279645986035 ,52.3250944815196 ,22.0726569758438
32.1432765 ,Left ,48.3047388376736 ,52.3216871375202 ,22.0705365142184
32.1658433 ,Left ,48.3147146084037 ,52.3153968547593 ,22.0665867530776
32.1808978 ,Left ,48.3147146084037 ,52.3153968547593 ,22.0665867530776
32.2032717 ,Left ,48.313016916512 ,52.3288733801934 ,22.0614398301727
32.2259588 ,Left ,48.3305492646044 ,52.3652297735362 ,22.0647919115995
32.2409555 ,Left ,48.3437266442661 ,52.4054840984719 ,22.0700825312531
32.2634084 ,Left ,48.3017816889435 ,52.4470651153986 ,22.0640138700161
32.2859606 ,Left ,48.2611606522425 ,52.4633956078949 ,22.0438604224357
32.3009256 ,Left ,48.2485188396814 ,52.4584241332735 ,22.0186879585204
32.3235481 ,Left ,48.2705174438815 ,52.4156002054997 ,21.9822304781861
32.3458766 ,Left ,48.2507376730627 ,52.4017244249756 ,21.960241559983
32.3608105 ,Left ,48.1397131270274 ,52.4149700642892 ,21.9575085658443
32.3842841 ,Left ,48.0370410012881 ,52.4478694465914 ,21.9461911766015
32.4059006 ,Left ,47.9691619566281 ,52.4829070164635 ,21.9394848222704
32.4283495 ,Left ,47.9551813886084 ,52.5054547263224 ,21.9645940530163
32.4434633 ,Left ,47.9107358670569 ,52.518888662455 ,21.9797240169777
32.4657618 ,Left ,47.8545824661769 ,52.5333068041493 ,22.0048617119976
32.4808292 ,Left ,47.8763543616778 ,52.5223307075244 ,22.0194200324709
32.5033904 ,Left ,47.963375165388 ,52.4794303120124 ,22.0308898008599
32.5263547 ,Left ,48.0145087369065 ,52.4147771720257 ,22.0363346529764
32.5408097 ,Left ,48.0169271670638 ,52.3717205874375 ,22.0311180070215
32.5633513 ,Left ,47.9703184820268 ,52.3582362820525 ,22.0382826917647
32.5857429 ,Left ,47.9055324702129 ,52.3445811770379 ,22.0429570337077
32.6009367 ,Left ,47.9138846173103 ,52.3487246034713 ,22.0313037273302
32.6233007 ,Left ,47.9698127224726 ,52.3396191780438 ,22.026103689596
32.6459795 ,Left ,47.9620967658616 ,52.3333774756637 ,22.0259031255163
32.6611032 ,Left ,47.9102097147765 ,52.3476420679524 ,22.0187147207403
32.683396 ,Left ,47.9138867815788 ,52.3618875780911 ,21.9957749988491
32.7057615 ,Left ,47.9926534467974 ,52.3529589450406 ,21.981704460201
32.7284438 ,Left ,48.0149677473099 ,52.3433596262769 ,21.9713416756321
32.7436648 ,Left ,47.9970910477645 ,52.3278439024718 ,21.9710208863635
32.7657518 ,Left ,47.9882176502016 ,52.3046672406659 ,21.9699309759929
32.7885496 ,Left ,48.0032354995693 ,52.2831609709482 ,21.957137559445
32.8032931 ,Left ,47.9777529874886 ,52.2650138262036 ,21.9442085211214
32.8257737 ,Left ,47.9178380379883 ,52.2571438544934 ,21.9300824676115
32.8484344 ,Left ,47.9054442820424 ,52.2547829714148 ,21.910173445175
32.8633651 ,Left ,47.9254738454698 ,52.2269687837375 ,21.8992079967248
32.885931 ,Left ,47.9372565803241 ,52.2076258925203 ,21.8823584233716
32.908236 ,Left ,47.9294347454126 ,52.2046216760014 ,21.8664387116485
32.9234409 ,Left ,47.9026638602901 ,52.2278217665258 ,21.8558884433657
32.9460104 ,Left ,47.8931251329138 ,52.2689813656914 ,21.8418485098708
32.9757479 ,Left ,47.916124636204 ,52.3003398856974 ,21.840729385441
32.9909619 ,Left ,47.9454141662569 ,52.3297927148507 ,21.846708800765
33.0132022 ,Left ,47.9532160094894 ,52.3576339393312 ,21.8589873614224
33.0285501 ,Left ,47.9252671652211 ,52.3789829811138 ,21.8666178652367
33.0432857 ,Left ,47.9309636700476 ,52.3861937064959 ,21.8604228485075
33.0659888 ,Left ,47.9876850241772 ,52.3784116988743 ,21.8488657453149
33.0883295 ,Left ,48.0335970333226 ,52.3667016917446 ,21.8359414106712
33.1033937 ,Left ,48.0469417980557 ,52.3558111060047 ,21.8151772679945
33.1258802 ,Left ,48.0371518973764 ,52.3566559789053 ,21.7981259556268
33.1485214 ,Left ,48.0382343422786 ,52.364360372967 ,21.787602054015
33.1633105 ,Left ,48.0741558010113 ,52.3686375422368 ,21.7741198166775
33.1859045 ,Left ,48.0956582489929 ,52.3762820089122 ,21.7759551349058
33.2084647 ,Left ,48.0922136348637 ,52.3810985750302 ,21.7905182068738
33.2234641 ,Left ,48.0736413925707 ,52.3921576270538 ,21.7982749871546
33.2459297 ,Left ,48.0855392867919 ,52.4098195555714 ,21.7971961234473
33.2685361 ,Left ,48.0992921978204 ,52.4361974813929 ,21.7955263908623
33.2834576 ,Left ,48.0984316888133 ,52.4662047031669 ,21.7904396864335
33.3059878 ,Left ,48.0993669627721 ,52.4895486656007 ,21.7811052730679
33.3283374 ,Left ,48.095693351805 ,52.5135434249724 ,21.7677130818863
33.3434804 ,Left ,48.0876320376533 ,52.5383247395079 ,21.7532584281039
33.3658441 ,Left ,48.0585542656997 ,52.5719011928245 ,21.7313053182411
33.3884115 ,Left ,48.0297817190908 ,52.5995953072166 ,21.7067486589007
33.4033031 ,Left ,48.0340280466272 ,52.6151929511773 ,21.6801010712831
33.4258548 ,Left ,48.042637326489 ,52.6146385962923 ,21.6509598906596
33.4483194 ,Left ,48.0171502520696 ,52.6025981525638 ,21.6303111010097
33.4632199 ,Left ,47.9776175093925 ,52.5941813838311 ,21.6282319057371
33.4859325 ,Left ,47.9507804605556 ,52.601441518447 ,21.6320729718478
33.5083583 ,Left ,47.9461211820054 ,52.6116793665432 ,21.6235820111301
33.523356 ,Left ,47.9513665714444 ,52.5995888175375 ,21.6203726562267
33.5459005 ,Left ,47.9723899586887 ,52.5629765107668 ,21.6235328824479
33.5684358 ,Left ,47.942387164884 ,52.5284756254578 ,21.6335208127047
33.5835085 ,Left ,47.9188703015756 ,52.4797894523114 ,21.652764182355
33.6057999 ,Left ,47.9590268492372 ,52.4138179941624 ,21.6637817565657
33.6284473 ,Left ,47.9896075604518 ,52.336261480521 ,21.6620064903527
33.6509749 ,Left ,47.9920990756844 ,52.2610246272962 ,21.6769599427956
33.6657609 ,Left ,48.010153406836 ,52.1891504681957 ,21.7023159486498
33.6884198 ,Left ,48.0362206166023 ,52.1121740686784 ,21.7173637651698
33.7109278 ,Left ,48.0357081944425 ,52.0334694358317 ,21.7280511798269
33.7258148 ,Left ,48.0206504169747 ,51.9560451802967 ,21.730957425377
33.7483199 ,Left ,48.0198321947073 ,51.8926102920711 ,21.7421386234782
33.7708458 ,Left ,48.0124768516697 ,51.8339954094527 ,21.7461831313247
33.7858221 ,Left ,47.996038809828 ,51.7981619063457 ,21.7547957004926
33.8083245 ,Left ,48.0150005467979 ,51.7562925838334 ,21.7658346288907
33.830793 ,Left ,47.9916156075172 ,51.7338044439279 ,21.775066271531
33.8457815 ,Left ,47.9684650315004 ,51.7426126089006 ,21.7740508305888
33.8682163 ,Left ,47.9668339285788 ,51.7527083380241 ,21.7873716113405
33.8907411 ,Left ,47.9981805383641 ,51.7665044113649 ,21.802367829469
33.9058861 ,Left ,47.9867575866913 ,51.7771970040649 ,21.8147914276931
33.928502 ,Left ,47.9439087732466 ,51.7834843818758 ,21.8266984971032
33.9509714 ,Left ,47.9404300487851 ,51.7822038777317 ,21.835432806545
33.9658613 ,Left ,47.9688504145046 ,51.770435737647 ,21.8497828627036
33.9884769 ,Left ,47.9754928675367 ,51.7662841581629 ,21.8606610750293
34.0182383 ,Left ,47.9649939056008 ,51.7689478606655 ,21.8744111714397
34.0333049 ,Left ,47.9696588054915 ,51.7713499485145 ,21.8866527755621
34.0556792 ,Left ,47.9785834262225 ,51.7698686244045 ,21.8941667642249
34.0706823 ,Left ,47.9892955811066 ,51.7707504966126 ,21.8896347198203
34.0859689 ,Left ,47.9952793242408 ,51.7780972975521 ,21.8864804570423
34.1082147 ,Left ,47.9956723694926 ,51.8031950648687 ,21.889266152522
34.1309336 ,Left ,47.9958131551957 ,51.8340967557599 ,21.8973038217331
34.1459739 ,Left ,47.999480914717 ,51.8693467923439 ,21.9022202631099
34.1684488 ,Left ,48.0131659887088 ,51.9044513770015 ,21.9116263959041
34.1908755 ,Left ,48.0224247474396 ,51.9309594889501 ,21.9245107508079
34.2067226 ,Left ,48.0200372868863 ,51.9617676065942 ,21.9351435532316
34.2284837 ,Left ,48.0286787948953 ,51.9908829037366 ,21.9419266230807
34.2508762 ,Left ,48.0402506746386 ,52.0200628775668 ,21.9514262104556
34.2658659 ,Left ,48.0315698153035 ,52.0555433794827 ,21.9573301044674
34.2883329 ,Left ,48.0220069259848 ,52.0933186202679 ,21.9538092367988
34.3108773 ,Left ,48.0329166999912 ,52.1189927880402 ,21.948662832464
34.3258653 ,Left ,48.0354188381135 ,52.146815475368 ,21.9451637884142
34.3556637 ,Left ,48.0183963697054 ,52.1754153657877 ,21.9414284317035
34.3784151 ,Left ,48.0034447105329 ,52.1945667695312 ,21.9337493035887
34.3933685 ,Left ,47.9907063748424 ,52.2098465397572 ,21.9324980068493
34.4158374 ,Left ,47.9853928511546 ,52.2219989068413 ,21.9332164328864
34.4309833 ,Left ,47.9907360494049 ,52.228317776045 ,21.9390706689968
34.4459311 ,Left ,47.9981010333215 ,52.2371472781465 ,21.9385743514977
34.4683905 ,Left ,48.0167549853031 ,52.2688813369108 ,21.9521269192807
34.4907195 ,Left ,48.0423344623447 ,52.3081520652614 ,21.9927770124026
34.5058953 ,Left ,48.028918522872 ,52.3285933862126 ,22.0062275042793
34.5282995 ,Left ,48.0043768552713 ,52.3363054723819 ,21.9861057037247
34.5583788 ,Left ,48.0444118624912 ,52.3266538245464 ,21.9720928890399
34.5734188 ,Left ,48.0828202237134 ,52.2873249392808 ,21.9526690413407
34.5959283 ,Left ,48.1253978470851 ,52.2290153305399 ,21.9249332306905
34.6334437 ,Left ,48.1017616713589 ,52.0775306453955 ,21.8845734574405
34.6482968 ,Left ,48.0470111290863 ,52.0078867579572 ,21.8714125339166
34.6709982 ,Left ,47.9864251602472 ,51.946413705828 ,21.8655307026927
34.6933334 ,Left ,47.9535548110065 ,51.8938937378804 ,21.8526324544574
34.7083284 ,Left ,47.9697301527785 ,51.8674655022731 ,21.8464179230089
34.7307665 ,Left ,48.0096717306499 ,51.83892971251 ,21.8618129808474
34.7609256 ,Left ,47.9668380546285 ,51.8451043174949 ,21.8733456001014
34.7832786 ,Left ,47.9272536484045 ,51.8618285947838 ,21.8659485981583
34.8209838 ,Left ,47.9375399565327 ,51.8837685017041 ,21.8459267486262
34.843362 ,Left ,47.9336474839818 ,51.9004465863848 ,21.8550905145016
34.8809542 ,Left ,47.8813269451389 ,51.9568733051276 ,21.9045083544574
34.9032304 ,Left ,47.8916327752845 ,51.9847711303335 ,21.9142613991641
34.9406052 ,Left ,47.9276312950187 ,52.0344285030415 ,21.9460435997149
34.9634687 ,Left ,47.9021907116313 ,52.0588417967973 ,21.9540353151054
35.000893 ,Left ,47.9275770227814 ,52.0682913990245 ,21.9348372317736
35.0233341 ,Left ,47.9531690289914 ,52.0473357467668 ,21.9141273840199
35.0610357 ,Left ,47.9294292948457 ,52.0221060936861 ,21.8747854574832
35.0834694 ,Left ,47.9223763590205 ,52.0164985664379 ,21.864991599871
35.1207501 ,Left ,47.9313566808994 ,52.0523207402793 ,21.8675882197078
35.1432746 ,Left ,47.9131938744765 ,52.091502313721 ,21.9021761095148
35.1808616 ,Left ,47.8610080565973 ,52.1447875016615 ,21.9260944854957
35.2032582 ,Left ,47.8481806338609 ,52.1449745375994 ,21.9028151345769
35.2406948 ,Left ,47.880894769935 ,52.1050990247501 ,21.8584362077105
35.2633209 ,Left ,47.8930847110794 ,52.0831941815531 ,21.8421922614438
35.3007502 ,Left ,47.8631800467045 ,52.0652489971084 ,21.8436471105329
35.3232381 ,Left ,47.8704950082836 ,52.0800819187935 ,21.8513450325552
35.3607913 ,Left ,47.859286456968 ,52.1276903456852 ,21.8978894350587
35.3833242 ,Left ,47.8659403134208 ,52.1447955191908 ,21.9177704111923
35.4207708 ,Left ,47.9026559952866 ,52.1270738049875 ,21.9593194948856
35.4432388 ,Left ,47.8669330575462 ,52.1083839597118 ,21.9567944670126
35.4806394 ,Left ,47.8807165211758 ,52.0453033536309 ,21.9251896264677
35.5034888 ,Left ,47.9092889451735 ,52.0124345844527 ,21.9096948525189
35.5406885 ,Left ,47.8469952573904 ,52.0479957616409 ,21.8833525844923
35.5632092 ,Left ,47.7982485108964 ,52.1121087498284 ,21.894260622702
35.6008045 ,Left ,47.7799170954023 ,52.2224036449346 ,21.9112873533084
35.6234482 ,Left ,47.7607417588016 ,52.2608185948445 ,21.9114100493444
35.6606885 ,Left ,47.7539153760716 ,52.2966174573179 ,21.8713098513247
35.6832633 ,Left ,47.8177490783823 ,52.3010574248403 ,21.8253009636374
35.7206571 ,Left ,47.7640040465173 ,52.3612729852534 ,21.7368174640717
35.7433509 ,Left ,47.739700459397 ,52.4105650602695 ,21.6755947054874
35.7806211 ,Left ,47.6863890952037 ,52.4596657491382 ,21.5693294546081
35.803238 ,Left ,47.6129492469252 ,52.4853349226786 ,21.5247362903404
35.8410677 ,Left ,47.5312272953691 ,52.5104456836505 ,21.4499694448512
35.8632898 ,Left ,47.5441376031592 ,52.5115149152758 ,21.4241923725089
35.9006718 ,Left ,47.5855701925176 ,52.5761205352317 ,21.4293833628957
35.9234738 ,Left ,47.5103673175358 ,52.58299793354 ,21.4213472827275
35.9608433 ,Left ,47.4972986561617 ,52.5631902294048 ,21.4352175619533
35.9832735 ,Left ,47.5601317372503 ,52.5118072899785 ,21.464305859377
36.0288923 ,Left ,47.6335870807891 ,52.3570705649324 ,21.5283025377568
36.0507395 ,Left ,47.6625850645346 ,52.2484280001019 ,21.544351291219
36.1031076 ,Left ,47.6832378470173 ,52.1415475073127 ,21.6201020886152
36.1407057 ,Left ,47.8265731788511 ,52.1098284744524 ,21.6345892025927
36.1633891 ,Left ,47.8773426616897 ,52.0881727486728 ,21.6514058948237
36.2009678 ,Left ,47.8733730856725 ,52.0952844725783 ,21.6837395103636
36.2234366 ,Left ,47.8665599357137 ,52.1147817077604 ,21.6953533422647
36.2608478 ,Left ,47.9952291601724 ,52.1047280696304 ,21.7338467863796
36.2833752 ,Left ,48.0043120749975 ,52.0688134020368 ,21.7681586698396
36.320766 ,Left ,48.0492500268498 ,51.9649836185337 ,21.8193150034966
36.3431931 ,Left ,48.0710432188962 ,51.9231801508278 ,21.8524814213892
36.3808827 ,Left ,48.1231793773301 ,51.8657956942229 ,21.9037201812245
36.4032189 ,Left ,48.1537923221885 ,51.8505225324329 ,21.9251683804908
36.4406132 ,Left ,48.1656656066044 ,51.8306517394057 ,21.950313818278
36.4643459 ,Left ,48.1694864068455 ,51.8322633421778 ,21.9475736258551
36.5009912 ,Left ,48.1962592599628 ,51.8644659519377 ,21.961908697676
36.5230867 ,Left ,48.1945142943428 ,51.8898798312002 ,21.9737673161086
36.5606815 ,Left ,48.2151793353931 ,51.9390274404495 ,22.0036676658133
36.575894 ,Left ,48.2436430969356 ,51.954877379199 ,22.0176523311868
36.5982535 ,Left ,48.2638142217392 ,51.9698043821251 ,22.030488554864
36.6133376 ,Left ,48.269600290196 ,51.9734488728096 ,22.0396863139348
36.635761 ,Left ,48.2795140044185 ,51.9761117744069 ,22.046774962789
36.6584216 ,Left ,48.2902734578833 ,51.9798459530375 ,22.0475780652535
36.6732685 ,Left ,48.3013499749284 ,51.9844240803125 ,22.0334020297109
36.6958371 ,Left ,48.3163101718975 ,51.9875959663733 ,22.0135564172336
36.7184166 ,Left ,48.319934009687 ,51.9925329179915 ,21.992209775853
36.7332994 ,Left ,48.3071163854542 ,51.9957721763634 ,21.9715643093841
36.7559461 ,Left ,48.2856388380471 ,52.0040183604399 ,21.9526183475759
36.7784002 ,Left ,48.2807115083942 ,52.0137786316504 ,21.9353740582724
36.7933884 ,Left ,48.2804657795991 ,52.0229705137729 ,21.9250089867934
36.8158396 ,Left ,48.2874525001429 ,52.0315638766755 ,21.9185373806225
36.8382119 ,Left ,48.2974153255051 ,52.0407090108504 ,21.9156423536771
36.8608978 ,Left ,48.2987666763018 ,52.051671104923 ,21.9112352247457
36.8833473 ,Left ,48.3021935039517 ,52.065382693298 ,21.9007597702131
36.9132992 ,Left ,48.2708115989752 ,52.0991132820659 ,21.8583365213673
36.9357512 ,Left ,48.2374273021532 ,52.1269396811896 ,21.8381264940063
36.9584258 ,Left ,48.1925844116268 ,52.1621676834054 ,21.8241725207034
36.9731604 ,Left ,48.1730101352574 ,52.1942928597302 ,21.8108646564643
36.9958564 ,Left ,48.1672768932332 ,52.2154043941491 ,21.8008965541983
37.0182437 ,Left ,48.1622905968299 ,52.2401367883966 ,21.8058650985626
37.0334132 ,Left ,48.1492901137502 ,52.2611511218277 ,21.8099419103434
37.063457 ,Left ,48.1837035427003 ,52.2969612359177 ,21.8190984100393
37.0859684 ,Left ,48.2007701209443 ,52.3494066184564 ,21.8934681333565
37.1006855 ,Left ,48.161464442221 ,52.4226063902988 ,21.8770444203698
37.1159089 ,Left ,48.1747390940386 ,52.4837669682734 ,21.9123563618804
37.138373 ,Left ,48.1906016459776 ,52.4873266511709 ,21.9235866451237
37.153209 ,Left ,48.1687331225274 ,52.4792685072401 ,21.9181379339575
37.1757337 ,Left ,48.149723513607 ,52.4576994042884 ,21.87923531948
37.1982092 ,Left ,48.1449146012611 ,52.4126718145927 ,21.848576394385
37.2131821 ,Left ,48.1124370593567 ,52.3611371422508 ,21.826751126939
37.2357104 ,Left ,48.0477276199284 ,52.3071756320636 ,21.8133209117023
37.2581481 ,Left ,47.9336133164325 ,52.2882257114052 ,21.8177286256136
37.2809689 ,Left ,47.8315852224539 ,52.2871569589162 ,21.8237561704454
37.2958396 ,Left ,47.8021517668355 ,52.2789258755176 ,21.8265191993502
37.3183634 ,Left ,47.8404621839979 ,52.2915523299583 ,21.8366790411178
37.3409729 ,Left ,47.8992562273899 ,52.3009925968786 ,21.8563381851872
37.3557278 ,Left ,47.9149343982936 ,52.3101282068418 ,21.8911090353014
37.3782101 ,Left ,47.8708502471587 ,52.3238003996914 ,21.9125474721449
37.3932455 ,Left ,47.8305486028144 ,52.3492112085509 ,21.9088451979841
37.4159064 ,Left ,47.7897374312908 ,52.392423876039 ,21.9047951694272
37.4382649 ,Left ,47.7657276351306 ,52.4498580424247 ,21.9038959819604
37.460916 ,Left ,47.7586250794707 ,52.4597881594065 ,21.897819974013
37.4757149 ,Left ,47.7741130349096 ,52.438301397102 ,21.9070716334957
37.49831 ,Left ,47.7955312112654 ,52.4299720138291 ,21.9209198290594
37.5207904 ,Left ,47.8084707026552 ,52.4120247775034 ,21.9043625220332
37.5356834 ,Left ,47.7879217981053 ,52.4207829109291 ,21.9181519180588
37.5583094 ,Left ,47.7886483534253 ,52.4581742758051 ,21.939517113156
37.5808668 ,Left ,47.8250495389862 ,52.4713996812643 ,21.9431517956868
37.5965154 ,Left ,47.7499425191832 ,52.4942615149154 ,21.9516837989177
37.6184078 ,Left ,47.703716750689 ,52.487598308118 ,21.9545448174892
37.6407345 ,Left ,47.7671524020872 ,52.4750323869252 ,21.951615904665
37.6558923 ,Left ,47.7510503648791 ,52.4528329683377 ,21.9312568283758
37.6784165 ,Left ,47.6497560987045 ,52.5094548685414 ,21.9175339199768
37.7009715 ,Left ,47.6067154237231 ,52.5818656850784 ,21.8763275486662
37.7160037 ,Left ,47.6847623955117 ,52.6289687144879 ,21.8264962012679
37.7383448 ,Left ,47.746620823915 ,52.6684161727226 ,21.7899499702435
37.7607439 ,Left ,47.6969341638391 ,52.7051372410114 ,21.7601490520418
37.7759204 ,Left ,47.5882175815573 ,52.7249816926918 ,21.7344928591094
37.7982221 ,Left ,47.5717249946777 ,52.7246165842065 ,21.6915409456362
37.820909 ,Left ,47.6337494538934 ,52.6869544944414 ,21.6412762129211
37.8359057 ,Left ,47.6766161698483 ,52.643810898154 ,21.6163590681454
37.8582743 ,Left ,47.6763168784457 ,52.609452071384 ,21.600773749038
37.880718 ,Left ,47.6807606231142 ,52.5774266964879 ,21.594549799794
37.8959082 ,Left ,47.7102841154486 ,52.5608409117289 ,21.5930862784045
37.9183749 ,Left ,47.7542098958042 ,52.5522312320683 ,21.6079193620383
37.9408813 ,Left ,47.7689419162982 ,52.5456067892223 ,21.6087310267368
