timestamp,event,roll,pitch,yaw
0.106295 ,Left ,64,2413159564062 ,46,1404588226036 ,35,91220846344
0.1212403 ,Left ,64,2243287190358 ,46,1058408473175 ,35,9255762674849
0.1363459 ,Left ,64,2133871739651 ,46,0600061344474 ,35,9450579479959
0.1663385 ,Left ,64,2325373320479 ,46,014924927676 ,35,9709541708235
0.1888635 ,Left ,64,2300454878727 ,45,9761772749167 ,35,9958416625536
0.2037843 ,Left ,64,2421032583853 ,45,9502359157221 ,36,0201141723836
0.2188023 ,Left ,64,2422694203495 ,45,9361215040938 ,36,0476325606373
0.2416355 ,Left ,64,2179239194049 ,45,9286015442881 ,36,0823361638066
0.2564014 ,Left ,64,1965124622679 ,45,9241134172537 ,36,1175996039973
0.2790348 ,Left ,64,1773007841422 ,45,9168787157105 ,36,1506360402079
0.3014198 ,Left ,64,1604721584248 ,45,9009437103072 ,36,1829488108268
0.3162811 ,Left ,64,1643934614778 ,45,8843254702869 ,36,2031599991766
0.3388055 ,Left ,64,1549060758183 ,45,8783784693065 ,36,2125992581484
0.3614479 ,Left ,64,1715716142633 ,45,8839373790067 ,36,216783697844
0.376514 ,Left ,64,1639362292089 ,45,8858437123136 ,36,2227007889779
0.3990186 ,Left ,64,1660512524136 ,45,8864969689919 ,36,2223300061508
0.4212481 ,Left ,64,1810328738632 ,45,880751108894 ,36,2142362439171
0.4363992 ,Left ,64,1852259170892 ,45,875464982104 ,36,2030531678316
0.4587911 ,Left ,64,1939503947233 ,45,8734265610569 ,36,1873766575121
0.4815124 ,Left ,64,1918357251808 ,45,8727721808317 ,36,1877478291391
0.4965551 ,Left ,64,1885546475645 ,45,8781993705912 ,36,1824155350483
0.5189912 ,Left ,64,1912783487464 ,45,8871350096969 ,36,1815057046542
0.5488239 ,Left ,64,2028829742146 ,45,8937532101928 ,36,1716943829114
0.5637479 ,Left ,64,1965414309307 ,45,9008825207829 ,36,16595998818
0.5863201 ,Left ,64,1906264110741 ,45,9121607029685 ,36,1459472846001
0.6014565 ,Left ,64,1818454736005 ,45,914767890512 ,36,1200474412735
0.6164815 ,Left ,64,1710391385488 ,45,9154414304732 ,36,0961580786587
0.6387409 ,Left ,64,1589448679148 ,45,9177679913156 ,36,0735628584027
0.6689537 ,Left ,64,157582354402 ,45,9120844447839 ,36,0384623794775
0.6838466 ,Left ,64,1296997648194 ,45,9078432596874 ,36,0038737248549
0.7140854 ,Left ,64,1154271061362 ,45,9042379206081 ,35,9626291544487
0.7365903 ,Left ,64,0989222551436 ,45,8945439802622 ,35,923621735924
0.7518802 ,Left ,64,0733566445527 ,45,8752452687684 ,35,8781089512395
0.7745144 ,Left ,64,0502970521168 ,45,8395753837817 ,35,8302060333506
0.7969623 ,Left ,64,0173710872987 ,45,7660039617134 ,35,754430753089
0.8193594 ,Left ,63,9982247611699 ,45,7517808619155 ,35,7304405929406
0.8488028 ,Left ,64,001662500079 ,45,7214731377938 ,35,7064781297961
0.86401 ,Left ,63,9763793606773 ,45,6872341475775 ,35,6905833711074
0.8864671 ,Left ,63,9519913905054 ,45,6629666132209 ,35,6772275367774
0.9169001 ,Left ,63,8500584754321 ,45,6331703231984 ,35,6674030039643
0.9394096 ,Left ,63,7654856986083 ,45,6254407601721 ,35,6745136100538
0.9621288 ,Left ,63,685276101337 ,45,6282326266063 ,35,6667872109754
0.9771015 ,Left ,63,6489712897937 ,45,6192330100707 ,35,6446500373461
0.9992886 ,Left ,63,6527620320079 ,45,6555121414504 ,35,6385250070032
1.0214278 ,Left ,63,6061968844879 ,45,7219121137704 ,35,6511530010792
1.0368405 ,Left ,63,5074673341386 ,45,7525853306133 ,35,6680650287517
1.0592977 ,Left ,63,5389752580015 ,45,7449597643896 ,35,6557406318632
1.0817805 ,Left ,63,7050771657319 ,45,7129884011295 ,35,6076866384613
1.1039571 ,Left ,63,7385163466623 ,45,7045593800539 ,35,5847420075787
1.1189831 ,Left ,63,6439579643391 ,45,7131178132518 ,35,5289102554779
1.14171 ,Left ,63,4749683847478 ,45,7180101657762 ,35,4853242750562
1.1638814 ,Left ,63,4244719796825 ,45,7466379739133 ,35,3984981728343
1.1795239 ,Left ,63,5038475492944 ,45,7615197919884 ,35,2875544906631
1.2016064 ,Left ,63,4686065217749 ,45,7627910627902 ,35,2328156094511
1.2239522 ,Left ,63,3830567355976 ,45,7627171939017 ,35,1972539834635
1.2387855 ,Left ,63,3663213204906 ,45,7119049937619 ,35,224342412533
1.2612331 ,Left ,63,5470021526458 ,45,6470468104518 ,35,275309816842
1.2919569 ,Left ,63,6632859453174 ,45,6175208701243 ,35,2891563576872
1.3069326 ,Left ,63,5355577089736 ,45,6133219330698 ,35,2739324231768
1.3293965 ,Left ,63,4766678018067 ,45,672147271724 ,35,2707269450943
1.3590977 ,Left ,63,6541134272896 ,45,9428793251703 ,35,2848920391837
1.3812189 ,Left ,63,7542711448206 ,45,9703963951887 ,35,3039564292561
1.4112369 ,Left ,63,766598372644 ,45,9020238975398 ,35,4285178944986
1.4262642 ,Left ,63,7639187131001 ,45,8468582986707 ,35,548358993566
1.4489532 ,Left ,63,6512135636882 ,45,8575886512243 ,35,6019748630451
1.464079 ,Left ,63,6676622294555 ,45,8677565008366 ,35,6061383093665
1.4791748 ,Left ,63,7014896993064 ,45,8759993569108 ,35,6033681676309
1.5011266 ,Left ,63,6885753860655 ,45,8783319772941 ,35,6578671915971
1.5236093 ,Left ,63,5840876520129 ,45,8556455861086 ,35,7471146078051
1.5387811 ,Left ,63,4260941293124 ,45,8141410837388 ,35,8191966254939
1.5688124 ,Left ,63,3252116453485 ,45,773849078918 ,35,8447271153474
1.5914426 ,Left ,63,3718172072493 ,45,7127079251905 ,35,8218003479142
1.6062827 ,Left ,63,4059185834487 ,45,6343478609018 ,35,8081613628305
1.628758 ,Left ,63,3498003723526 ,45,5556340918831 ,35,8089550816518
1.6440712 ,Left ,63,3494286981433 ,45,5289682422408 ,35,7634239501423
1.6589464 ,Left ,63,3136929237206 ,45,5428441968034 ,35,731767697931
1.6890327 ,Left ,63,2376739718773 ,45,5881541423779 ,35,701706510664
1.711501 ,Left ,63,1915394626654 ,45,6330451644907 ,35,6725534453189
1.7263691 ,Left ,63,1353220818672 ,45,6707496653599 ,35,6500656368689
1.7414346 ,Left ,63,0434646016828 ,45,705166054893 ,35,6563138781575
1.7637235 ,Left ,62,9872243788019 ,45,6949739045743 ,35,661011887193
1.7788151 ,Left ,62,9428714259827 ,45,6560906456875 ,35,696311070804
1.8014388 ,Left ,62,9919548787049 ,45,6104916172986 ,35,7176437074741
1.831323 ,Left ,62,979723217809 ,45,6228292587497 ,35,7346542261433
1.8463392 ,Left ,62,8637948723055 ,45,6790043170525 ,35,7314639754724
1.8687873 ,Left ,62,8186811327459 ,45,759123193581 ,35,7547997129906
1.8838832 ,Left ,63,034081321567 ,45,8135324715318 ,35,7766116640543
1.9065246 ,Left ,63,1420862372003 ,45,8665406118676 ,35,8058207058384
1.9216677 ,Left ,63,1515788226615 ,45,9162552097669 ,35,8315003820445
1.9441719 ,Left ,63,1800125951033 ,45,9875092829339 ,35,8360785455078
1.9743424 ,Left ,63,1967543475849 ,46,0640072035332 ,35,8401527963407
1.9890529 ,Left ,63,1992740063292 ,46,1251891180671 ,35,8344263564708
2.0188191 ,Left ,63,2914819847231 ,46,1753210374055 ,35,833608521654
2.0412588 ,Left ,63,3247604919556 ,46,1668710203178 ,35,8371970311619
2.0637875 ,Left ,63,3086947199418 ,46,1449509966027 ,35,8432330308768
2.0865794 ,Left ,63,317804692236 ,46,1073903326529 ,35,8820033506344
2.1090293 ,Left ,63,3855036486829 ,46,0585515041503 ,35,900598956549
2.1318037 ,Left ,63,4671083698857 ,45,9961758526734 ,35,9122365590332
2.154149 ,Left ,63,4656694610968 ,45,9043466822795 ,35,9549457938747
2.1768064 ,Left ,63,4597532270304 ,45,8691398359296 ,35,9717715655817
2.2216264 ,Left ,63,538227294855 ,45,8145934863313 ,35,9459701523216
2.2442792 ,Left ,63,5389439712036 ,45,802477749267 ,35,9350259240447
2.2743233 ,Left ,63,5522380457402 ,45,7732296041266 ,35,8926958671044
2.2964467 ,Left ,63,5585722727301 ,45,7472604359396 ,35,8798028192093
2.3339539 ,Left ,63,5518507817534 ,45,7202606169094 ,35,8592447842681
2.356532 ,Left ,63,5522298886617 ,45,7219925533889 ,35,8623017894062
2.3940584 ,Left ,63,5413683975537 ,45,7374091887772 ,35,8297429401123
2.4165187 ,Left ,63,5419718440831 ,45,7413490521197 ,35,8083431931553
2.4542589 ,Left ,63,5331496797549 ,45,7556898805791 ,35,7374097053512
2.4764829 ,Left ,63,4987346451784 ,45,7611885416878 ,35,6939328475479
2.5142239 ,Left ,63,4390326167303 ,45,8087764596253 ,35,5570684478392
2.5365613 ,Left ,63,3943525995491 ,45,8252973736951 ,35,4853076211648
2.5737557 ,Left ,63,3208261860514 ,45,8185528437377 ,35,323412838032
2.5962995 ,Left ,63,2684112936912 ,45,7942952001787 ,35,2432956439227
2.6338551 ,Left ,63,2005653957101 ,45,7832936296838 ,35,1331650304676
2.6564843 ,Left ,63,162932195234 ,45,7635075001205 ,35,1317467975808
2.7021219 ,Left ,63,5407221103668 ,45,7227928845935 ,35,2224405596501
2.7243827 ,Left ,63,569503159671 ,45,709819066606 ,35,2734943910093
2.7545095 ,Left ,63,7635041886315 ,45,7197709519903 ,35,3176609861717
2.7771976 ,Left ,63,8154044606628 ,45,7301804504442 ,35,3864966185601
2.8138977 ,Left ,63,7852571112388 ,45,6867712771647 ,35,5382849207112
2.8362395 ,Left ,63,7741339136573 ,45,6766993190173 ,35,6185946653417
2.8740313 ,Left ,63,7254026749118 ,45,6569758763024 ,35,681404656171
2.8967245 ,Left ,63,661763467814 ,45,6527968608985 ,35,6502753194966
2.9343574 ,Left ,63,5196463995469 ,45,6570440935301 ,35,5577381363082
2.9564526 ,Left ,63,4471504118446 ,45,6793409625704 ,35,5313403474305
2.994288 ,Left ,63,2930176219677 ,45,6893877196107 ,35,55227325463
3.0164333 ,Left ,63,3802057318856 ,45,6768190886405 ,35,5879871659244
3.0538064 ,Left ,63,5935867444689 ,45,6630440574739 ,35,6768576086313
3.0771056 ,Left ,63,4849596865982 ,45,6780453280399 ,35,7334733685161
3.1146815 ,Left ,63,5290951288617 ,45,7589488961429 ,35,8123043819752
3.1364934 ,Left ,63,5576218234919 ,45,79026811919 ,35,8438329607212
3.1741285 ,Left ,63,5425638789222 ,45,8082158127453 ,35,8880644741198
3.1964288 ,Left ,63,5566910404823 ,45,7819757453148 ,35,9071594716648
3.2415258 ,Left ,63,5876039768164 ,45,7340765356686 ,35,9235020400245
3.2641127 ,Left ,63,5548015498335 ,45,7191127698692 ,35,9271259430238
3.2939475 ,Left ,63,6064889470635 ,45,6998676764253 ,35,9067452277598
3.316544 ,Left ,63,6150249046136 ,45,6744422362901 ,35,9002338846594
3.3540214 ,Left ,63,609944309079 ,45,6508515073286 ,35,8900546818301
3.3837953 ,Left ,63,6052228462865 ,45,6535583839635 ,35,8930345761487
3.4213168 ,Left ,63,5977162353185 ,45,6386860240226 ,35,8834692846392
3.4362802 ,Left ,63,5871944662486 ,45,626550821125 ,35,8786349131928
3.4740669 ,Left ,63,578131712361 ,45,6305493237403 ,35,865242204672
3.4964994 ,Left ,63,5695393279141 ,45,6441784023007 ,35,8426363065625
3.534448 ,Left ,63,5656965200483 ,45,6439474700437 ,35,8137196947586
3.5565124 ,Left ,63,5539792312576 ,45,6309116340162 ,35,8204512024871
3.5939242 ,Left ,63,5567322976547 ,45,6258234318187 ,35,8470605588198
3.6164698 ,Left ,63,5727397384367 ,45,6173015350147 ,35,8673590886675
3.6540716 ,Left ,63,5799240384479 ,45,6134361680183 ,35,960156625018
3.6763178 ,Left ,63,5861470358771 ,45,6339550225627 ,36,0054042189434
3.7139226 ,Left ,63,6231992136444 ,45,6673554062761 ,36,0766922526722
3.7364929 ,Left ,63,6305355830794 ,45,6846680679965 ,36,1037478813572
3.7739879 ,Left ,63,6538800776517 ,45,7365688499897 ,36,1336319000303
3.7962159 ,Left ,63,6823721204952 ,45,742511458676 ,36,1223835674598
3.8339009 ,Left ,63,7097935404926 ,45,7218207273402 ,36,0933328029422
3.8565689 ,Left ,63,6851339512987 ,45,7076313207562 ,36,085258679813
3.9012989 ,Left ,63,6413809496828 ,45,6712681858695 ,36,0377847349026
3.9241554 ,Left ,63,6515986471261 ,45,6527190332574 ,36,015640524953
3.976283 ,Left ,63,5896696936054 ,45,6192571607911 ,36,0106468583513
4.0137855 ,Left ,63,5892686892725 ,45,6432811482317 ,36,0159829768466
4.0288996 ,Left ,63,5929542933548 ,45,6496218498995 ,36,029483933133
4.0514719 ,Left ,63,584262618224 ,45,6471986633109 ,36,0450950362494
4.0737956 ,Left ,63,5637223907915 ,45,6319656591358 ,36,0605946305055
4.0962189 ,Left ,63,5503245124494 ,45,605310982919 ,36,0725183983047
4.1263871 ,Left ,63,5850631686418 ,45,5557246367202 ,36,079508532264
4.14895 ,Left ,63,6058478759466 ,45,5197439753509 ,36,086507883791
4.1719516 ,Left ,63,6042974157507 ,45,4811408647763 ,36,0952060294829
4.1870387 ,Left ,63,5982774037977 ,45,4606860470842 ,36,1030863659445
4.2094039 ,Left ,63,5880192225634 ,45,4635997912741 ,36,1150374586952
4.2318216 ,Left ,63,6050599039743 ,45,485310920384 ,36,1201666231185
4.2468541 ,Left ,63,6333728311912 ,45,5014455188311 ,36,1278287436341
4.2689345 ,Left ,63,6447817924912 ,45,5169195106675 ,36,1386775227382
4.2915056 ,Left ,63,6444652923845 ,45,5274077273305 ,36,1441010343118
4.3066525 ,Left ,63,6462048222272 ,45,5251222905638 ,36,1423646229039
4.3288373 ,Left ,63,6437321649719 ,45,5238151909127 ,36,1448485561742
4.3512221 ,Left ,63,659860662758 ,45,5335456131975 ,36,1303886418914
4.3663754 ,Left ,63,6741813484266 ,45,5333722255019 ,36,1091920824619
4.3888688 ,Left ,63,7072160187196 ,45,5318198568811 ,36,0761710667042
4.4112863 ,Left ,63,7118275918088 ,45,5278648773665 ,36,0285995261843
4.4263821 ,Left ,63,722122700023 ,45,5213077932081 ,35,9753703345544
4.4488844 ,Left ,63,7343339432145 ,45,5224464675836 ,35,9253388488643
4.4715965 ,Left ,63,7550460281498 ,45,5251414216316 ,35,8753907967408
4.493833 ,Left ,63,7740877798399 ,45,51736773639 ,35,839219700914
4.5164498 ,Left ,63,764049452915 ,45,4961668882065 ,35,8202485671697
4.5466605 ,Left ,63,7272431791796 ,45,4414354603394 ,35,79583251674
4.5689308 ,Left ,63,7295779735954 ,45,4212111082045 ,35,7799994446551
4.5913731 ,Left ,63,6968294347718 ,45,3898774896846 ,35,7685575922203
4.6064923 ,Left ,63,6174772822035 ,45,3573692251838 ,35,7661275102429
4.6286585 ,Left ,63,5525552425965 ,45,3431872387046 ,35,761047987316
4.6516296 ,Left ,63,5698048056991 ,45,3407736030112 ,35,7421259313959
4.6664939 ,Left ,63,5709587966264 ,45,3056201244343 ,35,7261429610352
4.6890325 ,Left ,63,6056920456671 ,45,2882201963909 ,35,7327304522025
4.7113743 ,Left ,63,5752621024106 ,45,3429042561847 ,35,7366364079113
4.7265987 ,Left ,63,4020014278694 ,45,4264460878551 ,35,7610114465414
4.749034 ,Left ,63,3228805459858 ,45,5117768126324 ,35,7593899682064
4.7717409 ,Left ,63,470633957144 ,45,5894758782639 ,35,7356608814044
4.7939552 ,Left ,63,5908797240906 ,45,6566952489765 ,35,7279779614778
4.808977 ,Left ,63,5645835975869 ,45,6897684844856 ,35,7537474976537
4.8317267 ,Left ,63,4531102734072 ,45,7170739689936 ,35,7801392551
4.8542345 ,Left ,63,4055648865214 ,45,7278435589494 ,35,7739110554806
4.8762447 ,Left ,63,5029378113557 ,45,7218899744063 ,35,7354040615835
4.8988611 ,Left ,63,5714299332833 ,45,7162543691962 ,35,7067404827721
4.9290127 ,Left ,63,5753382171211 ,45,7136304152586 ,35,6994263991278
4.9441569 ,Left ,63,5534396427706 ,45,7324461686568 ,35,7071622504938
4.9589728 ,Left ,63,5582719025976 ,45,7484358788424 ,35,7158781583376
4.9964762 ,Left ,63,6396606416506 ,45,7825236182384 ,35,7376919429367
5.0190429 ,Left ,63,6226672273091 ,45,7962787258156 ,35,745823310815
5.0566014 ,Left ,63,6185687966623 ,45,7825651477557 ,35,7449406199692
5.0791121 ,Left ,63,6234490830559 ,45,7652805494522 ,35,7368569451001
5.1090691 ,Left ,63,6022205374644 ,45,7469718887976 ,35,7186285205211
5.1314012 ,Left ,63,6003435057214 ,45,7307027393122 ,35,7017639520889
5.1615606 ,Left ,63,6179034694042 ,45,6953332211125 ,35,6847839523323
5.1763814 ,Left ,63,6278209861064 ,45,663311848793 ,35,6581462099867
5.2139019 ,Left ,63,6115932063289 ,45,6513747655929 ,35,622856393547
5.2290503 ,Left ,63,5864591088316 ,45,6419364105961 ,35,5826490186438
5.2516683 ,Left ,63,5152888580033 ,45,6199885777042 ,35,533602658077
5.2741272 ,Left ,63,4392160930859 ,45,6150016686983 ,35,4994957331981
5.28902 ,Left ,63,41760987867 ,45,6546545947512 ,35,4804115811579
5.3114776 ,Left ,63,3519939432288 ,45,6529680320756 ,35,511569766908
5.3343071 ,Left ,63,4379494312316 ,45,6028776354067 ,35,521733324993
5.3490854 ,Left ,63,6043178101617 ,45,5328316966645 ,35,5652143684058
5.3713448 ,Left ,63,4728387512617 ,45,4987607627258 ,35,5547091341704
5.394666 ,Left ,63,3286994513276 ,45,5239605903104 ,35,5434872515053
5.4095613 ,Left ,63,2825038236604 ,45,6250393587282 ,35,5680228320911
5.4319959 ,Left ,63,4027920038735 ,45,7736971908436 ,35,5682074556642
5.4545056 ,Left ,63,4755146889589 ,45,8581237990869 ,35,5367412897607
5.469536 ,Left ,63,5146545683116 ,45,7998865392989 ,35,6010973473264
5.4919089 ,Left ,63,5669743099294 ,45,6525673183089 ,35,7295193751131
5.5138499 ,Left ,63,6722392909763 ,45,555656543069 ,35,8340656659428
5.5289167 ,Left ,63,5759226981443 ,45,560254897378 ,35,8976320789313
5.5515391 ,Left ,63,5407799540228 ,45,5947843287885 ,35,9271737853796
5.5739974 ,Left ,63,577672250715 ,45,6163792092095 ,35,9554788023501
5.5890577 ,Left ,63,5843152808963 ,45,6252352548171 ,35,9969939113075
5.6116916 ,Left ,63,5468628092431 ,45,6362457404065 ,36,0222729168728
5.6340975 ,Left ,63,4691927694666 ,45,6242441861113 ,36,0311361668144
5.6490245 ,Left ,63,3716910993036 ,45,6405812946462 ,36,0215578931477
5.6715282 ,Left ,63,3336049809318 ,45,6554583296672 ,35,9818371108486
5.6940669 ,Left ,63,3077390442799 ,45,6444053923971 ,35,9251152206192
5.7090908 ,Left ,63,2472316607323 ,45,5983838675609 ,35,8951685376646
5.7316094 ,Left ,63,1535636975079 ,45,5816856802606 ,35,8979095675446
5.7540491 ,Left ,63,0954851643548 ,45,5683837948738 ,35,8925800231871
5.7688158 ,Left ,63,0589404925737 ,45,5519541950771 ,35,876177640665
5.7913598 ,Left ,63,0491761102246 ,45,5704000788955 ,35,8493284458812
5.8141824 ,Left ,63,0476658958381 ,45,566797996438 ,35,8457888693627
5.8289168 ,Left ,63,0964130691721 ,45,5685533732274 ,35,8555048378434
5.8515143 ,Left ,63,1468713234543 ,45,618804825938 ,35,8400165021148
5.8739332 ,Left ,63,2140390125179 ,45,6250948010865 ,35,8226917128446
5.9038838 ,Left ,63,2443305054685 ,45,6332832860856 ,35,7887393906651
5.9188837 ,Left ,63,3409716244705 ,45,6512906554464 ,35,7555068958403
5.9416611 ,Left ,63,4265989389115 ,45,6646597742098 ,35,728251462108
5.9564575 ,Left ,63,3817253221243 ,45,6516572664032 ,35,7440761752517
5.9714575 ,Left ,63,2969244426226 ,45,6295472607129 ,35,7689937000363
5.9938108 ,Left ,63,2599608792501 ,45,6100172756156 ,35,7719280689782
6.0162225 ,Left ,63,3095247879752 ,45,5890335360302 ,35,7538382323826
6.0314794 ,Left ,63,369406423085 ,45,5750742867681 ,35,7355799941326
6.0539535 ,Left ,63,3858728783423 ,45,5654249086085 ,35,7227705540286
6.0763057 ,Left ,63,3657746151962 ,45,5381007634142 ,35,7021723066815
6.0916797 ,Left ,63,3575917814627 ,45,4988942503965 ,35,6854287384463
6.1141351 ,Left ,63,3629801835747 ,45,4680399231935 ,35,6704430871898
6.1364321 ,Left ,63,381423859323 ,45,4574713557999 ,35,6401984359731
6.1514313 ,Left ,63,4212855809671 ,45,4434672934462 ,35,6006630968177
6.1815471 ,Left ,63,4515622178457 ,45,406581499651 ,35,5575071471288
6.2041015 ,Left ,63,4599844755363 ,45,3735810349056 ,35,5378606681197
6.2190982 ,Left ,63,4490185440253 ,45,3664913832491 ,35,5404620431204
6.2337635 ,Left ,63,4388242460246 ,45,3695368706312 ,35,5317093793864
6.2563494 ,Left ,63,4622890333352 ,45,3769552068366 ,35,5132021512517
6.271513 ,Left ,63,5105674951606 ,45,3799420530271 ,35,490567523777
6.2937313 ,Left ,63,5117120142042 ,45,3790211658359 ,35,4757393772254
6.3165252 ,Left ,63,5027619253715 ,45,3815115219732 ,35,4709053765846
6.3314558 ,Left ,63,5158378030185 ,45,3995609330453 ,35,4591169672982
6.3538309 ,Left ,63,5267640317174 ,45,4091269746959 ,35,453103347245
6.3767298 ,Left ,63,5154767699348 ,45,4156224045138 ,35,4487920753742
6.3919009 ,Left ,63,4930112254435 ,45,4237332609403 ,35,4539085382145
6.4143585 ,Left ,63,4629227474009 ,45,4390334302325 ,35,463018997932
6.4369124 ,Left ,63,4743650283534 ,45,4508294377449 ,35,4718912294143
6.4590205 ,Left ,63,464864156386 ,45,4525372360073 ,35,4830781675831
6.4817341 ,Left ,63,4622597519907 ,45,4535558580291 ,35,4822030893228
6.5117843 ,Left ,63,4434814604346 ,45,4750042753417 ,35,4764052502169
6.5345151 ,Left ,63,4507407769525 ,45,4890309686318 ,35,4739428730418
6.5643155 ,Left ,63,4408606909723 ,45,5067006760663 ,35,4816651820039
6.5790829 ,Left ,63,4044649397512 ,45,522127394266 ,35,5021881456455
6.6012808 ,Left ,63,3715921846653 ,45,525292001417 ,35,5315204675353
6.631292 ,Left ,63,3533588315497 ,45,5692214452503 ,35,5899559650276
6.6546794 ,Left ,63,3188941670408 ,45,601302306176 ,35,6201642281684
6.6772179 ,Left ,63,2797059593334 ,45,6409153346003 ,35,639390947146
6.6993794 ,Left ,63,2464725878721 ,45,6820991656022 ,35,6456401864619
6.7146217 ,Left ,63,2173527152983 ,45,728174507481 ,35,6597291385728
6.7444152 ,Left ,63,1605836573716 ,45,7799011785262 ,35,6510661453203
6.7593492 ,Left ,63,079795549697 ,45,8437403848413 ,35,6398779000774
6.7816667 ,Left ,63,0162922350856 ,45,8966071938132 ,35,6080256273513
6.7965453 ,Left ,62,9390573284321 ,45,9424771488332 ,35,5516516830761
6.8189031 ,Left ,62,9527118936429 ,45,9537390465274 ,35,5202262564411
6.8338523 ,Left ,63,056877085767 ,45,866561592603 ,35,5545638713449
6.8562218 ,Left ,63,2049036740253 ,45,790263942214 ,35,5856758914281
6.8788142 ,Left ,63,1716812299987 ,45,7547604383317 ,35,6095739045904
6.8937437 ,Left ,63,1600662153941 ,45,7441565426378 ,35,5921045998314
6.9163914 ,Left ,63,2593332082894 ,45,7184812720651 ,35,5920793854869
6.9388637 ,Left ,63,3971509752837 ,45,6903904524389 ,35,6190843210137
6.9538597 ,Left ,63,4557200642857 ,45,6275064909662 ,35,6602233530993
6.9764698 ,Left ,63,4119293961699 ,45,5769033895197 ,35,7102511772591
6.9990795 ,Left ,63,4110128940144 ,45,5550216150937 ,35,7598140587181
7.0141966 ,Left ,63,4523389152341 ,45,5405519953217 ,35,7961572296149
7.0364614 ,Left ,63,5116612885852 ,45,5322083542128 ,35,8246780210642
7.058864 ,Left ,63,5435077457019 ,45,5283163463335 ,35,8255634234226
7.0742045 ,Left ,63,4915162625958 ,45,5099914834085 ,35,8297170900337
7.0964434 ,Left ,63,465962347401 ,45,4972386592086 ,35,8159595081033
7.1189937 ,Left ,63,4648317880597 ,45,4767961824615 ,35,7968177791136
7.1337954 ,Left ,63,4504275690324 ,45,4670483849093 ,35,8131165444811
7.1563491 ,Left ,63,4256590166826 ,45,4701652755605 ,35,8464096331838
7.1788773 ,Left ,63,3887212683016 ,45,4933761593389 ,35,8846638877364
7.1940836 ,Left ,63,3593443947094 ,45,5105675457743 ,35,9171986297325
7.2164751 ,Left ,63,3672523156264 ,45,5223593243388 ,35,943453325169
7.238942 ,Left ,63,3549263441706 ,45,5257549699671 ,35,9608976966685
7.2540141 ,Left ,63,3174762107571 ,45,537083960772 ,35,9654780470396
7.2762099 ,Left ,63,2506697487272 ,45,5731576906794 ,35,96454815562
7.2990294 ,Left ,63,1688354620509 ,45,6504097696628 ,35,9518003085706
7.3141563 ,Left ,63,0784414189836 ,45,6906444556142 ,35,918780111308
7.3362613 ,Left ,63,0785019826481 ,45,6984501977175 ,35,8718936140024
7.3588331 ,Left ,63,1631773549438 ,45,6411666022943 ,35,8800469437421
7.3738609 ,Left ,63,2349468539048 ,45,6019797241177 ,35,891882205348
7.3964398 ,Left ,63,2215881267601 ,45,5887353105717 ,35,9244625094358
7.4190473 ,Left ,63,2855014321417 ,45,5843325090157 ,35,9398161944004
7.4339725 ,Left ,63,3664156696854 ,45,5793991492956 ,35,9536916065282
7.4564005 ,Left ,63,451959124313 ,45,5901117699189 ,35,9506327076394
7.478933 ,Left ,63,4700011558115 ,45,582272834073 ,35,9705712729056
7.4940814 ,Left ,63,4084537521132 ,45,5840358613216 ,35,9993825622338
7.5163852 ,Left ,63,4148274348993 ,45,5835714060123 ,36,0085179616514
7.538914 ,Left ,63,4615998983867 ,45,5847905467309 ,36,0116536951996
7.5541156 ,Left ,63,4926911210764 ,45,5883981252633 ,36,0097800137901
7.5764382 ,Left ,63,4792883464349 ,45,5978079766124 ,36,014457148244
7.5988353 ,Left ,63,4596640052566 ,45,6052030171445 ,36,0202260037675
7.6138636 ,Left ,63,4608357778087 ,45,6194694648923 ,36,0154258472701
7.636921 ,Left ,63,487758625139 ,45,6443669654887 ,36,0002639538232
7.6593921 ,Left ,63,4955828724375 ,45,6602294021855 ,35,9870717225016
7.6745738 ,Left ,63,4875502355127 ,45,6729155528675 ,35,9846032824249
7.6970449 ,Left ,63,4936510989958 ,45,6919930902553 ,35,9851589077203
7.7190719 ,Left ,63,5053743323359 ,45,7195798081144 ,35,983452998807
7.7343033 ,Left ,63,4953912914251 ,45,7404126179792 ,35,9810791641906
7.7565741 ,Left ,63,5110376541213 ,45,7527517795028 ,35,9842859825601
7.7865248 ,Left ,63,4810452022533 ,45,7567170316183 ,35,9917585556268
7.8091476 ,Left ,63,4902337487936 ,45,7616876903094 ,35,9980854801537
7.8240018 ,Left ,63,4944134508406 ,45,7641278154068 ,36,0025203252306
7.8613717 ,Left ,63,5342608368398 ,45,7743248940234 ,36,0126980854243
7.8763651 ,Left ,63,530172561149 ,45,7739137172508 ,36,0254245400149
7.8988262 ,Left ,63,5214410717279 ,45,7773006168845 ,36,0462358248828
7.9286665 ,Left ,63,5608433329058 ,45,7948207236705 ,36,0672008362768
7.9512549 ,Left ,63,5752257888942 ,45,7975284833822 ,36,0752862336178
7.9887549 ,Left ,63,6124327396246 ,45,8112512252054 ,36,0743117115052
8.0112365 ,Left ,63,6213759574526 ,45,8244838322418 ,36,075658684278
8.0487751 ,Left ,63,6247275837733 ,45,84048298901 ,36,0756532817617
8.0787668 ,Left ,63,6336536541712 ,45,8379098909404 ,36,0736751270022
8.1320592 ,Left ,63,6353943449409 ,45,796172837922 ,36,0497296289054
8.1691849 ,Left ,63,6080078354553 ,45,7585174524294 ,36,0307337202094
8.1917576 ,Left ,63,5865309468168 ,45,7380049439744 ,36,0161027009884
8.229124 ,Left ,63,5807880637772 ,45,7087479020975 ,35,968608263383
8.2517642 ,Left ,63,6030349555849 ,45,6960260065822 ,35,9430390408469
8.288808 ,Left ,63,5762845636668 ,45,6632809451234 ,35,9356516661741
8.3117864 ,Left ,63,5509912779297 ,45,6498713549026 ,35,9352312958372
8.3564547 ,Left ,63,5529007189644 ,45,6349023138831 ,35,9524790207259
8.3789575 ,Left ,63,5612570581996 ,45,6262025279908 ,35,9614382073414
8.4091495 ,Left ,63,5710632782137 ,45,604306991806 ,35,9863425644692
8.431581 ,Left ,63,5829568691395 ,45,5921622802072 ,35,9969514868414
8.469121 ,Left ,63,5881693606962 ,45,5550733027214 ,36,0041556149517
8.4917466 ,Left ,63,6018445712795 ,45,5285930512929 ,35,997606812045
8.5291611 ,Left ,63,6420040381871 ,45,4875226745516 ,35,9767294163099
8.5516824 ,Left ,63,630952219426 ,45,4671088043951 ,35,9725113909388
8.5890715 ,Left ,63,6204401892273 ,45,4450807644818 ,35,962646513672
8.6116883 ,Left ,63,6133297429815 ,45,4333055089875 ,35,9475723785202
8.6493 ,Left ,63,579902321561 ,45,392541672468 ,35,9385651330941
8.6713148 ,Left ,63,5793765929173 ,45,3752593600596 ,35,9461487754142
8.708846 ,Left ,63,5608870227246 ,45,3793211582509 ,35,9731649168492
8.7314264 ,Left ,63,5569112671168 ,45,3919053343671 ,35,9855644074583
8.7695476 ,Left ,63,5551716847059 ,45,4227699698447 ,36,0041168311452
8.7995425 ,Left ,63,5348674896397 ,45,4543752403967 ,36,0086493672067
8.8519445 ,Left ,63,4955507198586 ,45,5319617796668 ,36,0058600019493
8.8968086 ,Left ,63,4853394055728 ,45,5697925744939 ,36,0121905876882
8.9193056 ,Left ,63,4771980443748 ,45,5847715595085 ,36,0132546989601
8.9719391 ,Left ,63,486106850905 ,45,6215747192753 ,36,019427112731
9.0092559 ,Left ,63,4940656007092 ,45,6359833645439 ,36,0216359366768
9.0313234 ,Left ,63,4919864828644 ,45,6353112826061 ,36,022004497405
9.0687355 ,Left ,63,5142574107798 ,45,6368806110519 ,36,0152179443521
9.0915883 ,Left ,63,5081771522506 ,45,6290664267659 ,36,0110520529671
9.1290185 ,Left ,63,4932793392402 ,45,6181218193047 ,35,9967768883685
9.1516516 ,Left ,63,5051648259893 ,45,6152441793926 ,35,9866546052173
9.1965317 ,Left ,63,5353944075527 ,45,5965244038605 ,35,9807673483438
9.2195433 ,Left ,63,5168855051396 ,45,5821813460016 ,35,9822101871369
9.2495077 ,Left ,63,5272823320462 ,45,5745711589264 ,35,9701888600956
9.2719637 ,Left ,63,5454401348656 ,45,5635523830063 ,35,9676477755108
9.3091126 ,Left ,63,5733008656346 ,45,5328809368393 ,35,9934397905231
9.3390636 ,Left ,63,6043013466821 ,45,5207902286045 ,36,0089825015173
9.3767754 ,Left ,63,6326256022835 ,45,5017810114855 ,36,0358046439909
9.3917728 ,Left ,63,6454673224014 ,45,5098139473249 ,36,0400786406254
9.4290778 ,Left ,63,7023486695579 ,45,5442190772877 ,36,0448557312694
9.4514043 ,Left ,63,6993427905718 ,45,5683201566093 ,36,0442800862632
9.488828 ,Left ,63,7126647810551 ,45,6075493772633 ,36,0272725105986
9.5114951 ,Left ,63,7126647810551 ,45,6075493772633 ,36,0272725105986
9.548917 ,Left ,63,6959433407645 ,45,5979414724082 ,36,009615313012
9.5719352 ,Left ,63,6897592321411 ,45,6017714214364 ,35,9882211811766
9.6089633 ,Left ,63,6773019510442 ,45,6015828390522 ,35,9507358164972
9.631557 ,Left ,63,652655668219 ,45,6019979659725 ,35,9409287451089
9.6692748 ,Left ,63,6309749947836 ,45,6031818250199 ,35,9281565096608
9.6919309 ,Left ,63,6248910696882 ,45,5965972550743 ,35,9222691389388
9.728786 ,Left ,63,6078596988687 ,45,5770501294728 ,35,9205673045793
9.7516074 ,Left ,63,611438926135 ,45,5724116037352 ,35,9239255958292
9.7886812 ,Left ,63,612765195322 ,45,5707162844111 ,35,9226134177602
9.8040744 ,Left ,63,5975718946865 ,45,5700011196873 ,35,9274932025058
9.8265279 ,Left ,63,5975718946865 ,45,5700011196873 ,35,9274932025058
9.8416037 ,Left ,63,5975718946865 ,45,5700011196873 ,35,9274932025058
9.8641943 ,Left ,63,5994904489172 ,45,5641032194377 ,35,9307963173455
9.8865291 ,Left ,63,5891849631899 ,45,5581479515063 ,35,942899766396
9.9014784 ,Left ,63,5852818935117 ,45,5607876345157 ,35,950212321304
9.9237844 ,Left ,63,5852818935117 ,45,5607876345157 ,35,950212321304
9.9463966 ,Left ,63,5834440344907 ,45,5540484230652 ,35,9590054500489
9.9614116 ,Left ,63,5862987257694 ,45,5458114430747 ,35,9631136908309
9.9838497 ,Left ,63,5844384670189 ,45,5392062682676 ,35,9650424682808
10.0064361 ,Left ,63,5741427421386 ,45,5321702203836 ,35,971975314232
10.0213649 ,Left ,63,5641807047006 ,45,5169455574839 ,35,9769554198205
10.04381 ,Left ,63,5508892592728 ,45,499332868093 ,35,9749676085626
10.066246 ,Left ,63,5134284915139 ,45,4835717890105 ,35,9799656454473
10.0812597 ,Left ,63,4652685004027 ,45,4726500608004 ,35,9887727054234
10.103763 ,Left ,63,4106219629748 ,45,477972842257 ,35,9987071306403
10.1263155 ,Left ,63,3734781592472 ,45,4899888841965 ,36,001312588215
10.1413604 ,Left ,63,3559451122168 ,45,5092312101092 ,36,0099810746913
10.1638073 ,Left ,63,342278909666 ,45,5266912629128 ,36,0302489189302
10.1863839 ,Left ,63,3179922282932 ,45,537681334591 ,36,0646987092424
10.2013817 ,Left ,63,3133153322167 ,45,5423839626444 ,36,0985517163729
10.2237942 ,Left ,63,3313942503766 ,45,5457070634563 ,36,1217059060251
10.246423 ,Left ,63,3574096784333 ,45,5364651087436 ,36,1336289140795
10.2617105 ,Left ,63,3736546411275 ,45,5184730397354 ,36,1537002065585
10.2841016 ,Left ,63,3831339367809 ,45,5003236964922 ,36,1667607918741
10.3067725 ,Left ,63,4059941911723 ,45,4715677995533 ,36,1699549927839
10.321698 ,Left ,63,4336650581903 ,45,4389802730909 ,36,1649178683507
10.3440236 ,Left ,63,4464277458727 ,45,4112464831015 ,36,1558470556881
10.3665281 ,Left ,63,4603510630387 ,45,3878593433804 ,36,1370035196127
10.3817435 ,Left ,63,4724943721797 ,45,3679411773325 ,36,1181906539463
10.4039748 ,Left ,63,4884264377107 ,45,3611194223668 ,36,1023232818071
10.4267663 ,Left ,63,4951345745722 ,45,3639370647014 ,36,0921755899892
10.4417728 ,Left ,63,5126431269482 ,45,3705912323305 ,36,0848661337549
10.4641423 ,Left ,63,5199778415772 ,45,3780486540553 ,36,0791706011077
10.4867395 ,Left ,63,5257441501804 ,45,3942556522177 ,36,0784091852679
10.5017606 ,Left ,63,5432544892133 ,45,4120782584306 ,36,0744386773735
10.5241237 ,Left ,63,5468477211931 ,45,4287760991049 ,36,072406767752
10.5466381 ,Left ,63,5438263913873 ,45,4417432625617 ,36,0684540235963
10.568952 ,Left ,63,5409849337373 ,45,4499956645939 ,36,0643618082159
10.583994 ,Left ,63,5409849337373 ,45,4499956645939 ,36,0643618082159
10.6063887 ,Left ,63,5409849337373 ,45,4499956645939 ,36,0643618082159
10.6287832 ,Left ,63,5419428998391 ,45,435270146174 ,36,0635313124245
10.6440642 ,Left ,63,5315880105197 ,45,4183269837455 ,36,065474557172
10.6663874 ,Left ,63,5355157095002 ,45,4043748451936 ,36,0616799065657
10.6887475 ,Left ,63,5507161233017 ,45,3950962282771 ,36,0517096113017
10.7038292 ,Left ,63,5642707894062 ,45,3845643173332 ,36,0416735060527
10.7262564 ,Left ,63,5642707894062 ,45,3845643173332 ,36,0416735060527
10.7490653 ,Left ,63,5642707894062 ,45,3845643173332 ,36,0416735060527
10.7640335 ,Left ,63,5766701042337 ,45,3820517046222 ,36,0430063968221
10.7863414 ,Left ,63,5967669239377 ,45,3887398634365 ,36,0417018014692
10.8089066 ,Left ,63,6086314153535 ,45,3991293001538 ,36,0451686567123
10.8240445 ,Left ,63,6129487547087 ,45,4079890154627 ,36,0527822722946
10.8538 ,Left ,63,6221794065466 ,45,4216259928953 ,36,0657395221129
10.8763533 ,Left ,63,6242811736111 ,45,433289560158 ,36,0755588737514
10.8915875 ,Left ,63,6044192982587 ,45,4428409525991 ,36,0919199224632
10.906531 ,Left ,63,5971973627336 ,45,4552174734648 ,36,1076301153987
10.9289711 ,Left ,63,5929510311805 ,45,4683741385654 ,36,1203720057686
10.944276 ,Left ,63,6005707839472 ,45,4819645254255 ,36,1315516217776
10.9664564 ,Left ,63,6104052839788 ,45,4803547439411 ,36,1388964984257
10.9887914 ,Left ,63,6181927682255 ,45,4779231821681 ,36,1534463860868
11.0114241 ,Left ,63,6323053261467 ,45,4753711856319 ,36,1565183043382
11.0338643 ,Left ,63,6323053261467 ,45,4753711856319 ,36,1565183043382
11.0639621 ,Left ,63,5961140568158 ,45,4546502188826 ,36,1584900610267
11.0869245 ,Left ,63,5837961177212 ,45,4425833435608 ,36,1520077842069
11.1093713 ,Left ,63,5607493387831 ,45,4333667079406 ,36,1322283079711
11.1241982 ,Left ,63,5326286944849 ,45,4138363849824 ,36,1159163725507
11.1465732 ,Left ,63,4830134340352 ,45,3927984079384 ,36,1040086954649
11.1767937 ,Left ,63,4503750156824 ,45,3948223063559 ,36,0886363138919
11.1914951 ,Left ,63,4154588384337 ,45,3809375487055 ,36,0637474355822
11.2141071 ,Left ,63,4387497455582 ,45,3619813198814 ,36,0115731426516
11.2292519 ,Left ,63,3643700753706 ,45,3476707923685 ,35,9748533924696
11.24414 ,Left ,63,3383032959232 ,45,3379075382527 ,35,9582689513992
11.2666854 ,Left ,63,4300369806749 ,45,3514977040963 ,35,9793316978991
11.2966354 ,Left ,63,4338534275282 ,45,4206411466405 ,36,0242786524542
11.3115622 ,Left ,63,3965752742613 ,45,49316485444 ,36,0503299235713
11.3339658 ,Left ,63,4013343378784 ,45,5366942637324 ,36,0312408951404
11.3492471 ,Left ,63,4619409826483 ,45,5742735961324 ,36,0062714878443
11.3642672 ,Left ,63,4842061937253 ,45,611958982568 ,35,9921549816865
11.3943288 ,Left ,63,4649460319037 ,45,6302417092821 ,35,9801587207528
11.4167496 ,Left ,63,4087088027956 ,45,6212395792763 ,35,9555298923701
11.4314656 ,Left ,63,3895141123163 ,45,6025744301811 ,35,9250454695335
11.4537581 ,Left ,63,4143749279135 ,45,5900672651352 ,35,8848983660704
11.4689846 ,Left ,63,4531646423034 ,45,5688936383441 ,35,8378596939376
11.4838526 ,Left ,63,4583824280682 ,45,5272213610825 ,35,798946524249
11.5066357 ,Left ,63,407788287858 ,45,4933808522496 ,35,7694019992064
11.5290616 ,Left ,63,4040191289053 ,45,4851170000992 ,35,7526944511932
11.5516459 ,Left ,63,4146897409028 ,45,511757183092 ,35,7415052237669
11.566604 ,Left ,63,4573024552 ,45,5373488988936 ,35,7465259940076
11.5887929 ,Left ,63,4616626084178 ,45,5514491308517 ,35,7659923242148
11.618876 ,Left ,63,471369694653 ,45,5484158112609 ,35,8027885888794
11.633806 ,Left ,63,4760193585425 ,45,5563583230879 ,35,8375770936563
11.6570772 ,Left ,63,4795103913856 ,45,584107989023 ,35,8456859496476
11.6947289 ,Left ,63,4953294651123 ,45,5998188851575 ,35,8296179255666
11.7245166 ,Left ,63,4898572780874 ,45,5908407310484 ,35,785304533144
11.7394739 ,Left ,63,4903561600449 ,45,5720992308134 ,35,7386413843514
11.7541695 ,Left ,63,4541676176747 ,45,547973636197 ,35,6927027285697
11.7915353 ,Left ,63,3213056625976 ,45,4860147093638 ,35,5897102621261
11.8066207 ,Left ,63,2843700412117 ,45,4948531713735 ,35,5490548092701
11.8287746 ,Left ,63,2844681694304 ,45,5328221941695 ,35,5238636892966
11.8513744 ,Left ,63,1842736120464 ,45,5128663028555 ,35,5093561241499
11.8662919 ,Left ,63,2867801197967 ,45,4420723246852 ,35,5103362760235
11.8887667 ,Left ,63,4128354417028 ,45,3718006651586 ,35,5165253717497
11.9114271 ,Left ,63,2661270930582 ,45,3588473726016 ,35,485365361767
11.9264025 ,Left ,63,1477433832108 ,45,3973160080913 ,35,4997038999273
11.9565493 ,Left ,63,2230548916728 ,45,5121455750848 ,35,5256592431121
11.978951 ,Left ,63,3271309226335 ,45,6101740343385 ,35,522056618554
11.9939351 ,Left ,63,2776532573981 ,45,6346845245133 ,35,4863750055583
12.009126 ,Left ,63,2838828621368 ,45,5534608481095 ,35,5204188763114
12.0316236 ,Left ,63,3051995246754 ,45,4696962769127 ,35,6010832812857
12.0466437 ,Left ,63,2181985861219 ,45,4439891768042 ,35,6509551183309
12.0688381 ,Left ,63,2051135575611 ,45,4615515368738 ,35,6618687426027
12.0915454 ,Left ,63,256530007411 ,45,4841214494467 ,35,6991954371402
12.1065206 ,Left ,63,2615498223412 ,45,5210626511237 ,35,7689365563166
12.1290215 ,Left ,63,203473337223 ,45,5489481685774 ,35,8487487079296
12.1516927 ,Left ,63,0900584554324 ,45,5674374765115 ,35,9238869165689
12.1666191 ,Left ,63,0089880052449 ,45,5671509755472 ,35,9670691599272
12.1889815 ,Left ,63,0008320432466 ,45,5608684265738 ,35,9805351116742
12.2113512 ,Left ,63,0412615769707 ,45,5373356952073 ,35,9785186666563
12.2263646 ,Left ,63,030745188921 ,45,5162662376637 ,35,9603218107778
12.2488045 ,Left ,63,0031283073272 ,45,4849460532386 ,35,9268096339026
12.2716222 ,Left ,62,9789364381536 ,45,4548834242627 ,35,8950948753979
12.2865904 ,Left ,62,9464690172916 ,45,4580003953172 ,35,8708298132427
12.3087931 ,Left ,62,9439146122265 ,45,4760919039018 ,35,83676532662
12.3313564 ,Left ,62,8852942016878 ,45,4841109503666 ,35,7868799401256
12.3537617 ,Left ,62,802764452148 ,45,4883226486827 ,35,752393223191
12.3686844 ,Left ,62,8249704118326 ,45,4764610305128 ,35,7392088920073
12.3913075 ,Left ,62,9559961651502 ,45,4481089366188 ,35,7293251638588
12.4137775 ,Left ,63,0919666057082 ,45,4305319489851 ,35,7294831832657
12.4287165 ,Left ,63,0779576571104 ,45,4841221905581 ,35,7282717867297
12.4512931 ,Left ,63,0610303049325 ,45,5381052057148 ,35,7350820497591
12.4736715 ,Left ,63,0790743026482 ,45,554969557339 ,35,7441081760186
12.4887587 ,Left ,63,2635881671899 ,45,5568595186096 ,35,7282002229347
12.5113607 ,Left ,63,3552784712925 ,45,572098614205 ,35,7273888973258
12.5338753 ,Left ,63,381551279123 ,45,5789360117954 ,35,7078587321639
12.5488769 ,Left ,63,3199576209495 ,45,565158007876 ,35,7129496122048
12.5716092 ,Left ,63,2620906253398 ,45,5645620400657 ,35,7140345399726
12.5939145 ,Left ,63,3093791275931 ,45,5688800721777 ,35,6976165597209
12.6090645 ,Left ,63,3760522159682 ,45,5591975488976 ,35,6535698851434
12.631666 ,Left ,63,3734574663136 ,45,538736995942 ,35,6187610661388
12.6539353 ,Left ,63,3205948940892 ,45,5218175766256 ,35,6101269028692
12.6688623 ,Left ,63,3137905547696 ,45,5161836521453 ,35,605046432937
12.6915761 ,Left ,63,3604518129793 ,45,5017566861762 ,35,5862497597369
12.71383 ,Left ,63,3866797628169 ,45,4856462649834 ,35,5690214614613
12.7289759 ,Left ,63,3897719439621 ,45,4687917504499 ,35,5594831097326
12.7516838 ,Left ,63,37866451665 ,45,4640454889089 ,35,558680037543
12.7739344 ,Left ,63,3797104559664 ,45,4847859753463 ,35,5571122697583
12.7891037 ,Left ,63,3668036137456 ,45,5077195214269 ,35,5522370937083
12.8114815 ,Left ,63,3454202424087 ,45,5312917775018 ,35,5575524475492
12.8339401 ,Left ,63,3409363787966 ,45,5586115086581 ,35,5750680960446
12.8491137 ,Left ,63,3465488879087 ,45,5901801913318 ,35,5772699126218
12.8715187 ,Left ,63,310822051049 ,45,6100548632423 ,35,5763205654859
12.8939963 ,Left ,63,2722003681031 ,45,6404238813301 ,35,5606520403225
12.9090476 ,Left ,63,2632417605482 ,45,6855212252954 ,35,5234686681648
12.9317256 ,Left ,63,2135664277478 ,45,7081531985117 ,35,4774534268206
12.9540463 ,Left ,63,1841075805157 ,45,721837946867 ,35,4200484977551
12.9690285 ,Left ,63,173268899629 ,45,7342277892962 ,35,3509520378483
12.9915335 ,Left ,63,1439877304296 ,45,7500046972697 ,35,2828089400315
13.0139919 ,Left ,63,1254364274869 ,45,7621967904639 ,35,2091595118185
13.0290461 ,Left ,63,1071769677812 ,45,7607148320527 ,35,1425954351307
13.0517173 ,Left ,63,077769370668 ,45,767298485962 ,35,1093936410249
13.0739314 ,Left ,63,0380434634916 ,45,8015626829182 ,35,1164804412547
13.0888294 ,Left ,62,9865635140366 ,45,859193957729 ,35,1410667796916
13.1112083 ,Left ,62,9285101974651 ,45,8597061447556 ,35,1470221192027
13.1337825 ,Left ,62,959922760078 ,45,849736237647 ,35,1594526484455
13.1488721 ,Left ,63,0849201965357 ,45,8194761194845 ,35,2161572341797
13.1716575 ,Left ,63,2161470314247 ,45,8102041508034 ,35,2551334976534
13.1938383 ,Left ,63,2922896890638 ,45,7985659560917 ,35,3023601117397
13.2089741 ,Left ,63,3378417885798 ,45,8036908965365 ,35,3311374830117
13.2313203 ,Left ,63,4235626202222 ,45,7858247545441 ,35,3602140707643
13.2539091 ,Left ,63,493051397074 ,45,7683690615331 ,35,4019609151934
13.2768344 ,Left ,63,4795504093846 ,45,7290813779275 ,35,468364862296
13.2918393 ,Left ,63,3813306297769 ,45,6686163199795 ,35,5301354191233
13.3143403 ,Left ,63,3494855866329 ,45,6187663816207 ,35,5649946803185
13.3369016 ,Left ,63,3302686171873 ,45,5837288551919 ,35,6074971578668
13.3517212 ,Left ,63,331212575449 ,45,5814147884432 ,35,6083356443818
13.3742089 ,Left ,63,224442768729 ,45,5861322119191 ,35,6219779217331
13.3968871 ,Left ,63,1114024166189 ,45,6193945486206 ,35,6168646659925
13.4118168 ,Left ,63,0099595413993 ,45,6106448008326 ,35,582410397969
13.4343487 ,Left ,63,0383121450006 ,45,5915714085858 ,35,5357331418065
13.4566012 ,Left ,63,1035305621544 ,45,5499857263104 ,35,5855427107555
13.4718959 ,Left ,63,2639060399136 ,45,5408256775979 ,35,6646413001199
13.4943598 ,Left ,63,2784806217399 ,45,5685723659709 ,35,7612575695423
13.516606 ,Left ,63,2686848539699 ,45,6206784617446 ,35,8181213420343
13.5318989 ,Left ,63,3632250295339 ,45,6741599715793 ,35,8587245857968
13.554308 ,Left ,63,437759228831 ,45,7142296137953 ,35,9250693207895
13.5769032 ,Left ,63,453835294611 ,45,735793056707 ,35,9812394060543
13.5918645 ,Left ,63,3984375977068 ,45,7433749491394 ,36,031341455165
13.6141824 ,Left ,63,3823558580641 ,45,7462114796901 ,36,0750367176474
13.6368816 ,Left ,63,4031453103317 ,45,7438994552338 ,36,0853895753402
13.6518548 ,Left ,63,424685862527 ,45,7338758473192 ,36,0639604585827
13.6741132 ,Left ,63,4312162770928 ,45,7209203849297 ,36,0437832112966
13.7043307 ,Left ,63,4622485809174 ,45,6708928375669 ,35,9736935375457
13.7267412 ,Left ,63,4648849638495 ,45,6510204676906 ,35,9351217491203
13.7642074 ,Left ,63,4675011350507 ,45,6345250006588 ,35,9051613122798
13.7868352 ,Left ,63,5091483436426 ,45,6359818863666 ,35,8893400723599
13.8243583 ,Left ,63,5077238278437 ,45,6280871291882 ,35,865030546534
13.846753 ,Left ,63,4933496913106 ,45,6397636767415 ,35,8688807520195
13.8843179 ,Left ,63,5144350174444 ,45,6720794418873 ,35,8593789176949
13.906796 ,Left ,63,5339873433124 ,45,6784717114842 ,35,8466392892512
13.9439069 ,Left ,63,5365295050092 ,45,6664987766651 ,35,8304767101471
13.9665837 ,Left ,63,5119823029795 ,45,6679483174229 ,35,8187735230912
14.0038984 ,Left ,63,5004374048454 ,45,66005295831 ,35,7631654735069
14.0266136 ,Left ,63,5186283265898 ,45,6294071872953 ,35,7438008750854
14.063861 ,Left ,63,5265072836512 ,45,5939465686416 ,35,7348085565413
14.0864719 ,Left ,63,5146133594157 ,45,5767642944852 ,35,7418523251051
14.1244691 ,Left ,63,5788325827376 ,45,5748826547872 ,35,7533998972181
14.1470976 ,Left ,63,5897561521871 ,45,5663927213666 ,35,7615398549477
14.1916988 ,Left ,63,5790032995804 ,45,5492831254264 ,35,7983540988819
14.2143702 ,Left ,63,5673924874867 ,45,5437767453293 ,35,8134967149879
14.2443243 ,Left ,63,5436767536131 ,45,5333060788782 ,35,8442359917345
14.2667638 ,Left ,63,5311243328159 ,45,5301545199864 ,35,8585628472645
14.3042974 ,Left ,63,5456380538639 ,45,5159063910372 ,35,8648680036783
14.3267366 ,Left ,63,5522015016611 ,45,5108516240261 ,35,8669748511587
14.3643109 ,Left ,63,5533317560077 ,45,5138621953031 ,35,8657961960121
14.3868081 ,Left ,63,5519993246603 ,45,5155595040669 ,35,8671111315177
14.4242561 ,Left ,63,559059680072 ,45,529106716676 ,35,8529873851594
14.4467553 ,Left ,63,5874866930404 ,45,5375943388054 ,35,8450895901575
14.4842498 ,Left ,63,5820682309233 ,45,5357342004015 ,35,83676902269
14.5067499 ,Left ,63,5940954552433 ,45,5317000244013 ,35,8282317259735
14.5517569 ,Left ,63,5952985754359 ,45,5164733798683 ,35,7945854228959
14.5740542 ,Left ,63,5693597162113 ,45,5033620099564 ,35,7691662464354
14.6041725 ,Left ,63,4846478180201 ,45,4585834326587 ,35,7344116325557
14.6268149 ,Left ,63,4386513595004 ,45,4492543298624 ,35,6878834413324
14.6640037 ,Left ,63,3122697826553 ,45,4210616005374 ,35,6021409784374
14.6865317 ,Left ,63,2912569969372 ,45,4198666372249 ,35,6042753572633
14.724281 ,Left ,63,5882139718145 ,45,4828101604779 ,35,6802143495298
14.74677 ,Left ,63,4864804072068 ,45,5938710019617 ,35,7300715610942
14.7841591 ,Left ,63,3832339446805 ,45,7500972686518 ,35,7439538029434
14.8066853 ,Left ,63,5289995135994 ,45,8058272622601 ,35,7199244607012
14.8440939 ,Left ,63,4602545736036 ,45,8303092598947 ,35,7068225502607
14.8667698 ,Left ,63,3799601548269 ,45,8094272454598 ,35,6888436818801
14.9043316 ,Left ,63,4261717238696 ,45,757249653194 ,35,5728948881431
14.9266774 ,Left ,63,4657759737102 ,45,7386884871366 ,35,5337434171934
14.9643236 ,Left ,63,4268872760264 ,45,704676753864 ,35,4836448771641
14.9867624 ,Left ,63,4107608210932 ,45,6768637713853 ,35,4590437601026
15.0242473 ,Left ,63,4488022805881 ,45,6465158764573 ,35,416655722158
15.0466546 ,Left ,63,4536886391391 ,45,6133644477217 ,35,4006126556413
15.0839977 ,Left ,63,4191720131129 ,45,5789765796373 ,35,3861211046107
15.1067098 ,Left ,63,3989998668013 ,45,5660229638726 ,35,377391452934
15.14425 ,Left ,63,4100997899918 ,45,4725981720537 ,35,3311944659732
15.166525 ,Left ,63,3776034467461 ,45,4203564727535 ,35,3257619321316
15.2042637 ,Left ,63,3405215537131 ,45,3209132956954 ,35,3401585577771
15.226763 ,Left ,63,3555630521061 ,45,2738792653379 ,35,3436546304894
15.2641678 ,Left ,63,446377984922 ,45,2809169349266 ,35,3843248033265
15.2864212 ,Left ,63,3595656815747 ,45,323920650915 ,35,4254699410209
15.3246481 ,Left ,63,2599140962055 ,45,538835342326 ,35,4449557016597
15.3471521 ,Left ,63,3672086010799 ,45,6119395116073 ,35,4440292438998
15.3843795 ,Left ,63,3110080191283 ,45,5408935426958 ,35,5951509468829
15.4072089 ,Left ,63,2749285760507 ,45,4905509539635 ,35,5895736048985
15.4441841 ,Left ,63,1259588908484 ,45,6102652302499 ,35,5681184861719
15.4666697 ,Left ,63,1064301094347 ,45,7888776612018 ,35,4885622085509
15.5038191 ,Left ,63,2778944494489 ,45,8505666154746 ,35,3167258369817
15.5264679 ,Left ,63,3801881909606 ,45,7541453092915 ,35,4477495994658
15.5566191 ,Left ,63,25688483626 ,45,7121547193053 ,35,5411257448175
15.5789433 ,Left ,63,3136574799578 ,45,7027325500918 ,35,4984635627016
15.6016002 ,Left ,63,3577713133602 ,45,6911000340719 ,35,5030380099
15.6166569 ,Left ,63,3722616286421 ,45,6809364015053 ,35,5440499824618
15.6390849 ,Left ,63,3306680508249 ,45,6600234072934 ,35,5827391707385
15.6614804 ,Left ,63,2005649789286 ,45,6507603768955 ,35,6458344219797
15.6767287 ,Left ,63,0903180342918 ,45,6546740510087 ,35,6920843472952
15.6990132 ,Left ,63,1098353812533 ,45,6550719177002 ,35,7226348981961
15.7290253 ,Left ,63,0889431697482 ,45,6563412305191 ,35,7141507980168
15.7437474 ,Left ,63,0277806820689 ,45,6536633019299 ,35,7080820671893
15.7670273 ,Left ,62,9644092952283 ,45,6549836262608 ,35,7231110269231
15.7819556 ,Left ,62,8770357276958 ,45,6248836270125 ,35,7217518906959
15.7970967 ,Left ,62,9649640568289 ,45,6273481788514 ,35,7371897822989
15.8193907 ,Left ,63,0195987277929 ,45,6685599352522 ,35,7434357747381
15.8419166 ,Left ,62,9493604805164 ,45,7237401810025 ,35,7498302418095
15.8570696 ,Left ,62,9512331901281 ,45,7774062930626 ,35,7497106755704
15.8793909 ,Left ,63,0421833626668 ,45,8074806387994 ,35,7756020283453
15.9018337 ,Left ,63,1278395057677 ,45,8299523694534 ,35,8088697167229
15.9166752 ,Left ,63,1112235853438 ,45,8472190151713 ,35,8458294104531
15.9389164 ,Left ,63,088767030181 ,45,836056042385 ,35,8685649418091
15.9617562 ,Left ,63,0833796584997 ,45,822830439964 ,35,8777460158483
15.9767979 ,Left ,63,1274383799476 ,45,8160528417842 ,35,887540501805
15.9990471 ,Left ,63,1880928350641 ,45,8112939625418 ,35,8789429936931
16.021868 ,Left ,63,244784310647 ,45,7881766456055 ,35,8625662658901
16.0363278 ,Left ,63,2706985432514 ,45,7388378843267 ,35,8549948243835
16.0588525 ,Left ,63,2601044697463 ,45,6706229890491 ,35,8549314751842
16.0813089 ,Left ,63,2520049151123 ,45,6172968525705 ,35,8452027032739
16.0965424 ,Left ,63,2832461827461 ,45,5807075289652 ,35,8164706308278
16.1193615 ,Left ,63,333410080837 ,45,5567798309212 ,35,7943484867631
16.1419345 ,Left ,63,3590694403317 ,45,527438829451 ,35,7847741916415
16.1569645 ,Left ,63,3741339710123 ,45,5017417452449 ,35,7736760324213
16.1791923 ,Left ,63,3817885021704 ,45,5085674747625 ,35,7744502153855
16.2016736 ,Left ,63,3855598175875 ,45,5382849951922 ,35,7718069683033
16.2166928 ,Left ,63,3885506059057 ,45,5781480773448 ,35,7559797197754
16.2389269 ,Left ,63,3885693336058 ,45,6184201351452 ,35,7413592027794
16.2613496 ,Left ,63,3867188411199 ,45,6633141881139 ,35,7250263163602
16.2839694 ,Left ,63,4190600378301 ,45,7248389860311 ,35,6913742423413
16.2988444 ,Left ,63,3390225759055 ,45,7728700329297 ,35,6614032067129
16.3214787 ,Left ,63,2700954875722 ,45,8102312919529 ,35,6082252116865
16.3442231 ,Left ,63,2592734170196 ,45,8500105360649 ,35,5503646171896
16.3590925 ,Left ,63,248252341479 ,45,8844621111847 ,35,4805788291469
16.3814458 ,Left ,63,1808013692872 ,45,9029406129836 ,35,4241924493074
16.4039317 ,Left ,63,1188348062799 ,45,9232156540262 ,35,3829957369271
16.4191819 ,Left ,63,0709158935534 ,45,9289018359218 ,35,3438284836033
16.4490135 ,Left ,63,0854945859889 ,45,9138866623886 ,35,2968052785405
16.4717596 ,Left ,63,0798957045498 ,45,8981001099921 ,35,2492129301512
16.4865818 ,Left ,63,0479977172688 ,45,8834474776529 ,35,2226558166818
16.501678 ,Left ,62,9714354995718 ,45,8997753352979 ,35,2099356583712
16.5241045 ,Left ,62,8968656564021 ,45,8796250306438 ,35,1951580287068
16.539069 ,Left ,63,0072322322697 ,45,8438621440155 ,35,1800651158003
16.5613528 ,Left ,63,2251091509189 ,45,7566602413085 ,35,2256475237953
16.583967 ,Left ,63,2893073351851 ,45,7095265190024 ,35,2755335782573
16.5989794 ,Left ,63,2890403951155 ,45,7005413356886 ,35,3037372039927
16.6215756 ,Left ,63,3154807160443 ,45,6892279797471 ,35,3122159554296
16.6440677 ,Left ,63,4068545756706 ,45,6943705676699 ,35,3225946202653
16.6589606 ,Left ,63,4813382885216 ,45,6913744623522 ,35,3207340644471
16.6814712 ,Left ,63,4879069602495 ,45,6582686650434 ,35,3134098433456
16.7042271 ,Left ,63,4209620483931 ,45,605581266191 ,35,3267048749661
16.7261963 ,Left ,63,3581454890263 ,45,5680378534308 ,35,318300891789
16.7487958 ,Left ,63,2928428426588 ,45,5398032489723 ,35,2829349801628
16.7789228 ,Left ,63,1096850121269 ,45,4635986791879 ,35,1816718892211
16.8014991 ,Left ,62,9460894239524 ,45,4658052607068 ,35,2145079473575
16.8239818 ,Left ,63,0266852101052 ,45,4993292870506 ,35,2236706842725
16.8387502 ,Left ,63,1813317898882 ,45,5088330439419 ,35,2578666212031
16.8613589 ,Left ,63,2797471405944 ,45,5577767822802 ,35,3057766148729
16.883883 ,Left ,63,1977998369981 ,45,6290267574745 ,35,3904947031377
16.8989366 ,Left ,63,1032409523323 ,45,7221371968247 ,35,4732546809742
16.9213798 ,Left ,63,2129818259862 ,45,7439294549704 ,35,5115027070508
16.9441365 ,Left ,63,3510656554744 ,45,7511652096557 ,35,5305824037112
16.9664003 ,Left ,63,4514417720023 ,45,757868682909 ,35,5389843426979
16.9814208 ,Left ,63,4375780869013 ,45,7474849288057 ,35,5548143435695
17.0039103 ,Left ,63,3715773296296 ,45,7388453849162 ,35,5847293418372
17.0264346 ,Left ,63,3401524813726 ,45,7462518055967 ,35,6176885205678
17.0411742 ,Left ,63,3555585521313 ,45,7487341309445 ,35,6299001038106
17.0637468 ,Left ,63,3950583264871 ,45,7372355640264 ,35,6338853706844
17.0788945 ,Left ,63,4041070783638 ,45,712251779828 ,35,6461593069908
17.1013212 ,Left ,63,3957556026852 ,45,6803549490508 ,35,6655636423174
17.1238017 ,Left ,63,3811541198664 ,45,6576135933655 ,35,6824008458805
17.1387938 ,Left ,63,418068202367 ,45,6494054717706 ,35,6887986635512
17.1613439 ,Left ,63,4408503563076 ,45,6468573940691 ,35,7005504064009
17.183987 ,Left ,63,4408403579077 ,45,6466825097213 ,35,7143692484632
17.1990529 ,Left ,63,4102639946898 ,45,6432366854439 ,35,7277797097207
17.221397 ,Left ,63,3905008854675 ,45,6528297405819 ,35,730081897588
17.2440463 ,Left ,63,3848440521665 ,45,6678758043266 ,35,7302568548507
17.2664625 ,Left ,63,3869069468932 ,45,6685658445713 ,35,7298955592678
17.2816336 ,Left ,63,3840987107059 ,45,6754468312982 ,35,7342844156717
17.3039394 ,Left ,63,3898758410765 ,45,6680641658286 ,35,7355762078733
17.3266439 ,Left ,63,3731079388131 ,45,6672049614785 ,35,7385645077328
17.341572 ,Left ,63,3855836638882 ,45,6703351656377 ,35,7242831931561
17.3640096 ,Left ,63,3954616041622 ,45,6656977830913 ,35,7093262915977
17.3938717 ,Left ,63,420338132843 ,45,6453947531602 ,35,6883315523236
17.4090988 ,Left ,63,415596087278 ,45,6293388136012 ,35,6796178139877
17.4315455 ,Left ,63,4049904386343 ,45,6229911566252 ,35,6731414735648
17.4464358 ,Left ,63,4181491149792 ,45,6120406865889 ,35,6584920089343
17.4614293 ,Left ,63,4387411652217 ,45,6050395891047 ,35,6432277884727
17.484126 ,Left ,63,4383523054113 ,45,604412494294 ,35,6453637044873
17.5065588 ,Left ,63,4467672744985 ,45,6036087723287 ,35,6490103537455
17.521589 ,Left ,63,4734704225138 ,45,5996457038276 ,35,6516837352987
17.5439402 ,Left ,63,4675599609305 ,45,5904372331895 ,35,6560637533233
17.5666195 ,Left ,63,476565925832 ,45,5867649360657 ,35,6557361020613
17.5816529 ,Left ,63,4610629662342 ,45,5853929561645 ,35,6557811277684
17.6040037 ,Left ,63,456020040734 ,45,5838135594612 ,35,6660154910102
17.6263248 ,Left ,63,4564092046035 ,45,5844416246667 ,35,6638811660091
17.6413525 ,Left ,63,4487168357907 ,45,5876363378822 ,35,6611886744847
17.6639142 ,Left ,63,4396555958349 ,45,5837166488892 ,35,6530937942798
17.6864754 ,Left ,63,4671700570406 ,45,5721871590968 ,35,6516660634849
17.701532 ,Left ,63,4564903225683 ,45,5555630375206 ,35,660947214115
17.7244148 ,Left ,63,4413746178294 ,45,5446126695591 ,35,6745972283793
17.7471313 ,Left ,63,4550639467482 ,45,5393656940887 ,35,6764836133436
17.7620331 ,Left ,63,459904387792 ,45,5178037376369 ,35,6755405183502
17.7844311 ,Left ,63,4671995459276 ,45,4962469105479 ,35,6807010181802
17.8068355 ,Left ,63,4610055937917 ,45,4739251494375 ,35,6924900752749
17.8215939 ,Left ,63,4290968168134 ,45,460975327831 ,35,7040646895725
17.8441609 ,Left ,63,4001043262959 ,45,4474487825934 ,35,6749722701078
17.8667772 ,Left ,63,3408744801228 ,45,4434953531485 ,35,6450411316294
17.8817729 ,Left ,63,3026202053311 ,45,4811299945466 ,35,6308387779693
17.9043455 ,Left ,63,2837561850012 ,45,4782653664394 ,35,6429077193833
17.9266556 ,Left ,63,3663837280069 ,45,5062612530388 ,35,7022618510387
17.9486805 ,Left ,63,4220626361646 ,45,5908375257606 ,35,7669899874826
17.9639737 ,Left ,63,3584205062171 ,45,6773390311449 ,35,8203273977806
17.9864517 ,Left ,63,2711329664561 ,45,7506204847434 ,35,8560362700613
18.0090244 ,Left ,63,3369065702869 ,45,7889814737011 ,35,8552131590669
18.0239634 ,Left ,63,4280644997606 ,45,8361806406933 ,35,848022735068
18.0540041 ,Left ,63,4117731757737 ,45,85045886092 ,35,8675224288357
18.0690283 ,Left ,63,294130951441 ,45,8354756440646 ,35,8901643198097
18.0913261 ,Left ,63,2413135519217 ,45,8230967588284 ,35,8877968550736
18.1223362 ,Left ,63,3504913074589 ,45,7895776856029 ,35,8070166036583
18.1447077 ,Left ,63,4233228429228 ,45,7678042189166 ,35,7553772550738
18.1662942 ,Left ,63,3956979614481 ,45,7208999671658 ,35,725182631276
18.1887689 ,Left ,63,3123559840136 ,45,6862994187117 ,35,7039685016199
18.2039014 ,Left ,63,3018381026091 ,45,6689835580076 ,35,6665652900381
18.2338832 ,Left ,63,3984065432436 ,45,6709362938923 ,35,6251770275418
18.2563798 ,Left ,63,4348371309259 ,45,6571607029336 ,35,608057259601
18.2713005 ,Left ,63,390533316463 ,45,632320322589 ,35,6132451260726
18.2863437 ,Left ,63,3483505698859 ,45,6169879336133 ,35,6247742056339
18.30882 ,Left ,63,3420476920289 ,45,6185185876514 ,35,6138035706618
18.3238327 ,Left ,63,297092131347 ,45,6390997692167 ,35,6116874075824
18.3465299 ,Left ,63,3164664175874 ,45,6680729067721 ,35,584660740616
18.369202 ,Left ,63,2591014298094 ,45,6828452816573 ,35,5397928003557
18.3840898 ,Left ,63,2755119116117 ,45,6354338494638 ,35,5384992178433
18.4064832 ,Left ,63,3633407619662 ,45,5861090332681 ,35,6088352850952
18.4289657 ,Left ,63,3071131712928 ,45,5842406544325 ,35,6805734608425
18.4440771 ,Left ,63,1803529282234 ,45,6169671089398 ,35,7100561000464
18.4666864 ,Left ,63,1720998183513 ,45,6754500317932 ,35,7115477018622
18.4965252 ,Left ,63,2385562232086 ,45,7954952491639 ,35,7111312841039
18.5113638 ,Left ,63,2491306520054 ,45,9307781960928 ,35,7023296364023
18.5338247 ,Left ,63,2044209721565 ,45,9908202589321 ,35,6863775787253
18.5640915 ,Left ,63,2575928212731 ,45,9572631713509 ,35,8234984869934
18.5866871 ,Left ,63,2703315054234 ,45,9340555900472 ,35,8564624062198
18.6090448 ,Left ,63,2719884926851 ,45,9137760788787 ,35,8343973446949
18.623827 ,Left ,63,2732357430628 ,45,8851059383135 ,35,8268201709361
18.6462573 ,Left ,63,2778197177035 ,45,8690132206882 ,35,8104479918914
18.6688984 ,Left ,63,2736917693479 ,45,8260998539938 ,35,786094372437
18.6838505 ,Left ,63,2674039030816 ,45,7861929693794 ,35,7361691762343
18.7064586 ,Left ,63,2631439910148 ,45,7540083672102 ,35,6824120559694
18.7290401 ,Left ,63,2553576534281 ,45,7395785936024 ,35,6663582394098
18.7439664 ,Left ,63,2418084834148 ,45,7435727767716 ,35,6659717584613
18.7666076 ,Left ,63,2691111138813 ,45,7407564051671 ,35,685424135868
18.7888647 ,Left ,63,29541522475 ,45,7212192706465 ,35,7200726169174
18.8041162 ,Left ,63,2766003540884 ,45,6769170705916 ,35,7623639277591
18.8263696 ,Left ,63,2701677709082 ,45,6368464903232 ,35,7955805539378
18.8488409 ,Left ,63,2781982871571 ,45,6128364011433 ,35,8225519163781
18.8638105 ,Left ,63,285317790619 ,45,6123285598409 ,35,8498980255132
18.886255 ,Left ,63,2713892401864 ,45,6144712961407 ,35,8672327118697
18.9088297 ,Left ,63,2386473787766 ,45,6389108189732 ,35,865014220249
18.9236721 ,Left ,63,199146197355 ,45,67668442473 ,35,8415542943039
18.9463713 ,Left ,63,1486410419848 ,45,7455992109639 ,35,8230690618289
18.9688303 ,Left ,63,092322693577 ,45,8187824667945 ,35,8082695618984
18.9841976 ,Left ,63,0404823024844 ,45,8614866170345 ,35,7861781375348
19.0065012 ,Left ,63,0368267199086 ,45,8636977155944 ,35,7238555128817
19.0289828 ,Left ,63,0456098598394 ,45,813001588575 ,35,7079407905948
19.0439844 ,Left ,63,1086315143352 ,45,7874509271644 ,35,7391695666455
19.0664391 ,Left ,63,1250861341047 ,45,8098817719419 ,35,7930701882271
19.0889325 ,Left ,63,1564174510705 ,45,8512975740351 ,35,8213153161247
19.1120339 ,Left ,63,1490158906851 ,45,875602992582 ,35,8263890448915
19.1265601 ,Left ,63,297498236949 ,45,8682151213665 ,35,8081125051136
19.1490699 ,Left ,63,427780810443 ,45,8759472200006 ,35,8216037471057
19.171478 ,Left ,63,4250485321912 ,45,8636725620469 ,35,8488189911137
19.1866779 ,Left ,63,3567865467145 ,45,8565068059168 ,35,891206455703
19.2088445 ,Left ,63,3361588808858 ,45,8472708089231 ,35,8981376125856
19.2312996 ,Left ,63,3788047777904 ,45,8211661962056 ,35,8802130622842
19.2465888 ,Left ,63,4237981589836 ,45,7921799144922 ,35,8668893275109
19.2688931 ,Left ,63,4226635852204 ,45,7622887279227 ,35,8547014400814
19.2915969 ,Left ,63,3757184245909 ,45,7456161775335 ,35,8414563042597
19.3066882 ,Left ,63,3925549054626 ,45,7389026844698 ,35,7815200935216
19.3288906 ,Left ,63,393973065829 ,45,722119977387 ,35,7147972538693
19.3515917 ,Left ,63,4052584127475 ,45,7139806353196 ,35,6535839115631
19.3663659 ,Left ,63,3964665218305 ,45,7158625858017 ,35,6018737861513
19.3889541 ,Left ,63,3640140331825 ,45,7309624677417 ,35,5648351474126
19.4114816 ,Left ,63,3576146839618 ,45,7450193939101 ,35,5345689519583
19.4263478 ,Left ,63,355852130847 ,45,7587308392349 ,35,5048477214955
19.4488932 ,Left ,63,3308921255316 ,45,7751654257184 ,35,4774327681563
19.4791136 ,Left ,63,2720937133673 ,45,7949968798633 ,35,4144438209303
19.5016068 ,Left ,63,2782433631042 ,45,7919589101044 ,35,3945881643009
19.5391426 ,Left ,63,2352314710114 ,45,760515096038 ,35,365892407899
19.5617564 ,Left ,63,2306471636697 ,45,7402798240996 ,35,3365694326546
19.6064168 ,Left ,63,2221296330725 ,45,745654044932 ,35,3258818522615
19.6288491 ,Left ,63,2127356400546 ,45,7650657117372 ,35,3363543510323
19.6590161 ,Left ,63,1486656906687 ,45,7838853533278 ,35,3581911476654
19.6816336 ,Left ,63,1056540241806 ,45,8082317786666 ,35,3916642508809
19.7191583 ,Left ,63,019507813376 ,45,8357545502255 ,35,4109292558926
19.7414257 ,Left ,62,975734553664 ,45,8594514015889 ,35,4139220265333
19.7790125 ,Left ,62,8438641381572 ,45,922888734494 ,35,4372895389492
19.8014207 ,Left ,62,9876461499115 ,45,9075313384177 ,35,4817621048556
19.8238359 ,Left ,63,1534231314312 ,45,908709004444 ,35,5243134047022
19.8388499 ,Left ,63,2187161280562 ,45,8717361255517 ,35,5677431352946
19.8613518 ,Left ,63,2819512988275 ,45,8277482441135 ,35,5525984500748
19.8838293 ,Left ,63,3244984169427 ,45,8114485781069 ,35,534742727461
19.8987787 ,Left ,63,3134518160674 ,45,7953430485854 ,35,5583651785209
19.9213551 ,Left ,63,2998336675623 ,45,7488505545775 ,35,6095251869733
19.9590375 ,Left ,63,2512856795747 ,45,6356456000225 ,35,6696445503308
19.9814216 ,Left ,63,2628521211653 ,45,6197262495156 ,35,6740128184961
20.004176 ,Left ,63,2306672235842 ,45,6399465886715 ,35,65567793859
20.0190277 ,Left ,63,1641506569053 ,45,6805681325591 ,35,6520456218644
20.0414468 ,Left ,63,0715637157951 ,45,722627579656 ,35,6345576890785
20.0792073 ,Left ,62,9934095716464 ,45,7887481717445 ,35,577370511094
20.1015976 ,Left ,62,948031861053 ,45,761300392649 ,35,5631011333023
20.1390989 ,Left ,63,06962481634 ,45,7154597288302 ,35,5762682765428
20.161531 ,Left ,63,0724935163359 ,45,7326985108574 ,35,6091103929261
20.1989873 ,Left ,63,0642926582513 ,45,7575338471598 ,35,6770924263311
20.2215721 ,Left ,63,1770558015288 ,45,7639913883978 ,35,7232636483178
20.2590837 ,Left ,63,2732950007607 ,45,8130300792919 ,35,862970845584
20.281308 ,Left ,63,1932945236341 ,45,8181820067591 ,35,9359249656647
20.3190869 ,Left ,63,2013038702499 ,45,8353294387716 ,36,0384204662844
20.3413034 ,Left ,63,2568410095033 ,45,8283029356256 ,36,0834418678506
20.3789757 ,Left ,63,2034999280417 ,45,7944499831816 ,36,1442436673109
20.4014678 ,Left ,63,1724066244539 ,45,760383945926 ,36,1378495157611
20.4387195 ,Left ,63,2645499763995 ,45,7114786125744 ,36,087961852038
20.4613879 ,Left ,63,2794448907983 ,45,6976112602499 ,36,0646503260146
20.4991044 ,Left ,63,2565408822362 ,45,7117993213958 ,36,0286165170741
20.5219694 ,Left ,63,2746335180953 ,45,722043965808 ,36,0207022568857
20.5590982 ,Left ,63,2836313035287 ,45,741940463483 ,36,0113745441969
20.5818864 ,Left ,63,2876756200308 ,45,7445654703298 ,36,0020946607972
20.6268629 ,Left ,63,308609951099 ,45,7409917432912 ,35,9795082835042
20.649264 ,Left ,63,3184475077351 ,45,746231519702 ,35,9695726379129
20.6868731 ,Left ,63,3323228263154 ,45,7293495992951 ,35,954269434617
20.71672 ,Left ,63,3417456763721 ,45,7216219644303 ,35,9449623133481
20.7469681 ,Left ,63,3417456763721 ,45,7216219644303 ,35,9449623133481
20.7993246 ,Left ,63,3544745251201 ,45,7152827168927 ,35,9306083117122
20.8292029 ,Left ,63,3548191467316 ,45,7182302208633 ,35,9319603692984
20.8668664 ,Left ,63,3712385616887 ,45,7160439012732 ,35,9276443382981
20.8818254 ,Left ,63,3708177557948 ,45,7166155210144 ,35,9280757160046
20.9192205 ,Left ,63,3653913746598 ,45,7259532666485 ,35,9160605081181
20.9417053 ,Left ,63,3742351982912 ,45,7359483637539 ,35,9018750800042
20.9792479 ,Left ,63,3929089068662 ,45,7388780923936 ,35,8762274217362
21.0018064 ,Left ,63,3629024052364 ,45,7429073650529 ,35,8698609749642
21.0390983 ,Left ,63,3794719125831 ,45,7463570462454 ,35,8428668149728
21.0691771 ,Left ,63,3949232018885 ,45,7488543656957 ,35,8412001626282
21.1290093 ,Left ,63,407496930745 ,45,7806049961935 ,35,8851215387325
21.1813658 ,Left ,63,4468044740889 ,45,7969592536708 ,35,9285922624892
21.2270053 ,Left ,63,5109166420977 ,45,7847024037824 ,35,9425136879289
21.2496255 ,Left ,63,5253182685237 ,45,7829206048175 ,35,9437019262285
21.2794649 ,Left ,63,5035428383884 ,45,7661123621671 ,35,9449478363901
21.3019887 ,Left ,63,4982696904995 ,45,7594460972607 ,35,9433915228292
21.3166609 ,Left ,63,4713392889468 ,45,7583403260373 ,35,9426812529337
21.3390845 ,Left ,63,4619867782142 ,45,7603490380676 ,35,9399032564615
21.3619088 ,Left ,63,4435270716045 ,45,7707948977338 ,35,9374651183366
21.3991693 ,Left ,63,4328166726441 ,45,7903229112589 ,35,9392407861566
21.4218204 ,Left ,63,4125478464308 ,45,7929749828845 ,35,9404275682118
21.4518911 ,Left ,63,4093080219957 ,45,7881836484315 ,35,9368226575225
21.4744607 ,Left ,63,4084472324988 ,45,7746730279865 ,35,9327050442034
21.5042239 ,Left ,63,4079738339241 ,45,7617935176266 ,35,9264563586611
21.5190055 ,Left ,63,3861694112645 ,45,7462452895222 ,35,9191399726481
21.5418263 ,Left ,63,3970355815974 ,45,7333455938751 ,35,9067520078002
21.5565392 ,Left ,63,4071214462672 ,45,7192789458801 ,35,8917225626713
21.5718137 ,Left ,63,3997731963049 ,45,7119998403888 ,35,8836504502464
21.5943334 ,Left ,63,3874040335696 ,45,7044704267867 ,35,8771570904373
21.6243151 ,Left ,63,3838260644485 ,45,6979159271362 ,35,8704845886872
21.6391459 ,Left ,63,3889990635283 ,45,6935468296616 ,35,8619334158361
21.6691844 ,Left ,63,4003351505143 ,45,6935526133429 ,35,8557779849222
21.6843283 ,Left ,63,386693777081 ,45,6988557576971 ,35,8537996631009
21.6991563 ,Left ,63,3709018419804 ,45,7046453803847 ,35,8504680787993
21.7217411 ,Left ,63,3728955539839 ,45,7077355244483 ,35,8467081857037
21.7366945 ,Left ,63,3648842399469 ,45,708002737777 ,35,8426173684637
21.7517693 ,Left ,63,3458521865515 ,45,712414162086 ,35,844319404734
21.7818795 ,Left ,63,3343469830878 ,45,7160594003984 ,35,838454107047
21.8042322 ,Left ,63,3339638515821 ,45,7154324205612 ,35,8405864978799
21.8190106 ,Left ,63,3352739407364 ,45,7137381755039 ,35,8393018872916
21.8343451 ,Left ,63,3365842550069 ,45,7120438806632 ,35,8380170477675
21.8567422 ,Left ,63,321100944741 ,45,7118668582388 ,35,8431703968313
21.8717342 ,Left ,63,3194552687214 ,45,7106084948411 ,35,8430990382211
21.9017816 ,Left ,63,3341100397703 ,45,6995745860394 ,35,837298209391
21.924067 ,Left ,63,3371030034991 ,45,6867070337541 ,35,8414572042699
21.9467676 ,Left ,63,3199645375456 ,45,6740427814596 ,35,8502304394891
21.9617691 ,Left ,63,2982074644272 ,45,6606280919149 ,35,8532652233919
21.9843245 ,Left ,63,2886866079851 ,45,6460218853902 ,35,856194166018
21.9990611 ,Left ,63,2658015632929 ,45,6295990027845 ,35,8604492759576
22.0143864 ,Left ,63,2315706709936 ,45,6143845432765 ,35,8691578018205
22.0367916 ,Left ,63,1851623757545 ,45,6115470101085 ,35,88115250075
22.0667316 ,Left ,63,1273067650982 ,45,614654659709 ,35,8975761969458
22.0817432 ,Left ,63,0980924365049 ,45,6256064698804 ,35,9127436177622
22.1190036 ,Left ,63,0593554593323 ,45,6366415191594 ,35,9564031697953
22.134439 ,Left ,63,0608135261284 ,45,6448764893986 ,35,9806145130923
22.1566779 ,Left ,63,0637368757356 ,45,6466927318494 ,36,0035058753112
22.1791271 ,Left ,63,0662072657822 ,45,6378313023603 ,36,0374593282891
22.1940612 ,Left ,63,075536327924 ,45,6221853589463 ,36,0680875929674
22.2165273 ,Left ,63,0877475953661 ,45,6072653001115 ,36,0889164092522
22.2389998 ,Left ,63,1060701923031 ,45,5967575027578 ,36,0983582517279
22.2541106 ,Left ,63,1141861583154 ,45,591754723691 ,36,1024036325761
22.2767859 ,Left ,63,1201363223411 ,45,5884497819378 ,36,1033886458456
22.2990165 ,Left ,63,1289992345067 ,45,5858692322981 ,36,1014680566071
22.3143202 ,Left ,63,1419688995326 ,45,5858269433828 ,36,0971128233171
22.3366687 ,Left ,63,145935121277 ,45,5930732926667 ,36,0947331054555
22.3590497 ,Left ,63,1394569485361 ,45,6004676016428 ,36,0959316228047
22.3741995 ,Left ,63,1459123975289 ,45,608958649842 ,36,0979171837439
22.3967832 ,Left ,63,1664646017838 ,45,6215986225667 ,36,0926374263305
22.4191296 ,Left ,63,1767091458714 ,45,6296785869261 ,36,0908853546639
22.434091 ,Left ,63,1845269059342 ,45,6330003240989 ,36,0829961896683
22.4563649 ,Left ,63,1781442344202 ,45,6357383561258 ,36,0772827228799
22.4787889 ,Left ,63,1645423620532 ,45,6400110080187 ,36,0632159172529
22.4939778 ,Left ,63,1598463271078 ,45,6405133039718 ,36,0489218037084
22.5167159 ,Left ,63,1623058919462 ,45,6395796556581 ,36,0292435237913
22.5390793 ,Left ,63,1739136646906 ,45,6413690936838 ,36,0124330628554
22.5540522 ,Left ,63,1774795306862 ,45,6333634809753 ,36,0004155803039
22.5765226 ,Left ,63,1753245058169 ,45,6204141653201 ,35,9855712696983
22.5991836 ,Left ,63,2095447468957 ,45,6108445673084 ,35,9670632750277
22.6142856 ,Left ,63,2310557482574 ,45,606555902046 ,35,9576976311435
22.6365433 ,Left ,63,2306684473496 ,45,6059341237903 ,35,9598292273075
22.6588422 ,Left ,63,2370129210412 ,45,6044043597635 ,35,9638444645767
22.6738173 ,Left ,63,2471059453675 ,45,6036075398065 ,35,9692568168917
22.6965803 ,Left ,63,2656098192135 ,45,6030775527531 ,35,9834827229264
22.7189898 ,Left ,63,270702386118 ,45,6030998616113 ,36,0025148091158
22.7342359 ,Left ,63,2686243692765 ,45,6045221870913 ,36,0269524999066
22.7565501 ,Left ,63,2695170476897 ,45,6054872279726 ,36,0501570101525
22.7867128 ,Left ,63,2624286013783 ,45,5932130867718 ,36,0695126621335
22.8015824 ,Left ,63,243776658177 ,45,574563390005 ,36,0919086487524
22.8241164 ,Left ,63,2343995075468 ,45,5528392183656 ,36,1050567808408
22.8391752 ,Left ,63,2027399605162 ,45,5309978082449 ,36,1026705727613
22.8544115 ,Left ,63,1662201967999 ,45,5042685569281 ,36,0949511121623
22.87671 ,Left ,63,123119694055 ,45,4625201919082 ,36,082136324572
22.8992907 ,Left ,63,0876694605921 ,45,4334713023544 ,36,0546367996749
22.9212701 ,Left ,63,0693681505546 ,45,4440077182804 ,36,0315259559354
22.9365143 ,Left ,62,9962237022064 ,45,4585980146908 ,36,0013365383446
22.9590804 ,Left ,62,993170806192 ,45,428975784937 ,35,9810849198692
22.9815605 ,Left ,63,112843149978 ,45,4470955270474 ,36,0206038107423
22.9963186 ,Left ,63,1783427434498 ,45,5179058246323 ,36,0722729750708
23.0190327 ,Left ,63,1071960719391 ,45,6043445832526 ,36,117759976463
23.0416914 ,Left ,63,0466472270876 ,45,6843387153554 ,36,1285071761735
23.056774 ,Left ,63,1328444503806 ,45,7579003963273 ,36,1083027917633
23.0792787 ,Left ,63,2470832767125 ,45,802558937689 ,36,0901563060983
23.1015113 ,Left ,63,2084619317872 ,45,8216541532937 ,36,0869172887622
23.1166599 ,Left ,63,0819288352404 ,45,8202612424971 ,36,0541802997731
23.1390267 ,Left ,63,0079180457052 ,45,819656376987 ,35,9792616071027
23.161809 ,Left ,63,0064627168835 ,45,8285628457337 ,35,8574849521301
23.1765875 ,Left ,63,009801239082 ,45,8257715455885 ,35,6983319492015
23.199407 ,Left ,63,0585293805294 ,45,7831109264308 ,35,5643695179625
23.221948 ,Left ,63,0089802655404 ,45,6769493208956 ,35,494792726808
23.2368657 ,Left ,63,1549374748582 ,45,5606962345038 ,35,5338182886398
23.2591725 ,Left ,63,2549499709832 ,45,488277567852 ,35,5838107840163
23.2818869 ,Left ,63,1591616991919 ,45,4882469375677 ,35,5799565993552
23.2969179 ,Left ,63,1299612737672 ,45,4842737476398 ,35,5233259382373
23.3191051 ,Left ,63,1452902582356 ,45,5719369392556 ,35,5241514335374
23.3414029 ,Left ,63,2734524790959 ,45,680139056859 ,35,5358518323803
23.356619 ,Left ,63,3749929078294 ,45,7142683628191 ,35,5249056083107
23.379122 ,Left ,63,3557732291084 ,45,6197306853241 ,35,6259010802096
23.4017155 ,Left ,63,4504915542213 ,45,5192166443228 ,35,7536760962612
23.4163501 ,Left ,63,4270630873863 ,45,5116892821119 ,35,7927317594846
23.4389333 ,Left ,63,3732220791665 ,45,5532608762926 ,35,7511503640654
23.4614868 ,Left ,63,3847618264399 ,45,6014778242733 ,35,711059439267
23.4766864 ,Left ,63,4285059897519 ,45,6503277516415 ,35,7042115478525
23.4987955 ,Left ,63,4786288253606 ,45,6782570430807 ,35,7380711487745
23.5216089 ,Left ,63,3969023556293 ,45,6928786259661 ,35,8057247466907
23.5366277 ,Left ,63,3139019171668 ,45,6907795789379 ,35,8559494465441
23.5589782 ,Left ,63,2927500607343 ,45,6629291838462 ,35,8931947567982
23.5814132 ,Left ,63,3553285160073 ,45,616623315879 ,35,9090380327
23.596589 ,Left ,63,414886886162 ,45,5888243222226 ,35,9326234937303
23.6189128 ,Left ,63,3680792009751 ,45,5569443871055 ,35,9627125314222
23.6413162 ,Left ,63,2859937540404 ,45,5237523654175 ,35,983422034434
23.656642 ,Left ,63,2866505203643 ,45,5060464172347 ,35,9882500956518
23.6791572 ,Left ,63,3200896716145 ,45,5110195270389 ,35,9839220290132
23.7016875 ,Left ,63,3326512848411 ,45,5362486631479 ,35,9898682839881
23.7167018 ,Left ,63,2877596802218 ,45,5584573189759 ,36,0000138654984
23.7390695 ,Left ,63,2406491165744 ,45,585872684453 ,36,0087664873771
23.7613702 ,Left ,63,2343156354979 ,45,6132678346691 ,36,0128870414433
23.7765022 ,Left ,63,2369835287566 ,45,6481361271127 ,36,0130347712195
23.7990416 ,Left ,63,2013622512099 ,45,6766198007115 ,36,0205392675115
23.8213218 ,Left ,63,1930195606792 ,45,70337553983 ,36,0180260592357
23.8438675 ,Left ,63,189337114122 ,45,7138579908827 ,36,0128827651497
23.8589066 ,Left ,63,1828538251278 ,45,720090015712 ,36,0088856835064
23.8815456 ,Left ,63,1753474429179 ,45,7174770607063 ,36,0008941483767
23.903867 ,Left ,63,1553063917727 ,45,7120522458511 ,35,9795822703751
23.919003 ,Left ,63,1625982998505 ,45,7014025006624 ,35,9466189354304
23.9488166 ,Left ,63,157838859523 ,45,6772373571542 ,35,9156523516228
23.971616 ,Left ,63,1452539147416 ,45,6520274462447 ,35,8960051625128
23.9863008 ,Left ,63,1256622921862 ,45,6258299616085 ,35,8851646357877
24.0016225 ,Left ,63,108516504192 ,45,6033319471632 ,35,854595857175
24.0241084 ,Left ,63,1092224645612 ,45,5757816176448 ,35,820147619544
24.0466856 ,Left ,63,0944913935145 ,45,5479790647069 ,35,7977008989724
24.0689272 ,Left ,63,0610479393015 ,45,5297978494801 ,35,7817317738567
24.0915574 ,Left ,63,0288746421139 ,45,5110468112301 ,35,7766069592019
24.1069708 ,Left ,63,0020982026523 ,45,5031651902324 ,35,7726475387546
24.1216117 ,Left ,62,9609135458446 ,45,5417581367558 ,35,7869268601913
24.1440908 ,Left ,62,909616630649 ,45,5667862797625 ,35,7840888717228
24.1589719 ,Left ,62,9765045040526 ,45,5720203048869 ,35,7687002717286
24.181675 ,Left ,63,0414574598238 ,45,5594652183457 ,35,8005556887957
24.2040864 ,Left ,63,0461009388459 ,45,5991644911187 ,35,8275247698775
24.2190541 ,Left ,63,0809812600867 ,45,6379842885087 ,35,8416136296957
24.2414505 ,Left ,63,0760515030084 ,45,6837459742888 ,35,8194854896034
24.2640598 ,Left ,63,1332803232983 ,45,71731801387 ,35,7890034011072
24.2790301 ,Left ,63,2106839307933 ,45,7484516151827 ,35,7574848750871
24.3013151 ,Left ,63,1805020688223 ,45,761673801228 ,35,7509969436897
24.3315529 ,Left ,63,1008752290695 ,45,7593563678298 ,35,7511404728193
24.3464262 ,Left ,63,0371195047364 ,45,7713466849163 ,35,7436351322975
24.3689215 ,Left ,63,0232296297369 ,45,7870875117155 ,35,7120592336885
24.3838645 ,Left ,63,0379146696409 ,45,7949289480048 ,35,6486258643238
24.3988781 ,Left ,63,0249383215236 ,45,7894223983546 ,35,5856267428728
24.4213601 ,Left ,62,9844422315636 ,45,7869459781126 ,35,5448288517605
24.4444052 ,Left ,62,9787876559043 ,45,7753549123369 ,35,5249519915502
24.4591909 ,Left ,62,9935211718035 ,45,7643542097938 ,35,4915393860726
24.4817553 ,Left ,62,9816658064098 ,45,7652527729958 ,35,4566482835474
24.5043407 ,Left ,62,9501261262308 ,45,7701723182381 ,35,4256842824777
24.5192858 ,Left ,62,9043626887762 ,45,7865187951954 ,35,4049802241218
24.541294 ,Left ,62,8720725285645 ,45,8155704872855 ,35,3996866061587
24.5638466 ,Left ,62,8275086334971 ,45,8359481388115 ,35,3757470175923
24.578945 ,Left ,62,7556353554766 ,45,8425105050304 ,35,3450227364689
24.6015195 ,Left ,62,6383120678615 ,45,8163917646896 ,35,3230421378614
24.6242335 ,Left ,62,6170629416585 ,45,8158680297439 ,35,3113622601785
24.6466786 ,Left ,62,793076175725 ,45,7724672024228 ,35,3800231200219
24.6619162 ,Left ,62,9918173331866 ,45,7723083060391 ,35,4427566918483
24.6844342 ,Left ,63,0193779081693 ,45,7677891022963 ,35,5261403986048
24.7068821 ,Left ,63,0681856706365 ,45,7495344618792 ,35,5817939631297
24.7218805 ,Left ,63,1830755484779 ,45,7287252232873 ,35,6507765061759
24.7444025 ,Left ,63,2570634157421 ,45,7166194572615 ,35,7585339654873
24.7666567 ,Left ,63,2532457247753 ,45,7006822186823 ,35,88360613976
24.7817741 ,Left ,63,2339036637641 ,45,6894854339149 ,35,9860420549711
24.8041942 ,Left ,63,2286535033799 ,45,6985416212274 ,36,0636343739698
24.8343991 ,Left ,63,2630455654385 ,45,725945272438 ,36,1047842324764
24.8491859 ,Left ,63,265703831134 ,45,7440631011496 ,36,1243243487409
24.8719489 ,Left ,63,2243581838579 ,45,7450784086329 ,36,1017046183188
24.8865991 ,Left ,63,2054733546414 ,45,7312351075529 ,36,0551655733814
24.901697 ,Left ,63,1949199212833 ,45,7054052289385 ,35,9953592029108
24.9243991 ,Left ,63,1485979207796 ,45,6667080722395 ,35,9320187011493
24.9463446 ,Left ,63,0527990301229 ,45,6070709436796 ,35,877468911978
24.9613368 ,Left ,62,9594964110062 ,45,5612314343258 ,35,8359501219721
24.9840738 ,Left ,62,9162446339147 ,45,5335342597139 ,35,7888037115587
25.0066354 ,Left ,62,8094289631376 ,45,5222342871191 ,35,7411342234789
25.0214099 ,Left ,62,6978601424473 ,45,5216051468695 ,35,7116486346083
25.0438737 ,Left ,62,7073559364624 ,45,5249473952686 ,35,6985483307165
25.0663445 ,Left ,62,7765935845254 ,45,5393016523474 ,35,6752550026333
25.0816495 ,Left ,62,7290904207145 ,45,5392640169928 ,35,7073023038915
25.1039561 ,Left ,62,7871518497242 ,45,5554986444259 ,35,7760326918085
25.1266223 ,Left ,62,8485956086258 ,45,6180159728668 ,35,824556825232
25.1416738 ,Left ,62,7696637108518 ,45,6551639031964 ,35,907480001518
25.1639778 ,Left ,62,8827288193536 ,45,6895408134844 ,35,8935045407554
25.1863633 ,Left ,63,0056123448547 ,45,7237683462903 ,35,8854232514112
25.2016015 ,Left ,63,0328441650331 ,45,7468333315655 ,35,8990583333686
25.223683 ,Left ,62,969813933641 ,45,74617299793 ,35,9586572759642
25.2389748 ,Left ,62,942557097112 ,45,7496363772708 ,36,0152204048418
25.2539431 ,Left ,62,9623063537665 ,45,7569352189821 ,36,0696516750021
25.2764316 ,Left ,62,9963640892768 ,45,7530195227299 ,36,0979200646916
25.2989977 ,Left ,63,0272685930606 ,45,7395217865525 ,36,1156930189094
25.3139092 ,Left ,63,0456543294637 ,45,7243323871134 ,36,1252660558218
25.3364747 ,Left ,63,0563640179645 ,45,7158914929876 ,36,1337241565952
25.3741335 ,Left ,63,0146980053054 ,45,70956268771 ,36,1237017921786
25.3966619 ,Left ,63,0293612205163 ,45,700232253186 ,36,1005965170939
25.4342987 ,Left ,63,0920798438935 ,45,6876801537114 ,36,062302042724
25.4566285 ,Left ,63,0799699383047 ,45,6854537805475 ,36,053732102373
25.494206 ,Left ,63,114251074358 ,45,6811136423989 ,36,033352549563
25.5163531 ,Left ,63,1327486735145 ,45,6624978824023 ,36,0273222652697
25.561351 ,Left ,63,1538948505625 ,45,6257844994709 ,36,0138129775679
25.5838435 ,Left ,63,1531965599135 ,45,6075172106818 ,36,0097024426202
25.6138629 ,Left ,63,2105527659347 ,45,568870082544 ,35,9875211532284
25.6364132 ,Left ,63,2026386938495 ,45,5555450271989 ,35,9905509637553
25.6738946 ,Left ,63,1696956891768 ,45,53759853435 ,35,9928574755427
25.6971535 ,Left ,63,171696150277 ,45,5281924334038 ,36,0013700889488
25.7347613 ,Left ,63,0916561782477 ,45,4916199944631 ,36,0219909671032
25.7571488 ,Left ,63,0504598315041 ,45,4473628791651 ,36,0211852848006
25.7939373 ,Left ,62,9478293767377 ,45,3596173201602 ,36,0109556252477
25.8162341 ,Left ,62,9455649360099 ,45,3795861253939 ,35,9938778530571
25.8539774 ,Left ,62,9543274449012 ,45,3563243819861 ,35,9428775624234
25.8765085 ,Left ,63,0152113650979 ,45,4033456440356 ,36,0162578899131
25.913966 ,Left ,62,9758474698177 ,45,5836794134848 ,36,1513627072992
25.9365769 ,Left ,63,0553603939536 ,45,6673700567711 ,36,1770710847491
25.9590775 ,Left ,63,1727870789453 ,45,7226926439326 ,36,2089005493496
25.9739685 ,Left ,63,1895380420651 ,45,7748319179493 ,36,2311636828542
25.9963536 ,Left ,63,10860124868 ,45,7936114475318 ,36,2460883747379
26.0189762 ,Left ,63,0240400253282 ,45,7995989885431 ,36,2076761630596
26.0338868 ,Left ,63,0022493242033 ,45,7920452726739 ,36,1102232291196
26.0564187 ,Left ,62,9943930809404 ,45,7696061411961 ,36,000935679377
26.0941146 ,Left ,62,9443460907962 ,45,7482769169776 ,35,7817411255101
26.1165734 ,Left ,62,8876764050608 ,45,690594738027 ,35,6691855708384
26.1538869 ,Left ,63,0944179889057 ,45,5216732824761 ,35,6695043075662
26.1764148 ,Left ,63,134529353736 ,45,4765319400908 ,35,7028390749431
26.2142866 ,Left ,63,0833294955805 ,45,5416138947299 ,35,7522751915705
26.236347 ,Left ,63,1391862244375 ,45,6927954383683 ,35,8096433375039
26.2747028 ,Left ,63,2150948208146 ,45,8615720194727 ,35,7676058778165
26.2969795 ,Left ,63,2089318105871 ,45,769547888678 ,35,8469420246008
26.3339216 ,Left ,63,21738372762 ,45,6648863131662 ,35,9564458481098
26.3563767 ,Left ,63,1632387455038 ,45,6802554959645 ,35,9429507154472
26.3939746 ,Left ,63,2667919778167 ,45,6874244144158 ,35,918651887806
26.4166678 ,Left ,63,2360667675493 ,45,694668237639 ,35,944080204334
26.4542282 ,Left ,63,0855593669338 ,45,6520122992127 ,35,9436179377813
26.4766119 ,Left ,63,1330004730783 ,45,6318833680269 ,35,9225144605137
26.5140539 ,Left ,63,2208495956239 ,45,5976340494802 ,35,9129601378267
26.536657 ,Left ,63,2052325142919 ,45,5886820514552 ,35,9115280141467
26.5739929 ,Left ,63,1247020000347 ,45,5461017555648 ,35,9086552165324
26.5966365 ,Left ,63,1267634720366 ,45,5343697217904 ,35,913713701941
26.634216 ,Left ,63,0736863026114 ,45,5361137852755 ,35,8910968321615
26.656719 ,Left ,63,0181706978566 ,45,5364256204427 ,35,8777710055508
26.6943272 ,Left ,63,0445021834651 ,45,5507217513287 ,35,8459310862743
26.7164119 ,Left ,63,0330679722377 ,45,5678605036507 ,35,8328108194922
26.7538641 ,Left ,62,9176769887178 ,45,5909230822246 ,35,8252250663812
26.7764289 ,Left ,62,9320906867307 ,45,6069852886024 ,35,825858875142
26.813863 ,Left ,62,9364862395718 ,45,7915866773786 ,35,8626920012142
26.8371168 ,Left ,63,0465321341075 ,45,8862065245397 ,35,9251495635688
26.8744689 ,Left ,63,1957064606709 ,45,9799130814526 ,36,0048523213501
26.8972058 ,Left ,63,269844156803 ,45,9855002029874 ,35,9949127469801
26.9344343 ,Left ,63,180774443745 ,45,981198590378 ,35,9849893740725
26.9569021 ,Left ,63,1206941201283 ,45,972805007954 ,35,9704872308159
26.9944529 ,Left ,63,2215235669353 ,45,8953696911093 ,35,9251558044219
27.0168559 ,Left ,63,2496678521571 ,45,8550959353426 ,35,9030402000658
27.0544803 ,Left ,63,2171661447046 ,45,7779403234839 ,35,8783057047939
27.0770056 ,Left ,63,2425227530724 ,45,7551512213717 ,35,8586364066836
27.1068094 ,Left ,63,2979408549936 ,45,7341436775716 ,35,8019168521499
27.1290746 ,Left ,63,2991740486028 ,45,7337720596894 ,35,7851348465779
27.151693 ,Left ,63,2788497882508 ,45,7388105870911 ,35,7690572156528
27.1667886 ,Left ,63,2522180893796 ,45,756465162485 ,35,7520717560054
27.1890928 ,Left ,63,2264135814183 ,45,7741290139965 ,35,7324485335106
27.2115929 ,Left ,63,2411198702032 ,45,7821862205375 ,35,696777059477
27.2267917 ,Left ,63,2215158266926 ,45,7808256747135 ,35,6541350101095
27.2491668 ,Left ,63,1729177971811 ,45,7754161082734 ,35,6146551623849
27.2717702 ,Left ,63,1325898698684 ,45,7838427189541 ,35,5768255148565
27.286696 ,Left ,63,1180255432751 ,45,7860040092352 ,35,5341797084009
27.3091181 ,Left ,63,0955505379774 ,45,7793932154825 ,35,5015059920848
27.3317876 ,Left ,63,063546828543 ,45,7715533887076 ,35,478391520883
27.3468177 ,Left ,63,0547351266602 ,45,7762762853506 ,35,4558829117209
27.3764413 ,Left ,63,0332285044332 ,45,770696706106 ,35,4117929373883
27.3989449 ,Left ,63,0102213286947 ,45,7549230702834 ,35,3679018768444
27.4138564 ,Left ,63,0202741273311 ,45,7566816298732 ,35,3491252258276
27.436655 ,Left ,63,0145146982343 ,45,8004554950516 ,35,3445272350624
27.4514446 ,Left ,62,9093326213017 ,45,8058321750506 ,35,3454867260133
27.4663824 ,Left ,62,8531383700263 ,45,8032908567059 ,35,3515643365486
27.4890118 ,Left ,63,0006816660968 ,45,75336876721 ,35,4259601844055
27.5113684 ,Left ,63,177287827372 ,45,7230334614703 ,35,4925204678046
27.5340592 ,Left ,63,2074173274791 ,45,7176438564536 ,35,5213117286645
27.5489825 ,Left ,63,2820080079238 ,45,7174167877882 ,35,4933947995209
27.571421 ,Left ,63,3040576320734 ,45,709132721501 ,35,5165356509944
27.5940799 ,Left ,63,3027619824444 ,45,6945288165518 ,35,5700314775635
27.6089892 ,Left ,63,2725705201033 ,45,6612291994397 ,35,6287366975057
27.6313211 ,Left ,63,2095666533991 ,45,6109418007033 ,35,6878857555153
27.6540562 ,Left ,63,2191525004665 ,45,5682129827009 ,35,7189961488798
27.6691074 ,Left ,63,2131993729896 ,45,5200647906087 ,35,7296044556931
27.691667 ,Left ,63,1751265583105 ,45,4644539903771 ,35,7175524892316
27.7143342 ,Left ,63,1345111113413 ,45,403301853067 ,35,7014206626637
27.7292576 ,Left ,63,0871834156627 ,45,3830847809588 ,35,6824544899162
27.7516229 ,Left ,63,0237648561147 ,45,3855271819137 ,35,6686518283678
27.7742215 ,Left ,62,9409219449615 ,45,4228258634578 ,35,6576950596018
27.7891138 ,Left ,62,9173153445835 ,45,4814165726052 ,35,6019827301313
27.8113915 ,Left ,62,8960687264755 ,45,5220376584196 ,35,5943063061698
27.8338617 ,Left ,62,8832298714178 ,45,5254282634256 ,35,6947729145923
27.8489623 ,Left ,62,9589219698191 ,45,5398718556847 ,35,7820742763826
27.8713896 ,Left ,63,0040094871972 ,45,5528505678895 ,35,833012134656
27.8938774 ,Left ,63,0374097640835 ,45,575750665941 ,35,8144462171538
27.908908 ,Left ,63,1352419129382 ,45,6184265425727 ,35,7930127312529
27.9314273 ,Left ,63,1535826583494 ,45,6416840377948 ,35,805137369276
27.9541264 ,Left ,63,1584380732766 ,45,6453550953115 ,35,8260564821129
27.9692409 ,Left ,63,1408445210306 ,45,6342886088843 ,35,8680688455277
27.9917391 ,Left ,63,1657446661148 ,45,6276979433121 ,35,8864083959912
28.0140991 ,Left ,63,1861550167757 ,45,60671032876 ,35,906095470634
28.0289234 ,Left ,63,172962919108 ,45,6012680406407 ,35,9263137921162
28.05154 ,Left ,63,1802200031688 ,45,5973907231608 ,35,9380876357225
28.0739472 ,Left ,63,1993160110426 ,45,5905709931137 ,35,9398117799803
28.0889052 ,Left ,63,2123358910054 ,45,5770237409719 ,35,9356453632356
28.1116365 ,Left ,63,2148479204263 ,45,5659751098212 ,35,9316629928234
28.1339448 ,Left ,63,1875377639419 ,45,5677242226639 ,35,9279461881795
28.1490537 ,Left ,63,1584084786579 ,45,5741025553824 ,35,9224968519645
28.1714337 ,Left ,63,1829307864873 ,45,5917541072996 ,35,9182789664142
28.1939859 ,Left ,63,1836797635543 ,45,5941841160889 ,35,9123055474193
28.2091212 ,Left ,63,1793882464508 ,45,5851928524002 ,35,9047264639472
28.2314294 ,Left ,63,1793882464508 ,45,5851928524002 ,35,9047264639472
28.2539489 ,Left ,63,168605876015 ,45,5823680209639 ,35,9000717628979
28.2690952 ,Left ,63,179923615096 ,45,5823812139528 ,35,8870304511511
28.2918632 ,Left ,63,1925048427146 ,45,5830885755348 ,35,8692898251013
28.3145293 ,Left ,63,2040578101442 ,45,5773041489833 ,35,8440652325495
28.3293155 ,Left ,63,2016458159497 ,45,5649020829119 ,35,8295490961693
28.3518817 ,Left ,63,2135580916316 ,45,5608099602717 ,35,8211675209306
28.3744606 ,Left ,63,2343949765266 ,45,5542223628095 ,35,8108090920995
28.3893471 ,Left ,63,2420074031675 ,45,543440644708 ,35,805188997615
28.4118492 ,Left ,63,2577006524582 ,45,5389155494105 ,35,7998877304981
28.4346106 ,Left ,63,2390854412025 ,45,5314385147187 ,35,8117956394443
28.4493721 ,Left ,63,2515002377491 ,45,5355503303279 ,35,8165075474637
28.4716998 ,Left ,63,2636048318358 ,45,5467230907401 ,35,8178964894732
28.4943734 ,Left ,63,2777175970119 ,45,5509477630843 ,35,817470693492
28.5169351 ,Left ,63,2622505784775 ,45,5483134105416 ,35,8329996555483
28.5317854 ,Left ,63,2657804798805 ,45,5424186345736 ,35,8519575707924
28.5538461 ,Left ,63,2544368834759 ,45,5311866299877 ,35,8618119373055
28.5764302 ,Left ,63,2458766955336 ,45,512990126836 ,35,8741908284329
28.5913988 ,Left ,63,2569092836385 ,45,4874667240929 ,35,8808486171192
28.6142428 ,Left ,63,25783677103 ,45,4638550762554 ,35,8872832203022
28.636777 ,Left ,63,2181908919589 ,45,4353922922946 ,35,8983290166986
28.6515963 ,Left ,63,1625364767687 ,45,4085443920616 ,35,9133835384759
28.6743548 ,Left ,63,1076895899446 ,45,4078029815698 ,35,9133834132374
28.6966616 ,Left ,63,1019363775303 ,45,4376524401636 ,35,911580336748
28.7118068 ,Left ,63,0370087075988 ,45,4287098255011 ,35,9132160508873
28.7341235 ,Left ,63,0322575658472 ,45,4390624812064 ,35,9451734578101
28.7565903 ,Left ,63,1032250198199 ,45,4969663654188 ,35,9931034094354
28.771817 ,Left ,63,080782585986 ,45,5690094439389 ,36,0174667148194
28.7940909 ,Left ,63,0144191030812 ,45,6244112546068 ,36,0412747308298
28.8165425 ,Left ,63,1100368573507 ,45,6526989606049 ,36,02780779802
28.8313401 ,Left ,63,2225084236784 ,45,6704219559981 ,36,0219389426698
28.8541657 ,Left ,63,1908421346562 ,45,6915316119465 ,36,0152526236186
28.8763643 ,Left ,63,0922537584161 ,45,686189637836 ,36,0086410945635
28.8914097 ,Left ,63,0667585789014 ,45,6698567698775 ,35,9861856934976
28.9139501 ,Left ,63,1232566674037 ,45,6490674177781 ,35,9318882666365
28.9364801 ,Left ,63,1798296110829 ,45,6319360934817 ,35,8791334684627
28.9517803 ,Left ,63,192032263941 ,45,6184609208727 ,35,8637804257965
28.9743257 ,Left ,63,1602390539518 ,45,6069671716125 ,35,8596638891839
28.9967007 ,Left ,63,171207683688 ,45,592765596476 ,35,8558909259835
29.011785 ,Left ,63,1711526609143 ,45,5839664460269 ,35,8492891698888
29.0345202 ,Left ,63,1483393430472 ,45,5787749732018 ,35,8429407444739
29.056619 ,Left ,63,0934272851364 ,45,5713902500056 ,35,8463901006315
29.0716104 ,Left ,63,0493697431163 ,45,5657024149439 ,35,8423676124327
29.094533 ,Left ,63,0451978162526 ,45,6014852196867 ,35,8197413802356
29.1169698 ,Left ,63,0581637649696 ,45,6251522146713 ,35,7992608711562
29.1319066 ,Left ,63,1552934505992 ,45,6629632889024 ,35,8080639677215
29.1544208 ,Left ,63,17428508414 ,45,7065850904701 ,35,86226663735
29.1767599 ,Left ,63,0876731118495 ,45,7281975053205 ,35,9086643187868
29.1919503 ,Left ,63,0662742586435 ,45,7630227474661 ,35,9326710995865
29.2143906 ,Left ,63,1058764730598 ,45,8265172966109 ,35,9504277638336
29.2368737 ,Left ,63,1106024759702 ,45,9247769248913 ,35,9712294751867
29.2519056 ,Left ,62,9923904478118 ,46,034543588377 ,35,9703443990346
29.2745296 ,Left ,63,017572076288 ,46,0639569379635 ,35,91655265738
29.296774 ,Left ,63,0550605417089 ,46,0386607998316 ,35,9406427753767
29.3192038 ,Left ,63,1826137193355 ,46,0051932780959 ,36,005262968071
29.334392 ,Left ,63,1483273687606 ,45,9929186696057 ,36,0380673976703
29.3567114 ,Left ,63,0776765520259 ,45,9940988565906 ,36,0269710095218
29.3791788 ,Left ,63,1005506923023 ,46,0092290686807 ,36,0176657349404
29.3944954 ,Left ,63,1322918782533 ,46,0322397894006 ,36,0254742119604
29.4168102 ,Left ,63,1300481363937 ,46,053759658115 ,36,0411936106294
29.439122 ,Left ,63,0957805295816 ,46,0574670837088 ,36,063199577078
29.4619805 ,Left ,63,0986592959083 ,46,0287446511665 ,36,0783184289075
29.49195 ,Left ,63,1737350665337 ,45,9220782312397 ,36,0713234061284
29.5145399 ,Left ,63,1648159189336 ,45,880155075115 ,36,0515360180485
29.5369315 ,Left ,63,1455218615548 ,45,8418384791305 ,36,0369208919262
29.5591677 ,Left ,63,1390494853971 ,45,7957922786989 ,36,0235355106417
29.5745081 ,Left ,63,1804705632545 ,45,7559939958781 ,35,9950101620162
29.59697 ,Left ,63,2097822473258 ,45,7232527594583 ,35,9784266902005
29.6191758 ,Left ,63,1830092455221 ,45,6950166042944 ,35,9781259210022
29.6342163 ,Left ,63,1761194516895 ,45,6611210941301 ,35,9822399191416
29.6566544 ,Left ,63,1804034089244 ,45,6442795195422 ,35,9748568569132
29.6791617 ,Left ,63,1981032400574 ,45,6268773054863 ,35,9626688584966
29.6942861 ,Left ,63,1788085000432 ,45,6283387002709 ,35,9698741253503
29.716932 ,Left ,63,167707801537 ,45,6235943884538 ,35,989695869234
29.7392069 ,Left ,63,1581978624455 ,45,6223891504561 ,36,0199061439229
29.7542589 ,Left ,63,1647199818421 ,45,6307476645735 ,36,0425167907611
29.7769794 ,Left ,63,1619467310283 ,45,6309573384116 ,36,0780484992544
29.7991498 ,Left ,63,1515957979166 ,45,6479674044763 ,36,1105033696146
29.8144466 ,Left ,63,1102437770512 ,45,6786679157305 ,36,1185285838663
29.8372891 ,Left ,63,0369076204822 ,45,6857750039085 ,36,1140533210477
29.8591691 ,Left ,63,0139454314834 ,45,6978544032586 ,36,0953321231958
29.8739126 ,Left ,62,9721455592813 ,45,7132258204851 ,36,0728985856487
29.8963925 ,Left ,62,8708868419261 ,45,7724289837652 ,36,0724662786071
29.9188882 ,Left ,62,8274274272268 ,45,755705983733 ,36,0350581460544
29.9341089 ,Left ,62,8981007430739 ,45,7005732035751 ,36,0177173932808
29.956363 ,Left ,62,9918094379205 ,45,6564275496575 ,36,0389941139303
29.9791018 ,Left ,63,0156946396148 ,45,6498494339739 ,36,0187087395692
29.9940779 ,Left ,62,9930930364654 ,45,65239860884 ,36,0136681491456
30.0165771 ,Left ,62,9885147083612 ,45,6492876149242 ,35,9838123885824
30.0465852 ,Left ,63,0964378214984 ,45,6659911701473 ,35,9583090469387
30.0614654 ,Left ,63,1955005928384 ,45,6686036395763 ,35,9610057758706
30.0841033 ,Left ,63,2222918202094 ,45,6572913495105 ,35,974100048693
30.0990531 ,Left ,63,1699876278562 ,45,6578437312488 ,35,9919038281894
30.1141136 ,Left ,63,1205194193303 ,45,6740004353908 ,35,9841035358258
30.136681 ,Left ,63,170030826276 ,45,6916797776536 ,35,9531873217007
30.1587891 ,Left ,63,2382891105184 ,45,6873698942932 ,35,9143763537557
30.1739478 ,Left ,63,2531060827122 ,45,6683228233217 ,35,879242295742
30.1964395 ,Left ,63,2060698247755 ,45,6709687937854 ,35,8640978924808
30.2190322 ,Left ,63,1489046739995 ,45,6901861661228 ,35,839696864434
30.2340229 ,Left ,63,1423352723316 ,45,6977339393157 ,35,7925366099185
30.2564274 ,Left ,63,1336903854977 ,45,7069396593551 ,35,7353337606941
30.2790135 ,Left ,63,1246047495383 ,45,7178379588624 ,35,6698052580813
30.2940912 ,Left ,63,1371960566597 ,45,7210419073748 ,35,6070252794079
30.3163964 ,Left ,63,1445818605057 ,45,71981597034 ,35,5460653398357
30.3387776 ,Left ,63,1278626378739 ,45,7094754644954 ,35,4887908064223
30.3542221 ,Left ,63,1228469569142 ,45,7009460196214 ,35,4353563067047
30.3764191 ,Left ,63,113443639011 ,45,7221550312368 ,35,3956399659444
30.3990562 ,Left ,63,1050268717537 ,45,7616631078622 ,35,3784089978703
30.4139623 ,Left ,63,0760128043726 ,45,793272885068 ,35,331789254269
30.4364256 ,Left ,63,067575931169 ,45,8131999180655 ,35,2840383857911
30.4590237 ,Left ,63,0101029440569 ,45,8286379825013 ,35,2645989900346
30.4816528 ,Left ,62,9246851620077 ,45,8076331764786 ,35,2902562725993
30.4965951 ,Left ,63,0184437029947 ,45,7746942870707 ,35,3190894601596
30.5191771 ,Left ,63,2511521021184 ,45,7426656411698 ,35,3678823036472
30.5413578 ,Left ,63,3284895029663 ,45,7308423188924 ,35,391192853421
30.556516 ,Left ,63,2530993837436 ,45,7143636976082 ,35,4066444077599
30.5792808 ,Left ,63,2641989456956 ,45,7002883606428 ,35,409794243507
30.6016923 ,Left ,63,3152901492187 ,45,6784939906703 ,35,4371095673382
30.6168195 ,Left ,63,3117865989837 ,45,6402683151583 ,35,4796825007303
30.6392408 ,Left ,63,2139403830944 ,45,5942037164819 ,35,5323408869159
30.6616148 ,Left ,63,1154419774538 ,45,5860801832315 ,35,5621676694868
30.6769299 ,Left ,63,053063833648 ,45,6066482130378 ,35,5773491507652
30.7069085 ,Left ,62,9968261938284 ,45,6109907254278 ,35,5593206367695
30.7290707 ,Left ,63,0086821029426 ,45,6293112177084 ,35,5364670815632
30.7444467 ,Left ,63,1785006958791 ,45,5590138800371 ,35,5619055410111
30.7669169 ,Left ,63,4265686901226 ,45,4848670024863 ,35,6219304812589
30.781635 ,Left ,63,4319447489605 ,45,4717651038072 ,35,6528915912234
30.7968768 ,Left ,63,3027774684565 ,45,5144678451306 ,35,6728373881928
30.8193632 ,Left ,63,3077580958181 ,45,5713847004595 ,35,6716475838585
30.8416919 ,Left ,63,380963484051 ,45,6234225123951 ,35,681630212998
30.8568241 ,Left ,63,4258299610096 ,45,6637425284668 ,35,7048872545206
30.879345 ,Left ,63,4269465057748 ,45,6863023724543 ,35,7412658140709
30.9016368 ,Left ,63,3867736179489 ,45,7038499646951 ,35,78455348354
30.9165969 ,Left ,63,3668523282348 ,45,7111727873102 ,35,8319684147735
30.9388431 ,Left ,63,3846624408195 ,45,6969677138166 ,35,8558604049813
30.9614216 ,Left ,63,4076553203296 ,45,6794738970005 ,35,8763342844064
30.9765162 ,Left ,63,3900397190649 ,45,6672724277707 ,35,8924153193939
30.9988592 ,Left ,63,365233875794 ,45,6678962409641 ,35,8965209606458
31.0139172 ,Left ,63,3412104601549 ,45,66977527231 ,35,8963528354199
31.0290412 ,Left ,63,323009479432 ,45,6741959163997 ,35,9023915143173
31.0514879 ,Left ,63,3055952722827 ,45,6933576906576 ,35,9108329603582
31.0739423 ,Left ,63,2892013635719 ,45,7202272839104 ,35,9180870788356
31.0888112 ,Left ,63,261978039894 ,45,7443689985147 ,35,9137366663477
31.1114842 ,Left ,63,2552086048333 ,45,7587983214204 ,35,911559276287
31.133949 ,Left ,63,2568537418161 ,45,7600492475367 ,35,9116334427545
31.1490718 ,Left ,63,2557836950759 ,45,7546608675249 ,35,9162506603376
31.1718407 ,Left ,63,2540212789685 ,45,7445753061979 ,35,9164985649378
31.1941919 ,Left ,63,2434247748676 ,45,735825642939 ,35,9203487422504
31.2091283 ,Left ,63,2654625722627 ,45,7274336524025 ,35,9157556744901
31.2318368 ,Left ,63,2965109747078 ,45,7264764545777 ,35,9140925710044
31.2542234 ,Left ,63,2957151925959 ,45,7139971191056 ,35,922051112698
31.2692824 ,Left ,63,2797468222298 ,45,703186187112 ,35,9313048602173
31.2918273 ,Left ,63,2791284972201 ,45,7107019903782 ,35,9421384679956
31.3143815 ,Left ,63,2642855323034 ,45,7198318374549 ,35,965451122057
31.3292164 ,Left ,63,2890181057262 ,45,7394349774034 ,35,9922031184845
31.3514547 ,Left ,63,2875133200287 ,45,7538190571598 ,36,015931490752
31.3741073 ,Left ,63,2924434883319 ,45,7632147316307 ,36,0350552523337
31.3888747 ,Left ,63,275696149937 ,45,7704886474561 ,36,0603290672846
31.4116471 ,Left ,63,2778102581715 ,45,7802586177098 ,36,0874654013406
31.4338936 ,Left ,63,2630287783099 ,45,790690237935 ,36,102097284333
31.4488931 ,Left ,63,2769105286902 ,45,7951824943604 ,36,1158157939442
31.4717017 ,Left ,63,2796843029418 ,45,7927345716508 ,36,1321168723912
31.5090237 ,Left ,63,2461240016046 ,45,7882537995019 ,36,1570879106372
31.5315678 ,Left ,63,243962187435 ,45,7717344075395 ,36,1543044229666
31.5689008 ,Left ,63,2385574207212 ,45,7287484668717 ,36,1395925193591
31.5914594 ,Left ,63,2129399404489 ,45,6943199919244 ,36,1311926513873
31.6289822 ,Left ,63,1301782778034 ,45,6477910456806 ,36,0991490414638
31.6516392 ,Left ,63,0639650003917 ,45,699911233811 ,36,093611647373
31.689078 ,Left ,63,1640291588586 ,45,7029867447511 ,36,0643036118632
31.711608 ,Left ,63,2832312990389 ,45,7504406297426 ,36,089418771891
31.7341517 ,Left ,63,1546681315953 ,45,7939770338381 ,36,1186841140806
31.7491306 ,Left ,62,9838385561754 ,45,8182301420213 ,36,1540421412581
31.7717621 ,Left ,63,0791119063624 ,45,8350268380931 ,36,1311624741768
31.7940791 ,Left ,63,2165386141501 ,45,849899221378 ,36,1164786166853
31.8090673 ,Left ,63,2282204150896 ,45,8581992666985 ,36,0960035780625
31.8316691 ,Left ,63,1371079625711 ,45,8317434295664 ,36,0853725181177
31.8540925 ,Left ,63,0422274824779 ,45,8014138144046 ,36,0856265445601
31.8917136 ,Left ,63,1249282632892 ,45,7758039268171 ,36,0207471205273
31.9289085 ,Left ,63,1250894723716 ,45,77427918055 ,35,9808336422426
31.9514466 ,Left ,63,0568579194252 ,45,7348153382605 ,35,970415934726
31.9889942 ,Left ,63,0325770397565 ,45,6761627529474 ,35,9063197602187
32.0116267 ,Left ,62,9720249112928 ,45,6797637668389 ,35,9028722435653
32.0491078 ,Left ,62,8587749755851 ,45,6339924710514 ,35,8518120421462
32.071684 ,Left ,62,9779105797914 ,45,5674892759258 ,35,8673054205588
32.0939579 ,Left ,63,0897337626114 ,45,5061123496916 ,35,9170344002591
32.1315708 ,Left ,62,9160857669556 ,45,5355804406369 ,35,8818262836457
32.154233 ,Left ,62,9167809855359 ,45,6505731896012 ,35,8933642214705
32.1914265 ,Left ,62,9051068482441 ,45,8564529340243 ,35,8558027357224
32.2291071 ,Left ,62,9674128293977 ,45,8090182791661 ,35,9161203549851
32.2516892 ,Left ,62,9920350379096 ,45,7748224558367 ,35,9789574896918
32.2891344 ,Left ,62,9111102466485 ,45,7793332524523 ,35,9594148158287
32.3116997 ,Left ,62,9500359433474 ,45,7834970967928 ,35,9532484788064
32.3488036 ,Left ,62,9712677908099 ,45,7874132097089 ,35,9734521231171
32.3715614 ,Left ,62,9492377947652 ,45,772298229069 ,35,9802694932575
32.4090931 ,Left ,62,970312976264 ,45,730889542216 ,35,9741073668981
32.4316683 ,Left ,63,0140037406135 ,45,7016997650734 ,35,963946809538
32.4691012 ,Left ,62,9823593075957 ,45,6708270990401 ,35,9342334229768
32.4915831 ,Left ,63,0227832214548 ,45,6438888438917 ,35,9100343665119
32.5291101 ,Left ,63,0190022725611 ,45,6319491516475 ,35,891695595609
32.5516516 ,Left ,62,9922893704142 ,45,6453945068382 ,35,8956208108416
32.5890105 ,Left ,63,0614408978555 ,45,6475375905297 ,35,8850682257547
32.6114669 ,Left ,63,0583044046221 ,45,6414682452255 ,35,8969730851738
32.6491174 ,Left ,63,0354538468371 ,45,6780356039 ,35,9223631999136
32.6716227 ,Left ,63,0564651520305 ,45,6866527590925 ,35,9287488276955
32.7091499 ,Left ,63,0653769730932 ,45,6987416942422 ,35,9592770995419
32.7317098 ,Left ,63,0448354381892 ,45,7042382618025 ,35,9779457772007
32.7691551 ,Left ,63,0638571306008 ,45,6974006011024 ,35,9867310175067
32.7919537 ,Left ,63,0796454423386 ,45,7004404411054 ,35,9898682225977
32.8288543 ,Left ,63,072173062093 ,45,7023860757941 ,36,0093981420326
32.8514089 ,Left ,63,0975777274347 ,45,7040922200738 ,36,0063921125069
32.8814621 ,Left ,63,0871610092794 ,45,7030582291068 ,36,004752133122
32.9039403 ,Left ,63,0553406255579 ,45,7052214193438 ,36,0002376042158
32.9266663 ,Left ,63,0352351482648 ,45,7067159933246 ,35,9892517625535
32.9418046 ,Left ,63,0356941180191 ,45,7026605731811 ,35,9733254379801
32.9644545 ,Left ,63,0557697271594 ,45,7000529796511 ,35,9654140425737
32.9869284 ,Left ,63,0597145128424 ,45,7073035761548 ,35,9630202053224
33.0019157 ,Left ,63,0297343783589 ,45,7059407832655 ,35,9654023106833
33.0241526 ,Left ,63,0191326654095 ,45,6972259945995 ,35,9623823544887
33.0466096 ,Left ,63,0579161774959 ,45,6960744889468 ,35,9512555842986
33.0618892 ,Left ,63,10328877924 ,45,6999132025056 ,35,9472382438329
33.0842436 ,Left ,63,0895573573109 ,45,6986954289575 ,35,9489222307982
33.1069388 ,Left ,63,0475434678884 ,45,6949974078824 ,35,9564887875721
33.1219788 ,Left ,63,028771224617 ,45,7082854510814 ,35,9507508153398
33.1445977 ,Left ,63,0334458222507 ,45,7191008386346 ,35,947550336005
33.1666545 ,Left ,63,0268135990842 ,45,7187817694469 ,35,9541960527303
33.1817462 ,Left ,63,0010049468956 ,45,7187670090717 ,35,9627150174395
33.204558 ,Left ,63,0112574438993 ,45,7245320016379 ,35,9644023543635
33.2265925 ,Left ,63,0005168518091 ,45,7216844469039 ,35,9665773223168
33.24195 ,Left ,62,9639651566394 ,45,7076439925257 ,35,9948408247325
33.2639574 ,Left ,62,9460006780944 ,45,7009450352918 ,36,0319820370747
33.2863167 ,Left ,62,9275391263803 ,45,6971989237763 ,36,066073930023
33.3089201 ,Left ,62,8976943265064 ,45,6835806801602 ,36,1014288417612
33.324091 ,Left ,62,8743836839316 ,45,6738167712638 ,36,1318527264302
33.3464239 ,Left ,62,8057143436125 ,45,6675239482986 ,36,1627106466843
33.3691558 ,Left ,62,749668685739 ,45,6547287255195 ,36,1862934756568
33.3840395 ,Left ,62,7147530057378 ,45,6421946943343 ,36,2008356927
33.4065048 ,Left ,62,6547115545795 ,45,6645307450972 ,36,2102631442456
33.4289487 ,Left ,62,5785009188561 ,45,6840423455893 ,36,1823576084597
33.4439568 ,Left ,62,5538432858547 ,45,7108237803898 ,36,1457348520483
33.4665962 ,Left ,62,596225522653 ,45,7083349073131 ,36,1811733168526
33.4887942 ,Left ,62,670972652199 ,45,7454509376877 ,36,2454195021156
33.5039655 ,Left ,62,7655813665251 ,45,7905359364403 ,36,3140497636783
33.5265774 ,Left ,62,8232374896178 ,45,8208950799107 ,36,3647923846907
33.5494638 ,Left ,62,8795924788345 ,45,8486231990402 ,36,3737590786614
33.564742 ,Left ,62,900781008306 ,45,8787177740389 ,36,367628427436
33.5868969 ,Left ,62,8640807964732 ,45,9056819702873 ,36,3760787351443
33.6093595 ,Left ,62,8252078342979 ,45,922582161561 ,36,3712395047422
33.6245298 ,Left ,62,8296424814337 ,45,9191978662073 ,36,3408381799875
33.6467387 ,Left ,62,8549298696954 ,45,9148215876381 ,36,2895888862858
33.6694968 ,Left ,62,8761631413055 ,45,8897377581555 ,36,2480886867543
33.6845689 ,Left ,62,8753485026984 ,45,862701136224 ,36,2217239526894
33.7069185 ,Left ,62,860261448091 ,45,8238878501753 ,36,194376318743
33.7298097 ,Left ,62,8673133744099 ,45,8059312905113 ,36,1652103285664
33.7446012 ,Left ,62,898915094852 ,45,7895520091795 ,36,1357312963482
33.7668275 ,Left ,62,9297440919863 ,45,7743679039791 ,36,1069746308648
33.7891686 ,Left ,62,9692703791758 ,45,7660463632754 ,36,0832051314862
33.804634 ,Left ,62,9688501034308 ,45,766603357168 ,36,083641341565
33.8267245 ,Left ,62,9639238110158 ,45,7811099998225 ,36,0830276724909
33.8491522 ,Left ,62,9732167888583 ,45,7903360564337 ,36,0752518622943
33.864542 ,Left ,62,9925530995752 ,45,7941370999767 ,36,0592665368191
33.8867619 ,Left ,63,0018767350814 ,45,8010128993095 ,36,0480899231109
33.909451 ,Left ,62,9871473660533 ,45,8056876160195 ,36,0436537268883
33.9245475 ,Left ,62,9925804715846 ,45,8029887063085 ,36,0382910679264
33.9469724 ,Left ,62,9953234119724 ,45,8072389357756 ,36,0302560675654
33.9692895 ,Left ,63,0119460519979 ,45,8203417925332 ,36,0150663638816
33.9841697 ,Left ,63,0096308784389 ,45,8279023256094 ,36,0102573342595
34.0065908 ,Left ,63,0006412851972 ,45,8374935104423 ,36,008646507705
34.0290977 ,Left ,62,9905663258011 ,45,8370677976495 ,35,9979332442156
34.0442683 ,Left ,62,9847114036833 ,45,8356337565207 ,35,9899780127062
34.0666146 ,Left ,62,9965412403142 ,45,8414819034033 ,35,9797136878159
34.0891295 ,Left ,62,9952624510113 ,45,8431815414055 ,35,9809603762983
34.1043863 ,Left ,62,9960601205404 ,45,829687431852 ,35,9856960212818
34.1266774 ,Left ,62,9904482440755 ,45,8200458688441 ,35,9828491429412
34.1492357 ,Left ,62,9830485575481 ,45,8138343223564 ,35,9731027085667
34.1717837 ,Left ,62,9754087632958 ,45,8170168022008 ,35,963354689211
34.1868525 ,Left ,62,9714535291586 ,45,8209595438161 ,35,9481516472847
34.2092447 ,Left ,62,9739323902399 ,45,8187295430567 ,35,9370631231152
34.2243997 ,Left ,62,9710146068648 ,45,8156544820891 ,35,9227434348064
34.2467799 ,Left ,62,9476938119123 ,45,8145436288864 ,35,9114464009891
34.2689643 ,Left ,62,9223402495084 ,45,8127188911475 ,35,9004822141683
34.2916418 ,Left ,62,9120291495865 ,45,8227760464295 ,35,8879898673616
34.3139627 ,Left ,62,9042529169458 ,45,8305848755712 ,35,8712819562452
34.336603 ,Left ,62,8892202381928 ,45,8309550211144 ,35,8533847607843
34.3591286 ,Left ,62,8730903323253 ,45,8271434550264 ,35,8384396545749
34.3740056 ,Left ,62,8338388476328 ,45,8221604014537 ,35,8328054654637
34.3889158 ,Left ,62,7799848675106 ,45,8375976058402 ,35,8324196945289
34.411654 ,Left ,62,7570411435474 ,45,8586994366233 ,35,8269027982569
34.4267562 ,Left ,62,7046939788401 ,45,868834707466 ,35,8233896308907
34.4490399 ,Left ,62,6841329138448 ,45,9142056615829 ,35,828464204978
34.4716199 ,Left ,62,6151607784155 ,45,9376122228144 ,35,8340171621193
34.4866165 ,Left ,62,5563714101788 ,45,9678135079165 ,35,8255478189982
34.5095436 ,Left ,62,7319918939765 ,45,9411198760473 ,35,864802866785
34.5318808 ,Left ,62,9506007474358 ,45,9216466203606 ,35,9021257564798
34.5470314 ,Left ,62,9002628343269 ,45,8922796865041 ,35,9480722699139
34.569384 ,Left ,62,9094389878412 ,45,853906664719 ,35,9382309312474
34.591353 ,Left ,62,9823858947922 ,45,8267687429808 ,35,92668347326
34.6066238 ,Left ,62,9940112495915 ,45,7914026485793 ,35,9678969967804
34.6290866 ,Left ,62,9021045408006 ,45,7360446465361 ,36,005887617262
34.6516183 ,Left ,62,7862389011687 ,45,7090904013344 ,36,0309002460559
34.6665478 ,Left ,62,7126350081279 ,45,703377631442 ,36,0338385104143
34.6889219 ,Left ,62,7109949692517 ,45,6995835682607 ,36,0096854672347
34.719085 ,Left ,62,7190665197889 ,45,6726526076249 ,35,9782310306888
34.7340061 ,Left ,62,7453849623227 ,45,6637752787033 ,35,9608246859629
34.7567701 ,Left ,62,760013406134 ,45,6312154258811 ,36,0093235724934
34.7719296 ,Left ,62,8209423261813 ,45,6542944065024 ,36,0667358707659
34.7866145 ,Left ,62,9261041266692 ,45,6959575897746 ,36,1003519304235
34.8091027 ,Left ,62,9368497510979 ,45,7575456475714 ,36,1607965140511
34.8319054 ,Left ,63,0309246444405 ,45,8365691647756 ,36,1498676601978
34.8466348 ,Left ,63,0929104145517 ,45,8718308373282 ,36,1582787462121
34.8690594 ,Left ,63,0705889536966 ,45,8984633389839 ,36,1783871287692
34.8916599 ,Left ,63,0214510104026 ,45,9099114139919 ,36,220370233673
34.906638 ,Left ,63,015646353838 ,45,9082754592618 ,36,2695935356171
34.9290377 ,Left ,63,0380312169528 ,45,9076622866936 ,36,3079479221567
34.9513609 ,Left ,63,0588226909934 ,45,9088233980595 ,36,3270433403328
34.9663725 ,Left ,63,0597602948598 ,45,8987372921529 ,36,3470643831234
34.9889726 ,Left ,63,0609599305989 ,45,8951406074563 ,36,3632560899266
35.0119073 ,Left ,63,0505555859101 ,45,8829327948174 ,36,3790433048442
35.0271567 ,Left ,63,0531711638997 ,45,8701204815475 ,36,3765972506114
35.0496861 ,Left ,63,0528946596242 ,45,8542713883488 ,36,3736264384663
35.0717694 ,Left ,63,0477853116924 ,45,8447923906201 ,36,3615438256933
35.0868131 ,Left ,63,067455286077 ,45,8389822537062 ,36,3592722569696
35.1094509 ,Left ,63,0788811558697 ,45,8293391316394 ,36,360110708839
35.1319708 ,Left ,63,099016222548 ,45,8252706077941 ,36,3608089381248
35.1470456 ,Left ,63,0825316360137 ,45,8141372768619 ,36,365316918632
35.1695096 ,Left ,63,0629260061171 ,45,8058967782074 ,36,360811279665
35.1916494 ,Left ,63,0771472137403 ,45,7935125570282 ,36,3502109139122
35.2141998 ,Left ,63,0771088753577 ,45,7888607071904 ,36,3433928316257
35.2293136 ,Left ,63,0706773642678 ,45,7951465016546 ,36,3393575220919
35.2519353 ,Left ,63,0638712348215 ,45,800806913379 ,36,3374403328726
35.2745215 ,Left ,63,0664665409188 ,45,7926896096042 ,36,3349520349283
35.2894089 ,Left ,63,0854146153457 ,45,7856430420674 ,36,3368721272018
35.3195224 ,Left ,63,1082594549453 ,45,7792371640262 ,36,3469820853803
35.3418132 ,Left ,63,091227944406 ,45,7804000445746 ,36,3553368742246
35.3567456 ,Left ,63,0988068381184 ,45,7782794659086 ,36,3564345394693
35.3941858 ,Left ,63,096382037368 ,45,7571649601741 ,36,3401229933061
35.4094089 ,Left ,63,0950777846295 ,45,733603219937 ,36,338298512363
35.4318408 ,Left ,63,0418801154146 ,45,6994364073079 ,36,3505187847899
35.4540259 ,Left ,63,005550650694 ,45,6493921713236 ,36,349654731736
35.4692076 ,Left ,62,9905969003543 ,45,5764801844008 ,36,3467850267571
35.4915738 ,Left ,62,9715864859426 ,45,5045401970686 ,36,3479985933162
35.5142268 ,Left ,62,8542644369788 ,45,4681308596312 ,36,3646157966529
35.5365604 ,Left ,62,8826416746333 ,45,5056605749568 ,36,3527280535861
35.559352 ,Left ,62,8484757002894 ,45,4903113556046 ,36,2858133771399
35.581709 ,Left ,62,9530915935174 ,45,4935186754491 ,36,2756314819596
35.5966987 ,Left ,63,0893260263381 ,45,5463560399254 ,36,3156104920417
35.6118384 ,Left ,62,9974064879566 ,45,6132276613357 ,36,3462871972013
35.634377 ,Left ,62,8737195890163 ,45,672658762724 ,36,3465210430288
35.6493472 ,Left ,63,0024633816145 ,45,724252073743 ,36,3066607776513
35.6719935 ,Left ,63,1491969582554 ,45,763683750468 ,36,2664699248176
35.6945178 ,Left ,63,1090533973386 ,45,8046609542193 ,36,262779879188
35.7096846 ,Left ,62,9836752697741 ,45,8208762932736 ,36,2424682059422
35.7320066 ,Left ,62,886045631915 ,45,8066727474793 ,36,2053478908342
35.754385 ,Left ,62,9006790921115 ,45,7931604809162 ,36,1529109371505
35.7692825 ,Left ,62,9477762761843 ,45,7639573430495 ,36,0960906170626
35.7916453 ,Left ,62,8820150929882 ,45,7246707351713 ,36,0781164899847
35.8139794 ,Left ,62,7928617546576 ,45,6837277587269 ,36,0784839233023
35.8291205 ,Left ,62,7805749234508 ,45,6736377843412 ,36,0548271467941
35.8514883 ,Left ,62,7632546950376 ,45,6190978397765 ,36,0253882025403
35.8739059 ,Left ,62,9184800056486 ,45,5683920579765 ,36,0437829404921
35.8890278 ,Left ,62,9925977039428 ,45,5580339735832 ,36,0576995865084
35.9115398 ,Left ,62,8181921484079 ,45,5839597880723 ,36,038631236468
35.9345546 ,Left ,62,7570313676167 ,45,6512700896961 ,36,0358572325508
35.9567365 ,Left ,62,8730943029376 ,45,8041839108806 ,36,0227058614454
35.9718574 ,Left ,62,9513590292654 ,45,9311013963271 ,35,9983494903095
35.9943978 ,Left ,62,9649104119172 ,45,9898617594149 ,35,9554813366735
36.0168575 ,Left ,62,9682339198254 ,45,9411997741255 ,36,0368225748359
36.0315081 ,Left ,63,1424737690181 ,45,8712190113364 ,36,1763412168324
36.0541705 ,Left ,63,1326775647819 ,45,8496945098129 ,36,2471399453508
36.0763646 ,Left ,63,0267602094887 ,45,8673999571432 ,36,2990454925496
36.0916821 ,Left ,63,0122921248012 ,45,870248934752 ,36,3325349199854
36.1142469 ,Left ,63,0686240447731 ,45,8742737851455 ,36,3576227093599
36.1366353 ,Left ,63,0969714792756 ,45,867801160668 ,36,3935066667272
36.1514865 ,Left ,63,035424964821 ,45,847535054544 ,36,4171818394944
36.1739916 ,Left ,62,9575759470132 ,45,8332930844953 ,36,439792927836
36.1968448 ,Left ,62,9509154143058 ,45,8019239208749 ,36,4451748961592
36.2118456 ,Left ,63,0046140730352 ,45,7425286720529 ,36,4200001557571
36.2343445 ,Left ,63,0317016322577 ,45,6894448221966 ,36,3901763066513
36.2567618 ,Left ,62,9894576648777 ,45,6482043549561 ,36,3657532203611
36.2718161 ,Left ,62,9497072630231 ,45,6175376282773 ,36,3456597101263
36.2943889 ,Left ,62,9431652374698 ,45,5997088133848 ,36,3232332291398
36.3166413 ,Left ,62,9372520688817 ,45,5925081954792 ,36,296542678019
36.3318388 ,Left ,62,9335066301241 ,45,5824219025906 ,36,2677568003429
36.3543809 ,Left ,62,902858281658 ,45,5854491774259 ,36,2449630263386
36.3767694 ,Left ,62,8472390170232 ,45,6016320184409 ,36,2640907476727
36.3916988 ,Left ,62,7128439274926 ,45,6726657795362 ,36,3003490046379
36.4139201 ,Left ,62,7364723002475 ,45,7559260187481 ,36,3024093599262
36.4370281 ,Left ,62,8125815462933 ,45,7334058501927 ,36,2855746522731
36.4522623 ,Left ,63,0466820810429 ,45,677552225899 ,36,2994494225571
36.4745437 ,Left ,63,0624377251741 ,45,6520648827943 ,36,3185698104293
36.4970088 ,Left ,62,7814847129415 ,45,6429599315176 ,36,3531203635042
36.519435 ,Left ,62,7054113299399 ,45,6419862938132 ,36,3429967228099
36.5341372 ,Left ,62,8701872360225 ,45,6354588555338 ,36,302495797252
36.5565347 ,Left ,63,0270008894915 ,45,6234642801736 ,36,268278267561
36.5717782 ,Left ,62,9915870094744 ,45,6146005625893 ,36,2572977380702
36.594226 ,Left ,62,9060291599022 ,45,5985161293515 ,36,2639067752765
36.6167535 ,Left ,62,8761613342261 ,45,5974101991664 ,36,2800262416975
36.6316943 ,Left ,62,8982303914407 ,45,6217518991021 ,36,2867931271077
36.6540286 ,Left ,62,9339672896192 ,45,6495373677003 ,36,2884341212586
36.676814 ,Left ,62,9864927147891 ,45,6630797630558 ,36,3098346398733
36.6916744 ,Left ,63,0116457776927 ,45,6572675844156 ,36,3468765049192
36.714179 ,Left ,62,9713399710777 ,45,647512836103 ,36,3873392596785
36.7365091 ,Left ,62,938479406687 ,45,6599157922116 ,36,4130968099766
36.7519031 ,Left ,62,9550358842841 ,45,6710121269474 ,36,415354937931
36.7744605 ,Left ,62,9869981438495 ,45,673830066006 ,36,4040535622812
36.7893619 ,Left ,63,0130020703985 ,45,6741981321756 ,36,3797659385488
36.8044445 ,Left ,62,9830190989145 ,45,6739649828439 ,36,3528013946762
36.8269665 ,Left ,62,9551318348999 ,45,6684547985158 ,36,3135102773032
36.849278 ,Left ,62,9441934553903 ,45,6687980310794 ,36,2623328947692
36.8641587 ,Left ,62,9509897766987 ,45,6615183001018 ,36,2108075537033
36.8869279 ,Left ,62,9465025250567 ,45,657899141515 ,36,153289893875
36.9093512 ,Left ,62,9386792894414 ,45,6576328023416 ,36,0938412315388
36.9242631 ,Left ,62,9141538107706 ,45,6489243138057 ,36,0495577082874
36.9469652 ,Left ,62,9051262568605 ,45,6549464379147 ,36,0049698678758
36.9693454 ,Left ,62,8815900001937 ,45,6608395022289 ,35,9627865814442
36.9844172 ,Left ,62,8380217001788 ,45,658100218761 ,35,9391224811957
37.0067124 ,Left ,62,8160659421709 ,45,6563448014989 ,35,9179793101716
37.0293737 ,Left ,62,8204787577859 ,45,6616714686822 ,35,8823358534792
37.0441728 ,Left ,62,7985238224031 ,45,6621725880876 ,35,8577087648522
37.0669093 ,Left ,62,8002683431429 ,45,6722755449878 ,35,8573445758782
37.0895594 ,Left ,62,7307852560418 ,45,7376733138179 ,35,8676459090155
37.1039965 ,Left ,62,7004939767769 ,45,7721548163923 ,35,8846868095085
37.1264387 ,Left ,62,9138541274294 ,45,7322864251457 ,35,8991553886909
37.1490138 ,Left ,63,1658249466698 ,45,6645414564946 ,35,9321007003235
37.1639453 ,Left ,63,1352877007115 ,45,6265673301909 ,35,9444704014939
37.186687 ,Left ,63,0412536476275 ,45,6276368363276 ,35,9281739667837
37.2090955 ,Left ,63,0996263106884 ,45,6416449931957 ,35,8970239400852
37.2239722 ,Left ,63,1472113802655 ,45,6315056650832 ,35,8945171389166
37.2467244 ,Left ,63,0734797477644 ,45,587958856674 ,35,900342982916
37.2697421 ,Left ,62,9462193744124 ,45,5512605016306 ,35,9183497836542
37.2842193 ,Left ,62,8211665074986 ,45,5706774371063 ,35,9395741955302
37.3064062 ,Left ,62,8394579389289 ,45,6110081017051 ,35,9321897796769
37.3289482 ,Left ,62,7937453352674 ,45,6541153582295 ,35,9265970681177
37.3439529 ,Left ,62,7965945113169 ,45,6561942044668 ,35,9564624954502
37.3665419 ,Left ,62,97569003457 ,45,5644470885863 ,35,9814899348099
37.3889718 ,Left ,63,1790952925833 ,45,4711618224888 ,36,0191340448406
37.403968 ,Left ,63,1734759500868 ,45,4501055414522 ,36,0405790926537
37.4265415 ,Left ,63,0526715699223 ,45,4792070415223 ,36,0543389972987
37.4489654 ,Left ,63,1078766078925 ,45,5324225942655 ,36,0203732441283
37.4642347 ,Left ,63,1751006912574 ,45,5767014056589 ,35,9987292128113
37.4864427 ,Left ,63,2196429723853 ,45,613219897774 ,36,0154953083183
37.5091526 ,Left ,63,1333978860881 ,45,6299554058147 ,36,0548950613832
37.5463735 ,Left ,63,0958666495985 ,45,6770975243484 ,36,0880692659701
37.5838319 ,Left ,63,1413233933033 ,45,6682780107796 ,36,0962570555184
37.6064735 ,Left ,63,1132152978786 ,45,6452154304934 ,36,1196135515596
37.6438735 ,Left ,63,0948650202488 ,45,6001878027487 ,36,1405015028483
37.6664675 ,Left ,63,1092434889952 ,45,5948560728215 ,36,1400140549916
37.7039545 ,Left ,63,1200136835022 ,45,5692969219622 ,36,1468938039428
37.7271162 ,Left ,63,1353823702744 ,45,5603900865402 ,36,1557774160733
37.7722696 ,Left ,63,1676402838711 ,45,5518911548254 ,36,1890507768728
37.7947626 ,Left ,63,1474089646607 ,45,5433320655101 ,36,2076853047054
37.8317582 ,Left ,63,1615554292817 ,45,5541789396053 ,36,2380977319892
37.8541694 ,Left ,63,1665140134772 ,45,5601482013198 ,36,2485532167866
37.8841403 ,Left ,63,1660483083248 ,45,5470947040785 ,36,2560749338333
37.9067416 ,Left ,63,1683243375498 ,45,541790094519 ,36,2641771735131
37.9439057 ,Left ,63,1726549878458 ,45,5235171086045 ,36,2790062951673
