timestamp,event,roll,pitch,yaw
0.0127355 ,Left ,59,9378409042232 ,47,0388712069557 ,81,2982865816181
0.0127406 ,Left ,59,9378409042232 ,47,0388712069557 ,81,2982865816181
0.0127452 ,Left ,59,9378409042232 ,47,0388712069557 ,81,2982865816181
0.0127483 ,Left ,59,9378409042232 ,47,0388712069557 ,81,2982865816181
0.0277787 ,Left ,59,9466439080997 ,47,03127518884 ,81,3010857325716
0.0277806 ,Left ,59,9466439080997 ,47,03127518884 ,81,3010857325716
0.0277821 ,Left ,59,9466439080997 ,47,03127518884 ,81,3010857325716
0.0277836 ,Left ,59,9466439080997 ,47,03127518884 ,81,3010857325716
0.0504947 ,Left ,59,9601303651021 ,47,0143256956275 ,81,3031495275526
0.0504968 ,Left ,59,9601303651021 ,47,0143256956275 ,81,3031495275526
0.0504983 ,Left ,59,9601303651021 ,47,0143256956275 ,81,3031495275526
0.0504997 ,Left ,59,9601303651021 ,47,0143256956275 ,81,3031495275526
0.072755 ,Left ,59,9690545191189 ,46,9964988661002 ,81,3067960959148
0.0727571 ,Left ,59,9690545191189 ,46,9964988661002 ,81,3067960959148
0.0727586 ,Left ,59,9690545191189 ,46,9964988661002 ,81,3067960959148
0.0727601 ,Left ,59,9690545191189 ,46,9964988661002 ,81,3067960959148
0.0877941 ,Left ,59,9624373838176 ,46,9818277983175 ,81,3079498371297
0.0877963 ,Left ,59,9624373838176 ,46,9818277983175 ,81,3079498371297
0.0877981 ,Left ,59,9624373838176 ,46,9818277983175 ,81,3079498371297
0.0877998 ,Left ,59,9624373838176 ,46,9818277983175 ,81,3079498371297
0.1030281 ,Left ,59,9528832809529 ,46,9726027828099 ,81,300535432552
0.1030305 ,Left ,59,9528832809529 ,46,9726027828099 ,81,300535432552
0.1030324 ,Left ,59,9528832809529 ,46,9726027828099 ,81,300535432552
0.1030343 ,Left ,59,9528832809529 ,46,9726027828099 ,81,300535432552
0.1253975 ,Left ,59,9546484391961 ,46,973593111179 ,81,3010966280842
0.1254002 ,Left ,59,9546484391961 ,46,973593111179 ,81,3010966280842
0.1254023 ,Left ,59,9546484391961 ,46,973593111179 ,81,3010966280842
0.1254044 ,Left ,59,9546484391961 ,46,973593111179 ,81,3010966280842
0.1405045 ,Left ,59,9545865456593 ,46,980357482012 ,81,2944043273342
0.1405064 ,Left ,59,9545865456593 ,46,980357482012 ,81,2944043273342
0.1405079 ,Left ,59,9545865456593 ,46,980357482012 ,81,2944043273342
0.1405094 ,Left ,59,9545865456593 ,46,980357482012 ,81,2944043273342
0.1628414 ,Left ,59,9473583218651 ,46,9982827705595 ,81,2944825257934
0.1628435 ,Left ,59,9473583218651 ,46,9982827705595 ,81,2944825257934
0.1628451 ,Left ,59,9473583218651 ,46,9982827705595 ,81,2944825257934
0.1628467 ,Left ,59,9473583218651 ,46,9982827705595 ,81,2944825257934
0.1853152 ,Left ,59,9409946683803 ,47,0222576641013 ,81,2928360888267
0.1853173 ,Left ,59,9409946683803 ,47,0222576641013 ,81,2928360888267
0.1853192 ,Left ,59,9409946683803 ,47,0222576641013 ,81,2928360888267
0.1853209 ,Left ,59,9409946683803 ,47,0222576641013 ,81,2928360888267
0.2002239 ,Left ,59,9355586974534 ,47,0433448758334 ,81,2948207549868
0.2002256 ,Left ,59,9355586974534 ,47,0433448758334 ,81,2948207549868
0.2002271 ,Left ,59,9355586974534 ,47,0433448758334 ,81,2948207549868
0.2002286 ,Left ,59,9355586974534 ,47,0433448758334 ,81,2948207549868
0.2228636 ,Left ,59,9355478492971 ,47,059358837414 ,81,3006853822812
0.2228659 ,Left ,59,9355478492971 ,47,059358837414 ,81,3006853822812
0.2228678 ,Left ,59,9355478492971 ,47,059358837414 ,81,3006853822812
0.2228697 ,Left ,59,9355478492971 ,47,059358837414 ,81,3006853822812
0.2453356 ,Left ,59,9422354443722 ,47,0650903976546 ,81,3049017262937
0.2453383 ,Left ,59,9422354443722 ,47,0650903976546 ,81,3049017262937
0.2453404 ,Left ,59,9422354443722 ,47,0650903976546 ,81,3049017262937
0.2453425 ,Left ,59,9422354443722 ,47,0650903976546 ,81,3049017262937
0.2605662 ,Left ,59,9422354443722 ,47,0650903976546 ,81,3049017262937
0.2605692 ,Left ,59,9422354443722 ,47,0650903976546 ,81,3049017262937
0.2605717 ,Left ,59,9422354443722 ,47,0650903976546 ,81,3049017262937
0.260574 ,Left ,59,9422354443722 ,47,0650903976546 ,81,3049017262937
0.2831042 ,Left ,59,9451385161214 ,47,0547512585966 ,81,3035958856923
0.2831074 ,Left ,59,9451385161214 ,47,0547512585966 ,81,3035958856923
0.28311 ,Left ,59,9451385161214 ,47,0547512585966 ,81,3035958856923
0.2831127 ,Left ,59,9451385161214 ,47,0547512585966 ,81,3035958856923
0.3055223 ,Left ,59,946916128903 ,47,0397294718272 ,81,2982938658122
0.3055259 ,Left ,59,946916128903 ,47,0397294718272 ,81,2982938658122
0.305529 ,Left ,59,946916128903 ,47,0397294718272 ,81,2982938658122
0.305532 ,Left ,59,946916128903 ,47,0397294718272 ,81,2982938658122
0.3203992 ,Left ,59,9472672000869 ,47,0232347309686 ,81,2949848618981
0.3204048 ,Left ,59,9472672000869 ,47,0232347309686 ,81,2949848618981
0.3204078 ,Left ,59,9472672000869 ,47,0232347309686 ,81,2949848618981
0.3204109 ,Left ,59,9472672000869 ,47,0232347309686 ,81,2949848618981
0.3427432 ,Left ,59,9476898435221 ,47,0076264895364 ,81,2885161887843
0.342745 ,Left ,59,9476898435221 ,47,0076264895364 ,81,2885161887843
0.3427465 ,Left ,59,9476898435221 ,47,0076264895364 ,81,2885161887843
0.3427479 ,Left ,59,9476898435221 ,47,0076264895364 ,81,2885161887843
0.3652793 ,Left ,59,951260936563 ,46,9935945826236 ,81,2837908932288
0.3652816 ,Left ,59,951260936563 ,46,9935945826236 ,81,2837908932288
0.3652831 ,Left ,59,951260936563 ,46,9935945826236 ,81,2837908932288
0.3652845 ,Left ,59,951260936563 ,46,9935945826236 ,81,2837908932288
0.3804878 ,Left ,59,9578483794879 ,46,9870142073534 ,81,2772870056819
0.3804898 ,Left ,59,9578483794879 ,46,9870142073534 ,81,2772870056819
0.3804932 ,Left ,59,9578483794879 ,46,9870142073534 ,81,2772870056819
0.3804947 ,Left ,59,9578483794879 ,46,9870142073534 ,81,2772870056819
0.4103635 ,Left ,59,9648337169755 ,46,983018087025 ,81,2715022399835
0.4103659 ,Left ,59,9648337169755 ,46,983018087025 ,81,2715022399835
0.4103677 ,Left ,59,9648337169755 ,46,983018087025 ,81,2715022399835
0.4103696 ,Left ,59,9648337169755 ,46,983018087025 ,81,2715022399835
0.4330443 ,Left ,59,9634619625119 ,46,9846086135353 ,81,2716580257916
0.433048 ,Left ,59,9634619625119 ,46,9846086135353 ,81,2716580257916
0.433051 ,Left ,59,9634619625119 ,46,9846086135353 ,81,2716580257916
0.433054 ,Left ,59,9634619625119 ,46,9846086135353 ,81,2716580257916
0.463142 ,Left ,59,9596105533662 ,46,9956594749574 ,81,2680013886752
0.4631459 ,Left ,59,9596105533662 ,46,9956594749574 ,81,2680013886752
0.463149 ,Left ,59,9596105533662 ,46,9956594749574 ,81,2680013886752
0.463152 ,Left ,59,9596105533662 ,46,9956594749574 ,81,2680013886752
0.4854913 ,Left ,59,9613748100178 ,46,9966515805363 ,81,2685652289709
0.485495 ,Left ,59,9613748100178 ,46,9966515805363 ,81,2685652289709
0.4854981 ,Left ,59,9613748100178 ,46,9966515805363 ,81,2685652289709
0.4855011 ,Left ,59,9613748100178 ,46,9966515805363 ,81,2685652289709
0.5003889 ,Left ,59,9613748100178 ,46,9966515805363 ,81,2685652289709
0.5003925 ,Left ,59,9613748100178 ,46,9966515805363 ,81,2685652289709
0.5003956 ,Left ,59,9613748100178 ,46,9966515805363 ,81,2685652289709
0.5003986 ,Left ,59,9613748100178 ,46,9966515805363 ,81,2685652289709
0.522915 ,Left ,59,9640518040733 ,47,0045877589201 ,81,2642370913668
0.522917 ,Left ,59,9640518040733 ,47,0045877589201 ,81,2642370913668
0.5229184 ,Left ,59,9640518040733 ,47,0045877589201 ,81,2642370913668
0.5229199 ,Left ,59,9640518040733 ,47,0045877589201 ,81,2642370913668
0.5454445 ,Left ,59,9640518040733 ,47,0045877589201 ,81,2642370913668
0.5454589 ,Left ,59,9640518040733 ,47,0045877589201 ,81,2642370913668
0.5454605 ,Left ,59,9640518040733 ,47,0045877589201 ,81,2642370913668
0.545462 ,Left ,59,9640518040733 ,47,0045877589201 ,81,2642370913668
0.5603455 ,Left ,59,9640518040733 ,47,0045877589201 ,81,2642370913668
0.5603475 ,Left ,59,9640518040733 ,47,0045877589201 ,81,2642370913668
0.5603489 ,Left ,59,9640518040733 ,47,0045877589201 ,81,2642370913668
0.5603504 ,Left ,59,9640518040733 ,47,0045877589201 ,81,2642370913668
0.5827803 ,Left ,59,9671872097345 ,47,0039902359307 ,81,2646462021513
0.5827823 ,Left ,59,9671872097345 ,47,0039902359307 ,81,2646462021513
0.582784 ,Left ,59,9671872097345 ,47,0039902359307 ,81,2646462021513
0.5827858 ,Left ,59,9671872097345 ,47,0039902359307 ,81,2646462021513
0.6054935 ,Left ,59,9671872097345 ,47,0039902359307 ,81,2646462021513
0.6054972 ,Left ,59,9671872097345 ,47,0039902359307 ,81,2646462021513
0.6055002 ,Left ,59,9671872097345 ,47,0039902359307 ,81,2646462021513
0.6055032 ,Left ,59,9671872097345 ,47,0039902359307 ,81,2646462021513
0.6427221 ,Left ,59,9961963790817 ,46,9737778681157 ,81,2598204165872
0.6427238 ,Left ,59,9961963790817 ,46,9737778681157 ,81,2598204165872
0.6427253 ,Left ,59,9961963790817 ,46,9737778681157 ,81,2598204165872
0.6427268 ,Left ,59,9961963790817 ,46,9737778681157 ,81,2598204165872
0.6652877 ,Left ,60,0131492964844 ,46,9499684664419 ,81,2581264403212
0.6652897 ,Left ,60,0131492964844 ,46,9499684664419 ,81,2581264403212
0.6652912 ,Left ,60,0131492964844 ,46,9499684664419 ,81,2581264403212
0.6652927 ,Left ,60,0131492964844 ,46,9499684664419 ,81,2581264403212
0.7028208 ,Left ,60,0444318064092 ,46,8941238739025 ,81,2411758192728
0.7028228 ,Left ,60,0444318064092 ,46,8941238739025 ,81,2411758192728
0.7028245 ,Left ,60,0444318064092 ,46,8941238739025 ,81,2411758192728
0.7028263 ,Left ,60,0444318064092 ,46,8941238739025 ,81,2411758192728
0.7254732 ,Left ,60,0619478619454 ,46,8614987934959 ,81,2263314645496
0.7254765 ,Left ,60,0619478619454 ,46,8614987934959 ,81,2263314645496
0.7254791 ,Left ,60,0619478619454 ,46,8614987934959 ,81,2263314645496
0.7254818 ,Left ,60,0619478619454 ,46,8614987934959 ,81,2263314645496
0.7630859 ,Left ,60,1186473282793 ,46,782693121459 ,81,1956459031236
0.7630896 ,Left ,60,1186473282793 ,46,782693121459 ,81,1956459031236
0.7630926 ,Left ,60,1186473282793 ,46,782693121459 ,81,1956459031236
0.7630957 ,Left ,60,1186473282793 ,46,782693121459 ,81,1956459031236
0.7857221 ,Left ,60,1431981030487 ,46,7367396986118 ,81,1809713890637
0.7857281 ,Left ,60,1431981030487 ,46,7367396986118 ,81,1809713890637
0.7857311 ,Left ,60,1431981030487 ,46,7367396986118 ,81,1809713890637
0.7857341 ,Left ,60,1431981030487 ,46,7367396986118 ,81,1809713890637
0.8302826 ,Left ,60,1782469977998 ,46,6529064799465 ,81,1530064923941
0.8302846 ,Left ,60,1782469977998 ,46,6529064799465 ,81,1530064923941
0.8302861 ,Left ,60,1782469977998 ,46,6529064799465 ,81,1530064923941
0.8302876 ,Left ,60,1782469977998 ,46,6529064799465 ,81,1530064923941
0.8829935 ,Left ,60,2359838296965 ,46,560693832659 ,81,1254222835291
0.8829978 ,Left ,60,2359838296965 ,46,560693832659 ,81,1254222835291
0.8830014 ,Left ,60,2359838296965 ,46,560693832659 ,81,1254222835291
0.883005 ,Left ,60,2359838296965 ,46,560693832659 ,81,1254222835291
0.905606 ,Left ,60,2565248881939 ,46,536461798201 ,81,1138566334849
0.9056144 ,Left ,60,2565248881939 ,46,536461798201 ,81,1138566334849
0.9056188 ,Left ,60,2565248881939 ,46,536461798201 ,81,1138566334849
0.905623 ,Left ,60,2565248881939 ,46,536461798201 ,81,1138566334849
0.9426375 ,Left ,60,2839813384322 ,46,4959616408869 ,81,0940853703922
0.9426393 ,Left ,60,2839813384322 ,46,4959616408869 ,81,0940853703922
0.9426409 ,Left ,60,2839813384322 ,46,4959616408869 ,81,0940853703922
0.9426424 ,Left ,60,2839813384322 ,46,4959616408869 ,81,0940853703922
0.9728613 ,Left ,60,2883432780546 ,46,482350293053 ,81,0887762485902
0.9728632 ,Left ,60,2883432780546 ,46,482350293053 ,81,0887762485902
0.9728647 ,Left ,60,2883432780546 ,46,482350293053 ,81,0887762485902
0.9728661 ,Left ,60,2883432780546 ,46,482350293053 ,81,0887762485902
1.0102346 ,Left ,60,2978715875509 ,46,4643425444055 ,81,0745073346829
1.0102366 ,Left ,60,2978715875509 ,46,4643425444055 ,81,0745073346829
1.010238 ,Left ,60,2978715875509 ,46,4643425444055 ,81,0745073346829
1.0102395 ,Left ,60,2978715875509 ,46,4643425444055 ,81,0745073346829
1.0253309 ,Left ,60,3083215227585 ,46,4531703696336 ,81,0655346887852
1.0253329 ,Left ,60,3083215227585 ,46,4531703696336 ,81,0655346887852
1.0253344 ,Left ,60,3083215227585 ,46,4531703696336 ,81,0655346887852
1.0253359 ,Left ,60,3083215227585 ,46,4531703696336 ,81,0655346887852
1.0630231 ,Left ,60,3154294262567 ,46,4454087144798 ,81,054530068765
1.0630251 ,Left ,60,3154294262567 ,46,4454087144798 ,81,054530068765
1.0630267 ,Left ,60,3154294262567 ,46,4454087144798 ,81,054530068765
1.0630283 ,Left ,60,3154294262567 ,46,4454087144798 ,81,054530068765
1.0853639 ,Left ,60,3169575363489 ,46,4447469648442 ,81,0511973622
1.0853661 ,Left ,60,3169575363489 ,46,4447469648442 ,81,0511973622
1.0853679 ,Left ,60,3169575363489 ,46,4447469648442 ,81,0511973622
1.0853697 ,Left ,60,3169575363489 ,46,4447469648442 ,81,0511973622
1.12281 ,Left ,60,2964059762081 ,46,4308346680196 ,81,0529246698009
1.1228128 ,Left ,60,2964059762081 ,46,4308346680196 ,81,0529246698009
1.1228149 ,Left ,60,2964059762081 ,46,4308346680196 ,81,0529246698009
1.1228171 ,Left ,60,2964059762081 ,46,4308346680196 ,81,0529246698009
1.1453321 ,Left ,60,2947768150297 ,46,430567821775 ,81,059443142584
1.1453347 ,Left ,60,2947768150297 ,46,430567821775 ,81,059443142584
1.1453368 ,Left ,60,2947768150297 ,46,430567821775 ,81,059443142584
1.1453389 ,Left ,60,2947768150297 ,46,430567821775 ,81,059443142584
1.1904696 ,Left ,60,2913821096109 ,46,4373173561971 ,81,083441988585
1.1904719 ,Left ,60,2913821096109 ,46,4373173561971 ,81,083441988585
1.1904736 ,Left ,60,2913821096109 ,46,4373173561971 ,81,083441988585
1.1904754 ,Left ,60,2913821096109 ,46,4373173561971 ,81,083441988585
1.2130793 ,Left ,60,2519350173317 ,46,4386930394624 ,81,1059375889366
1.2130822 ,Left ,60,2519350173317 ,46,4386930394624 ,81,1059375889366
1.2130845 ,Left ,60,2519350173317 ,46,4386930394624 ,81,1059375889366
1.2130869 ,Left ,60,2519350173317 ,46,4386930394624 ,81,1059375889366
1.2506824 ,Left ,60,1862378273175 ,46,4364825931832 ,81,1643103486776
1.2506865 ,Left ,60,1862378273175 ,46,4364825931832 ,81,1643103486776
1.2506895 ,Left ,60,1862378273175 ,46,4364825931832 ,81,1643103486776
1.2506926 ,Left ,60,1862378273175 ,46,4364825931832 ,81,1643103486776
1.2731665 ,Left ,60,1380174170916 ,46,4304420607024 ,81,2038735222695
1.2731701 ,Left ,60,1380174170916 ,46,4304420607024 ,81,2038735222695
1.2731732 ,Left ,60,1380174170916 ,46,4304420607024 ,81,2038735222695
1.2731762 ,Left ,60,1380174170916 ,46,4304420607024 ,81,2038735222695
1.3030038 ,Left ,60,0150158020737 ,46,4613091365309 ,81,2961784830893
1.3030058 ,Left ,60,0150158020737 ,46,4613091365309 ,81,2961784830893
1.3030072 ,Left ,60,0150158020737 ,46,4613091365309 ,81,2961784830893
1.3030087 ,Left ,60,0150158020737 ,46,4613091365309 ,81,2961784830893
1.3253276 ,Left ,59,936765548984 ,46,5002329313853 ,81,3222918547818
1.3253297 ,Left ,59,936765548984 ,46,5002329313853 ,81,3222918547818
1.3253313 ,Left ,59,936765548984 ,46,5002329313853 ,81,3222918547818
1.3253329 ,Left ,59,936765548984 ,46,5002329313853 ,81,3222918547818
1.3629212 ,Left ,59,810399158632 ,46,5621559995333 ,81,3139520225049
1.3629244 ,Left ,59,810399158632 ,46,5621559995333 ,81,3139520225049
1.362927 ,Left ,59,810399158632 ,46,5621559995333 ,81,3139520225049
1.3629297 ,Left ,59,810399158632 ,46,5621559995333 ,81,3139520225049
1.3856386 ,Left ,59,7277959062663 ,46,557458968939 ,81,2706078144702
1.385642 ,Left ,59,7277959062663 ,46,557458968939 ,81,2706078144702
1.3856447 ,Left ,59,7277959062663 ,46,557458968939 ,81,2706078144702
1.3856473 ,Left ,59,7277959062663 ,46,557458968939 ,81,2706078144702
1.4230094 ,Left ,59,5646037530631 ,46,5366970349501 ,81,2316277631579
1.4230113 ,Left ,59,5646037530631 ,46,5366970349501 ,81,2316277631579
1.4230128 ,Left ,59,5646037530631 ,46,5366970349501 ,81,2316277631579
1.4230143 ,Left ,59,5646037530631 ,46,5366970349501 ,81,2316277631579
1.4452797 ,Left ,59,4776057795883 ,46,562175909274 ,81,2149440415023
1.4452819 ,Left ,59,4776057795883 ,46,562175909274 ,81,2149440415023
1.4452836 ,Left ,59,4776057795883 ,46,562175909274 ,81,2149440415023
1.4452853 ,Left ,59,4776057795883 ,46,562175909274 ,81,2149440415023
1.4903992 ,Left ,59,3723724509973 ,46,6837923459087 ,81,1341288688326
1.4904012 ,Left ,59,3723724509973 ,46,6837923459087 ,81,1341288688326
1.490403 ,Left ,59,3723724509973 ,46,6837923459087 ,81,1341288688326
1.4904047 ,Left ,59,3723724509973 ,46,6837923459087 ,81,1341288688326
1.5203768 ,Left ,59,4538757738918 ,46,6933680834309 ,81,1071828459754
1.5203787 ,Left ,59,4538757738918 ,46,6933680834309 ,81,1071828459754
1.5203932 ,Left ,59,4538757738918 ,46,6933680834309 ,81,1071828459754
1.5203947 ,Left ,59,4538757738918 ,46,6933680834309 ,81,1071828459754
1.5505615 ,Left ,59,6328686769413 ,46,6047899480362 ,81,0218630143573
1.5505634 ,Left ,59,6328686769413 ,46,6047899480362 ,81,0218630143573
1.5505649 ,Left ,59,6328686769413 ,46,6047899480362 ,81,0218630143573
1.5505664 ,Left ,59,6328686769413 ,46,6047899480362 ,81,0218630143573
1.6029175 ,Left ,59,4960734649058 ,46,475981027294 ,80,9281730687388
1.6029204 ,Left ,59,4960734649058 ,46,475981027294 ,80,9281730687388
1.6029228 ,Left ,59,4960734649058 ,46,475981027294 ,80,9281730687388
1.6029251 ,Left ,59,4960734649058 ,46,475981027294 ,80,9281730687388
1.6409312 ,Left ,59,3286140571701 ,46,4807407718268 ,80,9193877854028
1.6409389 ,Left ,59,3286140571701 ,46,4807407718268 ,80,9193877854028
1.6409457 ,Left ,59,3286140571701 ,46,4807407718268 ,80,9193877854028
1.6409523 ,Left ,59,3286140571701 ,46,4807407718268 ,80,9193877854028
1.6633762 ,Left ,59,2827793701862 ,46,4709528108965 ,80,9174833737096
1.6633839 ,Left ,59,2827793701862 ,46,4709528108965 ,80,9174833737096
1.6633907 ,Left ,59,2827793701862 ,46,4709528108965 ,80,9174833737096
1.6633974 ,Left ,59,2827793701862 ,46,4709528108965 ,80,9174833737096
1.7009724 ,Left ,59,3086619988498 ,46,393866464225 ,80,9535026080496
1.70098 ,Left ,59,3086619988498 ,46,393866464225 ,80,9535026080496
1.7009867 ,Left ,59,3086619988498 ,46,393866464225 ,80,9535026080496
1.7009934 ,Left ,59,3086619988498 ,46,393866464225 ,80,9535026080496
1.723476 ,Left ,59,2862347464432 ,46,3431697109199 ,80,9998109764813
1.7234841 ,Left ,59,2862347464432 ,46,3431697109199 ,80,9998109764813
1.7234908 ,Left ,59,2862347464432 ,46,3431697109199 ,80,9998109764813
1.7234976 ,Left ,59,2862347464432 ,46,3431697109199 ,80,9998109764813
1.7680829 ,Left ,59,1695322282156 ,46,2364769240276 ,81,1106927031962
1.7680885 ,Left ,59,1695322282156 ,46,2364769240276 ,81,1106927031962
1.7680932 ,Left ,59,1695322282156 ,46,2364769240276 ,81,1106927031962
1.7680979 ,Left ,59,1695322282156 ,46,2364769240276 ,81,1106927031962
1.7980202 ,Left ,59,1265360559019 ,46,2087784772892 ,81,1318252623599
1.7980228 ,Left ,59,1265360559019 ,46,2087784772892 ,81,1318252623599
1.7980249 ,Left ,59,1265360559019 ,46,2087784772892 ,81,1318252623599
1.798027 ,Left ,59,1265360559019 ,46,2087784772892 ,81,1318252623599
1.8277965 ,Left ,59,0991025520297 ,46,1925946855473 ,81,1348341435556
1.8277999 ,Left ,59,0991025520297 ,46,1925946855473 ,81,1348341435556
1.8278014 ,Left ,59,0991025520297 ,46,1925946855473 ,81,1348341435556
1.8278029 ,Left ,59,0991025520297 ,46,1925946855473 ,81,1348341435556
1.8808979 ,Left ,59,0991903468565 ,46,1737698907116 ,81,129207698044
1.8809056 ,Left ,59,0991903468565 ,46,1737698907116 ,81,129207698044
1.8809124 ,Left ,59,0991903468565 ,46,1737698907116 ,81,129207698044
1.8809191 ,Left ,59,0991903468565 ,46,1737698907116 ,81,129207698044
1.9036774 ,Left ,59,1030939762435 ,46,150698533943 ,81,1308367345434
1.9036851 ,Left ,59,1030939762435 ,46,150698533943 ,81,1308367345434
1.9036917 ,Left ,59,1030939762435 ,46,150698533943 ,81,1308367345434
1.9036983 ,Left ,59,1030939762435 ,46,150698533943 ,81,1308367345434
1.9405146 ,Left ,59,0012464973443 ,46,1567134979001 ,81,1569967085795
1.9405188 ,Left ,59,0012464973443 ,46,1567134979001 ,81,1569967085795
1.9405224 ,Left ,59,0012464973443 ,46,1567134979001 ,81,1569967085795
1.940526 ,Left ,59,0012464973443 ,46,1567134979001 ,81,1569967085795
1.9554078 ,Left ,58,9733694915187 ,46,2144885302481 ,81,1424305251664
1.9554113 ,Left ,58,9733694915187 ,46,2144885302481 ,81,1424305251664
1.9554142 ,Left ,58,9733694915187 ,46,2144885302481 ,81,1424305251664
1.955417 ,Left ,58,9733694915187 ,46,2144885302481 ,81,1424305251664
1.9779491 ,Left ,59,0406984754276 ,46,2697121280338 ,81,1258473015957
1.9779524 ,Left ,59,0406984754276 ,46,2697121280338 ,81,1258473015957
1.9779553 ,Left ,59,0406984754276 ,46,2697121280338 ,81,1258473015957
1.9779582 ,Left ,59,0406984754276 ,46,2697121280338 ,81,1258473015957
2.0001356 ,Left ,59,1069813430062 ,46,2853216252786 ,81,1031330058179
2.0001374 ,Left ,59,1069813430062 ,46,2853216252786 ,81,1031330058179
2.0001389 ,Left ,59,1069813430062 ,46,2853216252786 ,81,1031330058179
2.0001404 ,Left ,59,1069813430062 ,46,2853216252786 ,81,1031330058179
2.0152999 ,Left ,59,1884700657115 ,46,2800936732711 ,81,0610444264432
2.0153019 ,Left ,59,1884700657115 ,46,2800936732711 ,81,0610444264432
2.0153034 ,Left ,59,1884700657115 ,46,2800936732711 ,81,0610444264432
2.0153048 ,Left ,59,1884700657115 ,46,2800936732711 ,81,0610444264432
2.0378803 ,Left ,59,1713243435576 ,46,2631156998262 ,81,007082771018
2.0378826 ,Left ,59,1713243435576 ,46,2631156998262 ,81,007082771018
2.0378843 ,Left ,59,1713243435576 ,46,2631156998262 ,81,007082771018
2.037886 ,Left ,59,1713243435576 ,46,2631156998262 ,81,007082771018
2.0606704 ,Left ,59,1012984887435 ,46,2327789328955 ,80,9578609171437
2.0606743 ,Left ,59,1012984887435 ,46,2327789328955 ,80,9578609171437
2.0606773 ,Left ,59,1012984887435 ,46,2327789328955 ,80,9578609171437
2.0606805 ,Left ,59,1012984887435 ,46,2327789328955 ,80,9578609171437
2.0752846 ,Left ,59,0710152359001 ,46,161080593904 ,80,915688544242
2.0752864 ,Left ,59,0710152359001 ,46,161080593904 ,80,915688544242
2.075288 ,Left ,59,0710152359001 ,46,161080593904 ,80,915688544242
2.0752895 ,Left ,59,0710152359001 ,46,161080593904 ,80,915688544242
2.0977351 ,Left ,59,0781634940337 ,46,0745361626913 ,80,8803940463703
2.0977369 ,Left ,59,0781634940337 ,46,0745361626913 ,80,8803940463703
2.0977384 ,Left ,59,0781634940337 ,46,0745361626913 ,80,8803940463703
2.0977399 ,Left ,59,0781634940337 ,46,0745361626913 ,80,8803940463703
2.1205365 ,Left ,59,0453997725067 ,46,061276171799 ,80,8760497315932
2.1205388 ,Left ,59,0453997725067 ,46,061276171799 ,80,8760497315932
2.1205404 ,Left ,59,0453997725067 ,46,061276171799 ,80,8760497315932
2.120542 ,Left ,59,0453997725067 ,46,061276171799 ,80,8760497315932
2.1353572 ,Left ,58,9081966244314 ,46,1327933324076 ,80,860270729933
2.1353598 ,Left ,58,9081966244314 ,46,1327933324076 ,80,860270729933
2.135362 ,Left ,58,9081966244314 ,46,1327933324076 ,80,860270729933
2.1353642 ,Left ,58,9081966244314 ,46,1327933324076 ,80,860270729933
2.1579452 ,Left ,58,8489838659295 ,46,2623637837728 ,80,8496994854106
2.157948 ,Left ,58,8489838659295 ,46,2623637837728 ,80,8496994854106
2.1579498 ,Left ,58,8489838659295 ,46,2623637837728 ,80,8496994854106
2.1579517 ,Left ,58,8489838659295 ,46,2623637837728 ,80,8496994854106
2.1805592 ,Left ,58,93110666745 ,46,3684154048619 ,80,8583449232269
2.1806127 ,Left ,58,93110666745 ,46,3684154048619 ,80,8583449232269
2.1806167 ,Left ,58,93110666745 ,46,3684154048619 ,80,8583449232269
2.1806203 ,Left ,58,93110666745 ,46,3684154048619 ,80,8583449232269
2.1952534 ,Left ,59,068211095705 ,46,4075946559869 ,80,8556681216288
2.1952552 ,Left ,59,068211095705 ,46,4075946559869 ,80,8556681216288
2.1952567 ,Left ,59,068211095705 ,46,4075946559869 ,80,8556681216288
2.1952581 ,Left ,59,068211095705 ,46,4075946559869 ,80,8556681216288
2.2179356 ,Left ,59,1426819872811 ,46,4130443429654 ,80,8156379369944
2.2179376 ,Left ,59,1426819872811 ,46,4130443429654 ,80,8156379369944
2.2179391 ,Left ,59,1426819872811 ,46,4130443429654 ,80,8156379369944
2.2179406 ,Left ,59,1426819872811 ,46,4130443429654 ,80,8156379369944
2.2407109 ,Left ,59,1377121766213 ,46,4091994102789 ,80,761158124582
2.2407137 ,Left ,59,1377121766213 ,46,4091994102789 ,80,761158124582
2.2407159 ,Left ,59,1377121766213 ,46,4091994102789 ,80,761158124582
2.240718 ,Left ,59,1377121766213 ,46,4091994102789 ,80,761158124582
2.2553167 ,Left ,59,0883509079432 ,46,4196952185855 ,80,7240076986064
2.2553193 ,Left ,59,0883509079432 ,46,4196952185855 ,80,7240076986064
2.2553214 ,Left ,59,0883509079432 ,46,4196952185855 ,80,7240076986064
2.2553234 ,Left ,59,0883509079432 ,46,4196952185855 ,80,7240076986064
2.2778581 ,Left ,59,0241389725079 ,46,4459523854044 ,80,6838799081954
2.2778601 ,Left ,59,0241389725079 ,46,4459523854044 ,80,6838799081954
2.2778616 ,Left ,59,0241389725079 ,46,4459523854044 ,80,6838799081954
2.277863 ,Left ,59,0241389725079 ,46,4459523854044 ,80,6838799081954
2.3080317 ,Left ,59,020246144132 ,46,4795307202975 ,80,6575906061356
2.3080351 ,Left ,59,020246144132 ,46,4795307202975 ,80,6575906061356
2.3080377 ,Left ,59,020246144132 ,46,4795307202975 ,80,6575906061356
2.3080403 ,Left ,59,020246144132 ,46,4795307202975 ,80,6575906061356
2.323071 ,Left ,59,0468764958712 ,46,4820103556885 ,80,6593350741153
2.3230759 ,Left ,59,0468764958712 ,46,4820103556885 ,80,6593350741153
2.3230802 ,Left ,59,0468764958712 ,46,4820103556885 ,80,6593350741153
2.3230845 ,Left ,59,0468764958712 ,46,4820103556885 ,80,6593350741153
2.3456697 ,Left ,59,0603852258779 ,46,4449417694103 ,80,6849876261843
2.3456828 ,Left ,59,0603852258779 ,46,4449417694103 ,80,6849876261843
2.3456882 ,Left ,59,0603852258779 ,46,4449417694103 ,80,6849876261843
2.3456925 ,Left ,59,0603852258779 ,46,4449417694103 ,80,6849876261843
2.3608914 ,Left ,59,0425096676059 ,46,3756245412105 ,80,7145747837387
2.3608966 ,Left ,59,0425096676059 ,46,3756245412105 ,80,7145747837387
2.360901 ,Left ,59,0425096676059 ,46,3756245412105 ,80,7145747837387
2.3609053 ,Left ,59,0425096676059 ,46,3756245412105 ,80,7145747837387
2.3756659 ,Left ,59,0097924944128 ,46,3016036601818 ,80,7319264044431
2.3756711 ,Left ,59,0097924944128 ,46,3016036601818 ,80,7319264044431
2.3756754 ,Left ,59,0097924944128 ,46,3016036601818 ,80,7319264044431
2.3756797 ,Left ,59,0097924944128 ,46,3016036601818 ,80,7319264044431
2.3981248 ,Left ,58,9711911149099 ,46,2888262002865 ,80,7293904516644
2.3981299 ,Left ,58,9711911149099 ,46,2888262002865 ,80,7293904516644
2.3981343 ,Left ,58,9711911149099 ,46,2888262002865 ,80,7293904516644
2.3981386 ,Left ,58,9711911149099 ,46,2888262002865 ,80,7293904516644
2.420678 ,Left ,58,916857835887 ,46,3435820569838 ,80,6930185748841
2.4206814 ,Left ,58,916857835887 ,46,3435820569838 ,80,6930185748841
2.4206842 ,Left ,58,916857835887 ,46,3435820569838 ,80,6930185748841
2.4206869 ,Left ,58,916857835887 ,46,3435820569838 ,80,6930185748841
2.4354424 ,Left ,58,9349208460017 ,46,4295779032942 ,80,6798354685334
2.4354457 ,Left ,58,9349208460017 ,46,4295779032942 ,80,6798354685334
2.4354485 ,Left ,58,9349208460017 ,46,4295779032942 ,80,6798354685334
2.4354512 ,Left ,58,9349208460017 ,46,4295779032942 ,80,6798354685334
2.4654979 ,Left ,59,0508547635131 ,46,4706608334584 ,80,7117152159633
2.4655012 ,Left ,59,0508547635131 ,46,4706608334584 ,80,7117152159633
2.4655039 ,Left ,59,0508547635131 ,46,4706608334584 ,80,7117152159633
2.4655067 ,Left ,59,0508547635131 ,46,4706608334584 ,80,7117152159633
2.4879731 ,Left ,59,1864052369168 ,46,4587981364765 ,80,7650729526711
2.4879765 ,Left ,59,1864052369168 ,46,4587981364765 ,80,7650729526711
2.4879792 ,Left ,59,1864052369168 ,46,4587981364765 ,80,7650729526711
2.487982 ,Left ,59,1864052369168 ,46,4587981364765 ,80,7650729526711
2.5103655 ,Left ,59,2431042792381 ,46,4405706964283 ,80,8013973589892
2.5103676 ,Left ,59,2431042792381 ,46,4405706964283 ,80,8013973589892
2.5103692 ,Left ,59,2431042792381 ,46,4405706964283 ,80,8013973589892
2.5103707 ,Left ,59,2431042792381 ,46,4405706964283 ,80,8013973589892
2.5253461 ,Left ,59,2340566532369 ,46,4222713617214 ,80,8104996498393
2.5253483 ,Left ,59,2340566532369 ,46,4222713617214 ,80,8104996498393
2.5253501 ,Left ,59,2340566532369 ,46,4222713617214 ,80,8104996498393
2.5253518 ,Left ,59,2340566532369 ,46,4222713617214 ,80,8104996498393
2.5403661 ,Left ,59,2191501089212 ,46,4218801658458 ,80,8128669904456
2.5403685 ,Left ,59,2191501089212 ,46,4218801658458 ,80,8128669904456
2.5403723 ,Left ,59,2191501089212 ,46,4218801658458 ,80,8128669904456
2.5403742 ,Left ,59,2191501089212 ,46,4218801658458 ,80,8128669904456
2.5553485 ,Left ,59,2208671286041 ,46,4360922067088 ,80,7997023143187
2.5553511 ,Left ,59,2208671286041 ,46,4360922067088 ,80,7997023143187
2.5553532 ,Left ,59,2208671286041 ,46,4360922067088 ,80,7997023143187
2.5553553 ,Left ,59,2208671286041 ,46,4360922067088 ,80,7997023143187
2.5853701 ,Left ,59,2285498639808 ,46,4461775862608 ,80,7893974888232
2.5853733 ,Left ,59,2285498639808 ,46,4461775862608 ,80,7893974888232
2.5853757 ,Left ,59,2285498639808 ,46,4461775862608 ,80,7893974888232
2.5853781 ,Left ,59,2285498639808 ,46,4461775862608 ,80,7893974888232
2.6078019 ,Left ,59,2128407216813 ,46,468225777238 ,80,757552807425
2.6078039 ,Left ,59,2128407216813 ,46,468225777238 ,80,757552807425
2.6078053 ,Left ,59,2128407216813 ,46,468225777238 ,80,757552807425
2.6078068 ,Left ,59,2128407216813 ,46,468225777238 ,80,757552807425
2.6229059 ,Left ,59,1946759099565 ,46,5101536533697 ,80,719989784966
2.6229079 ,Left ,59,1946759099565 ,46,5101536533697 ,80,719989784966
2.6229095 ,Left ,59,1946759099565 ,46,5101536533697 ,80,719989784966
2.6229111 ,Left ,59,1946759099565 ,46,5101536533697 ,80,719989784966
2.6377401 ,Left ,59,1938882549349 ,46,563875501143 ,80,6707716658757
2.6377422 ,Left ,59,1938882549349 ,46,563875501143 ,80,6707716658757
2.6377439 ,Left ,59,1938882549349 ,46,563875501143 ,80,6707716658757
2.6377457 ,Left ,59,1938882549349 ,46,563875501143 ,80,6707716658757
2.6604676 ,Left ,59,2065046656378 ,46,6368358169336 ,80,6110769938327
2.6604757 ,Left ,59,2065046656378 ,46,6368358169336 ,80,6110769938327
2.6604781 ,Left ,59,2065046656378 ,46,6368358169336 ,80,6110769938327
2.6604804 ,Left ,59,2065046656378 ,46,6368358169336 ,80,6110769938327
2.6753872 ,Left ,59,2432831702625 ,46,7125983047612 ,80,5454821404761
2.6753904 ,Left ,59,2432831702625 ,46,7125983047612 ,80,5454821404761
2.675393 ,Left ,59,2432831702625 ,46,7125983047612 ,80,5454821404761
2.6753957 ,Left ,59,2432831702625 ,46,7125983047612 ,80,5454821404761
2.6977818 ,Left ,59,2873116517848 ,46,7903180643071 ,80,48340831931
2.6977837 ,Left ,59,2873116517848 ,46,7903180643071 ,80,48340831931
2.6977852 ,Left ,59,2873116517848 ,46,7903180643071 ,80,48340831931
2.6977866 ,Left ,59,2873116517848 ,46,7903180643071 ,80,48340831931
2.7210853 ,Left ,59,3156439381851 ,46,8751140710969 ,80,4122273531371
2.7210934 ,Left ,59,3156439381851 ,46,8751140710969 ,80,4122273531371
2.7211002 ,Left ,59,3156439381851 ,46,8751140710969 ,80,4122273531371
2.7211069 ,Left ,59,3156439381851 ,46,8751140710969 ,80,4122273531371
2.7352779 ,Left ,59,3051853108117 ,46,9618932910277 ,80,3383125957803
2.7352798 ,Left ,59,3051853108117 ,46,9618932910277 ,80,3383125957803
2.7352813 ,Left ,59,3051853108117 ,46,9618932910277 ,80,3383125957803
2.7352828 ,Left ,59,3051853108117 ,46,9618932910277 ,80,3383125957803
2.7579554 ,Left ,59,2667354669184 ,47,0202909446759 ,80,2591191484835
2.7579574 ,Left ,59,2667354669184 ,47,0202909446759 ,80,2591191484835
2.757959 ,Left ,59,2667354669184 ,47,0202909446759 ,80,2591191484835
2.7579606 ,Left ,59,2667354669184 ,47,0202909446759 ,80,2591191484835
2.7810672 ,Left ,59,221804452972 ,47,0419266770921 ,80,185533759061
2.7810751 ,Left ,59,221804452972 ,47,0419266770921 ,80,185533759061
2.7810818 ,Left ,59,221804452972 ,47,0419266770921 ,80,185533759061
2.781144 ,Left ,59,221804452972 ,47,0419266770921 ,80,185533759061
2.7960419 ,Left ,59,1888276760458 ,47,0187056841382 ,80,0981605822707
2.7960681 ,Left ,59,1888276760458 ,47,0187056841382 ,80,0981605822707
2.7960748 ,Left ,59,1888276760458 ,47,0187056841382 ,80,0981605822707
2.7960816 ,Left ,59,1888276760458 ,47,0187056841382 ,80,0981605822707
2.818346 ,Left ,59,1601657207911 ,46,9574263647367 ,80,0093325718306
2.8183516 ,Left ,59,1601657207911 ,46,9574263647367 ,80,0093325718306
2.8183563 ,Left ,59,1601657207911 ,46,9574263647367 ,80,0093325718306
2.8183609 ,Left ,59,1601657207911 ,46,9574263647367 ,80,0093325718306
2.8409347 ,Left ,59,0603573959767 ,46,8596621902887 ,79,9681657401819
2.8409402 ,Left ,59,0603573959767 ,46,8596621902887 ,79,9681657401819
2.8409449 ,Left ,59,0603573959767 ,46,8596621902887 ,79,9681657401819
2.8409496 ,Left ,59,0603573959767 ,46,8596621902887 ,79,9681657401819
2.863444 ,Left ,58,9435503759746 ,46,8123658769371 ,80,0141096925258
2.8634495 ,Left ,58,9435503759746 ,46,8123658769371 ,80,0141096925258
2.8634542 ,Left ,58,9435503759746 ,46,8123658769371 ,80,0141096925258
2.8634588 ,Left ,58,9435503759746 ,46,8123658769371 ,80,0141096925258
2.885477 ,Left ,58,8144060668399 ,46,8472702981444 ,80,0554746736921
2.8854824 ,Left ,58,8144060668399 ,46,8472702981444 ,80,0554746736921
2.8854872 ,Left ,58,8144060668399 ,46,8472702981444 ,80,0554746736921
2.8854918 ,Left ,58,8144060668399 ,46,8472702981444 ,80,0554746736921
2.930766 ,Left ,59,0971244374483 ,46,9264985599008 ,80,1388559487166
2.9307708 ,Left ,59,0971244374483 ,46,9264985599008 ,80,1388559487166
2.9307744 ,Left ,59,0971244374483 ,46,9264985599008 ,80,1388559487166
2.9307779 ,Left ,59,0971244374483 ,46,9264985599008 ,80,1388559487166
2.9454226 ,Left ,59,3678497072024 ,46,8143519201431 ,80,1954551930727
2.9454268 ,Left ,59,3678497072024 ,46,8143519201431 ,80,1954551930727
2.9454303 ,Left ,59,3678497072024 ,46,8143519201431 ,80,1954551930727
2.9454339 ,Left ,59,3678497072024 ,46,8143519201431 ,80,1954551930727
2.9829523 ,Left ,59,6629902372725 ,46,5303060214649 ,80,1701991768886
2.9829542 ,Left ,59,6629902372725 ,46,5303060214649 ,80,1701991768886
2.9829557 ,Left ,59,6629902372725 ,46,5303060214649 ,80,1701991768886
2.9829572 ,Left ,59,6629902372725 ,46,5303060214649 ,80,1701991768886
2.997981 ,Left ,59,6041603837209 ,46,4219952379952 ,80,2023185161701
2.997983 ,Left ,59,6041603837209 ,46,4219952379952 ,80,2023185161701
2.9979845 ,Left ,59,6041603837209 ,46,4219952379952 ,80,2023185161701
2.9979859 ,Left ,59,6041603837209 ,46,4219952379952 ,80,2023185161701
3.0278472 ,Left ,59,4267302996 ,46,3921053437624 ,80,2417857651674
3.0278491 ,Left ,59,4267302996 ,46,3921053437624 ,80,2417857651674
3.0278507 ,Left ,59,4267302996 ,46,3921053437624 ,80,2417857651674
3.0278523 ,Left ,59,4267302996 ,46,3921053437624 ,80,2417857651674
3.0504505 ,Left ,59,3046179538445 ,46,4049383957311 ,80,2411004326586
3.0504525 ,Left ,59,3046179538445 ,46,4049383957311 ,80,2411004326586
3.050454 ,Left ,59,3046179538445 ,46,4049383957311 ,80,2411004326586
3.0504554 ,Left ,59,3046179538445 ,46,4049383957311 ,80,2411004326586
3.0651385 ,Left ,59,2996761091066 ,46,395192507659 ,80,2115700161884
3.0651402 ,Left ,59,2996761091066 ,46,395192507659 ,80,2115700161884
3.0651417 ,Left ,59,2996761091066 ,46,395192507659 ,80,2115700161884
3.0651433 ,Left ,59,2996761091066 ,46,395192507659 ,80,2115700161884
3.080558 ,Left ,59,380776453597 ,46,3209784873058 ,80,1749358658554
3.0805604 ,Left ,59,380776453597 ,46,3209784873058 ,80,1749358658554
3.0805623 ,Left ,59,380776453597 ,46,3209784873058 ,80,1749358658554
3.0805642 ,Left ,59,380776453597 ,46,3209784873058 ,80,1749358658554
3.1030246 ,Left ,59,3840551137541 ,46,209687560365 ,80,1868276201195
3.1030272 ,Left ,59,3840551137541 ,46,209687560365 ,80,1868276201195
3.1030293 ,Left ,59,3840551137541 ,46,209687560365 ,80,1868276201195
3.1030314 ,Left ,59,3840551137541 ,46,209687560365 ,80,1868276201195
3.1180359 ,Left ,59,3190967675071 ,46,1405438416417 ,80,2709187496762
3.1180388 ,Left ,59,3190967675071 ,46,1405438416417 ,80,2709187496762
3.1180411 ,Left ,59,3190967675071 ,46,1405438416417 ,80,2709187496762
3.1180435 ,Left ,59,3190967675071 ,46,1405438416417 ,80,2709187496762
3.1480094 ,Left ,59,0968116698037 ,46,1597678461244 ,80,2887613794521
3.1480127 ,Left ,59,0968116698037 ,46,1597678461244 ,80,2887613794521
3.1480154 ,Left ,59,0968116698037 ,46,1597678461244 ,80,2887613794521
3.148018 ,Left ,59,0968116698037 ,46,1597678461244 ,80,2887613794521
3.1711927 ,Left ,58,9929046142032 ,46,293517734193 ,80,2856618064778
3.1712005 ,Left ,58,9929046142032 ,46,293517734193 ,80,2856618064778
3.1712072 ,Left ,58,9929046142032 ,46,293517734193 ,80,2856618064778
3.1712141 ,Left ,58,9929046142032 ,46,293517734193 ,80,2856618064778
3.1861021 ,Left ,59,1233349055856 ,46,3824514822373 ,80,2940042203886
3.1861103 ,Left ,59,1233349055856 ,46,3824514822373 ,80,2940042203886
3.186118 ,Left ,59,1233349055856 ,46,3824514822373 ,80,2940042203886
3.1861276 ,Left ,59,1233349055856 ,46,3824514822373 ,80,2940042203886
3.201147 ,Left ,59,3478169185926 ,46,3924354964261 ,80,3267260243753
3.2011548 ,Left ,59,3478169185926 ,46,3924354964261 ,80,3267260243753
3.2011615 ,Left ,59,3478169185926 ,46,3924354964261 ,80,3267260243753
3.2011682 ,Left ,59,3478169185926 ,46,3924354964261 ,80,3267260243753
3.2231858 ,Left ,59,5104877031432 ,46,3517366434486 ,80,3453429667453
3.2231913 ,Left ,59,5104877031432 ,46,3517366434486 ,80,3453429667453
3.223195 ,Left ,59,5104877031432 ,46,3517366434486 ,80,3453429667453
3.2231987 ,Left ,59,5104877031432 ,46,3517366434486 ,80,3453429667453
3.238071 ,Left ,59,5816383519149 ,46,2595116195276 ,80,3552130343086
3.2380753 ,Left ,59,5816383519149 ,46,2595116195276 ,80,3552130343086
3.2380789 ,Left ,59,5816383519149 ,46,2595116195276 ,80,3552130343086
3.2380825 ,Left ,59,5816383519149 ,46,2595116195276 ,80,3552130343086
3.2607724 ,Left ,59,5425411266317 ,46,1506533441776 ,80,3862139215325
3.2607766 ,Left ,59,5425411266317 ,46,1506533441776 ,80,3862139215325
3.2607802 ,Left ,59,5425411266317 ,46,1506533441776 ,80,3862139215325
3.2607838 ,Left ,59,5425411266317 ,46,1506533441776 ,80,3862139215325
3.2830087 ,Left ,59,4846323817131 ,46,0774210538786 ,80,4422996683941
3.283013 ,Left ,59,4846323817131 ,46,0774210538786 ,80,4422996683941
3.2830166 ,Left ,59,4846323817131 ,46,0774210538786 ,80,4422996683941
3.2830201 ,Left ,59,4846323817131 ,46,0774210538786 ,80,4422996683941
3.2981674 ,Left ,59,4417645925537 ,46,0173499220645 ,80,5106446293579
3.2981717 ,Left ,59,4417645925537 ,46,0173499220645 ,80,5106446293579
3.2981783 ,Left ,59,4417645925537 ,46,0173499220645 ,80,5106446293579
3.2981818 ,Left ,59,4417645925537 ,46,0173499220645 ,80,5106446293579
3.3206062 ,Left ,59,4286485329902 ,45,9900011027563 ,80,5814546586393
3.3206106 ,Left ,59,4286485329902 ,45,9900011027563 ,80,5814546586393
3.3206142 ,Left ,59,4286485329902 ,45,9900011027563 ,80,5814546586393
3.3206177 ,Left ,59,4286485329902 ,45,9900011027563 ,80,5814546586393
3.3432064 ,Left ,59,464123371809 ,45,9710286575114 ,80,6475346575772
3.3432107 ,Left ,59,464123371809 ,45,9710286575114 ,80,6475346575772
3.3432143 ,Left ,59,464123371809 ,45,9710286575114 ,80,6475346575772
3.3432178 ,Left ,59,464123371809 ,45,9710286575114 ,80,6475346575772
3.3654033 ,Left ,59,5181878270233 ,45,9632776672614 ,80,718884566249
3.3654075 ,Left ,59,5181878270233 ,45,9632776672614 ,80,718884566249
3.365411 ,Left ,59,5181878270233 ,45,9632776672614 ,80,718884566249
3.3654145 ,Left ,59,5181878270233 ,45,9632776672614 ,80,718884566249
3.3880134 ,Left ,59,5618866951086 ,45,9641891740813 ,80,7983062861445
3.3880177 ,Left ,59,5618866951086 ,45,9641891740813 ,80,7983062861445
3.3880213 ,Left ,59,5618866951086 ,45,9641891740813 ,80,7983062861445
3.3880248 ,Left ,59,5618866951086 ,45,9641891740813 ,80,7983062861445
3.4255226 ,Left ,59,5627133296966 ,45,9957221126018 ,80,9639123332556
3.4255269 ,Left ,59,5627133296966 ,45,9957221126018 ,80,9639123332556
3.4255305 ,Left ,59,5627133296966 ,45,9957221126018 ,80,9639123332556
3.425534 ,Left ,59,5627133296966 ,45,9957221126018 ,80,9639123332556
3.4479301 ,Left ,59,5507292338357 ,46,0111743414121 ,81,0398426308278
3.4479342 ,Left ,59,5507292338357 ,46,0111743414121 ,81,0398426308278
3.4479377 ,Left ,59,5507292338357 ,46,0111743414121 ,81,0398426308278
3.4479412 ,Left ,59,5507292338357 ,46,0111743414121 ,81,0398426308278
3.4781834 ,Left ,59,5266327999657 ,46,0079229647877 ,81,1510269454997
3.4781879 ,Left ,59,5266327999657 ,46,0079229647877 ,81,1510269454997
3.4781915 ,Left ,59,5266327999657 ,46,0079229647877 ,81,1510269454997
3.478195 ,Left ,59,5266327999657 ,46,0079229647877 ,81,1510269454997
3.5011536 ,Left ,59,5218369010112 ,45,9940384948395 ,81,1870676618535
3.5011614 ,Left ,59,5218369010112 ,45,9940384948395 ,81,1870676618535
3.5011681 ,Left ,59,5218369010112 ,45,9940384948395 ,81,1870676618535
3.5011748 ,Left ,59,5218369010112 ,45,9940384948395 ,81,1870676618535
3.5228582 ,Left ,59,5184504857612 ,45,9812323901941 ,81,211013143955
3.5228602 ,Left ,59,5184504857612 ,45,9812323901941 ,81,211013143955
3.5228617 ,Left ,59,5184504857612 ,45,9812323901941 ,81,211013143955
3.5228631 ,Left ,59,5184504857612 ,45,9812323901941 ,81,211013143955
3.5378904 ,Left ,59,5020081687665 ,45,9709950970632 ,81,2314136045856
3.5378923 ,Left ,59,5020081687665 ,45,9709950970632 ,81,2314136045856
3.5378938 ,Left ,59,5020081687665 ,45,9709950970632 ,81,2314136045856
3.5378953 ,Left ,59,5020081687665 ,45,9709950970632 ,81,2314136045856
3.5603043 ,Left ,59,489585522055 ,45,9631300560276 ,81,2418156544213
3.5603067 ,Left ,59,489585522055 ,45,9631300560276 ,81,2418156544213
3.5603082 ,Left ,59,489585522055 ,45,9631300560276 ,81,2418156544213
3.5603097 ,Left ,59,489585522055 ,45,9631300560276 ,81,2418156544213
3.5827719 ,Left ,59,4956465957095 ,45,9534305457842 ,81,2456267540189
3.5827738 ,Left ,59,4956465957095 ,45,9534305457842 ,81,2456267540189
3.5827754 ,Left ,59,4956465957095 ,45,9534305457842 ,81,2456267540189
3.582777 ,Left ,59,4956465957095 ,45,9534305457842 ,81,2456267540189
3.5980227 ,Left ,59,4965259244178 ,45,9438902686191 ,81,2460579790828
3.5980253 ,Left ,59,4965259244178 ,45,9438902686191 ,81,2460579790828
3.5980274 ,Left ,59,4965259244178 ,45,9438902686191 ,81,2460579790828
3.5980295 ,Left ,59,4965259244178 ,45,9438902686191 ,81,2460579790828
3.6207229 ,Left ,59,5090789035027 ,45,9369562081236 ,81,2452148184569
3.6207321 ,Left ,59,5090789035027 ,45,9369562081236 ,81,2452148184569
3.6207364 ,Left ,59,5090789035027 ,45,9369562081236 ,81,2452148184569
3.6207395 ,Left ,59,5090789035027 ,45,9369562081236 ,81,2452148184569
3.643171 ,Left ,59,533693277358 ,45,9415448541945 ,81,2396145750803
3.6431753 ,Left ,59,533693277358 ,45,9415448541945 ,81,2396145750803
3.6431789 ,Left ,59,533693277358 ,45,9415448541945 ,81,2396145750803
3.6431824 ,Left ,59,533693277358 ,45,9415448541945 ,81,2396145750803
3.6582359 ,Left ,59,5579245640962 ,45,9600301381133 ,81,2380450278778
3.6582402 ,Left ,59,5579245640962 ,45,9600301381133 ,81,2380450278778
3.6582437 ,Left ,59,5579245640962 ,45,9600301381133 ,81,2380450278778
3.6582472 ,Left ,59,5579245640962 ,45,9600301381133 ,81,2380450278778
3.6806317 ,Left ,59,5754987604854 ,45,989705028392 ,81,2245675797771
3.6806364 ,Left ,59,5754987604854 ,45,989705028392 ,81,2245675797771
3.6806399 ,Left ,59,5754987604854 ,45,989705028392 ,81,2245675797771
3.6806435 ,Left ,59,5754987604854 ,45,989705028392 ,81,2245675797771
3.7032426 ,Left ,59,5937040162767 ,46,0041224991213 ,81,2026762587193
3.7032469 ,Left ,59,5937040162767 ,46,0041224991213 ,81,2026762587193
3.7032505 ,Left ,59,5937040162767 ,46,0041224991213 ,81,2026762587193
3.7032541 ,Left ,59,5937040162767 ,46,0041224991213 ,81,2026762587193
3.7180285 ,Left ,59,6043088189939 ,46,0097718220544 ,81,1748680855305
3.7180328 ,Left ,59,6043088189939 ,46,0097718220544 ,81,1748680855305
3.7180364 ,Left ,59,6043088189939 ,46,0097718220544 ,81,1748680855305
3.7180399 ,Left ,59,6043088189939 ,46,0097718220544 ,81,1748680855305
3.7481469 ,Left ,59,6153396241649 ,46,0180914890839 ,81,1374053199383
3.7481512 ,Left ,59,6153396241649 ,46,0180914890839 ,81,1374053199383
3.7481548 ,Left ,59,6153396241649 ,46,0180914890839 ,81,1374053199383
3.7481584 ,Left ,59,6153396241649 ,46,0180914890839 ,81,1374053199383
3.7707304 ,Left ,59,6151620499952 ,46,0276977725245 ,81,0956491227308
3.7707366 ,Left ,59,6151620499952 ,46,0276977725245 ,81,0956491227308
3.7707462 ,Left ,59,6151620499952 ,46,0276977725245 ,81,0956491227308
3.7707523 ,Left ,59,6151620499952 ,46,0276977725245 ,81,0956491227308
3.7855314 ,Left ,59,6133637132843 ,46,033177568677 ,81,0452448016336
3.7855358 ,Left ,59,6133637132843 ,46,033177568677 ,81,0452448016336
3.7855393 ,Left ,59,6133637132843 ,46,033177568677 ,81,0452448016336
3.7855429 ,Left ,59,6133637132843 ,46,033177568677 ,81,0452448016336
3.8007344 ,Left ,59,6130251348612 ,46,0370188418783 ,80,9947923133215
3.8007387 ,Left ,59,6130251348612 ,46,0370188418783 ,80,9947923133215
3.8007423 ,Left ,59,6130251348612 ,46,0370188418783 ,80,9947923133215
3.8007459 ,Left ,59,6130251348612 ,46,0370188418783 ,80,9947923133215
3.8231805 ,Left ,59,6183414072364 ,46,0446559055761 ,80,955097527636
3.8231848 ,Left ,59,6183414072364 ,46,0446559055761 ,80,955097527636
3.8231883 ,Left ,59,6183414072364 ,46,0446559055761 ,80,955097527636
3.8231919 ,Left ,59,6183414072364 ,46,0446559055761 ,80,955097527636
3.8381211 ,Left ,59,6035800898234 ,46,0555238621849 ,80,9322748314563
3.8381254 ,Left ,59,6035800898234 ,46,0555238621849 ,80,9322748314563
3.838129 ,Left ,59,6035800898234 ,46,0555238621849 ,80,9322748314563
3.8381326 ,Left ,59,6035800898234 ,46,0555238621849 ,80,9322748314563
3.8607498 ,Left ,59,5796696459368 ,46,072492460496 ,80,9231109969845
3.8607541 ,Left ,59,5796696459368 ,46,072492460496 ,80,9231109969845
3.8607577 ,Left ,59,5796696459368 ,46,072492460496 ,80,9231109969845
3.8607612 ,Left ,59,5796696459368 ,46,072492460496 ,80,9231109969845
3.8831625 ,Left ,59,5560891369324 ,46,0929234579813 ,80,9215755730207
3.8831671 ,Left ,59,5560891369324 ,46,0929234579813 ,80,9215755730207
3.8831707 ,Left ,59,5560891369324 ,46,0929234579813 ,80,9215755730207
3.8831742 ,Left ,59,5560891369324 ,46,0929234579813 ,80,9215755730207
3.8981254 ,Left ,59,5309001280828 ,46,1247663637507 ,80,9317363289346
3.8981297 ,Left ,59,5309001280828 ,46,1247663637507 ,80,9317363289346
3.8981334 ,Left ,59,5309001280828 ,46,1247663637507 ,80,9317363289346
3.8981369 ,Left ,59,5309001280828 ,46,1247663637507 ,80,9317363289346
3.920782 ,Left ,59,5116283187498 ,46,1720343449889 ,80,9474542764397
3.9207864 ,Left ,59,5116283187498 ,46,1720343449889 ,80,9474542764397
3.92079 ,Left ,59,5116283187498 ,46,1720343449889 ,80,9474542764397
3.9207936 ,Left ,59,5116283187498 ,46,1720343449889 ,80,9474542764397
3.943308 ,Left ,59,4880085432639 ,46,2232581246165 ,80,9770189937244
3.9433124 ,Left ,59,4880085432639 ,46,2232581246165 ,80,9770189937244
3.943316 ,Left ,59,4880085432639 ,46,2232581246165 ,80,9770189937244
3.9433199 ,Left ,59,4880085432639 ,46,2232581246165 ,80,9770189937244
3.9654876 ,Left ,59,443982129769 ,46,278394814748 ,81,0184859418942
3.965492 ,Left ,59,443982129769 ,46,278394814748 ,81,0184859418942
3.9654955 ,Left ,59,443982129769 ,46,278394814748 ,81,0184859418942
3.965499 ,Left ,59,443982129769 ,46,278394814748 ,81,0184859418942
3.9880375 ,Left ,59,3905967354295 ,46,3368424548811 ,81,0735534643762
3.988042 ,Left ,59,3905967354295 ,46,3368424548811 ,81,0735534643762
3.9880456 ,Left ,59,3905967354295 ,46,3368424548811 ,81,0735534643762
3.9880491 ,Left ,59,3905967354295 ,46,3368424548811 ,81,0735534643762
4.0104732 ,Left ,59,3254440457534 ,46,3884851216206 ,81,1457960452547
4.010481 ,Left ,59,3254440457534 ,46,3884851216206 ,81,1457960452547
4.0104847 ,Left ,59,3254440457534 ,46,3884851216206 ,81,1457960452547
4.0104882 ,Left ,59,3254440457534 ,46,3884851216206 ,81,1457960452547
4.0254153 ,Left ,59,2805013201616 ,46,4396754105783 ,81,2226650509414
4.0254194 ,Left ,59,2805013201616 ,46,4396754105783 ,81,2226650509414
4.0254229 ,Left ,59,2805013201616 ,46,4396754105783 ,81,2226650509414
4.0254265 ,Left ,59,2805013201616 ,46,4396754105783 ,81,2226650509414
4.0406312 ,Left ,59,2586868902931 ,46,4946062739547 ,81,3041025085851
4.0406354 ,Left ,59,2586868902931 ,46,4946062739547 ,81,3041025085851
4.040639 ,Left ,59,2586868902931 ,46,4946062739547 ,81,3041025085851
4.0406426 ,Left ,59,2586868902931 ,46,4946062739547 ,81,3041025085851
4.0632841 ,Left ,59,2768230704056 ,46,5482536582561 ,81,3712597065976
4.0632885 ,Left ,59,2768230704056 ,46,5482536582561 ,81,3712597065976
4.0632922 ,Left ,59,2768230704056 ,46,5482536582561 ,81,3712597065976
4.0632957 ,Left ,59,2768230704056 ,46,5482536582561 ,81,3712597065976
4.0855474 ,Left ,59,2905604243235 ,46,594156423883 ,81,4268338556025
4.0855546 ,Left ,59,2905604243235 ,46,594156423883 ,81,4268338556025
4.0855582 ,Left ,59,2905604243235 ,46,594156423883 ,81,4268338556025
4.0855617 ,Left ,59,2905604243235 ,46,594156423883 ,81,4268338556025
4.1006178 ,Left ,59,3006042263795 ,46,624903955452 ,81,4509649370451
4.100622 ,Left ,59,3006042263795 ,46,624903955452 ,81,4509649370451
4.1006256 ,Left ,59,3006042263795 ,46,624903955452 ,81,4509649370451
4.1006291 ,Left ,59,3006042263795 ,46,624903955452 ,81,4509649370451
4.1230916 ,Left ,59,2949591174929 ,46,6207894506722 ,81,4636339807851
4.1230958 ,Left ,59,2949591174929 ,46,6207894506722 ,81,4636339807851
4.1230994 ,Left ,59,2949591174929 ,46,6207894506722 ,81,4636339807851
4.1231029 ,Left ,59,2949591174929 ,46,6207894506722 ,81,4636339807851
4.145595 ,Left ,59,2618622188247 ,46,5629034608673 ,81,4818789619322
4.1455992 ,Left ,59,2618622188247 ,46,5629034608673 ,81,4818789619322
4.1456027 ,Left ,59,2618622188247 ,46,5629034608673 ,81,4818789619322
4.1456062 ,Left ,59,2618622188247 ,46,5629034608673 ,81,4818789619322
4.1607559 ,Left ,59,216541369644 ,46,4766026162611 ,81,492636689276
4.1607603 ,Left ,59,216541369644 ,46,4766026162611 ,81,492636689276
4.1607639 ,Left ,59,216541369644 ,46,4766026162611 ,81,492636689276
4.1607674 ,Left ,59,216541369644 ,46,4766026162611 ,81,492636689276
4.1832057 ,Left ,59,0883076690823 ,46,3490957582796 ,81,4741815314812
4.1832101 ,Left ,59,0883076690823 ,46,3490957582796 ,81,4741815314812
4.1832137 ,Left ,59,0883076690823 ,46,3490957582796 ,81,4741815314812
4.1832173 ,Left ,59,0883076690823 ,46,3490957582796 ,81,4741815314812
4.2054399 ,Left ,59,0272649015662 ,46,2578295509715 ,81,4852919131423
4.2054446 ,Left ,59,0272649015662 ,46,2578295509715 ,81,4852919131423
4.2054521 ,Left ,59,0272649015662 ,46,2578295509715 ,81,4852919131423
4.2054556 ,Left ,59,0272649015662 ,46,2578295509715 ,81,4852919131423
4.2207833 ,Left ,58,9487392994993 ,46,2577244431357 ,81,4385125707407
4.2207875 ,Left ,58,9487392994993 ,46,2577244431357 ,81,4385125707407
4.2207911 ,Left ,58,9487392994993 ,46,2577244431357 ,81,4385125707407
4.2208028 ,Left ,58,9487392994993 ,46,2577244431357 ,81,4385125707407
4.2430772 ,Left ,58,7771110808302 ,46,3155507048314 ,81,3875485058472
4.2430815 ,Left ,58,7771110808302 ,46,3155507048314 ,81,3875485058472
4.2430852 ,Left ,58,7771110808302 ,46,3155507048314 ,81,3875485058472
4.2430888 ,Left ,58,7771110808302 ,46,3155507048314 ,81,3875485058472
4.265456 ,Left ,58,7870768847078 ,46,3784631675109 ,81,3682831312087
4.2654601 ,Left ,58,7870768847078 ,46,3784631675109 ,81,3682831312087
4.2654638 ,Left ,58,7870768847078 ,46,3784631675109 ,81,3682831312087
4.2654673 ,Left ,58,7870768847078 ,46,3784631675109 ,81,3682831312087
4.2807067 ,Left ,58,9917936143574 ,46,3581526139426 ,81,3789950605016
4.2807111 ,Left ,58,9917936143574 ,46,3581526139426 ,81,3789950605016
4.2807146 ,Left ,58,9917936143574 ,46,3581526139426 ,81,3789950605016
4.2807182 ,Left ,58,9917936143574 ,46,3581526139426 ,81,3789950605016
4.3105736 ,Left ,59,1827016830391 ,46,3005851890428 ,81,3910359975193
4.3105797 ,Left ,59,1827016830391 ,46,3005851890428 ,81,3910359975193
4.3105832 ,Left ,59,1827016830391 ,46,3005851890428 ,81,3910359975193
4.3105867 ,Left ,59,1827016830391 ,46,3005851890428 ,81,3910359975193
4.3329685 ,Left ,59,2762680710527 ,46,237869731132 ,81,3576471503646
4.332973 ,Left ,59,2762680710527 ,46,237869731132 ,81,3576471503646
4.3329895 ,Left ,59,2762680710527 ,46,237869731132 ,81,3576471503646
4.3329932 ,Left ,59,2762680710527 ,46,237869731132 ,81,3576471503646
4.3481787 ,Left ,59,2518804006648 ,46,1726816851621 ,81,309757398146
4.3481833 ,Left ,59,2518804006648 ,46,1726816851621 ,81,309757398146
4.3481869 ,Left ,59,2518804006648 ,46,1726816851621 ,81,309757398146
4.3481905 ,Left ,59,2518804006648 ,46,1726816851621 ,81,309757398146
4.3630978 ,Left ,59,1483702593186 ,46,1421963158084 ,81,270596360315
4.3631021 ,Left ,59,1483702593186 ,46,1421963158084 ,81,270596360315
4.3631057 ,Left ,59,1483702593186 ,46,1421963158084 ,81,270596360315
4.3631092 ,Left ,59,1483702593186 ,46,1421963158084 ,81,270596360315
4.3855865 ,Left ,59,0422814569774 ,46,1636547233974 ,81,2256064037586
4.3855908 ,Left ,59,0422814569774 ,46,1636547233974 ,81,2256064037586
4.3855943 ,Left ,59,0422814569774 ,46,1636547233974 ,81,2256064037586
4.3855979 ,Left ,59,0422814569774 ,46,1636547233974 ,81,2256064037586
4.4007687 ,Left ,58,940707878668 ,46,1927969313967 ,81,1796676227147
4.4007734 ,Left ,58,940707878668 ,46,1927969313967 ,81,1796676227147
4.4007769 ,Left ,58,940707878668 ,46,1927969313967 ,81,1796676227147
4.4007805 ,Left ,58,940707878668 ,46,1927969313967 ,81,1796676227147
4.4236429 ,Left ,58,894192099635 ,46,2151210519156 ,81,1324838093025
4.4236515 ,Left ,58,894192099635 ,46,2151210519156 ,81,1324838093025
4.4236591 ,Left ,58,894192099635 ,46,2151210519156 ,81,1324838093025
4.4236667 ,Left ,58,894192099635 ,46,2151210519156 ,81,1324838093025
4.4459591 ,Left ,58,9131964998682 ,46,2019782577877 ,81,0992095009546
4.4459675 ,Left ,58,9131964998682 ,46,2019782577877 ,81,0992095009546
4.4459751 ,Left ,58,9131964998682 ,46,2019782577877 ,81,0992095009546
4.4459826 ,Left ,58,9131964998682 ,46,2019782577877 ,81,0992095009546
4.4612932 ,Left ,58,9285563686974 ,46,1551870634761 ,81,0940532806261
4.46131 ,Left ,58,9285563686974 ,46,1551870634761 ,81,0940532806261
4.4613176 ,Left ,58,9285563686974 ,46,1551870634761 ,81,0940532806261
4.4613304 ,Left ,58,9285563686974 ,46,1551870634761 ,81,0940532806261
4.4833677 ,Left ,58,9131150993766 ,46,0537002103155 ,81,0980457129322
4.4833762 ,Left ,58,9131150993766 ,46,0537002103155 ,81,0980457129322
4.4833834 ,Left ,58,9131150993766 ,46,0537002103155 ,81,0980457129322
4.4833912 ,Left ,58,9131150993766 ,46,0537002103155 ,81,0980457129322
4.5054874 ,Left ,58,837080499709 ,45,9356023665918 ,81,1120200616479
4.505493 ,Left ,58,837080499709 ,45,9356023665918 ,81,1120200616479
4.505498 ,Left ,58,837080499709 ,45,9356023665918 ,81,1120200616479
4.5055029 ,Left ,58,837080499709 ,45,9356023665918 ,81,1120200616479
4.5206615 ,Left ,58,8016497790803 ,45,886136120986 ,81,142780558364
4.5206646 ,Left ,58,8016497790803 ,45,886136120986 ,81,142780558364
4.5206671 ,Left ,58,8016497790803 ,45,886136120986 ,81,142780558364
4.5206696 ,Left ,58,8016497790803 ,45,886136120986 ,81,142780558364
4.5431033 ,Left ,58,7674594324982 ,45,9367955428858 ,81,1175093788776
4.5431064 ,Left ,58,7674594324982 ,45,9367955428858 ,81,1175093788776
4.543109 ,Left ,58,7674594324982 ,45,9367955428858 ,81,1175093788776
4.5431116 ,Left ,58,7674594324982 ,45,9367955428858 ,81,1175093788776
4.565441 ,Left ,58,7779888787211 ,46,0507429171207 ,81,0852844249022
4.5654441 ,Left ,58,7779888787211 ,46,0507429171207 ,81,0852844249022
4.5654466 ,Left ,58,7779888787211 ,46,0507429171207 ,81,0852844249022
4.5654492 ,Left ,58,7779888787211 ,46,0507429171207 ,81,0852844249022
4.5805861 ,Left ,58,8848547634895 ,46,1397288269285 ,81,0672659572466
4.5805892 ,Left ,58,8848547634895 ,46,1397288269285 ,81,0672659572466
4.5805918 ,Left ,58,8848547634895 ,46,1397288269285 ,81,0672659572466
4.5805943 ,Left ,58,8848547634895 ,46,1397288269285 ,81,0672659572466
4.6030691 ,Left ,59,0285726008634 ,46,1653131998627 ,81,0355582316326
4.6030722 ,Left ,59,0285726008634 ,46,1653131998627 ,81,0355582316326
4.6030747 ,Left ,59,0285726008634 ,46,1653131998627 ,81,0355582316326
4.6030773 ,Left ,59,0285726008634 ,46,1653131998627 ,81,0355582316326
4.6254389 ,Left ,59,0410329036419 ,46,1614128675128 ,80,9866769102254
4.6254418 ,Left ,59,0410329036419 ,46,1614128675128 ,80,9866769102254
4.6254444 ,Left ,59,0410329036419 ,46,1614128675128 ,80,9866769102254
4.6254558 ,Left ,59,0410329036419 ,46,1614128675128 ,80,9866769102254
4.6406505 ,Left ,58,9606808618946 ,46,1409671028535 ,80,9276815770531
4.6406537 ,Left ,58,9606808618946 ,46,1409671028535 ,80,9276815770531
4.6406563 ,Left ,58,9606808618946 ,46,1409671028535 ,80,9276815770531
4.6406588 ,Left ,58,9606808618946 ,46,1409671028535 ,80,9276815770531
4.6628625 ,Left ,58,8604141472711 ,46,0779585708776 ,80,8737269846804
4.6628645 ,Left ,58,8604141472711 ,46,0779585708776 ,80,8737269846804
4.662866 ,Left ,58,8604141472711 ,46,0779585708776 ,80,8737269846804
4.6628674 ,Left ,58,8604141472711 ,46,0779585708776 ,80,8737269846804
4.685285 ,Left ,58,8465236836045 ,45,9742492730295 ,80,8280054679937
4.685287 ,Left ,58,8465236836045 ,45,9742492730295 ,80,8280054679937
4.6852885 ,Left ,58,8465236836045 ,45,9742492730295 ,80,8280054679937
4.68529 ,Left ,58,8465236836045 ,45,9742492730295 ,80,8280054679937
4.7076911 ,Left ,58,8475177229303 ,45,9559293816324 ,80,8344046333836
4.7076929 ,Left ,58,8475177229303 ,45,9559293816324 ,80,8344046333836
4.7076946 ,Left ,58,8475177229303 ,45,9559293816324 ,80,8344046333836
4.7076961 ,Left ,58,8475177229303 ,45,9559293816324 ,80,8344046333836
4.7228553 ,Left ,58,7503820172123 ,46,0046208598517 ,80,797985822801
4.7228579 ,Left ,58,7503820172123 ,46,0046208598517 ,80,797985822801
4.72286 ,Left ,58,7503820172123 ,46,0046208598517 ,80,797985822801
4.7228621 ,Left ,58,7503820172123 ,46,0046208598517 ,80,797985822801
4.7455826 ,Left ,58,6915337879944 ,46,1421360955477 ,80,760627060971
4.745587 ,Left ,58,6915337879944 ,46,1421360955477 ,80,760627060971
4.7455906 ,Left ,58,6915337879944 ,46,1421360955477 ,80,760627060971
4.7455941 ,Left ,58,6915337879944 ,46,1421360955477 ,80,760627060971
4.7681493 ,Left ,58,7890245097654 ,46,2731720504651 ,80,7377851167883
4.7681536 ,Left ,58,7890245097654 ,46,2731720504651 ,80,7377851167883
4.7681572 ,Left ,58,7890245097654 ,46,2731720504651 ,80,7377851167883
4.7681607 ,Left ,58,7890245097654 ,46,2731720504651 ,80,7377851167883
4.7832638 ,Left ,58,973233641033 ,46,3409817750198 ,80,7289215946768
4.7832681 ,Left ,58,973233641033 ,46,3409817750198 ,80,7289215946768
4.7832717 ,Left ,58,973233641033 ,46,3409817750198 ,80,7289215946768
4.7832752 ,Left ,58,973233641033 ,46,3409817750198 ,80,7289215946768
4.8054502 ,Left ,59,0776652759175 ,46,375675055932 ,80,7183840245552
4.8054545 ,Left ,59,0776652759175 ,46,375675055932 ,80,7183840245552
4.8054581 ,Left ,59,0776652759175 ,46,375675055932 ,80,7183840245552
4.8054617 ,Left ,59,0776652759175 ,46,375675055932 ,80,7183840245552
4.8280911 ,Left ,59,0477455938534 ,46,386913841268 ,80,7257073196023
4.8280952 ,Left ,59,0477455938534 ,46,386913841268 ,80,7257073196023
4.8280987 ,Left ,59,0477455938534 ,46,386913841268 ,80,7257073196023
4.8281022 ,Left ,59,0477455938534 ,46,386913841268 ,80,7257073196023
4.8431546 ,Left ,58,8988675491837 ,46,3887521298398 ,80,7444452191385
4.8431593 ,Left ,58,8988675491837 ,46,3887521298398 ,80,7444452191385
4.8431629 ,Left ,58,8988675491837 ,46,3887521298398 ,80,7444452191385
4.8431664 ,Left ,58,8988675491837 ,46,3887521298398 ,80,7444452191385
4.8655604 ,Left ,58,7963311798895 ,46,4016925147062 ,80,7635465169277
4.8655648 ,Left ,58,7963311798895 ,46,4016925147062 ,80,7635465169277
4.8655683 ,Left ,58,7963311798895 ,46,4016925147062 ,80,7635465169277
4.8655718 ,Left ,58,7963311798895 ,46,4016925147062 ,80,7635465169277
4.8876802 ,Left ,58,7893070942954 ,46,3708136652615 ,80,7797235160079
4.887682 ,Left ,58,7893070942954 ,46,3708136652615 ,80,7797235160079
4.8876836 ,Left ,58,7893070942954 ,46,3708136652615 ,80,7797235160079
4.8876851 ,Left ,58,7893070942954 ,46,3708136652615 ,80,7797235160079
4.9030617 ,Left ,58,8428885610683 ,46,2868222503392 ,80,7977992103527
4.9030657 ,Left ,58,8428885610683 ,46,2868222503392 ,80,7977992103527
4.9030673 ,Left ,58,8428885610683 ,46,2868222503392 ,80,7977992103527
4.9030688 ,Left ,58,8428885610683 ,46,2868222503392 ,80,7977992103527
4.9253326 ,Left ,58,8481734017531 ,46,1796077722907 ,80,8315015696975
4.92535 ,Left ,58,8481734017531 ,46,1796077722907 ,80,8315015696975
4.9253557 ,Left ,58,8481734017531 ,46,1796077722907 ,80,8315015696975
4.9253604 ,Left ,58,8481734017531 ,46,1796077722907 ,80,8315015696975
4.948135 ,Left ,58,7853370364704 ,46,1422313730133 ,80,8461351754032
4.9481391 ,Left ,58,7853370364704 ,46,1422313730133 ,80,8461351754032
4.9481426 ,Left ,58,7853370364704 ,46,1422313730133 ,80,8461351754032
4.9481459 ,Left ,58,7853370364704 ,46,1422313730133 ,80,8461351754032
4.9633142 ,Left ,58,6550716547423 ,46,1971775911677 ,80,8056804305236
4.9633202 ,Left ,58,6550716547423 ,46,1971775911677 ,80,8056804305236
4.9633253 ,Left ,58,6550716547423 ,46,1971775911677 ,80,8056804305236
4.9633303 ,Left ,58,6550716547423 ,46,1971775911677 ,80,8056804305236
4.985542 ,Left ,58,6405483445932 ,46,3094595539676 ,80,775928946447
4.9855466 ,Left ,58,6405483445932 ,46,3094595539676 ,80,775928946447
4.9855503 ,Left ,58,6405483445932 ,46,3094595539676 ,80,775928946447
4.9855542 ,Left ,58,6405483445932 ,46,3094595539676 ,80,775928946447
5.0081829 ,Left ,58,8040648081828 ,46,382040100607 ,80,7981239648005
5.0081874 ,Left ,58,8040648081828 ,46,382040100607 ,80,7981239648005
5.0081913 ,Left ,58,8040648081828 ,46,382040100607 ,80,7981239648005
5.0081951 ,Left ,58,8040648081828 ,46,382040100607 ,80,7981239648005
5.0232634 ,Left ,59,0038820934493 ,46,398278560104 ,80,8516980749142
5.0232679 ,Left ,59,0038820934493 ,46,398278560104 ,80,8516980749142
5.0232718 ,Left ,59,0038820934493 ,46,398278560104 ,80,8516980749142
5.0232756 ,Left ,59,0038820934493 ,46,398278560104 ,80,8516980749142
5.0456338 ,Left ,59,1149601385041 ,46,3847467762041 ,80,8826530819743
5.0456426 ,Left ,59,1149601385041 ,46,3847467762041 ,80,8826530819743
5.0456465 ,Left ,59,1149601385041 ,46,3847467762041 ,80,8826530819743
5.0456502 ,Left ,59,1149601385041 ,46,3847467762041 ,80,8826530819743
5.0681909 ,Left ,59,0959285659296 ,46,3573709531964 ,80,9036625820171
5.0681954 ,Left ,59,0959285659296 ,46,3573709531964 ,80,9036625820171
5.0681992 ,Left ,59,0959285659296 ,46,3573709531964 ,80,9036625820171
5.0682029 ,Left ,59,0959285659296 ,46,3573709531964 ,80,9036625820171
5.083249 ,Left ,59,0435307110034 ,46,325667173378 ,80,9120898079995
5.0832536 ,Left ,59,0435307110034 ,46,325667173378 ,80,9120898079995
5.0832574 ,Left ,59,0435307110034 ,46,325667173378 ,80,9120898079995
5.0832612 ,Left ,59,0435307110034 ,46,325667173378 ,80,9120898079995
5.1054283 ,Left ,59,0167669111959 ,46,3060462220572 ,80,9091370845221
5.1054328 ,Left ,59,0167669111959 ,46,3060462220572 ,80,9091370845221
5.1054365 ,Left ,59,0167669111959 ,46,3060462220572 ,80,9091370845221
5.1054402 ,Left ,59,0167669111959 ,46,3060462220572 ,80,9091370845221
5.1278948 ,Left ,59,040535178779 ,46,2935113969741 ,80,8999628818654
5.1278996 ,Left ,59,040535178779 ,46,2935113969741 ,80,8999628818654
5.1279034 ,Left ,59,040535178779 ,46,2935113969741 ,80,8999628818654
5.1279072 ,Left ,59,040535178779 ,46,2935113969741 ,80,8999628818654
5.143339 ,Left ,59,0547848775522 ,46,2812578729036 ,80,8832892010106
5.1433436 ,Left ,59,0547848775522 ,46,2812578729036 ,80,8832892010106
5.1433474 ,Left ,59,0547848775522 ,46,2812578729036 ,80,8832892010106
5.1433512 ,Left ,59,0547848775522 ,46,2812578729036 ,80,8832892010106
5.1656479 ,Left ,59,0646459873312 ,46,2818673296057 ,80,8644352061727
5.1656526 ,Left ,59,0646459873312 ,46,2818673296057 ,80,8644352061727
5.1656564 ,Left ,59,0646459873312 ,46,2818673296057 ,80,8644352061727
5.1656602 ,Left ,59,0646459873312 ,46,2818673296057 ,80,8644352061727
5.1879762 ,Left ,59,0733919723436 ,46,2835918182039 ,80,8483409842492
5.1879805 ,Left ,59,0733919723436 ,46,2835918182039 ,80,8483409842492
5.1879842 ,Left ,59,0733919723436 ,46,2835918182039 ,80,8483409842492
5.187988 ,Left ,59,0733919723436 ,46,2835918182039 ,80,8483409842492
5.2030706 ,Left ,59,0610833658781 ,46,2936287572967 ,80,8342075483188
5.2030751 ,Left ,59,0610833658781 ,46,2936287572967 ,80,8342075483188
5.2030789 ,Left ,59,0610833658781 ,46,2936287572967 ,80,8342075483188
5.2030827 ,Left ,59,0610833658781 ,46,2936287572967 ,80,8342075483188
5.2256189 ,Left ,59,0618390028254 ,46,308753239711 ,80,813466907294
5.2256236 ,Left ,59,0618390028254 ,46,308753239711 ,80,813466907294
5.2256274 ,Left ,59,0618390028254 ,46,308753239711 ,80,813466907294
5.2256312 ,Left ,59,0618390028254 ,46,308753239711 ,80,813466907294
5.2481894 ,Left ,59,082955229303 ,46,3396818403283 ,80,7832530229243
5.2481939 ,Left ,59,082955229303 ,46,3396818403283 ,80,7832530229243
5.2481977 ,Left ,59,082955229303 ,46,3396818403283 ,80,7832530229243
5.2482015 ,Left ,59,082955229303 ,46,3396818403283 ,80,7832530229243
5.2633447 ,Left ,59,1035522966969 ,46,3901254898706 ,80,7433878302771
5.2633494 ,Left ,59,1035522966969 ,46,3901254898706 ,80,7433878302771
5.2633533 ,Left ,59,1035522966969 ,46,3901254898706 ,80,7433878302771
5.263357 ,Left ,59,1035522966969 ,46,3901254898706 ,80,7433878302771
5.2856113 ,Left ,59,1103832188687 ,46,4562523961875 ,80,6947194789291
5.2856159 ,Left ,59,1103832188687 ,46,4562523961875 ,80,6947194789291
5.2856197 ,Left ,59,1103832188687 ,46,4562523961875 ,80,6947194789291
5.2856235 ,Left ,59,1103832188687 ,46,4562523961875 ,80,6947194789291
5.3079005 ,Left ,59,0963246715338 ,46,5387315517985 ,80,6350556028244
5.3079049 ,Left ,59,0963246715338 ,46,5387315517985 ,80,6350556028244
5.3079088 ,Left ,59,0963246715338 ,46,5387315517985 ,80,6350556028244
5.3079126 ,Left ,59,0963246715338 ,46,5387315517985 ,80,6350556028244
5.322827 ,Left ,59,0714424263964 ,46,635270473787 ,80,5702721776989
5.3228289 ,Left ,59,0714424263964 ,46,635270473787 ,80,5702721776989
5.3228305 ,Left ,59,0714424263964 ,46,635270473787 ,80,5702721776989
5.3228321 ,Left ,59,0714424263964 ,46,635270473787 ,80,5702721776989
5.3530078 ,Left ,59,0463617708405 ,46,7383085063446 ,80,5092585600509
5.35301 ,Left ,59,0463617708405 ,46,7383085063446 ,80,5092585600509
5.3530117 ,Left ,59,0463617708405 ,46,7383085063446 ,80,5092585600509
5.3530134 ,Left ,59,0463617708405 ,46,7383085063446 ,80,5092585600509
5.3754679 ,Left ,59,0180756020093 ,46,8372723632058 ,80,4459990464543
5.3754711 ,Left ,59,0180756020093 ,46,8372723632058 ,80,4459990464543
5.3754736 ,Left ,59,0180756020093 ,46,8372723632058 ,80,4459990464543
5.3754762 ,Left ,59,0180756020093 ,46,8372723632058 ,80,4459990464543
5.3905953 ,Left ,58,982639923144 ,46,9163172740677 ,80,3811430274267
5.3905984 ,Left ,58,982639923144 ,46,9163172740677 ,80,3811430274267
5.390601 ,Left ,58,982639923144 ,46,9163172740677 ,80,3811430274267
5.3906036 ,Left ,58,982639923144 ,46,9163172740677 ,80,3811430274267
5.4205321 ,Left ,58,9509056208837 ,46,9591034984365 ,80,3187860551617
5.4205342 ,Left ,58,9509056208837 ,46,9591034984365 ,80,3187860551617
5.4205357 ,Left ,58,9509056208837 ,46,9591034984365 ,80,3187860551617
5.4205372 ,Left ,58,9509056208837 ,46,9591034984365 ,80,3187860551617
5.4353055 ,Left ,58,9434899931051 ,46,968071344759 ,80,2558530742856
5.4353077 ,Left ,58,9434899931051 ,46,968071344759 ,80,2558530742856
5.4353094 ,Left ,58,9434899931051 ,46,968071344759 ,80,2558530742856
5.4353111 ,Left ,58,9434899931051 ,46,968071344759 ,80,2558530742856
5.4503316 ,Left ,58,9384306912126 ,46,9440113236343 ,80,1996359986115
5.4503334 ,Left ,58,9384306912126 ,46,9440113236343 ,80,1996359986115
5.4503349 ,Left ,58,9384306912126 ,46,9440113236343 ,80,1996359986115
5.4503363 ,Left ,58,9384306912126 ,46,9440113236343 ,80,1996359986115
5.4651796 ,Left ,58,929645768369 ,46,8913236585735 ,80,1448597047477
5.4651814 ,Left ,58,929645768369 ,46,8913236585735 ,80,1448597047477
5.4651829 ,Left ,58,929645768369 ,46,8913236585735 ,80,1448597047477
5.4651843 ,Left ,58,929645768369 ,46,8913236585735 ,80,1448597047477
5.4877202 ,Left ,58,9237921298607 ,46,8367084449369 ,80,0842764066773
5.4877223 ,Left ,58,9237921298607 ,46,8367084449369 ,80,0842764066773
5.4877239 ,Left ,58,9237921298607 ,46,8367084449369 ,80,0842764066773
5.4877255 ,Left ,58,9237921298607 ,46,8367084449369 ,80,0842764066773
5.5030023 ,Left ,58,9020157777217 ,46,789302957344 ,80,019767411113
5.5030116 ,Left ,58,9020157777217 ,46,789302957344 ,80,019767411113
5.5030135 ,Left ,58,9020157777217 ,46,789302957344 ,80,019767411113
5.5030154 ,Left ,58,9020157777217 ,46,789302957344 ,80,019767411113
5.5254791 ,Left ,58,8835118337347 ,46,7570619522922 ,79,9656829964959
5.5254828 ,Left ,58,8835118337347 ,46,7570619522922 ,79,9656829964959
5.5254859 ,Left ,58,8835118337347 ,46,7570619522922 ,79,9656829964959
5.525489 ,Left ,58,8835118337347 ,46,7570619522922 ,79,9656829964959
5.5482392 ,Left ,58,8912801955513 ,46,7304347121509 ,79,9244252247665
5.5482444 ,Left ,58,8912801955513 ,46,7304347121509 ,79,9244252247665
5.5482487 ,Left ,58,8912801955513 ,46,7304347121509 ,79,9244252247665
5.5482531 ,Left ,58,8912801955513 ,46,7304347121509 ,79,9244252247665
5.563304 ,Left ,58,9079220336501 ,46,7113518519478 ,79,9011272128467
5.5633097 ,Left ,58,9079220336501 ,46,7113518519478 ,79,9011272128467
5.5633141 ,Left ,58,9079220336501 ,46,7113518519478 ,79,9011272128467
5.5633184 ,Left ,58,9079220336501 ,46,7113518519478 ,79,9011272128467
5.585776 ,Left ,58,9094242453304 ,46,7035766887505 ,79,882617809757
5.5857811 ,Left ,58,9094242453304 ,46,7035766887505 ,79,882617809757
5.5857855 ,Left ,58,9094242453304 ,46,7035766887505 ,79,882617809757
5.5857898 ,Left ,58,9094242453304 ,46,7035766887505 ,79,882617809757
5.6081487 ,Left ,58,887715801797 ,46,6887757303085 ,79,8673140802943
5.6081536 ,Left ,58,887715801797 ,46,6887757303085 ,79,8673140802943
5.608158 ,Left ,58,887715801797 ,46,6887757303085 ,79,8673140802943
5.6081775 ,Left ,58,887715801797 ,46,6887757303085 ,79,8673140802943
5.6231855 ,Left ,58,8497832044593 ,46,6499989421971 ,79,8608307765904
5.6231895 ,Left ,58,8497832044593 ,46,6499989421971 ,79,8608307765904
5.6231929 ,Left ,58,8497832044593 ,46,6499989421971 ,79,8608307765904
5.6231962 ,Left ,58,8497832044593 ,46,6499989421971 ,79,8608307765904
5.645459 ,Left ,58,8174641436862 ,46,5881629427608 ,79,8848700736401
5.645463 ,Left ,58,8174641436862 ,46,5881629427608 ,79,8848700736401
5.6454664 ,Left ,58,8174641436862 ,46,5881629427608 ,79,8848700736401
5.6454697 ,Left ,58,8174641436862 ,46,5881629427608 ,79,8848700736401
5.6680985 ,Left ,58,7874072210629 ,46,5449229157726 ,79,9025611992324
5.6681025 ,Left ,58,7874072210629 ,46,5449229157726 ,79,9025611992324
5.668106 ,Left ,58,7874072210629 ,46,5449229157726 ,79,9025611992324
5.6681093 ,Left ,58,7874072210629 ,46,5449229157726 ,79,9025611992324
5.6830395 ,Left ,58,7458173656836 ,46,5731256823083 ,79,8830553873121
5.6830436 ,Left ,58,7458173656836 ,46,5731256823083 ,79,8830553873121
5.683047 ,Left ,58,7458173656836 ,46,5731256823083 ,79,8830553873121
5.6830504 ,Left ,58,7458173656836 ,46,5731256823083 ,79,8830553873121
5.7054824 ,Left ,58,8562619209181 ,46,6057901856833 ,79,8843783884404
5.7054865 ,Left ,58,8562619209181 ,46,6057901856833 ,79,8843783884404
5.7054899 ,Left ,58,8562619209181 ,46,6057901856833 ,79,8843783884404
5.7054932 ,Left ,58,8562619209181 ,46,6057901856833 ,79,8843783884404
5.7280073 ,Left ,59,0579974580984 ,46,5476107142829 ,79,9514373401776
5.7280111 ,Left ,59,0579974580984 ,46,5476107142829 ,79,9514373401776
5.7280146 ,Left ,59,0579974580984 ,46,5476107142829 ,79,9514373401776
5.7280179 ,Left ,59,0579974580984 ,46,5476107142829 ,79,9514373401776
5.7506707 ,Left ,59,2803377587009 ,46,4395790955256 ,80,0225846795591
5.7506748 ,Left ,59,2803377587009 ,46,4395790955256 ,80,0225846795591
5.7506782 ,Left ,59,2803377587009 ,46,4395790955256 ,80,0225846795591
5.7506816 ,Left ,59,2803377587009 ,46,4395790955256 ,80,0225846795591
5.7654412 ,Left ,59,4632898587093 ,46,3119785634416 ,80,0712799080128
5.7654453 ,Left ,59,4632898587093 ,46,3119785634416 ,80,0712799080128
5.7654487 ,Left ,59,4632898587093 ,46,3119785634416 ,80,0712799080128
5.7654521 ,Left ,59,4632898587093 ,46,3119785634416 ,80,0712799080128
5.7955742 ,Left ,59,4836347946854 ,46,1986086992509 ,80,1202908372959
5.7955782 ,Left ,59,4836347946854 ,46,1986086992509 ,80,1202908372959
5.7955816 ,Left ,59,4836347946854 ,46,1986086992509 ,80,1202908372959
5.7955849 ,Left ,59,4836347946854 ,46,1986086992509 ,80,1202908372959
5.8181544 ,Left ,59,3732041071947 ,46,1239832834293 ,80,1890418660019
5.8181589 ,Left ,59,3732041071947 ,46,1239832834293 ,80,1890418660019
5.8181623 ,Left ,59,3732041071947 ,46,1239832834293 ,80,1890418660019
5.8181656 ,Left ,59,3732041071947 ,46,1239832834293 ,80,1890418660019
5.8332107 ,Left ,59,2866203620639 ,46,0923213998121 ,80,2465673863598
5.8332148 ,Left ,59,2866203620639 ,46,0923213998121 ,80,2465673863598
5.8332182 ,Left ,59,2866203620639 ,46,0923213998121 ,80,2465673863598
5.8332216 ,Left ,59,2866203620639 ,46,0923213998121 ,80,2465673863598
5.8781117 ,Left ,59,5249833095851 ,46,0308173089851 ,80,2915386633461
5.8781159 ,Left ,59,5249833095851 ,46,0308173089851 ,80,2915386633461
5.8781195 ,Left ,59,5249833095851 ,46,0308173089851 ,80,2915386633461
5.8781229 ,Left ,59,5249833095851 ,46,0308173089851 ,80,2915386633461
5.9082822 ,Left ,59,4934096896257 ,46,0111738517966 ,80,3046072231062
5.9082863 ,Left ,59,4934096896257 ,46,0111738517966 ,80,3046072231062
5.9082896 ,Left ,59,4934096896257 ,46,0111738517966 ,80,3046072231062
5.908293 ,Left ,59,4934096896257 ,46,0111738517966 ,80,3046072231062
5.9453965 ,Left ,59,1943406411573 ,45,9364148957128 ,80,3017172672276
5.9453984 ,Left ,59,1943406411573 ,45,9364148957128 ,80,3017172672276
5.9453999 ,Left ,59,1943406411573 ,45,9364148957128 ,80,3017172672276
5.9454172 ,Left ,59,1943406411573 ,45,9364148957128 ,80,3017172672276
5.960346 ,Left ,59,059056288969 ,45,876309601259 ,80,2758460753087
5.9603481 ,Left ,59,059056288969 ,45,876309601259 ,80,2758460753087
5.9603496 ,Left ,59,059056288969 ,45,876309601259 ,80,2758460753087
5.9603511 ,Left ,59,059056288969 ,45,876309601259 ,80,2758460753087
5.9979921 ,Left ,58,8751702398527 ,45,8571272495412 ,80,3133403715335
5.9979946 ,Left ,58,8751702398527 ,45,8571272495412 ,80,3133403715335
5.9979965 ,Left ,58,8751702398527 ,45,8571272495412 ,80,3133403715335
5.9979984 ,Left ,58,8751702398527 ,45,8571272495412 ,80,3133403715335
6.0207779 ,Left ,58,8685022638195 ,45,9915890803951 ,80,2859872751671
6.0207823 ,Left ,58,8685022638195 ,45,9915890803951 ,80,2859872751671
6.0207858 ,Left ,58,8685022638195 ,45,9915890803951 ,80,2859872751671
6.0207894 ,Left ,58,8685022638195 ,45,9915890803951 ,80,2859872751671
6.058343 ,Left ,59,1591648483874 ,46,2505915975596 ,80,2361388044333
6.0583482 ,Left ,59,1591648483874 ,46,2505915975596 ,80,2361388044333
6.0583525 ,Left ,59,1591648483874 ,46,2505915975596 ,80,2361388044333
6.0583568 ,Left ,59,1591648483874 ,46,2505915975596 ,80,2361388044333
6.0808565 ,Left ,59,3681493388359 ,46,2667685961068 ,80,2965910187651
6.0808617 ,Left ,59,3681493388359 ,46,2667685961068 ,80,2965910187651
6.0808661 ,Left ,59,3681493388359 ,46,2667685961068 ,80,2965910187651
6.0808704 ,Left ,59,3681493388359 ,46,2667685961068 ,80,2965910187651
6.1177786 ,Left ,59,6231635463719 ,46,2059457179581 ,80,3540262949552
6.1177804 ,Left ,59,6231635463719 ,46,2059457179581 ,80,3540262949552
6.1177819 ,Left ,59,6231635463719 ,46,2059457179581 ,80,3540262949552
6.1177834 ,Left ,59,6231635463719 ,46,2059457179581 ,80,3540262949552
6.1478945 ,Left ,59,640697021129 ,46,1905753661153 ,80,349993973894
6.1478965 ,Left ,59,640697021129 ,46,1905753661153 ,80,349993973894
6.147898 ,Left ,59,640697021129 ,46,1905753661153 ,80,349993973894
6.1478995 ,Left ,59,640697021129 ,46,1905753661153 ,80,349993973894
6.2007147 ,Left ,59,4788621052274 ,46,272422076526 ,80,3937109720864
6.200719 ,Left ,59,4788621052274 ,46,272422076526 ,80,3937109720864
6.2007226 ,Left ,59,4788621052274 ,46,272422076526 ,80,3937109720864
6.2007262 ,Left ,59,4788621052274 ,46,272422076526 ,80,3937109720864
6.2155563 ,Left ,59,5240260767063 ,46,295032799821 ,80,4081120435788
6.2155607 ,Left ,59,5240260767063 ,46,295032799821 ,80,4081120435788
6.2155643 ,Left ,59,5240260767063 ,46,295032799821 ,80,4081120435788
6.2155678 ,Left ,59,5240260767063 ,46,295032799821 ,80,4081120435788
6.2380365 ,Left ,59,5523717731174 ,46,3000557193085 ,80,4372267850412
6.2380408 ,Left ,59,5523717731174 ,46,3000557193085 ,80,4372267850412
6.2380443 ,Left ,59,5523717731174 ,46,3000557193085 ,80,4372267850412
6.2380479 ,Left ,59,5523717731174 ,46,3000557193085 ,80,4372267850412
6.2607484 ,Left ,59,5707511749548 ,46,2832156718803 ,80,4757272482939
6.2607527 ,Left ,59,5707511749548 ,46,2832156718803 ,80,4757272482939
6.2607563 ,Left ,59,5707511749548 ,46,2832156718803 ,80,4757272482939
6.2607598 ,Left ,59,5707511749548 ,46,2832156718803 ,80,4757272482939
6.2755809 ,Left ,59,5624529103897 ,46,2557873564216 ,80,5248474347246
6.2755883 ,Left ,59,5624529103897 ,46,2557873564216 ,80,5248474347246
6.2755919 ,Left ,59,5624529103897 ,46,2557873564216 ,80,5248474347246
6.2755954 ,Left ,59,5624529103897 ,46,2557873564216 ,80,5248474347246
6.2981356 ,Left ,59,5195191139291 ,46,2272791950053 ,80,5875433369202
6.2981399 ,Left ,59,5195191139291 ,46,2272791950053 ,80,5875433369202
6.2981435 ,Left ,59,5195191139291 ,46,2272791950053 ,80,5875433369202
6.2981471 ,Left ,59,5195191139291 ,46,2272791950053 ,80,5875433369202
6.3207725 ,Left ,59,4987431156146 ,46,1759073013842 ,80,6498102783912
6.320777 ,Left ,59,4987431156146 ,46,1759073013842 ,80,6498102783912
6.3207807 ,Left ,59,4987431156146 ,46,1759073013842 ,80,6498102783912
6.3207842 ,Left ,59,4987431156146 ,46,1759073013842 ,80,6498102783912
6.3653434 ,Left ,59,4999974758704 ,46,0596094871407 ,80,7591143323104
6.3653457 ,Left ,59,4999974758704 ,46,0596094871407 ,80,7591143323104
6.3653475 ,Left ,59,4999974758704 ,46,0596094871407 ,80,7591143323104
6.3653492 ,Left ,59,4999974758704 ,46,0596094871407 ,80,7591143323104
6.3879086 ,Left ,59,4973230403504 ,46,0075180302814 ,80,8001336498242
6.3879112 ,Left ,59,4973230403504 ,46,0075180302814 ,80,8001336498242
6.3879133 ,Left ,59,4973230403504 ,46,0075180302814 ,80,8001336498242
6.3879154 ,Left ,59,4973230403504 ,46,0075180302814 ,80,8001336498242
6.4177965 ,Left ,59,4798079595004 ,45,9242614905263 ,80,8686893684744
6.4177983 ,Left ,59,4798079595004 ,45,9242614905263 ,80,8686893684744
6.4177998 ,Left ,59,4798079595004 ,45,9242614905263 ,80,8686893684744
6.4178013 ,Left ,59,4798079595004 ,45,9242614905263 ,80,8686893684744
6.4402531 ,Left ,59,487265823016 ,45,8961302720326 ,80,8910356382372
6.4402548 ,Left ,59,487265823016 ,45,8961302720326 ,80,8910356382372
6.4402563 ,Left ,59,487265823016 ,45,8961302720326 ,80,8910356382372
6.4402577 ,Left ,59,487265823016 ,45,8961302720326 ,80,8910356382372
6.4854185 ,Left ,59,5280890879896 ,45,8894277057128 ,80,9275024846626
6.4854217 ,Left ,59,5280890879896 ,45,8894277057128 ,80,9275024846626
6.4854244 ,Left ,59,5280890879896 ,45,8894277057128 ,80,9275024846626
6.485427 ,Left ,59,5280890879896 ,45,8894277057128 ,80,9275024846626
6.5154382 ,Left ,59,527159683928 ,45,9136263862451 ,80,9528992837934
6.5154419 ,Left ,59,527159683928 ,45,9136263862451 ,80,9528992837934
6.5154449 ,Left ,59,527159683928 ,45,9136263862451 ,80,9528992837934
6.5154479 ,Left ,59,527159683928 ,45,9136263862451 ,80,9528992837934
6.5454884 ,Left ,59,5235626981783 ,45,9525571053466 ,81,0064315655884
6.545492 ,Left ,59,5235626981783 ,45,9525571053466 ,81,0064315655884
6.5454951 ,Left ,59,5235626981783 ,45,9525571053466 ,81,0064315655884
6.5454981 ,Left ,59,5235626981783 ,45,9525571053466 ,81,0064315655884
6.5979638 ,Left ,59,5340419714474 ,45,9800244026622 ,81,0052670860263
6.5979658 ,Left ,59,5340419714474 ,45,9800244026622 ,81,0052670860263
6.5979673 ,Left ,59,5340419714474 ,45,9800244026622 ,81,0052670860263
6.5979688 ,Left ,59,5340419714474 ,45,9800244026622 ,81,0052670860263
6.6206028 ,Left ,59,5236481823949 ,45,9931849758249 ,80,9849756665907
6.620605 ,Left ,59,5236481823949 ,45,9931849758249 ,80,9849756665907
6.6206068 ,Left ,59,5236481823949 ,45,9931849758249 ,80,9849756665907
6.6206085 ,Left ,59,5236481823949 ,45,9931849758249 ,80,9849756665907
6.6580444 ,Left ,59,4913827262099 ,46,009957635043 ,80,9296495051455
6.6580476 ,Left ,59,4913827262099 ,46,009957635043 ,80,9296495051455
6.6580502 ,Left ,59,4913827262099 ,46,009957635043 ,80,9296495051455
6.6580529 ,Left ,59,4913827262099 ,46,009957635043 ,80,9296495051455
6.6806795 ,Left ,59,499611518301 ,46,0147091422925 ,80,8995630888339
6.6806832 ,Left ,59,499611518301 ,46,0147091422925 ,80,8995630888339
6.6806862 ,Left ,59,499611518301 ,46,0147091422925 ,80,8995630888339
6.6806892 ,Left ,59,499611518301 ,46,0147091422925 ,80,8995630888339
6.7180939 ,Left ,59,4896846654116 ,46,0151801238315 ,80,8568591068479
6.7180977 ,Left ,59,4896846654116 ,46,0151801238315 ,80,8568591068479
6.7181008 ,Left ,59,4896846654116 ,46,0151801238315 ,80,8568591068479
6.7181038 ,Left ,59,4896846654116 ,46,0151801238315 ,80,8568591068479
6.7480423 ,Left ,59,4537685151176 ,46,0186236396746 ,80,8487008103005
6.748046 ,Left ,59,4537685151176 ,46,0186236396746 ,80,8487008103005
6.7480491 ,Left ,59,4537685151176 ,46,0186236396746 ,80,8487008103005
6.7480521 ,Left ,59,4537685151176 ,46,0186236396746 ,80,8487008103005
6.7856772 ,Left ,59,4206731880278 ,46,0656824549955 ,80,8477434682451
6.7856809 ,Left ,59,4206731880278 ,46,0656824549955 ,80,8477434682451
6.785684 ,Left ,59,4206731880278 ,46,0656824549955 ,80,8477434682451
6.785687 ,Left ,59,4206731880278 ,46,0656824549955 ,80,8477434682451
6.8006928 ,Left ,59,3937702943332 ,46,1045543474395 ,80,8673238144328
6.8006965 ,Left ,59,3937702943332 ,46,1045543474395 ,80,8673238144328
6.8006996 ,Left ,59,3937702943332 ,46,1045543474395 ,80,8673238144328
6.8007026 ,Left ,59,3937702943332 ,46,1045543474395 ,80,8673238144328
6.8378938 ,Left ,59,3045960690922 ,46,224400508838 ,80,9519010432918
6.8378957 ,Left ,59,3045960690922 ,46,224400508838 ,80,9519010432918
6.8378972 ,Left ,59,3045960690922 ,46,224400508838 ,80,9519010432918
6.8378987 ,Left ,59,3045960690922 ,46,224400508838 ,80,9519010432918
6.860572 ,Left ,59,2506934622521 ,46,2999936936974 ,81,0088270218055
6.8605747 ,Left ,59,2506934622521 ,46,2999936936974 ,81,0088270218055
6.8605764 ,Left ,59,2506934622521 ,46,2999936936974 ,81,0088270218055
6.8605781 ,Left ,59,2506934622521 ,46,2999936936974 ,81,0088270218055
6.9053422 ,Left ,59,1747226320507 ,46,4520741379142 ,81,1303903598658
6.9053443 ,Left ,59,1747226320507 ,46,4520741379142 ,81,1303903598658
6.9053458 ,Left ,59,1747226320507 ,46,4520741379142 ,81,1303903598658
6.9053473 ,Left ,59,1747226320507 ,46,4520741379142 ,81,1303903598658
6.9278996 ,Left ,59,156160520764 ,46,5192426115221 ,81,1903639713335
6.9279041 ,Left ,59,156160520764 ,46,5192426115221 ,81,1903639713335
6.9279061 ,Left ,59,156160520764 ,46,5192426115221 ,81,1903639713335
6.9279082 ,Left ,59,156160520764 ,46,5192426115221 ,81,1903639713335
6.9582881 ,Left ,59,0989199480396 ,46,6006664324923 ,81,2744514309331
6.9582976 ,Left ,59,0989199480396 ,46,6006664324923 ,81,2744514309331
6.9583023 ,Left ,59,0989199480396 ,46,6006664324923 ,81,2744514309331
6.9583069 ,Left ,59,0989199480396 ,46,6006664324923 ,81,2744514309331
6.9808922 ,Left ,59,0721268822947 ,46,5857169409634 ,81,2964909755135
6.9808979 ,Left ,59,0721268822947 ,46,5857169409634 ,81,2964909755135
6.9809026 ,Left ,59,0721268822947 ,46,5857169409634 ,81,2964909755135
6.9809072 ,Left ,59,0721268822947 ,46,5857169409634 ,81,2964909755135
7.0183543 ,Left ,59,0610708673008 ,46,4183909321964 ,81,2746377858563
7.0183599 ,Left ,59,0610708673008 ,46,4183909321964 ,81,2746377858563
7.0183645 ,Left ,59,0610708673008 ,46,4183909321964 ,81,2746377858563
7.0183692 ,Left ,59,0610708673008 ,46,4183909321964 ,81,2746377858563
7.040916 ,Left ,59,0164702793942 ,46,3105712193756 ,81,246180857021
7.0409216 ,Left ,59,0164702793942 ,46,3105712193756 ,81,246180857021
7.0409264 ,Left ,59,0164702793942 ,46,3105712193756 ,81,246180857021
7.040931 ,Left ,59,0164702793942 ,46,3105712193756 ,81,246180857021
7.0777839 ,Left ,58,814256317365 ,46,2779795099804 ,81,229293363525
7.0777864 ,Left ,58,814256317365 ,46,2779795099804 ,81,229293363525
7.0777885 ,Left ,58,814256317365 ,46,2779795099804 ,81,229293363525
7.0777906 ,Left ,58,814256317365 ,46,2779795099804 ,81,229293363525
7.1005849 ,Left ,58,6465693086954 ,46,378735570146 ,81,2297733838681
7.1005875 ,Left ,58,6465693086954 ,46,378735570146 ,81,2297733838681
7.1005896 ,Left ,58,6465693086954 ,46,378735570146 ,81,2297733838681
7.1005917 ,Left ,58,6465693086954 ,46,378735570146 ,81,2297733838681
7.1379003 ,Left ,58,8121705822704 ,46,5706984764407 ,81,2789745986576
7.1379028 ,Left ,58,8121705822704 ,46,5706984764407 ,81,2789745986576
7.1379049 ,Left ,58,8121705822704 ,46,5706984764407 ,81,2789745986576
7.137907 ,Left ,58,8121705822704 ,46,5706984764407 ,81,2789745986576
7.1603534 ,Left ,59,0170911522721 ,46,606619096232 ,81,3116762355408
7.160356 ,Left ,59,0170911522721 ,46,606619096232 ,81,3116762355408
7.1603581 ,Left ,59,0170911522721 ,46,606619096232 ,81,3116762355408
7.1603602 ,Left ,59,0170911522721 ,46,606619096232 ,81,3116762355408
7.2056369 ,Left ,59,1134943465853 ,46,5789794843991 ,81,2682920254246
7.2056421 ,Left ,59,1134943465853 ,46,5789794843991 ,81,2682920254246
7.2056465 ,Left ,59,1134943465853 ,46,5789794843991 ,81,2682920254246
7.2056508 ,Left ,59,1134943465853 ,46,5789794843991 ,81,2682920254246
7.228234 ,Left ,58,964731828472 ,46,5429621621958 ,81,2207786733784
7.2282427 ,Left ,58,964731828472 ,46,5429621621958 ,81,2207786733784
7.2282471 ,Left ,58,964731828472 ,46,5429621621958 ,81,2207786733784
7.2282514 ,Left ,58,964731828472 ,46,5429621621958 ,81,2207786733784
7.258333 ,Left ,58,6847805735613 ,46,5239302298891 ,81,0607130417929
7.2583382 ,Left ,58,6847805735613 ,46,5239302298891 ,81,0607130417929
7.2583425 ,Left ,58,6847805735613 ,46,5239302298891 ,81,0607130417929
7.2583468 ,Left ,58,6847805735613 ,46,5239302298891 ,81,0607130417929
7.2806556 ,Left ,58,6729854565892 ,46,4777228968537 ,80,9567243889257
7.2806609 ,Left ,58,6729854565892 ,46,4777228968537 ,80,9567243889257
7.2806652 ,Left ,58,6729854565892 ,46,4777228968537 ,80,9567243889257
7.2806695 ,Left ,58,6729854565892 ,46,4777228968537 ,80,9567243889257
7.3206802 ,Left ,58,7724585934735 ,46,2269145626908 ,80,8591380530582
7.3206854 ,Left ,58,7724585934735 ,46,2269145626908 ,80,8591380530582
7.32069 ,Left ,58,7724585934735 ,46,2269145626908 ,80,8591380530582
7.3206943 ,Left ,58,7724585934735 ,46,2269145626908 ,80,8591380530582
7.340657 ,Left ,58,7506013047868 ,46,044383580034 ,80,8777841336543
7.3406623 ,Left ,58,7506013047868 ,46,044383580034 ,80,8777841336543
7.3406666 ,Left ,58,7506013047868 ,46,044383580034 ,80,8777841336543
7.340671 ,Left ,58,7506013047868 ,46,044383580034 ,80,8777841336543
7.3779826 ,Left ,58,7458750771282 ,45,9873274434997 ,80,8821167500381
7.3779855 ,Left ,58,7458750771282 ,45,9873274434997 ,80,8821167500381
7.3779878 ,Left ,58,7458750771282 ,45,9873274434997 ,80,8821167500381
7.3779902 ,Left ,58,7458750771282 ,45,9873274434997 ,80,8821167500381
7.4006431 ,Left ,58,8022118373706 ,46,0944026020467 ,80,8383599868043
7.4006481 ,Left ,58,8022118373706 ,46,0944026020467 ,80,8383599868043
7.4006504 ,Left ,58,8022118373706 ,46,0944026020467 ,80,8383599868043
7.4006527 ,Left ,58,8022118373706 ,46,0944026020467 ,80,8383599868043
7.4379897 ,Left ,59,0779956920216 ,46,2185907836698 ,80,7880289684427
7.4379926 ,Left ,59,0779956920216 ,46,2185907836698 ,80,7880289684427
7.437995 ,Left ,59,0779956920216 ,46,2185907836698 ,80,7880289684427
7.4379973 ,Left ,59,0779956920216 ,46,2185907836698 ,80,7880289684427
7.4606736 ,Left ,59,0589875844891 ,46,2482864955151 ,80,7564303817952
7.4606768 ,Left ,59,0589875844891 ,46,2482864955151 ,80,7564303817952
7.4606795 ,Left ,59,0589875844891 ,46,2482864955151 ,80,7564303817952
7.4606822 ,Left ,59,0589875844891 ,46,2482864955151 ,80,7564303817952
7.4980031 ,Left ,58,8887190947255 ,46,128259990144 ,80,7222921933965
7.498005 ,Left ,58,8887190947255 ,46,128259990144 ,80,7222921933965
7.4980065 ,Left ,58,8887190947255 ,46,128259990144 ,80,7222921933965
7.498008 ,Left ,58,8887190947255 ,46,128259990144 ,80,7222921933965
7.5206579 ,Left ,58,8758781324884 ,45,9994842837553 ,80,7254993421653
7.5206602 ,Left ,58,8758781324884 ,45,9994842837553 ,80,7254993421653
7.520662 ,Left ,58,8758781324884 ,45,9994842837553 ,80,7254993421653
7.5206638 ,Left ,58,8758781324884 ,45,9994842837553 ,80,7254993421653
7.5585048 ,Left ,58,7166801980706 ,45,9663755838282 ,80,7232906630163
7.5585126 ,Left ,58,7166801980706 ,45,9663755838282 ,80,7232906630163
7.558541 ,Left ,58,7166801980706 ,45,9663755838282 ,80,7232906630163
7.5585476 ,Left ,58,7166801980706 ,45,9663755838282 ,80,7232906630163
7.5812068 ,Left ,58,614160123282 ,46,0871905323542 ,80,6986037177148
7.5812149 ,Left ,58,614160123282 ,46,0871905323542 ,80,6986037177148
7.5812218 ,Left ,58,614160123282 ,46,0871905323542 ,80,6986037177148
7.5812285 ,Left ,58,614160123282 ,46,0871905323542 ,80,6986037177148
7.618767 ,Left ,58,904215656906 ,46,209236437091 ,80,7239004993431
7.6187748 ,Left ,58,904215656906 ,46,209236437091 ,80,7239004993431
7.6187815 ,Left ,58,904215656906 ,46,209236437091 ,80,7239004993431
7.6187882 ,Left ,58,904215656906 ,46,209236437091 ,80,7239004993431
7.6407633 ,Left ,59,0114428356081 ,46,2154392626729 ,80,7365446525462
7.6407678 ,Left ,59,0114428356081 ,46,2154392626729 ,80,7365446525462
7.6407714 ,Left ,59,0114428356081 ,46,2154392626729 ,80,7365446525462
7.6407749 ,Left ,59,0114428356081 ,46,2154392626729 ,80,7365446525462
7.6781937 ,Left ,58,8962417416859 ,46,1986913232447 ,80,7249067563982
7.6781984 ,Left ,58,8962417416859 ,46,1986913232447 ,80,7249067563982
7.678202 ,Left ,58,8962417416859 ,46,1986913232447 ,80,7249067563982
7.6782055 ,Left ,58,8962417416859 ,46,1986913232447 ,80,7249067563982
7.7006447 ,Left ,58,8195800666816 ,46,2204963861646 ,80,7368760903406
7.7006486 ,Left ,58,8195800666816 ,46,2204963861646 ,80,7368760903406
7.7006515 ,Left ,58,8195800666816 ,46,2204963861646 ,80,7368760903406
7.7006544 ,Left ,58,8195800666816 ,46,2204963861646 ,80,7368760903406
7.715432 ,Left ,58,7977916357125 ,46,2547669672367 ,80,7578917370777
7.7154355 ,Left ,58,7977916357125 ,46,2547669672367 ,80,7578917370777
7.7154384 ,Left ,58,7977916357125 ,46,2547669672367 ,80,7578917370777
7.7154412 ,Left ,58,7977916357125 ,46,2547669672367 ,80,7578917370777
7.7306342 ,Left ,58,7794131969854 ,46,2674943721675 ,80,7827925794452
7.7306378 ,Left ,58,7794131969854 ,46,2674943721675 ,80,7827925794452
7.7306406 ,Left ,58,7794131969854 ,46,2674943721675 ,80,7827925794452
7.7306435 ,Left ,58,7794131969854 ,46,2674943721675 ,80,7827925794452
7.7531393 ,Left ,58,7471202302427 ,46,2366917199976 ,80,8154716090609
7.7531429 ,Left ,58,7471202302427 ,46,2366917199976 ,80,8154716090609
7.7531459 ,Left ,58,7471202302427 ,46,2366917199976 ,80,8154716090609
7.7531487 ,Left ,58,7471202302427 ,46,2366917199976 ,80,8154716090609
7.7754925 ,Left ,58,6997079705611 ,46,1528518506488 ,80,8483264898122
7.7754963 ,Left ,58,6997079705611 ,46,1528518506488 ,80,8483264898122
7.7754991 ,Left ,58,6997079705611 ,46,1528518506488 ,80,8483264898122
7.775502 ,Left ,58,6997079705611 ,46,1528518506488 ,80,8483264898122
7.7906336 ,Left ,58,6636921892697 ,46,1102304691527 ,80,9155858369649
7.7906375 ,Left ,58,6636921892697 ,46,1102304691527 ,80,9155858369649
7.7906404 ,Left ,58,6636921892697 ,46,1102304691527 ,80,9155858369649
7.7906433 ,Left ,58,6636921892697 ,46,1102304691527 ,80,9155858369649
7.8128948 ,Left ,58,5290216946793 ,46,1589933734961 ,80,9041687603452
7.8128981 ,Left ,58,5290216946793 ,46,1589933734961 ,80,9041687603452
7.812901 ,Left ,58,5290216946793 ,46,1589933734961 ,80,9041687603452
7.8129039 ,Left ,58,5290216946793 ,46,1589933734961 ,80,9041687603452
7.8354172 ,Left ,58,4490229234332 ,46,2974448668175 ,80,8874300313736
7.8354207 ,Left ,58,4490229234332 ,46,2974448668175 ,80,8874300313736
7.8354236 ,Left ,58,4490229234332 ,46,2974448668175 ,80,8874300313736
7.8354264 ,Left ,58,4490229234332 ,46,2974448668175 ,80,8874300313736
7.8581923 ,Left ,58,5458318876136 ,46,4152619805095 ,80,9094189180326
7.8581958 ,Left ,58,5458318876136 ,46,4152619805095 ,80,9094189180326
7.8581987 ,Left ,58,5458318876136 ,46,4152619805095 ,80,9094189180326
7.8582016 ,Left ,58,5458318876136 ,46,4152619805095 ,80,9094189180326
7.8806804 ,Left ,58,7139991643117 ,46,4281193321194 ,80,9519499749229
7.880684 ,Left ,58,7139991643117 ,46,4281193321194 ,80,9519499749229
7.8806869 ,Left ,58,7139991643117 ,46,4281193321194 ,80,9519499749229
7.8806898 ,Left ,58,7139991643117 ,46,4281193321194 ,80,9519499749229
7.9178133 ,Left ,58,8465390834712 ,46,33071241678 ,80,9369277158198
7.9178193 ,Left ,58,8465390834712 ,46,33071241678 ,80,9369277158198
7.9178208 ,Left ,58,8465390834712 ,46,33071241678 ,80,9369277158198
7.9178222 ,Left ,58,8465390834712 ,46,33071241678 ,80,9369277158198
7.9404855 ,Left ,58,8037460760653 ,46,2598736336445 ,80,9102240229991
7.9404885 ,Left ,58,8037460760653 ,46,2598736336445 ,80,9102240229991
7.9404909 ,Left ,58,8037460760653 ,46,2598736336445 ,80,9102240229991
7.9404932 ,Left ,58,8037460760653 ,46,2598736336445 ,80,9102240229991
7.9706277 ,Left ,58,8127840166648 ,46,1909531388594 ,80,8335605771605
7.9706312 ,Left ,58,8127840166648 ,46,1909531388594 ,80,8335605771605
7.9706339 ,Left ,58,8127840166648 ,46,1909531388594 ,80,8335605771605
7.9706365 ,Left ,58,8127840166648 ,46,1909531388594 ,80,8335605771605
7.9933104 ,Left ,58,8466634515421 ,46,1985016662409 ,80,784567671784
7.9933136 ,Left ,58,8466634515421 ,46,1985016662409 ,80,784567671784
7.9933163 ,Left ,58,8466634515421 ,46,1985016662409 ,80,784567671784
7.993319 ,Left ,58,8466634515421 ,46,1985016662409 ,80,784567671784
8.0230858 ,Left ,58,8824636114217 ,46,2391365148642 ,80,7299471576256
8.0230891 ,Left ,58,8824636114217 ,46,2391365148642 ,80,7299471576256
8.0230917 ,Left ,58,8824636114217 ,46,2391365148642 ,80,7299471576256
8.0230944 ,Left ,58,8824636114217 ,46,2391365148642 ,80,7299471576256
8.0380263 ,Left ,58,9071552753509 ,46,3097807252957 ,80,6777437569116
8.0380296 ,Left ,58,9071552753509 ,46,3097807252957 ,80,6777437569116
8.0380322 ,Left ,58,9071552753509 ,46,3097807252957 ,80,6777437569116
8.0380348 ,Left ,58,9071552753509 ,46,3097807252957 ,80,6777437569116
8.0607227 ,Left ,58,92590972113 ,46,4054951578745 ,80,6219118178562
8.0607259 ,Left ,58,92590972113 ,46,4054951578745 ,80,6219118178562
8.0607285 ,Left ,58,92590972113 ,46,4054951578745 ,80,6219118178562
8.0607311 ,Left ,58,92590972113 ,46,4054951578745 ,80,6219118178562
8.0754692 ,Left ,58,9624346818656 ,46,5151782462704 ,80,5579002867906
8.0754729 ,Left ,58,9624346818656 ,46,5151782462704 ,80,5579002867906
8.0754759 ,Left ,58,9624346818656 ,46,5151782462704 ,80,5579002867906
8.0754789 ,Left ,58,9624346818656 ,46,5151782462704 ,80,5579002867906
8.0904823 ,Left ,58,9887922868147 ,46,620270754496 ,80,4856127814544
8.0904859 ,Left ,58,9887922868147 ,46,620270754496 ,80,4856127814544
8.090489 ,Left ,58,9887922868147 ,46,620270754496 ,80,4856127814544
8.0904921 ,Left ,58,9887922868147 ,46,620270754496 ,80,4856127814544
8.112961 ,Left ,58,9977127701879 ,46,7251779989667 ,80,4181525505774
8.1129644 ,Left ,58,9977127701879 ,46,7251779989667 ,80,4181525505774
8.1129675 ,Left ,58,9977127701879 ,46,7251779989667 ,80,4181525505774
8.1129705 ,Left ,58,9977127701879 ,46,7251779989667 ,80,4181525505774
8.1432455 ,Left ,58,9766088813285 ,46,8078637587361 ,80,3467758148497
8.1432511 ,Left ,58,9766088813285 ,46,8078637587361 ,80,3467758148497
8.1432541 ,Left ,58,9766088813285 ,46,8078637587361 ,80,3467758148497
8.1432571 ,Left ,58,9766088813285 ,46,8078637587361 ,80,3467758148497
8.1580316 ,Left ,58,9369518313693 ,46,8774830017912 ,80,2761975008776
8.1580357 ,Left ,58,9369518313693 ,46,8774830017912 ,80,2761975008776
8.1580393 ,Left ,58,9369518313693 ,46,8774830017912 ,80,2761975008776
8.1580428 ,Left ,58,9369518313693 ,46,8774830017912 ,80,2761975008776
8.1804272 ,Left ,58,9094888134255 ,46,9362883532105 ,80,200230741575
8.1804292 ,Left ,58,9094888134255 ,46,9362883532105 ,80,200230741575
8.1804307 ,Left ,58,9094888134255 ,46,9362883532105 ,80,200230741575
8.1804321 ,Left ,58,9094888134255 ,46,9362883532105 ,80,200230741575
8.1953153 ,Left ,58,8826767478046 ,46,979775119907 ,80,1260746595902
8.1953173 ,Left ,58,8826767478046 ,46,979775119907 ,80,1260746595902
8.1953188 ,Left ,58,8826767478046 ,46,979775119907 ,80,1260746595902
8.1953202 ,Left ,58,8826767478046 ,46,979775119907 ,80,1260746595902
8.2104332 ,Left ,58,8460025313541 ,47,0045773777491 ,80,0467442149043
8.2104357 ,Left ,58,8460025313541 ,47,0045773777491 ,80,0467442149043
8.2104376 ,Left ,58,8460025313541 ,47,0045773777491 ,80,0467442149043
8.2104395 ,Left ,58,8460025313541 ,47,0045773777491 ,80,0467442149043
8.2331031 ,Left ,58,8049915774782 ,46,9942351586538 ,79,9609783329098
8.2331058 ,Left ,58,8049915774782 ,46,9942351586538 ,79,9609783329098
8.2331079 ,Left ,58,8049915774782 ,46,9942351586538 ,79,9609783329098
8.23311 ,Left ,58,8049915774782 ,46,9942351586538 ,79,9609783329098
8.255355 ,Left ,58,7825636722598 ,46,9318230513394 ,79,8792501836262
8.2553578 ,Left ,58,7825636722598 ,46,9318230513394 ,79,8792501836262
8.2553601 ,Left ,58,7825636722598 ,46,9318230513394 ,79,8792501836262
8.2553625 ,Left ,58,7825636722598 ,46,9318230513394 ,79,8792501836262
8.2707304 ,Left ,58,7723219853382 ,46,8289972871221 ,79,8218413841777
8.2707339 ,Left ,58,7723219853382 ,46,8289972871221 ,79,8218413841777
8.2707365 ,Left ,58,7723219853382 ,46,8289972871221 ,79,8218413841777
8.2707391 ,Left ,58,7723219853382 ,46,8289972871221 ,79,8218413841777
8.2934317 ,Left ,58,7462280949999 ,46,7123601136683 ,79,8464200662095
8.2934372 ,Left ,58,7462280949999 ,46,7123601136683 ,79,8464200662095
8.2934415 ,Left ,58,7462280949999 ,46,7123601136683 ,79,8464200662095
8.2934458 ,Left ,58,7462280949999 ,46,7123601136683 ,79,8464200662095
8.31565 ,Left ,58,6857246191186 ,46,6746019488491 ,79,8801241992211
8.3156585 ,Left ,58,6857246191186 ,46,6746019488491 ,79,8801241992211
8.3156756 ,Left ,58,6857246191186 ,46,6746019488491 ,79,8801241992211
8.3156799 ,Left ,58,6857246191186 ,46,6746019488491 ,79,8801241992211
8.3306911 ,Left ,58,6883311020532 ,46,7154544800724 ,79,8661723301309
8.3306963 ,Left ,58,6883311020532 ,46,7154544800724 ,79,8661723301309
8.3307006 ,Left ,58,6883311020532 ,46,7154544800724 ,79,8661723301309
8.3307049 ,Left ,58,6883311020532 ,46,7154544800724 ,79,8661723301309
8.3534046 ,Left ,58,8742556856281 ,46,7374276380229 ,79,8591131488254
8.35341 ,Left ,58,8742556856281 ,46,7374276380229 ,79,8591131488254
8.3534144 ,Left ,58,8742556856281 ,46,7374276380229 ,79,8591131488254
8.3534187 ,Left ,58,8742556856281 ,46,7374276380229 ,79,8591131488254
8.3755888 ,Left ,59,1526118182708 ,46,6722122589878 ,79,8808208312153
8.3755938 ,Left ,59,1526118182708 ,46,6722122589878 ,79,8808208312153
8.3755982 ,Left ,59,1526118182708 ,46,6722122589878 ,79,8808208312153
8.3756025 ,Left ,59,1526118182708 ,46,6722122589878 ,79,8808208312153
8.4056994 ,Left ,59,4142488214256 ,46,5503546305493 ,79,8867896335863
8.4057047 ,Left ,59,4142488214256 ,46,5503546305493 ,79,8867896335863
8.405709 ,Left ,59,4142488214256 ,46,5503546305493 ,79,8867896335863
8.4057133 ,Left ,59,4142488214256 ,46,5503546305493 ,79,8867896335863
8.4211641 ,Left ,59,5614899947215 ,46,4274474450062 ,79,8848893433087
8.4211728 ,Left ,59,5614899947215 ,46,4274474450062 ,79,8848893433087
8.4211805 ,Left ,59,5614899947215 ,46,4274474450062 ,79,8848893433087
8.421188 ,Left ,59,5614899947215 ,46,4274474450062 ,79,8848893433087
8.4435642 ,Left ,59,562292254939 ,46,3335400006707 ,79,8994780725232
8.4435734 ,Left ,59,562292254939 ,46,3335400006707 ,79,8994780725232
8.443581 ,Left ,59,562292254939 ,46,3335400006707 ,79,8994780725232
8.4435885 ,Left ,59,562292254939 ,46,3335400006707 ,79,8994780725232
8.473673 ,Left ,59,2561167813749 ,46,2895939061403 ,79,9558321436922
8.4736818 ,Left ,59,2561167813749 ,46,2895939061403 ,79,9558321436922
8.4736892 ,Left ,59,2561167813749 ,46,2895939061403 ,79,9558321436922
8.4736967 ,Left ,59,2561167813749 ,46,2895939061403 ,79,9558321436922
8.4955039 ,Left ,59,233957778709 ,46,2795741589463 ,79,9772840408206
8.495508 ,Left ,59,233957778709 ,46,2795741589463 ,79,9772840408206
8.4955115 ,Left ,59,233957778709 ,46,2795741589463 ,79,9772840408206
8.4955151 ,Left ,59,233957778709 ,46,2795741589463 ,79,9772840408206
8.5179235 ,Left ,59,2999494554288 ,46,2335599719307 ,79,9868206449812
8.5179265 ,Left ,59,2999494554288 ,46,2335599719307 ,79,9868206449812
8.5179289 ,Left ,59,2999494554288 ,46,2335599719307 ,79,9868206449812
8.5179313 ,Left ,59,2999494554288 ,46,2335599719307 ,79,9868206449812
8.5330999 ,Left ,59,3489169104298 ,46,1383350203418 ,79,9997626335165
8.533103 ,Left ,59,3489169104298 ,46,1383350203418 ,79,9997626335165
8.5331054 ,Left ,59,3489169104298 ,46,1383350203418 ,79,9997626335165
8.5331078 ,Left ,59,3489169104298 ,46,1383350203418 ,79,9997626335165
8.5554407 ,Left ,59,2558680277491 ,46,0165451913015 ,80,0421936793974
8.5554437 ,Left ,59,2558680277491 ,46,0165451913015 ,80,0421936793974
8.5554461 ,Left ,59,2558680277491 ,46,0165451913015 ,80,0421936793974
8.5554486 ,Left ,59,2558680277491 ,46,0165451913015 ,80,0421936793974
8.5778264 ,Left ,59,1202023116275 ,45,9681835483614 ,80,113671592639
8.5778291 ,Left ,59,1202023116275 ,45,9681835483614 ,80,113671592639
8.5778316 ,Left ,59,1202023116275 ,45,9681835483614 ,80,113671592639
8.577834 ,Left ,59,1202023116275 ,45,9681835483614 ,80,113671592639
8.5931986 ,Left ,58,9395328806173 ,46,0495076530946 ,80,0928216647679
8.5932022 ,Left ,58,9395328806173 ,46,0495076530946 ,80,0928216647679
8.593205 ,Left ,58,9395328806173 ,46,0495076530946 ,80,0928216647679
8.5932077 ,Left ,58,9395328806173 ,46,0495076530946 ,80,0928216647679
8.6155128 ,Left ,58,9751885007557 ,46,2385275200929 ,80,0604854816931
8.6155161 ,Left ,58,9751885007557 ,46,2385275200929 ,80,0604854816931
8.6155189 ,Left ,58,9751885007557 ,46,2385275200929 ,80,0604854816931
8.6155216 ,Left ,58,9751885007557 ,46,2385275200929 ,80,0604854816931
8.6380127 ,Left ,59,2218765750123 ,46,3421612426958 ,80,077145869545
8.6380162 ,Left ,59,2218765750123 ,46,3421612426958 ,80,077145869545
8.638019 ,Left ,59,2218765750123 ,46,3421612426958 ,80,077145869545
8.6380217 ,Left ,59,2218765750123 ,46,3421612426958 ,80,077145869545
8.6531573 ,Left ,59,4941758720186 ,46,3584050080963 ,80,1333404822214
8.6531607 ,Left ,59,4941758720186 ,46,3584050080963 ,80,1333404822214
8.6531635 ,Left ,59,4941758720186 ,46,3584050080963 ,80,1333404822214
8.6531663 ,Left ,59,4941758720186 ,46,3584050080963 ,80,1333404822214
8.675499 ,Left ,59,6746208347801 ,46,3312203309067 ,80,1601458176933
8.6755024 ,Left ,59,6746208347801 ,46,3312203309067 ,80,1601458176933
8.6755052 ,Left ,59,6746208347801 ,46,3312203309067 ,80,1601458176933
8.6755182 ,Left ,59,6746208347801 ,46,3312203309067 ,80,1601458176933
8.6977108 ,Left ,59,7324155741711 ,46,2699569288421 ,80,1736007707827
8.6977125 ,Left ,59,7324155741711 ,46,2699569288421 ,80,1736007707827
8.697714 ,Left ,59,7324155741711 ,46,2699569288421 ,80,1736007707827
8.6977155 ,Left ,59,7324155741711 ,46,2699569288421 ,80,1736007707827
8.7137002 ,Left ,59,680494702993 ,46,2104739985745 ,80,1949320166502
8.7137081 ,Left ,59,680494702993 ,46,2104739985745 ,80,1949320166502
8.7137149 ,Left ,59,680494702993 ,46,2104739985745 ,80,1949320166502
8.7137216 ,Left ,59,680494702993 ,46,2104739985745 ,80,1949320166502
8.735926 ,Left ,59,6450113065963 ,46,1900414761212 ,80,2208360437283
8.7359341 ,Left ,59,6450113065963 ,46,1900414761212 ,80,2208360437283
8.7359409 ,Left ,59,6450113065963 ,46,1900414761212 ,80,2208360437283
8.7359477 ,Left ,59,6450113065963 ,46,1900414761212 ,80,2208360437283
8.7583467 ,Left ,59,6299748414364 ,46,1835964905116 ,80,2367488765299
8.7583544 ,Left ,59,6299748414364 ,46,1835964905116 ,80,2367488765299
8.7583611 ,Left ,59,6299748414364 ,46,1835964905116 ,80,2367488765299
8.7583678 ,Left ,59,6299748414364 ,46,1835964905116 ,80,2367488765299
8.7734658 ,Left ,59,6187997441355 ,46,1960759851713 ,80,2499113408172
8.7734736 ,Left ,59,6187997441355 ,46,1960759851713 ,80,2499113408172
8.7734804 ,Left ,59,6187997441355 ,46,1960759851713 ,80,2499113408172
8.7735085 ,Left ,59,6187997441355 ,46,1960759851713 ,80,2499113408172
8.7960431 ,Left ,59,6440223362555 ,46,2052394004804 ,80,2637934368547
8.7960509 ,Left ,59,6440223362555 ,46,2052394004804 ,80,2637934368547
8.7960577 ,Left ,59,6440223362555 ,46,2052394004804 ,80,2637934368547
8.7960644 ,Left ,59,6440223362555 ,46,2052394004804 ,80,2637934368547
8.8179131 ,Left ,59,6579911460388 ,46,199347307673 ,80,2862407285295
8.8179164 ,Left ,59,6579911460388 ,46,199347307673 ,80,2862407285295
8.8179193 ,Left ,59,6579911460388 ,46,199347307673 ,80,2862407285295
8.8179222 ,Left ,59,6579911460388 ,46,199347307673 ,80,2862407285295
8.8328835 ,Left ,59,6431549219647 ,46,1813260249874 ,80,3192807999563
8.8328863 ,Left ,59,6431549219647 ,46,1813260249874 ,80,3192807999563
8.8328888 ,Left ,59,6431549219647 ,46,1813260249874 ,80,3192807999563
8.8328911 ,Left ,59,6431549219647 ,46,1813260249874 ,80,3192807999563
8.8553631 ,Left ,59,5996888612461 ,46,1605518345142 ,80,3569585019958
8.8553661 ,Left ,59,5996888612461 ,46,1605518345142 ,80,3569585019958
8.8553686 ,Left ,59,5996888612461 ,46,1605518345142 ,80,3569585019958
8.855371 ,Left ,59,5996888612461 ,46,1605518345142 ,80,3569585019958
8.8780621 ,Left ,59,585281449982 ,46,1327686543778 ,80,4010037282602
8.8780654 ,Left ,59,585281449982 ,46,1327686543778 ,80,4010037282602
8.8780678 ,Left ,59,585281449982 ,46,1327686543778 ,80,4010037282602
8.8780702 ,Left ,59,585281449982 ,46,1327686543778 ,80,4010037282602
8.8932049 ,Left ,59,5756183334081 ,46,1095124724907 ,80,4509200656134
8.8932083 ,Left ,59,5756183334081 ,46,1095124724907 ,80,4509200656134
8.8932111 ,Left ,59,5756183334081 ,46,1095124724907 ,80,4509200656134
8.8932138 ,Left ,59,5756183334081 ,46,1095124724907 ,80,4509200656134
8.9155954 ,Left ,59,5438316049688 ,46,0758224151381 ,80,5029574141538
8.9155999 ,Left ,59,5438316049688 ,46,0758224151381 ,80,5029574141538
8.9156037 ,Left ,59,5438316049688 ,46,0758224151381 ,80,5029574141538
8.9156075 ,Left ,59,5438316049688 ,46,0758224151381 ,80,5029574141538
8.9379026 ,Left ,59,5189559262548 ,46,0436907716726 ,80,5585935587634
8.9379045 ,Left ,59,5189559262548 ,46,0436907716726 ,80,5585935587634
8.937906 ,Left ,59,5189559262548 ,46,0436907716726 ,80,5585935587634
8.9379075 ,Left ,59,5189559262548 ,46,0436907716726 ,80,5585935587634
8.960306 ,Left ,59,5176650996139 ,46,0096760999949 ,80,6141097321634
8.9603081 ,Left ,59,5176650996139 ,46,0096760999949 ,80,6141097321634
8.9603099 ,Left ,59,5176650996139 ,46,0096760999949 ,80,6141097321634
8.9603116 ,Left ,59,5176650996139 ,46,0096760999949 ,80,6141097321634
8.9830303 ,Left ,59,5040064191303 ,45,9809307629202 ,80,6663159236057
8.9830326 ,Left ,59,5040064191303 ,45,9809307629202 ,80,6663159236057
8.9830343 ,Left ,59,5040064191303 ,45,9809307629202 ,80,6663159236057
8.9830361 ,Left ,59,5040064191303 ,45,9809307629202 ,80,6663159236057
9.005289 ,Left ,59,4879038756442 ,45,9548790645864 ,80,7113442291184
9.0052912 ,Left ,59,4879038756442 ,45,9548790645864 ,80,7113442291184
9.005293 ,Left ,59,4879038756442 ,45,9548790645864 ,80,7113442291184
9.0052947 ,Left ,59,4879038756442 ,45,9548790645864 ,80,7113442291184
9.0205331 ,Left ,59,478672790952 ,45,9320524799736 ,80,7512937170929
9.0205358 ,Left ,59,478672790952 ,45,9320524799736 ,80,7512937170929
9.0205374 ,Left ,59,478672790952 ,45,9320524799736 ,80,7512937170929
9.0205389 ,Left ,59,478672790952 ,45,9320524799736 ,80,7512937170929
9.0353582 ,Left ,59,4604437659446 ,45,9041420336058 ,80,7869311761907
9.0353605 ,Left ,59,4604437659446 ,45,9041420336058 ,80,7869311761907
9.0353622 ,Left ,59,4604437659446 ,45,9041420336058 ,80,7869311761907
9.035364 ,Left ,59,4604437659446 ,45,9041420336058 ,80,7869311761907
9.0580249 ,Left ,59,4591655243913 ,45,8852013649528 ,80,8104286332029
9.0580276 ,Left ,59,4591655243913 ,45,8852013649528 ,80,8104286332029
9.0580297 ,Left ,59,4591655243913 ,45,8852013649528 ,80,8104286332029
9.0580318 ,Left ,59,4591655243913 ,45,8852013649528 ,80,8104286332029
9.0731491 ,Left ,59,4763184547126 ,45,8660348634967 ,80,8214878005732
9.0731528 ,Left ,59,4763184547126 ,45,8660348634967 ,80,8214878005732
9.0731559 ,Left ,59,4763184547126 ,45,8660348634967 ,80,8214878005732
9.073171 ,Left ,59,4763184547126 ,45,8660348634967 ,80,8214878005732
9.0958841 ,Left ,59,493866969173 ,45,8445676549761 ,80,8211600239663
9.0958906 ,Left ,59,493866969173 ,45,8445676549761 ,80,8211600239663
9.0958961 ,Left ,59,493866969173 ,45,8445676549761 ,80,8211600239663
9.0959016 ,Left ,59,493866969173 ,45,8445676549761 ,80,8211600239663
9.1184524 ,Left ,59,5116938166382 ,45,8332821586059 ,80,821498323664
9.118459 ,Left ,59,5116938166382 ,45,8332821586059 ,80,821498323664
9.1184646 ,Left ,59,5116938166382 ,45,8332821586059 ,80,821498323664
9.11847 ,Left ,59,5116938166382 ,45,8332821586059 ,80,821498323664
9.1333126 ,Left ,59,5076697145686 ,45,8193000363533 ,80,8264023564737
9.1333191 ,Left ,59,5076697145686 ,45,8193000363533 ,80,8264023564737
9.1333246 ,Left ,59,5076697145686 ,45,8193000363533 ,80,8264023564737
9.1333301 ,Left ,59,5076697145686 ,45,8193000363533 ,80,8264023564737
9.155563 ,Left ,59,4859395627835 ,45,8076344046387 ,80,8367794096466
9.1555669 ,Left ,59,4859395627835 ,45,8076344046387 ,80,8367794096466
9.1555701 ,Left ,59,4859395627835 ,45,8076344046387 ,80,8367794096466
9.1555733 ,Left ,59,4859395627835 ,45,8076344046387 ,80,8367794096466
9.1781483 ,Left ,59,4691347592007 ,45,806245830542 ,80,8389118575986
9.1781522 ,Left ,59,4691347592007 ,45,806245830542 ,80,8389118575986
9.1781553 ,Left ,59,4691347592007 ,45,806245830542 ,80,8389118575986
9.1781585 ,Left ,59,4691347592007 ,45,806245830542 ,80,8389118575986
9.1930713 ,Left ,59,4676887736966 ,45,8078616138117 ,80,8390334244324
9.1930751 ,Left ,59,4676887736966 ,45,8078616138117 ,80,8390334244324
9.1930783 ,Left ,59,4676887736966 ,45,8078616138117 ,80,8390334244324
9.1930815 ,Left ,59,4676887736966 ,45,8078616138117 ,80,8390334244324
9.215507 ,Left ,59,481162326326 ,45,8089703820274 ,80,839814313668
9.2155109 ,Left ,59,481162326326 ,45,8089703820274 ,80,839814313668
9.2155141 ,Left ,59,481162326326 ,45,8089703820274 ,80,839814313668
9.2155173 ,Left ,59,481162326326 ,45,8089703820274 ,80,839814313668
9.2454462 ,Left ,59,4920274811077 ,45,8127680132998 ,80,8434979668855
9.24545 ,Left ,59,4920274811077 ,45,8127680132998 ,80,8434979668855
9.2454533 ,Left ,59,4920274811077 ,45,8127680132998 ,80,8434979668855
9.2454565 ,Left ,59,4920274811077 ,45,8127680132998 ,80,8434979668855
9.2606889 ,Left ,59,4947770135721 ,45,828345169561 ,80,8511399001886
9.260693 ,Left ,59,4947770135721 ,45,828345169561 ,80,8511399001886
9.2606963 ,Left ,59,4947770135721 ,45,828345169561 ,80,8511399001886
9.2606996 ,Left ,59,4947770135721 ,45,828345169561 ,80,8511399001886
9.2903648 ,Left ,59,488732353582 ,45,8539502304111 ,80,8670210405853
9.2903668 ,Left ,59,488732353582 ,45,8539502304111 ,80,8670210405853
9.2903683 ,Left ,59,488732353582 ,45,8539502304111 ,80,8670210405853
9.2903698 ,Left ,59,488732353582 ,45,8539502304111 ,80,8670210405853
9.3053113 ,Left ,59,4784524930459 ,45,8803622585496 ,80,8783302860909
9.3053133 ,Left ,59,4784524930459 ,45,8803622585496 ,80,8783302860909
9.3053148 ,Left ,59,4784524930459 ,45,8803622585496 ,80,8783302860909
9.3053163 ,Left ,59,4784524930459 ,45,8803622585496 ,80,8783302860909
9.3203276 ,Left ,59,4772334153418 ,45,8970727070415 ,80,8910974825536
9.3203295 ,Left ,59,4772334153418 ,45,8970727070415 ,80,8910974825536
9.320331 ,Left ,59,4772334153418 ,45,8970727070415 ,80,8910974825536
9.3203325 ,Left ,59,4772334153418 ,45,8970727070415 ,80,8910974825536
9.3430444 ,Left ,59,4898083733458 ,45,905897771643 ,80,9002267758298
9.3430469 ,Left ,59,4898083733458 ,45,905897771643 ,80,9002267758298
9.3430488 ,Left ,59,4898083733458 ,45,905897771643 ,80,9002267758298
9.3430507 ,Left ,59,4898083733458 ,45,905897771643 ,80,9002267758298
9.3580587 ,Left ,59,5024044560512 ,45,9031256465575 ,80,9043095028565
9.3580623 ,Left ,59,5024044560512 ,45,9031256465575 ,80,9043095028565
9.358065 ,Left ,59,5024044560512 ,45,9031256465575 ,80,9043095028565
9.3580676 ,Left ,59,5024044560512 ,45,9031256465575 ,80,9043095028565
9.3731266 ,Left ,59,5006818104836 ,45,9021132889432 ,80,903860974781
9.3731309 ,Left ,59,5006818104836 ,45,9021132889432 ,80,903860974781
9.3731345 ,Left ,59,5006818104836 ,45,9021132889432 ,80,903860974781
9.3731381 ,Left ,59,5006818104836 ,45,9021132889432 ,80,903860974781
9.3955564 ,Left ,59,4982982648218 ,45,8900659606642 ,80,8935084458092
9.3955606 ,Left ,59,4982982648218 ,45,8900659606642 ,80,8935084458092
9.3955643 ,Left ,59,4982982648218 ,45,8900659606642 ,80,8935084458092
9.3955679 ,Left ,59,4982982648218 ,45,8900659606642 ,80,8935084458092
9.4181686 ,Left ,59,5030041103515 ,45,8745206138927 ,80,8745954357272
9.4181729 ,Left ,59,5030041103515 ,45,8745206138927 ,80,8745954357272
9.4181765 ,Left ,59,5030041103515 ,45,8745206138927 ,80,8745954357272
9.4181801 ,Left ,59,5030041103515 ,45,8745206138927 ,80,8745954357272
9.4332948 ,Left ,59,5103504531782 ,45,8531198996654 ,80,8548707621931
9.4332992 ,Left ,59,5103504531782 ,45,8531198996654 ,80,8548707621931
9.4333027 ,Left ,59,5103504531782 ,45,8531198996654 ,80,8548707621931
9.4333063 ,Left ,59,5103504531782 ,45,8531198996654 ,80,8548707621931
9.4554246 ,Left ,59,5066819481552 ,45,8453278987347 ,80,8327975691221
9.455429 ,Left ,59,5066819481552 ,45,8453278987347 ,80,8327975691221
9.4554326 ,Left ,59,5066819481552 ,45,8453278987347 ,80,8327975691221
9.4554361 ,Left ,59,5066819481552 ,45,8453278987347 ,80,8327975691221
9.4781312 ,Left ,59,5011602878104 ,45,8562066443667 ,80,8025467682854
9.4781383 ,Left ,59,5011602878104 ,45,8562066443667 ,80,8025467682854
9.4781418 ,Left ,59,5011602878104 ,45,8562066443667 ,80,8025467682854
9.4781454 ,Left ,59,5011602878104 ,45,8562066443667 ,80,8025467682854
9.493207 ,Left ,59,4932285589288 ,45,8808112148742 ,80,7829183254748
9.4932115 ,Left ,59,4932285589288 ,45,8808112148742 ,80,7829183254748
9.4932151 ,Left ,59,4932285589288 ,45,8808112148742 ,80,7829183254748
9.4932186 ,Left ,59,4932285589288 ,45,8808112148742 ,80,7829183254748
9.515525 ,Left ,59,479325606536 ,45,9216776336842 ,80,7650685504052
9.5155293 ,Left ,59,479325606536 ,45,9216776336842 ,80,7650685504052
9.5155329 ,Left ,59,479325606536 ,45,9216776336842 ,80,7650685504052
9.5155364 ,Left ,59,479325606536 ,45,9216776336842 ,80,7650685504052
9.5380937 ,Left ,59,4446613220984 ,45,9796074063385 ,80,7681766229927
9.538098 ,Left ,59,4446613220984 ,45,9796074063385 ,80,7681766229927
9.5381016 ,Left ,59,4446613220984 ,45,9796074063385 ,80,7681766229927
9.5381052 ,Left ,59,4446613220984 ,45,9796074063385 ,80,7681766229927
9.5532624 ,Left ,59,3947669518432 ,46,054169552832 ,80,7881243309892
9.5532667 ,Left ,59,3947669518432 ,46,054169552832 ,80,7881243309892
9.5532703 ,Left ,59,3947669518432 ,46,054169552832 ,80,7881243309892
9.5532738 ,Left ,59,3947669518432 ,46,054169552832 ,80,7881243309892
9.583221 ,Left ,59,3400686567042 ,46,1390811564941 ,80,82574793464
9.5832253 ,Left ,59,3400686567042 ,46,1390811564941 ,80,82574793464
9.5832289 ,Left ,59,3400686567042 ,46,1390811564941 ,80,82574793464
9.5832325 ,Left ,59,3400686567042 ,46,1390811564941 ,80,82574793464
9.6055378 ,Left ,59,272799449013 ,46,2327352637213 ,80,8659137104136
9.6055421 ,Left ,59,272799449013 ,46,2327352637213 ,80,8659137104136
9.6055456 ,Left ,59,272799449013 ,46,2327352637213 ,80,8659137104136
9.6055491 ,Left ,59,272799449013 ,46,2327352637213 ,80,8659137104136
9.6204834 ,Left ,59,2065133314142 ,46,3201889678221 ,80,9123236279018
9.6204876 ,Left ,59,2065133314142 ,46,3201889678221 ,80,9123236279018
9.6204911 ,Left ,59,2065133314142 ,46,3201889678221 ,80,9123236279018
9.6204947 ,Left ,59,2065133314142 ,46,3201889678221 ,80,9123236279018
9.6355743 ,Left ,59,1568586476239 ,46,398084233278 ,80,9592380881387
9.6355786 ,Left ,59,1568586476239 ,46,398084233278 ,80,9592380881387
9.6355822 ,Left ,59,1568586476239 ,46,398084233278 ,80,9592380881387
9.6355858 ,Left ,59,1568586476239 ,46,398084233278 ,80,9592380881387
9.6581121 ,Left ,59,128446832456 ,46,4623839494494 ,81,0053661246042
9.6581167 ,Left ,59,128446832456 ,46,4623839494494 ,81,0053661246042
9.6581203 ,Left ,59,128446832456 ,46,4623839494494 ,81,0053661246042
9.6581238 ,Left ,59,128446832456 ,46,4623839494494 ,81,0053661246042
9.680781 ,Left ,59,1163296294993 ,46,5084142795249 ,81,0447910003762
9.6807854 ,Left ,59,1163296294993 ,46,5084142795249 ,81,0447910003762
9.6807891 ,Left ,59,1163296294993 ,46,5084142795249 ,81,0447910003762
9.6807931 ,Left ,59,1163296294993 ,46,5084142795249 ,81,0447910003762
9.6955732 ,Left ,59,0852715104797 ,46,524902552545 ,81,0705119509211
9.6955775 ,Left ,59,0852715104797 ,46,524902552545 ,81,0705119509211
9.695581 ,Left ,59,0852715104797 ,46,524902552545 ,81,0705119509211
9.6955846 ,Left ,59,0852715104797 ,46,524902552545 ,81,0705119509211
9.7179775 ,Left ,59,0638975495436 ,46,5143507191425 ,81,0773440185751
9.7179794 ,Left ,59,0638975495436 ,46,5143507191425 ,81,0773440185751
9.7179809 ,Left ,59,0638975495436 ,46,5143507191425 ,81,0773440185751
9.7179824 ,Left ,59,0638975495436 ,46,5143507191425 ,81,0773440185751
9.7405697 ,Left ,59,0748465227063 ,46,4660811757832 ,81,0892341793702
9.7405718 ,Left ,59,0748465227063 ,46,4660811757832 ,81,0892341793702
9.7405734 ,Left ,59,0748465227063 ,46,4660811757832 ,81,0892341793702
9.7405749 ,Left ,59,0748465227063 ,46,4660811757832 ,81,0892341793702
9.7554634 ,Left ,59,1007174509518 ,46,3682292717075 ,81,108143994135
9.755466 ,Left ,59,1007174509518 ,46,3682292717075 ,81,108143994135
9.7554681 ,Left ,59,1007174509518 ,46,3682292717075 ,81,108143994135
9.7554702 ,Left ,59,1007174509518 ,46,3682292717075 ,81,108143994135
9.7780507 ,Left ,58,9946045944439 ,46,239573650852 ,81,1489285284044
9.7780536 ,Left ,58,9946045944439 ,46,239573650852 ,81,1489285284044
9.7780563 ,Left ,58,9946045944439 ,46,239573650852 ,81,1489285284044
9.7780595 ,Left ,58,9946045944439 ,46,239573650852 ,81,1489285284044
9.8003716 ,Left ,58,9784559905168 ,46,2150122156739 ,81,1790040892828
9.8003744 ,Left ,58,9784559905168 ,46,2150122156739 ,81,1790040892828
9.8003767 ,Left ,58,9784559905168 ,46,2150122156739 ,81,1790040892828
9.8003791 ,Left ,58,9784559905168 ,46,2150122156739 ,81,1790040892828
9.8154053 ,Left ,58,9312605554435 ,46,2827824793594 ,81,1408911042419
