timestamp,event,roll,pitch,yaw
0.0174652 ,Left ,62,3111882600291 ,46,4721907234751 ,21,710085785697
0.0401843 ,Left ,62,2943901356828 ,46,4606829145844 ,21,713869517022
0.0613355 ,Left ,62,2927358806821 ,46,456565953111 ,21,7194335269035
0.0775622 ,Left ,62,2990206832775 ,46,4555733625379 ,21,727516395553
0.1002422 ,Left ,62,3087408882043 ,46,4518215985231 ,21,7353807121795
0.1213019 ,Left ,62,3238698846296 ,46,4440855737645 ,21,7416920175761
0.1375145 ,Left ,62,3407068125074 ,46,4275440200549 ,21,7462758195812
0.160176 ,Left ,62,3586435320202 ,46,4130717156308 ,21,7506915078216
0.1813473 ,Left ,62,3775869553434 ,46,4053150866919 ,21,7510048174769
0.1977714 ,Left ,62,3930767260268 ,46,406863683566 ,21,7546426706626
0.2201034 ,Left ,62,3935851106195 ,46,4071773407855 ,21,7522127931987
0.2413405 ,Left ,62,3993499290363 ,46,4126702487899 ,21,7580719410636
0.2577593 ,Left ,62,4283641388548 ,46,4105726076063 ,21,7458241563159
0.2801551 ,Left ,62,5122792107665 ,46,3981259703944 ,21,7092792474269
0.2855632 ,Left ,62,6527666932258 ,46,383157397647 ,21,6588535400828
0.3082635 ,Left ,62,8318265994199 ,46,3693242727692 ,21,6053218715442
0.3245378 ,Left ,62,9968319044799 ,46,3549890243368 ,21,547475129046
0.3453597 ,Left ,63,1071356397253 ,46,3599668359945 ,21,4944735137161
0.3677845 ,Left ,63,1356726075173 ,46,3685991028163 ,21,4581838956702
0.3828601 ,Left ,63,124214047669 ,46,3688201727302 ,21,4182715385535
0.4052851 ,Left ,63,1304341302126 ,46,3794973910875 ,21,3876363110425
0.4278726 ,Left ,63,2177657916964 ,46,4140445939786 ,21,3553612500918
0.4428491 ,Left ,63,3610222825147 ,46,4731283816193 ,21,3362240629787
0.4653597 ,Left ,63,5125436288801 ,46,5402920418016 ,21,3053503473134
0.4879148 ,Left ,63,6188485489323 ,46,6040357569339 ,21,2401132192779
0.5029422 ,Left ,63,6469221875214 ,46,6757114305071 ,21,1702164979002
0.5252934 ,Left ,63,6115599315467 ,46,7205020457027 ,21,097223569001
0.54806 ,Left ,63,6148341503714 ,46,7257802796576 ,20,9656984875353
0.562963 ,Left ,63,6218554698387 ,46,7665646902271 ,20,81067412501
0.5853592 ,Left ,63,7251219736654 ,46,8058955812991 ,20,684324992394
0.608005 ,Left ,63,8182723871212 ,46,7755928126877 ,20,5782928307764
0.6231699 ,Left ,63,8032169530072 ,46,7466432504104 ,20,4813989396984
0.6458955 ,Left ,63,7854411776054 ,46,716741813758 ,20,4114054061487
0.6681726 ,Left ,63,7997811758732 ,46,6769812596016 ,20,3464660125515
0.683371 ,Left ,63,8412051306779 ,46,6383621978393 ,20,2657687633824
0.7057579 ,Left ,63,8934630825547 ,46,5992933723456 ,20,1863103293513
0.7283487 ,Left ,63,9323230785563 ,46,5588159417408 ,20,1091145638199
0.7433396 ,Left ,63,9033241189003 ,46,5245022074239 ,20,0361602343191
0.7656123 ,Left ,63,8573384585106 ,46,502794221875 ,19,9612856301464
0.7882302 ,Left ,63,7803049838125 ,46,4786953642975 ,19,8918505121752
0.8034145 ,Left ,63,7107517154625 ,46,4651535139379 ,19,8116392502053
0.8258105 ,Left ,63,651320514871 ,46,4614914948157 ,19,700863539707
0.848112 ,Left ,63,555359054301 ,46,4640281711544 ,19,5572911969363
0.8631988 ,Left ,63,4358114389424 ,46,4690499520397 ,19,4005409462873
0.8857902 ,Left ,63,361068837295 ,46,4953980621859 ,19,2407096613341
0.9082936 ,Left ,63,2679937235847 ,46,5407031068904 ,19,0823040658261
0.9232263 ,Left ,63,1623479590674 ,46,5872153770833 ,18,9231022098939
0.9459777 ,Left ,63,0738295043832 ,46,6304357354689 ,18,7739224502047
0.9679375 ,Left ,63,0038205248004 ,46,6716288256299 ,18,6414990978378
0.9831223 ,Left ,62,9299221608343 ,46,7130252537622 ,18,5283545710829
1.0053838 ,Left ,62,8508426086219 ,46,7467500614095 ,18,4365137957282
1.0278594 ,Left ,62,7423916418658 ,46,7334244221704 ,18,345175553543
1.0428985 ,Left ,62,5999088252507 ,46,6674727771024 ,18,2975791272588
1.0658615 ,Left ,62,5045004378115 ,46,6208663571383 ,18,2881429370076
1.0883802 ,Left ,62,4368596071743 ,46,5762112825991 ,18,2819835262105
1.104734 ,Left ,62,3806073382846 ,46,5305472295997 ,18,2351691049309
1.1254486 ,Left ,62,2364061429326 ,46,4548124966272 ,18,2069669841671
1.1479795 ,Left ,62,0062717831414 ,46,4134484840662 ,18,2036970083388
1.1644522 ,Left ,61,6923837262566 ,46,4012410943717 ,18,1858247302219
1.1858346 ,Left ,61,5338943143185 ,46,3966954559032 ,18,166329667486
1.2081638 ,Left ,61,4696136067581 ,46,5079691329664 ,18,1253162046929
1.2246503 ,Left ,61,5513402573671 ,46,7281240656707 ,18,1226226611973
1.2456868 ,Left ,61,6813504428677 ,46,8843513441947 ,18,1782431191141
1.268267 ,Left ,61,7945672217839 ,46,9479309394313 ,18,1941894115256
1.2846994 ,Left ,61,9352161949328 ,46,9785244100974 ,18,1389162240184
1.3058417 ,Left ,61,9618909872527 ,47,0190889976894 ,18,0413317411021
1.3283669 ,Left ,61,9722872206088 ,47,0300330933897 ,17,9517084185286
1.3445957 ,Left ,61,9573233616668 ,46,9885360801274 ,17,8373593331502
1.36569 ,Left ,61,9513665885056 ,46,9237276181186 ,17,7096380937634
1.3883003 ,Left ,61,9453076754376 ,46,8271676726394 ,17,5933725600565
1.4046242 ,Left ,61,8841879396787 ,46,7120961156483 ,17,5186071508821
1.4258744 ,Left ,61,8483349743025 ,46,5915739804469 ,17,4954473603462
1.4482724 ,Left ,61,7703695248727 ,46,4316684039272 ,17,4606533026448
1.4660639 ,Left ,61,6855499507434 ,46,2745386100422 ,17,4512413783572
1.485996 ,Left ,61,7343254522474 ,46,2812361761426 ,17,4469028128494
1.5079244 ,Left ,61,788078940583 ,46,4903137435646 ,17,3955756778769
1.525868 ,Left ,61,8534629583927 ,46,6424076952214 ,17,3523691082894
1.5455747 ,Left ,61,9974023934503 ,46,7054772070484 ,17,3451967403131
1.5680975 ,Left ,61,992145925134 ,46,7386141978635 ,17,3164189481758
1.5859515 ,Left ,61,8722372621934 ,46,7389352695354 ,17,3024353627453
1.6056213 ,Left ,61,7935602777372 ,46,7223179486811 ,17,2732106189117
1.6279714 ,Left ,61,7701526026743 ,46,634581600757 ,17,2509972225107
1.6460114 ,Left ,61,6397893203111 ,46,4748723878051 ,17,226256625947
1.6657219 ,Left ,61,5943588534554 ,46,3098022909939 ,17,2607346263785
1.6880777 ,Left ,61,6347418495227 ,46,3565349802648 ,17,2047893061228
1.7059967 ,Left ,61,6509799923046 ,46,6409403350244 ,17,1128408948382
1.7253735 ,Left ,61,7220196979612 ,46,8232500207187 ,17,1058998610948
1.7480001 ,Left ,61,8499000953168 ,46,9347930600423 ,17,1225634049464
1.7660483 ,Left ,61,8136763235901 ,47,0422773076457 ,17,1190472999243
1.7853269 ,Left ,61,7126544846248 ,47,1435849864926 ,17,1402678251127
1.8080569 ,Left ,61,6267224361062 ,47,2197234032172 ,17,1534606765919
1.8259301 ,Left ,61,5753013383973 ,47,2542913871066 ,17,1751388742977
1.8457524 ,Left ,61,5485687424009 ,47,2389020825413 ,17,2053530019124
1.8683332 ,Left ,61,4803570834323 ,47,1598475196904 ,17,2553244758759
1.892064 ,Left ,61,3361060428106 ,47,0345653923481 ,17,2972661069155
1.9057101 ,Left ,61,2366064700684 ,46,9940997036734 ,17,3272813942254
1.9235614 ,Left ,61,1883745815033 ,47,0877966949479 ,17,3343712112581
1.9460407 ,Left ,61,147594207172 ,47,3843041360705 ,17,3413309062055
1.9655674 ,Left ,61,19355396001 ,47,5790037916253 ,17,3961248400629
1.9892063 ,Left ,61,372727675534 ,47,6024889596217 ,17,473340755706
2.0053685 ,Left ,61,5512072565627 ,47,6234420691476 ,17,5053781051075
2.0281213 ,Left ,61,5312506666557 ,47,6291224866017 ,17,4987399782427
2.0491562 ,Left ,61,5210404107018 ,47,6140172414137 ,17,5214187782977
2.0656011 ,Left ,61,5740206037944 ,47,615418793067 ,17,5003150819109
2.0878073 ,Left ,61,6545026965488 ,47,6494248708158 ,17,448922780632
2.1021264 ,Left ,61,7757203521558 ,47,69848566276 ,17,4029680184239
2.1253228 ,Left ,61,8670300295926 ,47,7393595270897 ,17,3420627228029
2.1479355 ,Left ,61,9043203502386 ,47,7760554631908 ,17,2754718564219
2.1620732 ,Left ,61,9024785273522 ,47,8320814349404 ,17,2031162533067
2.1853815 ,Left ,61,895727732265 ,47,8987852406272 ,17,1235404775055
2.2078213 ,Left ,61,9228421278414 ,47,9719088306677 ,17,0369817371491
2.2221557 ,Left ,61,9480121266512 ,48,0248323885449 ,16,9498040595004
2.2455146 ,Left ,61,9552925124123 ,48,0540702743333 ,16,8644648738096
2.2677137 ,Left ,61,9557272487349 ,48,0698518658909 ,16,7874430073441
2.2820689 ,Left ,61,9322408897869 ,48,0461006789375 ,16,7130719253573
2.3053141 ,Left ,61,898825111484 ,48,0037138946273 ,16,6404768647537
2.3278264 ,Left ,61,8129369172461 ,47,9486874904081 ,16,5869376751417
2.3489478 ,Left ,61,6954231046062 ,47,898893258033 ,16,5425156104933
2.368332 ,Left ,61,515972577545 ,47,8517042384488 ,16,4835726881306
2.3855166 ,Left ,61,3901289957624 ,47,8269182051632 ,16,4930559985866
2.4021596 ,Left ,61,3222229906054 ,47,8644416282598 ,16,4878406861558
2.4229845 ,Left ,61,5192213952753 ,48,028145806301 ,16,4687585833274
2.4457149 ,Left ,61,8198140176404 ,48,0730277125698 ,16,5358963087921
2.4620937 ,Left ,61,9168576949555 ,47,9488703150338 ,16,63777347476
2.4847327 ,Left ,62,1805692636563 ,47,9346241230586 ,16,6615128849492
2.5053362 ,Left ,62,0162082366002 ,47,8855989677966 ,16,7429496624056
2.5223735 ,Left ,62,177968758573 ,47,8794353912162 ,16,7872180494407
2.5450136 ,Left ,61,9967596321217 ,47,9442412647018 ,16,8845027859837
2.5657098 ,Left ,61,9395176826644 ,47,9348125891908 ,16,9534195127199
2.5820998 ,Left ,62,0174526500304 ,47,9219900082536 ,16,9627899606088
2.6047137 ,Left ,62,0011982546473 ,47,8752944567545 ,16,9488878081767
2.625707 ,Left ,61,9144125984094 ,47,7946540961909 ,16,9143288691453
2.6420606 ,Left ,61,8433026464174 ,47,6641879066953 ,16,8568627937554
2.6646495 ,Left ,61,8265023596306 ,47,4825603376495 ,16,7872487659956
2.6859128 ,Left ,61,784170231863 ,47,3470651290408 ,16,6975404016636
2.7021754 ,Left ,61,4084965458446 ,47,2716404435898 ,16,6805615139068
2.7245479 ,Left ,61,2630567066115 ,47,3148686010776 ,16,6955568897636
2.7458123 ,Left ,61,5021999244311 ,47,5940672985013 ,16,6975328425594
2.762147 ,Left ,61,7032054044418 ,47,7664523163558 ,16,7688085337653
2.7846343 ,Left ,61,8802747923519 ,47,808605539976 ,16,8511485986352
2.8057834 ,Left ,61,9670710591931 ,47,8345231707629 ,16,9136308921697
2.8220293 ,Left ,61,9773048204189 ,47,8557061138261 ,16,9787200983015
2.8445547 ,Left ,61,9721517436807 ,47,8401357013616 ,17,0273133634563
2.8656196 ,Left ,61,9744229722951 ,47,7981565433012 ,17,0730407889304
2.8820225 ,Left ,62,0517678573092 ,47,7535513493271 ,17,1384098576554
2.9044335 ,Left ,62,126226167224 ,47,7291535302485 ,17,2492302177228
2.9256619 ,Left ,62,1400749757664 ,47,7169411074398 ,17,3844469992011
2.9420904 ,Left ,62,1402273830608 ,47,7156292971024 ,17,5480106955893
2.9646351 ,Left ,62,1636466847714 ,47,7098016221805 ,17,7093348464449
2.9856889 ,Left ,62,2063722233124 ,47,6966508041102 ,17,8480644805921
3.0019888 ,Left ,62,2158663823384 ,47,6813520428285 ,17,9624532822671
3.0244908 ,Left ,62,2211060159357 ,47,6670195184612 ,18,0643649811881
3.0458268 ,Left ,62,2382167751425 ,47,6548969923758 ,18,1548148607644
3.0621513 ,Left ,62,2543111465241 ,47,6374087411251 ,18,2313033201759
3.0848101 ,Left ,62,2569537224625 ,47,6213049388055 ,18,2962542456719
3.1057508 ,Left ,62,2544447203379 ,47,6091587363969 ,18,3388938272247
3.1220843 ,Left ,62,2453012907675 ,47,6030050513073 ,18,3669031823482
3.1445268 ,Left ,62,2506955227262 ,47,6125289643075 ,18,3758330818111
3.1662818 ,Left ,62,2667574576938 ,47,6234666515313 ,18,3821090549735
3.1811579 ,Left ,62,271917786683 ,47,642177709041 ,18,3877399611396
3.2036419 ,Left ,62,2749815860535 ,47,6626824701156 ,18,3860996796871
3.2259529 ,Left ,62,2805624665097 ,47,694216501128 ,18,3790780645503
3.2411931 ,Left ,62,2840917162763 ,47,7322514378109 ,18,3658597220598
3.2649982 ,Left ,62,3145876361022 ,47,7714224827076 ,18,3427554411192
3.2873906 ,Left ,62,3152645687051 ,47,7954181929113 ,18,3209374069699
3.3086008 ,Left ,62,3378330608364 ,47,8187980225506 ,18,2953811077474
3.3247866 ,Left ,62,3445369104114 ,47,838282800291 ,18,2697971198756
3.3476041 ,Left ,62,3499694479717 ,47,8600831060793 ,18,2401042048576
3.3700326 ,Left ,62,3574006299022 ,47,8869158900686 ,18,2184897898663
3.3851326 ,Left ,62,3616490033899 ,47,9102541608221 ,18,1930838023624
3.4076055 ,Left ,62,3858458583596 ,47,9330696251125 ,18,1774380859532
3.4302595 ,Left ,62,3932517018747 ,47,9497459324081 ,18,1620651538686
3.4453107 ,Left ,62,3926964402775 ,47,957946516557 ,18,1616279458448
3.467879 ,Left ,62,4015899174243 ,47,9614476145621 ,18,1572460176276
3.4902607 ,Left ,62,4039555164527 ,47,9559361768868 ,18,1605518681422
3.5045984 ,Left ,62,4097703205129 ,47,9549117447267 ,18,1647152539566
3.5277494 ,Left ,62,4192102946569 ,47,9592595445599 ,18,1746149177395
3.5500615 ,Left ,62,415523907331 ,47,9582375312532 ,18,1816489200747
3.5646099 ,Left ,62,4132244021841 ,47,9480774353055 ,18,1919598472577
3.5878273 ,Left ,62,3983946127039 ,47,9350907436229 ,18,2101445894146
3.6102489 ,Left ,62,3932245907112 ,47,9299130925627 ,18,2233388671528
3.624604 ,Left ,62,3961851716984 ,47,9167409937382 ,18,2436211090829
3.647747 ,Left ,62,4071001394903 ,47,8946686641699 ,18,2660773628819
3.670359 ,Left ,62,4214148666042 ,47,8753672004296 ,18,2928592377735
3.6844424 ,Left ,62,4281397896674 ,47,8519331634757 ,18,3245343372436
3.7074649 ,Left ,62,4269348914125 ,47,8258780626575 ,18,3521081700529
3.730359 ,Left ,62,4318160028556 ,47,7997396371554 ,18,380828743281
3.7445144 ,Left ,62,4310120268284 ,47,7722852907717 ,18,4095306070009
3.7675256 ,Left ,62,432961543221 ,47,7496757392909 ,18,4407379750711
3.7902676 ,Left ,62,4343338666926 ,47,7220544907403 ,18,4731003070621
3.8047557 ,Left ,62,4411365963414 ,47,6961424737887 ,18,5085760826128
3.827639 ,Left ,62,4309750915539 ,47,6828686048745 ,18,5434214034151
3.8500832 ,Left ,62,4340206239465 ,47,6787473273882 ,18,5694476144252
3.8713509 ,Left ,62,4383742097124 ,47,6794816590122 ,18,5887709471673
3.8873414 ,Left ,62,439214426661 ,47,6812828897784 ,18,6000155298381
3.9102665 ,Left ,62,4323214567783 ,47,679855115132 ,18,6078600079622
3.931357 ,Left ,62,4165735536696 ,47,6723989325009 ,18,6039603357221
3.9477857 ,Left ,62,402053325695 ,47,6565716843388 ,18,594910269381
3.9699157 ,Left ,62,3941606162912 ,47,6381471921797 ,18,5762983669567
3.9911379 ,Left ,62,3943933119107 ,47,6141007090316 ,18,5527300633552
4.0076113 ,Left ,62,3843217499082 ,47,5781260044426 ,18,5269410006655
4.0306801 ,Left ,62,3670158114381 ,47,5445540752151 ,18,4959352958756
4.0517819 ,Left ,62,3668314435177 ,47,4938494986164 ,18,4604386256362
4.0679124 ,Left ,62,3591472552515 ,47,4336962011532 ,18,4199440137348
4.0907422 ,Left ,62,3260952715083 ,47,36568020036 ,18,380744635209
4.1118223 ,Left ,62,2472866685533 ,47,2958311563284 ,18,3583579956645
4.1274211 ,Left ,62,1746623628649 ,47,2498447020944 ,18,3554313343333
4.1502208 ,Left ,62,018087958526 ,47,166551744712 ,18,3329137841243
4.1710653 ,Left ,61,8547736109381 ,47,0650468520841 ,18,334678718231
4.1868917 ,Left ,61,7870025071093 ,47,0678993415773 ,18,2976058516496
4.2102706 ,Left ,61,7345041506088 ,47,2843980318695 ,18,2561632084016
4.2313244 ,Left ,61,7855568117483 ,47,452259023673 ,18,2239806966093
4.2470479 ,Left ,61,8908202479854 ,47,5023972921418 ,18,2123836370226
4.270378 ,Left ,62,0654427324147 ,47,5220914588636 ,18,1756459178661
4.2926913 ,Left ,62,0626462407872 ,47,5421491458996 ,18,0964255272197
4.3070469 ,Left ,61,9908554812148 ,47,565667030797 ,18,0107791743897
4.330358 ,Left ,61,9401538162599 ,47,5828220855461 ,17,8897729194257
4.3527292 ,Left ,61,9783527372168 ,47,5869979478357 ,17,7516002566971
4.3670109 ,Left ,62,0126367967798 ,47,57609004224 ,17,636691091469
4.3899943 ,Left ,61,9928538505454 ,47,5474535959899 ,17,5482463537102
4.4124911 ,Left ,61,9023108370168 ,47,4702680841433 ,17,4915112199888
4.4357198 ,Left ,61,870857120256 ,47,3227681506853 ,17,4602040000456
4.436394 ,Left ,61,870857120256 ,47,3227681506853 ,17,4602040000456
4.4385222 ,Left ,61,8908202479854 ,47,5023972921418 ,18,2123836370226
4.450134 ,Left ,61,7894632293079 ,47,1170218851211 ,17,4608403238692
4.4726108 ,Left ,61,8564164376604 ,47,0494124327666 ,17,4525186581997
4.4937892 ,Left ,61,7423196591052 ,47,0687476637981 ,17,4034182429434
4.5104032 ,Left ,61,6946308309054 ,47,2121984047176 ,17,3567395505137
4.5326999 ,Left ,61,6351507223978 ,47,2321812421316 ,17,3466561596996
4.5538246 ,Left ,61,574793771146 ,47,2349605340647 ,17,3844929165663
4.5701457 ,Left ,61,6020819165656 ,47,3099541249233 ,17,3699315159466
4.5927027 ,Left ,61,7328010653627 ,47,3291603143205 ,17,3418298660664
4.6138757 ,Left ,61,5577728370276 ,47,2038950204238 ,17,3421433690653
4.6318219 ,Left ,61,3523046890433 ,47,0959738283321 ,17,3707361432651
4.6527811 ,Left ,61,4672850316924 ,47,0263269714326 ,17,3484822731459
4.6737166 ,Left ,61,5168851406912 ,46,9202414838342 ,17,3386441001322
4.6901129 ,Left ,61,1726082675725 ,46,8772941572795 ,17,3547741171127
4.7128186 ,Left ,60,9934210559462 ,47,0629963251069 ,17,3392659721043
4.7337119 ,Left ,61,2814500266829 ,47,2983769259488 ,17,2773167984665
4.7501802 ,Left ,61,4850203305145 ,47,3637314896907 ,17,2914690914151
4.7727272 ,Left ,61,6076565051173 ,47,5061518195969 ,17,3574694528335
4.7936467 ,Left ,61,7103592899096 ,47,625560330185 ,17,3705767549382
4.810244 ,Left ,61,7175097400618 ,47,7667956592297 ,17,3609967117695
4.8326263 ,Left ,61,6928161041879 ,47,9065178689337 ,17,3742504268376
4.8538353 ,Left ,61,6734800364271 ,48,0226678896995 ,17,3776063077742
4.8701516 ,Left ,61,6727683208985 ,48,0817592812464 ,17,3764612429499
4.8925855 ,Left ,61,6460209941091 ,48,0562307798663 ,17,3792075793236
4.9151884 ,Left ,61,5369531577465 ,47,9604684218611 ,17,3915130728692
4.9303188 ,Left ,61,4171322886161 ,47,8249134388343 ,17,4070828714306
4.9526391 ,Left ,61,3116733839432 ,47,571996282751 ,17,4372859511594
4.9739121 ,Left ,61,3452467089968 ,47,4391125974109 ,17,4766087012856
4.9904089 ,Left ,61,258707855076 ,47,6270432675607 ,17,4134050835973
5.012654 ,Left ,61,2290383692064 ,47,8489578212565 ,17,4251552270696
5.0338123 ,Left ,61,3598199741501 ,47,902164356992 ,17,4697190182146
5.0495517 ,Left ,61,5249915653805 ,47,9105333284729 ,17,4955744979542
5.0724605 ,Left ,61,5233149517145 ,47,9355413381067 ,17,4729435811471
5.0935668 ,Left ,61,5354313456656 ,47,9765564494896 ,17,4603612125765
5.1092294 ,Left ,61,5794140081245 ,48,0413329039822 ,17,416649651446
5.1327649 ,Left ,61,6381079244677 ,48,1225851890559 ,17,3645934888396
5.1536316 ,Left ,61,6860381994255 ,48,1957151932135 ,17,3079220933536
5.1703135 ,Left ,61,7100376707801 ,48,250578046914 ,17,2320793912216
5.1927919 ,Left ,61,7272777728387 ,48,293099290773 ,17,1616952527957
5.216685 ,Left ,61,7627877024174 ,48,3180457455201 ,17,101419012361
5.2301828 ,Left ,61,7986795876739 ,48,3324385168537 ,17,0485432620593
5.2526948 ,Left ,61,8382946147709 ,48,3322696820604 ,16,9971503003719
5.2751243 ,Left ,61,8366571153354 ,48,3170225012559 ,16,9374588320374
5.2901029 ,Left ,61,8179207575529 ,48,2847230784748 ,16,8702816986219
5.312775 ,Left ,61,7530964544382 ,48,2331942015255 ,16,794773552611
5.3350266 ,Left ,61,7211526047098 ,48,1689782179255 ,16,719417924034
5.3500889 ,Left ,61,6611802081078 ,48,0981229915902 ,16,671989977926
5.3729121 ,Left ,61,6018520343488 ,48,0383559420998 ,16,6489187618747
5.3953646 ,Left ,61,458323681354 ,47,9875287186125 ,16,6446604864697
5.416671 ,Left ,61,2491479609872 ,47,9798162661512 ,16,6428132381064
5.4328608 ,Left ,61,115823159587 ,48,0467646215797 ,16,6484368890934
5.4554383 ,Left ,61,1480218663878 ,48,1676716012442 ,16,6531192412541
5.4765861 ,Left ,61,2720379935543 ,48,2939683716158 ,16,7108562411262
5.4921562 ,Left ,61,4725788875632 ,48,3170766388153 ,16,7707626012014
5.5168405 ,Left ,61,6307506139906 ,48,3011820108813 ,16,7950939441567
5.5366648 ,Left ,61,6102169860356 ,48,2826934182155 ,16,805713701808
5.5521386 ,Left ,61,5923117636288 ,48,2446379948484 ,16,8437085694872
5.5754412 ,Left ,61,6065942112275 ,48,1891415931666 ,16,8713643026312
5.5963883 ,Left ,61,6463824902638 ,48,1485424351144 ,16,8940383180329
5.6128775 ,Left ,61,6624930823208 ,48,1245093398422 ,16,9295714410329
5.6353869 ,Left ,61,6969040131943 ,48,0837820870395 ,16,9481005071845
5.6566048 ,Left ,61,7098548590411 ,48,0143699645882 ,16,9698077806778
5.6721833 ,Left ,61,6718070891647 ,47,9288971727436 ,16,978479240517
5.6952667 ,Left ,61,5976512199843 ,47,8066065606419 ,16,9676379443703
5.7178472 ,Left ,61,5399337476713 ,47,6560871412203 ,16,9618211846895
5.7321731 ,Left ,61,4459060111936 ,47,464157657599 ,16,9490817194904
5.7554016 ,Left ,61,263922443158 ,47,2819320177222 ,16,9524803733534
5.7783139 ,Left ,61,2781600948891 ,47,241878837476 ,16,9540296392847
5.7921985 ,Left ,61,3175968346673 ,47,4706197173564 ,16,9215943281991
5.8154292 ,Left ,61,4392717207177 ,47,7029327185314 ,16,9789581207495
5.836556 ,Left ,61,6225764498755 ,47,7612471963475 ,17,0575596063966
5.8527998 ,Left ,61,8085654522 ,47,7835845351784 ,17,1201729563447
5.8753924 ,Left ,61,8363669227605 ,47,830184120133 ,17,1673215274905
5.8966429 ,Left ,61,7915969422151 ,47,845660001083 ,17,2194343088294
5.9127486 ,Left ,61,7853465288569 ,47,8568298740977 ,17,2478878522643
5.935404 ,Left ,61,8761229295696 ,47,8794989200725 ,17,2762415203268
5.9567899 ,Left ,61,9531985015416 ,47,8965967606959 ,17,3326319319805
5.9728447 ,Left ,61,9553647587362 ,47,912939358435 ,17,4042603160333
5.9953943 ,Left ,61,9470193670335 ,47,9314512471927 ,17,4918918525744
6.0165888 ,Left ,61,935247415763 ,47,9293705123095 ,17,5597102232197
6.0328281 ,Left ,61,9833743187443 ,47,9067030296456 ,17,6089835948106
6.0382272 ,Left ,62,0133716720918 ,47,8982127347892 ,17,6525337535882
6.0609898 ,Left ,62,01435288966 ,47,8973682059302 ,17,6864817076145
6.0834394 ,Left ,62,009020141663 ,47,900863751168 ,17,7145018205855
6.0985107 ,Left ,62,0109329664845 ,47,9014278710878 ,17,7390903419776
6.1209024 ,Left ,62,0279992582949 ,47,8957103521418 ,17,7552250967725
6.1429587 ,Left ,62,0405933953664 ,47,8900674480342 ,17,7716056920065
6.1579797 ,Left ,62,0530456624421 ,47,8749808687887 ,17,7937312012507
6.1804313 ,Left ,62,060235953884 ,47,8540220687389 ,17,8202990276275
6.2031948 ,Left ,62,0732261319026 ,47,8337752517423 ,17,8475004910894
6.2180435 ,Left ,62,0847947075717 ,47,8218962293611 ,17,8797948993036
6.240519 ,Left ,62,1016922086894 ,47,8104215666186 ,17,9149922417294
6.2628973 ,Left ,62,1298676816817 ,47,7915518013577 ,17,9565018755823
6.278092 ,Left ,62,1557385067421 ,47,7740830957603 ,18,0023510870597
6.300693 ,Left ,62,166010328424 ,47,7649927082507 ,18,0469400687528
6.3232531 ,Left ,62,1732554908283 ,47,7631861355844 ,18,0901776689369
6.3383983 ,Left ,62,1824153854562 ,47,7579593064891 ,18,1269784227251
6.3609602 ,Left ,62,1802410868855 ,47,7570555480647 ,18,1606324295863
6.3834814 ,Left ,62,1572719221303 ,47,7619779851545 ,18,1943800129091
6.398221 ,Left ,62,1329872265542 ,47,7793225888871 ,18,2254690596091
6.4208901 ,Left ,62,1280679830027 ,47,8037447440649 ,18,2492590817119
6.4432299 ,Left ,62,1277436478833 ,47,81951288103 ,18,2755151519626
6.4581968 ,Left ,62,1188797088679 ,47,832809855792 ,18,3031746297778
6.4808242 ,Left ,62,0957742284101 ,47,8493638642481 ,18,3291087249022
6.5033758 ,Left ,62,0914622016004 ,47,856397890003 ,18,3472632032012
6.5182375 ,Left ,62,0958425290284 ,47,847497107939 ,18,361459168353
6.5406179 ,Left ,62,0922787177056 ,47,8312358338563 ,18,3704880677079
6.5631297 ,Left ,62,0814144055449 ,47,8173096375551 ,18,3741576865042
6.5780843 ,Left ,62,0752610954529 ,47,7879156476982 ,18,3717898121767
6.6006613 ,Left ,62,0636785991567 ,47,7520001871928 ,18,3651134368765
6.6230443 ,Left ,62,0612174831787 ,47,7188139654982 ,18,3546552158064
6.6381773 ,Left ,62,0721066642956 ,47,6841561199376 ,18,3384439181987
6.6609125 ,Left ,62,0634975264132 ,47,6306978216099 ,18,3220694142225
6.6833762 ,Left ,62,033935826717 ,47,5674974354921 ,18,3100540507152
6.6982959 ,Left ,62,0202518754856 ,47,5081906155906 ,18,2980017109547
6.7212013 ,Left ,61,9928675962614 ,47,4306583421526 ,18,2942182865289
6.7435341 ,Left ,61,949073133378 ,47,3235017195023 ,18,2813666167715
6.7597271 ,Left ,61,8354286175103 ,47,2236302157074 ,18,2807970841711
6.7807807 ,Left ,61,7344422170482 ,47,1640614258416 ,18,2982473763157
6.8033878 ,Left ,61,6667979369844 ,47,132252791388 ,18,3012896880059
6.8196715 ,Left ,61,62520126405 ,47,1932124147498 ,18,2636338955565
6.841076 ,Left ,61,5823963695947 ,47,3620786190002 ,18,2536043086671
6.8635598 ,Left ,61,6800807643144 ,47,4645704436129 ,18,2728598276627
6.8797152 ,Left ,61,8102177859485 ,47,5209595554276 ,18,2928301401831
6.9004624 ,Left ,61,9093497701808 ,47,580691804587 ,18,2682174885999
6.9230325 ,Left ,61,8772465600905 ,47,634090264175 ,18,2098286137863
6.9396305 ,Left ,61,8559897796047 ,47,7022911707144 ,18,1523526446374
6.9605799 ,Left ,61,877080121585 ,47,7678898705412 ,18,0582989907747
6.9785007 ,Left ,61,9477278693123 ,47,8104980617715 ,17,9715492626084
6.9997511 ,Left ,62,001164878656 ,47,8131629104475 ,17,8962093372556
7.0207056 ,Left ,61,9986840534666 ,47,7567711009902 ,17,8219539690989
7.0432037 ,Left ,61,9702489283124 ,47,6537099472018 ,17,7603216961587
7.05966 ,Left ,61,9562711217332 ,47,5229957722104 ,17,7134298754614
7.0807891 ,Left ,61,9433048122676 ,47,3973082248452 ,17,6822959698877
7.1031888 ,Left ,61,870970209958 ,47,3208539167672 ,17,6591412306974
7.1196423 ,Left ,61,7622386025084 ,47,3022338264698 ,17,611313987871
7.1406407 ,Left ,61,7199628994296 ,47,3055090405999 ,17,6057434042208
7.1633878 ,Left ,61,6924780412158 ,47,426649727893 ,17,5875450335017
7.1812792 ,Left ,61,7463733155525 ,47,6000441161408 ,17,5929643844954
7.2008244 ,Left ,61,8841883218316 ,47,6927809870694 ,17,6061571423873
7.2236201 ,Left ,62,0036399604402 ,47,7472531453144 ,17,6012368872993
7.2414531 ,Left ,61,94684734174 ,47,7791360285362 ,17,5827650674571
7.2613041 ,Left ,61,863739430754 ,47,8001173591772 ,17,5772406779873
7.2834859 ,Left ,61,8283090253421 ,47,8021688887705 ,17,540294821482
7.3014892 ,Left ,61,8455276708539 ,47,7704024326915 ,17,5149124171312
7.3209091 ,Left ,61,8192141811242 ,47,7006049628557 ,17,520361423906
7.3430834 ,Left ,61,6957774334427 ,47,5717580159991 ,17,5253665594276
7.3609919 ,Left ,61,5292446277255 ,47,3676175704631 ,17,5069689941204
7.3807093 ,Left ,61,5702639592459 ,47,2325247303899 ,17,5153796820555
7.4031422 ,Left ,61,6122238309785 ,47,3779908181096 ,17,4378260403036
7.4209993 ,Left ,61,6814328613625 ,47,5808646711131 ,17,3995838283786
7.4408518 ,Left ,61,8169475677503 ,47,6886313235631 ,17,416303124223
7.4631656 ,Left ,61,9154100045304 ,47,765516531058 ,17,435979529638
7.4810829 ,Left ,61,867446566106 ,47,8591199615906 ,17,4387038082072
7.500677 ,Left ,61,7809687762314 ,47,9175321637749 ,17,4465506674186
7.5231672 ,Left ,61,7345367114695 ,47,9489719505811 ,17,4401725907464
7.5411512 ,Left ,61,7201362893316 ,47,9345058532369 ,17,4503754066152
7.5606233 ,Left ,61,6657905902747 ,47,8707521957487 ,17,4714593999113
7.583337 ,Left ,61,5562790430818 ,47,7965217062095 ,17,4972828043971
7.6013071 ,Left ,61,4134969717189 ,47,7160799079313 ,17,5079419304092
7.6207505 ,Left ,61,217748827124 ,47,5683727932377 ,17,513573682065
7.6432962 ,Left ,61,2485260856492 ,47,4459425534853 ,17,560479425534
7.6612883 ,Left ,61,2350710141192 ,47,5661991424808 ,17,510803138653
7.6805729 ,Left ,61,2848193391799 ,47,7663525587079 ,17,4775331714796
7.7028941 ,Left ,61,4363182682539 ,47,8581663821424 ,17,5067765263973
7.7208857 ,Left ,61,620142110991 ,47,8764902948925 ,17,5319040433705
7.7420308 ,Left ,61,6206522679502 ,47,859303042216 ,17,556001568243
7.762965 ,Left ,61,6016155278875 ,47,8490241189706 ,17,5800404487994
7.7811757 ,Left ,61,621526169414 ,47,8210987928896 ,17,5764491193771
7.801939 ,Left ,61,7094461119811 ,47,8129962769142 ,17,5670619443012
7.8189981 ,Left ,61,7873637359645 ,47,7994564944733 ,17,555950926932
7.8413303 ,Left ,61,8314176499975 ,47,7760915069845 ,17,5455230107633
7.8619818 ,Left ,61,855953059092 ,47,7432497492725 ,17,5305121973778
7.8787327 ,Left ,61,8921514858447 ,47,7054758662578 ,17,501923736814
7.9002902 ,Left ,61,9400381094928 ,47,6843604574693 ,17,4649318844998
7.9214224 ,Left ,61,9734945828367 ,47,687773975962 ,17,4135574390608
7.9376841 ,Left ,61,9916590638754 ,47,7066984110432 ,17,3551958113178
7.9601445 ,Left ,62,0042180311863 ,47,7382912703559 ,17,292006965368
7.9810501 ,Left ,62,0207049870308 ,47,7780353401617 ,17,2200608376045
7.9975675 ,Left ,62,0277636023376 ,47,8279571414034 ,17,1499206081098
8.0199467 ,Left ,62,0271415709389 ,47,8772970451146 ,17,0806911958961
8.0411238 ,Left ,62,0141704839794 ,47,9266642719362 ,17,0119068370372
8.057612 ,Left ,62,0082215785123 ,47,9698229225436 ,16,9369355095669
8.0800004 ,Left ,62,0034009085205 ,48,0032697626631 ,16,853947018038
8.1024901 ,Left ,61,9851854657851 ,48,0240836073115 ,16,7805845842718
8.1175939 ,Left ,61,9456277054585 ,48,0320029475168 ,16,7215694065673
8.1400186 ,Left ,61,905457983532 ,48,0228668583053 ,16,6763189322557
8.1630821 ,Left ,61,8394804657562 ,47,998943696872 ,16,6395691361057
8.1771795 ,Left ,61,7728405889764 ,47,9726139285514 ,16,6031714244307
8.2003873 ,Left ,61,7082056057805 ,47,9349210527529 ,16,5745968407294
8.2228048 ,Left ,61,567841275007 ,47,8634934764455 ,16,541509624009
8.2438977 ,Left ,61,4182621020625 ,47,772449708549 ,16,546291941157
8.2602202 ,Left ,61,3370856382777 ,47,7477999283822 ,16,5505870993234
8.2829319 ,Left ,61,3222822888873 ,47,8582672568306 ,16,5259581044085
8.3037796 ,Left ,61,4223399285197 ,47,9621500221293 ,16,5497233105624
8.3201932 ,Left ,61,5810191650266 ,47,9968272828396 ,16,6007109183137
8.3426926 ,Left ,61,755333946759 ,47,990193342354 ,16,6315350406072
8.3637307 ,Left ,61,8013753296097 ,47,960420597843 ,16,6540198363593
8.3803793 ,Left ,61,7938980901032 ,47,9146523517209 ,16,6952731599229
8.4027732 ,Left ,61,7815161191137 ,47,854459446518 ,16,7198247992845
8.4241246 ,Left ,61,8239775198606 ,47,813259754107 ,16,7459107964062
8.4403046 ,Left ,61,8923818084968 ,47,7838468827798 ,16,7861314151811
8.462885 ,Left ,61,9117455821087 ,47,7460611130135 ,16,8251382602698
8.4770623 ,Left ,61,8932602872673 ,47,7107278116844 ,16,8674027675501
8.5000626 ,Left ,61,8497006488138 ,47,6782221340017 ,16,9101310971477
8.522604 ,Left ,61,7862766219181 ,47,6265057096575 ,16,942176387485
8.5434297 ,Left ,61,6762265764996 ,47,5620135630719 ,16,9661888986901
8.5601544 ,Left ,61,5800039428361 ,47,4852864469755 ,16,9763026850235
8.5827065 ,Left ,61,4178512526662 ,47,378621423345 ,16,9732175793146
8.6035813 ,Left ,61,3644702515787 ,47,2815297529922 ,16,9886094201708
8.6201851 ,Left ,61,371900183523 ,47,3642471342675 ,16,9666034591631
8.6425339 ,Left ,61,3815929136534 ,47,6444586476635 ,16,9530117014417
8.6635776 ,Left ,61,4275337413667 ,47,8300549742491 ,17,0166474088023
8.6804554 ,Left ,61,5610323053422 ,47,8660333909725 ,17,0975100589507
8.7027783 ,Left ,61,7407735637622 ,47,8724100383189 ,17,1440463544732
8.7240925 ,Left ,61,7464549320138 ,47,8684978706478 ,17,1798849411973
8.7403391 ,Left ,61,6969609532479 ,47,8678799906885 ,17,2253172825758
8.7626113 ,Left ,61,7146008057559 ,47,8775667183682 ,17,250064190322
8.7836294 ,Left ,61,793588017556 ,47,8802924895328 ,17,2704938146366
8.8002956 ,Left ,61,8806649350674 ,47,8751335351436 ,17,3023563851149
8.8226161 ,Left ,61,899003294931 ,47,878924885971 ,17,3407694665481
8.8437756 ,Left ,61,89495171926 ,47,8773498073212 ,17,3782964815872
8.8602878 ,Left ,61,9188191302333 ,47,8713554636108 ,17,40860443858
8.8827769 ,Left ,61,9696070894356 ,47,8719656679574 ,17,4399033535418
8.9037126 ,Left ,61,9839864786541 ,47,8686050779956 ,17,4600625376993
8.9202319 ,Left ,62,0204355675984 ,47,8732413438203 ,17,4801041033646
8.9428415 ,Left ,62,0533465627272 ,47,8722966127633 ,17,5021319913692
8.9637466 ,Left ,62,0638030911326 ,47,8607267535917 ,17,530837065911
8.9802768 ,Left ,62,068544030382 ,47,8585382898167 ,17,5620354628595
9.002792 ,Left ,62,067422373807 ,47,8657614180037 ,17,6035194053922
9.0252528 ,Left ,62,0734586804049 ,47,8745836481977 ,17,6466329835241
9.0396693 ,Left ,62,0885486123361 ,47,8839763626712 ,17,6980611087893
9.062754 ,Left ,62,0950135834155 ,47,8921214667852 ,17,7591041027761
9.0855837 ,Left ,62,0919021851757 ,47,8937822413307 ,17,833248231274
9.1003349 ,Left ,62,0956844517156 ,47,8882216720838 ,17,9139609232593
9.1228081 ,Left ,62,1119654015038 ,47,8791085341149 ,17,9891678862586
9.1453307 ,Left ,62,1258220230052 ,47,8729842236145 ,18,0555688345735
9.1603381 ,Left ,62,1336025077571 ,47,8705642272874 ,18,11671148918
9.1828204 ,Left ,62,1429716465745 ,47,8691621717548 ,18,1669310457307
9.2054221 ,Left ,62,1409088392964 ,47,8612120894884 ,18,2114733407432
9.2196718 ,Left ,62,1419262591305 ,47,857516857166 ,18,2512917985451
9.242848 ,Left ,62,1489859294048 ,47,8523187330017 ,18,2919914708632
9.2654223 ,Left ,62,1457351601467 ,47,8435869832095 ,18,3276784165431
9.279657 ,Left ,62,149347764498 ,47,8393122997957 ,18,3600931875875
9.3028739 ,Left ,62,1545674561059 ,47,8353487605355 ,18,3901487221705
9.3254808 ,Left ,62,1752491121236 ,47,8265241729909 ,18,417490063525
9.3397121 ,Left ,62,1954391777772 ,47,8143202407171 ,18,4425079231489
9.3628372 ,Left ,62,2086759693974 ,47,7901005386991 ,18,4612522379344
9.3852834 ,Left ,62,2156632650017 ,47,7650395338455 ,18,4738525563782
9.3997252 ,Left ,62,2258290764575 ,47,7404185501357 ,18,4855537677197
9.4227581 ,Left ,62,2263449136457 ,47,7352487547405 ,18,4905562999344
9.4453991 ,Left ,62,2254806027198 ,47,7377771426918 ,18,4919667455248
9.4597211 ,Left ,62,2372932747685 ,47,743683238848 ,18,4942281394298
9.4828795 ,Left ,62,2530137148036 ,47,7613971389811 ,18,4919862100236
9.505338 ,Left ,62,2624998854875 ,47,7813323440832 ,18,4882516715745
9.5260997 ,Left ,62,2692772988614 ,47,7980845894108 ,18,4784713963308
9.5426406 ,Left ,62,2578458144863 ,47,8049931537367 ,18,4635495561485
9.5654613 ,Left ,62,2425726763222 ,47,8102425988867 ,18,4468800439437
9.5862846 ,Left ,62,2366343927609 ,47,8177280008883 ,18,4232224623197
9.6027705 ,Left ,62,2326468127993 ,47,8194703870547 ,18,3973301720539
9.625339 ,Left ,62,2174138937015 ,47,8131295119354 ,18,3787549155589
9.6463701 ,Left ,62,2110144605649 ,47,7898866970974 ,18,3683371053556
9.6624262 ,Left ,62,1938577145056 ,47,7513079003442 ,18,3534298262902
9.6852526 ,Left ,62,162760248739 ,47,700686685581 ,18,3310500876403
9.7064488 ,Left ,62,118785224701 ,47,6401343542406 ,18,3008503370983
9.722631 ,Left ,62,0459012957249 ,47,562107511006 ,18,2815645126699
9.7450901 ,Left ,61,983875873193 ,47,493190578972 ,18,2653565119778
9.7661207 ,Left ,61,8271906893442 ,47,4024570921446 ,18,22923476471
9.7820216 ,Left ,61,7100496357338 ,47,3266151434884 ,18,2412753936046
9.8053542 ,Left ,61,6382690179728 ,47,3266499022166 ,18,2216986784983
9.826358 ,Left ,61,662841943788 ,47,4748460638591 ,18,1961710950177
9.8421741 ,Left ,61,7944864590452 ,47,602520623233 ,18,2116176060682
9.8652953 ,Left ,61,9707259264726 ,47,6437903766619 ,18,2596521077477
9.8863574 ,Left ,62,1040412648519 ,47,6541717239618 ,18,2579677463389
9.9019079 ,Left ,62,081300039443 ,47,6690436623376 ,18,2360077829423
9.9252517 ,Left ,62,0132580711281 ,47,6699614487011 ,18,2077567788872
9.9477447 ,Left ,61,9767562901467 ,47,6610006811149 ,18,1378679426655
9.9621199 ,Left ,61,9882820809201 ,47,6576377434241 ,18,0610773064796
9.9853585 ,Left ,62,0119787768421 ,47,642707514586 ,17,9753107874826
10.007812 ,Left ,61,9897923994443 ,47,6065616131983 ,17,8901002769784
10.022147 ,Left ,61,9111617473312 ,47,5340374922376 ,17,8390212665523
10.0454603 ,Left ,61,847434530077 ,47,4125110327267 ,17,8225219620936
10.0678776 ,Left ,61,8124880215548 ,47,2788782274023 ,17,8251659186853
10.0886313 ,Left ,61,7218895880663 ,47,160795072687 ,17,8212281690195
10.1050353 ,Left ,61,7119058767891 ,47,1469087387868 ,17,8226179374141
10.1277946 ,Left ,61,7224838485432 ,47,2896323481361 ,17,7894881443551
10.1489341 ,Left ,61,7522110905141 ,47,4582413092639 ,17,7805332293787
10.1653136 ,Left ,61,7959241624584 ,47,5400789892835 ,17,7611362009827
10.1877538 ,Left ,61,8834607793759 ,47,5856575540038 ,17,7438641970188
10.2086421 ,Left ,61,8482316386608 ,47,6141246939671 ,17,7196434977061
10.2253004 ,Left ,61,744890178637 ,47,6135055211095 ,17,6994177356659
10.2477312 ,Left ,61,6923079231124 ,47,5924080502985 ,17,686158542129
10.2618845 ,Left ,61,6824401920262 ,47,5235569129531 ,17,6815441253425
10.2850704 ,Left ,61,6397911417619 ,47,3947968460423 ,17,6626427455627
10.3075976 ,Left ,61,5450655762156 ,47,2731002004071 ,17,6663628776011
10.3286256 ,Left ,61,5157900830246 ,47,3197765641421 ,17,6340027888091
10.3452069 ,Left ,61,5213096251666 ,47,5255869562075 ,17,5888310190156
10.3677851 ,Left ,61,6010330545713 ,47,6561415655194 ,17,598770487255
10.3887942 ,Left ,61,7582153859365 ,47,7093056942152 ,17,6303724816837
10.4052284 ,Left ,61,827630636741 ,47,7745290398972 ,17,6281654789554
10.4277347 ,Left ,61,7475908770148 ,47,8359225288099 ,17,6213615336163
10.4485844 ,Left ,61,6851812023381 ,47,8873322105786 ,17,6271486895481
10.4652915 ,Left ,61,6739200046773 ,47,9139045796772 ,17,6157720121792
10.487698 ,Left ,61,6630162241661 ,47,9141662764982 ,17,6083115608645
10.5086835 ,Left ,61,6274570463722 ,47,8618461581988 ,17,6143723921309
10.5253668 ,Left ,61,566737607654 ,47,7806729270218 ,17,6288172823232
10.5478658 ,Left ,61,5198009790782 ,47,7099131727142 ,17,6512191595719
10.5690888 ,Left ,61,4639279494998 ,47,6245860432947 ,17,6518821795149
10.5850649 ,Left ,61,361130769225 ,47,5605960547299 ,17,639200145471
10.6075969 ,Left ,61,2837971248929 ,47,5596515182835 ,17,655579404528
10.6287646 ,Left ,61,2046961572992 ,47,6598327632693 ,17,6395817854582
10.6450838 ,Left ,61,1731482374389 ,47,8541229469869 ,17,6425533979796
10.6677809 ,Left ,61,3029964807914 ,47,9824003655161 ,17,6750813788789
10.6890285 ,Left ,61,4643332863568 ,48,0260926159182 ,17,7064724467075
10.7046816 ,Left ,61,5464800491428 ,48,062428234825 ,17,7083333307138
10.7279097 ,Left ,61,5102791513329 ,48,0689822156315 ,17,707541409465
10.7490152 ,Left ,61,5310704964053 ,48,091540247533 ,17,7020661017097
10.7646464 ,Left ,61,5947999975383 ,48,1343134365966 ,17,6645862658567
10.7878609 ,Left ,61,6477884272493 ,48,2071402939464 ,17,6176842811017
10.8088529 ,Left ,61,7225384561192 ,48,274687096672 ,17,5634315077493
10.8253744 ,Left ,61,7818832361776 ,48,3240837106256 ,17,4939436134576
10.8479176 ,Left ,61,8085400243554 ,48,3622293226306 ,17,4085351788043
10.8690735 ,Left ,61,8131241133285 ,48,3915079426058 ,17,3137007286778
10.8854417 ,Left ,61,8126949581062 ,48,4180686260165 ,17,2157305462072
10.9079526 ,Left ,61,8106246183993 ,48,4473578878468 ,17,1245850302604
10.930247 ,Left ,61,8067401830857 ,48,4534871286063 ,17,0461157261548
10.9452707 ,Left ,61,7936145774194 ,48,4380533767565 ,16,9689746664568
10.9678306 ,Left ,61,7727455078164 ,48,3949942676132 ,16,9056698948077
10.9901889 ,Left ,61,757023191307 ,48,3318595176536 ,16,8555803165722
11.0054483 ,Left ,61,7241344274478 ,48,2633316906389 ,16,8095320429751
11.0279126 ,Left ,61,6661580788187 ,48,1980062550645 ,16,7746966151029
11.0502651 ,Left ,61,5904546980702 ,48,1220837876598 ,16,7497993674357
11.0647346 ,Left ,61,5161325442594 ,48,0511267007707 ,16,7354751448115
11.0877278 ,Left ,61,3622938360827 ,47,9810455041592 ,16,70756487416
11.1101766 ,Left ,61,2484893542733 ,47,920833254461 ,16,725292783453
11.1311299 ,Left ,61,2660484888173 ,47,9117996219493 ,16,7162947969031
11.1478082 ,Left ,61,3393560309708 ,48,0028614849683 ,16,7168551570855
11.1703734 ,Left ,61,4959289432693 ,48,024026247572 ,16,767746344528
11.1915561 ,Left ,61,6415734740496 ,48,0080678828238 ,16,8030606633431
11.2077622 ,Left ,61,6587239674839 ,47,9768541149699 ,16,836251740199
11.2303339 ,Left ,61,6409656789188 ,47,939631052752 ,16,8710790439756
11.2510529 ,Left ,61,6035085003644 ,47,905628782553 ,16,8990817988222
11.2678067 ,Left ,61,6259146026147 ,47,9018351697629 ,16,9266543081382
11.2902798 ,Left ,61,6736964226726 ,47,9014376797652 ,16,96746788418
11.3111732 ,Left ,61,7030837046019 ,47,8649623666481 ,17,0173008075463
11.3276326 ,Left ,61,6783135500621 ,47,8055879033914 ,17,0577956037622
11.3504055 ,Left ,61,6283953304416 ,47,7364938495466 ,17,0736565690091
11.3712996 ,Left ,61,5818832787756 ,47,633023010765 ,17,0816527070035
11.387747 ,Left ,61,5400492347179 ,47,4934925443249 ,17,1055786426691
11.4103457 ,Left ,61,4786027862775 ,47,3463532680448 ,17,1324450479245
11.4312875 ,Left ,61,2933132921244 ,47,2104547926108 ,17,1040190224314
11.4478599 ,Left ,61,2932564305781 ,47,1653941268604 ,17,0992670761034
11.470328 ,Left ,61,3042837820662 ,47,3634900771407 ,17,0343912373637
11.4912059 ,Left ,61,3702943527458 ,47,5983264307439 ,17,0526515840271
11.5076999 ,Left ,61,5276604340331 ,47,6975271351037 ,17,1266699450399
11.5302925 ,Left ,61,6450720637774 ,47,7247276607964 ,17,1919252824616
11.551469 ,Left ,61,6869882432859 ,47,7520440238976 ,17,2306746549171
11.5679042 ,Left ,61,6773348241249 ,47,7830093081015 ,17,2564853524262
11.5906184 ,Left ,61,6602267418116 ,47,8060132528531 ,17,2670918031821
11.6120363 ,Left ,61,7052735506925 ,47,8414220153068 ,17,2649118618164
11.6281767 ,Left ,61,7581540066875 ,47,8626069404189 ,17,2673658299449
11.6504626 ,Left ,61,7786793201632 ,47,889790744962 ,17,2812732369972
11.6718014 ,Left ,61,7821805694515 ,47,9311514389169 ,17,3031071755042
11.6880225 ,Left ,61,7992115454331 ,47,9536029748117 ,17,3280932816839
11.7105709 ,Left ,61,8114620746858 ,47,9663505154677 ,17,3536477191607
11.7317518 ,Left ,61,8400760562196 ,47,9763003848804 ,17,3850335030887
11.747768 ,Left ,61,8424471168863 ,47,9938597969178 ,17,4080200185882
11.7702322 ,Left ,61,8566210611071 ,48,0109252032203 ,17,4327075269338
11.7914736 ,Left ,61,8729075150439 ,48,0222642155015 ,17,4553447427533
11.7981725 ,Left ,61,8672030795193 ,48,0177753151986 ,17,4801375194555
11.8131175 ,Left ,61,8761086543971 ,48,0123703316874 ,17,5088477600364
11.8355691 ,Left ,61,8926445886978 ,48,0027070657768 ,17,535544732473
11.8583628 ,Left ,61,9057965591785 ,47,9868210752905 ,17,5649479856609
11.8731493 ,Left ,61,9235358851667 ,47,9685493393248 ,17,598383006305
11.8958714 ,Left ,61,930283682774 ,47,9444024527659 ,17,6444729283324
11.9182837 ,Left ,61,941576782157 ,47,9319862841403 ,17,6975308849016
11.9333777 ,Left ,61,9494361617115 ,47,9256776254939 ,17,7561102550344
11.9557951 ,Left ,61,9525312440125 ,47,9201086033388 ,17,8219805586927
11.9782363 ,Left ,61,9627256800086 ,47,9082844196995 ,17,891578389909
11.9934118 ,Left ,61,9564226285362 ,47,8962704291334 ,17,9625749373934
12.0159074 ,Left ,61,9602889135735 ,47,8824194161841 ,18,0286211792528
12.0383222 ,Left ,61,9503762879386 ,47,8703112889882 ,18,093988282009
12.0531708 ,Left ,61,947371876849 ,47,8674103566825 ,18,1570199745661
12.0757684 ,Left ,61,9308335944805 ,47,8656676093199 ,18,2200160088982
12.0980753 ,Left ,61,9286295422996 ,47,863997347573 ,18,2854274924857
12.1131731 ,Left ,61,9234013665065 ,47,8633327780764 ,18,3518353045401
12.1359476 ,Left ,61,9127189377742 ,47,8545172448823 ,18,4173754455848
12.1580113 ,Left ,61,9084573020059 ,47,8397847989638 ,18,4804410844885
12.1730536 ,Left ,61,9052779551271 ,47,8219760684646 ,18,5388734013059
12.1955566 ,Left ,61,8997788452439 ,47,8065795051073 ,18,5893059281045
12.2181189 ,Left ,61,8805301037659 ,47,784888484187 ,18,6304233548891
12.2329801 ,Left ,61,8538603276719 ,47,7731571932393 ,18,658377015352
12.2555346 ,Left ,61,8506921480738 ,47,7687869554206 ,18,6746643705377
12.2783435 ,Left ,61,855800280119 ,47,7543021898398 ,18,6829187423956
12.293283 ,Left ,61,8561192404683 ,47,7192144836623 ,18,6838636379324
12.3157938 ,Left ,61,8572320933232 ,47,6754129892943 ,18,674283723231
12.3383951 ,Left ,61,8531634417561 ,47,6353470699189 ,18,6425676123352
12.3533895 ,Left ,61,8119259675249 ,47,5746664885029 ,18,5918046212695
12.3760547 ,Left ,61,760546533389 ,47,5163943632765 ,18,5567302170525
12.3981791 ,Left ,61,6288773475136 ,47,4424579609923 ,18,513651078206
12.414894 ,Left ,61,4638513747171 ,47,3496588069914 ,18,5045719924891
12.4360659 ,Left ,61,3847908027263 ,47,3372795765751 ,18,4752858996839
12.4580904 ,Left ,61,3646799297116 ,47,4797541792124 ,18,4354230996795
12.4743966 ,Left ,61,4102342379322 ,47,5752914101262 ,18,4488168835381
12.4955088 ,Left ,61,5489981742654 ,47,6006920340039 ,18,4804116249362
12.5181004 ,Left ,61,6255242847021 ,47,6369369402773 ,18,4817867007251
12.5346435 ,Left ,61,6162286639802 ,47,6847769213365 ,18,458894831926
12.5557943 ,Left ,61,611542267066 ,47,7284087496911 ,18,4029179309213
12.5782374 ,Left ,61,6385869955877 ,47,7747484188594 ,18,3196812014171
12.5946091 ,Left ,61,6641678223233 ,47,8372376132112 ,18,2295717545839
12.6158101 ,Left ,61,7158998846848 ,47,8776131394344 ,18,1288975396959
12.6379056 ,Left ,61,7281594854027 ,47,8604632641823 ,18,0463036745178
12.6559647 ,Left ,61,7042754376128 ,47,801374787402 ,17,9748613665208
12.6755478 ,Left ,61,6605004204202 ,47,6927928508994 ,17,9091256051019
12.6980744 ,Left ,61,6330965265542 ,47,5455388318556 ,17,8639358357422
12.7146873 ,Left ,61,6059932043629 ,47,3886880667931 ,17,8359131949153
12.7359315 ,Left ,61,5315450385722 ,47,2362219926728 ,17,791231226395
12.7582788 ,Left ,61,5527240113497 ,47,2068095838579 ,17,799988002807
12.7746688 ,Left ,61,5800403713586 ,47,3739405890064 ,17,7626604114061
12.7956599 ,Left ,61,6429452851314 ,47,5571463909604 ,17,7584377735776
12.818347 ,Left ,61,7590642811312 ,47,6530911248621 ,17,7614728113832
12.836197 ,Left ,61,7918943180936 ,47,7157804993463 ,17,7468940186545
12.855985 ,Left ,61,7266888982124 ,47,7567137324191 ,17,7311886032715
12.8783168 ,Left ,61,6404036313292 ,47,7563062829762 ,17,6967467390855
12.8960849 ,Left ,61,6216139768284 ,47,729352992102 ,17,6512294764235
12.9154697 ,Left ,61,6181574374771 ,47,6638340548751 ,17,6291189317505
12.9379389 ,Left ,61,5144648552673 ,47,5091623995586 ,17,6205810609548
12.9558579 ,Left ,61,3748603496308 ,47,283141207965 ,17,6098946066823
12.9758154 ,Left ,61,4199362005453 ,47,1904173783088 ,17,6138064471369
12.9982626 ,Left ,61,4499253151598 ,47,3946113985068 ,17,5505312264395
13.0162773 ,Left ,61,5312120378666 ,47,5981983318559 ,17,5494068524436
13.0359737 ,Left ,61,6574022073435 ,47,7046306332634 ,17,5814618324374
13.0583088 ,Left ,61,6813321677774 ,47,8131187382197 ,17,602545589313
13.0762577 ,Left ,61,5994748424679 ,47,9177640718947 ,17,6146356069973
13.0958428 ,Left ,61,5112406024759 ,47,9738213605331 ,17,6142496370769
13.117982 ,Left ,61,4689345601492 ,47,9994482030354 ,17,6112905232387
13.1360202 ,Left ,61,4346774443991 ,47,9574706570289 ,17,6203526668248
13.1555106 ,Left ,61,3853660016793 ,47,8754838534337 ,17,6312869041191
13.1782395 ,Left ,61,2898570276735 ,47,8044295274249 ,17,6593559172494
13.1960741 ,Left ,61,1645033735459 ,47,7026051150168 ,17,6622986014642
13.2155274 ,Left ,61,0936822808405 ,47,5644540218692 ,17,664909390075
13.2381243 ,Left ,61,0892598558988 ,47,5468985868811 ,17,6559068903174
13.2560761 ,Left ,60,9983159698046 ,47,7570561468998 ,17,6102904178959
13.2756059 ,Left ,61,044642796642 ,47,926427477521 ,17,6470340054595
13.2983066 ,Left ,61,2589807166128 ,47,9687976490289 ,17,7122907454341
13.315993 ,Left ,61,3892891946335 ,47,9725453078073 ,17,7365114781673
13.3356393 ,Left ,61,3624519414455 ,47,9786011220488 ,17,7455994620413
13.3580947 ,Left ,61,3523295494121 ,48,0035137007842 ,17,7413789773988
13.3761723 ,Left ,61,3948922210062 ,48,0643818126549 ,17,7033783057138
13.3970848 ,Left ,61,4741665332975 ,48,1409904275979 ,17,6644227978496
13.4137176 ,Left ,61,5588299091861 ,48,2072978174317 ,17,6185337531407
13.4362025 ,Left ,61,5980320812049 ,48,2614095720243 ,17,5624946808117
13.4570813 ,Left ,61,6197667991911 ,48,3128637481118 ,17,4863829366979
13.4735189 ,Left ,61,6410224136077 ,48,3515912246477 ,17,4060043703513
13.4954512 ,Left ,61,6684850928862 ,48,3853281693096 ,17,322698011885
13.5179171 ,Left ,61,6801736826842 ,48,4059865739166 ,17,2439906410338
13.5321502 ,Left ,61,6892723533823 ,48,4098140130688 ,17,1555247767415
13.555432 ,Left ,61,6886466532529 ,48,4100447338131 ,17,0749586387903
13.5777147 ,Left ,61,660916786018 ,48,4028219188399 ,16,9991214897719
13.591945 ,Left ,61,6387765340578 ,48,3798421166858 ,16,9359339295463
13.6153506 ,Left ,61,6257454047992 ,48,3467503983023 ,16,8834071605637
13.6377771 ,Left ,61,5927288578181 ,48,3038964266383 ,16,8317307620152
13.6520241 ,Left ,61,5239328457256 ,48,2496600331822 ,16,7971257037706
13.6753982 ,Left ,61,4534763489579 ,48,1965237584216 ,16,7734538820684
13.6979127 ,Left ,61,2496385773651 ,48,1156881582514 ,16,7456538777428
13.7188483 ,Left ,61,1423815938693 ,48,0149789787231 ,16,7961333413285
13.7353474 ,Left ,61,1179264316352 ,48,0408532969597 ,16,7798874283894
13.7576556 ,Left ,61,1399103929121 ,48,2063322672955 ,16,7715253044279
13.7794412 ,Left ,61,2826602438874 ,48,2582179137431 ,16,8270369805232
13.7957774 ,Left ,61,4302193587701 ,48,2286198640519 ,16,8755734452841
13.8243644 ,Left ,61,4782004629412 ,48,1955183919113 ,16,916807178222
13.8394577 ,Left ,61,4545629921654 ,48,1580168635595 ,16,9729719561895
13.8557527 ,Left ,61,4276511567314 ,48,1336806198966 ,17,0146977388881
13.8781621 ,Left ,61,4665197643136 ,48,140847633244 ,17,0442404781201
13.8920479 ,Left ,61,5362426606954 ,48,128487828927 ,17,0936908795496
13.91543 ,Left ,61,5788546693413 ,48,084267149691 ,17,1499355814607
13.9378298 ,Left ,61,5657204146225 ,48,0175951010016 ,17,1861774627946
13.9589686 ,Left ,61,5309199846335 ,47,9320295749126 ,17,2014448804782
13.9752997 ,Left ,61,4953316602273 ,47,8108551581891 ,17,2065637316041
13.9979329 ,Left ,61,5191634917836 ,47,6702857944772 ,17,2047806624641
14.0185723 ,Left ,61,4282362339438 ,47,4926693714249 ,17,1696424391151
14.0352802 ,Left ,61,4168542798375 ,47,4082840441134 ,17,1714943409903
14.0576349 ,Left ,61,3421125684425 ,47,528219842536 ,17,1136933254899
14.0787633 ,Left ,61,3141186334785 ,47,7138552311752 ,17,1153447088438
14.0951635 ,Left ,61,4713821884543 ,47,7697713335011 ,17,1914014241833
14.1178245 ,Left ,61,7285140343362 ,47,7842800962507 ,17,2640638491616
14.1388463 ,Left ,61,8797596557642 ,47,7997917161771 ,17,311807920487
14.1553244 ,Left ,61,8598488831176 ,47,80226969244 ,17,3462272279653
14.1779879 ,Left ,61,8208780837056 ,47,800172790228 ,17,3747984455644
14.1990188 ,Left ,61,847291035617 ,47,820909667251 ,17,3830544605126
14.2155992 ,Left ,61,913436289308 ,47,8808713025692 ,17,3990768154883
14.2378032 ,Left ,61,9488279602491 ,47,9431732090556 ,17,4225012781723
14.2587424 ,Left ,61,9839843941233 ,47,9776541023661 ,17,4590498475166
14.2751645 ,Left ,61,9902559329894 ,47,991516429156 ,17,4913568091217
14.2978349 ,Left ,61,9871824058205 ,47,9871988043182 ,17,5176262803587
14.3192058 ,Left ,62,0086396403704 ,47,9752318892437 ,17,5363299235897
14.3354391 ,Left ,62,012486082307 ,47,9677099603751 ,17,5536180087731
14.3579187 ,Left ,62,0217129414901 ,47,962314773488 ,17,5702439519552
14.3786595 ,Left ,62,0185027309119 ,47,9617185351282 ,17,5926094269001
14.3952857 ,Left ,62,0364769394052 ,47,9590588011541 ,17,6174324840744
14.4176928 ,Left ,62,0424906907739 ,47,9397416644777 ,17,6485385196078
14.438624 ,Left ,62,0349251017659 ,47,9112294506472 ,17,6862036687834
14.4553845 ,Left ,62,0482863119072 ,47,8874175082507 ,17,7270303506988
14.4777599 ,Left ,62,0494732786865 ,47,8554433311485 ,17,7712688994973
14.4991285 ,Left ,62,0737354970139 ,47,828711920347 ,17,813870947101
14.5153178 ,Left ,62,0717103645583 ,47,8070413637563 ,17,8612503884113
14.5377553 ,Left ,62,0796796746768 ,47,7958785401588 ,17,914383841338
14.5602868 ,Left ,62,0845571638084 ,47,7802171882027 ,17,9760587473439
14.5754384 ,Left ,62,085018804768 ,47,7740769885647 ,18,0399914733767
14.5978329 ,Left ,62,0886515178439 ,47,7714655933295 ,18,1075991941862
14.6203488 ,Left ,62,0759433441018 ,47,7675690451011 ,18,1646495814883
14.635353 ,Left ,62,0704016143494 ,47,7736676859579 ,18,220377964024
14.6610119 ,Left ,62,0720757097254 ,47,7852073447386 ,18,2698310277858
14.6742239 ,Left ,62,0698981003377 ,47,7943111968458 ,18,3087102824673
14.6938779 ,Left ,62,0378273489144 ,47,7903099498224 ,18,3562429664202
14.7164741 ,Left ,62,1751915732381 ,47,8847799515615 ,18,3861777381554
14.7316554 ,Left ,62,0565041256536 ,47,9200879126258 ,18,4299609013157
14.7537886 ,Left ,62,2741919363073 ,47,9277996827858 ,18,4236282134974
14.7764108 ,Left ,62,0654281105483 ,47,939731380581 ,18,4797815809459
14.7915327 ,Left ,62,2564170875897 ,47,9124684664101 ,18,474795590713
14.814133 ,Left ,62,1680135530799 ,47,9435789325895 ,18,5046684767016
14.8364108 ,Left ,62,1591241202298 ,47,8893179676273 ,18,5179004652559
14.8515969 ,Left ,62,0645924542548 ,47,8054805182652 ,18,5341705379675
14.8740135 ,Left ,62,0617072585152 ,47,810469570625 ,18,5447561684969
14.8964894 ,Left ,62,0654327816152 ,47,7989291169114 ,18,5482183326329
14.9116253 ,Left ,62,0635554907099 ,47,7846952276755 ,18,5435743097786
14.9341304 ,Left ,62,0626715632017 ,47,7712083663753 ,18,5305247255697
14.9566684 ,Left ,62,0633273658873 ,47,7563862878631 ,18,5186649633085
14.9731763 ,Left ,62,0313800584277 ,47,7439922743223 ,18,5004025688426
14.993944 ,Left ,61,9655858025533 ,47,6668443953273 ,18,4686555951529
15.0163726 ,Left ,61,9438752635677 ,47,6059150508662 ,18,449937696669
15.0327737 ,Left ,61,9326307623909 ,47,6041632798984 ,18,4376802253157
15.0540306 ,Left ,61,9267039811029 ,47,5578488118715 ,18,4120288500073
15.0763183 ,Left ,61,9044545551018 ,47,4954796097455 ,18,3812420132647
15.0927057 ,Left ,61,8369294212751 ,47,4129162256201 ,18,3545867314589
15.113972 ,Left ,61,7601813106356 ,47,3286444783997 ,18,334328602385
15.1364201 ,Left ,61,5923730729888 ,47,1983493685127 ,18,3533990043761
15.1529087 ,Left ,61,3799961059028 ,47,0096538580019 ,18,3769848700752
15.173745 ,Left ,61,3844133871147 ,46,9590104996956 ,18,4145806231245
15.196143 ,Left ,61,4169300291588 ,47,1390485482768 ,18,3692846525515
15.2128102 ,Left ,61,4519660845471 ,47,4065865155 ,18,35389172562
15.2343062 ,Left ,61,5018032134481 ,47,5358229754837 ,18,3909288937931
15.2568879 ,Left ,61,5983644713806 ,47,5649239895322 ,18,4287291715013
15.2731546 ,Left ,61,6723572135694 ,47,6097812928533 ,18,442862209044
15.2945703 ,Left ,61,6543568062422 ,47,6211491671515 ,18,415755096953
15.316814 ,Left ,61,6073493743795 ,47,6041883465247 ,18,3682210063383
15.3328299 ,Left ,61,5824857813582 ,47,6105518377855 ,18,3059286181366
15.3554501 ,Left ,61,6240637518989 ,47,6297159079016 ,18,212116295949
15.3763985 ,Left ,61,650563175784 ,47,5993483376083 ,18,1103483575186
15.3928212 ,Left ,61,6287517207322 ,47,5128792218132 ,18,0335292970993
15.4141375 ,Left ,61,5819466885418 ,47,3938447260022 ,17,9803980636553
15.4363852 ,Left ,61,5600587668436 ,47,2652886067808 ,17,9401704524986
15.4529275 ,Left ,61,5013268779132 ,47,1619314240127 ,17,8868633484322
15.4736436 ,Left ,61,406413734268 ,47,1240168799106 ,17,8598517131502
15.4961911 ,Left ,61,3982607471929 ,47,2431442929577 ,17,823660183601
15.5127233 ,Left ,61,462064853123 ,47,430411930958 ,17,7969092931818
15.5341127 ,Left ,61,5648894599658 ,47,5204920264065 ,17,7872899484651
15.5572152 ,Left ,61,6879811620862 ,47,547985801901 ,17,7740337585468
15.5804289 ,Left ,61,6646144727746 ,47,5496869222627 ,17,7486146666363
15.6015894 ,Left ,61,6032516658476 ,47,5423178768169 ,17,7396116205868
15.6172088 ,Left ,61,5475378985345 ,47,5221812423916 ,17,6997612648136
15.6403198 ,Left ,61,5386366958647 ,47,4923762885424 ,17,6642079488159
15.6626264 ,Left ,61,5314339122866 ,47,4274220281934 ,17,6573321390046
15.6768794 ,Left ,61,4709116424397 ,47,310863301469 ,17,6549861079332
15.700879 ,Left ,61,4342965344069 ,47,1793569430895 ,17,6861194545904
15.7232679 ,Left ,61,4774844585057 ,47,1862115898137 ,17,6852110794447
15.7375251 ,Left ,61,5183202579047 ,47,3529719258329 ,17,6548043597059
15.7604216 ,Left ,61,5554644280717 ,47,4647436282714 ,17,6699811711706
15.7829572 ,Left ,61,659720945128 ,47,5321234367332 ,17,706092813345
15.8041832 ,Left ,61,6890719690587 ,47,5932564496403 ,17,7230182805164
15.8204645 ,Left ,61,6355551331677 ,47,6602578326516 ,17,7600852475586
15.8432088 ,Left ,61,5921289677501 ,47,7455416311288 ,17,7906708187119
15.864198 ,Left ,61,5998881470643 ,47,8237127647936 ,17,8165652412237
15.8806166 ,Left ,61,6262458200312 ,47,8972599479051 ,17,8556017629039
15.9029719 ,Left ,61,6221370403197 ,47,9694830386174 ,17,8921776434347
15.9171711 ,Left ,61,599018502118 ,48,0357728654598 ,17,926334211319
15.9404764 ,Left ,61,5867470407986 ,48,0858036673037 ,17,9471642530545
15.9628971 ,Left ,61,5807637810972 ,48,1066132169298 ,17,9531318953808
15.9772695 ,Left ,61,5809059695418 ,48,0966237608884 ,17,947955568836
16.0005847 ,Left ,61,5680242620536 ,48,0508292094981 ,17,9382298170638
16.0231283 ,Left ,61,5241201963319 ,47,9941277783452 ,17,9145997562927
16.0441646 ,Left ,61,4706427822396 ,47,9298094081389 ,17,8778827536829
16.0603804 ,Left ,61,4075095617494 ,47,8677839103037 ,17,8332438307712
16.0829633 ,Left ,61,3142707510925 ,47,8066261938577 ,17,8173251845266
16.1043142 ,Left ,61,1004237692363 ,47,6254034855902 ,17,8061538046776
16.1205629 ,Left ,61,1233216521394 ,47,4733800188595 ,17,8596499024497
16.1428855 ,Left ,61,0992045890229 ,47,6312714497392 ,17,7757580606883
16.1642869 ,Left ,61,1075069656273 ,47,8859426753859 ,17,7565575135386
16.1804948 ,Left ,61,2772276977594 ,47,9715809073824 ,17,7961949415288
16.2029993 ,Left ,61,4874035794055 ,47,9645372215643 ,17,8379281492876
16.2241949 ,Left ,61,4990668661158 ,47,9573684306847 ,17,8723907927745
16.2398537 ,Left ,61,4693257538306 ,47,9570804030206 ,17,8905778924147
16.2628759 ,Left ,61,4534530163008 ,47,946319235233 ,17,883338482728
16.284279 ,Left ,61,5170097596711 ,47,9483960944152 ,17,8668192256569
16.3004079 ,Left ,61,6207472755057 ,47,9511532683025 ,17,8623791916251
16.3227433 ,Left ,61,6646543677068 ,47,9394759570071 ,17,8694168074989
16.345171 ,Left ,61,6626629082298 ,47,9304609323253 ,17,8770472655482
16.3601887 ,Left ,61,6803529675458 ,47,933895488248 ,17,8936926291511
16.3826478 ,Left ,61,706200775107 ,47,9395593045522 ,17,9034141214364
16.4037433 ,Left ,61,7647357779548 ,47,9438017032952 ,17,9257272367619
16.4201234 ,Left ,61,7871150764258 ,47,9517038825917 ,17,9352347358625
16.4424679 ,Left ,61,8108767269618 ,47,9558575034771 ,17,9407123747604
16.4635477 ,Left ,61,8272104791361 ,47,9628341333735 ,17,9399782545008
16.4801203 ,Left ,61,8478390139229 ,47,9787966935078 ,17,9276311569081
16.5025248 ,Left ,61,856404010503 ,47,9930290747644 ,17,9161450979872
16.5235997 ,Left ,61,8498713139273 ,48,0150651439485 ,17,8919327583282
16.5400193 ,Left ,61,8504210128501 ,48,0339795693505 ,17,8683716816583
16.5625565 ,Left ,61,8560048640462 ,48,0500898989054 ,17,8336878095811
16.5851735 ,Left ,61,8537089685647 ,48,0671093420019 ,17,7907886125127
16.599945 ,Left ,61,8459253599597 ,48,08899871612 ,17,7450970738989
16.6232094 ,Left ,61,8231387742097 ,48,1240761277083 ,17,6963265561903
16.6453323 ,Left ,61,8031979942656 ,48,1702968783413 ,17,639344572101
16.660335 ,Left ,61,7834178808533 ,48,2165041626252 ,17,5702258720675
16.6831477 ,Left ,61,7713663179006 ,48,2584523249747 ,17,4870444124154
16.7054543 ,Left ,61,752355183652 ,48,3010548813677 ,17,4071044889029
16.7197512 ,Left ,61,7375706497863 ,48,3394414180693 ,17,3250823061182
16.731159 ,Left ,61,8504210128501 ,48,0339795693505 ,17,8683716816583
16.7430299 ,Left ,61,7192877412546 ,48,3502953135923 ,17,2444765371041
16.7653106 ,Left ,61,6950926739018 ,48,3395792456202 ,17,1609629754499
16.7796521 ,Left ,61,7316036670347 ,48,367300444931 ,17,0796391027783
16.8028508 ,Left ,61,5402074815186 ,48,2562715104569 ,17,0150640395096
16.8252963 ,Left ,61,2938012861081 ,48,16472886309 ,16,9555279667303
16.8464873 ,Left ,61,2278751983335 ,48,1659776126212 ,16,902253810069
16.8628207 ,Left ,61,3835919451835 ,48,1966539638358 ,16,8239083736287
16.8852751 ,Left ,61,1754867683146 ,48,0347683216147 ,16,7505386547498
16.9066041 ,Left ,60,8514351395776 ,47,8455617483818 ,16,8107436663792
16.9229214 ,Left ,60,8995863755794 ,48,005895927174 ,16,8160255566135
16.9452924 ,Left ,61,2276905650139 ,48,2777374083754 ,16,8060193071959
16.9663417 ,Left ,61,2240273551937 ,48,2892134696404 ,16,8488290251024
16.9828305 ,Left ,61,2496718031679 ,48,2667352085061 ,16,9208922378928
17.0053289 ,Left ,61,4696696551125 ,48,2736153633295 ,16,9412651990657
17.0265948 ,Left ,61,493093389719 ,48,1610427117162 ,16,972572279282
17.0428583 ,Left ,61,2455133537586 ,48,0137100366316 ,17,0134997020039
17.0654067 ,Left ,61,208783757842 ,47,9086242346372 ,17,0222195084729
17.0801885 ,Left ,61,2643898364018 ,47,8558366672965 ,17,0396171703196
17.103156 ,Left ,61,2622072797937 ,47,7958219097653 ,17,0625920151334
17.1253563 ,Left ,61,2290175288696 ,47,7411882850306 ,17,082919264283
17.146272 ,Left ,61,1879651470671 ,47,6610525856163 ,17,0844246461355
17.1626729 ,Left ,61,1443785938635 ,47,5490791253742 ,17,0921837239729
17.1853696 ,Left ,61,0873565188229 ,47,4375099106347 ,17,097822873356
17.2064359 ,Left ,60,878628871513 ,47,299648942432 ,17,0813327242684
17.2227495 ,Left ,60,9736728790532 ,47,2620704589832 ,17,1123309694808
17.2454616 ,Left ,60,9848104512637 ,47,461164457137 ,17,0534124779418
17.2663781 ,Left ,61,032888194926 ,47,6971499050115 ,17,0710237614856
17.2828919 ,Left ,61,1404206614049 ,47,7676389824903 ,17,1289657925407
17.3054745 ,Left ,61,3138307713865 ,47,7831972989531 ,17,1742198543016
17.3262657 ,Left ,61,3410998011065 ,47,78597042721 ,17,19639195672
17.3420326 ,Left ,61,305833418953 ,47,7686182211377 ,17,2107765808221
17.3651804 ,Left ,61,304388087042 ,47,7507369401303 ,17,2038837494222
17.3861769 ,Left ,61,3662499691126 ,47,7304411011049 ,17,2006398568827
17.4026364 ,Left ,61,4286900425457 ,47,7164853482715 ,17,2105488918384
17.4252939 ,Left ,61,4420277268331 ,47,7167611522837 ,17,2196365140306
17.446202 ,Left ,61,4434479734511 ,47,7374357471935 ,17,2418109339967
17.4628396 ,Left ,61,4677660154056 ,47,7626304454839 ,17,2719475544033
17.4852555 ,Left ,61,5295686960122 ,47,7779537939591 ,17,310472043654
17.5063626 ,Left ,61,5308831111624 ,47,7758237528141 ,17,3427825546321
17.521958 ,Left ,61,5709891035349 ,47,7714848733522 ,17,3731265894711
17.5294907 ,Left ,61,5777420312714 ,47,7667317091539 ,17,403761281116
17.5504722 ,Left ,61,5881278966722 ,47,7549908651013 ,17,4335569535241
17.5730732 ,Left ,61,5923601447495 ,47,7476724856457 ,17,466994436604
17.5880844 ,Left ,61,6077340581309 ,47,7308052792067 ,17,5017428138713
17.6106306 ,Left ,61,6219117301892 ,47,7107817293322 ,17,5397940707137
17.6328646 ,Left ,61,6415164955516 ,47,6905955037474 ,17,5814746961217
17.6479825 ,Left ,61,6479352524053 ,47,6856634147904 ,17,6238395732618
17.6706514 ,Left ,61,6593516607604 ,47,6683832157072 ,17,6648184840917
17.6934136 ,Left ,61,6841428121017 ,47,6547401909592 ,17,7107043306198
17.7083983 ,Left ,61,7199758052397 ,47,6422806970188 ,17,7601697648924
17.7309441 ,Left ,61,7357387113083 ,47,641217362341 ,17,8130116030987
17.7533624 ,Left ,61,7470902310085 ,47,6449172273351 ,17,8670399992658
17.7683333 ,Left ,61,7583311554227 ,47,6445104402898 ,17,919304944622
17.7909056 ,Left ,61,7759040153884 ,47,6450395149149 ,17,9698576581941
17.8133068 ,Left ,61,7787775817443 ,47,6514212937035 ,18,0254269852137
17.8283389 ,Left ,61,7792252539459 ,47,670067046971 ,18,0782493708688
17.8508608 ,Left ,61,7772191894724 ,47,6853738700694 ,18,1248814247807
17.8733286 ,Left ,61,7840504096114 ,47,697154099127 ,18,1780961491294
17.8882988 ,Left ,61,7921284317632 ,47,7050433052476 ,18,2389352439427
17.9107935 ,Left ,61,783775425575 ,47,7005419332634 ,18,2906903906735
17.9334169 ,Left ,61,7672813882243 ,47,6992542523098 ,18,3418665013904
17.9483879 ,Left ,61,7597511756322 ,47,6976288719672 ,18,3925239265441
17.970891 ,Left ,61,7663320641416 ,47,6919327797965 ,18,4361653416737
17.9934298 ,Left ,61,7758033530916 ,47,6879906504136 ,18,4698514483847
18.008362 ,Left ,61,7834517118519 ,47,6851876310456 ,18,4929877521124
18.0305474 ,Left ,61,7857375641675 ,47,6743406337846 ,18,5037673984267
18.0530259 ,Left ,61,7848732639258 ,47,6622180928015 ,18,498843879846
18.0680036 ,Left ,61,78353267231 ,47,6520905959436 ,18,4842698487535
18.090875 ,Left ,61,7844802317207 ,47,6372726564701 ,18,4608230308607
18.1134236 ,Left ,61,7930995889177 ,47,6196159013417 ,18,4316816538314
18.1298057 ,Left ,61,809789970664 ,47,5955272903785 ,18,410011032413
18.1508796 ,Left ,61,824822776754 ,47,5734399083999 ,18,3864684784019
18.1732841 ,Left ,61,8206296871641 ,47,5397044364664 ,18,3690651103821
18.1895715 ,Left ,61,8265374514915 ,47,5023843262098 ,18,3503034016095
18.2108722 ,Left ,61,8232206220208 ,47,458933730072 ,18,3251135769642
18.2333247 ,Left ,61,7921785705261 ,47,4138526569347 ,18,3143112865946
18.2496799 ,Left ,61,7490436550679 ,47,3779120823186 ,18,3109098674509
18.2708506 ,Left ,61,6711030084768 ,47,3318737883421 ,18,3235558611976
18.2931825 ,Left ,61,5204234704528 ,47,2051844924854 ,18,3252984904718
18.309665 ,Left ,61,4780912467261 ,47,1499949675771 ,18,355145074168
18.3309539 ,Left ,61,3447964006159 ,47,2587908142839 ,18,3318401961976
18.3532308 ,Left ,61,3450072362788 ,47,4257040481824 ,18,3212848055548
18.3695969 ,Left ,61,4290479257595 ,47,5034279583296 ,18,3224599713764
18.3905777 ,Left ,61,5775713565034 ,47,5271056512012 ,18,3319622888171
18.4131219 ,Left ,61,667432246969 ,47,5763171420016 ,18,3229097624625
18.4294858 ,Left ,61,6048905803684 ,47,6030887675439 ,18,2705614861792
18.4507146 ,Left ,61,6115863780427 ,47,6393369280882 ,18,2092467427567
18.4732158 ,Left ,61,6404117437455 ,47,6813658254935 ,18,1222464906999
18.4914202 ,Left ,61,6465249913239 ,47,7380694243208 ,18,0415219670725
18.5108604 ,Left ,61,6650354738411 ,47,7743295387902 ,17,9612200811317
18.5334322 ,Left ,61,668000842184 ,47,760742515758 ,17,896703232061
18.5513067 ,Left ,61,6123270082267 ,47,6728575127528 ,17,8571907812642
18.570843 ,Left ,61,5681298648437 ,47,5334534858871 ,17,8485427455577
18.5933769 ,Left ,61,504317556568 ,47,3832362791254 ,17,8327485460232
18.6110772 ,Left ,61,3665464210215 ,47,2715977215861 ,17,8164930369708
18.6309048 ,Left ,61,3824010392973 ,47,2930433622045 ,17,8045852431095
18.6532321 ,Left ,61,3663751723753 ,47,4627344514283 ,17,780539642415
18.6711185 ,Left ,61,4407414302529 ,47,5861149500437 ,17,7738355746144
18.6906706 ,Left ,61,587004344353 ,47,6399927578811 ,17,7673231036568
18.7132633 ,Left ,61,6139696220623 ,47,6821502360212 ,17,7467883917788
18.7311174 ,Left ,61,5400273386936 ,47,7209997250745 ,17,74323597986
18.7505789 ,Left ,61,4544692738252 ,47,723228211205 ,17,7192778600421
18.7736933 ,Left ,61,4700324520917 ,47,7261631167374 ,17,6931917377882
18.7914946 ,Left ,61,4539615530195 ,47,7093742304191 ,17,6782832772504
18.8113258 ,Left ,61,3459469720994 ,47,5868941860869 ,17,634262462812
18.833784 ,Left ,61,3395898189991 ,47,4311177634132 ,17,6662570879777
18.8515258 ,Left ,61,3296835685517 ,47,49756052331 ,17,6023179416896
18.8706658 ,Left ,61,3825581782116 ,47,6973542181679 ,17,5719994883708
18.8933114 ,Left ,61,5071477290283 ,47,7876474424927 ,17,5936025949122
18.9110296 ,Left ,61,6069471438748 ,47,8429445580084 ,17,6039762888903
18.9312432 ,Left ,61,5485668565229 ,47,8933259882011 ,17,6239727450885
18.9530965 ,Left ,61,4643735227499 ,47,9405711894412 ,17,6326695893051
18.9715195 ,Left ,61,4244979214015 ,47,9619980633157 ,17,6121149719837
18.991196 ,Left ,61,4273127436526 ,47,9597034744702 ,17,5964317658115
19.0087558 ,Left ,61,3942821782469 ,47,9078728368592 ,17,586001656701
19.0315773 ,Left ,61,3125481011692 ,47,8299646079519 ,17,59641853212
19.0523444 ,Left ,61,2617918849622 ,47,760132919902 ,17,634518515751
19.0736572 ,Left ,61,1589014250422 ,47,6710597375753 ,17,6544516044352
19.0909196 ,Left ,61,0619982497042 ,47,5619847667531 ,17,6614762289015
19.1120096 ,Left ,61,0459906825765 ,47,4923656025874 ,17,6874148738638
19.1332766 ,Left ,61,0035897066911 ,47,6415398767418 ,17,6634197266954
19.1509954 ,Left ,61,1018289051818 ,47,8223924997161 ,17,6729578885413
19.1724063 ,Left ,61,2821345706806 ,47,9050377691206 ,17,7077068119504
19.1945424 ,Left ,61,4423272526826 ,47,942011275423 ,17,7161056524482
19.2103934 ,Left ,61,4180115438988 ,47,936958882195 ,17,7071059097118
19.2329262 ,Left ,61,4153066979988 ,47,9222862512197 ,17,6891001409817
19.2542008 ,Left ,61,46084335799 ,47,8797605724615 ,17,6400120738361
19.2703731 ,Left ,61,5578475397247 ,47,8402691445269 ,17,5862169546113
19.2929361 ,Left ,61,6437855147047 ,47,8022200089323 ,17,5531795857707
19.307158 ,Left ,61,7054375421811 ,47,7704005166462 ,17,530842825912
19.3313289 ,Left ,61,7560983942988 ,47,7404199875541 ,17,5091586145897
19.3528564 ,Left ,61,8262000215989 ,47,7041439083858 ,17,4904849754249
19.3753014 ,Left ,61,8964170961259 ,47,6585266173861 ,17,4772442748621
19.3902748 ,Left ,61,9625486636142 ,47,6122934284366 ,17,464615171046
19.4130547 ,Left ,62,0157378340311 ,47,5650998819086 ,17,4576105398683
19.4340225 ,Left ,62,0708862302459 ,47,5224107421714 ,17,459286400841
19.4502904 ,Left ,62,0868900984289 ,47,4797627050391 ,17,4679750781952
19.4729178 ,Left ,62,1237174526925 ,47,4497344061213 ,17,4775490208169
19.4942254 ,Left ,62,143603780201 ,47,4364948981605 ,17,4793655620417
19.5105726 ,Left ,62,1499298425843 ,47,4439394804797 ,17,4751754275302
19.5331226 ,Left ,62,1574248856722 ,47,4687444459219 ,17,4631011693734
19.5540091 ,Left ,62,1582516064735 ,47,5141489026595 ,17,4405325735954
19.5704136 ,Left ,62,162949535959 ,47,56060349388 ,17,410619304431
19.5931235 ,Left ,62,1670741179568 ,47,612180217525 ,17,3754723798678
19.6067664 ,Left ,62,1530034497363 ,47,6661222041745 ,17,3275000355354
19.6307772 ,Left ,62,1365230340241 ,47,7412042163067 ,17,2675862129084
19.6563247 ,Left ,62,1198307155393 ,47,8238839313292 ,17,1954695172122
19.6730946 ,Left ,62,0901735376192 ,47,9092301817383 ,17,1129248942242
19.6893139 ,Left ,62,0717454599944 ,48,0243546317318 ,17,0216814475537
19.7105897 ,Left ,61,9077439584562 ,48,1063349592871 ,16,9553446521404
19.7332032 ,Left ,61,8535817478931 ,48,2010698964633 ,16,8704309676716
19.7495829 ,Left ,61,9161545977401 ,48,1836358047926 ,16,7942706286049
19.7708867 ,Left ,61,8576786969591 ,48,2075514060053 ,16,7464500402397
19.7932475 ,Left ,61,7367922678058 ,48,1169866775867 ,16,6961484368517
19.8096831 ,Left ,61,8326661887865 ,48,0854367393545 ,16,6298697942646
19.83066 ,Left ,61,5718357030699 ,48,011830382374 ,16,6295867211039
19.8469037 ,Left ,61,5915186736024 ,48,0494638471978 ,16,6083079523123
19.8695531 ,Left ,61,4489019784812 ,47,9901746954442 ,16,5409617816861
19.8904605 ,Left ,61,2843455340697 ,47,8178095187173 ,16,5529806862188
19.9071955 ,Left ,61,3254473016996 ,47,7256298845279 ,16,5692468812661
19.9294249 ,Left ,61,438087062336 ,47,8172148322626 ,16,575117964068
19.9508068 ,Left ,61,5453829384719 ,47,866282389872 ,16,6069311464698
19.9671378 ,Left ,61,7694478707857 ,47,9003929314943 ,16,6221156728109
19.9896668 ,Left ,62,0379582413416 ,47,8591454493025 ,16,6351421896207
20.0105963 ,Left ,62,0354943454432 ,47,7948573928719 ,16,7050672238573
20.0271027 ,Left ,62,0259346539551 ,47,7945457429826 ,16,752105498638
20.0496421 ,Left ,62,0548355351084 ,47,7582191985662 ,16,8127457067593
20.0706534 ,Left ,62,1053701055479 ,47,7187484303805 ,16,8669848820781
20.0872738 ,Left ,62,1598489032621 ,47,6842790820409 ,16,9252254567572
20.1097506 ,Left ,62,1414194567689 ,47,6584659608129 ,16,9769540926228
20.1306656 ,Left ,62,0843554769532 ,47,6353688918298 ,17,0106247874934
20.1469414 ,Left ,62,0486766569852 ,47,6018328970374 ,17,033802731649
20.1696432 ,Left ,62,0442765765594 ,47,5637718030663 ,17,0437347297383
20.1907121 ,Left ,62,0286746509331 ,47,5137796560979 ,17,0487759140095
20.2072271 ,Left ,61,9870456438447 ,47,4533423383993 ,17,0544803537294
20.2300823 ,Left ,61,9152897769726 ,47,3833517919144 ,17,0583099764871
20.2514513 ,Left ,61,8699890066631 ,47,3252666392258 ,17,0478305334468
20.2672667 ,Left ,61,6406872934362 ,47,217480094392 ,17,0317368768762
20.2897758 ,Left ,61,6549341244817 ,47,1127349470222 ,17,1003268434529
20.3111434 ,Left ,61,6338875730478 ,47,2472309005762 ,17,0554365111517
20.3273034 ,Left ,61,6747346445053 ,47,504310589171 ,17,0597895116649
20.349808 ,Left ,61,7562740580517 ,47,6121398021595 ,17,103821322384
20.3710579 ,Left ,61,9471282909263 ,47,6442579509993 ,17,1298643576456
20.3873505 ,Left ,61,9709595358534 ,47,6628930814686 ,17,1466824875575
20.4093267 ,Left ,61,9023458086193 ,47,675677870375 ,17,1817083598754
20.4315855 ,Left ,61,8471268946011 ,47,6704738570474 ,17,1947752449689
20.4543287 ,Left ,61,8863223377907 ,47,6735197298866 ,17,1989414250028
20.469441 ,Left ,61,9886407293244 ,47,6905213233336 ,17,2021180842043
20.49177 ,Left ,62,0358898385124 ,47,7038909591773 ,17,2146772792218
20.5067292 ,Left ,62,0534730104431 ,47,7156967510609 ,17,2447355239201
20.5292816 ,Left ,62,047556990919 ,47,7150956545602 ,17,2714353927582
20.5530257 ,Left ,62,0858108874787 ,47,7143229825413 ,17,3068695146184
20.575594 ,Left ,62,1042060165234 ,47,7147025498117 ,17,3306319345178
20.589803 ,Left ,62,1444881717113 ,47,7205133122514 ,17,3530101517408
20.6129808 ,Left ,62,1471385447262 ,47,7415096651438 ,17,3842515372495
20.6356046 ,Left ,62,1463717158969 ,47,7687789318656 ,17,4171302378037
20.649772 ,Left ,62,1626133291565 ,47,7910425863946 ,17,447860587252
20.6729966 ,Left ,62,1726148985802 ,47,78456351611 ,17,481009335647
20.6953301 ,Left ,62,1742431115346 ,47,7716194741649 ,17,5194035584196
20.7096734 ,Left ,62,1684341166981 ,47,7497204153306 ,17,5616277870633
20.7328822 ,Left ,62,1468561814562 ,47,7297014804486 ,17,605209747801
20.7552664 ,Left ,62,1369309182863 ,47,7176237841817 ,17,6475037183306
20.7699123 ,Left ,62,1507263959279 ,47,7081624992324 ,17,698583721532
20.7929398 ,Left ,62,1702460797561 ,47,6899363868307 ,17,7558945060339
20.815481 ,Left ,62,1751815991351 ,47,6696958344349 ,17,8221960012684
20.836384 ,Left ,62,1721780432423 ,47,6480566168849 ,17,8924452647034
20.8521849 ,Left ,62,1744197597261 ,47,6251720554503 ,17,9690446726804
20.8752966 ,Left ,62,1891219838045 ,47,6197352201036 ,18,036279529247
20.8963115 ,Left ,62,1927677582101 ,47,6225849198248 ,18,1020243939943
20.9128502 ,Left ,62,1934212725228 ,47,6320266101375 ,18,1575978315615
20.9352952 ,Left ,62,1950765408566 ,47,638921726993 ,18,211658855697
20.9564065 ,Left ,62,19245300092 ,47,6445679876229 ,18,2577767212662
20.9728466 ,Left ,62,1787429238726 ,47,6539329237673 ,18,3014157605259
20.9953997 ,Left ,62,1735835605025 ,47,6549250439812 ,18,3410103858986
21.0165167 ,Left ,62,1663187542221 ,47,6475394260063 ,18,3795273903194
21.032959 ,Left ,62,1701105808277 ,47,6356992174613 ,18,4116760971685
21.0552272 ,Left ,62,1715779669939 ,47,6293639803339 ,18,4405236454649
21.0764596 ,Left ,62,1701004255809 ,47,6188379876766 ,18,466208382151
21.0927987 ,Left ,62,1820025766535 ,47,620012350899 ,18,4844750408233
21.1151761 ,Left ,62,1883776527901 ,47,6099934481223 ,18,4973527607157
21.1362183 ,Left ,62,2051136210742 ,47,6003666362888 ,18,5104880111942
21.1529342 ,Left ,62,2074481392915 ,47,5893761627859 ,18,521033078823
21.175511 ,Left ,62,199050075936 ,47,5777662259191 ,18,5258117446897
21.1962857 ,Left ,62,2058070924746 ,47,5673225070273 ,18,5276422121264
21.2128011 ,Left ,62,2212798784958 ,47,5609591326196 ,18,5244683092479
21.2355321 ,Left ,62,2246516469076 ,47,5562272610347 ,18,5192817646458
21.2564042 ,Left ,62,2188926906048 ,47,5542537437332 ,18,5106214420246
21.2730798 ,Left ,62,2145151072995 ,47,5500290389269 ,18,4982129961318
21.2953213 ,Left ,62,2156542497529 ,47,5362297065226 ,18,4832465170492
21.3160278 ,Left ,62,2096436716664 ,47,5179781356814 ,18,4622224624004
21.3326577 ,Left ,62,2009514623979 ,47,4948351084908 ,18,4386239171017
21.3557844 ,Left ,62,1980245856523 ,47,464474603429 ,18,4176252664219
21.3784866 ,Left ,62,1923940405992 ,47,4322671480975 ,18,398665573541
21.3932788 ,Left ,62,1784429330765 ,47,3815363859692 ,18,3742542129096
21.4154831 ,Left ,62,1662453050694 ,47,3169291036685 ,18,3440136568016
21.4380606 ,Left ,62,1302816675303 ,47,2376251310758 ,18,3234997642077
21.4531315 ,Left ,62,080094888135 ,47,1808990226474 ,18,3015638785884
21.4755984 ,Left ,62,0000442225488 ,47,1404774413718 ,18,2919224278569
21.4978522 ,Left ,61,8362797430823 ,47,0339060586819 ,18,3121193535208
21.5191348 ,Left ,61,8761281976763 ,46,9975874181472 ,18,3335899502884
21.5356114 ,Left ,61,812865385642 ,47,1630390843884 ,18,2978437383775
21.5580921 ,Left ,61,8494653506736 ,47,3265082212303 ,18,2974490695215
21.579006 ,Left ,61,9324287894613 ,47,4132393453122 ,18,3031388632331
21.595481 ,Left ,62,0464818250522 ,47,4723796661128 ,18,2733261336912
21.6179815 ,Left ,62,0151296988827 ,47,5259413964209 ,18,2272554822447
21.6389897 ,Left ,61,9722454273383 ,47,581113593607 ,18,1764631082454
21.655333 ,Left ,61,9370035029315 ,47,6262812367568 ,18,0920647443024
21.6778217 ,Left ,61,9366421628366 ,47,6701201457215 ,17,9973581934051
21.6921282 ,Left ,61,9550673171181 ,47,7123800760343 ,17,9002741754283
21.7153158 ,Left ,61,9315272527614 ,47,7219582875198 ,17,8167231061723
21.7377947 ,Left ,61,8870634769694 ,47,6626789938861 ,17,7564551939799
21.7587356 ,Left ,61,8675131500908 ,47,5666467860601 ,17,7158065115292
21.7753507 ,Left ,61,7887544230781 ,47,3225588678256 ,17,7043163865212
21.7976448 ,Left ,61,5992241503092 ,47,0957329063554 ,17,7025145789732
21.8188607 ,Left ,61,4063349267318 ,46,9393024147223 ,17,7455117148543
21.8353774 ,Left ,61,1888600323566 ,47,0494021777672 ,17,72560435085
21.8576626 ,Left ,61,3570596110511 ,47,341037829707 ,17,6942686880386
21.8788606 ,Left ,61,6608346874945 ,47,4700120444218 ,17,669797920628
21.8953347 ,Left ,61,6380332201569 ,47,4417216976762 ,17,6971506632319
21.9192266 ,Left ,61,520535871918 ,47,504749260543 ,17,7082668642439
21.9391391 ,Left ,61,6647742341374 ,47,5944625250657 ,17,666459296194
21.955377 ,Left ,61,6102858225706 ,47,5432562124507 ,17,6410486258902
21.9780927 ,Left ,61,3891987178173 ,47,4690138194637 ,17,6603926161752
21.998956 ,Left ,61,3759108088625 ,47,4700950292256 ,17,684222513743
22.0152696 ,Left ,61,4969909213847 ,47,3995009406233 ,17,6455843304705
22.0378379 ,Left ,61,3737134441788 ,47,2531162420751 ,17,6716826473579
22.0588711 ,Left ,61,2946997694862 ,47,3164337692472 ,17,640991529929
22.0746916 ,Left ,61,295007441841 ,47,5909428569163 ,17,6092972054064
22.0975931 ,Left ,61,4193891290601 ,47,7606931733481 ,17,6419933148875
22.1187876 ,Left ,61,5815459811147 ,47,8403439444406 ,17,6837921726764
22.1346461 ,Left ,61,6524887200976 ,47,9151048161458 ,17,6851561553443
22.1578715 ,Left ,61,5490687421425 ,47,9904926487843 ,17,6736311895746
22.1790594 ,Left ,61,4721533000788 ,48,0704567950184 ,17,6685054901481
22.1948005 ,Left ,61,4532369433561 ,48,132096177155 ,17,6592160930339
22.2178193 ,Left ,61,4542408227794 ,48,1467464910092 ,17,6573605619821
22.2389052 ,Left ,61,4121899434369 ,48,1012968427653 ,17,674672076469
22.2551006 ,Left ,61,3440957476974 ,48,0108935325889 ,17,6940121912939
22.2783476 ,Left ,61,2746779714225 ,47,895154818252 ,17,7328113273362
22.3006547 ,Left ,61,2049805371661 ,47,741019149839 ,17,7710094546502
22.3150146 ,Left ,61,1923106032462 ,47,6105894954009 ,17,7978047731917
22.3381611 ,Left ,61,1176717681371 ,47,6026964520525 ,17,7812551743089
22.3605985 ,Left ,61,0501123165852 ,47,7998890500092 ,17,7568842828802
22.3747443 ,Left ,61,1458937020481 ,47,9335578967389 ,17,7689276067644
22.397987 ,Left ,61,3214164555224 ,47,962925236333 ,17,8067844596789
22.4206329 ,Left ,61,4567425358515 ,47,9738192086845 ,17,8162666246544
22.4418361 ,Left ,61,437529317279 ,47,9678069178408 ,17,8140240230978
22.4578801 ,Left ,61,4757071081082 ,47,9648400567641 ,17,8146525006036
22.4805737 ,Left ,61,5584359479659 ,47,9712248890694 ,17,7825352806365
22.4948915 ,Left ,61,6325218901004 ,47,9951443574655 ,17,7502597126022
22.5181507 ,Left ,61,6860784242086 ,48,0557176570898 ,17,7025405325627
22.5404045 ,Left ,61,7316314411584 ,48,1241950581906 ,17,6431898411141
22.5546998 ,Left ,61,7889785593265 ,48,1907391023096 ,17,5773595815802
22.5779936 ,Left ,61,835967878311 ,48,2511956598814 ,17,5009619492661
22.6003293 ,Left ,61,8771513585971 ,48,2954400846317 ,17,4203829517852
22.6146879 ,Left ,61,9004997370065 ,48,3385476820588 ,17,3400124765685
22.6380446 ,Left ,61,9045736586624 ,48,3770727942275 ,17,2534434135522
22.6601517 ,Left ,61,892104885571 ,48,406449456325 ,17,161178075137
22.6745394 ,Left ,61,8912986364116 ,48,4321578160801 ,17,0779626682137
22.6976499 ,Left ,61,8809874428782 ,48,4471903682307 ,16,9983917300899
22.7203535 ,Left ,61,862808487623 ,48,4322594572864 ,16,9228666677535
22.7353636 ,Left ,61,8316538371567 ,48,3953027186133 ,16,8551754636208
22.7581096 ,Left ,61,7875564563398 ,48,3503055664735 ,16,7902555191339
22.7803931 ,Left ,61,7199701386388 ,48,2890580632915 ,16,741186442935
22.8016831 ,Left ,61,639445001692 ,48,2200239403772 ,16,712781297231
22.8179715 ,Left ,61,4925604753503 ,48,1351550782165 ,16,6926903519727
22.8403624 ,Left ,61,2131628683298 ,48,0085179736278 ,16,6652689276421
22.8612559 ,Left ,61,1415830063655 ,47,8507187667469 ,16,6998521082603
22.8771305 ,Left ,61,1536541008097 ,47,8843538120515 ,16,6682190865086
22.9002241 ,Left ,61,2670147063499 ,48,0498210793643 ,16,6887364930803
22.9213634 ,Left ,61,421862409349 ,48,1298689708412 ,16,7678133281278
22.9375916 ,Left ,61,5789849161211 ,48,1306649090844 ,16,8445834003062
22.9607696 ,Left ,61,572358094707 ,48,0886571183361 ,16,9332283463994
22.9833604 ,Left ,61,5439471794102 ,48,035253328362 ,17,0246300290873
22.9975882 ,Left ,61,5281730167587 ,47,9927309696761 ,17,0935930233739
23.0207406 ,Left ,61,6058249534265 ,47,9863132909275 ,17,1676654247655
23.0429388 ,Left ,61,7066854166327 ,47,9872915629178 ,17,2637825231138
23.0639738 ,Left ,61,7885944554031 ,47,9562891305323 ,17,3715782634844
23.080465 ,Left ,61,7957487202522 ,47,9115166297751 ,17,4677396352582
23.1016248 ,Left ,61,7780611751805 ,47,8757912185944 ,17,5261687620018
23.1171119 ,Left ,61,8212132933685 ,47,8437389722611 ,17,5546744664464
23.1404463 ,Left ,61,8688719107394 ,47,8056256138633 ,17,5455560122103
23.1613016 ,Left ,61,9038091086476 ,47,7632796684973 ,17,5199406776302
23.1777406 ,Left ,61,9137851150883 ,47,726547075881 ,17,4902723593472
23.2003997 ,Left ,61,9132644585495 ,47,7036702422425 ,17,4588330893897
23.2226909 ,Left ,61,9253077793181 ,47,6973206653004 ,17,4230781708002
23.2380843 ,Left ,61,9306990684604 ,47,6957364788947 ,17,3848518007986
23.2603733 ,Left ,61,9404060886862 ,47,6972437333296 ,17,3509610225361
23.2829115 ,Left ,61,9411804474197 ,47,6963768668477 ,17,3122673947947
23.2882305 ,Left ,61,9060104429293 ,47,6981963917666 ,17,2751959717782
23.3033599 ,Left ,61,8682537992294 ,47,6991873873905 ,17,2548814061568
23.3256931 ,Left ,61,801036348865 ,47,7027844942389 ,17,2535807934704
23.3482812 ,Left ,61,7074822178715 ,47,7026880345067 ,17,24363159927
23.36325 ,Left ,61,4490338972901 ,47,5522779086025 ,17,2422167052091
23.3857507 ,Left ,61,4627259478098 ,47,4198348857689 ,17,3220749667876
23.40859 ,Left ,61,4431659808088 ,47,5705008078753 ,17,2472989568076
23.4251505 ,Left ,61,5004817320359 ,47,8328258939257 ,17,239108878647
23.4463084 ,Left ,61,6215344890143 ,47,9305017122657 ,17,2788534965468
23.4686354 ,Left ,61,7838568531452 ,47,9480461074234 ,17,3010630355345
23.4909139 ,Left ,61,7914902263015 ,47,9393973926263 ,17,3157237207418
23.5058681 ,Left ,61,762795888028 ,47,9152593449769 ,17,3468864446396
23.5286254 ,Left ,61,7365432209185 ,47,886902610856 ,17,3505513873001
23.544845 ,Left ,61,7789135394675 ,47,8681915634035 ,17,3438132101296
23.5660487 ,Left ,61,8728364971759 ,47,8546116607827 ,17,3461049104828
23.5885483 ,Left ,61,9217436331904 ,47,8413880265462 ,17,366566098114
23.6036033 ,Left ,61,9298443908625 ,47,8277537835339 ,17,4038749927069
23.6260525 ,Left ,61,9098327723355 ,47,8192173380997 ,17,4476857125886
23.6484663 ,Left ,61,929678857553 ,47,7987120593331 ,17,4891864546421
23.6633559 ,Left ,61,9661211727384 ,47,7791454882789 ,17,520436872069
23.6862102 ,Left ,62,0067264469309 ,47,7709932916193 ,17,5531243879867
23.7081205 ,Left ,61,9892604311599 ,47,7656281454794 ,17,585484365892
23.7228773 ,Left ,61,9950293284437 ,47,765020132962 ,17,6169511679702
23.7458197 ,Left ,61,9935219647364 ,47,7517433947853 ,17,6561022228379
23.7681653 ,Left ,62,0061709049577 ,47,7378163132661 ,17,6927297000173
23.7830279 ,Left ,62,0255817843636 ,47,7298694349084 ,17,7264530945945
23.8057979 ,Left ,62,0348450207045 ,47,722188671929 ,17,7646058490471
23.8281895 ,Left ,62,0353246010155 ,47,718706018236 ,17,8050104251606
23.8444256 ,Left ,62,042634261983 ,47,7205411073276 ,17,8509663105189
23.8657697 ,Left ,62,0439957369505 ,47,7223072783798 ,17,8955423477942
23.8883846 ,Left ,62,0424547445389 ,47,7228842550144 ,17,9415314890048
23.9047088 ,Left ,62,0426901807022 ,47,7167634286823 ,17,9882383063248
23.9260207 ,Left ,62,0319623600693 ,47,7104714029526 ,18,0361726078621
23.9486073 ,Left ,62,0254746904231 ,47,7092657946222 ,18,0881346220299
23.9648392 ,Left ,62,0195641178078 ,47,7130606243988 ,18,1387733628498
23.985976 ,Left ,62,02034695273 ,47,704123298619 ,18,1861189084118
24.0084357 ,Left ,62,0060048391385 ,47,693114971366 ,18,2274581614367
24.024573 ,Left ,61,9960134670088 ,47,6888151598683 ,18,2692519718152
24.04571 ,Left ,61,9855108187343 ,47,6927349697772 ,18,3105261228171
24.0683148 ,Left ,61,9784999711146 ,47,6980911803372 ,18,3479790008839
24.0847082 ,Left ,61,9780371136309 ,47,6968270774622 ,18,3913912070665
24.1058368 ,Left ,61,9770292858032 ,47,6990488642376 ,18,433221455919
24.1283925 ,Left ,61,9766429358379 ,47,6977700332062 ,18,476531454021
24.1460202 ,Left ,61,9833455365254 ,47,6971505041708 ,18,5125800550585
24.1656156 ,Left ,61,9821499981354 ,47,7007324598668 ,18,5452447382818
24.1956953 ,Left ,61,9852500430137 ,47,7047698682936 ,18,5770452854043
24.2060618 ,Left ,61,9968190100589 ,47,7133310453528 ,18,6070364313592
24.2259895 ,Left ,62,0044175621346 ,47,7239636820307 ,18,6392482227286
24.2485079 ,Left ,62,0106008905498 ,47,7276376084238 ,18,6614686005826
24.2662641 ,Left ,62,0081167635057 ,47,7228152480008 ,18,675973678912
24.286085 ,Left ,62,0053768028641 ,47,7156054545744 ,18,6853376637233
24.3083543 ,Left ,62,0099500733086 ,47,7100008793915 ,18,6846005076911
24.3264641 ,Left ,62,0052190298856 ,47,6925006887305 ,18,6817775289467
24.34586 ,Left ,61,9904275312719 ,47,6725445613072 ,18,6711199585235
24.3714285 ,Left ,61,9948548001826 ,47,656264199907 ,18,6564635827107
24.3864549 ,Left ,61,9952480800825 ,47,6359552041325 ,18,6349085111716
24.4061129 ,Left ,61,995028209095 ,47,6144384164201 ,18,6107249080769
24.428549 ,Left ,62,0129103556075 ,47,5866707081197 ,18,5849561298892
24.4462715 ,Left ,61,9998157545864 ,47,5539252004798 ,18,5448958903718
24.4658398 ,Left ,61,9884093144292 ,47,5113158970957 ,18,5086912754298
24.488451 ,Left ,61,9666609297357 ,47,4649671345157 ,18,4791298635334
24.5062528 ,Left ,61,9348755599909 ,47,4229374828796 ,18,4674757345125
24.5263527 ,Left ,61,8801998630333 ,47,3753759137489 ,18,4582040429352
24.5480526 ,Left ,61,7272020024863 ,47,2104680393252 ,18,4435537837703
24.5659293 ,Left ,61,6919305097734 ,47,1030087429683 ,18,4593100030511
24.5861731 ,Left ,61,5885564519398 ,47,2319037296362 ,18,4071491841687
24.6088185 ,Left ,61,6125127119556 ,47,4328791385699 ,18,3956720744067
24.6265141 ,Left ,61,6866541972276 ,47,5367304071262 ,18,3960283633508
24.6461305 ,Left ,61,7966858989742 ,47,5800660757418 ,18,3924504765751
24.6684275 ,Left ,61,8569233917327 ,47,6513819722166 ,18,3888470556702
24.6862851 ,Left ,61,8409712051354 ,47,7222255717274 ,18,3341760106576
24.707269 ,Left ,61,8040510707053 ,47,7716369578885 ,18,2528603713986
24.7285661 ,Left ,61,8158028844724 ,47,8271200084845 ,18,1563604054356
24.7463159 ,Left ,61,8612429883176 ,47,8614010301161 ,18,0512127086992
24.7661435 ,Left ,61,8679201283545 ,47,8640484405355 ,17,954732704948
24.7883105 ,Left ,61,8030099597013 ,47,8150621805038 ,17,8782291816457
24.806321 ,Left ,61,7234821193383 ,47,6949839223818 ,17,8309670117496
24.8273132 ,Left ,61,6569025185758 ,47,4981406549191 ,17,7850296162888
24.8484451 ,Left ,61,6894720224005 ,47,3201319944514 ,17,8300885659884
24.8662613 ,Left ,61,704484942508 ,47,3788458485676 ,17,7840320074046
24.8873123 ,Left ,61,6995289462777 ,47,5586906547371 ,17,7599978889758
24.9084684 ,Left ,61,7407745551428 ,47,647012521738 ,17,7633850627024
24.9263626 ,Left ,61,8564969346661 ,47,6891207540823 ,17,7631745453348
24.9471999 ,Left ,61,8669397277711 ,47,7108748270752 ,17,7477270366708
24.9682046 ,Left ,61,768472630794 ,47,6974460091742 ,17,734405843097
24.9860817 ,Left ,61,684434391668 ,47,6800894234335 ,17,7138551099308
25.007184 ,Left ,61,6740512864582 ,47,6359381783402 ,17,7014924842992
25.0234088 ,Left ,61,6368605329335 ,47,5431148446199 ,17,6984947265709
25.0459203 ,Left ,61,4989227978854 ,47,4298215507557 ,17,6673544050791
25.0670286 ,Left ,61,4908287219772 ,47,4103115219645 ,17,6745451981893
25.0884103 ,Left ,61,5104865168565 ,47,6081465196102 ,17,6320429862012
25.1061753 ,Left ,61,6047480334166 ,47,8272951198599 ,17,6444388641344
25.1286374 ,Left ,61,7242482998067 ,47,9473545005396 ,17,6837767416122
25.1489769 ,Left ,61,8125958204581 ,48,0227858368925 ,17,698931313415
25.1654916 ,Left ,61,7196234769395 ,48,0807531820719 ,17,7074487328578
25.1879431 ,Left ,61,6268832130843 ,48,1518566855443 ,17,713215565133
25.2091477 ,Left ,61,5813692522554 ,48,195518869295 ,17,7011757588825
25.2253181 ,Left ,61,5704122667254 ,48,1748867257342 ,17,6980701380025
25.248081 ,Left ,61,5330102127526 ,48,0936806665937 ,17,705614797373
25.2693776 ,Left ,61,4565866153784 ,48,0047989994927 ,17,7237302352511
25.2853051 ,Left ,61,3592605528646 ,47,9096744134247 ,17,7539285610935
25.3077686 ,Left ,61,2244642059704 ,47,8080047005827 ,17,765745632256
25.3288649 ,Left ,61,1054593421457 ,47,7272737793059 ,17,8082626847846
25.3451154 ,Left ,61,0289751577911 ,47,7130316292903 ,17,8043340332363
25.3676875 ,Left ,61,0332905626312 ,47,8868500921538 ,17,7899312377199
25.3886144 ,Left ,61,176003800997 ,48,0204592575552 ,17,8111992428523
25.4047164 ,Left ,61,3665680492642 ,48,0687576346783 ,17,8495500163586
25.4279247 ,Left ,61,5036914643985 ,48,066575595569 ,17,8589759269157
25.4490497 ,Left ,61,4830640089829 ,48,0303436704992 ,17,8672148392841
25.4648083 ,Left ,61,5108097972204 ,47,9917046890854 ,17,8766837044359
25.4879407 ,Left ,61,5805500182018 ,47,9629960144389 ,17,8606905609448
25.5092222 ,Left ,61,6541941976555 ,47,9695650507931 ,17,8484838452759
25.5255267 ,Left ,61,7245769058906 ,47,9871156084024 ,17,8425851321898
25.5480893 ,Left ,61,7874973010834 ,47,9927332407279 ,17,8437779895609
25.5705155 ,Left ,61,8432874540315 ,47,9879738624635 ,17,8327184540314
25.5853777 ,Left ,61,8785118428247 ,47,9780564849991 ,17,8149003876585
25.6079974 ,Left ,61,9189744826523 ,47,9793767117029 ,17,7850263146259
25.6306347 ,Left ,61,9466749060427 ,48,0087702675869 ,17,7427735568975
25.6455125 ,Left ,61,9702518912432 ,48,0572910678791 ,17,6849882680499
25.6681064 ,Left ,61,9805801275073 ,48,1086822174371 ,17,6290532299356
25.6904973 ,Left ,61,9865236322056 ,48,1586964824915 ,17,5649615334719
25.7055373 ,Left ,61,9942838791945 ,48,2100136378027 ,17,4953239689925
25.7281116 ,Left ,61,9840701998355 ,48,259275087502 ,17,4169410209026
25.7492216 ,Left ,61,9584081988267 ,48,3103480488098 ,17,327291027233
25.765554 ,Left ,61,9217714671108 ,48,3654863517221 ,17,2391382417249
25.7881085 ,Left ,61,9150017095067 ,48,4129506424355 ,17,147278719754
25.8092123 ,Left ,61,906071499619 ,48,4384792290826 ,17,0586647069939
25.8254423 ,Left ,61,8814285556628 ,48,4520875650679 ,16,9750577864738
25.8481105 ,Left ,61,8330013411604 ,48,4424155099502 ,16,9008156965706
25.869177 ,Left ,61,7639259140519 ,48,4130586119343 ,16,8399481006395
25.8854216 ,Left ,61,697342269712 ,48,3703315948488 ,16,7970814223685
25.9080051 ,Left ,61,6172092117478 ,48,2892397086086 ,16,767862412611
25.9305072 ,Left ,61,4401379897208 ,48,1504352961249 ,16,7487888915947
25.9448516 ,Left ,61,285592749459 ,48,0108717814336 ,16,764795401435
25.9679657 ,Left ,61,2284863186999 ,48,0142206983152 ,16,7581393911496
25.9904821 ,Left ,61,1857807738226 ,48,1705884931303 ,16,7449591229691
26.0117221 ,Left ,61,3048045384828 ,48,265037515313 ,16,7882544646622
26.0281945 ,Left ,61,4932643116787 ,48,2545313445803 ,16,85977606407
26.0507425 ,Left ,61,6691336251711 ,48,2225417980549 ,16,895941223779
26.0649827 ,Left ,61,625409068617 ,48,1551339668062 ,16,9381637145369
26.0879811 ,Left ,61,5966312334591 ,48,1383604084663 ,16,9978513562824
26.1104382 ,Left ,61,6268742629822 ,48,1488546306523 ,17,0379040654681
26.1247834 ,Left ,61,7177465220036 ,48,1373780185122 ,17,0768077636158
26.1479976 ,Left ,61,8060646034037 ,48,1074731846216 ,17,134792071112
26.1703864 ,Left ,61,8346210869762 ,48,0621607549686 ,17,1954397941622
26.1915277 ,Left ,61,8115913699835 ,48,0380133749743 ,17,2402032172089
26.2081169 ,Left ,61,8046377365262 ,48,0163328774277 ,17,2734775810199
26.2304725 ,Left ,61,8226428160681 ,47,977208443554 ,17,2939005435551
26.2446792 ,Left ,61,8260860935192 ,47,932524667181 ,17,2990116730754
26.2678785 ,Left ,61,7778715120143 ,47,8706453492953 ,17,2995233733944
26.2905338 ,Left ,61,7471081501566 ,47,8100341819326 ,17,3115632320961
26.3117363 ,Left ,61,7100608960711 ,47,7417961873702 ,17,3180417790877
26.3275883 ,Left ,61,5264961610723 ,47,6034710068757 ,17,279708794722
26.350196 ,Left ,61,5346836294166 ,47,4611579714908 ,17,3277606112693
26.3715137 ,Left ,61,4861553317388 ,47,6002065157742 ,17,2735149183435
26.3880118 ,Left ,61,5067337569732 ,47,8615696285583 ,17,2643037944514
26.4104741 ,Left ,61,6031665957352 ,47,9829325516092 ,17,3138657325785
26.4315625 ,Left ,61,7585185185574 ,48,0049855663134 ,17,3457711112781
26.4480633 ,Left ,61,7775050498169 ,48,0348712019871 ,17,366723056832
26.4703171 ,Left ,61,7512404203703 ,48,0837991675819 ,17,4038063975906
26.4914424 ,Left ,61,7472972691378 ,48,1259455689832 ,17,4248309274094
26.5079244 ,Left ,61,7979861616636 ,48,1678025499579 ,17,4272288867208
26.5305116 ,Left ,61,8806256990972 ,48,2034169601791 ,17,4382919269625
26.5516428 ,Left ,61,8994891973096 ,48,2320183561838 ,17,4524304103844
26.5680473 ,Left ,61,8767346531695 ,48,2578337886654 ,17,4699525031403
26.5905092 ,Left ,61,8850740873274 ,48,2768070420121 ,17,492839888406
26.6115441 ,Left ,61,9122308185833 ,48,2851983753689 ,17,50799989819
26.6281043 ,Left ,61,9537551164838 ,48,3001159561768 ,17,5193712867404
26.6504796 ,Left ,61,952761474027 ,48,3196649637375 ,17,5322930674769
26.671819 ,Left ,61,9655682603336 ,48,3469329275628 ,17,551978565227
26.6881222 ,Left ,61,9640836027221 ,48,3551777533415 ,17,5689062977395
26.7103953 ,Left ,61,9840808781051 ,48,3522592046911 ,17,5922724316845
26.7314227 ,Left ,61,9982801945298 ,48,3438363385657 ,17,6138706192709
26.7477996 ,Left ,62,011908014271 ,48,3318540328894 ,17,6450098582607
26.7702072 ,Left ,62,0254950668745 ,48,318218650574 ,17,6797402154207
26.7913269 ,Left ,62,0256594561163 ,48,30642606823 ,17,7192231321474
26.8078941 ,Left ,62,0371977633962 ,48,2921017557019 ,17,7585352184432
26.8305435 ,Left ,62,0683443881284 ,48,2721388991143 ,17,7982529695881
26.8529312 ,Left ,62,0918181506231 ,48,2455133298344 ,17,8374611366591
26.8679915 ,Left ,62,1097343649187 ,48,2042645046348 ,17,8783701103013
26.8904079 ,Left ,62,1190832848176 ,48,1603923515995 ,17,9205156411947
26.9130928 ,Left ,62,1354693625394 ,48,1250321060988 ,17,9609474604193
26.9277412 ,Left ,62,1405187320951 ,48,1014583100415 ,18,0075207773126
26.9503096 ,Left ,62,1521629658551 ,48,0860940317628 ,18,0547306191539
26.9759434 ,Left ,62,1510488853944 ,48,0723388186567 ,18,1051610714936
26.988134 ,Left ,62,1436759653086 ,48,0590791418519 ,18,1574763219683
27.0029872 ,Left ,62,131113017396 ,48,0548559168766 ,18,2087951080778
27.0238513 ,Left ,62,1322930258599 ,48,0969974654046 ,18,2750610853487
27.0463601 ,Left ,62,038073406203 ,48,0364130833046 ,18,3376549571267
27.0622148 ,Left ,61,9508778717324 ,48,0742726578269 ,18,4013574719897
27.0841308 ,Left ,62,0107333649521 ,48,0343553654217 ,18,4473267025479
27.1064791 ,Left ,62,0206029048434 ,48,0774202069817 ,18,4980946330743
27.1221748 ,Left ,61,8997408605573 ,48,0320104755142 ,18,5752725846739
27.143734 ,Left ,62,0875341833443 ,48,0589519095007 ,18,5969606988168
27.1662987 ,Left ,62,0606498572495 ,48,0029868607827 ,18,6425466298879
27.1819457 ,Left ,62,0522385978564 ,48,0326213172553 ,18,6554030658978
27.2039429 ,Left ,62,0279904319172 ,47,9977741575147 ,18,6892019280924
27.2264064 ,Left ,62,0187982995139 ,47,9643167599422 ,18,7009636288978
27.2425623 ,Left ,62,0184334459308 ,47,9396085716539 ,18,7010525716818
27.2657117 ,Left ,62,0284449508642 ,47,916868251067 ,18,6980608577055
27.2868177 ,Left ,62,041567454761 ,47,8915157921276 ,18,6896318376764
27.3026776 ,Left ,62,1503910963272 ,47,8636513028508 ,18,6576028335397
27.3256768 ,Left ,62,2850076824248 ,47,899927971329 ,18,6381755454634
27.3464001 ,Left ,62,1103075723851 ,47,8238882404135 ,18,6639004640637
27.3635055 ,Left ,62,0837522039661 ,47,8086732973195 ,18,6726852984642
27.3853071 ,Left ,62,0757156978934 ,47,7999899754081 ,18,6595328936341
27.4063015 ,Left ,62,0722962492047 ,47,778850918703 ,18,6449375516541
27.4220429 ,Left ,62,0707410015509 ,47,7504823007568 ,18,6279023387361
27.4457323 ,Left ,62,0565421811651 ,47,7072126833819 ,18,608151747364
27.4669651 ,Left ,62,040033875166 ,47,6531713250143 ,18,5821634459418
27.4825545 ,Left ,61,9963466478548 ,47,6002350616217 ,18,556266212787
27.5054538 ,Left ,61,9317935784353 ,47,5539069613787 ,18,5376740282159
27.5264486 ,Left ,61,8526589359209 ,47,5072595189159 ,18,51897351036
27.5422605 ,Left ,61,6625086974039 ,47,4158734096112 ,18,4828767636928
27.5657219 ,Left ,61,5339871943981 ,47,3182475368745 ,18,4959363518304
27.5870068 ,Left ,61,4623832265494 ,47,3456528252636 ,18,4641308565265
27.6025999 ,Left ,61,4279695269252 ,47,5493198445728 ,18,423238128128
27.6257624 ,Left ,61,4824326441007 ,47,6919930580955 ,18,4220542222873
27.6470396 ,Left ,61,6120081271758 ,47,7513550909678 ,18,4528344451908
27.6622818 ,Left ,61,674045299339 ,47,8051671015696 ,18,4648210045997
27.6851534 ,Left ,61,6893707754866 ,47,8572850711312 ,18,4619131296998
27.7064466 ,Left ,61,6644035396182 ,47,875041049985 ,18,4191352726458
27.7221012 ,Left ,61,6823274939622 ,47,8795864965193 ,18,3509398921955
27.7453814 ,Left ,61,715590426399 ,47,9017745236161 ,18,2630903099806
27.7663226 ,Left ,61,7300356965745 ,47,9202357375265 ,18,1671241264006
27.7820836 ,Left ,61,7395081642505 ,47,9045034502865 ,18,0795720827167
27.8053974 ,Left ,61,7350514493634 ,47,8577206418256 ,17,9959175542842
27.8263888 ,Left ,61,708225057604 ,47,7670984036653 ,17,9357830963908
27.8421642 ,Left ,61,687471576745 ,47,6569229227872 ,17,9008954240634
27.8725999 ,Left ,61,6465548899153 ,47,5669023415621 ,17,8956536173271
27.893909 ,Left ,61,5271098648042 ,47,4786741552093 ,17,8637359685587
27.9097343 ,Left ,61,4370950841642 ,47,3715365520908 ,17,866635803303
27.932863 ,Left ,61,4180845513427 ,47,412129510588 ,17,845562745576
27.9554352 ,Left ,61,4742824785853 ,47,6056735034644 ,17,831975257814
27.9764677 ,Left ,61,5869726348913 ,47,724320453703 ,17,8487967419081
27.9931858 ,Left ,61,6838002885915 ,47,7841690989268 ,17,8632033559856
28.0153584 ,Left ,61,7165481284379 ,47,8288052799128 ,17,8690759289124
28.029751 ,Left ,61,6582931028343 ,47,8315825729368 ,17,8530878421823
28.0531042 ,Left ,61,6081933415887 ,47,8178400429997 ,17,8299930524237
28.0753625 ,Left ,61,6059496117941 ,47,8032477946973 ,17,7922252542995
28.0896762 ,Left ,61,5908460767614 ,47,7633712851677 ,17,7898221691493
28.1125852 ,Left ,61,5057602201056 ,47,6572554594261 ,17,787162230309
28.1366446 ,Left ,61,4439733804459 ,47,4956900802902 ,17,7953473928747
28.1563063 ,Left ,61,4812979426442 ,47,4830434130597 ,17,7798247346081
28.1729431 ,Left ,61,5274310059917 ,47,6881979767802 ,17,7430470987423
28.1952733 ,Left ,61,6186859277087 ,47,8277085396509 ,17,7557539182234
28.2163242 ,Left ,61,7149294311824 ,47,9037487971406 ,17,7674900561702
28.2330597 ,Left ,61,6780856833312 ,47,9631812089871 ,17,7807012194024
28.2552353 ,Left ,61,5831877366321 ,48,0317159273502 ,17,8077025079103
28.2762996 ,Left ,61,5091900988015 ,48,0735270299755 ,17,8097274007146
28.2927622 ,Left ,61,4831000016743 ,48,0646054454511 ,17,8189123601591
28.3154573 ,Left ,61,4676455598665 ,48,0063864221538 ,17,8383388849477
28.3295587 ,Left ,61,4073053036087 ,47,9279015750461 ,17,8525900047612
28.3527673 ,Left ,61,3024861263357 ,47,8515040333932 ,17,8796357177294
28.3752215 ,Left ,61,1390107581822 ,47,7725505385606 ,17,8755221185819
28.396955 ,Left ,61,0773284084002 ,47,6976631437279 ,17,9143577668838
28.4133585 ,Left ,61,0534439134671 ,47,6674360490707 ,17,9145387699625
28.4358723 ,Left ,61,0745885470181 ,47,8502539706591 ,17,9057517345145
28.4567079 ,Left ,61,2186966459441 ,47,9739984097219 ,17,9367665283774
28.4729333 ,Left ,61,3950383274019 ,48,0053608504353 ,17,9669473000842
28.4952185 ,Left ,61,5139152269131 ,48,016695938286 ,17,9761499820945
28.5162309 ,Left ,61,5234583302342 ,47,9804284360829 ,17,9724209715822
28.5328964 ,Left ,61,5641908255389 ,47,9346726746409 ,17,9664465106778
28.5551946 ,Left ,61,6395744946969 ,47,9078614737558 ,17,9377688141838
28.5763081 ,Left ,61,753370290945 ,47,9089465854781 ,17,9100631162352
28.592909 ,Left ,61,8431340073551 ,47,9149925075292 ,17,8848586379894
28.6153485 ,Left ,61,8715516933026 ,47,9206246740245 ,17,8572489381525
28.636756 ,Left ,61,8975023703103 ,47,9292972033967 ,17,8208748866147
28.6530023 ,Left ,61,9353681295087 ,47,9365771729382 ,17,7694009128428
28.6753799 ,Left ,61,9792081502096 ,47,9471782501677 ,17,702376678993
28.6966464 ,Left ,61,9970134927918 ,47,9668145049804 ,17,6241400812443
28.7130242 ,Left ,61,9894300144286 ,47,9911782777544 ,17,5447105310527
28.7353645 ,Left ,61,9848205652287 ,48,0244715018729 ,17,4614451128241
28.7564712 ,Left ,61,9735408962927 ,48,0657306518618 ,17,3758973635142
28.7729995 ,Left ,61,9587185208818 ,48,1044105469444 ,17,2889639687475
28.7952384 ,Left ,61,9336391689445 ,48,1390720039342 ,17,2043756338084
28.8163496 ,Left ,61,9028708400706 ,48,1586043228761 ,17,1236500404204
28.8329909 ,Left ,61,8558402029959 ,48,1648639926375 ,17,0453809218957
28.8553731 ,Left ,61,7801674950481 ,48,1499529802052 ,16,9843823072329
28.8765746 ,Left ,61,7079504846089 ,48,1143855661427 ,16,938901358048
28.8929649 ,Left ,61,6239598837884 ,48,0667490514534 ,16,9227283260343
28.9154931 ,Left ,61,4375767956528 ,47,9873574262632 ,16,8853022127499
28.9379096 ,Left ,61,3026020972338 ,47,9034124372926 ,16,9059950230222
28.9587413 ,Left ,61,2235661572178 ,47,9219971841112 ,16,8959142430376
28.975423 ,Left ,61,2529120733079 ,48,0087017861404 ,16,9080032335946
28.9979503 ,Left ,61,4111668249638 ,48,0102594012225 ,16,955034579838
29.0189427 ,Left ,61,5610052572347 ,47,9776801628374 ,16,9890950693365
29.0354876 ,Left ,61,6357131749349 ,47,9468039863267 ,17,0112772115733
29.0405614 ,Left ,61,6242910815278 ,47,8840357018607 ,17,0409214451217
29.0633245 ,Left ,61,6071196098809 ,47,8110435820671 ,17,0756240722813
29.0812702 ,Left ,61,5597982175866 ,47,7101428634133 ,17,1296202567592
29.1011785 ,Left ,61,5687002388964 ,47,6197119559536 ,17,1551697724229
29.1233845 ,Left ,61,5183838779345 ,47,5536820921953 ,17,1941783946338
29.139726 ,Left ,61,2983005536669 ,47,4456834476295 ,17,2478997251145
29.160952 ,Left ,61,1137386110498 ,47,3741170605805 ,17,3012485021882
29.183492 ,Left ,61,2704849309941 ,47,3412298751628 ,17,2888501036166
29.1997951 ,Left ,61,2552563284845 ,47,174137574304 ,17,2209341501651
29.2209208 ,Left ,61,0757466036233 ,47,0241614616442 ,17,2672576897048
29.2434421 ,Left ,60,9109141155891 ,47,1717084301833 ,17,2211542951106
29.2596774 ,Left ,61,1405618678827 ,47,4813971285749 ,17,2074380418807
29.2807858 ,Left ,61,3308997974281 ,47,5851167852568 ,17,2824836338897
29.3034339 ,Left ,61,2835588249462 ,47,5747537066252 ,17,3854727882149
29.3197513 ,Left ,61,3991929891634 ,47,6621775765649 ,17,4339458045478
29.3409665 ,Left ,61,6079905747775 ,47,7140407024978 ,17,4157608877612
29.3634727 ,Left ,61,6861702437684 ,47,7512423843946 ,17,3933483175882
29.3797852 ,Left ,61,7262724648336 ,47,7281671172199 ,17,3712239925496
29.4010351 ,Left ,61,776483478087 ,47,7066158540522 ,17,348707775811
29.4232987 ,Left ,61,810226675081 ,47,6866847249034 ,17,3513780276671
29.4383941 ,Left ,61,807204674975 ,47,6668862283263 ,17,374250815453
29.4609753 ,Left ,61,8177317854958 ,47,6424210914127 ,17,4049596864682
29.4835887 ,Left ,61,8347605013799 ,47,6193405682871 ,17,4395926766737
29.4997225 ,Left ,61,8608049047914 ,47,5962732313645 ,17,4832564520297
29.520572 ,Left ,61,8832523573213 ,47,5612451785424 ,17,5314499204749
29.543312 ,Left ,61,8943899127184 ,47,5160978683402 ,17,5809164006672
29.5597644 ,Left ,61,8957819689461 ,47,4816598634714 ,17,6357642235697
29.5804621 ,Left ,61,8909954801967 ,47,4550938261817 ,17,7045543166469
29.6037995 ,Left ,61,9117369921721 ,47,4378068799847 ,17,7691653102818
29.6202031 ,Left ,61,9448525886692 ,47,4200331415816 ,17,8327826993169
29.6413604 ,Left ,61,9776861075435 ,47,4058868741339 ,17,9002063185053
29.6634651 ,Left ,61,9995130468062 ,47,3904148764928 ,17,9639244777628
29.6797386 ,Left ,62,0346477643581 ,47,3813096831901 ,18,0273387942691
29.7009751 ,Left ,62,0574515251483 ,47,3786643370463 ,18,0929802629945
29.723497 ,Left ,62,0688757439294 ,47,3894838670554 ,18,1616170356824
29.739632 ,Left ,62,0739265189501 ,47,4061486093352 ,18,2326747586265
29.7608683 ,Left ,62,0802984906203 ,47,4242590184177 ,18,3038523339795
29.7834771 ,Left ,62,0707675877556 ,47,4327334097372 ,18,3767320098818
29.7997748 ,Left ,62,06065446038 ,47,4423427587918 ,18,4427437965085
29.8208344 ,Left ,62,0501310403631 ,47,4524034022628 ,18,5025204035887
29.8432344 ,Left ,62,0248907038654 ,47,4662763353354 ,18,5546058221433
29.861223 ,Left ,62,014815116107 ,47,4820486810292 ,18,5952498515705
29.8809982 ,Left ,62,0144711613081 ,47,4924700607501 ,18,6286816707666
29.9031102 ,Left ,61,9910123589425 ,47,4968007763476 ,18,6558024815477
29.9209768 ,Left ,61,9696020120292 ,47,4908846862946 ,18,6680007218682
29.9407787 ,Left ,61,9504683978475 ,47,4803399378356 ,18,6713284110291
29.9630276 ,Left ,61,9317344263009 ,47,4693052896994 ,18,6636744112884
29.9809745 ,Left ,61,9335745974771 ,47,4520608330846 ,18,6387974436149
30.0010723 ,Left ,61,9218967674278 ,47,4223445342524 ,18,5955162800245
30.0241368 ,Left ,61,9132434427004 ,47,3797152960045 ,18,5436284207329
30.0415814 ,Left ,61,9203255519985 ,47,3368467641578 ,18,4898439492328
30.0609126 ,Left ,61,9056698657334 ,47,2695778507258 ,18,4035334273803
30.0833812 ,Left ,61,7942674856714 ,47,1606884373352 ,18,3313067582631
30.1011862 ,Left ,61,6128186212029 ,47,0428068704466 ,18,2989097212948
30.1213657 ,Left ,61,3556091261687 ,46,8992700401138 ,18,3380662293722
30.1438332 ,Left ,61,2430010956228 ,46,8174391773661 ,18,3544690984563
30.1616698 ,Left ,61,2496511060773 ,46,9420640088464 ,18,3020664055299
30.1813103 ,Left ,61,4716955714527 ,47,1274069483745 ,18,2754552043281
30.2035495 ,Left ,61,7155297762499 ,47,259179337176 ,18,3437685476497
30.221529 ,Left ,61,8984803777567 ,47,3628555246996 ,18,3919471331478
30.24234 ,Left ,61,8533381337974 ,47,4656089465273 ,18,3882050743997
30.2632287 ,Left ,61,7998031658075 ,47,5431746079542 ,18,3428201016454
30.2812825 ,Left ,61,8011656168792 ,47,575315883847 ,18,248304918361
30.3009142 ,Left ,61,8232141091565 ,47,6115404056888 ,18,1299094261753
30.3234434 ,Left ,61,797627239902 ,47,6257406771995 ,18,0227528814453
30.3413273 ,Left ,61,767488455867 ,47,5906222269187 ,17,9289782257431
30.3635341 ,Left ,61,680469494999 ,47,4626465362497 ,17,8786841380059
30.3831035 ,Left ,61,6551847112884 ,47,2351731460882 ,17,8774010307938
30.4011507 ,Left ,61,5421469547572 ,46,9999081342068 ,17,8938068523452
30.4220606 ,Left ,61,6048983011928 ,46,9215926489811 ,17,9180697109641
30.4432243 ,Left ,61,583525326732 ,47,056042211678 ,17,8576309589435
30.4612366 ,Left ,61,5781297755259 ,47,2654621541567 ,17,8436421912206
30.4819831 ,Left ,61,6373129664816 ,47,3720521544634 ,17,862117637321
30.5031203 ,Left ,61,7616532454806 ,47,4357021263386 ,17,8753830870323
30.5214838 ,Left ,61,7538060909849 ,47,4792975060484 ,17,8470065332424
30.5425799 ,Left ,61,6915927477713 ,47,5010610720317 ,17,8163938704166
30.5632862 ,Left ,61,6494414946806 ,47,4993177162878 ,17,7824821495299
30.581416 ,Left ,61,660588994729 ,47,475626512651 ,17,7528592551702
30.6023164 ,Left ,61,6355131686414 ,47,4208924857442 ,17,7545431132573
30.6233017 ,Left ,61,538267084642 ,47,2989830398252 ,17,7353037046069
30.6411791 ,Left ,61,4416542024148 ,47,1148973696706 ,17,748817282311
30.6620653 ,Left ,61,508735657947 ,47,0758267793293 ,17,7335521171677
30.6831117 ,Left ,61,544598489479 ,47,303800890964 ,17,6741488727679
30.7012892 ,Left ,61,6248711605116 ,47,4764816488518 ,17,685811391672
30.7220575 ,Left ,61,7433769305343 ,47,5602681316632 ,17,7192573881064
30.7432884 ,Left ,61,7057206652164 ,47,6263970705887 ,17,7620837016978
30.7612698 ,Left ,61,5969663364664 ,47,7115868963929 ,17,8061302468715
30.7836629 ,Left ,61,5357615385531 ,47,7811997904258 ,17,8147227198542
30.8034151 ,Left ,61,5050216787825 ,47,8011606077541 ,17,8256044174324
30.8212317 ,Left ,61,4772093602219 ,47,7532581500702 ,17,8505173143899
30.8442845 ,Left ,61,4184644644764 ,47,6718710713801 ,17,8695674587823
30.8631282 ,Left ,61,3404958152185 ,47,5824468483241 ,17,8987070117964
30.8811188 ,Left ,61,2369338753511 ,47,4919393641281 ,17,9231645227427
30.9029534 ,Left ,61,0761656536542 ,47,3962438774212 ,17,9298315044286
30.9239353 ,Left ,61,0392684238353 ,47,3343843014603 ,17,9688592937559
30.9403465 ,Left ,61,0286528494176 ,47,4369387947191 ,17,9579940517213
30.9628917 ,Left ,61,1263190546935 ,47,6419809645601 ,17,9569235351848
30.9846502 ,Left ,61,292068193413 ,47,7444385775307 ,17,9866226797017
31.0009237 ,Left ,61,4524977640559 ,47,756896377559 ,18,0144442254075
31.0304361 ,Left ,61,4315278995717 ,47,7286266617156 ,18,0399642669595
31.0442447 ,Left ,61,4509397121496 ,47,6944955967089 ,18,0564914814954
31.0597729 ,Left ,61,5336351714339 ,47,6714655850299 ,18,034287397933
31.0829881 ,Left ,61,6313028643722 ,47,6667946511956 ,18,0032575257144
31.1041089 ,Left ,61,7202841729084 ,47,671096774515 ,17,9655879137129
31.1206156 ,Left ,61,7766499420231 ,47,6995943280943 ,17,9156355935264
31.1429447 ,Left ,61,8240321590794 ,47,752480234106 ,17,8453432059594
31.1639143 ,Left ,61,864192024181 ,47,8146350689289 ,17,7583400517166
31.1803127 ,Left ,61,8854607923411 ,47,8650270998211 ,17,6653996204415
31.202933 ,Left ,61,8954459490503 ,47,9101441202679 ,17,5668325315569
31.2240233 ,Left ,61,8921250506756 ,47,955587765691 ,17,4646307534365
31.2403341 ,Left ,61,8796077776453 ,47,991485231769 ,17,3587447356224
31.2629271 ,Left ,61,8371701329781 ,48,0207035211046 ,17,2610680563505
31.2854118 ,Left ,61,8126129451079 ,48,0510342276532 ,17,1625225841313
31.3003812 ,Left ,61,769945618421 ,48,0615013114363 ,17,0794639300096
31.3226709 ,Left ,61,7257517148602 ,48,0501906164828 ,17,0051350345749
31.3452353 ,Left ,61,6745577620499 ,48,0145230549548 ,16,9347475638462
31.3604022 ,Left ,61,5850326227406 ,47,9749531081614 ,16,9019321141059
31.3829998 ,Left ,61,4035618912185 ,47,9375234318249 ,16,8653436287371
31.405277 ,Left ,61,1852391000646 ,47,8292026556855 ,16,8121676091213
31.4262299 ,Left ,61,1223054061863 ,47,7122126940394 ,16,8569418076377
31.4429418 ,Left ,61,1226842967954 ,47,8305776611059 ,16,814197700162
31.4638267 ,Left ,61,2170946936733 ,47,997105656606 ,16,8125514334577
31.480466 ,Left ,61,4075011412194 ,48,0120472945591 ,16,8509646162827
31.5031113 ,Left ,61,6325855713755 ,47,978392400581 ,16,8822005138472
31.5240853 ,Left ,61,6479996443555 ,47,9243351754889 ,16,9095639546877
31.5398506 ,Left ,61,6109392672368 ,47,868410764606 ,16,9653688163111
31.5631608 ,Left ,61,5858665760213 ,47,8038740391385 ,16,997429284471
31.5842454 ,Left ,61,6254659053251 ,47,7478241233214 ,17,0172276311103
31.6006478 ,Left ,61,6983264374942 ,47,7061437562772 ,17,0498658789992
31.622757 ,Left ,61,7048908698676 ,47,6726243873844 ,17,075008818639
31.6443129 ,Left ,61,6465793848763 ,47,6007126636812 ,17,0922816911373
31.6595914 ,Left ,61,5603455767513 ,47,4689896803576 ,17,1061944340401
31.6829979 ,Left ,61,4751761892417 ,47,2707740856118 ,17,0853266700436
31.7038028 ,Left ,61,4123064029863 ,47,040146715964 ,17,0642159172806
31.7198505 ,Left ,61,4111704427541 ,47,0204987702953 ,17,0280543528752
31.7432719 ,Left ,61,3867152095226 ,47,2337280727802 ,17,0080498353596
31.7657525 ,Left ,61,4902725921081 ,47,374844100796 ,17,0810801808794
31.7801871 ,Left ,61,7049313030151 ,47,3857887067304 ,17,164700989011
31.8029033 ,Left ,61,9685887731416 ,47,3818261945207 ,17,2112422890143
31.82566 ,Left ,62,038720751063 ,47,3638752789465 ,17,2358920106963
31.8466749 ,Left ,62,0041704460738 ,47,3160145733024 ,17,2837882643824
31.8630871 ,Left ,61,9612392432741 ,47,2681662975927 ,17,3343899638158
31.8854686 ,Left ,61,9802377413196 ,47,2385704163798 ,17,3747989391849
31.8999537 ,Left ,62,0268251417897 ,47,2266983766836 ,17,4279651302855
31.9230435 ,Left ,62,0537047504738 ,47,2177537979171 ,17,4855689603389
31.9455012 ,Left ,62,044902287567 ,47,2154143465069 ,17,553465137943
31.9599607 ,Left ,62,0452906260641 ,47,2201134177729 ,17,6288724728364
31.9831756 ,Left ,62,0492423813592 ,47,2255505677283 ,17,6991152023065
32.0050458 ,Left ,62,0689673013751 ,47,223926537032 ,17,7609656669453
32.0197574 ,Left ,62,0602929222182 ,47,2211659308853 ,17,8132254679354
32.0427219 ,Left ,62,0655868339889 ,47,2299301759016 ,17,8562467309923
32.0654144 ,Left ,62,0381592357377 ,47,2482893583851 ,17,8989931047089
32.0796585 ,Left ,62,0273776220865 ,47,2855583376942 ,17,9403232044227
32.1030297 ,Left ,62,0257129105586 ,47,3186287134894 ,17,988624146249
32.1253443 ,Left ,62,0388219627596 ,47,3559767670222 ,18,0502434278284
32.139783 ,Left ,62,0357722708002 ,47,3597693850432 ,18,096943564117
32.1628962 ,Left ,62,0413950125551 ,47,3440055317335 ,18,1235371799106
32.1853794 ,Left ,62,0726763573412 ,47,3575692666249 ,18,1506791453372
32.1997913 ,Left ,62,0488013795812 ,47,3850012897538 ,18,1798732331144
32.2228593 ,Left ,62,0334006608514 ,47,4062010043594 ,18,2046388102788
32.2453706 ,Left ,62,0268397889953 ,47,4238216725192 ,18,2358014435634
32.2667154 ,Left ,62,0310231737758 ,47,4242689908425 ,18,273231695447
32.2828549 ,Left ,62,0155084106614 ,47,4219533183491 ,18,3174311764128
32.3053926 ,Left ,61,9762867034278 ,47,4409615231325 ,18,3624182814957
32.3265325 ,Left ,61,9458463031577 ,47,4648165290739 ,18,3938172317523
32.3429632 ,Left ,61,9395096143677 ,47,4770294797539 ,18,41488479772
32.3651428 ,Left ,61,9465624266188 ,47,4846466831234 ,18,425565763965
32.3862224 ,Left ,61,9170934165648 ,47,4935761099239 ,18,4276547544448
32.4029326 ,Left ,61,8904867528485 ,47,4927378093362 ,18,4258033763972
32.4251682 ,Left ,61,864903008287 ,47,4692906381464 ,18,4234685454753
32.4478816 ,Left ,61,8578303979822 ,47,4344382913409 ,18,4074242248895
32.4629441 ,Left ,61,8474903485952 ,47,3865912620081 ,18,3932764262939
32.4853293 ,Left ,61,8123608270418 ,47,3255698499093 ,18,3681359242266
32.5063764 ,Left ,61,7830092135513 ,47,2501429841571 ,18,3393408400512
32.5228437 ,Left ,61,7700273055108 ,47,1601094713964 ,18,3076651478564
32.5454898 ,Left ,61,6949234833027 ,47,0565339292384 ,18,281304065633
32.5665095 ,Left ,61,6276728517472 ,47,0035670180725 ,18,2435080721387
32.5819782 ,Left ,61,3930882637038 ,46,8850830800102 ,18,2049756103807
32.6054045 ,Left ,61,2744919152199 ,46,7538003488656 ,18,2427469936969
32.626894 ,Left ,61,2007749925872 ,46,6966376046075 ,18,2092121791977
32.6426762 ,Left ,61,1395358985439 ,46,8591087099722 ,18,1722885809559
32.6658179 ,Left ,61,2268236945472 ,47,0290501922959 ,18,1885195326331
32.6880107 ,Left ,61,4087661760245 ,47,1247631547002 ,18,2438605586381
32.7025262 ,Left ,61,5223497446901 ,47,1995105321097 ,18,2606056850505
32.7256439 ,Left ,61,5150102596508 ,47,2684843773218 ,18,247355691751
32.7482622 ,Left ,61,5040283523523 ,47,310977338865 ,18,204833974343
32.7626069 ,Left ,61,5222379227992 ,47,3403561072718 ,18,1414025907874
32.7855333 ,Left ,61,5699091177159 ,47,3756532390861 ,18,0533224733449
32.8077942 ,Left ,61,5922754151187 ,47,408908803101 ,17,9579895636494
32.8228234 ,Left ,61,6128516473577 ,47,4080896097383 ,17,8644512269772
32.8453643 ,Left ,61,6327593560529 ,47,3463799629289 ,17,8043376126983
32.8680284 ,Left ,61,6336591002454 ,47,2631655734588 ,17,7599618104926
32.8821096 ,Left ,61,6383124527808 ,47,1588765805941 ,17,7267904369213
32.9055654 ,Left ,61,6224150010281 ,47,0311600668017 ,17,7113258530414
32.9279708 ,Left ,61,6296527216683 ,46,9278370554307 ,17,6998010004832
32.9420784 ,Left ,61,6044607402246 ,46,8403595690433 ,17,6948261038005
32.9654356 ,Left ,61,5445059958106 ,46,792321127929 ,17,7065175135739
32.9878157 ,Left ,61,4094163604949 ,46,8057772349605 ,17,6941653155097
33.0090653 ,Left ,61,2123210490646 ,46,8347827220087 ,17,7045026646034
33.0252071 ,Left ,61,1162989160991 ,46,8226501913118 ,17,7320016983759
33.0475943 ,Left ,61,0788225198429 ,47,0402771495822 ,17,7100934097011
33.0694982 ,Left ,61,1984845892404 ,47,3056173101734 ,17,7120548909651
33.0853491 ,Left ,61,3710302247993 ,47,442218546883 ,17,7759302473237
33.1080324 ,Left ,61,428372508099 ,47,5071241034175 ,17,7984765918338
33.1286073 ,Left ,61,3549114372449 ,47,5569146893996 ,17,7853518217518
33.1454202 ,Left ,61,3358461933343 ,47,5500674384812 ,17,7561509981421
33.1679871 ,Left ,61,3184809031839 ,47,5416033486778 ,17,6924563323263
33.1889713 ,Left ,61,3203485939781 ,47,5527568115221 ,17,634363105431
33.2055496 ,Left ,61,336805192499 ,47,524821178681 ,17,5888129219849
33.2280764 ,Left ,61,2867905833705 ,47,4587711047015 ,17,5703265880009
33.2491846 ,Left ,61,2752879739388 ,47,3177617118569 ,17,5585517147169
33.2655396 ,Left ,61,1552985450812 ,47,0648363614091 ,17,6131000715353
33.2880869 ,Left ,61,321756925484 ,46,946904426027 ,17,6633287180017
33.3088065 ,Left ,61,2733544661911 ,47,0963150730234 ,17,5924746289035
33.3251995 ,Left ,61,2643053309689 ,47,3228536678573 ,17,5801087367082
33.3477169 ,Left ,61,3463861887321 ,47,4268770452932 ,17,614156213045
33.3687496 ,Left ,61,4307323891334 ,47,4923784497466 ,17,6445628275765
33.3851855 ,Left ,61,3605729091556 ,47,5739532646525 ,17,6770347209019
33.4077031 ,Left ,61,2481244035008 ,47,656130536809 ,17,7110906261057
33.4287039 ,Left ,61,2116250695457 ,47,7540166578467 ,17,7164719458334
33.4445544 ,Left ,61,2150250282647 ,47,8013176808497 ,17,7314514554752
33.4676771 ,Left ,61,1863689777938 ,47,8035960545499 ,17,758832893275
33.488687 ,Left ,61,0972614258541 ,47,7888293366685 ,17,788293033886
33.5050865 ,Left ,61,023347355132 ,47,7612755800723 ,17,8005334840257
33.5276554 ,Left ,60,953445081583 ,47,6935927576715 ,17,7937440831796
33.5500645 ,Left ,60,8249194987578 ,47,5609311759075 ,17,7845001468675
33.5644806 ,Left ,60,8354827396427 ,47,4761288355086 ,17,8544447128456
