timestamp,event,roll,pitch,yaw
0.0709205 ,Left ,67,1757645660524 ,46,0497302911072 ,53,3901753407022
0.093335 ,Left ,67,2059271303344 ,46,1493624912686 ,53,2137940707093
0.1143484 ,Left ,67,2291868103453 ,46,2362994515322 ,53,0606213969408
0.1307336 ,Left ,67,2746887182988 ,46,3271427815067 ,52,9179685169081
0.1534044 ,Left ,67,2961992024181 ,46,4117585454666 ,52,7849756101705
0.174402 ,Left ,67,3017397990468 ,46,46893592961 ,52,6711790363294
0.1908163 ,Left ,67,3062452640402 ,46,5020743238665 ,52,5710087720097
0.213332 ,Left ,67,291342161264 ,46,5228341191837 ,52,4806826146035
0.2343934 ,Left ,67,2637940002917 ,46,5364321658456 ,52,4124558711058
0.2507887 ,Left ,67,2284994195552 ,46,5495440216499 ,52,3463016586876
0.2733165 ,Left ,67,2026164523057 ,46,5686731128813 ,52,290615330493
0.2944143 ,Left ,67,210093072336 ,46,5762254837537 ,52,2463745902896
0.3108592 ,Left ,67,2245189296243 ,46,5741660446697 ,52,2053240933475
0.3330971 ,Left ,67,2336111651988 ,46,5657513187588 ,52,1721550102459
0.3543584 ,Left ,67,2489636617236 ,46,5622287186207 ,52,1483281327235
0.3707986 ,Left ,67,2567879457736 ,46,5709418561577 ,52,1322186503487
0.393318 ,Left ,67,2760146170305 ,46,5942930611328 ,52,1195911326455
0.4144473 ,Left ,67,2977560303772 ,46,619112287527 ,52,1078823719949
0.4308199 ,Left ,67,3145641610266 ,46,635595867044 ,52,0959057574397
0.4532369 ,Left ,67,315118477498 ,46,64774852053 ,52,0870460753843
0.4742899 ,Left ,67,321238406678 ,46,6509152671616 ,52,0656263969628
0.490793 ,Left ,67,3003316727012 ,46,6482559899466 ,52,0332036461944
0.5133352 ,Left ,67,2308868586341 ,46,6334299071841 ,52,0083996572197
0.5344974 ,Left ,67,1598942702917 ,46,6182507644881 ,51,9768598583006
0.550847 ,Left ,67,1040056695583 ,46,5947106161932 ,51,9256189870247
0.5732831 ,Left ,67,0768693157017 ,46,5740822918623 ,51,8557578568847
0.5944031 ,Left ,67,0756518076364 ,46,5584454082527 ,51,7874618689546
0.6108322 ,Left ,67,0621639232933 ,46,547566879745 ,51,7248945728824
0.6332791 ,Left ,67,0642704322878 ,46,5421690782741 ,51,6690035101523
0.6542493 ,Left ,67,0818945968615 ,46,5384184782152 ,51,6149026500507
0.6707376 ,Left ,67,1144739635871 ,46,5294156333668 ,51,5593527498798
0.6933215 ,Left ,67,1712871085297 ,46,5214923810703 ,51,508880365298
0.7158128 ,Left ,67,2355200228819 ,46,502404688092 ,51,4531359644781
0.7308105 ,Left ,67,3025934531776 ,46,4553810191372 ,51,4056344417565
0.753309 ,Left ,67,3467721306686 ,46,3959239684594 ,51,3865147111506
0.7757757 ,Left ,67,3246298480736 ,46,3446632052969 ,51,4448510572996
0.7907414 ,Left ,67,2124032549089 ,46,3184103528825 ,51,528442557106
0.8133051 ,Left ,67,2531671530926 ,46,3248795358005 ,51,5812550013372
0.8358563 ,Left ,67,3978612558962 ,46,3341096443823 ,51,5789278067336
0.8568719 ,Left ,67,4085822626838 ,46,3258262589772 ,51,5158068303615
0.873283 ,Left ,67,2510234593005 ,46,3192388765281 ,51,4292970573064
0.8957674 ,Left ,67,0715287689262 ,46,3160595855791 ,51,3358429801973
0.9168867 ,Left ,66,9207437818151 ,46,3138286200282 ,51,2413398948178
0.9332844 ,Left ,66,8185761574972 ,46,3103999139545 ,51,1694594882481
0.9557758 ,Left ,66,7672228532905 ,46,328429801281 ,51,1052644083962
0.976842 ,Left ,66,7644707920514 ,46,3698863137696 ,51,0502280792064
0.9933308 ,Left ,66,8194261827409 ,46,4314314804256 ,51,00144544238
1.0158039 ,Left ,66,9302206846125 ,46,4975965771148 ,50,9593485013498
1.0301773 ,Left ,67,0534352693225 ,46,5754777952705 ,50,9231939484698
1.053374 ,Left ,67,1500816046477 ,46,6649892692416 ,50,8764159155744
1.0757787 ,Left ,67,1364385518555 ,46,765857155843 ,50,8124749596866
1.0968679 ,Left ,67,0166484090626 ,46,8878922163006 ,50,7540541158966
1.1133257 ,Left ,66,9044015388149 ,47,0256756589498 ,50,7352613742441
1.1358023 ,Left ,66,8080075530317 ,47,1642268548789 ,50,7580832530585
1.1568907 ,Left ,66,6938949375975 ,47,2397669369911 ,50,8057130985783
1.1733256 ,Left ,66,5888249452388 ,47,2327832185921 ,50,8588942487778
1.2039632 ,Left ,66,5054934170453 ,47,1739408405634 ,50,9101653414776
1.2168713 ,Left ,66,4049264510627 ,47,1168867461237 ,50,9772639573069
1.2333032 ,Left ,66,2810619657647 ,47,0841764213683 ,51,0532925543713
1.2558421 ,Left ,66,1759851529417 ,47,0650528833279 ,51,1152889356348
1.2768179 ,Left ,66,0325351379347 ,47,0459027376335 ,51,1601307655882
1.2933305 ,Left ,65,8201190059111 ,47,038268256496 ,51,1958628421827
1.31591 ,Left ,65,5620625425423 ,47,0526815427912 ,51,2358563691587
1.3368388 ,Left ,65,3628724521495 ,47,0839172560271 ,51,2597953988127
1.3534165 ,Left ,65,2706102390434 ,47,1424205587921 ,51,276741530266
1.3758412 ,Left ,65,2266929002028 ,47,2131709303553 ,51,2746380257414
1.3968554 ,Left ,65,1344463369403 ,47,2888947825376 ,51,2578071647683
1.4126278 ,Left ,64,9990591939086 ,47,3661169686502 ,51,2399490866475
1.4357427 ,Left ,64,8220643876468 ,47,4586005519574 ,51,2318431422973
1.4568385 ,Left ,64,6396179969233 ,47,5641288706634 ,51,2232088307898
1.472628 ,Left ,64,4920841418469 ,47,6691165389595 ,51,2132460651123
1.5033047 ,Left ,64,4009460140148 ,47,7218841283175 ,51,1721278646048
1.5168141 ,Left ,64,4106762965318 ,47,6992495789565 ,51,1151115756466
1.5326653 ,Left ,64,4171007717829 ,47,6435064741159 ,51,0465951005375
1.5560053 ,Left ,64,2818510326011 ,47,5991663861418 ,50,9876563685344
1.5768384 ,Left ,64,0424422354298 ,47,5627232698033 ,50,9484009524501
1.6007712 ,Left ,63,8765562723146 ,47,5299253729999 ,50,917778890721
1.615787 ,Left ,63,8893971864202 ,47,4774096692655 ,50,885924317681
1.6383108 ,Left ,63,9782258803412 ,47,4099708480854 ,50,8614991038315
1.6526238 ,Left ,63,9932205548402 ,47,3463557932369 ,50,8391727024812
1.6757887 ,Left ,63,9295882293124 ,47,2876404262348 ,50,8401889914208
1.6983044 ,Left ,63,8687942984235 ,47,2432340972534 ,50,8564089731223
1.7133245 ,Left ,63,8830897779446 ,47,20661280172 ,50,8683503258389
1.7358316 ,Left ,63,9641637668554 ,47,1622730133507 ,50,8912519372932
1.7582844 ,Left ,64,0645327063946 ,47,1190788410857 ,50,9129154197988
1.7808146 ,Left ,64,1236708425126 ,47,0795223005254 ,50,9371806121796
1.7958893 ,Left ,64,1861286926071 ,47,0347292596163 ,50,9804327237223
1.8183302 ,Left ,64,2557823505363 ,46,9810954809406 ,51,0358847660135
1.8468784 ,Left ,64,3066218774649 ,46,9093523158847 ,51,090802292679
1.8557515 ,Left ,64,3266655793359 ,46,8419780571738 ,51,1503246657917
1.8783183 ,Left ,64,366896493689 ,46,785051515944 ,51,1978944948292
1.8993875 ,Left ,64,4122131494233 ,46,7338789912622 ,51,2323901306769
1.915791 ,Left ,64,487855765568 ,46,6698517078945 ,51,2516978534805
1.9382542 ,Left ,64,5199153242938 ,46,6188457768984 ,51,2654876671971
1.9525814 ,Left ,64,4788424679793 ,46,588256266636 ,51,2867715060964
1.9762018 ,Left ,64,4150330184162 ,46,5671922614546 ,51,2975304667037
1.9983049 ,Left ,64,3691622279024 ,46,5523418952425 ,51,3055613322457
2.0126135 ,Left ,64,3682212951892 ,46,5385672429852 ,51,3117967179403
2.0358073 ,Left ,64,3544989385356 ,46,5269395895503 ,51,3204957862956
2.0588903 ,Left ,64,2750268741907 ,46,5153494115056 ,51,3374688362866
2.0809577 ,Left ,64,143717991947 ,46,505919649191 ,51,3469170970435
2.0957901 ,Left ,64,0434653008639 ,46,5676588925404 ,51,345904081069
2.1183159 ,Left ,64,0131091801022 ,46,6863738863498 ,51,3607779093565
2.1393964 ,Left ,64,0990786561876 ,46,6088531771602 ,51,3256734287991
2.1558487 ,Left ,64,4259409677219 ,46,5442203195464 ,51,2094281424797
2.1783043 ,Left ,64,4195078789468 ,46,5876829721836 ,51,1263443034104
2.1993536 ,Left ,64,2437325615177 ,46,6552144596477 ,51,0854401433016
2.2158254 ,Left ,64,2404672078292 ,46,6787653598803 ,51,0641843437503
2.2383081 ,Left ,64,2502453795611 ,46,6908241089749 ,51,0733859222105
2.259309 ,Left ,64,2247311533165 ,46,7206510507132 ,51,087732748555
2.2758353 ,Left ,64,2382478318813 ,46,7480411064168 ,51,0779424727254
2.298269 ,Left ,64,2556180673381 ,46,7724331985963 ,51,051308824022
2.3193221 ,Left ,64,173749943155 ,46,7414211980123 ,51,0217931675834
2.3358503 ,Left ,64,121604622156 ,46,6667903843659 ,51,0149881479131
2.3582362 ,Left ,64,1327401150972 ,46,5901861873824 ,51,0060300988222
2.3794101 ,Left ,64,0919073108896 ,46,5290532078783 ,50,9918064807286
2.3964269 ,Left ,64,0564011076454 ,46,4940974882505 ,50,9852253908003
2.4183505 ,Left ,64,0848146761861 ,46,4610441083148 ,50,9862339041326
2.4392918 ,Left ,64,1185485310347 ,46,4241055496321 ,50,9851693606012
2.4558449 ,Left ,64,107466492688 ,46,3931013948182 ,50,9932380086224
2.478281 ,Left ,64,0772801221623 ,46,3677891968693 ,50,9973257293284
2.4992589 ,Left ,64,0243035607877 ,46,3498979708435 ,50,9899314496028
2.5158465 ,Left ,63,9741835097112 ,46,345666278323 ,50,9758628046077
2.5387692 ,Left ,63,9385767996478 ,46,3900448049645 ,50,9934360638598
2.5614765 ,Left ,63,9225756963302 ,46,4117036774306 ,51,0419014279337
2.575265 ,Left ,63,9885572441839 ,46,2713921896005 ,51,0391329617889
2.5983421 ,Left ,64,1984714560433 ,46,179078919766 ,50,9628346120178
2.6207403 ,Left ,64,1189720341678 ,46,1534320894916 ,50,9223576363995
2.6351843 ,Left ,64,0220553541938 ,46,1492198351089 ,50,9396727496368
2.6582851 ,Left ,64,1136469019054 ,46,1084301459976 ,50,9405988179703
2.6807979 ,Left ,64,1111833470849 ,46,0566885546905 ,50,9405338845729
2.7033909 ,Left ,63,9935687675908 ,46,0071887436247 ,50,9391581288094
2.7183125 ,Left ,63,9398072947569 ,46,0311569941326 ,50,9671472962181
2.7408213 ,Left ,63,9552285135601 ,46,1286746577862 ,51,041248368318
2.761912 ,Left ,63,8740476285483 ,46,1195102926573 ,51,0303966691475
2.7783501 ,Left ,64,1334939449255 ,46,043490133529 ,50,9187538096021
2.8008234 ,Left ,64,3585654223128 ,46,1130343062546 ,50,8508837032989
2.8223009 ,Left ,64,2785265111027 ,46,1917424876411 ,50,8234335813527
2.8383153 ,Left ,64,2506803803291 ,46,2176779196219 ,50,8104911956836
2.8608149 ,Left ,64,2300115062732 ,46,2226087232928 ,50,8217218307771
2.8818527 ,Left ,64,1341726462512 ,46,2735228968875 ,50,8494962688344
2.898314 ,Left ,64,0757836851034 ,46,3440182691493 ,50,8886829182658
2.92075 ,Left ,64,0612012307104 ,46,4020819992642 ,50,9326703141349
2.9351826 ,Left ,64,0752001216929 ,46,389221034661 ,50,9708216181616
2.9583665 ,Left ,64,158802254712 ,46,3306879344921 ,51,0150068522767
2.9807649 ,Left ,64,2290729995194 ,46,2624481568099 ,51,0449778283466
3.0024868 ,Left ,64,1198106133124 ,46,197771957617 ,51,069269104553
3.0186821 ,Left ,63,9329692185209 ,46,1447446927801 ,51,103012685087
3.040847 ,Left ,63,790047382481 ,46,1096654828398 ,51,1277453145103
3.0618139 ,Left ,63,7220189522546 ,46,0754506897688 ,51,1453851179861
3.0776735 ,Left ,63,7443861688621 ,46,0489170468938 ,51,1655488602601
3.1007445 ,Left ,63,7547269476642 ,46,0408462989806 ,51,1715548764904
3.1218429 ,Left ,63,7023294041489 ,46,0865928210515 ,51,2043104310627
3.1376911 ,Left ,63,5530815476519 ,46,1274142748737 ,51,2019934511605
3.1607985 ,Left ,63,6496575022305 ,46,1424243705244 ,51,0844544089195
3.1817917 ,Left ,63,7376637958994 ,46,2128403336585 ,50,9712287861594
3.1983517 ,Left ,63,8069400230117 ,46,2565459314792 ,50,9386529344463
3.2208133 ,Left ,63,9011819122118 ,46,2503046531863 ,50,9303512210808
3.2424539 ,Left ,63,8796235094742 ,46,2352121628903 ,50,929739605087
3.25887 ,Left ,63,8567291731425 ,46,2108410405182 ,50,9490689054607
3.2809972 ,Left ,63,8643558645969 ,46,1830099296373 ,50,9656787578068
3.3034011 ,Left ,63,8892611951288 ,46,1647591987172 ,50,9999948883647
3.3177205 ,Left ,63,9256349313525 ,46,1795680962925 ,51,0397089562608
3.3408048 ,Left ,63,9103146734801 ,46,2005593054948 ,51,0575825517773
3.363138 ,Left ,63,9166979794026 ,46,200365016348 ,51,0613041068128
3.3843609 ,Left ,63,9718945444012 ,46,1910609165949 ,51,0750894383798
3.4008509 ,Left ,64,0604234983756 ,46,1783431337165 ,51,0987105194776
3.4308117 ,Left ,64,1213743929952 ,46,1713899286476 ,51,1240786120256
3.4446595 ,Left ,64,1479235514638 ,46,1707972748504 ,51,1382864893044
3.4556388 ,Left ,64,1470435465522 ,46,162239941747 ,51,1473004073657
3.4748548 ,Left ,64,1223865709934 ,46,1465893113202 ,51,1576913292174
3.4901575 ,Left ,64,0014254172261 ,46,1164101617621 ,51,1996629833494
3.5133072 ,Left ,64,0739833691192 ,46,3362417770233 ,51,1910761217681
3.543333 ,Left ,64,0007396246634 ,46,3919224387502 ,51,2198614067019
3.5501285 ,Left ,63,9047891429889 ,46,3488402854477 ,51,2567763735911
3.5726763 ,Left ,63,8192713001664 ,46,3248369012749 ,51,2974407183964
3.5943501 ,Left ,63,7782917348992 ,46,3877431156823 ,51,3323516199011
3.6101045 ,Left ,63,8056988128859 ,46,5621122952052 ,51,3450295034137
3.6326434 ,Left ,63,8828588221218 ,46,5124286131548 ,51,3347240436827
3.6542128 ,Left ,63,8538328189826 ,46,4919622983981 ,51,3428576854587
3.6701925 ,Left ,63,8476931172685 ,46,4580516516675 ,51,347480152522
3.6926851 ,Left ,63,8776959380338 ,46,4333740348068 ,51,348209248578
3.7148274 ,Left ,63,8874547755932 ,46,4135134481297 ,51,3380893193922
3.7302056 ,Left ,63,8632771103732 ,46,3982947438414 ,51,320321699605
3.7531817 ,Left ,63,8107618988916 ,46,3509894908119 ,51,3168736024834
3.7758247 ,Left ,63,9281995909448 ,46,3341005096588 ,51,2650888172329
3.7901692 ,Left ,63,7958452284405 ,46,2866601474003 ,51,2733489296497
3.8130656 ,Left ,63,8345057945296 ,46,2917625454134 ,51,2546409477825
3.8372116 ,Left ,63,8798679506942 ,46,2660937745487 ,51,2360316754097
3.8501421 ,Left ,63,8763417685295 ,46,2480774689652 ,51,2108146594817
3.8727532 ,Left ,63,8251536963222 ,46,244780640342 ,51,1819809276759
3.8958206 ,Left ,63,7786761629022 ,46,2481035668319 ,51,1516029315892
3.9101128 ,Left ,63,7734829915771 ,46,2508531756025 ,51,118913513536
3.940683 ,Left ,63,7982191392669 ,46,2501859971177 ,51,0833744448568
3.9556705 ,Left ,63,7974735062246 ,46,261477738494 ,51,049951541537
3.9700589 ,Left ,63,7534024804216 ,46,2835918182039 ,51,0151456115131
3.9927756 ,Left ,63,6851414910933 ,46,3090095947493 ,50,9774835011602
4.0156183 ,Left ,63,6121049068601 ,46,3164711219569 ,50,9323963383778
4.0299152 ,Left ,63,5319816888053 ,46,3232462488388 ,50,8942480461073
4.0524946 ,Left ,63,4591601617653 ,46,3554002030836 ,50,8408973078311
4.0757481 ,Left ,63,3691482386597 ,46,4526565435428 ,50,7732874246554
4.0968059 ,Left ,63,3417067471032 ,46,5812892933857 ,50,7817386723742
4.1208676 ,Left ,63,3398912787788 ,46,5308084767718 ,50,72298170645
4.1357606 ,Left ,63,4769138214301 ,46,5176297938634 ,50,5789226881133
4.1644473 ,Left ,63,3880422297029 ,46,5097661036009 ,50,509576245899
4.1725679 ,Left ,63,3226243754908 ,46,5005602665271 ,50,4822536575305
4.1958488 ,Left ,63,348048773738 ,46,4926182584914 ,50,4630470645436
4.2167493 ,Left ,63,4331549251681 ,46,471379105512 ,50,4598819683901
4.2326627 ,Left ,63,4872563591854 ,46,4231673574229 ,50,4688559487922
4.2556992 ,Left ,63,4719496208417 ,46,3499808948279 ,50,50006583965
4.2768886 ,Left ,63,4612171884108 ,46,2704505508457 ,50,5449372470796
4.2926114 ,Left ,63,507474131521 ,46,2018559755046 ,50,5755463024451
4.3157225 ,Left ,63,5486561524086 ,46,148370853439 ,50,5920820505409
4.3443953 ,Left ,63,5502413048651 ,46,1312092768621 ,50,6012865118434
4.3682981 ,Left ,63,5107887617226 ,46,1623135756304 ,50,5960131061679
4.3832719 ,Left ,63,4485826728419 ,46,2260471956778 ,50,6167198526909
4.4043967 ,Left ,63,4149694951137 ,46,2470242773199 ,50,5995262535498
4.4200372 ,Left ,63,5681270434304 ,46,1394024272532 ,50,5145681160711
4.4433603 ,Left ,63,8283881167064 ,46,106124763563 ,50,4391123462617
4.4662614 ,Left ,63,8211829310509 ,46,1549005553229 ,50,4280064124004
4.4806657 ,Left ,63,8094381012145 ,46,1808679914767 ,50,4479775434702
4.5106662 ,Left ,63,8538739959615 ,46,1880552790761 ,50,4721467635116
4.5254549 ,Left ,63,8179069660355 ,46,1980252024597 ,50,4979815656879
4.540716 ,Left ,63,8454045895674 ,46,2335527751428 ,50,5285770553275
4.5633528 ,Left ,63,9026308865757 ,46,2848271380645 ,50,580683638325
4.5857752 ,Left ,63,8730633152308 ,46,3340312075162 ,50,6368853135086
4.6001976 ,Left ,63,8136822954903 ,46,2985297995431 ,50,6763613268326
4.6232298 ,Left ,63,8805841443013 ,46,1939075025951 ,50,7138582821598
4.6457438 ,Left ,63,9818022404376 ,46,1015872076335 ,50,7461574301861
4.66683 ,Left ,63,9550987955848 ,46,052666470147 ,50,7674860508767
4.6833139 ,Left ,63,8717949448917 ,46,0316320118371 ,50,7994943605989
4.705829 ,Left ,63,8863983587313 ,46,0070506630498 ,50,8124685217152
4.720047 ,Left ,63,9701476083022 ,45,9757368600354 ,50,827230380622
4.7437941 ,Left ,64,0430397938895 ,45,9515383412192 ,50,8422279972236
4.7658545 ,Left ,64,0796441245851 ,45,9388630797704 ,50,8667312081412
4.780208 ,Left ,64,1071623756439 ,45,9272735020893 ,50,8950085462435
4.8032917 ,Left ,64,1640666083817 ,45,9149921186068 ,50,9326169180491
4.8258431 ,Left ,64,2826851334555 ,45,8963631535683 ,50,9666908753199
4.8545141 ,Left ,64,3918872371317 ,45,8932953976581 ,50,9877139454785
4.8630525 ,Left ,64,4281947948111 ,45,9221300831781 ,51,0062541143952
4.8857482 ,Left ,64,4333326272132 ,45,9756447595287 ,51,0204480474694
4.9083943 ,Left ,64,460815479409 ,46,0404949211794 ,51,0337149843067
4.9294948 ,Left ,64,5556035961692 ,46,1084671771194 ,51,0281198359904
4.9383817 ,Left ,64,6543170872381 ,46,1701834927443 ,51,008488374273
4.9593582 ,Left ,64,6926303389725 ,46,2058412595989 ,50,9869447039348
4.9751442 ,Left ,64,7041018972476 ,46,2307813435467 ,50,9785799351441
4.9983975 ,Left ,64,720358634119 ,46,2504366014119 ,50,9843825376839
5.0126293 ,Left ,64,7489545191927 ,46,2583260674094 ,50,9809569960697
5.0355981 ,Left ,64,7907781867399 ,46,2735960404541 ,50,9778411970903
5.0584208 ,Left ,64,8234576574417 ,46,2813210128758 ,50,9783825189276
5.0725663 ,Left ,64,8331325628774 ,46,3003582913612 ,50,9823294734335
5.0951121 ,Left ,64,8287276431917 ,46,3257716875427 ,50,9977006294761
5.1183271 ,Left ,64,8348352794773 ,46,3508884248822 ,51,0161478821143
5.1326733 ,Left ,64,8942385728863 ,46,3724454472033 ,51,0321032113542
5.1551564 ,Left ,64,9920652493509 ,46,3812101489373 ,51,044732853941
5.1783429 ,Left ,65,049168951418 ,46,3784782604466 ,51,0442424326323
5.1927111 ,Left ,65,0485422691993 ,46,3485051737796 ,51,059964344633
5.2151402 ,Left ,65,0372035146124 ,46,3119534651898 ,51,0733646962645
5.2383167 ,Left ,65,0029035097732 ,46,2778884522061 ,51,0947202419964
5.2593966 ,Left ,64,9720714786601 ,46,255410931214 ,51,0972565184627
5.2752164 ,Left ,64,9456749323069 ,46,2215617133339 ,51,0654041255071
5.2982653 ,Left ,64,9301549592744 ,46,1768583514375 ,51,0356463356572
5.3194323 ,Left ,64,9196961897203 ,46,1423213978737 ,51,0193602787941
5.3350909 ,Left ,64,8761054139664 ,46,132254445154 ,51,0212826977695
5.358138 ,Left ,64,8147851613124 ,46,1438388536107 ,51,0356842482963
5.3793822 ,Left ,64,8582278743305 ,46,1565708579837 ,51,0328397798927
5.3952013 ,Left ,64,9619374432518 ,46,1671814077223 ,51,0273438268383
5.4176303 ,Left ,65,0166397790395 ,46,169532098379 ,51,0340670631789
5.4393582 ,Left ,65,0312948917691 ,46,17924189763 ,51,0594727382646
5.4551077 ,Left ,65,0462523549155 ,46,1661869905844 ,51,0864028440053
5.4776568 ,Left ,65,1019788959408 ,46,1579861300008 ,51,100479422085
5.5097925 ,Left ,65,1651125438263 ,46,1449338962517 ,51,1138153199419
5.5153219 ,Left ,65,1901167840837 ,46,1312681634767 ,51,1353365529831
5.5381273 ,Left ,65,2154567381466 ,46,1020074263936 ,51,1529157780205
5.5594437 ,Left ,65,2312518489554 ,46,0715399819574 ,51,1576561071792
5.5752277 ,Left ,65,1668422903821 ,46,0091487691772 ,51,2012139728723
5.5976456 ,Left ,65,2835347888391 ,46,0520961993907 ,51,1930964291304
5.6193569 ,Left ,65,2187425113364 ,45,957489938444 ,51,2394565879359
5.6350783 ,Left ,65,3241424454842 ,45,9381007059125 ,51,2383796669428
5.6576964 ,Left ,65,2771485368468 ,46,0065979818489 ,51,2853621908345
5.6808596 ,Left ,65,2122387238635 ,45,9053365639017 ,51,3153593359044
5.6951777 ,Left ,65,3445709211308 ,45,9444850631657 ,51,3101481638837
5.7176721 ,Left ,65,3515814532264 ,46,04417046551 ,51,3455988151833
5.7408183 ,Left ,65,2525325741487 ,45,9449959152524 ,51,3869583880571
5.7552215 ,Left ,65,3128491056428 ,45,8603685209929 ,51,4010599533155
5.7843927 ,Left ,65,3758250126007 ,45,9541337977935 ,51,431676176286
5.8008475 ,Left ,65,263141732342 ,45,969346080665 ,51,4937798798963
5.8294743 ,Left ,65,1997258440484 ,45,8446945675084 ,51,5270067034656
5.8458665 ,Left ,65,1905787161639 ,45,8200098912989 ,51,5552435190717
5.8683727 ,Left ,65,1644557719836 ,45,8110790474621 ,51,5909353645772
5.8894442 ,Left ,65,1321120684495 ,45,8067148740407 ,51,6278062938463
5.9058983 ,Left ,65,0929059419107 ,45,8073934391438 ,51,6609440080044
5.9283498 ,Left ,65,0684034053296 ,45,8004141010036 ,51,6843479930266
5.9492785 ,Left ,65,0796338778248 ,45,7863164443075 ,51,7047130540034
5.9658525 ,Left ,65,0872174372677 ,45,7750250921724 ,51,7204716967023
5.988412 ,Left ,65,065444205027 ,45,7645932626317 ,51,7372809596382
6.0093554 ,Left ,65,0436181629541 ,45,7619812039296 ,51,7560165623456
6.0258666 ,Left ,65,0332303821414 ,45,7640362495666 ,51,7715233231835
6.0482601 ,Left ,65,0375258753727 ,45,7619426096769 ,51,7745440808784
6.06938 ,Left ,65,0564465793327 ,45,7642769014943 ,51,782491656142
6.0858233 ,Left ,65,0921441823872 ,45,7648426385594 ,51,781324170295
6.1083644 ,Left ,65,1242715956065 ,45,7497680433326 ,51,7899486824469
6.1293229 ,Left ,65,1679963417108 ,45,730300600667 ,51,7999005109508
6.1458574 ,Left ,65,2101559592863 ,45,7172380597651 ,51,802087915057
6.1683906 ,Left ,65,249305063452 ,45,7089939506059 ,51,7915698363552
6.1894182 ,Left ,65,3096134675189 ,45,7008450027071 ,51,76745551833
6.2058202 ,Left ,65,3745410521114 ,45,6945784076746 ,51,7262923142164
6.2283511 ,Left ,65,3959018787154 ,45,7023236954342 ,51,6900020863859
6.2493456 ,Left ,65,4456101986788 ,45,7134788616961 ,51,6367039619955
6.2658455 ,Left ,65,5545046583461 ,45,7283003190795 ,51,55935832675
6.2882539 ,Left ,65,6992755061571 ,45,7419580458908 ,51,4568182823102
6.3093595 ,Left ,65,7910672490808 ,45,7315986253044 ,51,3784737025753
6.3251574 ,Left ,65,8701235496862 ,45,684331576899 ,51,346368483627
6.348288 ,Left ,65,9886428482437 ,45,6021132099857 ,51,3328136220682
6.3707806 ,Left ,66,0900838942535 ,45,5233022167971 ,51,3362854740364
6.3851511 ,Left ,66,1892381783643 ,45,4746715831673 ,51,3337719608921
6.4083445 ,Left ,66,3076907287384 ,45,448492096655 ,51,3187927018319
6.4308524 ,Left ,66,4384931152666 ,45,423066131138 ,51,2880423986932
6.4450336 ,Left ,66,5120965246934 ,45,3849908705904 ,51,2600822030637
6.4682601 ,Left ,66,5089681142612 ,45,3330374348786 ,51,2648484251511
6.4908933 ,Left ,66,5075325400774 ,45,294855426423 ,51,3119153406388
6.505184 ,Left ,66,5210464479618 ,45,2597521951624 ,51,3425203892476
6.5284269 ,Left ,66,5584216823142 ,45,2259650952381 ,51,3615285577282
6.5508325 ,Left ,66,5963857647813 ,45,1918815531341 ,51,3806985754451
6.5651952 ,Left ,66,614275258284 ,45,1630302384174 ,51,3913651976174
6.5883738 ,Left ,66,5949816190944 ,45,127740134236 ,51,3942331845264
6.5937287 ,Left ,66,5509493810539 ,45,0899217948937 ,51,3993279355792
6.6162126 ,Left ,66,5080336230768 ,45,0493813221127 ,51,3933451752488
6.6327088 ,Left ,66,4443094157316 ,44,996265133427 ,51,3787467533786
6.6537084 ,Left ,66,4286330982812 ,44,95271775475 ,51,3560521134633
6.676256 ,Left ,66,4589438711199 ,44,9236953365639 ,51,3130041981505
6.7001408 ,Left ,66,4940527765879 ,44,9137653871803 ,51,2750546807684
6.7136145 ,Left ,66,5407395166003 ,44,9184374356409 ,51,248440667267
6.7360913 ,Left ,66,5580451046813 ,44,9174550279529 ,51,2227015503161
6.7528848 ,Left ,66,5438411295388 ,44,8985363298509 ,51,1842204882706
6.7752001 ,Left ,66,5395537746652 ,44,8731479715273 ,51,1429314077806
6.7962537 ,Left ,66,5699612552329 ,44,8650101420449 ,51,0796181567624
6.812695 ,Left ,66,576465484217 ,44,8639583687703 ,51,0054436365255
6.8337335 ,Left ,66,5630365410621 ,44,872593675067 ,50,9345607518821
6.8643625 ,Left ,66,5529476145794 ,44,8778467316532 ,50,8802903076003
6.872741 ,Left ,66,5542089437753 ,44,879778403017 ,50,8217256202526
6.8937382 ,Left ,66,6113182011203 ,44,8878937192113 ,50,7566631757797
6.9161904 ,Left ,66,6451331037561 ,44,8999289286535 ,50,6899743568059
6.9388004 ,Left ,66,6425593166591 ,44,9080818047953 ,50,6292775696619
6.9536947 ,Left ,66,655137784111 ,44,923882778094 ,50,5681899972671
6.9791618 ,Left ,66,6809289448113 ,44,9449370319897 ,50,476122608293
6.992628 ,Left ,66,7012169516063 ,44,959388144763 ,50,3652869941576
7.0137315 ,Left ,66,6945125215308 ,44,9753603633856 ,50,2527191575461
7.0362594 ,Left ,66,6743525582573 ,44,9858239691743 ,50,1438133927574
7.0587542 ,Left ,66,690244271848 ,45,0062000475891 ,50,0276796315074
7.0736715 ,Left ,66,7147011364254 ,45,0284277520647 ,49,9186343601947
7.0961928 ,Left ,66,7152053881421 ,45,0477550782521 ,49,8184267594118
7.1186825 ,Left ,66,6891240086055 ,45,059811629827 ,49,7343899758254
7.1337415 ,Left ,66,6907995540922 ,45,0585078991007 ,49,6538037455253
7.1561914 ,Left ,66,7241937184718 ,45,0652624199568 ,49,5706103592327
7.1727248 ,Left ,66,7684474462243 ,45,0710505134952 ,49,4918381705661
7.1937927 ,Left ,66,8354781569884 ,45,0884251943799 ,49,3907960598892
7.2162584 ,Left ,66,8804841053413 ,45,1188535792597 ,49,2783979572663
7.2387543 ,Left ,66,9055642438783 ,45,1688607597411 ,49,1626352153721
7.253764 ,Left ,66,8483059186183 ,45,2109522113441 ,49,0810075808701
7.276184 ,Left ,66,7541559059828 ,45,2486648610198 ,49,0214372918413
7.2987456 ,Left ,66,6625632387386 ,45,2950626824338 ,48,9933935546377
7.3137065 ,Left ,66,6167789251369 ,45,36642800337 ,48,9881256458079
7.3361303 ,Left ,66,6063666036644 ,45,4576281774422 ,48,9884019422545
7.3586861 ,Left ,66,5918504914248 ,45,5614973671445 ,48,9785817373733
7.373755 ,Left ,66,5510646448332 ,45,6801063160107 ,48,9651139948911
7.3962521 ,Left ,66,4373492192617 ,45,7765256114584 ,48,9794382200678
7.4201627 ,Left ,66,3302298775778 ,45,8311119179317 ,48,9950548934169
7.4337391 ,Left ,66,255453914902 ,45,8624741366324 ,49,0214527054101
7.4562496 ,Left ,66,1632934860748 ,45,8760940619589 ,49,0606402713304
7.4787348 ,Left ,66,0375662745966 ,45,8726146574169 ,49,0971963809065
7.4936846 ,Left ,65,9003313616158 ,45,8538773345591 ,49,1468762257446
7.5175759 ,Left ,65,7898452602728 ,45,8247785059566 ,49,209663102672
7.5387915 ,Left ,65,7606976345797 ,45,8155571021377 ,49,2753151224094
7.5537778 ,Left ,65,7877199458503 ,45,8166870926668 ,49,3367767507302
7.5761822 ,Left ,65,7906308775312 ,45,7954466039855 ,49,3759502072276
7.5986169 ,Left ,65,7503124049698 ,45,7736883429825 ,49,4078186015188
7.6137139 ,Left ,65,6450583327957 ,45,7657788027584 ,49,4497797854505
7.6361313 ,Left ,65,5170354145291 ,45,7846265967228 ,49,5112807866262
7.6616759 ,Left ,65,4231961856763 ,45,7997506867887 ,49,5724389306404
7.6737071 ,Left ,65,3946365993914 ,45,8170239243976 ,49,6230056635688
7.6962191 ,Left ,65,3504545567823 ,45,833604778404 ,49,6598019774158
7.7187689 ,Left ,65,2527143764346 ,45,8532342763866 ,49,7010570189994
7.7352501 ,Left ,65,129091954325 ,45,8849225666475 ,49,7519458125148
7.75773 ,Left ,65,0137717633433 ,45,9267214398379 ,49,81719078012
7.7787076 ,Left ,64,9178096749474 ,45,9629245021996 ,49,8743142886384
7.7937223 ,Left ,64,8661520620049 ,46,0035836137687 ,49,9171172660017
7.8162589 ,Left ,64,8470785476335 ,46,0481976203605 ,49,9397590863482
7.838745 ,Left ,64,8382465390304 ,46,0970685194846 ,49,952465308704
7.8612332 ,Left ,64,7810146921944 ,46,1487770860283 ,49,9612016973377
7.8762224 ,Left ,64,7547140488264 ,46,181959600141 ,49,963560086739
7.8987477 ,Left ,64,7639646957821 ,46,1969590045285 ,49,9676118656198
7.9152245 ,Left ,64,7644972643443 ,46,196744932929 ,49,9677167046043
7.9362667 ,Left ,64,7310969555772 ,46,194156246472 ,49,9725508932891
7.9586668 ,Left ,64,6819205955603 ,46,1950036528698 ,49,9810797174561
7.975213 ,Left ,64,6564604548132 ,46,2004245723789 ,49,9866076467648
7.9962567 ,Left ,64,6878913998371 ,46,1958063781264 ,49,9874337638535
8.0187222 ,Left ,64,7124325400559 ,46,1914899507755 ,49,9844544669786
8.0351128 ,Left ,64,7050462610563 ,46,2029192867528 ,49,9844029881137
8.0562359 ,Left ,64,6883621816478 ,46,2221206005882 ,49,987271166532
8.0868789 ,Left ,64,7002249839946 ,46,2414442528694 ,49,9866437120476
8.0951986 ,Left ,64,6964780607746 ,46,2579980645793 ,49,9932442137567
8.1161971 ,Left ,64,6820692861274 ,46,2721824049231 ,49,9930094958624
8.1387233 ,Left ,64,6603366769864 ,46,27127625318 ,49,9929603948549
8.1552811 ,Left ,64,632626723794 ,46,2501157545762 ,49,9815107882924
8.1762582 ,Left ,64,6267010348602 ,46,222971061474 ,49,9709247213449
8.1987394 ,Left ,64,6454449077057 ,46,1924086725168 ,49,9555955460839
8.2166557 ,Left ,64,6386842784264 ,46,1808179396449 ,49,9487083982353
8.2362324 ,Left ,64,5988319433802 ,46,1878117607086 ,49,9481668694341
8.2587936 ,Left ,64,5475479372145 ,46,200878075131 ,49,9498427022001
8.2766725 ,Left ,64,4996619774831 ,46,2049496958425 ,49,9513279441339
8.2962459 ,Left ,64,4673862592768 ,46,2241943345959 ,49,9558709746377
8.3186802 ,Left ,64,4459182448853 ,46,2791583739252 ,49,9438890147126
8.336595 ,Left ,64,4282512054617 ,46,3874158613857 ,49,9291183409787
8.3562627 ,Left ,64,4452917120639 ,46,4429262090809 ,49,9607078690805
8.3787517 ,Left ,64,5729177602544 ,46,3448105557873 ,49,8848309337988
8.3966244 ,Left ,64,5880885405958 ,46,3540203032323 ,49,8069612197576
8.4162537 ,Left ,64,3904854155469 ,46,3915006479647 ,49,7636566771795
8.4387736 ,Left ,64,4017762813241 ,46,406401103493 ,49,7499084759194
8.4566643 ,Left ,64,4854825813812 ,46,4268619102967 ,49,7351961932941
8.4761908 ,Left ,64,4594669191178 ,46,4486673937355 ,49,7378354400085
8.4987127 ,Left ,64,4121438955057 ,46,4596822365772 ,49,7465279347922
8.516674 ,Left ,64,4118061022492 ,46,4693691652391 ,49,7666862945481
8.5362536 ,Left ,64,4443169891542 ,46,4927035644535 ,49,7916634313634
8.5587181 ,Left ,64,4938957041285 ,46,4968616806635 ,49,809665500894
8.5766655 ,Left ,64,5515469155885 ,46,4753995437353 ,49,8121753265078
8.6036043 ,Left ,64,5792377472054 ,46,4352508617146 ,49,7803834240291
8.6187853 ,Left ,64,5416962667009 ,46,3917173849829 ,49,7570367281884
8.642727 ,Left ,64,4937772368519 ,46,3712818403139 ,49,7458986014929
8.6637217 ,Left ,64,4848500512063 ,46,3649512245113 ,49,7329798838674
8.6786964 ,Left ,64,5296154693382 ,46,3704208388502 ,49,7217604391731
8.6966838 ,Left ,64,5917666418222 ,46,3778577433109 ,49,7094137644894
8.7162536 ,Left ,64,6052608191769 ,46,374411811572 ,49,6886161735914
8.7388068 ,Left ,64,5809022900902 ,46,3698001271446 ,49,6738574870269
8.7566566 ,Left ,64,5484543490345 ,46,3621943392231 ,49,661096326206
8.7762299 ,Left ,64,5336714183666 ,46,3401541260148 ,49,6497435000965
8.7987589 ,Left ,64,5119737741381 ,46,3249928216952 ,49,6383063656282
8.8164669 ,Left ,64,4952341199827 ,46,3244263903257 ,49,6184886934526
8.8380708 ,Left ,64,405776947365 ,46,3413690469923 ,49,5919036730099
8.85933 ,Left ,64,4186786739482 ,46,3959681406071 ,49,5950697164701
8.8767427 ,Left ,64,4621854320099 ,46,4385293501389 ,49,6108925274226
8.8977099 ,Left ,64,4889270088812 ,46,3493200572788 ,49,5638462845815
8.9187318 ,Left ,64,522667260733 ,46,3062364247627 ,49,4928910452606
8.9366665 ,Left ,64,4321803941643 ,46,2841720008696 ,49,4651543290287
8.9577046 ,Left ,64,4650479048467 ,46,2680347062735 ,49,4552921471596
8.9786978 ,Left ,64,5235011187936 ,46,2429644058234 ,49,4528409091295
8.9966539 ,Left ,64,4417272151838 ,46,2377653234558 ,49,4521802523889
9.017735 ,Left ,64,3967874622321 ,46,2416120763488 ,49,4573420282237
9.0387383 ,Left ,64,393785482858 ,46,3045672284266 ,49,4623851581042
9.0566566 ,Left ,64,3250094346266 ,46,3914900605691 ,49,5131514344147
9.0776644 ,Left ,64,2622197000583 ,46,4000592352153 ,49,5594740993198
9.0987583 ,Left ,64,4161844788386 ,46,2794328825318 ,49,5256713407023
9.1166768 ,Left ,64,5414691343257 ,46,2259250802203 ,49,4770892797058
9.1437379 ,Left ,64,4284795816147 ,46,2445523331816 ,49,4484005664595
9.1587084 ,Left ,64,393184116501 ,46,2358365571091 ,49,4422131570356
9.1766928 ,Left ,64,4179134467637 ,46,260020072611 ,49,435473265834
9.1991881 ,Left ,64,3892626719631 ,46,3155457098135 ,49,4400649410423
9.2186649 ,Left ,64,4058232557383 ,46,3817599215324 ,49,4593876904874
9.2366045 ,Left ,64,3952273681232 ,46,4635418988616 ,49,5202416927591
9.2592148 ,Left ,64,3223434147417 ,46,5335338439212 ,49,601816418141
9.2787514 ,Left ,64,2129181755562 ,46,4796350023708 ,49,6014257869963
9.2966706 ,Left ,64,2469641283323 ,46,4161046617775 ,49,4998359980916
9.3191203 ,Left ,64,2374921609057 ,46,3796094908842 ,49,4182555421484
9.3387765 ,Left ,64,1504329618289 ,46,3797459334955 ,49,3879705356365
9.3626476 ,Left ,64,122372443696 ,46,3895923349184 ,49,3786628558083
9.3792215 ,Left ,64,1196713620211 ,46,3991348327926 ,49,3770422277211
9.398733 ,Left ,64,0840437232216 ,46,407942741176 ,49,3836281940829
9.4166998 ,Left ,64,0765472949765 ,46,4213235350882 ,49,4017137324327
9.4391041 ,Left ,64,1259059122058 ,46,4370685336493 ,49,4290606367483
9.4587821 ,Left ,64,1249973967875 ,46,4329133337112 ,49,4056863526068
9.4767025 ,Left ,64,1025946492839 ,46,3934754730776 ,49,3808926660495
9.4992189 ,Left ,64,1230246822956 ,46,3321542983219 ,49,357793353045
9.5186749 ,Left ,64,0890521044889 ,46,2886433828635 ,49,3284200588902
9.5412441 ,Left ,63,9429698809728 ,46,2828129516318 ,49,3097431681984
9.5592152 ,Left ,63,8146531492238 ,46,2949117859419 ,49,2928374983052
9.5787765 ,Left ,63,8054145220547 ,46,308883854187 ,49,2725246917409
9.6018796 ,Left ,63,8110687800657 ,46,331029467699 ,49,2476140687114
9.618342 ,Left ,63,7450310055843 ,46,3787795098801 ,49,2135765022101
9.6413729 ,Left ,63,6444803359917 ,46,453069574419 ,49,2128895100066
9.661283 ,Left ,63,5915147472808 ,46,5360674682759 ,49,2273440666208
9.6791576 ,Left ,63,6863616901895 ,46,4608127548867 ,49,1319153812086
9.7017109 ,Left ,63,8498750455592 ,46,4129533439825 ,49,0073390010352
9.7218504 ,Left ,63,7917550154457 ,46,3761407633978 ,48,9676530209631
9.7392095 ,Left ,63,7501637933803 ,46,3758017686001 ,48,9705616749825
9.7601454 ,Left ,63,7943220627433 ,46,4032913220713 ,48,960451529211
9.7812485 ,Left ,63,8557190714199 ,46,382031702554 ,48,9663302608053
9.7981833 ,Left ,63,9979601746911 ,46,3393263451471 ,48,9772995584497
9.8208382 ,Left ,64,0539097616303 ,46,2856677763436 ,49,0008281588517
9.8418742 ,Left ,63,9358225909914 ,46,2374494160472 ,49,0409834250389
9.8583477 ,Left ,63,846788365319 ,46,2413337525843 ,49,0934561613822
9.8808698 ,Left ,63,8506687820557 ,46,2984856860303 ,49,1283787859354
9.9018529 ,Left ,63,8400622025789 ,46,3697720069088 ,49,1478708951878
9.9183754 ,Left ,63,8275234848054 ,46,36126991471 ,49,1670219741365
9.9408069 ,Left ,63,8697592770716 ,46,2157602781741 ,49,1474104512705
9.9618807 ,Left ,63,990139079033 ,46,1445008894239 ,49,0977869993676
9.9783625 ,Left ,63,9343100916976 ,46,1705925186645 ,49,0636919079833
10.0008528 ,Left ,63,9167421117123 ,46,177436177746 ,49,0779146300138
10.0219305 ,Left ,64,0039570650841 ,46,1533104486086 ,49,087217081946
10.0382893 ,Left ,63,9462808605894 ,46,1566309426444 ,49,1115994601144
10.0608293 ,Left ,63,8920441736339 ,46,1793251565759 ,49,1640118277421
10.0819703 ,Left ,63,9808506258331 ,46,2141401770745 ,49,2226907221951
10.0991829 ,Left ,64,0619517329728 ,46,2180468734184 ,49,2961936648198
10.1292081 ,Left ,64,0884438569631 ,46,1960979540078 ,49,3686364056171
10.1418648 ,Left ,64,1232232725267 ,46,1336938296698 ,49,4058976189852
10.1591802 ,Left ,64,1047235778461 ,46,0604690699422 ,49,4428297914133
10.1808197 ,Left ,64,0620414195444 ,46,0098934941268 ,49,4805576073159
10.2018438 ,Left ,64,0390598962572 ,45,9962062161645 ,49,5162022501608
10.2183859 ,Left ,64,0481425934624 ,46,0030988333052 ,49,5420908601275
10.2408609 ,Left ,64,1041074070737 ,46,0221738049532 ,49,5652967277881
10.2618732 ,Left ,64,1705194354422 ,46,0175614145985 ,49,5912519858625
10.278321 ,Left ,64,1912248913786 ,46,0148228489208 ,49,6176378823223
10.3008218 ,Left ,64,1544720792759 ,46,0115042189649 ,49,6512031596596
10.3219185 ,Left ,64,1127537008738 ,46,0044914651757 ,49,6749513839166
10.3387872 ,Left ,64,1445887062372 ,46,0045474097376 ,49,6945097329291
10.3612432 ,Left ,64,2167803160003 ,45,9994618796243 ,49,7109644499187
10.3819094 ,Left ,64,2598759071414 ,46,0097641104361 ,49,7255579956388
10.3983743 ,Left ,64,2413707543081 ,46,0290661146457 ,49,7416385715009
10.4209144 ,Left ,64,2071439017677 ,46,0509957652586 ,49,7586554874523
10.4466662 ,Left ,64,2035228028122 ,46,0688731123743 ,49,7762744376905
10.4596637 ,Left ,64,2344032504013 ,46,0806084287127 ,49,7845691604116
10.4787376 ,Left ,64,2368015143234 ,46,0511693454666 ,49,796036468959
10.4951877 ,Left ,64,2659874471349 ,46,2135791476569 ,49,8075019498765
10.5176855 ,Left ,64,2590829267354 ,45,9950893686017 ,49,8379047652858
10.5387615 ,Left ,64,3620954486598 ,45,9985608105905 ,49,8458369210132
10.5611683 ,Left ,64,4727148500377 ,46,0438659625023 ,49,8428783330942
10.5776623 ,Left ,64,5605395803839 ,46,0225151281012 ,49,8495557972968
10.5987539 ,Left ,64,5825674311922 ,45,9088931621198 ,49,873644244811
10.6212429 ,Left ,64,5527058096471 ,45,7275632781291 ,49,912802647136
10.6377124 ,Left ,64,5531661693724 ,45,7188834929299 ,49,9303528156929
10.6588128 ,Left ,64,5487480253556 ,45,7295424325961 ,49,9580906958402
10.6812655 ,Left ,64,5271409782046 ,45,73947469322 ,49,9809707579569
10.697707 ,Left ,64,5090539657619 ,45,7481552057433 ,50,0010386042029
10.7187227 ,Left ,64,4988752266727 ,45,7580127452753 ,50,0224484196223
10.7413149 ,Left ,64,516396724883 ,45,7662643928501 ,50,0479547735861
10.757736 ,Left ,64,4897998634956 ,45,7183355124361 ,50,0914420022514
10.7787278 ,Left ,64,5711049315825 ,45,5691241393385 ,50,0945026648019
10.8012415 ,Left ,64,4321286095162 ,45,6093871553649 ,50,1486307139301
10.8177006 ,Left ,64,3894681771356 ,45,6326619258191 ,50,1788247568133
10.8388734 ,Left ,64,3849067548369 ,45,6458617776639 ,50,1925508160532
10.8612762 ,Left ,64,4090516423183 ,45,6599191167081 ,50,2004167753975
10.8776495 ,Left ,64,4223104210476 ,45,6732141961357 ,50,2070967303275
10.8987248 ,Left ,64,4097211090164 ,45,6839260372677 ,50,2139062033784
10.9212739 ,Left ,64,3858573341431 ,45,7024014555568 ,50,2240931236856
10.9376494 ,Left ,64,3766756394343 ,45,7245067885043 ,50,233799920721
10.9587329 ,Left ,64,3903762093965 ,45,7437621201764 ,50,236956237668
10.9812405 ,Left ,64,4106056564626 ,45,7604172558699 ,50,2400967652983
10.997573 ,Left ,64,404680303909 ,45,7761221917004 ,50,2487614749002
11.0186527 ,Left ,64,3838300556562 ,45,7993240882167 ,50,262529325585
11.0412871 ,Left ,64,3758513931525 ,45,8231781644941 ,50,281746230818
11.0576695 ,Left ,64,3905968467486 ,45,8399183457834 ,50,2944274194522
11.0786904 ,Left ,64,4037153199569 ,45,8513964908421 ,50,3047526587925
11.1012808 ,Left ,64,3889287513399 ,45,8629492396577 ,50,3144837125505
11.117674 ,Left ,64,3700084464566 ,45,8692183568752 ,50,3266524793654
11.141634 ,Left ,64,3664363732839 ,45,8729831928576 ,50,333058982627
11.1612151 ,Left ,64,3667055440449 ,45,8745506700078 ,50,3340532343227
11.1776423 ,Left ,64,36657391806 ,45,8772145634569 ,50,3331180548323
11.2002156 ,Left ,64,3663033432229 ,45,8790066599635 ,50,3339801568305
11.2212528 ,Left ,64,3663033432229 ,45,8790066599635 ,50,3339801568305
11.2376181 ,Left ,64,3661718962895 ,45,8816703558267 ,50,333045064128
11.2601997 ,Left ,64,3696479415195 ,45,8896696890257 ,50,3341170522609
11.2812681 ,Left ,64,3844342604724 ,45,8939197535102 ,50,3365417699857
11.2976641 ,Left ,64,4080620763977 ,45,8945454519089 ,50,3405423742851
11.3202174 ,Left ,64,425619935855 ,45,900402076633 ,50,339161867399
11.3433339 ,Left ,64,4119532847765 ,45,9049809784128 ,50,3408269107417
11.3577483 ,Left ,64,3993663340162 ,45,9023974031295 ,50,3390339123996
11.3808812 ,Left ,64,39743078372 ,45,902484954664 ,50,3348013489618
11.4034258 ,Left ,64,3973862224684 ,45,8900362802418 ,50,3245226174846
11.4177272 ,Left ,64,3928027143124 ,45,8802864508393 ,50,3138904052529
11.4408538 ,Left ,64,3586893010912 ,45,8709261619965 ,50,3114326596661
11.4633948 ,Left ,64,3036610130147 ,45,8672046301734 ,50,3141327834745
11.4776389 ,Left ,64,2672978927642 ,45,8759556845844 ,50,3101939480799
11.5008609 ,Left ,64,212934533729 ,45,9199457666042 ,50,2901203003449
11.523338 ,Left ,64,1527040522335 ,46,0186020991686 ,50,2967672346832
11.5377685 ,Left ,64,1106626073373 ,46,0030956503907 ,50,2900450874006
11.560897 ,Left ,64,1961979582275 ,45,9863649713184 ,50,2218489515886
11.5832178 ,Left ,64,2213641115619 ,46,0136338761202 ,50,1297368491235
11.6044753 ,Left ,64,1945326026321 ,46,0411044478505 ,50,0851981227363
11.6208226 ,Left ,64,2641225966766 ,46,0325469185571 ,50,0575309257821
11.643512 ,Left ,64,2575008246003 ,46,0072532545682 ,50,0480589558862
11.6644494 ,Left ,64,1879603896711 ,45,9940984892779 ,50,0571735786873
11.6808963 ,Left ,64,1602264428333 ,46,0099424566642 ,50,0639105686365
11.703424 ,Left ,64,188686214533 ,46,0311881971066 ,50,0659272225991
11.7244194 ,Left ,64,2473481182974 ,46,0537360502507 ,50,0565126563935
11.740901 ,Left ,64,2718962225929 ,46,0684042462739 ,50,0453877820672
11.7641627 ,Left ,64,2617523776266 ,46,0718877624079 ,50,0350985340807
11.7844874 ,Left ,64,2372141696135 ,46,0689966263386 ,50,0260057539269
11.8008541 ,Left ,64,2177546520762 ,46,0690084885581 ,50,0239900452176
11.8234058 ,Left ,64,2204957029796 ,46,070618917026 ,50,0201814676782
11.8444498 ,Left ,64,2410660111285 ,46,0774909949294 ,50,0078573886883
11.8683741 ,Left ,64,2235404865443 ,46,0788389346243 ,49,9934681021054
11.8834393 ,Left ,64,183715445782 ,46,081182476597 ,49,9799280438656
11.9043864 ,Left ,64,1616917490271 ,46,0768969826349 ,49,9826551238173
11.9200763 ,Left ,64,1544752552231 ,46,0687522885793 ,49,9776833586545
11.9433676 ,Left ,64,1331679149569 ,46,0617255221018 ,49,9769188875571
11.9644115 ,Left ,64,0984648738227 ,46,0564471047708 ,49,9786784042292
11.9809133 ,Left ,64,0574850610761 ,46,057897502766 ,49,9803947645452
12.0032978 ,Left ,64,0051028724618 ,46,0820478790992 ,49,9723317347014
12.0258785 ,Left ,63,9123852308558 ,46,1387815059329 ,49,9778934524405
12.0408841 ,Left ,63,8527818165932 ,46,1735460976575 ,50,0078050645427
12.0633503 ,Left ,63,8923663660867 ,46,0873574112682 ,49,9887164158685
12.0858433 ,Left ,63,9627842062864 ,46,0337206030122 ,49,9007710700311
12.1068752 ,Left ,63,9002216389994 ,46,0081879824655 ,49,8426264620691
12.1235364 ,Left ,63,9072329192537 ,46,0059340108073 ,49,8234286062118
12.1458718 ,Left ,63,9841652977252 ,46,0054349261293 ,49,815565441623
12.1602215 ,Left ,63,9367034739693 ,46,0041550622389 ,49,8145382627715
12.1833808 ,Left ,63,8685526433079 ,46,001234351923 ,49,8240427829082
12.2058492 ,Left ,63,8576457926737 ,46,0094675184237 ,49,8356301000749
12.2268766 ,Left ,63,8287311496391 ,46,0380502705697 ,49,8612002965923
12.2434032 ,Left ,63,7926860992823 ,46,0814078149512 ,49,8881289600373
12.2659268 ,Left ,63,7763501152796 ,46,1335617673016 ,49,907836165656
12.2868818 ,Left ,63,6971977378868 ,46,1958116262597 ,49,9268335965423
12.3032994 ,Left ,63,6387063377136 ,46,2381561195653 ,49,9445870493849
12.3258922 ,Left ,63,7696592633965 ,46,1244259589703 ,49,8957667630642
12.3468934 ,Left ,63,967499481829 ,46,0791514608088 ,49,8219321865213
12.3634392 ,Left ,63,9381523016988 ,46,1037367966366 ,49,7680256580941
12.3858374 ,Left ,63,8899547501387 ,46,0977628205041 ,49,7583007296642
12.406918 ,Left ,63,9352610398821 ,46,0771043617889 ,49,7514578052109
12.4232881 ,Left ,63,8851097929045 ,46,0705362504246 ,49,7614414507273
12.4459234 ,Left ,63,8570520265963 ,46,0971033569523 ,49,781699402018
12.4602246 ,Left ,63,9274979316678 ,46,1230362187476 ,49,8109646875705
12.4833354 ,Left ,63,9629834131416 ,46,1561656514349 ,49,8520670388312
12.5060238 ,Left ,63,9419710141622 ,46,1856924411317 ,49,8881099306686
12.5268692 ,Left ,63,9401184735061 ,46,1908430418268 ,49,9188510566783
12.5433643 ,Left ,63,9706675146409 ,46,2031152768173 ,49,9445841451842
12.5658712 ,Left ,63,9507143514267 ,46,1568304917061 ,49,9902195246685
12.5868546 ,Left ,63,8728313899739 ,46,1230323087624 ,50,0399226205201
12.603426 ,Left ,63,8273729064525 ,46,1693936380774 ,50,0757234353087
12.6258419 ,Left ,63,9033332520011 ,46,2096446079987 ,50,0724505821214
12.646875 ,Left ,63,9136547918473 ,46,1127770618053 ,50,0843243800264
12.663382 ,Left ,63,9279323599962 ,46,1432882105211 ,50,1141872941321
12.685877 ,Left ,64,0300242572444 ,46,1223935117343 ,50,1179181297629
12.7069569 ,Left ,63,9987526634153 ,46,0311407196342 ,50,1503097763411
12.7233726 ,Left ,64,0697450936419 ,46,1082872765509 ,50,1518041284718
12.7458566 ,Left ,64,0048640905705 ,46,0233994510944 ,50,1567343448916
12.766878 ,Left ,64,0184602777958 ,46,1137787817394 ,50,1651186358695
12.7831593 ,Left ,64,0605693938364 ,46,0676214498028 ,50,1426307052794
12.8058745 ,Left ,64,0566506404809 ,46,1711232717376 ,50,1441660280195
12.828338 ,Left ,64,044379943205 ,46,1286063612081 ,50,1212510606879
12.8434298 ,Left ,64,0215906780797 ,46,1600318632134 ,50,1171876493314
12.8658522 ,Left ,64,006642929912 ,46,1738980860579 ,50,1081191566656
12.886871 ,Left ,64,0020044968102 ,46,1803508687435 ,50,0947038842256
12.9034555 ,Left ,64,0038600817289 ,46,1748646708202 ,50,0787480759234
12.925878 ,Left ,64,0082957840292 ,46,1631408825761 ,50,0662779663417
12.9483145 ,Left ,63,9837119986541 ,46,1433483075557 ,50,0470164892502
12.9694123 ,Left ,63,9538682502579 ,46,1211920233158 ,50,0336175456081
12.9858585 ,Left ,63,928034859495 ,46,1103177281114 ,50,0186226404644
13.0083965 ,Left ,63,9022307965999 ,46,1027916317655 ,50,0054290371469
13.0308831 ,Left ,63,86246200864 ,46,1032333541685 ,49,9954417347204
13.0458515 ,Left ,63,8083805157439 ,46,119545240064 ,49,9857301549263
13.0684247 ,Left ,63,780452707104 ,46,1633429758762 ,49,9687017881606
13.0834491 ,Left ,63,8022271414048 ,46,2487866199573 ,49,9774000104317
13.1058689 ,Left ,63,7929385331537 ,46,2874301938063 ,49,983465127282
13.1283609 ,Left ,63,8786629389665 ,46,2186692342386 ,49,8984341770661
13.1493894 ,Left ,63,9060578591328 ,46,2270182555918 ,49,808201549811
13.1658758 ,Left ,63,7887778246446 ,46,2500672188878 ,49,766267525645
13.1884136 ,Left ,63,7898565760368 ,46,2362928649149 ,49,7491137484533
13.2094305 ,Left ,63,7918571326137 ,46,220296299888 ,49,7414829298502
13.2258952 ,Left ,63,7415634108303 ,46,2009958437651 ,49,755898774891
13.2483275 ,Left ,63,731498725075 ,46,178913377787 ,49,7769970010759
13.2627469 ,Left ,63,7377017355887 ,46,1718370404759 ,49,8010210945575
13.2858878 ,Left ,63,7429690437141 ,46,1930755829194 ,49,8383568857996
13.3083485 ,Left ,63,7467632063097 ,46,2036485718422 ,49,8339560435685
13.3226736 ,Left ,63,8165688828351 ,46,1763986993311 ,49,8431110368932
13.345896 ,Left ,63,926426389654 ,46,1462666107092 ,49,8586108865828
13.3684195 ,Left ,63,9625085145504 ,46,1366999159972 ,49,8518561363258
13.3894037 ,Left ,63,8651047878389 ,46,1476011297095 ,49,83013024611
13.405861 ,Left ,63,7593141888984 ,46,1719811118997 ,49,8028719184781
13.428294 ,Left ,63,7544158106669 ,46,172769836229 ,49,7691787588212
13.4568542 ,Left ,63,8259758090571 ,46,1662817441522 ,49,7380930958993
13.4658965 ,Left ,63,8495096527929 ,46,1842493308223 ,49,7110510784105
13.488382 ,Left ,63,7948728857455 ,46,2142171687757 ,49,6843644004965
13.5094282 ,Left ,63,7226215250672 ,46,2447744204458 ,49,6623122988899
13.5263134 ,Left ,63,6886925989286 ,46,2651124364694 ,49,6261500730458
13.5483921 ,Left ,63,6520471806296 ,46,2804613046195 ,49,5862484692425
13.5693982 ,Left ,63,6173092033572 ,46,3059511814265 ,49,5570225202071
13.5858708 ,Left ,63,5344878252267 ,46,3462795374956 ,49,5127034425093
13.6083842 ,Left ,63,4364585725674 ,46,429364933371 ,49,5126898593434
13.636868 ,Left ,63,388993794155 ,46,4499683182444 ,49,4892196596384
13.6451632 ,Left ,63,5190203622782 ,46,3609713885451 ,49,3816333020964
13.6685265 ,Left ,63,5915953649377 ,46,3125853047455 ,49,3120374707506
13.6893767 ,Left ,63,5307751251752 ,46,2904383846113 ,49,2795690220038
13.7052131 ,Left ,63,4738258570906 ,46,2775297053092 ,49,2787641979955
13.7284011 ,Left ,63,4573890707288 ,46,2563176648279 ,49,2885736535876
13.7494421 ,Left ,63,4892485323842 ,46,2256777987754 ,49,3069488573168
13.7659215 ,Left ,63,5499113397861 ,46,1995301278348 ,49,3321717542173
13.7883436 ,Left ,63,5499523290911 ,46,2016559543911 ,49,3654206706268
13.8093235 ,Left ,63,5224556674425 ,46,2395026652381 ,49,4076013347297
13.8258984 ,Left ,63,5153391020289 ,46,3056352312887 ,49,4427482636398
13.8484227 ,Left ,63,5427084446142 ,46,3614866253837 ,49,4691083875849
13.8694469 ,Left ,63,6106173369847 ,46,3688930915597 ,49,4900139385617
13.8852358 ,Left ,63,6982538666173 ,46,2567487125739 ,49,4879437617523
13.9081399 ,Left ,63,8338679421351 ,46,1892629702572 ,49,4220684295835
13.9309402 ,Left ,63,7913261380048 ,46,1937645781822 ,49,3500260831216
13.9452386 ,Left ,63,7033014005915 ,46,1993410834796 ,49,3446007126968
13.9683738 ,Left ,63,7820789420105 ,46,1785880304127 ,49,3462776538323
13.9909005 ,Left ,63,7776251692412 ,46,1707298775368 ,49,3541043232042
14.0058357 ,Left ,63,6899998720055 ,46,1874812090075 ,49,3859107843335
14.0283307 ,Left ,63,7417977928943 ,46,2194165230651 ,49,4200205109433
14.0509434 ,Left ,63,8380102312102 ,46,2361572292431 ,49,4649934875692
14.0719362 ,Left ,63,8965199435762 ,46,2360777017233 ,49,5159057218043
14.088281 ,Left ,63,9150046250216 ,46,2070140879888 ,49,553737700081
14.1108694 ,Left ,63,9019237306219 ,46,1493965674793 ,49,5717069806932
14.1319563 ,Left ,63,8694248913684 ,46,0972458847792 ,49,5988348041802
14.148305 ,Left ,63,8412686354202 ,46,0636503293507 ,49,636570724539
14.1708768 ,Left ,63,8437438857241 ,46,0464538851096 ,49,6779563241594
14.1852178 ,Left ,63,8992173952524 ,46,0167923028888 ,49,7129008005011
14.2083019 ,Left ,63,9305011406001 ,45,9901802405273 ,49,7525877673104
14.2307905 ,Left ,63,9347659360128 ,45,9721016023375 ,49,7954287465496
14.2450616 ,Left ,63,9278217577255 ,45,9643685094034 ,49,8359279271845
14.2684534 ,Left ,63,9625989032091 ,45,9568286239616 ,49,8710898548083
14.2909589 ,Left ,64,0177144794581 ,45,944020893546 ,49,901071355569
14.3052042 ,Left ,64,0682220048202 ,45,9401503069854 ,49,916684819268
14.3282739 ,Left ,64,0657193536601 ,45,9396907611628 ,49,936292179185
14.3507995 ,Left ,64,0516841741801 ,45,9444704813332 ,49,9599357661653
14.3650314 ,Left ,64,0661242436271 ,45,9441772509712 ,49,9817132705782
14.3882675 ,Left ,64,0960412924803 ,45,9464355663411 ,50,0006023710443
14.4106786 ,Left ,64,1219020114274 ,45,9468397996639 ,50,0192104306409
14.4317275 ,Left ,64,1413759272232 ,45,9463692762322 ,50,0359652795145
14.4482417 ,Left ,64,1487108361785 ,45,9448366190657 ,50,0473248123266
14.4709556 ,Left ,64,1730321486494 ,45,9433879849896 ,50,0608532385596
14.4918094 ,Left ,64,1983490625563 ,45,9477772823003 ,50,066365115405
14.5083388 ,Left ,64,2057137583649 ,45,9532421120797 ,50,0722508206988
14.5308305 ,Left ,64,2096575531066 ,45,9610569688123 ,50,0734311482012
14.5518574 ,Left ,64,2151038040785 ,45,9664031446624 ,50,0796617740633
14.5682247 ,Left ,64,2340177600456 ,45,9699444253065 ,50,083335335791
14.5908703 ,Left ,64,2536074577557 ,45,9799023044711 ,50,0919080057983
14.6118797 ,Left ,64,2633254339086 ,45,9773248372786 ,50,104837369261
14.6283868 ,Left ,64,2699494030454 ,45,9617111325948 ,50,1094217140218
14.6507681 ,Left ,64,2850778033248 ,45,9512327699364 ,50,1155605577399
14.6718389 ,Left ,64,2881346224187 ,45,9441681832318 ,50,1117705017377
14.6882547 ,Left ,64,2803178521872 ,45,9396655166787 ,50,108532253096
14.7107671 ,Left ,64,2757772003325 ,45,9458529216109 ,50,1054393790135
14.7318392 ,Left ,64,2790093919342 ,45,9667874026495 ,50,1065341853725
14.74817 ,Left ,64,2869326652232 ,45,9894412785706 ,50,1034797235587
14.7707308 ,Left ,64,2931061456367 ,46,0026052347592 ,50,0980312475219
14.7916775 ,Left ,64,298723906216 ,46,0123098717387 ,50,0997626031262
14.808163 ,Left ,64,3052993615889 ,46,0208635668657 ,50,0989565083382
14.8307828 ,Left ,64,3046070766543 ,46,0235816744098 ,50,1024738038581
14.8531923 ,Left ,64,3046070766543 ,46,0235816744098 ,50,1024738038581
14.86818 ,Left ,64,3046070766543 ,46,0235816744098 ,50,1024738038581
14.8907378 ,Left ,64,3065378028026 ,46,0236896130198 ,50,1021372668674
14.913207 ,Left ,64,3017231047044 ,46,0246226256007 ,50,1053509265894
14.9274505 ,Left ,64,2900420003236 ,46,0256779997188 ,50,1093447448432
14.9506301 ,Left ,64,3045929549343 ,46,0325469185571 ,50,1154571125587
14.9732696 ,Left ,64,3301732121232 ,46,0343458575263 ,50,1174229717716
14.987515 ,Left ,64,3326435671678 ,46,034230840531 ,50,1172018755713
15.0108343 ,Left ,64,3274172248117 ,46,0396113294335 ,50,1203478833358
15.0339345 ,Left ,64,3355261719454 ,46,0491895974215 ,50,1218745816904
15.0483375 ,Left ,64,356575401728 ,46,0605253313556 ,50,1226095775642
15.0776332 ,Left ,64,3642928094806 ,46,0676605837423 ,50,1249616615767
15.0936796 ,Left ,64,3642928094806 ,46,0676605837423 ,50,1249616615767
15.1080418 ,Left ,64,3667639706696 ,46,0675458723135 ,50,1247428845421
15.1308332 ,Left ,64,3664916437247 ,46,0693346375755 ,50,1256075695156
15.1533158 ,Left ,64,3664916437247 ,46,0693346375755 ,50,1256075695156
15.1676905 ,Left ,64,3664916437247 ,46,0693346375755 ,50,1256075695156
15.1913663 ,Left ,64,3598886934882 ,46,067671223278 ,50,1255139235733
15.2135964 ,Left ,64,3488780301361 ,46,0658540379553 ,50,130534138179
15.2278812 ,Left ,64,3393995318082 ,46,0652283632706 ,50,1333155353435
15.2510455 ,Left ,64,3322562998832 ,46,0636220777442 ,50,1376700111929
15.2735942 ,Left ,64,3361114405044 ,46,0670269778182 ,50,1434037063947
15.2877136 ,Left ,64,3300894332618 ,46,0742549175821 ,50,1518503519532
15.31113 ,Left ,64,3265461079437 ,46,0848895146578 ,50,1573545765068
15.3333647 ,Left ,64,3191503762942 ,46,0953228323202 ,50,1635195571027
15.3546485 ,Left ,64,3131561768434 ,46,1060740425013 ,50,1692312363854
15.3708432 ,Left ,64,3071780922252 ,46,1166699577679 ,50,1794969296905
15.3933922 ,Left ,64,3143847138618 ,46,1203299631684 ,50,1890128769242
15.4144293 ,Left ,64,3314443440228 ,46,1167902016578 ,50,1939985933336
15.4311467 ,Left ,64,3398415995128 ,46,1106289996434 ,50,2010020682829
15.453308 ,Left ,64,3407123904726 ,46,1073127248416 ,50,2122784150229
15.4745817 ,Left ,64,3503878039452 ,46,103946410378 ,50,2224608107832
15.4907738 ,Left ,64,3691492972994 ,46,0985692025101 ,50,2352479039588
15.5136263 ,Left ,64,3704201955349 ,46,094318744056 ,50,2438691399223
15.5343902 ,Left ,64,3561651825195 ,46,1015526170768 ,50,2489599356407
15.5511615 ,Left ,64,3378309973965 ,46,1207997904433 ,50,2519642941929
15.5733137 ,Left ,64,3226213616947 ,46,1491124763697 ,50,2541353211185
15.5944312 ,Left ,64,3192044697902 ,46,1701493053864 ,50,2560054326348
15.6112367 ,Left ,64,3270199377526 ,46,1841243297438 ,50,2574803855916
15.633573 ,Left ,64,328224901574 ,46,1929396138187 ,50,2615659255424
15.6544694 ,Left ,64,3368757155636 ,46,1849772376089 ,50,2677308485676
15.6709702 ,Left ,64,3609914715132 ,46,1621571493203 ,50,2756240740171
15.6933286 ,Left ,64,3896612543006 ,46,1331009518044 ,50,2865895287428
15.7144298 ,Left ,64,4092759112411 ,46,1060355433552 ,50,2948982798932
15.7308453 ,Left ,64,4123279367955 ,46,0788422359653 ,50,3010564024119
15.7532664 ,Left ,64,410590714815 ,46,056123824628 ,50,307703789439
15.7744032 ,Left ,64,4241752426614 ,46,0377829327362 ,50,3078316637161
15.7910982 ,Left ,64,4475510795315 ,46,0217711660659 ,50,301575843215
15.8136418 ,Left ,64,4573128776075 ,46,0172128431866 ,50,2960663662508
15.8361227 ,Left ,64,4532911959565 ,46,0163368775522 ,50,2939684671514
15.8583706 ,Left ,64,4535555565293 ,46,0145500261021 ,50,2931018555102
15.8734859 ,Left ,64,4678790804681 ,46,0143721826785 ,50,2825229562867
15.8961155 ,Left ,64,4512665590557 ,46,0144338710262 ,50,2758658623601
15.9110387 ,Left ,64,4190702526352 ,46,0120458508538 ,50,272034092715
15.9333204 ,Left ,64,4000071785657 ,46,0085040436404 ,50,2728914160788
15.9561578 ,Left ,64,4080231026987 ,46,0033813775308 ,50,2779492261873
15.970326 ,Left ,64,4302309312308 ,45,9970216172519 ,50,2787839875333
15.9933532 ,Left ,64,4209871163715 ,45,9911108179998 ,50,2834305517024
16.0220546 ,Left ,64,3925469490786 ,45,9843285462581 ,50,2880280464298
16.0301838 ,Left ,64,3809726921203 ,45,982780548874 ,50,2929644563437
16.0534408 ,Left ,64,3809726921203 ,45,982780548874 ,50,2929644563437
16.076035 ,Left ,64,4007033562385 ,45,9834335021134 ,50,2931423882307
16.0901865 ,Left ,64,4064060680955 ,45,996621386438 ,50,2921647877063
16.1210148 ,Left ,64,385116522748 ,46,0169525148797 ,50,2981361275857
16.1358911 ,Left ,64,3661862969157 ,46,0329279523936 ,50,303806910899
16.1585622 ,Left ,64,3500948371516 ,46,0340808286853 ,50,3083497676938
16.1734117 ,Left ,64,3314282055076 ,46,0227441036083 ,50,3074341291265
16.195805 ,Left ,64,2947459812745 ,46,0091018869497 ,50,3095881580521
16.2171295 ,Left ,64,2673149718661 ,46,0013433087134 ,50,3070973154564
16.2335704 ,Left ,64,2139243563227 ,46,0048082796656 ,50,2805217339394
16.2634039 ,Left ,64,1768369172278 ,46,032049760127 ,50,2697655785764
16.2700758 ,Left ,64,1531286314974 ,46,1170206684812 ,50,2720467270628
16.3011061 ,Left ,64,0438813161195 ,46,0905826726747 ,50,2702437649514
16.3159988 ,Left ,64,1088839150219 ,46,0711112457568 ,50,1881749285688
16.3370862 ,Left ,64,1363663017792 ,46,1016484438732 ,50,0886141563121
16.3533377 ,Left ,64,1187434826401 ,46,1243459281509 ,50,0475272682381
16.375943 ,Left ,64,1430881229805 ,46,1292371549226 ,50,0207170979987
16.3969182 ,Left ,64,0799443387393 ,46,1082833656633 ,50,0360005523572
16.4134999 ,Left ,64,0354050465242 ,46,091595621799 ,50,0679915304421
16.4360095 ,Left ,64,0292606627043 ,46,0979142700188 ,50,0827200248534
16.4569268 ,Left ,64,0170608352778 ,46,1293108265323 ,50,0818094666526
16.4733791 ,Left ,63,9611047163963 ,46,1405978335587 ,50,0698094767338
16.4960736 ,Left ,63,9176312997824 ,46,1184467093036 ,50,0670564973138
16.5171079 ,Left ,63,9241969483408 ,46,0864500247992 ,50,0792977108551
16.5340608 ,Left ,63,9458090044704 ,46,0626640839532 ,50,0719625053464
16.5559636 ,Left ,63,9001147793077 ,46,0391697735842 ,50,0539072187031
16.5771611 ,Left ,63,828282513405 ,46,0768984499426 ,50,0564394015702
16.5933874 ,Left ,63,8147653567496 ,46,078260952751 ,50,0413749471531
16.6221483 ,Left ,63,9987500621629 ,46,0245817515223 ,49,9437021261659
16.6369821 ,Left ,64,1207909215983 ,46,0115503649617 ,49,8742746703707
16.6528213 ,Left ,64,0918007330276 ,46,0037781369857 ,49,852761257036
16.6760376 ,Left ,64,0559467182392 ,45,9778032064833 ,49,84300833648
16.6977173 ,Left ,63,9608004066617 ,45,9326231230325 ,49,8446537620137
16.7129564 ,Left ,63,911316729517 ,45,9200492289069 ,49,8496036057168
16.7358653 ,Left ,63,9258156206158 ,45,9600167850359 ,49,836269646725
16.7598088 ,Left ,63,9289851467457 ,46,0260292160431 ,49,8797378612069
16.7733561 ,Left ,63,8754868040897 ,46,0585607998009 ,49,9275752668317
16.7961359 ,Left ,63,9211406376691 ,46,005899122752 ,49,9189780741261
16.8182738 ,Left ,64,0984235080665 ,46,0227220750017 ,49,8760629665496
16.8393193 ,Left ,64,1324573991272 ,46,0717226769897 ,49,823617968836
16.8563536 ,Left ,64,0421981099171 ,46,0731207534101 ,49,7988139994836
16.8783724 ,Left ,63,9571282733251 ,46,0669044383585 ,49,7893112344958
16.8994439 ,Left ,63,832898443952 ,46,0969644959149 ,49,7846601998845
16.9160173 ,Left ,63,8479806286484 ,46,1498369917215 ,49,794544199053
16.9385033 ,Left ,63,8740815365101 ,46,2145691819802 ,49,810568394718
16.9596614 ,Left ,63,7677899728699 ,46,299274850465 ,49,8626591038589
16.9758804 ,Left ,63,6337273021725 ,46,3805185757531 ,49,9438460885689
16.998323 ,Left ,63,5552660344334 ,46,3240263529283 ,49,939957887884
17.0195108 ,Left ,63,6611335339164 ,46,2734074517951 ,49,8506425197627
17.036085 ,Left ,63,6975588621372 ,46,2676084864142 ,49,7467334912484
17.0583675 ,Left ,63,6194346482745 ,46,2683959425377 ,49,7007858412417
17.0795368 ,Left ,63,5954683198107 ,46,2617440288345 ,49,6705271230941
17.0961061 ,Left ,63,5531883403392 ,46,2551033998685 ,49,6512327218519
17.1185767 ,Left ,63,4747733200535 ,46,2647348448369 ,49,6372978230141
17.1327431 ,Left ,63,4870890029972 ,46,2925348487587 ,49,6268906401192
17.1572353 ,Left ,63,5186928065397 ,46,3257596282243 ,49,6167883759478
17.1783762 ,Left ,63,4585484858833 ,46,3276507223847 ,49,5798421044966
17.1927276 ,Left ,63,4083806067382 ,46,2854672770891 ,49,5584913870499
17.2161052 ,Left ,63,3985870096373 ,46,2432849214194 ,49,5385727527089
17.2461132 ,Left ,63,3319288673611 ,46,220050583347 ,49,5194093857076
17.2596211 ,Left ,63,2464281800294 ,46,2268943120581 ,49,4967804916717
17.2759805 ,Left ,63,243692915063 ,46,2654806380654 ,49,4629137249661
17.2983925 ,Left ,63,284965505912 ,46,3495456949953 ,49,4824340006752
17.3196508 ,Left ,63,2609544173163 ,46,367991278612 ,49,4764696913312
17.3361633 ,Left ,63,3319890337607 ,46,3312762377688 ,49,3894052022028
17.3583889 ,Left ,63,3993294497845 ,46,2913434236216 ,49,300919019452
17.3796433 ,Left ,63,3914146942439 ,46,2391707881864 ,49,2786032781528
17.3958204 ,Left ,63,4273169433425 ,46,1877225314449 ,49,2762936619046
17.4187883 ,Left ,63,3793727923076 ,46,1297731353327 ,49,284387211798
17.4394656 ,Left ,63,3232359225452 ,46,0747546770493 ,49,3058604459478
17.4561423 ,Left ,63,3535620773449 ,46,0387776439315 ,49,3219747860792
17.478376 ,Left ,63,3618748623425 ,46,0450312382128 ,49,3216014129375
17.4996503 ,Left ,63,3640017139249 ,46,1036476953097 ,49,3346513068574
17.5233397 ,Left ,63,3639232447474 ,46,1756625166721 ,49,3754856191504
17.5383526 ,Left ,63,3931204731346 ,46,2241074728283 ,49,404186817954
17.5596302 ,Left ,63,4425849980398 ,46,237580902017 ,49,4468842450936
17.5754495 ,Left ,63,488075482873 ,46,1045662030101 ,49,4666779665302
17.5983834 ,Left ,63,666226967663 ,46,0407141654983 ,49,4399679884533
17.6195314 ,Left ,63,7177234302667 ,46,0707641947556 ,49,3932669860611
17.6354658 ,Left ,63,6658694953362 ,46,1054916640452 ,49,3879400312481
17.6586057 ,Left ,63,7055103358826 ,46,0856037547933 ,49,3906534669645
17.6809042 ,Left ,63,670574668221 ,46,0754730667196 ,49,4014420665146
17.6960971 ,Left ,63,5685734006007 ,46,108110797511 ,49,4233999500948
17.7184269 ,Left ,63,6211471408255 ,46,1671491724356 ,49,4500804366728
17.7238392 ,Left ,63,7250311279172 ,46,2126385158036 ,49,4878896752328
17.746328 ,Left ,63,7658104792587 ,46,2108455553166 ,49,5399723998281
17.7626913 ,Left ,63,7631250841113 ,46,1779505157517 ,49,5789077460805
17.7837143 ,Left ,63,7467880083858 ,46,1375423328128 ,49,6119107965129
17.8063239 ,Left ,63,7366457052221 ,46,0973618870372 ,49,6441178238634
17.8228923 ,Left ,63,7539789610634 ,46,0589290776926 ,49,6605611401028
17.8438322 ,Left ,63,7791262025484 ,46,030125696486 ,49,6828763101518
17.8665573 ,Left ,63,7989915228523 ,46,0134835699317 ,49,7072525213123
17.8815863 ,Left ,63,818974549398 ,46,0077814583497 ,49,7363475577181
17.9038026 ,Left ,63,8267919190291 ,46,0033204127244 ,49,7636028826819
17.9263295 ,Left ,63,8560667949832 ,46,0008727119455 ,49,7888972723443
17.9413828 ,Left ,63,8925310516341 ,45,9931312249148 ,49,8107612873296
17.9637747 ,Left ,63,9150855269567 ,45,9871326236872 ,49,83959422592
17.9866006 ,Left ,63,9298439352571 ,45,9825815510612 ,49,8614964798125
18.0029047 ,Left ,63,9385417040261 ,45,9753107715624 ,49,8806978926797
18.0237908 ,Left ,63,9710622514434 ,45,9620360068484 ,49,9049898864598
18.0463946 ,Left ,64,0013265502021 ,45,956640445732 ,49,9221880860906
18.0627538 ,Left ,64,0250060968738 ,45,9562234132735 ,49,9429380868552
18.0837705 ,Left ,64,0363636106832 ,45,9665408261556 ,49,9657098738624
18.1062866 ,Left ,64,0592421470385 ,45,9714539182469 ,49,9890210160137
18.1228341 ,Left ,64,0668627394336 ,45,978105461404 ,50,0106646479614
18.143695 ,Left ,64,0718828444387 ,45,9873698115235 ,50,0361470891098
18.166492 ,Left ,64,0854123629924 ,45,9984255266764 ,50,0613547879465
18.1829838 ,Left ,64,1071900464127 ,46,0130448892071 ,50,0871490751924
18.203804 ,Left ,64,1201350471523 ,46,0302759625561 ,50,1131277086073
18.2263004 ,Left ,64,12656844413 ,46,0491725936306 ,50,1408547342377
18.2428602 ,Left ,64,1356464954282 ,46,0619116700908 ,50,1674926335649
18.2639075 ,Left ,64,1432301635369 ,46,066710722799 ,50,1927449038398
18.2865619 ,Left ,64,1649565689363 ,46,0655281155409 ,50,2285857488836
18.3026892 ,Left ,64,2024969864085 ,46,0649382711815 ,50,2607547704405
18.3237516 ,Left ,64,2536444273937 ,46,0528250000944 ,50,2922547774326
18.3545365 ,Left ,64,3052843610672 ,46,0396535395137 ,50,3210710638273
18.3629124 ,Left ,64,3329137475377 ,46,0292991042717 ,50,3474766135875
18.3837233 ,Left ,64,3419341259825 ,46,0215357006605 ,50,366617751183
18.4065003 ,Left ,64,3465630629179 ,46,0173320528707 ,50,3835863129555
18.4288667 ,Left ,64,3732390098608 ,46,0093456007023 ,50,4004809265982
18.4438742 ,Left ,64,420323897186 ,45,9993672435059 ,50,4094551824158
18.4662489 ,Left ,64,4376831595961 ,45,983441217011 ,50,4171019934582
18.4829146 ,Left ,64,4160802490398 ,45,9730560910696 ,50,4236566209108
18.5038265 ,Left ,64,3936877906039 ,45,9646797725411 ,50,4309541404678
18.5265342 ,Left ,64,390647688797 ,45,9579619690383 ,50,4364970296128
18.5429982 ,Left ,64,4192379564955 ,45,9548757566658 ,50,4382529356185
18.5638194 ,Left ,64,4656517850223 ,45,9455334755499 ,50,4367891545967
18.5865781 ,Left ,64,4639008298298 ,45,9263232017681 ,50,4407171306295
18.6029565 ,Left ,64,4318267056599 ,45,9048060050617 ,50,4451602487302
18.6237103 ,Left ,64,3991131995707 ,45,8859916339923 ,50,4531720906942
18.646308 ,Left ,64,3951686270443 ,45,872207229283 ,50,451041242583
18.6644427 ,Left ,64,4147070033403 ,45,8594474749034 ,50,4426767803673
18.6839186 ,Left ,64,4132923248784 ,45,8559648941885 ,50,4367155240576
18.7071645 ,Left ,64,3828900311218 ,45,8632037225264 ,50,4354699546922
18.7241693 ,Left ,64,3444169054071 ,45,8735584422217 ,50,4383931585731
18.7438001 ,Left ,64,2998502879469 ,45,8985355675811 ,50,4386422706421
18.7662549 ,Left ,64,2562760937944 ,45,9542412451682 ,50,433627724088
18.7845107 ,Left ,64,297905645473 ,46,0334204541529 ,50,4385063992344
18.8038183 ,Left ,64,2606091864141 ,46,1182171029934 ,50,4663243083021
18.8265293 ,Left ,64,1632815996307 ,46,0881070772812 ,50,4717944944066
18.8441918 ,Left ,64,2056194243003 ,46,0863200652593 ,50,3877241621201
18.8715727 ,Left ,64,1539577425075 ,46,1349460264205 ,50,2934402021937
18.8863236 ,Left ,64,1391172754052 ,46,1473995978591 ,50,2467830728247
18.9088997 ,Left ,64,2382877963938 ,46,1321105293615 ,50,2061683370001
18.9237465 ,Left ,64,2060326167904 ,46,1093306194582 ,50,1947404026263
18.9462875 ,Left ,64,1190432167269 ,46,0781450378324 ,50,1902508323773
18.9640909 ,Left ,64,0977622091105 ,46,0582293356249 ,50,1941312124554
18.983819 ,Left ,64,140243252462 ,46,0702820132608 ,50,1992259830456
19.0063137 ,Left ,64,2224030733157 ,46,0900254581921 ,50,1921376148842
19.0287927 ,Left ,64,2834320960846 ,46,0886265324392 ,50,1732425505017
19.0438921 ,Left ,64,2676758929208 ,46,067333325426 ,50,1519078356744
19.0665363 ,Left ,64,2333031591727 ,46,0322771099563 ,50,1480723245149
19.0842978 ,Left ,64,2192989203651 ,45,9918737586365 ,50,1391529061813
19.1039028 ,Left ,64,2156453829367 ,45,9628718273892 ,50,1277943573325
19.1263403 ,Left ,64,2221502672072 ,45,9442766284057 ,50,1203301102204
19.1441564 ,Left ,64,2122956491599 ,45,9354291972208 ,50,1174115723489
19.163886 ,Left ,64,1698083824827 ,45,9475917719116 ,50,1024033003966
19.1865373 ,Left ,64,0855690371594 ,45,9904943119899 ,50,0964671986277
19.2041327 ,Left ,64,0791073747626 ,46,0500280376334 ,50,1407160520341
19.2254369 ,Left ,64,1457453542171 ,45,9591915837117 ,50,1175958077877
19.2465 ,Left ,64,2603114079978 ,45,9265938421438 ,50,0481618577001
19.268737 ,Left ,64,2058383795643 ,45,933527855861 ,49,995485669453
19.2854801 ,Left ,64,1400673720592 ,45,9136907504449 ,49,9771885383448
19.3065115 ,Left ,64,1335411815633 ,45,8950476492804 ,49,9714642325378
19.3242476 ,Left ,64,0226878424479 ,45,8869764200494 ,49,9754128483123
19.3529942 ,Left ,63,9982704221787 ,45,9142087265171 ,49,9849990804707
19.3665313 ,Left ,64,0247379223706 ,45,973469089947 ,50,0029630073081
19.3970174 ,Left ,63,9844829424635 ,46,0397358796754 ,50,0695663542331
19.412818 ,Left ,63,8962517115221 ,46,0131655756748 ,50,0962552824439
19.4263053 ,Left ,64,0061544436408 ,45,973213599272 ,50,0289397024328
19.4489082 ,Left ,64,0966837898622 ,45,9894296461245 ,49,9557379278012
19.4668148 ,Left ,64,0725709433089 ,45,99902187554 ,49,9200792285528
19.4865095 ,Left ,64,0707939474498 ,45,9972372192585 ,49,8871798189435
19.5088637 ,Left ,63,9651667971874 ,46,0160530458869 ,49,8876507061623
19.5267872 ,Left ,63,9501541051408 ,46,0461463348031 ,49,9081358357205
19.5465677 ,Left ,63,9992897841392 ,46,0486847418969 ,49,9291035256503
19.5688935 ,Left ,63,9671000989356 ,46,0987238281782 ,49,9694292270792
19.5866571 ,Left ,63,8378067246187 ,46,1619698280111 ,50,0255505918041
19.6065591 ,Left ,63,7347070101351 ,46,1338956487866 ,50,038192733796
19.6287618 ,Left ,63,8716354656323 ,46,1034885592963 ,49,9751015122378
19.6469847 ,Left ,63,957554217738 ,46,1385640660049 ,49,8900297806682
19.6663412 ,Left ,63,8917917656137 ,46,1676021744267 ,49,8491344142798
19.6902666 ,Left ,63,8804245201311 ,46,1640720939527 ,49,8208450220541
19.706731 ,Left ,63,8139009071301 ,46,1422020568851 ,49,8102140654584
19.7264119 ,Left ,63,7195274891972 ,46,1363292784194 ,49,7911894495882
19.7488603 ,Left ,63,7406946156199 ,46,1584199011893 ,49,7687615539252
19.7666583 ,Left ,63,7643393572365 ,46,1975018693853 ,49,7471320947436
19.7863422 ,Left ,63,7123225686274 ,46,2305661623838 ,49,7321474516909
19.808849 ,Left ,63,680924703016 ,46,2376257877056 ,49,7243576457021
19.8267802 ,Left ,63,6871227545147 ,46,2139927822504 ,49,7190749599547
19.8463389 ,Left ,63,6965030432763 ,46,1946310297493 ,49,6897370097363
19.8688696 ,Left ,63,6310622398349 ,46,1861503186286 ,49,6487929549117
19.8868356 ,Left ,63,5537039429752 ,46,18538006698 ,49,6151942961114
19.9065794 ,Left ,63,5286129750589 ,46,2021458158743 ,49,5806999902286
19.9288228 ,Left ,63,5097168096637 ,46,2506508642835 ,49,5365462651476
19.9469744 ,Left ,63,4972533430378 ,46,3185908966157 ,49,5153579214064
19.9663679 ,Left ,63,4961155226282 ,46,398258969259 ,49,5150685548232
19.9889634 ,Left ,63,5767959257415 ,46,3607404316417 ,49,4538587465039
20.0067441 ,Left ,63,7180763921416 ,46,327273847671 ,49,341662381581
20.026551 ,Left ,63,7321973501774 ,46,3001450409623 ,49,2777500710539
20.0487825 ,Left ,63,7201476125973 ,46,2558360098641 ,49,2480974768673
20.0730209 ,Left ,63,6524640409001 ,46,1872011908558 ,49,2616724715482
20.0862926 ,Left ,63,5810808127741 ,46,1120149766799 ,49,2947191841824
20.1088814 ,Left ,63,5537854056494 ,46,0555049030338 ,49,3219104155066
20.1267071 ,Left ,63,5472972950986 ,46,0211206968373 ,49,3414398859085
20.1493698 ,Left ,63,5543566485262 ,46,0326333060081 ,49,3629663359301
20.1690473 ,Left ,63,5429941172997 ,46,0924858203253 ,49,3981741298513
20.1870375 ,Left ,63,5902895933863 ,46,1658924721666 ,49,4555525514005
20.2091404 ,Left ,63,6425518171919 ,46,1904414668177 ,49,5202530070294
20.2287277 ,Left ,63,6523213737032 ,46,0516939975986 ,49,5543354601555
20.2469957 ,Left ,63,7889540024657 ,45,9816798686214 ,49,5385624596722
20.2678349 ,Left ,63,8295847333919 ,46,0152304285617 ,49,4859182907271
20.2888698 ,Left ,63,8143962053708 ,46,0562603290453 ,49,4639244234278
20.306918 ,Left ,63,8951741847751 ,46,0372454395315 ,49,4553942162995
20.3293445 ,Left ,63,8455536844583 ,46,0290766383555 ,49,4730840225423
20.3488025 ,Left ,63,7083686901692 ,46,0466726192551 ,49,5081311097936
20.3667708 ,Left ,63,7115534444507 ,46,0779556363112 ,49,5479127488465
20.3890931 ,Left ,63,7935282261669 ,46,1047156807884 ,49,5992286718797
20.4089213 ,Left ,63,8345627346002 ,46,1176751604026 ,49,6604471820338
20.4266919 ,Left ,63,8096807974995 ,46,0919920685228 ,49,7140491535827
20.4480274 ,Left ,63,7975097108178 ,46,054704943966 ,49,7631359581572
20.4688167 ,Left ,63,8240884168042 ,46,0161433727927 ,49,8108643584876
20.4867744 ,Left ,63,8504718316444 ,45,976205933618 ,49,8427932789531
20.5093587 ,Left ,63,8678448044789 ,45,9482724231914 ,49,8729140361057
20.5289375 ,Left ,63,8603646110854 ,45,9272351373568 ,49,9095916577491
20.54671 ,Left ,63,8684131316802 ,45,9197799078291 ,49,9480808460878
20.5738192 ,Left ,63,8938890645917 ,45,9157374963638 ,49,9860601151776
20.5888464 ,Left ,63,9282865208011 ,45,9089890415935 ,50,023844535366
20.606975 ,Left ,63,9957768458166 ,45,9054345334674 ,50,0591549104921
20.6298486 ,Left ,64,0140285122364 ,45,8948511857516 ,50,0885069765107
20.6489897 ,Left ,64,0270132901803 ,45,8830593807086 ,50,1116719158691
20.6668159 ,Left ,64,0301101107232 ,45,8749561193955 ,50,1421459026542
20.6892764 ,Left ,64,0444666691386 ,45,8737088477358 ,50,1657060303377
20.7087874 ,Left ,64,0743122489959 ,45,8714157974376 ,50,1890944493211
20.7268396 ,Left ,64,102170877954 ,45,8717577178869 ,50,2073014386793
20.7491969 ,Left ,64,1122292301356 ,45,8739366635266 ,50,2286855365469
20.7687775 ,Left ,64,1047651811159 ,45,879702311198 ,50,2496373999128
20.7866485 ,Left ,64,1004856803588 ,45,8894876803802 ,50,2659218874156
20.8094505 ,Left ,64,102139187358 ,45,9038023814923 ,50,2811648818221
20.8288396 ,Left ,64,1192074755907 ,45,9267177626747 ,50,2897934495636
20.854262 ,Left ,64,136862919469 ,45,9529051843097 ,50,2958178425658
20.8694606 ,Left ,64,1497886402876 ,45,9870722551354 ,50,299583554055
20.8888161 ,Left ,64,1683913775666 ,46,0205037544631 ,50,3087221093194
20.9070092 ,Left ,64,193368688714 ,46,0421824219942 ,50,3095869830343
20.9294221 ,Left ,64,2114448718822 ,46,0500973974473 ,50,3176513714463
20.948928 ,Left ,64,2322188069484 ,46,0491962032096 ,50,3255651611791
20.9667001 ,Left ,64,2661852281478 ,46,0446474642361 ,50,3345485995946
20.9892159 ,Left ,64,3000532130575 ,46,0392028077953 ,50,3453192299465
21.0090228 ,Left ,64,3230545677676 ,46,0294902432215 ,50,3574895437353
21.0269804 ,Left ,64,3321904904855 ,46,011013747328 ,50,3628019027975
21.0493246 ,Left ,64,3203436492516 ,46,0043934090494 ,50,3694777151627
21.0690411 ,Left ,64,3194407845234 ,46,0052090697135 ,50,3811607959081
21.0866767 ,Left ,64,3422170699335 ,46,0007710997916 ,50,3914331406846
21.1093569 ,Left ,64,3629260221598 ,45,9955262173176 ,50,3992602531209
21.1304699 ,Left ,64,3757519275277 ,45,9892336084672 ,50,4056857477513
21.1469878 ,Left ,64,3726075451443 ,45,9850096479111 ,50,4148785000503
21.1692464 ,Left ,64,3719394574667 ,45,9806525248416 ,50,4238569718559
21.1901904 ,Left ,64,3861578738558 ,45,9711083941232 ,50,4325238528415
21.206708 ,Left ,64,3995089489598 ,45,9612141402601 ,50,4372171993932
21.2292755 ,Left ,64,4057220563612 ,45,9568303391251 ,50,4408220898715
21.2502405 ,Left ,64,4155867933379 ,45,9577539476982 ,50,4464415644617
21.2669718 ,Left ,64,4260234130502 ,45,9618166066643 ,50,4540591177922
21.2967067 ,Left ,64,4194652994925 ,45,9786653884023 ,50,4651766641878
21.3103047 ,Left ,64,4245950215735 ,45,9909828644277 ,50,4704287781399
21.3258817 ,Left ,64,4397961666508 ,45,9908801340476 ,50,4683869289759
21.3485561 ,Left ,64,4420239769057 ,45,9925302890096 ,50,4690359882725
21.3696311 ,Left ,64,4292669145877 ,45,9891356506291 ,50,4690030351487
21.3936579 ,Left ,64,4172836487801 ,45,9839120688554 ,50,4636602702298
21.4082489 ,Left ,64,4229511882498 ,45,9750900715164 ,50,4541982926576
21.4311228 ,Left ,64,4302198165127 ,45,9741608446117 ,50,4461719584229
21.4458691 ,Left ,64,4186848868876 ,45,9784466598697 ,50,4345804603125
21.4685753 ,Left ,64,3753196845302 ,45,9842242128708 ,50,4294623592536
21.4910789 ,Left ,64,3252464619702 ,45,9874981399267 ,50,4260501008838
21.5054872 ,Left ,64,2840937156967 ,45,997531176265 ,50,4206036856707
21.5285849 ,Left ,64,2335980870856 ,46,0373419757556 ,50,4087564065055
21.5511835 ,Left ,64,2462751442285 ,46,0972504075266 ,50,3904543711624
21.5720349 ,Left ,64,1956341498454 ,46,20663140485 ,50,409484327736
21.5883726 ,Left ,64,1077804742853 ,46,2022039058318 ,50,399923101986
21.6112386 ,Left ,64,177764737467 ,46,1302295764824 ,50,3317245030357
21.6336774 ,Left ,64,2803463237655 ,46,1512734182769 ,50,260065747156
21.6485385 ,Left ,64,2926196053852 ,46,1837709318414 ,50,2179007353654
21.6709343 ,Left ,64,353918211309 ,46,1828943258611 ,50,1799796715536
21.6855197 ,Left ,64,2764699936396 ,46,1446139967069 ,50,1706168264459
21.7085579 ,Left ,64,1778589859922 ,46,1048372916412 ,50,1763226788467
21.7310953 ,Left ,64,1152035881898 ,46,0780741193176 ,50,1863571855088
21.7452705 ,Left ,64,085455373241 ,46,0888371740226 ,50,1950803801436
21.7685869 ,Left ,64,1049508400432 ,46,12818619515 ,50,1962153968762
21.7909258 ,Left ,64,0586332313366 ,46,1394217278788 ,50,1788189585208
21.8120727 ,Left ,63,9508447410402 ,46,1309666438929 ,50,1790594869452
21.8361276 ,Left ,63,8785668008069 ,46,1188482434243 ,50,2101267525064
21.8510188 ,Left ,63,8410040141845 ,46,1552792685151 ,50,2574632130802
21.8718904 ,Left ,63,8016937520599 ,46,1194212133421 ,50,2194932410472
21.8882877 ,Left ,63,903948145541 ,46,130033121482 ,50,1366139262568
21.9111824 ,Left ,63,979292757831 ,46,1641789394054 ,50,0723632930739
21.9319776 ,Left ,64,0134216053162 ,46,1486708257966 ,50,0503137395784
21.9484616 ,Left ,64,0252598568812 ,46,1299973245794 ,50,0290322530102
21.9711324 ,Left ,63,8952310733435 ,46,0973546751011 ,50,0273651505696
21.991994 ,Left ,63,8543974614237 ,46,0448074824882 ,50,0339540524192
22.0085345 ,Left ,63,8844160110664 ,46,0020604599788 ,50,0384032657095
22.030921 ,Left ,63,8425791332674 ,46,0104068644134 ,50,058346037474
22.0594508 ,Left ,63,7767173244346 ,46,0472652039036 ,50,1179652997681
22.0698129 ,Left ,63,7934233651634 ,46,0358039855024 ,50,1451430206237
22.0909697 ,Left ,63,9034532537596 ,45,9771593789654 ,50,1216466458933
22.111952 ,Left ,64,0592053597088 ,46,0036581667918 ,50,0906445102683
22.1284508 ,Left ,64,09705380952 ,46,0286416160812 ,50,0417665086457
22.1511102 ,Left ,64,0956175699481 ,46,0088686993653 ,50,006275415484
22.1735522 ,Left ,64,0554807292147 ,45,9674057381598 ,50,0026987186522
22.1878768 ,Left ,63,9171111090671 ,45,9501425517008 ,50,025100342748
22.2109194 ,Left ,63,8627961587241 ,45,9851826773931 ,50,0635192202686
22.2320283 ,Left ,63,9229410125803 ,46,0256770207158 ,50,0985543167745
22.2479976 ,Left ,63,9112752335554 ,46,0704008775168 ,50,1427746830457
22.270976 ,Left ,63,8175953480569 ,46,1053168883603 ,50,2197602419849
22.2920991 ,Left ,63,7001954638649 ,46,1194213355361 ,50,2426046468815
22.3080525 ,Left ,63,6762321429711 ,46,1448496158843 ,50,162351518971
22.3311852 ,Left ,63,6334717529479 ,46,2113673174869 ,50,0556153377346
22.3521292 ,Left ,63,6226264458072 ,46,2421946985966 ,49,9893130423204
22.3676882 ,Left ,63,7092111910704 ,46,2524745706061 ,49,9427778020559
22.3911436 ,Left ,63,6772044262313 ,46,2438387462693 ,49,9276323686399
22.4135832 ,Left ,63,6487059706113 ,46,230243877265 ,49,9228000784197
22.4285839 ,Left ,63,7052162429066 ,46,2158089611177 ,49,9244139460098
22.4509343 ,Left ,63,733155407643 ,46,2191400576911 ,49,9420121346771
22.4734701 ,Left ,63,704921564478 ,46,2291309934114 ,49,9564024809748
22.4884353 ,Left ,63,6880436604243 ,46,2281259295745 ,49,951350353205
22.510954 ,Left ,63,6888718242271 ,46,2204051273774 ,49,9305104701291
22.5334111 ,Left ,63,6873081841929 ,46,219624298351 ,49,9088607379435
22.5484841 ,Left ,63,6447744473798 ,46,2271840419027 ,49,8830184239918
22.5716053 ,Left ,63,5963669973772 ,46,2258354148802 ,49,8582120795248
22.5936207 ,Left ,63,5722698808751 ,46,2158645987233 ,49,8307751682056
22.6077445 ,Left ,63,5623135757557 ,46,2157045184677 ,49,8083771054323
22.6309582 ,Left ,63,5617851096734 ,46,2401168956208 ,49,7830243170565
22.6533496 ,Left ,63,5237391131695 ,46,2843248464743 ,49,736779035714
22.6677111 ,Left ,63,5238671722962 ,46,3426072064566 ,49,7074700316537
22.6911918 ,Left ,63,5575693038808 ,46,3894365618647 ,49,7053350476355
22.7136634 ,Left ,63,6162324308694 ,46,3542929248527 ,49,6115413420947
22.7345023 ,Left ,63,6049949393406 ,46,3334071196559 ,49,5023588178058
22.7510169 ,Left ,63,5094634681099 ,46,3035678109701 ,49,4427217946699
22.7734717 ,Left ,63,4940060149276 ,46,2737483007214 ,49,4290052905477
22.7946921 ,Left ,63,5433352342602 ,46,2305290789378 ,49,435269567331
22.8112597 ,Left ,63,611532333702 ,46,1792154061249 ,49,4526226177252
22.83342 ,Left ,63,6762685603209 ,46,1247008732371 ,49,4816423186816
22.8480031 ,Left ,63,6602820447058 ,46,0749321047721 ,49,5122355234104
22.8711103 ,Left ,63,6116355608034 ,46,0508707480675 ,49,5550916969003
22.8934905 ,Left ,63,5979377665875 ,46,1117403745026 ,49,5931709887681
22.9145425 ,Left ,63,6695104603666 ,46,2159956397396 ,49,6362290829963
22.9309428 ,Left ,63,8422676167438 ,46,2449905310057 ,49,669138944477
22.9537047 ,Left ,63,8812829052562 ,46,116001280303 ,49,7011950516706
22.9746817 ,Left ,63,9064387069004 ,46,0473449650764 ,49,6744194197305
22.9908982 ,Left ,63,8555825550988 ,46,0532594875302 ,49,6297559217239
23.0133602 ,Left ,63,8777724551482 ,46,081511741757 ,49,6271538799797
23.0347542 ,Left ,64,0056900408971 ,46,0686938332594 ,49,6282049735239
23.0511766 ,Left ,64,0032830979881 ,46,051334362429 ,49,6421220719998
23.0734455 ,Left ,63,8568099930835 ,46,0644595918565 ,49,6800725645359
23.0946239 ,Left ,63,8410585548092 ,46,1051358789115 ,49,7335251059187
23.1111788 ,Left ,63,9585018960505 ,46,1405145247447 ,49,7935253743348
23.1334912 ,Left ,64,0408492096605 ,46,1359354278399 ,49,8632481839751
23.1572712 ,Left ,64,0768192121468 ,46,1048997469739 ,49,9244616623418
23.1703242 ,Left ,64,0691999680634 ,46,0704271694773 ,49,9802469517487
23.1935435 ,Left ,64,0369798647059 ,46,0284851052165 ,50,0361265986112
23.2147127 ,Left ,64,0192074097254 ,45,9973227987225 ,50,0862902152518
23.2309136 ,Left ,64,0373852634088 ,45,9823444672907 ,50,1202249879037
23.2609667 ,Left ,64,0817146092126 ,45,9732812076458 ,50,151609600347
23.2744521 ,Left ,64,1347634375376 ,45,9506728378448 ,50,1734513140405
23.2909993 ,Left ,64,1610604323552 ,45,9158938038597 ,50,1837730329173
23.3134352 ,Left ,64,1390823430726 ,45,8916641439726 ,50,1967466291316
23.336122 ,Left ,64,100618293668 ,45,8797600875474 ,50,2179319895069
23.3516051 ,Left ,64,1067324794271 ,45,88452564787 ,50,2344890187011
23.3735256 ,Left ,64,1389132246227 ,45,8874241005011 ,50,25117506476
23.3960151 ,Left ,64,1678401421105 ,45,8899981371981 ,50,2641163706658
23.4109303 ,Left ,64,1815546673936 ,45,8884490922238 ,50,2745388756581
23.4333848 ,Left ,64,1682309623564 ,45,8966866599714 ,50,2910218536527
23.4561671 ,Left ,64,1541330996837 ,45,9136965125699 ,50,3118757296155
23.4711738 ,Left ,64,1534254592334 ,45,9385015630541 ,50,3236809558271
23.4934025 ,Left ,64,1667123699566 ,45,9578045442375 ,50,3312258996573
23.5160395 ,Left ,64,1858397068385 ,45,9841097153474 ,50,3414039339631
23.5302653 ,Left ,64,1810818319182 ,46,0036153202378 ,50,3556826431749
23.5532859 ,Left ,64,1606609944249 ,46,0129769570661 ,50,3755221855752
23.576054 ,Left ,64,1593546048475 ,46,0195491400619 ,50,4027422436377
23.5904436 ,Left ,64,1931197250642 ,46,0153185535385 ,50,4291577303053
23.6134486 ,Left ,64,2479981915587 ,46,003494860053 ,50,449700235845
23.6358923 ,Left ,64,2876708388718 ,45,9909548248057 ,50,4694643602963
23.6502427 ,Left ,64,2839375824197 ,45,9763952766684 ,50,4867678375477
23.6796867 ,Left ,64,2426570598588 ,45,9631829756145 ,50,511631535676
23.695923 ,Left ,64,2283735372047 ,45,9613254953136 ,50,5360573066361
23.7105204 ,Left ,64,2438984397413 ,45,957787392873 ,50,5543452886054
23.7334311 ,Left ,64,2682700736041 ,45,9576099984778 ,50,5687418748886
23.7560557 ,Left ,64,3020455759534 ,45,9605722216008 ,50,5793961035538
23.7701267 ,Left ,64,3358043033595 ,45,9601346350317 ,50,5882066795089
23.7935523 ,Left ,64,3615172603986 ,45,9579865934259 ,50,5928457906037
23.8159405 ,Left ,64,3741883086505 ,45,9509014671907 ,50,5964758950509
23.8371076 ,Left ,64,3456623297131 ,45,9408594713091 ,50,6038874689264
23.8533411 ,Left ,64,3220215635073 ,45,927327065589 ,50,6044396500174
23.8760712 ,Left ,64,3226665529663 ,45,9115210875375 ,50,6055222055204
23.8972548 ,Left ,64,330185913114 ,45,8956564123574 ,50,6012074310468
23.9136677 ,Left ,64,3310446516798 ,45,8876187484703 ,50,5995910378877
23.9358867 ,Left ,64,3172188888559 ,45,8798525786578 ,50,5910178796035
23.9570489 ,Left ,64,2811133323874 ,45,8777662193676 ,50,5834586688792
23.9736723 ,Left ,64,2227199377229 ,45,8873594630086 ,50,5777897101317
23.9961121 ,Left ,64,1411242384996 ,45,9254709463764 ,50,5708092782984
24.0169621 ,Left ,64,1616171791593 ,45,9844976590382 ,50,5617574471494
24.0336655 ,Left ,64,236321448662 ,46,0631147696838 ,50,5621318776758
24.0559664 ,Left ,64,1961840645941 ,46,1483263948764 ,50,598754022977
24.0772541 ,Left ,64,127018047622 ,46,0913777767546 ,50,5750558426874
24.0935109 ,Left ,64,2060317683998 ,46,1106308328046 ,50,4861380499539
24.1158647 ,Left ,64,1884819194769 ,46,1504707527762 ,50,400999471671
24.1369913 ,Left ,64,19069516108 ,46,1508001497322 ,50,3594365055053
24.1536662 ,Left ,64,2329987225949 ,46,1317484172307 ,50,3388396141423
24.1762072 ,Left ,64,1816959390204 ,46,1207353955955 ,50,3374915802325
24.1971273 ,Left ,64,1509430379032 ,46,1106081016022 ,50,3449813250394
24.2137322 ,Left ,64,212722437529 ,46,1067221690797 ,50,3576365364307
24.236193 ,Left ,64,2329690941931 ,46,1224233256624 ,50,362696356298
24.2572574 ,Left ,64,2026603702939 ,46,1288056306269 ,50,3583769636903
24.2733871 ,Left ,64,1829446036009 ,46,0918490399254 ,50,3387762060966
24.2961879 ,Left ,64,1955249770698 ,46,0450935079799 ,50,3258720249991
24.3184226 ,Left ,64,1708931883171 ,46,0004444706797 ,50,3140450271047
24.3336962 ,Left ,64,1202304036619 ,45,9658255894859 ,50,3168177683915
24.3559192 ,Left ,64,0943769665752 ,45,9485276501523 ,50,324989768324
24.3786157 ,Left ,64,0989901383903 ,45,9398125717792 ,50,3245108158678
24.3936607 ,Left ,64,0717970955206 ,45,9273155439248 ,50,3046594368716
24.4162051 ,Left ,64,0220324811478 ,45,93638719882 ,50,2975971828368
24.4384453 ,Left ,63,9621717909373 ,45,9582872306733 ,50,2828427611849
24.4527972 ,Left ,63,903779369354 ,45,9989462150905 ,50,2830206229064
24.4760522 ,Left ,63,8868774991769 ,45,9568053467379 ,50,2830036326516
24.498463 ,Left ,63,9393636458846 ,45,91180687399 ,50,2099895141382
24.5130515 ,Left ,63,8908891380707 ,45,904772530775 ,50,1673184374758
24.5360927 ,Left ,63,8534473245899 ,45,9110880529007 ,50,1684095063563
24.5583998 ,Left ,63,9307237831991 ,45,9010952736717 ,50,1604457942203
24.5730141 ,Left ,63,8945283390266 ,45,8780369545822 ,50,1500441893386
24.5960333 ,Left ,63,7842449614067 ,45,8907911641287 ,50,1613648321423
24.6246308 ,Left ,63,8035287050112 ,45,9333290658114 ,50,178599077247
24.633014 ,Left ,63,8862954648634 ,45,9890018154818 ,50,2373975360971
24.6562034 ,Left ,63,8721356297762 ,45,9814820918843 ,50,2139511147695
24.684621 ,Left ,63,8707989145703 ,45,9807773157548 ,50,1554413383119
24.6996363 ,Left ,63,8960956802205 ,46,0249483934959 ,50,108155747495
24.7233654 ,Left ,63,9155120672381 ,46,0366410141614 ,50,0852354347508
24.7385282 ,Left ,63,9337027197209 ,46,0386139397805 ,50,0601506314551
24.7530106 ,Left ,63,82917102691 ,46,0550283537196 ,50,061440311683
24.7761626 ,Left ,63,8032255842715 ,46,0742621321462 ,50,0840784048888
24.7986536 ,Left ,63,8223803278595 ,46,0894923223365 ,50,0997418071038
24.8195351 ,Left ,63,7984811992606 ,46,1353430593179 ,50,1713841334196
24.8359346 ,Left ,63,7312747372083 ,46,1479150295791 ,50,2045485099417
24.8584742 ,Left ,63,743691839468 ,46,1164168827445 ,50,1497525976489
24.8796436 ,Left ,63,7545414704437 ,46,1323262807599 ,50,0717589364749
24.8958932 ,Left ,63,7298265963844 ,46,155032329691 ,50,0162369570614
24.918284 ,Left ,63,732199953752 ,46,1832135480382 ,49,9641992257804
24.9396499 ,Left ,63,7367644106341 ,46,1989564027681 ,49,9386959831744
24.9560957 ,Left ,63,7453552600598 ,46,2028283696182 ,49,9155279102686
24.9783979 ,Left ,63,7873630251046 ,46,20051781163 ,49,8922557897825
24.9996257 ,Left ,63,8297941633136 ,46,2099320954596 ,49,8764238587788
25.0159473 ,Left ,63,8065071806184 ,46,195655524627 ,49,8446116295433
25.0387319 ,Left ,63,7735260224359 ,46,1815948373957 ,49,8182299591135
25.0595014 ,Left ,63,760632645476 ,46,1825714398866 ,49,8032267879814
25.0760354 ,Left ,63,7687091237984 ,46,1969342288889 ,49,7807340427501
25.0984789 ,Left ,63,7594477133799 ,46,2179498768373 ,49,759368281263
25.1196079 ,Left ,63,7362220867798 ,46,2299276898795 ,49,7310941200529
25.1359149 ,Left ,63,7075354481603 ,46,2251143059159 ,49,7067154182425
25.158372 ,Left ,63,6894124532926 ,46,2271314636551 ,49,6947691288787
25.1797248 ,Left ,63,6826745456866 ,46,224199214467 ,49,6641562242832
25.196126 ,Left ,63,6380280999237 ,46,2357187289197 ,49,6339661332177
25.2260909 ,Left ,63,6127599827555 ,46,2697217591583 ,49,5946467164465
25.2409185 ,Left ,63,6479413272158 ,46,3328742532108 ,49,6085955960586
25.2559542 ,Left ,63,6576842642698 ,46,3461738371425 ,49,6114572679877
25.2786784 ,Left ,63,6824724902068 ,46,3209310993419 ,49,5235297718282
25.3009583 ,Left ,63,6318168184185 ,46,3043231633289 ,49,4555285618357
25.3160621 ,Left ,63,5701706537227 ,46,2869323094794 ,49,4274417537318
25.3385187 ,Left ,63,6034332068343 ,46,2738219316627 ,49,4109214872427
25.3611833 ,Left ,63,6342655344481 ,46,2428089039761 ,49,4057158853636
25.376062 ,Left ,63,6694256252872 ,46,197336374192 ,49,4082574565121
25.3984678 ,Left ,63,701282959301 ,46,1358351323781 ,49,4272995967343
25.4211336 ,Left ,63,6670401025807 ,46,0682998087496 ,49,4503573486628
25.4355659 ,Left ,63,6135351164948 ,46,0256798353493 ,49,4872969488165
25.4587262 ,Left ,63,6372571051054 ,46,0484821624303 ,49,5248181559868
25.4811657 ,Left ,63,7236781987786 ,46,0952827375487 ,49,5607629521575
25.4953213 ,Left ,63,7867210666539 ,46,1155248189013 ,49,6137956513463
25.5184292 ,Left ,63,8299823317939 ,46,0553584892679 ,49,6276684185375
25.5408867 ,Left ,63,899149097164 ,46,0325110665063 ,49,5907903626299
25.5553776 ,Left ,63,8584423162124 ,46,0453614263122 ,49,5158137235885
25.5786461 ,Left ,63,8261908375691 ,46,042925040087 ,49,4821686281292
25.6009614 ,Left ,63,9116216153279 ,46,0179356860841 ,49,472204273328
25.615532 ,Left ,63,8492371859001 ,46,0146718112228 ,49,4852486004551
25.6384445 ,Left ,63,7256870557029 ,46,0366291458316 ,49,5142118256999
25.6609309 ,Left ,63,7616136344374 ,46,0649068403817 ,49,5526895428643
25.6752852 ,Left ,63,8440549860053 ,46,0898360921742 ,49,5986441260794
25.6984094 ,Left ,63,8536223028067 ,46,1028984569993 ,49,6532294725604
25.7223469 ,Left ,63,8768436631939 ,46,1082553783672 ,49,7045119431505
25.7421046 ,Left ,63,9238261231156 ,46,0792371729239 ,49,7388218883738
25.75843 ,Left ,63,9204484554397 ,46,0353480870951 ,49,7728281243804
25.7809544 ,Left ,63,9177265936082 ,46,0126221175231 ,49,8034542850013
25.8021496 ,Left ,63,9008116751481 ,46,0080654501832 ,49,8381785260221
25.8187085 ,Left ,63,9066871432263 ,46,0161037170941 ,49,8713415783845
25.8472289 ,Left ,63,9562943248587 ,46,0116602828744 ,49,8933229554313
25.8621048 ,Left ,63,9878342114191 ,46,0029133670503 ,49,921984820097
25.878489 ,Left ,63,9901924585309 ,45,9976795621958 ,49,9559338870977
25.9009527 ,Left ,63,9915495735772 ,46,0003596300778 ,49,9960266805405
25.9220239 ,Left ,64,0165049935892 ,45,9923896045162 ,50,0236674393131
25.938417 ,Left ,64,0504932246711 ,45,982445130036 ,50,0538795317466
25.9610708 ,Left ,64,0511763896437 ,45,9709567597406 ,50,0873079099851
25.9821851 ,Left ,64,0431371749406 ,45,9664685556594 ,50,116367682904
25.9986661 ,Left ,64,0447783693966 ,45,9629970218647 ,50,1556177960639
26.0209085 ,Left ,64,0643729145114 ,45,9618767549782 ,50,1917597914532
26.0422787 ,Left ,64,0641930911381 ,45,9652568485103 ,50,2258412688908
26.0586917 ,Left ,64,0603272419657 ,45,9624021620812 ,50,2597541088585
26.0810318 ,Left ,64,0556413730987 ,45,9545581954479 ,50,2999141822875
26.1020364 ,Left ,64,0574551461277 ,45,9543766261416 ,50,3409890342723
26.1178324 ,Left ,64,0513727617658 ,45,9712066255674 ,50,3797345023098
26.1410219 ,Left ,64,0339048783284 ,45,994647619344 ,50,4104323997198
26.1697638 ,Left ,64,0275049381171 ,46,0102697702359 ,50,4379414655504
26.1783744 ,Left ,64,0611159671369 ,46,0156764375785 ,50,4624496568093
26.2011696 ,Left ,64,1170583739321 ,46,0162857169595 ,50,484284055037
26.2234286 ,Left ,64,172109713538 ,46,0061609663094 ,50,5012577823753
26.2386602 ,Left ,64,2232794038208 ,45,9855338779932 ,50,5179841631562
26.2609566 ,Left ,64,2588531676196 ,45,9651630173802 ,50,5365705613027
26.2836887 ,Left ,64,2700327563197 ,45,9521175012096 ,50,5572817922701
26.2986949 ,Left ,64,2593423766667 ,45,9438049823998 ,50,5762938225405
26.3211502 ,Left ,64,2709998477914 ,45,9402354757644 ,50,5906940256491
26.3437197 ,Left ,64,3169857620409 ,45,9301157344295 ,50,6085206824343
26.357718 ,Left ,64,3640638598594 ,45,9198337231059 ,50,6174107485192
26.3809852 ,Left ,64,370657076125 ,45,9107869375235 ,50,6257099977919
26.4035329 ,Left ,64,3589401175245 ,45,9084766609047 ,50,632477847829
26.4179885 ,Left ,64,3586949558279 ,45,9209481421822 ,50,6471620759037
26.44122 ,Left ,64,3829563580436 ,45,9390405285477 ,50,6550814245453
26.4634769 ,Left ,64,3951024304556 ,45,9415264728479 ,50,6613337442021
26.4846502 ,Left ,64,3926392700413 ,45,9379647986897 ,50,6688915231772
26.5011847 ,Left ,64,3884871713603 ,45,9266956996907 ,50,670433539174
26.5237346 ,Left ,64,3886183858464 ,45,9275703683065 ,50,668633608138
26.5377828 ,Left ,64,397645423758 ,45,9222428579269 ,50,6647674819488
26.5686718 ,Left ,64,4061576265028 ,45,9156902975505 ,50,6542960376679
26.5834958 ,Left ,64,3917768450104 ,45,9115628950778 ,50,6474080096648
26.5977717 ,Left ,64,3757508676085 ,45,9126469385892 ,50,6345414349865
26.6211972 ,Left ,64,3506569684975 ,45,9156643075389 ,50,623680891493
26.643424 ,Left ,64,3333912582986 ,45,9185981662645 ,50,6205790840428
26.6580034 ,Left ,64,3195415421376 ,45,9108466457812 ,50,6119944488218
26.6814481 ,Left ,64,3075056038242 ,45,9022843461985 ,50,6048561985139
26.7037202 ,Left ,64,2781948129941 ,45,8895618820844 ,50,6001385859101
26.7244268 ,Left ,64,2298959563697 ,45,8805092123824 ,50,5909172408292
26.7411856 ,Left ,64,1527316856996 ,45,8947438786227 ,50,5742807660741
26.7637226 ,Left ,64,1392826845553 ,45,9477667447372 ,50,5425559525678
26.7846519 ,Left ,64,155038120696 ,46,0459126738569 ,50,5568399983143
26.8009905 ,Left ,64,1552761121865 ,46,0441194500429 ,50,5559957282336
26.8236918 ,Left ,64,1980027888807 ,46,0092453489027 ,50,5041675471617
26.8443706 ,Left ,64,21131591358 ,46,0300446897087 ,50,4362838063253
26.8616751 ,Left ,64,2252934359742 ,46,0492134516529 ,50,3851720393452
26.8834229 ,Left ,64,3360542937617 ,46,0335124689584 ,50,3382881928116
26.9061532 ,Left ,64,2782569486072 ,46,0041423307964 ,50,3222673834858
26.9203913 ,Left ,64,1611209583908 ,45,9690713423727 ,50,3176373606634
26.9437037 ,Left ,64,0980109596166 ,45,9656359689144 ,50,3066516350337
26.9645859 ,Left ,64,1033869865172 ,45,9971760035464 ,50,2989840164207
26.980491 ,Left ,64,1596716058305 ,46,0159334665702 ,50,2923660630072
27.0109505 ,Left ,64,2223195729641 ,45,99370693269 ,50,3068748368269
27.0247293 ,Left ,64,231443598778 ,45,951280676361 ,50,2854298411126
27.0405689 ,Left ,64,1390554971915 ,45,9041953723023 ,50,2613835318045
27.0697505 ,Left ,64,0534950912039 ,45,8640918273586 ,50,2533205127237
27.0846128 ,Left ,64,0541527317844 ,45,8440689622037 ,50,2544775392455
27.1005675 ,Left ,64,0777848848199 ,45,8436833101426 ,50,2381756867852
27.1239317 ,Left ,64,0815162659426 ,45,8901546339052 ,50,2401599501715
27.1461673 ,Left ,64,0255813595997 ,45,9304992399417 ,50,2728063996281
27.1611213 ,Left ,64,0226371386109 ,45,8622211230996 ,50,2712508427412
27.1836414 ,Left ,64,1808961584669 ,45,8452483644853 ,50,2150852237001
27.2060861 ,Left ,64,1966861301272 ,45,8694924432448 ,50,1485726400689
27.2346352 ,Left ,64,1474213074059 ,45,8622380561435 ,50,1297384859406
27.2436411 ,Left ,64,0986881970402 ,45,8261452817152 ,50,1211467976777
27.2661995 ,Left ,63,9351027284949 ,45,7905332337035 ,50,1278629334144
27.2869415 ,Left ,63,8438756793675 ,45,7932236238214 ,50,1303191479753
27.3035096 ,Left ,63,8331904561687 ,45,8334837348038 ,50,1288204759099
27.326683 ,Left ,63,842247545321 ,45,8812358803118 ,50,1690530820093
27.3470026 ,Left ,63,813198182423 ,45,9466284321641 ,50,2182127219064
27.3635609 ,Left ,63,792877373341 ,45,8926653938535 ,50,1934446690447
27.3861631 ,Left ,63,9499043853392 ,45,8642761215708 ,50,1300723402897
27.4072052 ,Left ,64,0232112343767 ,45,8939018482861 ,50,0847000219227
27.4234462 ,Left ,64,005416147595 ,45,903120741765 ,50,0675205344474
27.4459283 ,Left ,63,9179315521134 ,45,9126719490905 ,50,072551743898
27.4669928 ,Left ,63,8505302520127 ,45,9448627191617 ,50,0915781531894
27.4837084 ,Left ,63,8867455618214 ,45,9813765290566 ,50,1148837048965
27.5059439 ,Left ,63,9136901926287 ,46,0353416022038 ,50,1713637758286
27.5270457 ,Left ,63,8523911536272 ,46,083942969028 ,50,2468407598622
27.5436054 ,Left ,63,7367160430285 ,46,0948591738597 ,50,2676794635965
27.5665769 ,Left ,63,7625381328048 ,46,1150881918816 ,50,1876444941633
27.5870662 ,Left ,63,8252624705773 ,46,1815048671538 ,50,0685689216638
27.6036073 ,Left ,63,8421919861675 ,46,2105979730778 ,49,9896597245813
27.6262081 ,Left ,63,8170533102184 ,46,2179850152379 ,49,9397781691781
27.6470899 ,Left ,63,7337400386476 ,46,2133234005981 ,49,9174589673572
27.6634405 ,Left ,63,682345018393 ,46,2166017925474 ,49,897274125103
27.6862175 ,Left ,63,7052456907662 ,46,2114574906499 ,49,8728987066323
27.7073055 ,Left ,63,7043257923606 ,46,2264192743468 ,49,8688730189764
27.7236666 ,Left ,63,6750974548533 ,46,2456425171675 ,49,857892142897
27.7462103 ,Left ,63,6196691988402 ,46,2495864941449 ,49,8318460715369
27.7672383 ,Left ,63,6069105211337 ,46,2447141727937 ,49,7967273211549
27.7837148 ,Left ,63,6010394573153 ,46,23049101959 ,49,7480777027719
27.8062054 ,Left ,63,5387868873932 ,46,2326689060383 ,49,7116001789995
27.8271137 ,Left ,63,4616914775882 ,46,2564763053562 ,49,6951840516689
27.8434154 ,Left ,63,4490086165591 ,46,2844906116478 ,49,6816176941423
27.86624 ,Left ,63,4964798644253 ,46,3336700800922 ,49,6872504909588
27.8870792 ,Left ,63,4966794560487 ,46,4043130063426 ,49,706477288314
27.9036619 ,Left ,63,4794005226134 ,46,3711021666467 ,49,6676399284356
27.9259709 ,Left ,63,5490454233317 ,46,3314880500592 ,49,5920223793329
27.9470189 ,Left ,63,6065631965775 ,46,2865103541854 ,49,5299665344402
27.9636945 ,Left ,63,644257114117 ,46,2283531956236 ,49,5030367395305
27.9861408 ,Left ,63,6464531119698 ,46,1593549661755 ,49,50770363125
28.0070343 ,Left ,63,5802755430377 ,46,0817743701487 ,49,5325167339842
28.0235419 ,Left ,63,575960111521 ,46,0182581843992 ,49,5641185010029
28.0460068 ,Left ,63,611549490455 ,45,9728059877926 ,49,5944837394377
28.0689147 ,Left ,63,620939932548 ,45,9859030773074 ,49,6166006199607
28.0834728 ,Left ,63,6139738239752 ,46,0427508253638 ,49,6391603507023
28.1061827 ,Left ,63,6644533822501 ,46,0896838898975 ,49,6585457765791
28.1283895 ,Left ,63,7185513354084 ,46,1314582618054 ,49,6986299254386
28.1436528 ,Left ,63,7164310555888 ,46,109240426028 ,49,7469944924336
28.1659765 ,Left ,63,7739181423251 ,46,0154503735834 ,49,7479473091505
28.1884468 ,Left ,63,9127034635375 ,46,0051396600157 ,49,6992717696469
28.2036457 ,Left ,63,9316534483625 ,46,0421924541259 ,49,6319608615036
28.2321444 ,Left ,63,9323315917934 ,46,0423939528215 ,49,612692514594
28.2487047 ,Left ,63,9542155242452 ,46,0215486733099 ,49,6042874001307
28.2697584 ,Left ,63,8401990008211 ,46,0280049240097 ,49,6112956266489
28.2859709 ,Left ,63,7784570780746 ,46,0541465567205 ,49,6446691236574
28.3085842 ,Left ,63,8465093820259 ,46,0835855960832 ,49,6861933849252
28.3297497 ,Left ,63,8778493114585 ,46,0961056532188 ,49,735307354278
28.3461463 ,Left ,63,8782337543573 ,46,094722752746 ,49,7520079068988
28.3684552 ,Left ,63,849240322492 ,46,0497468054339 ,49,7822178869638
28.3828927 ,Left ,63,8419338462539 ,45,994573177917 ,49,8180211886639
28.4060273 ,Left ,63,849862125759 ,45,9693722928142 ,49,8527726944362
28.4287007 ,Left ,63,8517874217982 ,45,9591583843168 ,49,8931264092348
28.4430504 ,Left ,63,8988729731352 ,45,9579775277321 ,49,9273278718703
28.4659862 ,Left ,63,9642078072837 ,45,9403903723472 ,49,9519647085173
28.4885309 ,Left ,63,9591266787335 ,45,908042746229 ,49,9893281419527
28.5097424 ,Left ,63,9431207016635 ,45,8874512065257 ,50,0356005898715
28.5262187 ,Left ,63,938541732643 ,45,8855876082491 ,50,0767640122511
28.5485063 ,Left ,63,9910210054373 ,45,8980132878839 ,50,1169315136016
28.5697476 ,Left ,64,0586333299187 ,45,8969132851072 ,50,1466982309844
28.5862484 ,Left ,64,0695300777515 ,45,8862741069677 ,50,1858710078273
28.6085652 ,Left ,64,0303711607901 ,45,8759608369392 ,50,2226323094614
28.6295487 ,Left ,64,0188983938638 ,45,870332607083 ,50,2497992428598
28.646136 ,Left ,64,0456283236996 ,45,870844453463 ,50,2769151793246
28.6684979 ,Left ,64,095024429979 ,45,8717752616536 ,50,2994457202526
28.689627 ,Left ,64,1007304534022 ,45,8670600976212 ,50,3223468154149
28.7059818 ,Left ,64,0862888266425 ,45,8651250700734 ,50,3514349755993
28.7286071 ,Left ,64,1054387476443 ,45,8583340037584 ,50,3763292618679
28.7495592 ,Left ,64,1301193824558 ,45,853429035385 ,50,405580527565
28.7662133 ,Left ,64,1495987701564 ,45,8668295564363 ,50,4379024431736
28.7884051 ,Left ,64,1624652697451 ,45,8683100840874 ,50,4692854288302
28.8094661 ,Left ,64,1707698939448 ,45,8667036724771 ,50,4937932788412
28.8259763 ,Left ,64,1829826599896 ,45,8686112891377 ,50,5194165976304
28.8485495 ,Left ,64,2296123781344 ,45,8649274044282 ,50,546606992365
28.8540336 ,Left ,64,3024399221697 ,45,8651621246406 ,50,5701936745362
28.8765101 ,Left ,64,3664758982516 ,45,859678044527 ,50,5884335323815
28.8914238 ,Left ,64,3722271911101 ,45,8503906244499 ,50,6112420325747
28.9138509 ,Left ,64,3708135304277 ,45,8347420360468 ,50,6301427556033
28.9364407 ,Left ,64,3713057677483 ,45,8322710754666 ,50,6441016928269
28.9514556 ,Left ,64,3847587337835 ,45,8373641274649 ,50,658073578175
28.9740816 ,Left ,64,4120074306327 ,45,838599146472 ,50,6685754637373
28.9963161 ,Left ,64,4393012070622 ,45,8433557125886 ,50,6763391274191
29.0114168 ,Left ,64,4341086740051 ,45,8452667752006 ,50,6822447116677
29.0341155 ,Left ,64,4133895732695 ,45,8458136935893 ,50,6892637247817
29.0566129 ,Left ,64,4103700697324 ,45,8424585843956 ,50,6966863141733
29.0713296 ,Left ,64,4318538256063 ,45,8376106177521 ,50,7027623364966
29.0939023 ,Left ,64,4599997430343 ,45,8344778563766 ,50,7042735091631
29.1252517 ,Left ,64,453864599904 ,45,8327203933141 ,50,7043717683899
29.1314111 ,Left ,64,4407611636665 ,45,8278480595027 ,50,7034022009635
29.1539321 ,Left ,64,4549181711112 ,45,8195333402498 ,50,6999993464831
29.1795223 ,Left ,64,4793602400138 ,45,8242558274495 ,50,6949573365129
29.1914236 ,Left ,64,4707720053404 ,45,8297516406564 ,50,6897934676648
29.2139371 ,Left ,64,4565867900479 ,45,8370005278751 ,50,6775229631933
29.2364931 ,Left ,64,4274197409914 ,45,8426424544302 ,50,6665153270306
29.251506 ,Left ,64,3883720337538 ,45,8486814963182 ,50,6609776350651
29.2739346 ,Left ,64,3430089874906 ,45,8547113363309 ,50,6563800321136
29.2963774 ,Left ,64,2967226161283 ,45,8678811556673 ,50,6551741476704
29.311374 ,Left ,64,2301360284071 ,45,9059438745601 ,50,6508075293802
29.333828 ,Left ,64,2586068522459 ,45,9719499704025 ,50,6441360337959
29.3566025 ,Left ,64,2335427155407 ,46,0564723017155 ,50,6440037229785
29.3713564 ,Left ,64,1256650030268 ,46,0394706289605 ,50,6613311000633
29.394145 ,Left ,64,242151097528 ,46,0072333014752 ,50,5914827513385
29.4163665 ,Left ,64,2954106044813 ,46,04659811761 ,50,5104383907667
29.4315268 ,Left ,64,2774134114702 ,46,0819620485231 ,50,4445916097836
29.455249 ,Left ,64,3436042283966 ,46,0772270037399 ,50,3996027462079
29.476402 ,Left ,64,3005080694712 ,46,0589679724089 ,50,3896745121377
29.4913997 ,Left ,64,2383455438409 ,46,0282686325454 ,50,3908083462711
29.5139002 ,Left ,64,2246426969116 ,46,0002701371959 ,50,392288000138
29.5362466 ,Left ,64,1826318240834 ,46,00080966346 ,50,3975686491127
29.5530368 ,Left ,64,1677773374313 ,46,0191461170527 ,50,3886217226536
29.5741389 ,Left ,64,1899180641674 ,46,0220634160702 ,50,3656238374444
29.596408 ,Left ,64,2042783925379 ,45,9840446904562 ,50,3522759760794
29.6128554 ,Left ,64,1958931391229 ,45,9378225185766 ,50,3461269848458
29.6341802 ,Left ,64,1494167731697 ,45,900223288631 ,50,3363512957569
29.6563292 ,Left ,64,0897980749274 ,45,8758533734482 ,50,3191901195475
29.672893 ,Left ,64,0636754832591 ,45,881749105711 ,50,3014866079881
29.6938405 ,Left ,64,0991406022223 ,45,9130564229492 ,50,2987653997623
29.7164384 ,Left ,64,1488876990383 ,45,9392046191885 ,50,3048639496081
29.733037 ,Left ,64,1269281215396 ,45,8569729982371 ,50,3077223832879
29.7539015 ,Left ,64,1917167919962 ,45,8231193510606 ,50,2596907824075
29.7763236 ,Left ,64,1980091773778 ,45,829343796936 ,50,2051476267538
29.7930781 ,Left ,64,214935836417 ,45,8235312894353 ,50,1785194269644
29.813895 ,Left ,64,2294353823489 ,45,8003991156141 ,50,1612425416773
29.8365212 ,Left ,64,1133403896128 ,45,7848241617557 ,50,1603972983711
29.8544865 ,Left ,64,0077027730047 ,45,82039459204 ,50,1736365065986
29.8738698 ,Left ,64,0691076355793 ,45,8803406693085 ,50,189462774561
29.8963207 ,Left ,64,1426878290563 ,45,9303581680447 ,50,2560034897101
29.9220221 ,Left ,64,1044551941682 ,45,9049755833065 ,50,296601741195
29.933783 ,Left ,64,1044772303889 ,45,8779896036087 ,50,2532437647328
29.956416 ,Left ,64,1015393483602 ,45,9126995341903 ,50,1942294935225
29.9744526 ,Left ,64,0870646448153 ,45,9250123929769 ,50,1475850826393
29.9941336 ,Left ,64,1155566363761 ,45,9215827549289 ,50,1142676976441
30.0165736 ,Left ,64,0010140599311 ,45,928626793356 ,50,1059729175182
30.0388815 ,Left ,63,9459271696441 ,45,9473991541885 ,50,1240351304915
30.061591 ,Left ,63,9879952578964 ,45,9610110300823 ,50,1445823388266
30.0763966 ,Left ,63,9296355970722 ,45,9948857578471 ,50,163376308204
30.0990654 ,Left ,63,8231352660524 ,46,0473399494228 ,50,2182894701277
30.1139321 ,Left ,63,7566818723832 ,46,1155603794928 ,50,2944530689688
30.1366276 ,Left ,63,7722576864979 ,46,0502626618802 ,50,2797051732627
30.1588892 ,Left ,63,9116622762553 ,46,0422763814087 ,50,2029753318491
30.1738749 ,Left ,63,9164016319799 ,46,0862974476264 ,50,1083090630564
30.1964356 ,Left ,63,841754338127 ,46,0954591299062 ,50,0612320954217
30.2189527 ,Left ,63,8314169429348 ,46,0952216174215 ,50,0213107265139
30.2341146 ,Left ,63,7854203559684 ,46,09590114769 ,49,9928536442366
30.2564302 ,Left ,63,7516918754346 ,46,1019543797339 ,49,9652504852006
30.2742663 ,Left ,63,7439810162818 ,46,1080108250959 ,49,9389045288862
30.2938464 ,Left ,63,7183474599585 ,46,1302281104026 ,49,9264392362955
30.3164443 ,Left ,63,6694253041304 ,46,1300207819376 ,49,9044009476048
30.3345755 ,Left ,63,6708680572226 ,46,1348269160728 ,49,8891285094368
30.3539715 ,Left ,63,7145113190902 ,46,1344471052943 ,49,8662724388991
30.3762816 ,Left ,63,7223940590734 ,46,1243709759754 ,49,8262628309217
30.3941421 ,Left ,63,6598805136834 ,46,1200169059925 ,49,7955412208449
30.4140529 ,Left ,63,6025295736432 ,46,1228660119859 ,49,7718159676641
30.4363205 ,Left ,63,5968143081211 ,46,1322261018316 ,49,7468708342212
30.4542412 ,Left ,63,5909835530347 ,46,1543756534571 ,49,727410819179
30.4767597 ,Left ,63,5647589803358 ,46,1861504406963 ,49,6979140862211
30.4964353 ,Left ,63,5360858840545 ,46,2381496551041 ,49,6950539683974
30.5146596 ,Left ,63,4845603016247 ,46,2977378235338 ,49,7347113796222
30.5355678 ,Left ,63,5574958164605 ,46,2856925187631 ,49,6688306969105
30.5565643 ,Left ,63,6156890235416 ,46,2759526832715 ,49,5521224807738
30.5788196 ,Left ,63,5834553031131 ,46,2624931475908 ,49,489799496136
30.5955622 ,Left ,63,6039835908617 ,46,2320905911255 ,49,4648407507852
30.6163627 ,Left ,63,5932919842882 ,46,1875636029599 ,49,4693032305426
30.6345519 ,Left ,63,5987211842234 ,46,1410487009431 ,49,4860089886991
30.6662862 ,Left ,63,6591649588402 ,46,0788884547212 ,49,5035283165879
30.6763304 ,Left ,63,6723050627392 ,46,0198410333252 ,49,5326740825942
30.6942461 ,Left ,63,5947369446513 ,45,9660307661248 ,49,5635671795481
30.7155684 ,Left ,63,5810855009125 ,45,981741467067 ,49,5964158936389
30.7363343 ,Left ,63,6302939971782 ,46,0553046695858 ,49,6384196782692
30.7545014 ,Left ,63,7103396029131 ,46,1162974935518 ,49,6712701664162
30.7754216 ,Left ,63,7821405696003 ,46,0690666990049 ,49,7243286575171
30.7965124 ,Left ,63,9055908511399 ,45,9469078047041 ,49,7507278406636
30.8188962 ,Left ,64,0341454713164 ,45,9202479397784 ,49,7058548108153
30.8428091 ,Left ,63,9513483400031 ,45,9948780443778 ,49,6569750924705
30.8563196 ,Left ,63,9287085887639 ,46,0146429255273 ,49,6540804280043
30.8789821 ,Left ,64,0061921911368 ,46,0144271391658 ,49,6741675740154
30.8968467 ,Left ,63,9546329116251 ,46,0323006035406 ,49,7108310068582
30.9238868 ,Left ,63,8890301502041 ,46,0961082202297 ,49,7708764049916
30.9344714 ,Left ,63,947517986697 ,46,1369411835423 ,49,8344575053311
30.9570128 ,Left ,64,0200897923419 ,46,1290491269978 ,49,912349410962
30.9765808 ,Left ,64,0846476272219 ,46,1092334598634 ,49,9968654635096
30.9988481 ,Left ,64,0867191045411 ,46,0687593814805 ,50,0683536002221
31.0170578 ,Left ,64,0586952349988 ,46,0156142608821 ,50,1291837064609
31.0365565 ,Left ,64,0404845420431 ,45,9750010319288 ,50,1857129483005
31.0590289 ,Left ,64,0601604684088 ,45,9469368446712 ,50,2329801395617
31.076761 ,Left ,64,0827610540853 ,45,9268980659834 ,50,2857007230527
31.0964033 ,Left ,64,1125324185711 ,45,9049272725607 ,50,3321793931866
31.1203607 ,Left ,64,1566570142636 ,45,889298189663 ,50,3716413927142
31.1370846 ,Left ,64,1648119455736 ,45,8889941447362 ,50,4118072949909
31.156377 ,Left ,64,1771926158467 ,45,897438885367 ,50,4467289010794
31.1789239 ,Left ,64,2076754811869 ,45,9115736841158 ,50,4757743915752
31.1968544 ,Left ,64,232666623162 ,45,9239121448926 ,50,4958754402714
31.2166181 ,Left ,64,2443996088579 ,45,9389008244431 ,50,5213532339577
31.2388883 ,Left ,64,2454898175189 ,45,9609728090328 ,50,5428278816946
31.2568119 ,Left ,64,2620583298498 ,45,9881560637088 ,50,5558972166069
31.2763683 ,Left ,64,2583527332184 ,46,0031306624417 ,50,5658442567638
31.2990983 ,Left ,64,2674591401321 ,46,0189675524262 ,50,5721646012721
31.3170223 ,Left ,64,2697493470988 ,46,0348581700201 ,50,5838492406148
31.3363439 ,Left ,64,2892017905054 ,46,0336130488169 ,50,587658027994
31.3588439 ,Left ,64,3322649190286 ,46,0329721247595 ,50,5909783617376
31.3770748 ,Left ,64,3456488889524 ,46,0240611553787 ,50,5893401813177
31.3964506 ,Left ,64,3284430510218 ,46,026811430106 ,50,5907738676798
31.4189705 ,Left ,64,3433581743279 ,46,0415259255916 ,50,5850279981187
31.4367205 ,Left ,64,3698099165086 ,46,0541655162811 ,50,5771277439351
31.4564581 ,Left ,64,392206874434 ,46,062439167942 ,50,5698852284805
31.478869 ,Left ,64,4041164756496 ,46,0594535427882 ,50,5650609435397
31.4969833 ,Left ,64,4035770562458 ,46,0596606123424 ,50,5649211095962
31.5178405 ,Left ,64,4005059992495 ,46,0552075494064 ,50,5566581150051
31.5390002 ,Left ,64,4083196132058 ,46,0480201173241 ,50,5478743056603
31.5642608 ,Left ,64,4304832388541 ,46,030822693058 ,50,5349096894284
31.5781257 ,Left ,64,4212771527234 ,46,0082947236773 ,50,5247770684291
31.5987801 ,Left ,64,3996628880091 ,45,983783365626 ,50,5202194804674
31.6170078 ,Left ,64,3879417233197 ,45,9638612487807 ,50,5139866598634
31.6378357 ,Left ,64,3837061871493 ,45,9517037460488 ,50,5173103324593
31.6589413 ,Left ,64,3839571867723 ,45,949914532147 ,50,5164516471312
31.6768256 ,Left ,64,3726287705532 ,45,9466513456617 ,50,5205441286962
31.6978243 ,Left ,64,3390551720982 ,45,9559411429251 ,50,5247202157101
31.7188679 ,Left ,64,3006152918994 ,45,9688780571854 ,50,5311517332726
31.737073 ,Left ,64,2630066509857 ,45,9834895881722 ,50,5294999707993
31.7580719 ,Left ,64,2443190479088 ,46,0254188081463 ,50,5084324278245
31.7788882 ,Left ,64,2760910288704 ,46,1188405451371 ,50,5167934821802
31.7968112 ,Left ,64,2872084678655 ,46,1969660832809 ,50,5420774598345
31.8178974 ,Left ,64,2944954218878 ,46,1236319999439 ,50,5084162981108
31.8391984 ,Left ,64,3460352964565 ,46,1219762374724 ,50,4188778811622
31.8567826 ,Left ,64,2697393940802 ,46,1569549347809 ,50,3488074690176
31.8793887 ,Left ,64,2817415088639 ,46,1396094811315 ,50,3109438874836
31.8989309 ,Left ,64,2879598414654 ,46,1176640404502 ,50,3016778324363
31.9170818 ,Left ,64,2167529197139 ,46,0841404219117 ,50,3137459451587
31.9393167 ,Left ,64,1783623320892 ,46,0524347906312 ,50,3401745785097
31.9591441 ,Left ,64,191580559113 ,46,0438827230518 ,50,3605974577701
31.9770142 ,Left ,64,1882558985485 ,46,0519014596717 ,50,3669877011223
31.9994529 ,Left ,64,1883732211433 ,46,0446363314526 ,50,3504610610363
32.0189036 ,Left ,64,1966237905314 ,45,9978972432234 ,50,3380943090934
32.0370185 ,Left ,64,1840337108429 ,45,9373998429668 ,50,3214778914052
32.0595897 ,Left ,64,1243799617318 ,45,8825619898448 ,50,3180636447678
32.0789448 ,Left ,64,047379721346 ,45,8542591163921 ,50,3208748149407
32.0967981 ,Left ,64,0610773965127 ,45,859619021733 ,50,3303427709891
32.119269 ,Left ,64,125948579564 ,45,8995110743826 ,50,3323576211258
32.138899 ,Left ,64,1514029588075 ,45,8808088842353 ,50,3812103300176
32.1570586 ,Left ,64,2137558222693 ,45,829835615355 ,50,3556408846847
32.1793353 ,Left ,64,183075147787 ,45,8448916864374 ,50,3016293355156
32.1988949 ,Left ,64,0928376055892 ,45,898547585234 ,50,2665128373017
32.2170115 ,Left ,64,1755522579167 ,45,8720689656288 ,50,2459712206582
32.2393738 ,Left ,64,2310062095487 ,45,8358123690766 ,50,2321926242518
32.2589144 ,Left ,64,1051619300403 ,45,7981278023716 ,50,247853167453
32.2767647 ,Left ,64,0274712876421 ,45,7779500308487 ,50,2700664177459
32.2996336 ,Left ,64,0468104885644 ,45,7764964886509 ,50,2885452686518
32.3191073 ,Left ,64,0926350847586 ,45,7686570111838 ,50,3071677492099
32.3371238 ,Left ,64,1592836796416 ,45,7738009073384 ,50,3270681564307
32.3595321 ,Left ,64,165294150708 ,45,788050594595 ,50,3417447161531
32.3803312 ,Left ,64,1313431770424 ,45,8071013807672 ,50,3616470945329
32.3967975 ,Left ,64,1148749107682 ,45,8216395416527 ,50,3837164913785
32.4193786 ,Left ,64,1302875444291 ,45,8322020815507 ,50,3954994802536
32.4391307 ,Left ,64,1577685263576 ,45,8337556528909 ,50,4015120341745
32.4562149 ,Left ,64,183285673324 ,45,8214174197078 ,50,4097309009271
32.4785227 ,Left ,64,1895358396931 ,45,8018910029889 ,50,4041027498029
32.4996926 ,Left ,64,1656816378991 ,45,7767267673325 ,50,3926905585099
32.5223204 ,Left ,64,1378646981814 ,45,753857410934 ,50,3856925053122
32.53848 ,Left ,64,1162734261582 ,45,7428643318818 ,50,385137118386
32.5595563 ,Left ,64,0847407542101 ,45,7658629916614 ,50,3872312818958
32.5761662 ,Left ,64,1100044302297 ,45,8142143967719 ,50,4091188471747
32.6046603 ,Left ,64,1437367378171 ,45,8529332393312 ,50,4362493751855
32.6197096 ,Left ,64,082644032846 ,45,8106371796016 ,50,4391763687944
32.6356162 ,Left ,64,0878463978008 ,45,8516096645945 ,50,3796071706426
32.6587392 ,Left ,64,036488554848 ,45,9293577861001 ,50,3100921047849
32.6809732 ,Left ,64,0568610734271 ,45,9530502472569 ,50,2753569888893
32.6955372 ,Left ,64,1297652811032 ,45,964617544539 ,50,2587349361074
32.7184732 ,Left ,64,0573381210839 ,45,9950909602646 ,50,2689628863785
32.7410722 ,Left ,64,0155235375241 ,46,0174155239922 ,50,2870327492227
32.762153 ,Left ,64,052182278487 ,46,0141361997047 ,50,3069908801808
32.7862036 ,Left ,64,0498594234152 ,46,0067768268172 ,50,327536338777
32.800977 ,Left ,63,9965394186179 ,46,0021974498627 ,50,3405299815479
32.8162393 ,Left ,63,9642902897831 ,46,012389187947 ,50,3513014506397
32.838536 ,Left ,63,9315040165723 ,46,0322242493593 ,50,3645494570386
32.8610212 ,Left ,63,9369711486547 ,46,0827230266695 ,50,3896315971917
32.8761487 ,Left ,63,9119068516478 ,46,1401481845596 ,50,4322008818679
32.89849 ,Left ,63,8710921297066 ,46,0984272888191 ,50,4674574112667
32.9209952 ,Left ,64,0103987097815 ,46,0413599040738 ,50,3701476144164
32.9420539 ,Left ,64,0068099416641 ,46,0761614903538 ,50,2418873780924
32.9584527 ,Left ,63,8787713169228 ,46,1195864193263 ,50,1715335962717
32.9809179 ,Left ,63,9548023940234 ,46,1227886673424 ,50,1315008400296
33.0020923 ,Left ,63,9724021664537 ,46,1352332341558 ,50,1072070768856
33.0185601 ,Left ,63,8924409260777 ,46,1694887532546 ,50,1089861928914
33.0412257 ,Left ,63,910829366497 ,46,1740498446026 ,50,1153767669965
33.0552675 ,Left ,63,9310740401232 ,46,1647720200448 ,50,132492823153
33.0785678 ,Left ,63,9207544881503 ,46,1616408543344 ,50,1496501371761
33.1009709 ,Left ,63,9248616451453 ,46,1704550374042 ,50,1812007155295
33.122055 ,Left ,63,9267723790661 ,46,1787167045783 ,50,2000814080389
33.1386311 ,Left ,63,9628272901095 ,46,162750370593 ,50,1925626049402
33.1610177 ,Left ,64,0092926802459 ,46,1264684827074 ,50,1807798636282
33.1754924 ,Left ,64,0350573587192 ,46,1065658517694 ,50,1553303292525
33.1985754 ,Left ,63,9714518265928 ,46,0990888166049 ,50,1291696297353
33.2287318 ,Left ,63,8852427146172 ,46,1159803840196 ,50,09985032672
33.2353501 ,Left ,63,8941653918303 ,46,1330760295571 ,50,0572485141733
33.258741 ,Left ,63,9270143107293 ,46,1519367212007 ,50,0125884025687
33.2812589 ,Left ,63,8981863035539 ,46,1796867579749 ,49,9661733915002
33.3021879 ,Left ,63,8204250153868 ,46,2064654446305 ,49,9362476559259
33.3187202 ,Left ,63,7793725462383 ,46,2367053810465 ,49,9079639971042
33.3411761 ,Left ,63,7420385236472 ,46,2697249288951 ,49,8780262637281
33.3620927 ,Left ,63,7238353648089 ,46,313490533133 ,49,8270808625539
33.3787742 ,Left ,63,7445440969228 ,46,4022834936952 ,49,8097082846309
33.4010664 ,Left ,63,6993349064389 ,46,4964501207532 ,49,8343928017613
33.4235241 ,Left ,63,6912415977496 ,46,4468176780484 ,49,7460549954645
33.4380433 ,Left ,63,7229641110896 ,46,4253282336434 ,49,6118712469734
33.4685295 ,Left ,63,6391569588615 ,46,4123336231369 ,49,5150972078669
33.4820347 ,Left ,63,5961213386497 ,46,387301948778 ,49,4743744592103
33.498062 ,Left ,63,6282996757017 ,46,3650452086633 ,49,4688272573745
33.5211845 ,Left ,63,7291859016995 ,46,296974597936 ,49,4917897613171
33.5421166 ,Left ,63,8896391220376 ,46,2175329729207 ,49,5101165409936
33.5581454 ,Left ,63,9271884028599 ,46,127009984335 ,49,5385391232065
33.5812967 ,Left ,63,8105393120017 ,46,0306298450654 ,49,5756018546056
33.6036342 ,Left ,63,7470916231608 ,45,9601365951129 ,49,617989342294
33.6181191 ,Left ,63,7921103056843 ,45,9761438397483 ,49,6627148756454
33.6413068 ,Left ,63,8936862854915 ,46,0419819013662 ,49,7103569412265
33.6621624 ,Left ,63,9260632034265 ,46,0775159389219 ,49,7745505741601
33.6778334 ,Left ,63,8378033379278 ,45,971213729581 ,49,8270428770177
33.7012293 ,Left ,63,8824761830726 ,45,9008544397981 ,49,8337484605809
33.7237915 ,Left ,63,920586583381 ,45,9475929972132 ,49,7662591384456
