timestamp,event,roll,pitch,yaw
0.016043 ,Left ,56,4682826213097 ,46,9646374590711 ,81,4859077147945
0.0387176 ,Left ,56,4682826213097 ,46,9646374590711 ,81,4859077147945
0.0537552 ,Left ,56,4636428622573 ,46,9732261319609 ,81,4898799839804
0.07634 ,Left ,56,4520342432857 ,46,9890415940959 ,81,4953286367278
0.0987165 ,Left ,56,4571630280441 ,47,0035641209662 ,81,5016162100248
0.1136826 ,Left ,56,4688000803378 ,47,004792726428 ,81,5108770156641
0.136173 ,Left ,56,4572100085791 ,46,9990611720754 ,81,5157742133972
0.1589115 ,Left ,56,4425763519563 ,47,0005229489652 ,81,5239138073743
0.173891 ,Left ,56,4413419611104 ,47,002156356867 ,81,5240059042218
0.1969471 ,Left ,56,4515534055621 ,47,010741635128 ,81,5266911093023
0.2196376 ,Left ,56,450478790655 ,47,0093224042393 ,81,5150273401419
0.2343261 ,Left ,56,4413333244196 ,47,0029954412067 ,81,5013322364007
0.2562096 ,Left ,56,4361766098204 ,47,0046668247734 ,81,4996649769584
0.2789097 ,Left ,56,4349412557967 ,47,0062994273919 ,81,4997565473783
0.2937226 ,Left ,56,4289315513407 ,47,0113994606433 ,81,4884706307501
0.3163399 ,Left ,56,4253085008887 ,47,0089682566346 ,81,4717422565858
0.338924 ,Left ,56,400986412513 ,46,9936152269713 ,81,4689218302028
0.3537856 ,Left ,56,3306264394568 ,46,9859905948927 ,81,4574944246949
0.3763519 ,Left ,56,2487427410694 ,46,961978919341 ,81,4559731263183
0.3988432 ,Left ,56,1773200175978 ,46,9539677572607 ,81,4408554866939
0.4138294 ,Left ,56,089630882245 ,46,9740832595588 ,81,4243053334069
0.4363688 ,Left ,55,9598464497662 ,46,9850657348498 ,81,3942185989785
0.4593246 ,Left ,55,8666965169288 ,46,9867798569941 ,81,3592851802268
0.4814775 ,Left ,55,8612904074995 ,46,9790589646697 ,81,3541105260947
0.4964467 ,Left ,55,830204351022 ,46,9985063444434 ,81,3629642942699
0.5187374 ,Left ,55,7328613204712 ,47,0465914166656 ,81,3359582655167
0.5487004 ,Left ,55,7035781555751 ,47,0993932079659 ,81,3178523153088
0.5639206 ,Left ,55,7453287603237 ,47,1264186540906 ,81,3012791340971
0.5864064 ,Left ,55,7086829755056 ,47,1428217590282 ,81,2658366041019
0.6014134 ,Left ,55,6430199667444 ,47,1733884657867 ,81,2330156706356
0.6165131 ,Left ,55,6608393850045 ,47,2139563129997 ,81,1950408626092
0.6389846 ,Left ,55,7440222286837 ,47,225263763718 ,81,178309249215
0.6615169 ,Left ,55,8130716741312 ,47,2319567038875 ,81,1634813341047
0.6763449 ,Left ,55,8092926528433 ,47,198609881893 ,81,1208293952049
0.6986624 ,Left ,55,8055804596644 ,47,1727172986955 ,81,0560991008753
0.7213598 ,Left ,55,843641243639 ,47,1614929587248 ,81,0014866865565
0.7362935 ,Left ,55,8302919337568 ,47,1269766276883 ,80,9535794707198
0.7590707 ,Left ,55,7919834193799 ,47,0912778989149 ,80,915603816667
0.7814877 ,Left ,55,7733157897807 ,47,0576311150707 ,80,8892126519659
0.7963107 ,Left ,55,7412196884755 ,47,0195373612887 ,80,8635192578294
0.8189969 ,Left ,55,6833798341251 ,47,0015506078169 ,80,8487132468577
0.8415672 ,Left ,55,6039578610854 ,46,9890942340172 ,80,8273854150443
0.8564523 ,Left ,55,5439224328282 ,46,9370446274424 ,80,7764920724865
0.878882 ,Left ,55,5586123801855 ,46,8674128084004 ,80,7690279010678
0.9013657 ,Left ,55,4880529467143 ,46,8462897919228 ,80,7677426410754
0.9164028 ,Left ,55,3359848748204 ,46,9069782804983 ,80,7570573453754
0.9389357 ,Left ,55,3157216634892 ,46,97171617466 ,80,7738298068581
0.9613769 ,Left ,55,4158231188015 ,46,9856181165976 ,80,8046056838063
0.9764212 ,Left ,55,5129656040932 ,46,9628779508704 ,80,8368865776833
0.9989038 ,Left ,55,5078004654309 ,46,9602734619293 ,80,849410619875
1.0210888 ,Left ,55,4526564282504 ,47,0007840597727 ,80,8503978617669
1.0363564 ,Left ,55,4626732907855 ,47,0172795878767 ,80,805694340622
1.0588412 ,Left ,55,439381663133 ,47,0607781926332 ,80,7959827055643
1.081273 ,Left ,55,472032718368 ,47,1564678632409 ,80,8336701902584
1.0964564 ,Left ,55,4648296373041 ,47,2952786814105 ,80,8720281138162
1.1187419 ,Left ,55,5044300577719 ,47,4290031342039 ,80,8891651182907
1.1411525 ,Left ,55,583017288982 ,47,4975111783516 ,80,9226540875871
1.156397 ,Left ,55,5420517614747 ,47,5355417792492 ,80,9384803531496
1.1789991 ,Left ,55,4680411342787 ,47,5717616151988 ,80,9455852707939
1.2014875 ,Left ,55,404839447659 ,47,5651914274128 ,80,9269722535876
1.2167984 ,Left ,55,3848104061423 ,47,5087884529141 ,80,8794475574642
1.2394383 ,Left ,55,3186664539306 ,47,4303135345054 ,80,8143507217201
1.2615325 ,Left ,55,2151230727043 ,47,3788123110343 ,80,7734362808154
1.2763072 ,Left ,55,172419516929 ,47,3229248719691 ,80,7287996347615
1.2987522 ,Left ,55,1911195141219 ,47,2807785252305 ,80,6983163392692
1.3290065 ,Left ,55,2000570137076 ,47,276905207024 ,80,6784816361883
1.3512956 ,Left ,55,1440535523728 ,47,3944436180569 ,80,6041722208238
1.3664247 ,Left ,55,1321296940685 ,47,5303118439087 ,80,552720463945
1.4040848 ,Left ,55,1215776513968 ,47,6871401288076 ,80,4759178961037
1.4188614 ,Left ,55,119144135861 ,47,730706927278 ,80,3984269280716
1.4412166 ,Left ,55,0743990370777 ,47,7718092801983 ,80,3384110901516
1.4561825 ,Left ,55,0230605579236 ,47,7901135894893 ,80,2860305660881
1.4788504 ,Left ,54,986684030253 ,47,8030452312435 ,80,2227501758262
1.5012654 ,Left ,54,9662955098798 ,47,8347380065898 ,80,1808334827856
1.5161878 ,Left ,55,0102843004851 ,47,8466497039532 ,80,157193097154
1.5388964 ,Left ,55,0447774033039 ,47,8092076930587 ,80,1430159105638
1.5613801 ,Left ,55,0122552340554 ,47,7565411474595 ,80,121001004432
1.5838534 ,Left ,54,9577058262209 ,47,7326023129137 ,80,0938009829855
1.5987218 ,Left ,54,9501055990742 ,47,6966637460111 ,80,1048906903661
1.6213829 ,Left ,54,9227503779584 ,47,6187589608251 ,80,0762582343855
1.6438442 ,Left ,54,8595187352361 ,47,5267694590003 ,80,076404066191
1.6588749 ,Left ,54,8169902071707 ,47,4864930775192 ,80,0751992147711
1.6810674 ,Left ,54,8620601261607 ,47,5043224743812 ,80,0480705827318
1.7037605 ,Left ,54,9292922861507 ,47,6034271099915 ,79,9843217243775
1.7186885 ,Left ,55,0254481220193 ,47,6396768330644 ,79,9247993524966
1.7411944 ,Left ,55,117896094704 ,47,6068674426309 ,79,8451772359681
1.7638025 ,Left ,55,0947431218273 ,47,5336833202696 ,79,7694249648767
1.7786444 ,Left ,55,1015347042551 ,47,5276401236955 ,79,7328418170517
1.8014995 ,Left ,55,0572083489016 ,47,5610370034213 ,79,6947953400152
1.8239881 ,Left ,55,1116806378949 ,47,5204460536033 ,79,6594724677474
1.8389483 ,Left ,55,1677378927164 ,47,4587821545874 ,79,718376006337
1.8612157 ,Left ,55,2209598290277 ,47,4470211328336 ,79,752263167814
1.8839033 ,Left ,55,3148514132474 ,47,512777665863 ,79,7564722731106
1.8986597 ,Left ,55,506936575384 ,47,6522394890488 ,79,7864928207516
1.9211887 ,Left ,55,7394445929856 ,47,8089954434357 ,79,792997935056
1.9436632 ,Left ,55,9621207241824 ,47,931096428144 ,79,799057931057
1.959178 ,Left ,56,1439903923844 ,48,0090449100837 ,79,8333820898086
1.9817427 ,Left ,56,2220074939629 ,48,0434095076878 ,79,8507282114115
2.0038424 ,Left ,56,3309187878247 ,48,0723463443077 ,79,870466743573
2.0189534 ,Left ,56,4054746160695 ,48,0543889045705 ,79,9023325449009
2.0413493 ,Left ,56,4318128418828 ,48,0361868924825 ,79,9334713006903
2.0637532 ,Left ,56,4447725988634 ,48,0025007748283 ,79,9691762551988
2.0786927 ,Left ,56,4356381842208 ,47,9813964737145 ,80,0137349911164
2.1013167 ,Left ,56,4191368436025 ,47,960876120864 ,80,0833180834898
2.1236883 ,Left ,56,3967938209898 ,47,9324808982354 ,80,1614577890615
2.13871 ,Left ,56,3924528085137 ,47,8846269387013 ,80,210132146058
2.1611752 ,Left ,56,3973297905078 ,47,7981559446834 ,80,2644746524163
2.1836212 ,Left ,56,3820342061442 ,47,7138040707489 ,80,3257253211275
2.1989538 ,Left ,56,3546214561375 ,47,6448521271252 ,80,3929406700499
2.221479 ,Left ,56,324010014364 ,47,5980082222621 ,80,4316266335017
2.2438969 ,Left ,56,3563642822139 ,47,5679691889703 ,80,4707172760603
2.2588722 ,Left ,56,4169887831729 ,47,5553937974752 ,80,5079842586256
2.2813566 ,Left ,56,4573209643889 ,47,5657721335701 ,80,5426970784458
2.3040623 ,Left ,56,4474985007969 ,47,5812196404064 ,80,5730670564091
2.3190614 ,Left ,56,433910996117 ,47,5804511585485 ,80,5812379036481
2.3411705 ,Left ,56,4108933976875 ,47,5561427870628 ,80,5884112933335
2.3638772 ,Left ,56,4153503768112 ,47,5313821926326 ,80,5938692291355
2.3867962 ,Left ,56,4158120971719 ,47,505615913008 ,80,5877690900427
2.4018443 ,Left ,56,4084935870227 ,47,4895137325841 ,80,5634180264788
2.423828 ,Left ,56,3620587285583 ,47,4672724260914 ,80,5299097025011
2.4388412 ,Left ,56,3134678054574 ,47,4443195569608 ,80,5072500899586
2.4614303 ,Left ,56,2725441993423 ,47,4117320049811 ,80,4843115496464
2.4841157 ,Left ,56,2351441862817 ,47,3774376226776 ,80,4569828380848
2.4989611 ,Left ,56,1861077592941 ,47,3469898548037 ,80,4300604333118
2.5215373 ,Left ,56,1116061636858 ,47,3082916489893 ,80,4233264570671
2.5439843 ,Left ,56,008062339551 ,47,2672869091178 ,80,4280215351805
2.5664647 ,Left ,55,919319186926 ,47,2128539815997 ,80,4077404408322
2.5813659 ,Left ,55,8098914873515 ,47,1071764403653 ,80,3855433220049
2.6039138 ,Left ,55,7510015503549 ,47,0119923440939 ,80,3844650639141
2.6265925 ,Left ,55,6154834375709 ,46,9526571080903 ,80,419195321061
2.6415904 ,Left ,55,4860356173334 ,46,9653320009772 ,80,4207544062922
2.6639946 ,Left ,55,4462610228189 ,47,0226817530664 ,80,4271520002272
2.6866238 ,Left ,55,5006591463542 ,47,1029271159705 ,80,4212785814715
2.7014642 ,Left ,55,5710533038045 ,47,1585939001144 ,80,3867578047198
2.7241325 ,Left ,55,5981470326824 ,47,1911179222723 ,80,3540038400126
2.7465828 ,Left ,55,6005448732196 ,47,2159185354534 ,80,3035072094619
2.7616113 ,Left ,55,5541256821173 ,47,1850827771302 ,80,2871319498637
2.7914145 ,Left ,55,5155467764754 ,47,1326393335108 ,80,2717429681144
2.8141005 ,Left ,55,4999033153125 ,47,0812636907781 ,80,2810827971074
2.8291335 ,Left ,55,4977113490098 ,47,0122803352331 ,80,2666869618042
2.8439392 ,Left ,55,4767738368024 ,47,0050792938207 ,80,2424222849744
2.8738748 ,Left ,55,4793727392506 ,47,0960512415571 ,80,2155178897278
2.8891958 ,Left ,55,4327289222234 ,47,1815291702622 ,80,2122747916589
2.9115872 ,Left ,55,3946218823077 ,47,2091336036766 ,80,2529590705502
2.9265003 ,Left ,55,3767970862302 ,47,1998944920304 ,80,2670116089765
2.9414386 ,Left ,55,3499335288024 ,47,1577283813151 ,80,2538136990124
2.9563349 ,Left ,55,2829430048643 ,47,1668229537809 ,80,2547889956052
2.9788648 ,Left ,55,239652936895 ,47,2190973775616 ,80,2363134159367
2.9940642 ,Left ,55,2354573479143 ,47,2778398578915 ,80,211497091688
3.016498 ,Left ,55,2178253671098 ,47,3927007753401 ,80,2590933733393
3.0390588 ,Left ,55,2311785350489 ,47,4580266758445 ,80,3306539915757
3.0539865 ,Left ,55,2862482734312 ,47,4681679864871 ,80,3677358799442
3.0763638 ,Left ,55,2975284801265 ,47,4868805554479 ,80,401711846914
3.0988812 ,Left ,55,2799034328336 ,47,4658870958012 ,80,4572917683407
3.113725 ,Left ,55,221457936564 ,47,4470342261064 ,80,4574410045158
3.1365081 ,Left ,55,2427434184497 ,47,4148203211751 ,80,4415687565697
3.1589448 ,Left ,55,267361207765 ,47,3721982152498 ,80,4088124766844
3.1739289 ,Left ,55,2889913788478 ,47,3094458819894 ,80,3593838477149
3.1964818 ,Left ,55,201687074032 ,47,2588856583143 ,80,3514078954272
3.2189697 ,Left ,55,1278140520618 ,47,2448855896686 ,80,3154868077872
3.2337933 ,Left ,55,1599889751866 ,47,2446613235966 ,80,3235746554283
3.2561833 ,Left ,55,1558153146104 ,47,3543392720349 ,80,2996657090769
3.2786737 ,Left ,55,1232176823189 ,47,4978837261846 ,80,2545360845058
3.2937698 ,Left ,55,141734264174 ,47,5881059729221 ,80,2206932906575
3.3163639 ,Left ,55,1306155056998 ,47,6371863295502 ,80,1697588681313
3.3391075 ,Left ,55,1016502316969 ,47,6693992949918 ,80,1117180317474
3.3539409 ,Left ,55,0614261154319 ,47,6821233899792 ,80,0692546971988
3.3766449 ,Left ,55,0023384394282 ,47,661229516246 ,80,0282469877981
3.3990773 ,Left ,54,961248771965 ,47,63385273797 ,80,0068279820622
3.4141006 ,Left ,54,9888519088463 ,47,6162849947191 ,79,9901839480216
3.4364357 ,Left ,55,0056944708143 ,47,5707923461897 ,79,9761398483538
3.4589616 ,Left ,54,9680869318484 ,47,4852122403424 ,79,9698156594346
3.4741506 ,Left ,54,9007816989654 ,47,4450621673856 ,79,9583740938074
3.4961355 ,Left ,54,8612471072233 ,47,3831201651932 ,79,9472200751094
3.5190693 ,Left ,54,8660342227397 ,47,3256780962467 ,79,9658832676166
3.5338299 ,Left ,54,7953333775551 ,47,2967954529898 ,79,9660584000587
3.5570667 ,Left ,54,767057325366 ,47,3509684851492 ,79,9573718755869
3.5792068 ,Left ,54,811564858273 ,47,4128537404681 ,79,955122132742
3.5939186 ,Left ,54,9054431273291 ,47,4664311419947 ,79,926400932221
3.616437 ,Left ,55,0092092507865 ,47,474110161928 ,79,8865427979759
3.6388816 ,Left ,55,0113881345474 ,47,4505796761343 ,79,8411456214897
3.6539325 ,Left ,55,0245987503205 ,47,42120019928 ,79,8108439942507
3.6763906 ,Left ,55,054869490856 ,47,374225491863 ,79,7350953906791
3.7063382 ,Left ,55,1000066354249 ,47,3625120374621 ,79,6629251866618
3.7212161 ,Left ,55,1365943008906 ,47,3111384104346 ,79,6010848702324
3.7443241 ,Left ,55,1319817569959 ,47,2145791230663 ,79,5856187161575
3.759313 ,Left ,55,1178588953326 ,47,1926885854519 ,79,6267601306621
3.7743422 ,Left ,55,1463535175848 ,47,2023859761444 ,79,6413936818276
3.7968051 ,Left ,55,2098916228917 ,47,2022179684457 ,79,6637427076953
3.8190982 ,Left ,55,3266440928755 ,47,2158511017 ,79,710636809138
3.8566578 ,Left ,55,5989194735688 ,47,3089227196833 ,79,7508740017596
3.8789947 ,Left ,55,6993460657391 ,47,34813772029 ,79,8067071739551
3.9162734 ,Left ,55,9100713120254 ,47,3093483230881 ,79,9296144040302
3.9387002 ,Left ,55,9545283207583 ,47,2641995353412 ,79,9892124535498
3.9763075 ,Left ,56,0626453054782 ,47,2696717208273 ,80,1404673824264
3.9988978 ,Left ,56,1364381654555 ,47,2916482906815 ,80,2021252749609
4.0364591 ,Left ,56,1449978261231 ,47,248787104964 ,80,3446191633306
4.0587079 ,Left ,56,1636415280751 ,47,2009097858946 ,80,3937978915653
4.0965008 ,Left ,56,1902361755476 ,47,1055994256989 ,80,451644100921
4.1188354 ,Left ,56,1136738715282 ,47,1012119666188 ,80,4541665982532
4.1564708 ,Left ,56,1002912676226 ,47,1074363797807 ,80,4492615582091
4.1789711 ,Left ,56,1044771854356 ,47,1053254948403 ,80,449389178689
4.2164226 ,Left ,56,0070553739034 ,47,100506243613 ,80,4381846321216
4.2391372 ,Left ,55,9862500664686 ,47,0981599414452 ,80,4202285858395
4.2765673 ,Left ,55,9339569928821 ,47,0886367406385 ,80,3824328790699
4.2986842 ,Left ,55,8701982262908 ,47,0708605321126 ,80,3831992642974
4.3363011 ,Left ,55,631990936317 ,47,0093302500281 ,80,3890743231935
4.3588408 ,Left ,55,4082535950397 ,46,9964420055548 ,80,3783088465136
4.3967089 ,Left ,55,3714085765382 ,47,0192169294045 ,80,4297910393028
4.4188503 ,Left ,55,3346330556582 ,47,134389177586 ,80,4184252818533
4.4564959 ,Left ,55,3432190776112 ,47,3804733063687 ,80,3721803358881
4.4864518 ,Left ,55,415713722516 ,47,3610404505217 ,80,3442064987381
4.5388405 ,Left ,55,358510160003 ,47,170256550167 ,80,3078929831777
4.5765718 ,Left ,55,3360740286613 ,47,051186408373 ,80,2853675685309
4.5986409 ,Left ,55,3394805351307 ,46,9760443070438 ,80,2281063648664
4.6364201 ,Left ,55,3184369539416 ,46,9099646664908 ,80,2468757199916
4.6592801 ,Left ,55,2434232095155 ,46,9413312169754 ,80,2895883197397
4.697053 ,Left ,55,2647921789678 ,46,9403456945751 ,80,3276121124929
4.7189056 ,Left ,55,2612000475568 ,46,8910379020348 ,80,3534098114914
4.7562839 ,Left ,55,1116719696785 ,46,926942472123 ,80,3159239732819
4.7788113 ,Left ,55,0851910922697 ,47,0018988718074 ,80,286925909608
4.8164184 ,Left ,55,1139428793456 ,47,1255729478311 ,80,3574084445288
4.8393046 ,Left ,55,1197921104781 ,47,2083448069264 ,80,3546172856649
4.8767431 ,Left ,55,1373050446237 ,47,25298973524 ,80,3723647272971
4.899085 ,Left ,55,1010867937863 ,47,2439165347749 ,80,3567835172564
4.9364376 ,Left ,55,1094074420297 ,47,2151320861649 ,80,3113006909501
4.9588658 ,Left ,55,0473692943099 ,47,1869705881438 ,80,2534087293988
4.9965365 ,Left ,55,0000136092594 ,47,0620480648566 ,80,2083694379733
5.0189205 ,Left ,55,0295472666775 ,46,9971506469476 ,80,1784181855912
5.056263 ,Left ,54,920248969307 ,47,2090454514676 ,80,0507417929948
5.0787323 ,Left ,54,9409469680755 ,47,2786597002676 ,80,0183263177849
5.1011569 ,Left ,54,9302160046143 ,47,3222961810919 ,79,9710108664747
5.1462089 ,Left ,54,8850922667271 ,47,3352387626262 ,79,8805445418985
5.2068133 ,Left ,54,87528009679 ,47,2516423242544 ,79,8517648986834
5.2596356 ,Left ,54,8096718052198 ,47,0691227900907 ,79,8378226669265
5.2966101 ,Left ,54,6981006930077 ,46,9431014550227 ,79,8432906300027
5.3188531 ,Left ,54,6230824246406 ,46,9458692023811 ,79,8692205193419
5.3562334 ,Left ,54,6636658318684 ,47,1054994747951 ,79,9376661856965
5.3786797 ,Left ,54,7691231897496 ,47,1861241377577 ,79,9459995470573
5.4012578 ,Left ,54,8667144192942 ,47,1904963945468 ,79,9136397947871
5.4391285 ,Left ,54,8948299979267 ,47,1294336458886 ,79,8298447883149
5.4614396 ,Left ,54,9153115895129 ,47,1075897388472 ,79,7974586012326
5.4986311 ,Left ,54,9316757467089 ,47,0509481351049 ,79,675457026341
5.5362245 ,Left ,54,9331679563434 ,46,9952544442776 ,79,7281592569371
5.5588674 ,Left ,54,9472609676014 ,47,0133654228811 ,79,7815738637997
5.5813234 ,Left ,55,0437550081789 ,47,0733979073502 ,79,8394171385522
5.6196579 ,Left ,55,2737217473556 ,47,2071431731551 ,79,9004911620659
5.6411788 ,Left ,55,3845828075377 ,47,2474966898413 ,79,9251010118156
5.6789468 ,Left ,55,6823771090761 ,47,1883694360871 ,80,0033310565783
5.7014789 ,Left ,55,729024415404 ,47,1485962360801 ,80,0567960484167
5.7388626 ,Left ,55,764605515376 ,47,1227549124043 ,80,1130788911607
5.7613685 ,Left ,55,8348130476003 ,47,1095293700239 ,80,1450064400066
5.7989076 ,Left ,55,8119166348822 ,47,0372834000077 ,80,2002258095583
5.8212529 ,Left ,55,7565590150709 ,46,9744408160786 ,80,2325314086376
5.8596458 ,Left ,55,7495428299448 ,46,9058986780275 ,80,2700278852722
5.8819066 ,Left ,55,7534856709985 ,46,8975338984453 ,80,2803935616879
5.9189203 ,Left ,55,7053934704147 ,46,9286131021134 ,80,2748011662724
5.9414179 ,Left ,55,6899377694279 ,46,9278464796758 ,80,2719452418571
5.9788199 ,Left ,55,5861799533678 ,46,8466008653963 ,80,2557668686346
6.0015052 ,Left ,55,4890347248556 ,46,792051473785 ,80,2638264749467
6.03892 ,Left ,55,3016330495145 ,46,6719551512671 ,80,2416159826678
6.0611774 ,Left ,55,1662233854219 ,46,5751828446179 ,80,225654891252
6.0990308 ,Left ,54,8456163564861 ,46,6070396143154 ,80,2897887211625
6.1213673 ,Left ,54,8898039385113 ,46,7465005933113 ,80,3443260416203
6.1591424 ,Left ,55,1118730926487 ,46,967990070295 ,80,3237694822864
6.1814833 ,Left ,55,0812395708062 ,47,0044742902367 ,80,2836626746619
6.2114774 ,Left ,55,0703700210376 ,46,9605675504777 ,80,2485560463297
6.2414627 ,Left ,55,063296520251 ,46,8674899516626 ,80,2459363710439
6.2786599 ,Left ,55,0378472787722 ,46,7155625461887 ,80,2286598050114
6.3014042 ,Left ,55,0239453328225 ,46,6626817127762 ,80,1573096495505
6.3387309 ,Left ,55,0692865138105 ,46,6040413381706 ,80,2106825450445
6.3612918 ,Left ,55,0054078527795 ,46,5866658610314 ,80,2625649109281
6.398836 ,Left ,54,9952209684758 ,46,5665483930368 ,80,2993858722426
6.4213472 ,Left ,55,0413808261464 ,46,5010443406827 ,80,29372979755
6.4590667 ,Left ,54,9594230177012 ,46,52112979408 ,80,241865380579
6.4738249 ,Left ,54,9296124844776 ,46,6072980388342 ,80,2568700018641
6.518876 ,Left ,55,0371820139228 ,46,6524844035399 ,80,3295803954009
6.541636 ,Left ,54,9970231573266 ,46,7169616977674 ,80,3354793210529
6.5712626 ,Left ,55,0459862657268 ,46,7088725761095 ,80,3454102463092
6.5938318 ,Left ,55,0196992997075 ,46,7019831731221 ,80,3242417893457
6.6162414 ,Left ,54,986126470592 ,46,7157733473638 ,80,28893816846
6.631355 ,Left ,54,9619860993132 ,46,692257528909 ,80,2788615755241
6.6538518 ,Left ,54,9382306856788 ,46,6871570573231 ,80,2273272810319
6.6764243 ,Left ,54,9457147068307 ,46,6819418238555 ,80,1761315760778
6.6915134 ,Left ,54,9838655009727 ,46,6961458524571 ,80,1527896117094
6.713718 ,Left ,54,947700498823 ,46,7701709083156 ,80,0805874028503
6.7364089 ,Left ,54,9058081352093 ,46,8825893724094 ,80,0023703527801
6.7514024 ,Left ,54,9351572896813 ,46,9765034076287 ,79,9598996772427
6.7738047 ,Left ,54,9321180074911 ,47,0029023709814 ,79,9157277455485
6.7963671 ,Left ,54,9083942939623 ,47,0062324339746 ,79,8785885872006
6.8114601 ,Left ,54,9173604844606 ,47,0156392334094 ,79,8727876786202
6.8340113 ,Left ,54,8993430710534 ,47,0348009363626 ,79,8440004506653
6.8644814 ,Left ,54,8975310948364 ,47,0748750431368 ,79,8249593250126
6.8792046 ,Left ,54,9276379555054 ,47,0714365953861 ,79,8320642677568
6.9013493 ,Left ,54,9558702862367 ,47,0024108232718 ,79,8369898531744
6.9312983 ,Left ,54,8173442405836 ,46,9091011867457 ,79,8349357661482
6.9542201 ,Left ,54,7861249303338 ,46,8279612689043 ,79,8540888658616
6.97668 ,Left ,54,765271352106 ,46,7231763384505 ,79,8609498031952
6.9914086 ,Left ,54,6749027628436 ,46,6404193545482 ,79,8918841845728
7.0141538 ,Left ,54,5633110157532 ,46,6436244907859 ,79,9288451216972
7.0363919 ,Left ,54,557842936497 ,46,6891451261007 ,79,9665885120428
7.051576 ,Left ,54,6088302563591 ,46,7511124735289 ,80,0262942324601
7.0741272 ,Left ,54,6802996224567 ,46,8284917399991 ,80,0720430204328
7.0963892 ,Left ,54,8058728794699 ,46,8452621038872 ,80,0930508170565
7.1189776 ,Left ,54,9395593484615 ,46,8039487733763 ,80,0807515791682
7.1339336 ,Left ,55,0283743383793 ,46,74396057439 ,80,0519253906977
7.1566483 ,Left ,55,0591664543114 ,46,6612813111016 ,80,0334608463763
7.179043 ,Left ,55,1011305158872 ,46,6437479397314 ,80,042217441871
7.1938857 ,Left ,55,1010261694515 ,46,6231435528429 ,80,0478952194789
7.2166377 ,Left ,55,0998577377563 ,46,6157924207418 ,80,0102904179374
7.2389704 ,Left ,55,0203603738992 ,46,6012516375751 ,80,0039313071477
7.2541122 ,Left ,54,9273928501932 ,46,6326312549136 ,80,0144886199356
7.2841298 ,Left ,54,9633708143004 ,46,7304920050236 ,80,0406732590711
7.3065039 ,Left ,55,1057984456707 ,46,8782559055772 ,80,0541821812763
7.3215716 ,Left ,55,2846402906978 ,46,9738272573183 ,80,0323834173134
7.3366177 ,Left ,55,4467051338569 ,46,9979279725446 ,80,0156593027579
7.3590429 ,Left ,55,480183309594 ,47,011897352667 ,79,9933575390146
7.3740828 ,Left ,55,5266011778676 ,47,0282379175591 ,79,9910038437881
7.3961717 ,Left ,55,5556713510705 ,47,0316212780467 ,79,9917326538061
7.4189503 ,Left ,55,5911722477906 ,47,0206058208057 ,79,9867721600924
7.4337236 ,Left ,55,6232948861971 ,47,0084936433842 ,79,9911563041124
7.4564907 ,Left ,55,6325294191277 ,46,9945480805466 ,80,0190111933605
7.478925 ,Left ,55,6722724057885 ,46,9698018801063 ,80,0518556090208
7.4937351 ,Left ,55,7174080952814 ,46,919313103625 ,80,0595726923458
7.5164594 ,Left ,55,7726919728506 ,46,8557284905679 ,80,0727417363908
7.5239568 ,Left ,55,7726919728506 ,46,8557284905679 ,80,0727417363908
7.5388886 ,Left ,55,7887206376714 ,46,8139225063871 ,80,1045955669956
7.5537703 ,Left ,55,7878036086964 ,46,804434027772 ,80,1388196801484
7.5766886 ,Left ,55,8194809594854 ,46,7696365298815 ,80,1633588155783
7.599038 ,Left ,55,8303211019394 ,46,7294193008933 ,80,1702225865559
7.6143094 ,Left ,55,8043661235368 ,46,7248741918575 ,80,1804663718139
7.6368322 ,Left ,55,7587405651411 ,46,744044258054 ,80,1838666218873
7.6592161 ,Left ,55,7229700291096 ,46,7416447653336 ,80,1784926096378
7.6740852 ,Left ,55,7033635073335 ,46,7011298753963 ,80,1942607382109
7.6963894 ,Left ,55,6942444328213 ,46,6622835751018 ,80,2196695236543
7.7188371 ,Left ,55,6536163315978 ,46,6511592305695 ,80,2416561054226
7.733822 ,Left ,55,6219325263293 ,46,6515206878084 ,80,261958383016
7.7564255 ,Left ,55,6140933310764 ,46,6344183563158 ,80,2774719502638
7.7787488 ,Left ,55,5611403162612 ,46,6085495043475 ,80,2863249928601
7.7937384 ,Left ,55,4572538143753 ,46,5941296060624 ,80,2922400017131
7.8165528 ,Left ,55,3014115868071 ,46,5592488759126 ,80,2847419897829
7.8389245 ,Left ,55,1277020001548 ,46,5001301376339 ,80,2653057299559
7.8539486 ,Left ,54,9569620530613 ,46,4184982247255 ,80,2730600239851
7.8764452 ,Left ,54,8420114164713 ,46,394026121349 ,80,2751143500654
7.8989404 ,Left ,54,7857326985095 ,46,4529195364011 ,80,2723862986979
7.9139038 ,Left ,54,7883618483561 ,46,5764710297745 ,80,2904279571545
7.9367446 ,Left ,54,8005592762517 ,46,7146920765251 ,80,2955385278633
7.9591113 ,Left ,54,8145217265904 ,46,7927944727797 ,80,2698138916386
7.9816335 ,Left ,54,8738862368047 ,46,8011096722629 ,80,2319344942281
7.9964363 ,Left ,54,9549726638743 ,46,793343941334 ,80,2168109843182
8.0191166 ,Left ,54,9328102488083 ,46,7794476095136 ,80,1971484840291
8.041502 ,Left ,54,9118012981833 ,46,765974594408 ,80,207766740417
8.056462 ,Left ,54,919615389006 ,46,7375441510926 ,80,2009921461848
8.0793737 ,Left ,54,9131245074779 ,46,7112200330356 ,80,1383108308259
8.0943707 ,Left ,54,8771383410514 ,46,7111010565782 ,80,1271497606853
8.1164227 ,Left ,54,8778733731693 ,46,7030615958526 ,80,1406864541723
8.1391661 ,Left ,54,8780159397231 ,46,6955416400365 ,80,1757492483676
8.1542109 ,Left ,54,8314882533536 ,46,7259845113301 ,80,2122347698041
8.1771253 ,Left ,54,8130077534877 ,46,7370336481273 ,80,2169684329813
8.1994304 ,Left ,54,8081776472142 ,46,7278722353784 ,80,2264869433657
8.2221313 ,Left ,54,7561310513359 ,46,7712854156628 ,80,2080273439229
8.2364238 ,Left ,54,700742950684 ,46,8623584321065 ,80,1706992364049
8.2590072 ,Left ,54,6657417278096 ,46,9756192563622 ,80,2236091920298
8.2813982 ,Left ,54,687397304049 ,47,0616901575015 ,80,2862323031463
8.2962166 ,Left ,54,7364424424077 ,47,1420079075504 ,80,3261080370383
8.3187386 ,Left ,54,7370763119667 ,47,212769927373 ,80,3588698759451
8.3412335 ,Left ,54,7676720442586 ,47,2290109272735 ,80,363290683555
8.3562772 ,Left ,54,7693410016533 ,47,1942430811776 ,80,3836282917102
8.3789008 ,Left ,54,757170398556 ,47,1571181872627 ,80,400917250336
8.4019168 ,Left ,54,7229204878799 ,47,1171787232481 ,80,3895150068738
8.4170102 ,Left ,54,7283251274674 ,47,0973328906034 ,80,3238523803774
8.4391166 ,Left ,54,7395578897542 ,47,0231761989969 ,80,282011129627
8.461533 ,Left ,54,7000692014046 ,46,941538757443 ,80,2209270009898
8.4765128 ,Left ,54,7269176165806 ,46,9023455443849 ,80,1816265563397
8.4990471 ,Left ,54,7739404604747 ,46,9181263613632 ,80,1556473294242
8.5214953 ,Left ,54,7405010834841 ,47,0168687479314 ,80,0714201491007
8.5362538 ,Left ,54,7720701337087 ,47,1023476464706 ,79,9984338280816
8.5591972 ,Left ,54,8141637098363 ,47,1249331178598 ,79,9461117738445
8.5819868 ,Left ,54,7880889200276 ,47,103718786085 ,79,8880095618309
8.5970748 ,Left ,54,7202210201826 ,47,0947350866979 ,79,8491648408138
8.6191444 ,Left ,54,6591644226256 ,47,0766691131211 ,79,7975748867623
8.6415664 ,Left ,54,6655103740522 ,47,0539458657344 ,79,7667689972799
8.6564839 ,Left ,54,6872338272285 ,47,0436031992506 ,79,7558598747178
8.678975 ,Left ,54,7250494103917 ,47,0048639458802 ,79,7486249232387
8.7015246 ,Left ,54,7142572877615 ,46,9275635102006 ,79,7496108893291
8.7161885 ,Left ,54,6336390188104 ,46,8583610156815 ,79,719738532422
8.7395123 ,Left ,54,5817956681126 ,46,8179847221515 ,79,7173654420246
8.7619574 ,Left ,54,5580617319334 ,46,8229351048012 ,79,7189632130978
8.7768546 ,Left ,54,5408255933808 ,46,891255966761 ,79,731669367196
8.7991285 ,Left ,54,5373468111117 ,46,9920695427306 ,79,7389217503828
8.8291188 ,Left ,54,6059045472563 ,47,0773372815156 ,79,7340362651317
8.8440575 ,Left ,54,7199027764489 ,47,0869311957088 ,79,6993314709479
8.8666647 ,Left ,54,7543656603207 ,47,0244433769074 ,79,6511895659768
8.8815254 ,Left ,54,7349223100837 ,46,9638674297664 ,79,6369702578242
8.8965701 ,Left ,54,7114838243736 ,46,9226501719724 ,79,5933262393601
8.9189363 ,Left ,54,6827340576135 ,46,9015190881573 ,79,5261571807702
8.941467 ,Left ,54,7458258324246 ,46,8501810252102 ,79,5383994460863
8.9563133 ,Left ,54,784227755878 ,46,8232186864599 ,79,5792077047197
8.9787542 ,Left ,54,7504643982035 ,46,843258575823 ,79,6098325363987
9.0012351 ,Left ,54,7885876010563 ,46,8932847623601 ,79,678921131333
9.0237997 ,Left ,54,9021279684045 ,46,9421654829699 ,79,7638357184646
9.0390548 ,Left ,55,0315121882153 ,46,9743985517951 ,79,8207211499568
9.0614344 ,Left ,55,1482096131924 ,47,0132968660351 ,79,888481145044
9.0838559 ,Left ,55,2609927246729 ,47,0317526902082 ,79,976701235504
9.0989086 ,Left ,55,3425064419988 ,46,9851898550468 ,80,0379389412355
9.1216516 ,Left ,55,3379575898739 ,46,9052935480711 ,80,0617630552889
9.1514746 ,Left ,55,3335354895066 ,46,8515657812192 ,80,07336630778
9.1666505 ,Left ,55,3752022640681 ,46,836273951754 ,80,0547020135247
9.1890117 ,Left ,55,3368536533315 ,46,8229868851463 ,80,0342390244347
9.2041258 ,Left ,55,3350310095975 ,46,779322323156 ,80,0646276593132
9.2191305 ,Left ,55,3635620961121 ,46,715528260655 ,80,1147199228157
9.241572 ,Left ,55,3719609000558 ,46,6697413942861 ,80,1392869747467
9.2641027 ,Left ,55,3330319442248 ,46,653320672684 ,80,1511177348517
9.2790936 ,Left ,55,3094414528835 ,46,6528237866244 ,80,1617240460234
9.301653 ,Left ,55,2985142166144 ,46,6418013515457 ,80,170638471463
9.3240843 ,Left ,55,275170315102 ,46,6183029268281 ,80,1910478711179
9.3389281 ,Left ,55,2402544032438 ,46,6002040164669 ,80,200519809826
9.361247 ,Left ,55,1872691463392 ,46,5762490309611 ,80,2142587790665
9.3843132 ,Left ,55,1180588925824 ,46,5715306981786 ,80,216222631704
9.3994925 ,Left ,55,0565341677037 ,46,5792054801843 ,80,1956569076413
9.4219433 ,Left ,55,0143224666061 ,46,5266541576419 ,80,2005474539604
9.4439568 ,Left ,54,897629557376 ,46,4762400436188 ,80,1977973484127
9.4589287 ,Left ,54,7503020562816 ,46,4764657553346 ,80,2130456995237
9.481572 ,Left ,54,714863239338 ,46,5198380706053 ,80,2199555473013
9.5041068 ,Left ,54,7329915813058 ,46,5873312749279 ,80,2108825940606
9.5189663 ,Left ,54,7383981029089 ,46,6732788647746 ,80,1977192256134
9.5414227 ,Left ,54,7694969792994 ,46,7267311757326 ,80,1737968305625
9.5640149 ,Left ,54,7891930043865 ,46,7307650237464 ,80,1452183871443
9.579043 ,Left ,54,822748940097 ,46,7423132834442 ,80,0833225756857
9.6015633 ,Left ,54,8149953097398 ,46,7086483068759 ,80,0649895999411
9.6244892 ,Left ,54,7991539712399 ,46,6554624101405 ,80,0625031292087
9.6389118 ,Left ,54,8183028932722 ,46,6275724386979 ,80,0573647449035
9.6611447 ,Left ,54,8785600106208 ,46,5886874480914 ,80,0326807447822
9.6836493 ,Left ,54,9169592976364 ,46,5474301546721 ,79,9952684144727
9.6988612 ,Left ,54,8553824404052 ,46,5737396326336 ,79,9785231243238
9.7213512 ,Left ,54,8233321590915 ,46,6372240246842 ,80,0446549010009
9.7438409 ,Left ,54,8223759626238 ,46,6608763766311 ,80,1140778011571
9.75906 ,Left ,54,8635908743839 ,46,6460060006408 ,80,142217601496
9.7815023 ,Left ,54,8856602494195 ,46,5942532591894 ,80,1240005653007
9.8038684 ,Left ,54,788588851962 ,46,5824635284885 ,80,1129617112473
9.8268627 ,Left ,54,7510357655184 ,46,6843104790823 ,80,0752232529961
9.8417494 ,Left ,54,7791353203119 ,46,7983147613553 ,80,0725307194546
9.8641476 ,Left ,54,8131882772854 ,46,9081445201902 ,80,1396095092547
9.8870033 ,Left ,54,8839152639773 ,46,9692130432599 ,80,1876932676299
9.9020878 ,Left ,54,8972886052187 ,46,9760638689829 ,80,2167706686567
9.9239199 ,Left ,54,89316790437 ,46,9729388509427 ,80,2475608777119
9.9389351 ,Left ,54,8762736257448 ,46,963266473416 ,80,2482240575714
9.9615694 ,Left ,54,9044122213381 ,46,9313630968628 ,80,2233036848469
9.9840499 ,Left ,54,9292885285758 ,46,8889024320655 ,80,1808502549325
9.9990086 ,Left ,54,9150848780845 ,46,875081910996 ,80,136827716559
10.0215336 ,Left ,54,8460261255246 ,46,8415931839138 ,80,0977621479459
10.04382 ,Left ,54,8402561184056 ,46,8059199039906 ,80,0310369930095
10.0586853 ,Left ,54,8683726705865 ,46,7906922961801 ,80,0093529199113
10.0818438 ,Left ,54,8624157877215 ,46,8356840194068 ,79,9824732602702
10.1043007 ,Left ,54,8092736111933 ,46,9040356560826 ,79,9157033709786
10.1268497 ,Left ,54,8418175560358 ,46,9692102657177 ,79,8633270502237
10.141654 ,Left ,54,8511884332217 ,47,0043494745069 ,79,8209559769024
10.1641315 ,Left ,54,7979356259328 ,47,0268626682511 ,79,7982876350219
10.1866872 ,Left ,54,7342463109758 ,47,052220205002 ,79,7679842980702
10.2016777 ,Left ,54,7422521776521 ,47,0307018698775 ,79,7373071511514
10.2240058 ,Left ,54,7891031008392 ,46,9872991455908 ,79,7486131777936
10.2465595 ,Left ,54,7662309533981 ,46,9911585136392 ,79,7394061032249
10.2614983 ,Left ,54,7646925086808 ,47,0129199230786 ,79,7026602850103
10.2841902 ,Left ,54,7152735022538 ,47,0181768147726 ,79,7109496533764
10.3067166 ,Left ,54,73002953483 ,47,016749140507 ,79,7395273296337
10.3216402 ,Left ,54,7449467370088 ,46,9629280712271 ,79,7435365793146
10.3440258 ,Left ,54,7114553545344 ,46,8712132950492 ,79,744502031504
10.3662343 ,Left ,54,655573549529 ,46,8084229226529 ,79,7717170451994
10.3812559 ,Left ,54,594194924573 ,46,775076630137 ,79,7524551617466
10.4037681 ,Left ,54,582317038867 ,46,7765122240749 ,79,7474453653675
10.4264772 ,Left ,54,5646044841265 ,46,7833109299333 ,79,7493718701304
10.4412514 ,Left ,54,5348362073172 ,46,8323810668173 ,79,7637921497658
10.4638831 ,Left ,54,5292665777075 ,46,927406076288 ,79,7645451131916
10.4860804 ,Left ,54,6040241745364 ,46,9957176640021 ,79,7453510055022
10.5019025 ,Left ,54,7041444380859 ,46,96381115068 ,79,7282387664056
10.5246616 ,Left ,54,7653702402628 ,46,891648457603 ,79,7033192486962
10.5467477 ,Left ,54,7433818045985 ,46,8225104562933 ,79,6490235940452
10.5616808 ,Left ,54,7562120823266 ,46,7822300039682 ,79,5820761061319
10.5840997 ,Left ,54,7877300548837 ,46,7456249054285 ,79,5513462610609
10.6067185 ,Left ,54,8389837369997 ,46,7039317142789 ,79,5494679769535
10.621508 ,Left ,54,8629534648217 ,46,6779221023268 ,79,5646059864644
10.6515049 ,Left ,54,8522412066901 ,46,7032605571096 ,79,5239924765556
10.6741594 ,Left ,54,8766700551465 ,46,7731216664913 ,79,4707149572512
10.6892037 ,Left ,55,0187323550372 ,46,8721726983063 ,79,461640562654
10.7038795 ,Left ,55,1876934849504 ,46,9756837386232 ,79,4354448368063
10.7266109 ,Left ,55,2692578626047 ,47,0550567171652 ,79,4254542812367
10.7415344 ,Left ,55,3010145483238 ,47,1042543589856 ,79,4220716178723
10.7637384 ,Left ,55,3436975807154 ,47,1282702351814 ,79,4484707476516
10.7865356 ,Left ,55,3946577552306 ,47,1071506392862 ,79,4886697111842
10.8088763 ,Left ,55,4710842980413 ,47,0678760617503 ,79,5443831765115
10.8245373 ,Left ,55,4790827360621 ,47,019593240622 ,79,6072446355844
10.8471095 ,Left ,55,4769185000789 ,46,9758440987846 ,79,6764323664273
10.8619734 ,Left ,55,5155222529357 ,46,9253851439325 ,79,7377155200232
10.8840908 ,Left ,55,553263227134 ,46,8769909412164 ,79,7955985861637
10.9066475 ,Left ,55,6044781248639 ,46,8531833149727 ,79,8529531389141
10.9216891 ,Left ,55,6060880074234 ,46,8412961214378 ,79,9281480251198
10.9440919 ,Left ,55,5688303784912 ,46,8450867291711 ,79,9926610373903
10.9666586 ,Left ,55,5612033620723 ,46,8440799498413 ,80,0426679210604
10.9816557 ,Left ,55,5749264295172 ,46,8288647007771 ,80,0934474267972
11.0041311 ,Left ,55,597774403889 ,46,8071199350613 ,80,1481649983735
11.0265451 ,Left ,55,5456794745504 ,46,7828110186751 ,80,1914046795269
11.0489101 ,Left ,55,4481127292699 ,46,7856812886065 ,80,1877002861498
11.0636534 ,Left ,55,3803864268589 ,46,7714365012367 ,80,1706569746662
11.0864686 ,Left ,55,3616861464061 ,46,7370085770754 ,80,1604793390759
11.1088113 ,Left ,55,3463293818686 ,46,7052538971054 ,80,171291065545
11.1315223 ,Left ,55,3418481457652 ,46,7012182106968 ,80,1815531195584
11.1540796 ,Left ,55,3209501618148 ,46,705716752577 ,80,1856007668819
11.1764282 ,Left ,55,3243241413088 ,46,6959982534791 ,80,1818323917346
11.1914611 ,Left ,55,3514885945896 ,46,6589740039175 ,80,1784473277364
11.2066793 ,Left ,55,359194604215 ,46,6184839177311 ,80,1916169819422
11.2292005 ,Left ,55,3473450423644 ,46,597630522781 ,80,1932993870671
11.2438596 ,Left ,55,3448202733517 ,46,5832713427214 ,80,1964880641127
11.2666853 ,Left ,55,3486741856862 ,46,5844485800286 ,80,1864884767145
11.2889659 ,Left ,55,3648677708637 ,46,5938312116411 ,80,1815005971564
11.3039202 ,Left ,55,400912423767 ,46,5973964540198 ,80,1798759389766
11.3265368 ,Left ,55,4317473014252 ,46,5940422357193 ,80,183457339863
11.3489892 ,Left ,55,4234658967013 ,46,6059889212365 ,80,2033705956885
11.3641998 ,Left ,55,4109902952139 ,46,6376172027226 ,80,2201743010887
11.394175 ,Left ,55,4339398865387 ,46,6707802753495 ,80,2244880299838
11.4164302 ,Left ,55,4681030370475 ,46,6803439727078 ,80,2228683309264
11.4314271 ,Left ,55,4696087746763 ,46,6732386203493 ,80,2294487852413
11.446656 ,Left ,55,4176921823097 ,46,6939924299123 ,80,2225987865486
11.4688543 ,Left ,55,3563377915407 ,46,7060202727587 ,80,2108193692535
11.483646 ,Left ,55,3186347178363 ,46,6867511716805 ,80,1840945628487
11.5064666 ,Left ,55,2866804926764 ,46,6492169589952 ,80,1581310626854
11.5290261 ,Left ,55,2177531832813 ,46,6191367914145 ,80,1423717361461
11.5438741 ,Left ,55,1397579174194 ,46,6010619894144 ,80,1396973516806
11.5662717 ,Left ,55,0510676324405 ,46,587392803866 ,80,1392891196703
11.5888542 ,Left ,54,9436380530918 ,46,5768638045852 ,80,1160612821354
11.6038844 ,Left ,54,8127820904837 ,46,5924013527705 ,80,1121604755244
11.626985 ,Left ,54,6703376364244 ,46,6075727200498 ,80,0970298957633
11.6488116 ,Left ,54,6277545922536 ,46,6268691814116 ,80,0934448072961
11.6639621 ,Left ,54,612378644278 ,46,6826648030764 ,80,0882159842499
11.6865014 ,Left ,54,6022772220965 ,46,770371511138 ,80,0361610345232
11.7090035 ,Left ,54,5714800407141 ,46,8640797371368 ,80,0032295480661
11.7314631 ,Left ,54,5978973485734 ,46,9394261206716 ,79,9716556218455
11.7465593 ,Left ,54,6930301962531 ,46,9433157558426 ,79,9170458187174
11.7690421 ,Left ,54,7777906181423 ,46,9208648689368 ,79,8547464816569
11.7840027 ,Left ,54,7646748973661 ,46,8998463283897 ,79,8422787565631
11.8063865 ,Left ,54,7434691729876 ,46,9102171222993 ,79,860663860177
11.8289939 ,Left ,54,7487632781665 ,46,8984107972839 ,79,8409833906105
11.8515192 ,Left ,54,7702778049379 ,46,8742289381883 ,79,8121886361183
11.8739615 ,Left ,54,7606300626537 ,46,8320718728971 ,79,7869029318626
11.9038905 ,Left ,54,751353761484 ,46,7719327329489 ,79,8361276600695
11.9339311 ,Left ,54,7023527194387 ,46,8111147431067 ,79,8621649826993
11.9565155 ,Left ,54,7320404613457 ,46,8628509455897 ,79,8860400561495
11.9863476 ,Left ,54,8024512061561 ,46,8138667271947 ,79,9306071892226
12.0087389 ,Left ,54,7817504604982 ,46,7678840962121 ,79,9484024959905
12.0314649 ,Left ,54,749765302095 ,46,7602627567801 ,79,9419420158974
12.0463001 ,Left ,54,7811726851102 ,46,766441441206 ,79,9317230884485
12.0687914 ,Left ,54,7866588371387 ,46,7990711337832 ,79,9424302888399
12.0912106 ,Left ,54,8105197521103 ,46,8229342579262 ,79,9522881668486
12.1062681 ,Left ,54,8229091644806 ,46,844640066158 ,79,9781557099041
12.1364857 ,Left ,54,800218544481 ,46,8849573568356 ,79,9797067082008
12.159124 ,Left ,54,7739682850267 ,46,9235073451602 ,79,9703357181161
12.1741027 ,Left ,54,7940579470327 ,46,9279900180431 ,79,9730705417149
12.1965556 ,Left ,54,7963037711626 ,46,9034382472149 ,79,9583149577944
12.2190504 ,Left ,54,7824283723709 ,46,86109236948 ,79,9636104384301
12.2339727 ,Left ,54,7161701000775 ,46,84976039323 ,79,938970127901
12.271273 ,Left ,54,6669459719031 ,46,8617153667081 ,79,8654323055636
12.2862576 ,Left ,54,6142053462043 ,46,8629786382522 ,79,7988393383104
12.3087959 ,Left ,54,6035308318099 ,46,8128363174515 ,79,7707032316395
12.3314229 ,Left ,54,6349645963429 ,46,7601367128606 ,79,7863785278699
12.346513 ,Left ,54,5610837065368 ,46,7990827516066 ,79,7692049953208
12.3689248 ,Left ,54,5344869424731 ,46,9258417490248 ,79,7340023368178
12.3911951 ,Left ,54,5905432458954 ,47,0356255765725 ,79,7112827664113
12.4062871 ,Left ,54,6458304315115 ,47,0638266020729 ,79,6808988261043
12.4287507 ,Left ,54,6394001357177 ,47,0672663210141 ,79,6397190529323
12.4519662 ,Left ,54,6024079833377 ,47,0696556837095 ,79,6088942795956
12.466901 ,Left ,54,5528380072202 ,47,0509668350565 ,79,5995747228381
12.4890994 ,Left ,54,4899844064218 ,47,0312905142987 ,79,5729784154067
12.5114431 ,Left ,54,4760957829318 ,47,0382406246829 ,79,5418683811354
12.5264723 ,Left ,54,4889876762354 ,47,0024016489747 ,79,5155519471813
12.5489197 ,Left ,54,48785717722 ,46,9371805386027 ,79,5112401279318
12.5713949 ,Left ,54,495665112087 ,46,9241940196708 ,79,5322433989924
12.5866809 ,Left ,54,4700309804838 ,46,9133317265489 ,79,5561505262729
12.609082 ,Left ,54,4410912023182 ,46,8967730253557 ,79,5565290677963
12.6313495 ,Left ,54,3969107024263 ,46,9072381177406 ,79,579496190029
12.6465003 ,Left ,54,3752351928659 ,46,9182762004635 ,79,6215344017859
12.6690142 ,Left ,54,400757787505 ,46,97498095172 ,79,6105803332861
12.6912403 ,Left ,54,4688858699029 ,47,0071451090494 ,79,5871831867477
12.7064809 ,Left ,54,5543783465597 ,46,9984203917036 ,79,5558415594804
12.728649 ,Left ,54,638801649767 ,46,9494207984582 ,79,5159586179396
12.7515408 ,Left ,54,6451893591419 ,46,8775034337251 ,79,4754872623686
12.7666911 ,Left ,54,6516709779651 ,46,8554539744566 ,79,4318968092571
12.7890116 ,Left ,54,6575916368249 ,46,8417051868218 ,79,3720186710553
12.819095 ,Left ,54,6910209162633 ,46,8013995046691 ,79,3453574038172
12.8340551 ,Left ,54,6813120561954 ,46,7437343494982 ,79,34646375799
12.856321 ,Left ,54,5824511758523 ,46,7228610151923 ,79,3337238863618
12.8710748 ,Left ,54,5806032299068 ,46,7349941457176 ,79,3206651547509
12.8864135 ,Left ,54,6365583441432 ,46,7699223634814 ,79,3488619321292
12.9089428 ,Left ,54,6383545709714 ,46,8125234167447 ,79,3701480443888
12.9313831 ,Left ,54,6063378626871 ,46,935242967727 ,79,4157533828888
12.9537933 ,Left ,54,580717127229 ,47,0809000749147 ,79,479490925045
12.9689081 ,Left ,54,6644921450518 ,47,1464653782325 ,79,5333958803565
12.9915112 ,Left ,54,7853771359173 ,47,1857956497222 ,79,5721027513781
13.0140898 ,Left ,54,9005120873043 ,47,2104503368973 ,79,6102870613585
13.0288539 ,Left ,54,9936904734803 ,47,268217084517 ,79,6474723459681
13.0513375 ,Left ,55,0924132720322 ,47,3336170236003 ,79,6979596849959
13.0736731 ,Left ,55,2138760155814 ,47,3767952291848 ,79,7336199431874
13.0887129 ,Left ,55,3312973082628 ,47,3676803254482 ,79,7637893614604
13.1113446 ,Left ,55,4535277810584 ,47,3521214727204 ,79,7919638845792
13.1340879 ,Left ,55,5465590078528 ,47,3370531289815 ,79,8428550227629
13.1491523 ,Left ,55,5885180994533 ,47,3018395899817 ,79,8948931064566
13.1716642 ,Left ,55,5577224659564 ,47,2465455988618 ,79,9452672224604
13.1939308 ,Left ,55,5455357884856 ,47,1826208052095 ,79,9949273856598
13.209114 ,Left ,55,5892764579632 ,47,1292275309489 ,80,0430213601597
13.2314847 ,Left ,55,6432118258234 ,47,1069854639711 ,80,0788422249279
13.2542539 ,Left ,55,6730232432291 ,47,0801555922545 ,80,1097769080606
13.2690209 ,Left ,55,668698831544 ,47,0502446520003 ,80,1286986184913
13.2916744 ,Left ,55,6344888764231 ,47,022445571741 ,80,1143559031918
13.3142073 ,Left ,55,6085913291436 ,46,9774324687228 ,80,1077932952824
13.3290406 ,Left ,55,573820845628 ,46,9607312009398 ,80,1016818448427
13.3512154 ,Left ,55,5440773926564 ,46,9817921787432 ,80,0778008753514
13.3739673 ,Left ,55,5297546749846 ,46,9969780142503 ,80,0485775286153
13.3889402 ,Left ,55,5376320299236 ,46,9747605748722 ,80,0315429578216
13.4113745 ,Left ,55,5254854179032 ,46,9305960170229 ,80,0375906997905
13.4338678 ,Left ,55,4693777788254 ,46,9076343981413 ,80,0389422686724
13.4490295 ,Left ,55,4130836010775 ,46,8957602492195 ,80,0268824464644
13.4715537 ,Left ,55,3772343420822 ,46,8547905364519 ,80,0068658421911
13.4939764 ,Left ,55,3495808200045 ,46,7927791021279 ,80,0084132564187
13.5089013 ,Left ,55,260809403515 ,46,7286560680588 ,80,011694022315
13.5315545 ,Left ,54,9837314769826 ,46,6658997124706 ,79,9528309878409
13.5540718 ,Left ,54,9061686512066 ,46,6134026597794 ,79,9092448440184
13.5690616 ,Left ,54,9265330803113 ,46,5901605816492 ,79,9177369312524
13.5991669 ,Left ,54,8492429120828 ,46,6479145246458 ,79,8889579969325
13.6214243 ,Left ,54,78280940203 ,46,7193235632808 ,79,8831986670589
13.6512996 ,Left ,54,8687846508823 ,46,7083405565512 ,79,8372391977528
13.6737397 ,Left ,54,8972556636747 ,46,6914706540563 ,79,8090856387822
13.688917 ,Left ,54,8780595785007 ,46,6447135750492 ,79,7868784137628
13.7119809 ,Left ,54,8712146902429 ,46,5670172133282 ,79,7614063688285
13.7418266 ,Left ,54,8761139823556 ,46,5205152747862 ,79,7648222090851
13.7569521 ,Left ,54,8625477044899 ,46,4988588121019 ,79,7227513409477
13.7790631 ,Left ,54,7589416766749 ,46,4958432872999 ,79,6411730351912
13.7940522 ,Left ,54,7333546527118 ,46,5514526292749 ,79,6455378332692
13.8163225 ,Left ,54,7997224415686 ,46,6174847016881 ,79,716820030764
13.8312481 ,Left ,54,8262588617528 ,46,6670586627992 ,79,7475754099903
13.8539167 ,Left ,54,7901071343768 ,46,6636355857686 ,79,7706396919163
13.8764968 ,Left ,54,7625058174939 ,46,6551357700525 ,79,7814759329627
13.8914616 ,Left ,54,7653389269612 ,46,6851112453732 ,79,7757619907871
13.9138555 ,Left ,54,7552898886022 ,46,7671947342143 ,79,7414196016828
13.9365191 ,Left ,54,7252208972807 ,46,8722494742508 ,79,7667768299365
13.951492 ,Left ,54,8136027087547 ,46,9471187168958 ,79,821826831659
13.9740503 ,Left ,54,8614962987292 ,46,9534660145789 ,79,8956546309312
13.9964808 ,Left ,54,8331084173898 ,46,9676772896642 ,79,9235323908133
14.0188173 ,Left ,54,8325490985739 ,46,9805527287683 ,79,9403720079302
14.0413823 ,Left ,54,8771750608154 ,46,9660796746578 ,79,9387967853664
14.0640383 ,Left ,54,8099621378894 ,46,9118803622161 ,79,8586869108607
14.0863437 ,Left ,54,7502527137735 ,46,8887752642844 ,79,8207716691701
14.1237997 ,Left ,54,7360391377041 ,46,7757023678758 ,79,7354731015254
14.146301 ,Left ,54,7425213478058 ,46,8187951074767 ,79,6895006545036
14.1689529 ,Left ,54,6944107146627 ,46,9210235238505 ,79,6115890652731
14.1840063 ,Left ,54,7211545938324 ,47,0122705585175 ,79,5598741901709
14.2063392 ,Left ,54,7519563638278 ,47,0554631490806 ,79,5240502392417
14.2287416 ,Left ,54,7177128117195 ,47,0551286179957 ,79,4900251608099
14.2438466 ,Left ,54,6386306891825 ,47,0409137496285 ,79,461732793418
14.2662061 ,Left ,54,6016463873743 ,47,0301661974694 ,79,4335658927794
14.3040831 ,Left ,54,6304400521168 ,46,9832625903507 ,79,3823621725987
14.3266369 ,Left ,54,6173491748557 ,46,9473863985016 ,79,363925453389
14.3639439 ,Left ,54,5165160850543 ,46,8399797680639 ,79,3855428042443
14.3862985 ,Left ,54,4823040593138 ,46,7842010787219 ,79,3889242144778
14.4239135 ,Left ,54,4085950731246 ,46,7940147960361 ,79,4259202114484
14.4461778 ,Left ,54,3548706505696 ,46,8483716145925 ,79,4279718731267
14.4840025 ,Left ,54,4218816611222 ,46,9681067287132 ,79,4685096173584
14.5066065 ,Left ,54,51368219134 ,46,9258521401138 ,79,4499915035403
14.5439035 ,Left ,54,5395928174145 ,46,7749132038941 ,79,3836485867737
14.5665045 ,Left ,54,5754195446102 ,46,7252671542523 ,79,3335872734917
14.6045532 ,Left ,54,6229328963191 ,46,6504076946091 ,79,264174908892
14.627072 ,Left ,54,5814234356129 ,46,6498124504376 ,79,2899770925114
14.6639534 ,Left ,54,7011011907409 ,46,7337834266016 ,79,3453261588837
14.6863953 ,Left ,54,84087169686 ,46,8031948684281 ,79,3835624339772
14.7087913 ,Left ,55,0014857737554 ,46,8439273111085 ,79,4047356280755
14.7239797 ,Left ,55,1519330416434 ,46,8585255985147 ,79,4366376857394
14.7464658 ,Left ,55,2628655465828 ,46,8441211936957 ,79,4831621096773
14.7689112 ,Left ,55,3184934888926 ,46,7854107641691 ,79,5087501739633
14.7839973 ,Left ,55,3063458014165 ,46,703676289937 ,79,534666604639
14.8064315 ,Left ,55,3225803971957 ,46,6386321551552 ,79,5283363363848
14.8289489 ,Left ,55,348889955373 ,46,5953700109964 ,79,5263682481606
14.8438948 ,Left ,55,3656805511714 ,46,6098470508092 ,79,5324412815848
14.8665847 ,Left ,55,3713501418788 ,46,64716513863 ,79,5546457098749
14.8887951 ,Left ,55,3606265154836 ,46,6524784622002 ,79,573665513286
14.9039153 ,Left ,55,3208552386725 ,46,640262307808 ,79,6058965468597
14.9263644 ,Left ,55,29433929235 ,46,6426321623954 ,79,6399350273805
14.9489378 ,Left ,55,3001284018207 ,46,6350028085654 ,79,6609132941268
14.963806 ,Left ,55,3091321284394 ,46,6169308023938 ,79,7127300580329
14.986293 ,Left ,55,2709152658507 ,46,6229313992386 ,79,7529556457013
15.0086677 ,Left ,55,1887754352199 ,46,657239263529 ,79,7570175137675
15.023892 ,Left ,55,1507981870423 ,46,6562016493363 ,79,7664354787596
15.0463441 ,Left ,55,1813957821328 ,46,6396291453424 ,79,7831882224448
15.0687569 ,Left ,55,1392820499655 ,46,6200659922332 ,79,7981858959839
15.0840485 ,Left ,55,0164299941303 ,46,6028158825389 ,79,7974564320201
15.1063636 ,Left ,54,8482086506332 ,46,5938107038058 ,79,7760339875928
15.1288246 ,Left ,54,7295252496971 ,46,5667903299348 ,79,7778423608516
15.1438751 ,Left ,54,6640982768148 ,46,5686263777249 ,79,8160159562194
15.174001 ,Left ,54,6279089446949 ,46,6448539991836 ,79,8359150176518
15.1963901 ,Left ,54,6012336797719 ,46,769021154763 ,79,8713366622473
15.2270761 ,Left ,54,6763391119925 ,46,9239106750053 ,79,8540280760146
15.2490156 ,Left ,54,72527522011 ,46,9093525575871 ,79,8321933269669
15.2863046 ,Left ,54,7216325569635 ,46,8372081333358 ,79,7693024618395
15.3090489 ,Left ,54,7208811064285 ,46,8048769256643 ,79,7615635359195
15.3466166 ,Left ,54,780587654885 ,46,7112751595387 ,79,7056412665829
15.3693112 ,Left ,54,8249987380355 ,46,648233314565 ,79,6854591519577
15.4068775 ,Left ,54,8172525539412 ,46,6084177465965 ,79,6441647928819
15.4290794 ,Left ,54,7597016705614 ,46,6457314621232 ,79,6794557288956
15.4663317 ,Left ,54,8086949282119 ,46,6447620808251 ,79,7723146200702
15.4889027 ,Left ,54,8649803397042 ,46,5801084853526 ,79,7571846942077
15.5263603 ,Left ,54,7393602034825 ,46,6073380763544 ,79,7616875973081
15.5493908 ,Left ,54,7200029451349 ,46,6920008532454 ,79,7030597497617
15.5871828 ,Left ,54,7707220905878 ,46,894427750515 ,79,7826240861697
15.6085764 ,Left ,54,8169683914738 ,47,0067916764765 ,79,7898317014418
15.6463913 ,Left ,54,9152705467611 ,47,1458777623712 ,79,8124902274338
15.6694125 ,Left ,54,9155241308065 ,47,1386114151409 ,79,8390652392377
15.7066542 ,Left ,54,8701296464107 ,47,0898163602904 ,79,8220162721672
15.736767 ,Left ,54,8683507645242 ,47,0915398155916 ,79,788077439553
15.7892102 ,Left ,54,8317321802556 ,46,9221507744044 ,79,6238248329089
15.8267258 ,Left ,54,7631017971345 ,46,9769627471697 ,79,5803298709358
15.8563233 ,Left ,54,808046632346 ,47,0694634178119 ,79,4969800867425
15.908768 ,Left ,54,9146235175381 ,47,0764153524955 ,79,3821243603617
15.9463546 ,Left ,54,9120126063738 ,46,9869231717952 ,79,3224376891576
15.9763782 ,Left ,54,9532042538263 ,46,9661551541794 ,79,2833808912513
16.0067986 ,Left ,54,9931215372192 ,46,9883501487326 ,79,2585676402081
16.0291594 ,Left ,55,0320678538198 ,46,9474155100315 ,79,2582703903863
16.0668048 ,Left ,54,9943124619595 ,46,8538032298323 ,79,2544454858815
16.089191 ,Left ,54,9702799688152 ,46,8450414945261 ,79,2612826675726
16.1267981 ,Left ,55,009603170491 ,46,8035625038841 ,79,2713778181611
16.1490664 ,Left ,54,9921345446407 ,46,7593564709863 ,79,2817480553467
16.1867887 ,Left ,54,979110873802 ,46,7522480841646 ,79,3101589422604
16.2091145 ,Left ,55,0223512812668 ,46,7609308708684 ,79,2950809830201
16.2466484 ,Left ,55,0565794660949 ,46,7618360484649 ,79,2922782299009
16.2692576 ,Left ,55,0151677055971 ,46,7777081083603 ,79,3016959436833
16.3067443 ,Left ,55,0200202869752 ,46,8148951874892 ,79,3193247572143
16.3292219 ,Left ,55,0440973584073 ,46,816300889415 ,79,3387899668757
16.366668 ,Left ,55,045857690706 ,46,8162120809662 ,79,3861177811876
16.3890953 ,Left ,55,0391118051129 ,46,825030850751 ,79,3986250387614
16.4266334 ,Left ,55,0381071777134 ,46,8396663704049 ,79,3959018590108
16.4493037 ,Left ,55,0288406407433 ,46,853107004401 ,79,3917617205448
16.4866667 ,Left ,55,0116936053548 ,46,8847079649942 ,79,3707064155757
16.5090436 ,Left ,54,9972864354582 ,46,912153356044 ,79,3631614247247
16.5467294 ,Left ,54,9989033484122 ,46,9394558390651 ,79,3505842443793
16.5691224 ,Left ,54,9560549203897 ,46,9287022690774 ,79,3357958667094
16.6066664 ,Left ,54,7741897756583 ,46,8828051631431 ,79,2951287556974
16.6289973 ,Left ,54,6880333643287 ,46,8126318310521 ,79,2617446856821
16.6666562 ,Left ,54,6062811566505 ,46,7739569718768 ,79,2900497460613
16.689164 ,Left ,54,6019512152062 ,46,8726720428932 ,79,3009108814377
16.7266601 ,Left ,54,7355075242671 ,47,0589360179471 ,79,3285402390126
16.7490221 ,Left ,54,8172147713984 ,47,0656908658873 ,79,3240880395152
16.7863902 ,Left ,54,7761207566872 ,46,989003080004 ,79,2714438965752
16.808915 ,Left ,54,7481638817138 ,46,9727287330463 ,79,241586835592
16.8466794 ,Left ,54,8025726429819 ,46,8955469106967 ,79,1491774425834
16.8690472 ,Left ,54,7657823929783 ,46,8527495168166 ,79,1774307366103
16.9067978 ,Left ,54,7321139412518 ,46,8726932014932 ,79,2407542204898
16.9289299 ,Left ,54,7709189914782 ,46,911929184553 ,79,3089292941247
16.966681 ,Left ,54,917789718845 ,46,9758373366153 ,79,4162932588249
16.9888929 ,Left ,55,0099332444376 ,46,98520893187 ,79,4674507333112
17.0265445 ,Left ,55,1611212767505 ,47,0190349283775 ,79,5884844209877
17.0490091 ,Left ,55,237406723728 ,46,9843004838542 ,79,627422754012
17.0714676 ,Left ,55,3428982561906 ,46,9453913281029 ,79,6699935244763
17.1088129 ,Left ,55,5014109505137 ,46,8886522062972 ,79,7507071604158
17.1312913 ,Left ,55,4785879543681 ,46,859718420868 ,79,7740145397431
17.1691692 ,Left ,55,5478886495546 ,46,779487555846 ,79,8076958489864
17.2066939 ,Left ,55,5517933635516 ,46,6963270182964 ,79,7950529233735
17.2291623 ,Left ,55,4652280313857 ,46,7009862848732 ,79,7660156190085
17.266503 ,Left ,55,4475830725674 ,46,7225552606218 ,79,7198274551576
17.288958 ,Left ,55,4553125224931 ,46,7177106312602 ,79,7006277123523
17.3338921 ,Left ,55,3841932134796 ,46,7356925169962 ,79,6983018332893
17.3865676 ,Left ,55,4289409654493 ,46,6930539692738 ,79,6519763100067
17.4094069 ,Left ,55,3641655649714 ,46,66658259824 ,79,6392049074756
17.4466922 ,Left ,55,2278767327556 ,46,5806260090803 ,79,5900179595203
17.4691821 ,Left ,55,1844535084765 ,46,5232523291794 ,79,5636327792293
17.5067592 ,Left ,55,048441661615 ,46,4990176227159 ,79,5784301537815
17.5290037 ,Left ,54,9052305554073 ,46,5402607108952 ,79,5544957100814
17.5517517 ,Left ,54,8775009790973 ,46,6082193815815 ,79,5381698201887
17.5889713 ,Left ,54,9368271447783 ,46,7635831710163 ,79,5541647093738
17.6116412 ,Left ,54,8895246277897 ,46,834255801197 ,79,5136862999715
17.649063 ,Left ,54,9666417189239 ,46,8724444969089 ,79,4420777488673
17.6716468 ,Left ,54,9874126686158 ,46,8469709589964 ,79,4237624219023
17.6863757 ,Left ,55,0038658836483 ,46,8285329919917 ,79,4015848056152
17.7014756 ,Left ,54,9867913628312 ,46,7953356718563 ,79,4054231561102
17.7240085 ,Left ,54,9606922351205 ,46,7697351976773 ,79,3889172195519
17.7464658 ,Left ,54,9213175550901 ,46,7560609395331 ,79,3476398900615
17.7615146 ,Left ,54,9224564875295 ,46,7460437981681 ,79,3235100176558
17.7839331 ,Left ,54,8991687283922 ,46,7152320475376 ,79,3678437350692
17.8064791 ,Left ,54,8935781297259 ,46,6921537922964 ,79,4508691377874
17.8213756 ,Left ,54,8756815953347 ,46,7051376981282 ,79,4658516849332
17.8440494 ,Left ,54,923604101561 ,46,7097990881698 ,79,4773662371587
17.8666196 ,Left ,54,9740709402456 ,46,6972168452739 ,79,4794104918716
17.8815022 ,Left ,54,9639415723925 ,46,6787503299306 ,79,4573337469279
17.9038103 ,Left ,54,8933948674619 ,46,7212985528398 ,79,4616365156772
17.9265535 ,Left ,54,8699120215619 ,46,7932772549385 ,79,4665746398189
17.9412919 ,Left ,54,8082095092911 ,46,8950547190429 ,79,4961058046784
17.9640871 ,Left ,54,919043413044 ,46,9628870087684 ,79,55017693264
17.9866972 ,Left ,55,0041710306859 ,46,9775302767315 ,79,5910539372968
18.0016436 ,Left ,54,9749810492083 ,46,9914763970409 ,79,611323798237
18.0240016 ,Left ,54,8609562780648 ,46,9636725058998 ,79,6511880107199
18.0464624 ,Left ,54,8147997011403 ,46,9075175324855 ,79,6782918090932
18.0616051 ,Left ,54,7886275367665 ,46,860043469116 ,79,6921319860134
18.0840827 ,Left ,54,7790318038183 ,46,848351900848 ,79,6873418937155
18.1065483 ,Left ,54,703153493057 ,46,8488372445553 ,79,6655625651764
18.1216525 ,Left ,54,6788288609162 ,46,8150245305413 ,79,6119987684529
18.144074 ,Left ,54,6234212746522 ,46,758290829931 ,79,5558074738001
18.1665934 ,Left ,54,6266649313635 ,46,6521907310423 ,79,5385598907327
18.1817203 ,Left ,54,6290388656295 ,46,6139239518781 ,79,5382587182765
18.2040869 ,Left ,54,5449507993053 ,46,7283532438389 ,79,5041754227067
18.2267009 ,Left ,54,5856924236934 ,46,8237729017593 ,79,4652842946008
18.2415322 ,Left ,54,690852959378 ,46,8827468936576 ,79,4600189512796
18.2640477 ,Left ,54,7422686034334 ,46,8766837342972 ,79,4219924541383
18.2865032 ,Left ,54,7138261496209 ,46,8563749904054 ,79,3751537947249
18.3014707 ,Left ,54,6384229239224 ,46,8690092234443 ,79,3509853008178
18.324077 ,Left ,54,5575935274605 ,46,9246892965254 ,79,2978855893891
18.346552 ,Left ,54,5449636761499 ,46,9453033873354 ,79,2237042908974
18.361185 ,Left ,54,5879484742209 ,46,9037530869524 ,79,2069216000945
18.3839298 ,Left ,54,5768739061193 ,46,9023932847245 ,79,2162980993919
18.4069511 ,Left ,54,5392675670203 ,46,9164377522458 ,79,2160807889543
18.4218766 ,Left ,54,5627804463276 ,46,8767121458484 ,79,2143992894234
18.4440095 ,Left ,54,5738638535344 ,46,7959935598754 ,79,2344847054552
18.4662842 ,Left ,54,5575334516868 ,46,7147880285761 ,79,2484518828173
18.4815173 ,Left ,54,5448215585871 ,46,7153613153263 ,79,2476082175831
18.5039041 ,Left ,54,5636532463102 ,46,7735960968441 ,79,2262640606023
18.5265569 ,Left ,54,5681826513297 ,46,8777781157861 ,79,1849611065864
18.5489313 ,Left ,54,6472760399331 ,46,9740018702532 ,79,142208013935
18.5638426 ,Left ,54,7670634443641 ,47,0000488913332 ,79,1086995155486
18.5865082 ,Left ,54,8459434014451 ,46,9852772703271 ,79,0701692368164
18.6086977 ,Left ,54,831879449146 ,46,9343525733703 ,79,0339024621361
18.6238646 ,Left ,54,8336255086387 ,46,8881600933467 ,78,9969246691914
18.6465387 ,Left ,54,8404274407295 ,46,8310553711989 ,78,9537228469356
18.6688603 ,Left ,54,8614175851838 ,46,7845190556984 ,78,9118704550159
18.6838714 ,Left ,54,8354240339065 ,46,7728963746116 ,78,9356024757027
18.706551 ,Left ,54,800707709563 ,46,8076131561694 ,78,9591673976571
18.7287637 ,Left ,54,8677480340539 ,46,8502948300867 ,79,0094591166956
18.7443443 ,Left ,55,0033417828801 ,46,9050349131546 ,79,054529535286
18.7669539 ,Left ,55,1475466698908 ,46,9654253548858 ,79,0804984609864
18.7886615 ,Left ,55,2679818887694 ,46,9905464065916 ,79,1188960034553
18.8114943 ,Left ,55,3413313313419 ,47,021496495075 ,79,1924837399101
18.8336605 ,Left ,55,4456101651207 ,47,0261985678141 ,79,2805788112215
18.856941 ,Left ,55,517895211979 ,46,9932369879051 ,79,3455735263267
18.8718737 ,Left ,55,5454206687478 ,46,9532792795193 ,79,3937379393097
18.8866858 ,Left ,55,5700345518188 ,46,9248927711876 ,79,4332382686585
18.9087286 ,Left ,55,5732680813754 ,46,9011986799935 ,79,4661786818576
18.9237452 ,Left ,55,5781612867383 ,46,8769534622772 ,79,4928475915511
18.9463185 ,Left ,55,6029127805742 ,46,8359863043401 ,79,5314876260129
18.9690998 ,Left ,55,6039451536525 ,46,796536591666 ,79,5810959526828
18.9840561 ,Left ,55,5468171418726 ,46,7954490720082 ,79,6206869617809
19.0065953 ,Left ,55,5425091045338 ,46,8116289929881 ,79,651122116069
19.0287962 ,Left ,55,606383173976 ,46,8015081764174 ,79,6935284145437
19.0445152 ,Left ,55,6338221871714 ,46,7762542573462 ,79,7202026879769
19.0670443 ,Left ,55,567679455568 ,46,7710836045843 ,79,7381582581995
19.0968708 ,Left ,55,4650418228128 ,46,7728862055914 ,79,7446188020702
19.1116415 ,Left ,55,4139768500876 ,46,7609289336123 ,79,7407999446737
19.1340337 ,Left ,55,4139657274968 ,46,728591748295 ,79,7398076427354
19.1490702 ,Left ,55,3971345961351 ,46,6923061251002 ,79,7296595491455
19.1640435 ,Left ,55,3195317013322 ,46,6487609094888 ,79,7219371352948
19.1865294 ,Left ,55,190206995683 ,46,5634714874831 ,79,7277479985549
19.2089537 ,Left ,55,0194593355269 ,46,4886133806538 ,79,7287466640418
19.2241581 ,Left ,54,7594348124869 ,46,4681155218551 ,79,7225734849815
19.2466428 ,Left ,54,660273014551 ,46,5089736245945 ,79,7370183154735
19.2691318 ,Left ,54,7428517388521 ,46,5764272126757 ,79,7410590992553
19.2841439 ,Left ,54,8348450610895 ,46,6593677945588 ,79,7346799945113
19.3063071 ,Left ,54,8125362724916 ,46,7616334862362 ,79,7437018180116
19.3289137 ,Left ,54,759427782408 ,46,8615830769433 ,79,7462407054231
19.3439893 ,Left ,54,7608869423959 ,46,9075083475871 ,79,7136411986083
19.3664999 ,Left ,54,8519670324775 ,46,8959227003843 ,79,668972585858
19.3895117 ,Left ,54,8563471000297 ,46,8535752671659 ,79,6483670287428
19.4045213 ,Left ,54,8415802629909 ,46,8280142556873 ,79,6466205658187
19.4267414 ,Left ,54,8091336896137 ,46,773039709231 ,79,6282496022433
19.449235 ,Left ,54,7603936088091 ,46,7495513145289 ,79,562255717793
19.4637921 ,Left ,54,7829271962017 ,46,719702743929 ,79,516912889966
19.4865683 ,Left ,54,8403331976415 ,46,6789921420638 ,79,5289974079793
19.5091691 ,Left ,54,8100555712761 ,46,6645862945615 ,79,5520608783327
19.5317413 ,Left ,54,6854942055537 ,46,6853444319581 ,79,6148575011925
19.546779 ,Left ,54,676455558968 ,46,6980391655086 ,79,6581109094609
19.5689818 ,Left ,54,7488769547305 ,46,6509241187306 ,79,6678049863765
19.5917254 ,Left ,54,7859431245781 ,46,5853554039078 ,79,6779890541228
19.6066498 ,Left ,54,6853213282727 ,46,607759075626 ,79,6509535102627
19.6289828 ,Left ,54,6450740584599 ,46,6913303172816 ,79,6008205420303
19.6516224 ,Left ,54,6556183947299 ,46,8562244311485 ,79,5630270361326
19.666628 ,Left ,54,8044417787811 ,46,9863544991402 ,79,5948460191488
19.6967139 ,Left ,54,8479711287933 ,47,0830233768259 ,79,6567973126588
19.7191272 ,Left ,54,822187372184 ,47,1480427386118 ,79,6628519869759
19.7340312 ,Left ,54,8045963285966 ,47,1588616392785 ,79,6744164435161
19.7490132 ,Left ,54,8079597810897 ,47,1060720508461 ,79,7099526602254
19.771717 ,Left ,54,7920905827662 ,47,0737942410516 ,79,6905460447286
19.786781 ,Left ,54,7810547975044 ,47,0718823904316 ,79,6450463736692
19.8090922 ,Left ,54,8298800687677 ,47,0739527257733 ,79,5767167016297
19.8317294 ,Left ,54,8238382671771 ,47,0166232568278 ,79,5544751281737
19.8467368 ,Left ,54,7680548186664 ,46,9687468979055 ,79,4799603030392
19.8692253 ,Left ,54,8322528761669 ,46,9136472528565 ,79,4551932462619
19.8989915 ,Left ,54,8734394984415 ,46,9348657896481 ,79,3904570896819
19.9140385 ,Left ,54,8300111151853 ,47,0502172653852 ,79,2952548870479
19.9365522 ,Left ,54,8625872261285 ,47,1609088169203 ,79,2261222056714
19.9516928 ,Left ,54,9089568042694 ,47,2033728193084 ,79,1741930636915
19.9667815 ,Left ,54,8888324361046 ,47,1881322610546 ,79,1148570837962
19.9967505 ,Left ,54,8177759710513 ,47,1521905708363 ,79,1052761205391
20.0196502 ,Left ,54,7575997989665 ,47,1279986659857 ,79,055652688513
20.0345968 ,Left ,54,7391571452708 ,47,1053670909112 ,79,0035580022681
20.0495758 ,Left ,54,7565672971925 ,47,0830139700606 ,78,978724902037
20.0717615 ,Left ,54,7720341552509 ,47,0637272056922 ,78,9893737654945
20.0866638 ,Left ,54,8210309169566 ,47,0253717838086 ,78,9931868999742
20.1090286 ,Left ,54,8199418093458 ,46,9294983638375 ,79,0132780705757
20.1316676 ,Left ,54,8299234385135 ,46,8641675245109 ,79,0091468410481
20.1466668 ,Left ,54,8395859370412 ,46,8261615117346 ,79,0094199846579
20.1690244 ,Left ,54,8781237174526 ,46,7999223768035 ,79,0086007000289
20.1920499 ,Left ,54,9162308658271 ,46,7639109185679 ,79,0056706217076
20.2070202 ,Left ,54,9238345032843 ,46,7184355705367 ,79,0113240937986
20.229398 ,Left ,54,9125445314742 ,46,6912671777668 ,79,0231207674328
20.2518096 ,Left ,54,907468573467 ,46,6936442652849 ,79,0388268144885
20.2669473 ,Left ,54,9232002905048 ,46,710679791187 ,79,0409307676896
20.2893273 ,Left ,54,9621968323907 ,46,7378505723525 ,79,0460218006809
20.3118694 ,Left ,54,9964092889769 ,46,7584121546532 ,79,0533532285232
20.3269338 ,Left ,54,9960329505765 ,46,7619946592828 ,79,0662037473704
20.3493158 ,Left ,54,9441185939657 ,46,7677390570893 ,79,0678261842228
20.3718166 ,Left ,54,8849990720264 ,46,7907965046706 ,79,0653634432775
20.3865867 ,Left ,54,865614537738 ,46,8077358559329 ,79,0475767715389
20.4091539 ,Left ,54,8671339923491 ,46,8120701561975 ,79,0376058329837
20.4317282 ,Left ,54,8437823066336 ,46,7968069564296 ,79,0387768189015
20.4465446 ,Left ,54,7283568970736 ,46,7894945541991 ,79,0302119382536
20.4690922 ,Left ,54,6232022332569 ,46,775452751299 ,79,0175370638905
20.4916104 ,Left ,54,6302427197359 ,46,7559180577346 ,79,0109513454208
20.521694 ,Left ,54,5615094698279 ,46,7482360752144 ,79,0146069605804
20.5366206 ,Left ,54,4978525261604 ,46,8422417341911 ,78,9909113200279
20.5592756 ,Left ,54,5252541093505 ,46,9937054101144 ,78,9665118370604
20.589203 ,Left ,54,763439553437 ,47,095168220226 ,78,92404373315
20.6115386 ,Left ,54,7694505101473 ,47,0845661929917 ,78,9240858503182
20.6341412 ,Left ,54,7092756357453 ,47,0303083519117 ,78,8936485975672
20.6492016 ,Left ,54,7336351825311 ,46,9640554692677 ,78,8485589074484
20.6714414 ,Left ,54,783551311295 ,46,8911631321826 ,78,8153156208172
20.6939725 ,Left ,54,8345005819416 ,46,8695418383436 ,78,8196272224962
20.7090088 ,Left ,54,8135325592064 ,46,864010934017 ,78,810839525936
20.7317165 ,Left ,54,7929806025945 ,46,817560651849 ,78,811125293582
20.7541045 ,Left ,54,8264362194212 ,46,7727018313379 ,78,8427017334772
20.7690762 ,Left ,54,8487029749455 ,46,8331194499009 ,78,8755065514446
20.791728 ,Left ,54,9241577839251 ,46,9538108573148 ,78,9230212360672
20.8141084 ,Left ,55,0339807585162 ,47,0557859769649 ,79,0179892795613
20.8291333 ,Left ,55,1742020361488 ,47,0873271051083 ,79,1019112231324
20.8516004 ,Left ,55,270171000637 ,47,0700735047209 ,79,1760236516167
20.873813 ,Left ,55,3004572598974 ,47,0804662665104 ,79,2267859993989
20.8889521 ,Left ,55,3241154740663 ,47,0867665846543 ,79,2664777949597
20.9187297 ,Left ,55,3623915163131 ,47,066333306731 ,79,307723433958
20.9413333 ,Left ,55,4186718063272 ,47,0374770660286 ,79,3409816992448
20.956572 ,Left ,55,4493605043854 ,47,0072810256862 ,79,3428278284521
20.971543 ,Left ,55,4606281718335 ,46,9691024245487 ,79,3330993338254
20.9940415 ,Left ,55,4585788457147 ,46,9361911001852 ,79,3447577605716
21.0090571 ,Left ,55,4293690692326 ,46,90229381558 ,79,3623104008898
21.0316261 ,Left ,55,4203187068938 ,46,8610686684023 ,79,3793556632101
21.0541747 ,Left ,55,4426862953377 ,46,8361566188311 ,79,3952453018066
21.0691319 ,Left ,55,4492707689587 ,46,8123223174874 ,79,4047271142557
21.0915211 ,Left ,55,4250458598193 ,46,8014385926316 ,79,4078012971184
21.1140762 ,Left ,55,4075311880752 ,46,8009256069489 ,79,4094010740405
21.1290953 ,Left ,55,4458206353909 ,46,7961072011179 ,79,417851193591
21.1514883 ,Left ,55,4658543463366 ,46,7890600413859 ,79,40943975564
21.1740231 ,Left ,55,4386315370052 ,46,7736767218715 ,79,385516034672
21.1890432 ,Left ,55,3988364438949 ,46,745628659609 ,79,3654100828741
21.211575 ,Left ,55,3412035933384 ,46,7305490556005 ,79,3344579863804
21.2346813 ,Left ,55,3017296472803 ,46,715164203062 ,79,2892417969302
21.2493927 ,Left ,55,2209155251485 ,46,6850744008571 ,79,2514649302415
21.2716393 ,Left ,55,1122745001624 ,46,6727543521523 ,79,2624637880087
21.2941528 ,Left ,54,9042865715154 ,46,6639469133142 ,79,267127472775
21.3171027 ,Left ,54,7661291349862 ,46,6858297098336 ,79,2606066784409
21.3322864 ,Left ,54,782443116964 ,46,7034106864819 ,79,2924997331732
21.3616531 ,Left ,54,8034054867798 ,46,7738675098902 ,79,2986526115064
21.3839911 ,Left ,54,7930313173123 ,46,8893742324459 ,79,2638329862291
21.3990414 ,Left ,54,7721021833403 ,46,9869082004206 ,79,2278099166937
21.4214564 ,Left ,54,7715504468023 ,47,0294122198149 ,79,1922084580008
21.4441291 ,Left ,54,8512508537741 ,47,0105013162978 ,79,1507590618211
21.4589563 ,Left ,54,839922796769 ,46,9435051712072 ,79,1242344118671
21.4740915 ,Left ,54,780317045433 ,46,8975718512597 ,79,0970684927504
21.4964827 ,Left ,54,7452220263858 ,46,8635599033079 ,79,060262229661
21.5116452 ,Left ,54,773002260715 ,46,8536177154361 ,79,0029891845162
21.5338452 ,Left ,54,864651112329 ,46,8479117872039 ,78,976005755336
21.556581 ,Left ,54,9032988182434 ,46,8567791408328 ,78,9832345145584
21.5715404 ,Left ,54,8944787007713 ,46,8934352518931 ,78,9806838761905
21.5939202 ,Left ,54,8871506305744 ,46,9524588964002 ,78,9950003970405
21.6163881 ,Left ,54,9792882572311 ,46,9958939210263 ,79,0192163524102
21.631312 ,Left ,55,059872363098 ,47,0142664332614 ,79,0257634822912
21.6539407 ,Left ,55,115247006487 ,47,0251995713173 ,79,0391391976623
21.6765561 ,Left ,55,0853657572109 ,47,0299495864617 ,79,0688094935206
21.6920925 ,Left ,55,049329500559 ,47,0463711075488 ,79,0850868290207
21.7146864 ,Left ,55,0452704866721 ,47,0416989957036 ,79,074614389021
21.7368522 ,Left ,55,047565497335 ,47,0202326520318 ,79,0506967821268
21.7516572 ,Left ,55,0314045648501 ,47,0086085550794 ,79,0417736771389
21.7740926 ,Left ,54,9590639334928 ,46,9915559582491 ,79,0367032810831
21.7965121 ,Left ,54,9021541911875 ,47,0040233110524 ,79,0607017664929
21.8115316 ,Left ,54,9269300995226 ,47,0019330341934 ,79,0694795631216
21.8339561 ,Left ,54,9458162955733 ,46,9946896918038 ,79,0879114879609
21.8564381 ,Left ,54,9307087706884 ,47,0388813425681 ,79,1140517154771
21.8714574 ,Left ,54,9584626509796 ,47,115554392142 ,79,1435439195476
21.8938727 ,Left ,55,0851247592932 ,47,1708567742986 ,79,180937288599
21.9163697 ,Left ,55,2086552042657 ,47,2207153541862 ,79,2187795386498
21.9316254 ,Left ,55,2978518987752 ,47,2725808040172 ,79,2729390641807
21.954353 ,Left ,55,3971889732565 ,47,3082339068901 ,79,3357388889254
21.9766532 ,Left ,55,5152620005677 ,47,3304647447711 ,79,4150230447879
21.9918209 ,Left ,55,6138758653818 ,47,3562543892982 ,79,4820045969579
22.0143346 ,Left ,55,6418060781506 ,47,370207201165 ,79,4972812750143
22.0368417 ,Left ,55,6042988820603 ,47,3586398153347 ,79,5073990752079
22.0518855 ,Left ,55,5582783864819 ,47,3522403899229 ,79,5269618534361
22.0744547 ,Left ,55,5711931203175 ,47,3136191662001 ,79,5334444000929
22.0971537 ,Left ,55,5909799554714 ,47,2236751275351 ,79,5072544135097
22.1120833 ,Left ,55,5625057121846 ,47,1177623129009 ,79,4795019590049
22.1340114 ,Left ,55,4594440524785 ,47,0287305207036 ,79,4766246668485
22.156728 ,Left ,55,3828190804168 ,46,9698807375522 ,79,4704589089453
22.1790929 ,Left ,55,3894746239152 ,46,9291894234497 ,79,4488985271619
22.1942334 ,Left ,55,4636954087116 ,46,910533385837 ,79,4108674895966
22.2164971 ,Left ,55,5443629573327 ,46,8792635829516 ,79,3741300943979
22.2395209 ,Left ,55,55734985799 ,46,8556712897119 ,79,3543363617496
22.254699 ,Left ,55,4805699199246 ,46,8613134179672 ,79,3505241627544
22.2772639 ,Left ,55,4154975350664 ,46,8980379200322 ,79,3273732136574
22.2918966 ,Left ,55,3820926129146 ,46,9164726751747 ,79,2935083071734
22.3141767 ,Left ,55,374650947864 ,46,9147319482496 ,79,2788149765075
22.3440942 ,Left ,55,37757407857 ,46,9207487473603 ,79,2663211745748
22.3667553 ,Left ,55,3445811898985 ,46,9238659680809 ,79,2617515710444
22.3815388 ,Left ,55,2960581351002 ,46,91592369466 ,79,2522008401167
22.3967015 ,Left ,55,2213059118056 ,46,8881031574609 ,79,2419820989483
22.4268737 ,Left ,55,2194082430091 ,46,8235306976926 ,79,2425583898201
22.4417543 ,Left ,55,2042963378634 ,46,7844501829882 ,79,2693040833359
22.4641478 ,Left ,55,1393458127653 ,46,792971779686 ,79,2759233383372
22.4792529 ,Left ,55,0713653880335 ,46,8386319436901 ,79,2591790907933
22.4941919 ,Left ,55,0978177918214 ,46,896991678898 ,79,2243628600403
22.5167303 ,Left ,55,0243493662821 ,46,9459960391202 ,79,2075841110543
22.5391175 ,Left ,54,9138508937634 ,46,9788829134206 ,79,2261663022116
22.5542195 ,Left ,54,8210300849452 ,47,0209228681351 ,79,2337364569568
22.5766839 ,Left ,54,7195444566336 ,47,1026066358157 ,79,2290404249761
22.5991335 ,Left ,54,7400093068742 ,47,1673081400322 ,79,2100471604491
22.6140525 ,Left ,54,8332564091365 ,47,1650302596675 ,79,1838131611687
22.6366448 ,Left ,54,8233151480601 ,47,1395689592398 ,79,1589937373466
22.6590964 ,Left ,54,8014982577806 ,47,1422979928988 ,79,1364829026328
22.674306 ,Left ,54,7905274393961 ,47,149354593052 ,79,1027211023077
22.6965215 ,Left ,54,8256401097204 ,47,1470516645445 ,79,0604450606238
22.7191522 ,Left ,54,8429051714126 ,47,1427390846929 ,79,0292430788067
22.7342949 ,Left ,54,8311708147 ,47,124116688959 ,79,024168701187
22.7565755 ,Left ,54,8078427789879 ,47,1116804194255 ,79,0176568635496
22.77906 ,Left ,54,7978691847219 ,47,0897813891777 ,79,0058252528138
22.7941683 ,Left ,54,814710280849 ,47,0247931146496 ,79,0022570767731
22.8167704 ,Left ,54,8280860310793 ,46,9268153641347 ,78,9973593574654
22.8392194 ,Left ,54,7278547841887 ,46,80377742098 ,78,9682351118733
22.8619222 ,Left ,54,5931597874449 ,46,7194163597418 ,78,9813866168094
22.8842991 ,Left ,54,4695873360407 ,46,6701721013331 ,79,0131568363581
22.9068233 ,Left ,54,3993631744992 ,46,6808346158888 ,79,0271164548483
22.9216296 ,Left ,54,4069845977939 ,46,7423140100912 ,79,0676200647057
22.9364435 ,Left ,54,4452098423278 ,46,8356206349844 ,79,0914487703158
22.9591771 ,Left ,54,5441910849302 ,46,8838806023129 ,79,0873772314468
22.9741817 ,Left ,54,6504802616556 ,46,860317485693 ,79,0774231713455
22.9963495 ,Left ,54,7086261050127 ,46,8070869002685 ,79,068578478337
23.019345 ,Left ,54,6623762439548 ,46,7693049325262 ,78,994794978146
23.0341266 ,Left ,54,6605743304205 ,46,7739279179277 ,78,941759221378
23.0565762 ,Left ,54,7303765634135 ,46,7638334312783 ,78,8828014027618
23.0792002 ,Left ,54,7407713469271 ,46,7401430004894 ,78,8993061232416
23.0941055 ,Left ,54,7164466545116 ,46,7482009566477 ,78,9136517991296
23.116798 ,Left ,54,7214756211599 ,46,7860392024892 ,78,9705653740494
23.1389292 ,Left ,54,8099115440019 ,46,8108296657186 ,79,0090788415324
23.1615283 ,Left ,54,9204981794852 ,46,8218532749375 ,79,0504084994123
23.1763903 ,Left ,55,0468871444157 ,46,8388199123194 ,79,067415503457
23.1989452 ,Left ,55,1453964952883 ,46,8520744462257 ,79,1117272766046
23.2215031 ,Left ,55,2564496512934 ,46,86393644762 ,79,13543798464
23.236644 ,Left ,55,3333942418657 ,46,8522008258754 ,79,1842728688562
23.258964 ,Left ,55,4196717429039 ,46,8578174424802 ,79,2289949831247
23.2816475 ,Left ,55,5079632672849 ,46,8691910746515 ,79,2779033665866
23.2963474 ,Left ,55,5116444368984 ,46,8717876084014 ,79,3056585543445
23.3188437 ,Left ,55,5253414430125 ,46,8819227748461 ,79,3311099149296
23.3416434 ,Left ,55,5318283859704 ,46,8749099872298 ,79,3482756982816
23.3567243 ,Left ,55,5338772956499 ,46,8689053601023 ,79,3483686059577
23.3790259 ,Left ,55,5204659623789 ,46,86329944098 ,79,3524527843619
23.401706 ,Left ,55,4925492206353 ,46,8598030689771 ,79,3557573379276
23.4165411 ,Left ,55,4755843950617 ,46,8556535126932 ,79,3697831107
23.4390033 ,Left ,55,4638113341845 ,46,8416917609956 ,79,3710689001422
23.4616777 ,Left ,55,4454542263545 ,46,8364062837281 ,79,3617016599662
23.4766674 ,Left ,55,4261078622505 ,46,8431985841016 ,79,3491511620268
23.4990344 ,Left ,55,4290575909018 ,46,8492363537767 ,79,3366175330521
23.5213933 ,Left ,55,4295977995024 ,46,8381720597411 ,79,3266658114413
23.536472 ,Left ,55,3925602860629 ,46,8161259342551 ,79,3171429702581
23.5595457 ,Left ,55,3203607492925 ,46,7979762671922 ,79,3073021110638
23.582041 ,Left ,55,2317005493784 ,46,7545099313169 ,79,3022709401836
23.5966249 ,Left ,55,0724923315783 ,46,6780382220113 ,79,291315706087
23.6189868 ,Left ,54,9888962429266 ,46,6224248482032 ,79,2950374964593
23.6413631 ,Left ,54,9643800109027 ,46,5779815504864 ,79,3050699587591
23.6563439 ,Left ,54,8908754590502 ,46,585196176547 ,79,3116068655236
23.678821 ,Left ,54,8368229174672 ,46,6536601732121 ,79,3304561366552
23.701514 ,Left ,54,821952311354 ,46,7660985705963 ,79,3538166531288
23.7166299 ,Left ,54,9406801929905 ,46,8288176422488 ,79,3412417294171
23.7390422 ,Left ,55,0337848197985 ,46,8228966324668 ,79,3178249332071
23.7617085 ,Left ,55,0379040306854 ,46,8259690367819 ,79,2883158329744
23.7839894 ,Left ,54,9672482447872 ,46,8107646882571 ,79,2833733990654
23.8066914 ,Left ,54,9392154693289 ,46,7855564964663 ,79,2736512090966
23.8363826 ,Left ,54,8986469010701 ,46,7174674891504 ,79,1714164284055
23.8588327 ,Left ,54,9011009178205 ,46,6764341060168 ,79,1375174876742
23.8816975 ,Left ,54,8003527756243 ,46,6738866499479 ,79,1573619280378
23.8966861 ,Left ,54,7822722949228 ,46,6552543500271 ,79,19221565358
23.9193059 ,Left ,54,8252072106198 ,46,6403558082624 ,79,2187933093556
23.9416949 ,Left ,54,8975749441082 ,46,6367585632276 ,79,2259214060651
23.9567346 ,Left ,54,907113803562 ,46,6238466029715 ,79,226917222886
23.9792018 ,Left ,54,8694228098569 ,46,6577886185111 ,79,2006452928539
24.0018623 ,Left ,54,7932332766343 ,46,7479413209525 ,79,1747415035842
24.0169469 ,Left ,54,7713856405994 ,46,873433869873 ,79,1582029275996
24.0392628 ,Left ,54,7953761033535 ,46,9704917896342 ,79,2130079353527
24.061637 ,Left ,54,8455954691963 ,47,0696853558233 ,79,2648488397729
24.0843105 ,Left ,54,8686866075074 ,47,1734129221473 ,79,2805518928364
24.0993179 ,Left ,54,9222664120264 ,47,2287169102207 ,79,3129999320664
24.1215196 ,Left ,54,969013557039 ,47,2505397290855 ,79,3758747376364
24.1444306 ,Left ,54,9290828781317 ,47,2280625322283 ,79,4033903119826
24.1591946 ,Left ,54,9018634572522 ,47,2064380578563 ,79,3892784660803
24.1819005 ,Left ,54,8961995259405 ,47,1554730281029 ,79,3798393205196
24.2041925 ,Left ,54,9025883784502 ,47,1001345098707 ,79,3518526269385
24.2191039 ,Left ,54,8261491643597 ,47,0118641599575 ,79,3006637739761
24.241856 ,Left ,54,782207112781 ,46,9109202238912 ,79,2366590330847
24.2643442 ,Left ,54,7854104495055 ,46,8250509332513 ,79,2086453284421
24.279369 ,Left ,54,7758631778352 ,46,8481489578443 ,79,1713012810346
24.3016377 ,Left ,54,7410723032833 ,46,9437029213466 ,79,1242255087984
24.3241462 ,Left ,54,7885389438339 ,47,0255853895625 ,79,088471936947
24.3392609 ,Left ,54,8186585198466 ,47,0571229973435 ,79,0758970610564
24.3618155 ,Left ,54,7850120782594 ,47,0643421586258 ,79,0433160796378
24.3842606 ,Left ,54,7042692610941 ,47,0824201357649 ,79,0191702159891
24.3990222 ,Left ,54,638655911743 ,47,1013743797597 ,78,966924372903
24.4215086 ,Left ,54,6578863348675 ,47,0779675742186 ,78,9386288190671
24.4439498 ,Left ,54,6581891620694 ,47,0467986949286 ,78,9218982967816
24.4588953 ,Left ,54,5834466587252 ,47,0167412954126 ,78,9201300124959
24.4814404 ,Left ,54,529838186307 ,46,958228339892 ,78,9106962398195
24.5040778 ,Left ,54,4773500483686 ,46,9107402797716 ,78,9379447904328
24.5188804 ,Left ,54,4211904702975 ,46,8829935111073 ,78,9686439588199
24.5415128 ,Left ,54,4488357427553 ,46,9157183849018 ,79,0235088880323
24.5637515 ,Left ,54,4845657520223 ,46,971273229297 ,79,0576160974267
24.578898 ,Left ,54,5612168462451 ,47,0190959977316 ,79,068644892418
24.6021325 ,Left ,54,663584404369 ,46,9960991513381 ,79,0778380544842
24.6245274 ,Left ,54,7438602521481 ,46,9208874648955 ,79,0546980417715
24.6391186 ,Left ,54,6756331728629 ,46,8204522698385 ,79,0231940588949
24.6617823 ,Left ,54,6656053131129 ,46,7908708181895 ,78,9719581989778
24.691697 ,Left ,54,6604520719462 ,46,7991274075989 ,78,9422406569535
24.7066563 ,Left ,54,7170944233717 ,46,7626073056394 ,78,8939658208415
24.7292063 ,Left ,54,6580821893084 ,46,727756797742 ,78,9248204760591
24.7441486 ,Left ,54,6315889470436 ,46,7115700553611 ,78,935213574615
24.7590643 ,Left ,54,6406643627896 ,46,7315350184988 ,78,9692066193386
24.7815583 ,Left ,54,705561469543 ,46,789657223553 ,79,0315885741007
24.8041919 ,Left ,54,7755931677103 ,46,8360063840506 ,79,0989620643203
24.819187 ,Left ,54,8817082653508 ,46,8506380578335 ,79,1391645855157
24.8414045 ,Left ,55,0040940594487 ,46,8169579962184 ,79,1815201542644
24.8638768 ,Left ,55,1380484752815 ,46,7689410091481 ,79,2216344793292
24.8789331 ,Left ,55,2635762810385 ,46,7365067909628 ,79,2654883402236
24.901378 ,Left ,55,3840427256829 ,46,7086450355207 ,79,3184812641772
24.9245622 ,Left ,55,5010506284847 ,46,6781984620327 ,79,3692338811901
24.9392042 ,Left ,55,5913055591613 ,46,6625279863005 ,79,4212420455177
24.9619962 ,Left ,55,6354435792741 ,46,6501734291878 ,79,4707993096908
24.9843966 ,Left ,55,6483025919887 ,46,626391282855 ,79,5023542941397
25.0067806 ,Left ,55,6404537972161 ,46,608996459822 ,79,5408993809481
25.0216322 ,Left ,55,6516710267849 ,46,6061476181055 ,79,5529314114388
25.0443021 ,Left ,55,6519343089841 ,46,6088630043458 ,79,5531662692753
25.0591894 ,Left ,55,6525499083163 ,46,611733335612 ,79,5529554834362
25.0817391 ,Left ,55,6320141683081 ,46,6351437361836 ,79,5442420172711
25.1042537 ,Left ,55,598262375256 ,46,6743240000944 ,79,5308489700422
25.1191462 ,Left ,55,5577774928564 ,46,7156400823211 ,79,4965669689329
25.1413953 ,Left ,55,5447733620695 ,46,7271524734147 ,79,4846917939595
25.1637619 ,Left ,55,5415396510877 ,46,7226760362465 ,79,4809257799843
25.1789911 ,Left ,55,4839472537609 ,46,7216060084234 ,79,4670760878146
25.1939225 ,Left ,55,4119237710851 ,46,7144066426877 ,79,4538202015891
25.2163595 ,Left ,55,3395823133559 ,46,6862088158487 ,79,4470323235084
25.2539265 ,Left ,55,0783127082433 ,46,5940989051065 ,79,3873513099073
25.2767473 ,Left ,54,97296926895 ,46,5508553676334 ,79,3488891620175
25.313907 ,Left ,54,8339705265665 ,46,5023837897752 ,79,3788188732533
25.3363933 ,Left ,54,7169133310519 ,46,5557632331827 ,79,4046800069439
25.3738733 ,Left ,54,8039451829981 ,46,6841949750837 ,79,4311826651663
25.3965622 ,Left ,54,8348381131029 ,46,7092433276837 ,79,4379207104699
25.4340335 ,Left ,54,6860558109039 ,46,6809200660168 ,79,3996720260104
25.4566048 ,Left ,54,6519385355359 ,46,6744825510147 ,79,3763577255685
25.4939731 ,Left ,54,6979862140179 ,46,5985376686801 ,79,3066967549065
25.5239131 ,Left ,54,6170498047842 ,46,5435243952463 ,79,2527561719895
25.5613039 ,Left ,54,5007082104675 ,46,5353908965611 ,79,2633134361474
25.5763164 ,Left ,54,5073254197408 ,46,5795851321068 ,79,3164241976586
25.6138543 ,Left ,54,5797262146768 ,46,6384799556212 ,79,4067343795656
25.6367741 ,Left ,54,5749053045201 ,46,6078617165816 ,79,4361048627506
25.6738538 ,Left ,54,5182379975667 ,46,5949718750944 ,79,4043583428996
25.6964157 ,Left ,54,4518404338388 ,46,6570955891358 ,79,2959762950631
25.718976 ,Left ,54,4437489930529 ,46,7626327315688 ,79,3120945639349
25.7341285 ,Left ,54,4976176701565 ,46,8831974534942 ,79,3878957897378
25.757074 ,Left ,54,5586162537689 ,46,9939417933112 ,79,4554580809128
25.7796849 ,Left ,54,6008403989643 ,47,0841825718625 ,79,5014901026848
25.7945705 ,Left ,54,6656446165727 ,47,0857499687402 ,79,5251699132469
25.8168549 ,Left ,54,6852031436949 ,47,0860866713331 ,79,5475355070832
25.8390395 ,Left ,54,7054775994095 ,47,0654108971949 ,79,5595853114887
25.8540842 ,Left ,54,7153412913032 ,47,0444692586531 ,79,5401561998951
25.8764602 ,Left ,54,7120055160311 ,47,053381989677 ,79,489175158369
25.9140637 ,Left ,54,6162971633217 ,46,9560309817908 ,79,3372402914299
25.9365635 ,Left ,54,6624136565332 ,46,8900888784278 ,79,3106204635603
25.9737764 ,Left ,54,6552018011421 ,47,0251580568308 ,79,2103605918487
25.9964958 ,Left ,54,6953740046929 ,47,0673851333487 ,79,1559088397413
26.0190446 ,Left ,54,7309509312477 ,47,0493433019818 ,79,1227447803826
26.0341872 ,Left ,54,7054187059361 ,47,0080214415684 ,79,0794697701161
26.0565345 ,Left ,54,669795285116 ,46,9920490187289 ,79,062149508855
26.0943459 ,Left ,54,6478095989118 ,47,004898469186 ,79,0011137825292
26.11689 ,Left ,54,7028541317438 ,46,9831261515467 ,78,9832998016713
26.1543215 ,Left ,54,7729388290774 ,46,8420105935138 ,79,0224642412539
26.1769736 ,Left ,54,7539792025692 ,46,8134737308061 ,79,0069983913762
26.2141542 ,Left ,54,8699312642109 ,46,7925694800221 ,78,99160165456
26.2369101 ,Left ,54,8974942162291 ,46,7562121759955 ,78,9837622687059
26.2746312 ,Left ,54,8966530254713 ,46,751201114246 ,79,006340350424
26.2968872 ,Left ,54,8912787011015 ,46,7534681990638 ,79,0224181368027
26.3341067 ,Left ,54,9416055260997 ,46,75831746811 ,79,0342888443009
26.3564503 ,Left ,54,9542043561281 ,46,7392713578293 ,79,0448928595554
26.3940446 ,Left ,54,8904433030601 ,46,7601534218647 ,79,0587535580572
26.4166879 ,Left ,54,8877364139861 ,46,7884726585086 ,79,0594544162846
26.4539498 ,Left ,54,9316829875444 ,46,7881730951648 ,79,0406794474046
26.4768265 ,Left ,54,9014315883666 ,46,7777562871362 ,79,0369461457313
26.4990019 ,Left ,54,8444955810442 ,46,7784093608053 ,79,021971388666
26.5141769 ,Left ,54,8204333392365 ,46,7854723736205 ,78,9833055557976
26.5363986 ,Left ,54,8108695919509 ,46,8053540666801 ,78,9563532644086
26.5590375 ,Left ,54,7958988923046 ,46,8229551878363 ,78,9389066358204
26.5963523 ,Left ,54,6640031560673 ,46,8575373708338 ,78,8719431070121
26.6188821 ,Left ,54,5867934170588 ,46,8170374874989 ,78,8482283551275
26.6563539 ,Left ,54,5894071269377 ,46,8812304214564 ,78,9017974027134
26.6787162 ,Left ,54,6931472516432 ,46,99620514656 ,78,9104544291624
26.7163919 ,Left ,54,8302054675634 ,47,0586116337716 ,78,9198699818317
26.738981 ,Left ,54,910708739522 ,46,9811243390767 ,78,8965125498243
26.776377 ,Left ,54,7223524008461 ,46,8624742752275 ,78,8351583469245
26.7987961 ,Left ,54,6997702200122 ,46,8890946339383 ,78,784691759905
26.8367469 ,Left ,54,7744644820543 ,46,7452376183464 ,78,8047440285258
26.8592241 ,Left ,54,7280932120664 ,46,7166776050843 ,78,8386135881571
26.8968674 ,Left ,54,9076836903249 ,46,8356379326467 ,78,8785714387934
26.9189452 ,Left ,55,0017817819421 ,46,8648973893506 ,78,8861149774211
26.9564018 ,Left ,55,205504959023 ,46,8220519301164 ,78,9133796879375
26.978856 ,Left ,55,2407239295253 ,46,7822016793901 ,78,9518270260351
27.0163612 ,Left ,55,3280117890164 ,46,752880182628 ,79,0371620322958
27.0391412 ,Left ,55,4336067357277 ,46,7470143029479 ,79,0697830496439
27.076702 ,Left ,55,58810079219 ,46,7394692556159 ,79,1320346784809
27.099009 ,Left ,55,5619276723183 ,46,7106459880819 ,79,1706741173479
27.1366027 ,Left ,55,5237918191759 ,46,6469022454374 ,79,2169020632537
27.159017 ,Left ,55,454605730043 ,46,6631091871034 ,79,2158911771789
27.1963308 ,Left ,55,5642881506202 ,46,6258669251243 ,79,2281465210647
27.2189796 ,Left ,55,5634966883344 ,46,5759528696536 ,79,2392646468338
27.2565801 ,Left ,55,4152920790439 ,46,6024941060465 ,79,2182861375772
27.2792095 ,Left ,55,4585090347586 ,46,6030684979374 ,79,2102652759792
27.3164407 ,Left ,55,430754537924 ,46,5501887697318 ,79,1985249940236
27.3393647 ,Left ,55,3278931022223 ,46,5237063691021 ,79,1891335457925
27.3764528 ,Left ,55,0843799739481 ,46,4632241181046 ,79,155475873145
27.3996827 ,Left ,54,9450975581782 ,46,4513933616199 ,79,1483028710843
27.4366517 ,Left ,54,829153781126 ,46,5331017270915 ,79,1748233906
27.4590859 ,Left ,54,8302143006938 ,46,6090460809327 ,79,1824772977441
27.4964927 ,Left ,54,8276548681038 ,46,7500099052471 ,79,1577874484844
27.5190971 ,Left ,54,8556616865665 ,46,7738871213224 ,79,1247491147048
27.5567262 ,Left ,54,9068544810608 ,46,7043972435255 ,79,0920856002222
27.5789533 ,Left ,54,8636855210162 ,46,6508300252855 ,79,0967183528775
27.6164384 ,Left ,54,8584008975803 ,46,5734880083046 ,79,0255918034848
27.6388996 ,Left ,54,8537078341134 ,46,5237843499873 ,78,998430893444
27.6766473 ,Left ,54,8062835418857 ,46,5631305992077 ,79,0736576401764
27.6993807 ,Left ,54,8129981800805 ,46,5703173215314 ,79,11751249814
27.7441787 ,Left ,54,8314438887651 ,46,5319733288244 ,79,1454590073275
27.7667333 ,Left ,54,7721013255264 ,46,5830764292282 ,79,1366656339483
27.8191675 ,Left ,54,7872899584617 ,46,8769488680834 ,79,1734961012089
27.8569403 ,Left ,54,8322921952283 ,47,0057016752201 ,79,2477393208427
27.8793255 ,Left ,54,8770181947275 ,47,0496695312293 ,79,2475496606215
27.916758 ,Left ,54,9058548522155 ,47,0326945317101 ,79,2899279644797
27.9468444 ,Left ,54,874547938884 ,46,9954571409504 ,79,271780659037
27.9841121 ,Left ,54,8872968309806 ,46,9530999120022 ,79,2023632553021
27.9992119 ,Left ,54,8700363077829 ,46,9259455390284 ,79,160509366237
28.0367914 ,Left ,54,7678186298564 ,46,7805070277067 ,79,0504936418483
28.0590142 ,Left ,54,8039587162586 ,46,7477107482187 ,79,0136413950945
28.0967743 ,Left ,54,7166086117178 ,46,9076569977885 ,78,9171232321313
28.1189994 ,Left ,54,7451718583225 ,46,9627667198012 ,78,8820011084708
28.1567939 ,Left ,54,8606233780303 ,46,9421393896359 ,78,8343910789258
28.1791381 ,Left ,54,8362229472581 ,46,9224302585896 ,78,8119217630516
28.2164253 ,Left ,54,7762226323949 ,46,8497341490101 ,78,7483354707217
28.2389372 ,Left ,54,7777565040921 ,46,8280464348577 ,78,7158559083979
28.2765374 ,Left ,54,7478061947629 ,46,7824493375309 ,78,7018623128088
28.2989741 ,Left ,54,7210687722676 ,46,748341673015 ,78,7086981882108
28.3365287 ,Left ,54,6907030765134 ,46,6545678445349 ,78,6882961233324
28.3591508 ,Left ,54,6368628670492 ,46,595069073361 ,78,7188465868693
28.3968188 ,Left ,54,4728051726437 ,46,6713050442202 ,78,7389391175353
28.4191042 ,Left ,54,4833883635978 ,46,7851650521192 ,78,71851232578
28.4570251 ,Left ,54,6544229384785 ,46,9106351409807 ,78,6963698958993
28.4789331 ,Left ,54,7012959684603 ,46,8717026102855 ,78,6903532867209
28.5164195 ,Left ,54,6559294459797 ,46,7880716669914 ,78,6453524655037
28.5390839 ,Left ,54,6755404879713 ,46,748566552251 ,78,6303850056537
28.5765629 ,Left ,54,7077003807338 ,46,6195460779165 ,78,569284542112
28.5990739 ,Left ,54,6587987531295 ,46,6295594258359 ,78,6074903619664
28.6364651 ,Left ,54,7995088338331 ,46,715180800734 ,78,7113137679682
28.659593 ,Left ,54,9497120778294 ,46,7656305110147 ,78,7597317276852
28.6813695 ,Left ,55,0657946345414 ,46,7801419464711 ,78,7884845624929
28.7189667 ,Left ,55,2841034450421 ,46,7546253286636 ,78,8671452850986
28.7414311 ,Left ,55,3344210716246 ,46,7135468212919 ,78,9075634111135
28.7792165 ,Left ,55,4279098233332 ,46,6731820114373 ,78,9702638155033
28.8018666 ,Left ,55,4596477342106 ,46,6628707183175 ,78,9865873452082
28.8169289 ,Left ,55,4986904471302 ,46,6263766062261 ,79,016215721748
28.8318796 ,Left ,55,5282121688725 ,46,5954152728806 ,79,0453184409474
28.854115 ,Left ,55,5259682961441 ,46,5881148851661 ,79,078132735842
28.8767193 ,Left ,55,5081964093598 ,46,5935493194136 ,79,0929490254465
28.891771 ,Left ,55,4851794633733 ,46,5994269665479 ,79,087123118195
28.914221 ,Left ,55,4758168481496 ,46,6069079751856 ,79,0926225557819
28.9365296 ,Left ,55,4836663394959 ,46,6137450121389 ,79,1103502673144
28.9517142 ,Left ,55,474779061065 ,46,6255065559043 ,79,129778261257
28.9738868 ,Left ,55,4582950415579 ,46,6409716228418 ,79,1282139112907
28.9965212 ,Left ,55,4216734783108 ,46,646305154312 ,79,1278980459721
29.0114726 ,Left ,55,4020568073857 ,46,6426073024771 ,79,1415225821369
29.0339399 ,Left ,55,3676286630876 ,46,619192107091 ,79,1665215202613
29.0568091 ,Left ,55,301065234012 ,46,5826540744183 ,79,1813605874581
29.0718267 ,Left ,55,2220465697978 ,46,5501914409925 ,79,1848916973772
29.094234 ,Left ,55,1282290969835 ,46,5037134937213 ,79,1605779640019
29.1169387 ,Left ,54,976360939027 ,46,4624004830343 ,79,114740713368
29.1319427 ,Left ,54,8745377946788 ,46,4302033086421 ,79,1186297015172
29.1543471 ,Left ,54,82463910558 ,46,4230114165616 ,79,1470310749224
29.1766604 ,Left ,54,7430374362045 ,46,466855534926 ,79,1503065984593
29.1917944 ,Left ,54,6890572548244 ,46,5658564466317 ,79,1696296546922
29.214383 ,Left ,54,683314670147 ,46,6610447762927 ,79,1863312548335
29.2369185 ,Left ,54,7916052767081 ,46,7192955789472 ,79,1708048146076
29.2518076 ,Left ,54,8753102294211 ,46,7083107507448 ,79,155049500625
29.2744131 ,Left ,54,8604819636197 ,46,6747659538897 ,79,1498029962915
29.2969892 ,Left ,54,785537649871 ,46,6285706692796 ,79,138596935952
29.311772 ,Left ,54,7657577470626 ,46,5922263651535 ,79,1202008153538
29.3342022 ,Left ,54,818951914872 ,46,5697877071096 ,79,0816313037475
29.3641881 ,Left ,54,8398141349994 ,46,5568084579768 ,79,023606105656
29.3792718 ,Left ,54,8200212044709 ,46,5176629567826 ,79,0051258493534
29.4017685 ,Left ,54,7801822203327 ,46,4965184104573 ,79,0145224433218
29.4165644 ,Left ,54,7737548033744 ,46,52188800572 ,79,0538355425503
29.4318121 ,Left ,54,8102106165764 ,46,5530015525693 ,79,0804690945334
29.4540681 ,Left ,54,8745598634452 ,46,5412928020784 ,79,1194666739522
29.4767051 ,Left ,54,9325969983065 ,46,4772726961747 ,79,1144301904849
29.4917647 ,Left ,54,8697099676125 ,46,4258811833723 ,79,1241807424061
29.5143166 ,Left ,54,7891175753599 ,46,4653751278829 ,79,1272605107014
29.5364964 ,Left ,54,7140927391042 ,46,5205426057623 ,79,0717833197174
29.5515762 ,Left ,54,7038413537612 ,46,6165423668107 ,79,1045734987597
29.5741403 ,Left ,54,8397649027011 ,46,6632646096649 ,79,1609759550163
29.5967978 ,Left ,54,8611507258575 ,46,7158964355958 ,79,1806191099066
29.6191028 ,Left ,54,8290133969971 ,46,7885587146741 ,79,1952790536868
29.6341669 ,Left ,54,8631818700157 ,46,8282898347741 ,79,2131435190168
29.6565532 ,Left ,54,924478381904 ,46,8490123690911 ,79,2199868836445
29.6715743 ,Left ,54,9332181505963 ,46,8635248364702 ,79,1847686774911
29.6942311 ,Left ,54,9474216343777 ,46,8888509363913 ,79,1307566738973
29.7167342 ,Left ,54,9062251451489 ,46,9041103469878 ,79,0838787164586
29.7315005 ,Left ,54,8643188537846 ,46,8907419906405 ,79,0397203009022
29.754127 ,Left ,54,8640425996489 ,46,848223700918 ,78,9661358264408
29.7766148 ,Left ,54,8865340870159 ,46,8245768155082 ,78,9378690133335
29.7918091 ,Left ,54,8746414175034 ,46,8656554211592 ,78,9117639565861
29.8140944 ,Left ,54,7880022113993 ,46,94175994813 ,78,8628564099776
29.8366357 ,Left ,54,7640031335018 ,47,0018392384924 ,78,7974837685809
29.8592942 ,Left ,54,8211784315612 ,47,0086381279166 ,78,7609235337626
29.8743104 ,Left ,54,8362235983637 ,46,99721619899 ,78,7328214304649
29.8966366 ,Left ,54,8154738244407 ,46,9943579371755 ,78,7241457175224
29.9192798 ,Left ,54,7621319829282 ,47,0121405643009 ,78,7096812481737
29.9342174 ,Left ,54,7983998600282 ,47,0136188896067 ,78,6971567139655
29.9568132 ,Left ,54,8868786994433 ,47,000810858894 ,78,7052454882869
29.9791507 ,Left ,54,9484703965177 ,46,9775259297113 ,78,7113062800496
29.9940931 ,Left ,54,951275518268 ,46,9325980935306 ,78,7260782590216
30.0241834 ,Left ,54,9245124004142 ,46,9192758860271 ,78,7261467052853
30.0468765 ,Left ,54,919840405978 ,46,906636381757 ,78,7125640484011
30.0616872 ,Left ,54,9660583452495 ,46,8996060476208 ,78,7102168828802
30.0766151 ,Left ,55,0090643385048 ,46,8820215438228 ,78,7140793123249
30.0990403 ,Left ,54,986687058901 ,46,860993695559 ,78,7236683098541
30.1140616 ,Left ,54,9470597653662 ,46,859752763826 ,78,7364184870034
30.1365675 ,Left ,54,9276582824413 ,46,8644800999827 ,78,7408292165298
30.1591383 ,Left ,54,9468468354807 ,46,8570222105676 ,78,7362360166152
30.1743062 ,Left ,54,9630623025859 ,46,837784869734 ,78,7209574365121
30.1968158 ,Left ,54,9289426493742 ,46,8248872486273 ,78,7074832660654
30.2190545 ,Left ,54,8710464163073 ,46,8311565017892 ,78,6988131409131
30.2341651 ,Left ,54,7951198213568 ,46,8289399459747 ,78,7139564277116
30.2568361 ,Left ,54,7359742372487 ,46,8481413384008 ,78,7218065836269
30.2791592 ,Left ,54,6889316169179 ,46,8128052210334 ,78,7006659495687
30.2940688 ,Left ,54,6482130683418 ,46,787951114957 ,78,7059426007018
30.3165111 ,Left ,54,5824203919033 ,46,79953148871 ,78,7137650736742
30.3391234 ,Left ,54,512943180491 ,46,8537536464964 ,78,721667791528
30.3541965 ,Left ,54,5135198712715 ,46,90177471277 ,78,7361566866389
30.3766354 ,Left ,54,5544503490452 ,46,9191198861049 ,78,7621229652522
30.3992057 ,Left ,54,6314124719638 ,46,8902205166854 ,78,7294057829889
30.4141801 ,Left ,54,6826592077899 ,46,8474684056137 ,78,7171245744447
30.4439869 ,Left ,54,6647716739126 ,46,7928127481177 ,78,6787134044429
30.4664564 ,Left ,54,7125422654151 ,46,7203773900675 ,78,6455729044866
30.4814533 ,Left ,54,7198870726532 ,46,6483214696193 ,78,6253845873654
30.4963601 ,Left ,54,6761216124475 ,46,6481638332725 ,78,6089916001484
30.5189447 ,Left ,54,7032854116346 ,46,6271402722405 ,78,5524059149268
30.5338651 ,Left ,54,7109144378321 ,46,615101546494 ,78,5949388581148
30.5565027 ,Left ,54,7648025864125 ,46,6410346835188 ,78,6516675863099
30.5790273 ,Left ,54,799604658493 ,46,7213740237304 ,78,6987323304475
30.5938905 ,Left ,54,8734699393193 ,46,8066130370184 ,78,743655384
30.6167211 ,Left ,55,0047163401236 ,46,8551031487426 ,78,7846071333757
30.6391638 ,Left ,55,1402431951893 ,46,8452540003744 ,78,8248447812
30.6613585 ,Left ,55,2363199310648 ,46,8267282878543 ,78,8709639666599
30.6766568 ,Left ,55,2582841672519 ,46,8127996551363 ,78,8764340365024
30.6991339 ,Left ,55,2621537275393 ,46,794360205893 ,78,8895730880022
30.7214998 ,Left ,55,3142236493402 ,46,7724302931447 ,78,9010467250345
30.736728 ,Left ,55,3610795076638 ,46,7518499321209 ,78,9087764033767
30.7593177 ,Left ,55,3633486771737 ,46,7332830727973 ,78,9083644567412
30.774122 ,Left ,55,3383957450339 ,46,6946921474937 ,78,9234785249349
30.796425 ,Left ,55,3136423875172 ,46,6432825191594 ,78,9458269401585
30.8264247 ,Left ,55,3224776373331 ,46,6206438861637 ,78,9626504986743
30.8414209 ,Left ,55,3224776373331 ,46,6206438861637 ,78,9626504986743
30.8714546 ,Left ,55,3443392936814 ,46,6203044771365 ,78,9551658558229
30.8863914 ,Left ,55,3307284213066 ,46,6230237085719 ,78,9506046261718
30.9164273 ,Left ,55,2955179424664 ,46,6153377425097 ,78,9591655401856
30.9390695 ,Left ,55,2947412571953 ,46,6175240058164 ,78,9556933849006
30.9615257 ,Left ,55,3005597496018 ,46,6045016674093 ,78,9527890687538
30.9765321 ,Left ,55,2974904659812 ,46,5686750551209 ,78,9582178320426
30.9991402 ,Left ,55,2718599176561 ,46,5394802269016 ,78,9771614981087
31.0215439 ,Left ,55,2520904092814 ,46,5260865698823 ,78,9883970019476
31.0366079 ,Left ,55,2392070754705 ,46,516806303845 ,78,9800078457641
31.0590073 ,Left ,55,227198642415 ,46,5018994817165 ,78,9550840378258
31.0814875 ,Left ,55,2197358744436 ,46,4763324189908 ,78,9468320568388
31.0964651 ,Left ,55,1953215537701 ,46,4649388285632 ,78,9509246822838
31.1189094 ,Left ,55,1340285840132 ,46,4808925737375 ,78,9255662170055
31.1416659 ,Left ,55,0412167257041 ,46,5166692772961 ,78,8841967578092
31.156787 ,Left ,55,0162694554444 ,46,5336362253529 ,78,8390485534853
31.1792246 ,Left ,55,0047714635116 ,46,5581868106918 ,78,8028704091752
31.2018759 ,Left ,54,9687890964961 ,46,6155783050081 ,78,7840473016659
31.2169698 ,Left ,54,8816619637728 ,46,6768790776996 ,78,7573543700389
31.2392757 ,Left ,54,8034726431827 ,46,7430057748622 ,78,7259017331702
31.2616956 ,Left ,54,8101089144357 ,46,7901239277884 ,78,7077139640022
31.2767935 ,Left ,54,8874782664219 ,46,8214667306876 ,78,6935344270989
31.2991738 ,Left ,54,9211566896468 ,46,802248423046 ,78,6896720922368
31.3217866 ,Left ,54,8606918447123 ,46,7552618878327 ,78,6825270796233
31.3365425 ,Left ,54,8259371666565 ,46,7352168839719 ,78,6529005999868
31.3591995 ,Left ,54,830886512743 ,46,699970601342 ,78,5906446857433
31.3815738 ,Left ,54,8338893842106 ,46,7035293114978 ,78,5749668820617
31.3965576 ,Left ,54,7762188586495 ,46,7252773295771 ,78,5640851603269
31.419193 ,Left ,54,6799512190014 ,46,8130473371768 ,78,5927082737143
31.441781 ,Left ,54,6545437380204 ,46,8842084536534 ,78,6056493711519
31.4642311 ,Left ,54,7034196107858 ,46,9179383370687 ,78,6365356773897
31.4867891 ,Left ,54,7354935362109 ,46,917524464577 ,78,6395078409875
31.5162584 ,Left ,54,6583639170996 ,46,9346607693141 ,78,6557577192523
31.5389561 ,Left ,54,599986040799 ,46,9581323206883 ,78,6798911708395
31.5615251 ,Left ,54,6600754036517 ,46,9557727494058 ,78,6983695794608
31.5763418 ,Left ,54,707218884165 ,46,9241090767894 ,78,7345962936637
31.5989951 ,Left ,54,6887087224983 ,46,910343893732 ,78,7224393876445
31.6293031 ,Left ,54,6688235675426 ,46,8873754383387 ,78,716394523429
31.6519751 ,Left ,54,7078733966438 ,46,8895373009061 ,78,7232969869486
31.6669944 ,Left ,54,7220608478948 ,46,910661002719 ,78,6931047141563
31.6819793 ,Left ,54,7121372033683 ,46,9199391542325 ,78,63430494631
31.6967166 ,Left ,54,7365861727417 ,46,8888201115001 ,78,5903600265248
31.7192019 ,Left ,54,6882886937066 ,46,8709130786585 ,78,5919327928395
31.7417094 ,Left ,54,5551137281104 ,46,9182672584604 ,78,5588170419214
31.7639591 ,Left ,54,524810850491 ,47,0171742228298 ,78,5874297653423
31.7790599 ,Left ,54,6167712817131 ,47,1022561318935 ,78,6309869356763
31.8014588 ,Left ,54,6668736335468 ,47,1935329259414 ,78,6516541109447
31.8239997 ,Left ,54,7570112955399 ,47,2824877009055 ,78,6805243014275
31.8389892 ,Left ,54,8231846133851 ,47,3413449579444 ,78,7487583262945
31.8617761 ,Left ,54,8968637817628 ,47,3683786822553 ,78,8070862007079
31.8841559 ,Left ,55,0056942701331 ,47,3647640985152 ,78,8847061573515
31.9067479 ,Left ,55,1419371993421 ,47,3539485006423 ,78,9373081811562
31.9291941 ,Left ,55,2997018742574 ,47,3307373908176 ,78,9695155471345
31.9590955 ,Left ,55,3964705138281 ,47,3032483431386 ,79,0005047250185
31.9816721 ,Left ,55,2913823734422 ,47,2611806613094 ,78,994418335936
32.0045009 ,Left ,55,2826042364321 ,47,2185645479157 ,78,9968094793163
32.0197468 ,Left ,55,2980202597676 ,47,1664430680769 ,78,9533629790835
32.0421246 ,Left ,55,2562358506236 ,47,1090717135732 ,78,8731714654809
32.0640972 ,Left ,55,1908953622179 ,47,0593883924766 ,78,8070273634017
32.0791564 ,Left ,55,1367877698833 ,47,0267474195049 ,78,7861621143865
32.1017077 ,Left ,55,1073030453975 ,47,0141923250705 ,78,7524292874337
32.1240713 ,Left ,55,1300264953131 ,46,9862125114749 ,78,7251118254224
32.1389232 ,Left ,55,1524856170581 ,46,9685522270975 ,78,7204750437045
32.161632 ,Left ,55,179794114952 ,46,9716416662958 ,78,7231654018884
32.1840801 ,Left ,55,1464193039872 ,46,972042585713 ,78,7133126915697
32.1991297 ,Left ,55,1106392423838 ,46,955986775556 ,78,6630472689338
32.2214784 ,Left ,55,0667071072992 ,46,933761790749 ,78,637842813659
32.2439147 ,Left ,55,0129594491002 ,46,9358181549013 ,78,6256449492182
32.2589641 ,Left ,54,9395515142823 ,46,9814620630445 ,78,6103431038536
32.2814883 ,Left ,54,8558277819836 ,47,0290632253136 ,78,5577707364584
32.3040595 ,Left ,54,8962561502536 ,47,0542650801753 ,78,5180677986425
32.3196104 ,Left ,54,9612404772003 ,47,0689787707377 ,78,4993787420347
32.3421656 ,Left ,54,9523725275382 ,47,1099700248338 ,78,478127955971
32.3646378 ,Left ,54,8862309706294 ,47,1403777715316 ,78,4626659963614
32.3870323 ,Left ,54,8661835032161 ,47,158226631028 ,78,4547133992903
32.4092033 ,Left ,54,9215529480861 ,47,1559564692555 ,78,4607346932215
32.439213 ,Left ,54,9876304155865 ,47,0746351475014 ,78,4705822852154
32.4692001 ,Left ,54,975889705141 ,47,0549020577901 ,78,471609799619
32.4917121 ,Left ,54,94834138003 ,47,0353373033497 ,78,4745160228544
32.5068331 ,Left ,54,9344788902935 ,47,0062142069275 ,78,4748742614802
32.5218655 ,Left ,54,918077057611 ,47,0004720063084 ,78,4794394734078
32.5443695 ,Left ,54,9404001041216 ,46,9825273878056 ,78,4778247553524
32.5593229 ,Left ,54,9487610006963 ,46,9380551970152 ,78,4771657178311
32.5818676 ,Left ,54,9038582974661 ,46,894520943948 ,78,4775085049744
32.6042927 ,Left ,54,7989434193001 ,46,8748977760341 ,78,4799403918783
32.6191534 ,Left ,54,7468922392099 ,46,8496467085283 ,78,468043103292
32.6418645 ,Left ,54,7293888565446 ,46,812150015427 ,78,4714341646402
32.6642849 ,Left ,54,6768522535286 ,46,8028360652049 ,78,4828124553591
32.6792992 ,Left ,54,5666830511541 ,46,825833783831 ,78,5128807419023
32.701639 ,Left ,54,4383493534337 ,46,8565782751829 ,78,5545635238742
32.7242758 ,Left ,54,38694055919 ,46,9043861467869 ,78,6059583604402
32.7388723 ,Left ,54,465843015273 ,46,9900098735532 ,78,6399006087776
32.761628 ,Left ,54,6155480643351 ,47,0289192586269 ,78,6444838544071
32.7840119 ,Left ,54,6795778111584 ,46,9941010316645 ,78,6266845505332
32.8066928 ,Left ,54,6931822984494 ,46,9477067455558 ,78,6074346729683
32.8217738 ,Left ,54,6578036361576 ,46,8808793463165 ,78,5799296254334
32.8442726 ,Left ,54,6710698782931 ,46,8285287579172 ,78,5282225650468
32.8737649 ,Left ,54,7073110542507 ,46,8001951501838 ,78,4663622186912
32.896536 ,Left ,54,7811608660556 ,46,7679258645234 ,78,4105147965608
32.9197816 ,Left ,54,7928926894631 ,46,7274074554995 ,78,3915860701279
32.949204 ,Left ,54,7553380487936 ,46,8055911234852 ,78,3871897537763
32.9641073 ,Left ,54,8698374248096 ,46,8619789781986 ,78,4117912499897
32.9866621 ,Left ,55,0324494008861 ,46,8935874333918 ,78,4547768932825
33.0014485 ,Left ,55,0925103310337 ,46,9457991400981 ,78,5243286971603
33.0241145 ,Left ,55,1380386513796 ,47,0047835523925 ,78,5874019741708
33.0465174 ,Left ,55,2028356422837 ,47,0309568530925 ,78,6637307675068
33.0615644 ,Left ,55,3153625919708 ,47,0186957874805 ,78,7285105248941
33.0841052 ,Left ,55,4148823100547 ,46,9931073262401 ,78,7953764984403
33.1065246 ,Left ,55,4846820103851 ,47,0168755067716 ,78,8445524647537
33.1215603 ,Left ,55,5042499116379 ,47,0097812005952 ,78,8900149970409
33.1443191 ,Left ,55,5337114636238 ,47,0005831868061 ,78,9028847907139
33.1672225 ,Left ,55,5573053836008 ,47,0068937954676 ,78,9194566248564
33.1820728 ,Left ,55,604926186263 ,47,0221924937235 ,78,9300457699146
33.2044676 ,Left ,55,6145768381882 ,47,0240851898867 ,78,9349447494601
33.2269974 ,Left ,55,5502716229376 ,46,9787917481891 ,78,9168843210832
33.241812 ,Left ,55,5250861319297 ,46,9116756464531 ,78,9101463255414
33.2641609 ,Left ,55,500924642553 ,46,8599955826271 ,78,9338601630703
33.2865679 ,Left ,55,4552242201509 ,46,86880681676 ,78,9515570590607
33.3015146 ,Left ,55,3488611618678 ,46,8846235850295 ,78,9392295515875
33.3239025 ,Left ,55,3154920468548 ,46,8969279805531 ,78,9126691401912
33.346717 ,Left ,55,3444889904974 ,46,8996084649359 ,78,906495931378
33.361636 ,Left ,55,3447113928757 ,46,9023300740916 ,78,9067223654977
33.3840491 ,Left ,55,2916053046953 ,46,9124833885226 ,78,9304562364619
33.4141328 ,Left ,55,2505938991426 ,46,8954210830085 ,78,9640692997206
33.4291497 ,Left ,55,2646011918573 ,46,8583693597128 ,78,9871838526696
33.4518896 ,Left ,55,2803259324976 ,46,8129377134683 ,79,0075111321674
33.4668874 ,Left ,55,2525084732435 ,46,7879410689457 ,79,0198838531721
33.4816728 ,Left ,55,2009146457199 ,46,7934571023282 ,79,0234538706681
33.504292 ,Left ,55,1421197318206 ,46,7900779352754 ,79,0102808261863
33.5268035 ,Left ,55,1023378209276 ,46,75962115355 ,79,0080273443612
33.541862 ,Left ,55,0720126628458 ,46,7292368815509 ,79,0044969647035
33.5642523 ,Left ,55,038173762966 ,46,7110296948458 ,79,000007279611
33.5868641 ,Left ,55,0287824472704 ,46,7004553005045 ,78,9791180309583
33.6019021 ,Left ,55,022406896988 ,46,681392888303 ,78,9646116580118
33.6246395 ,Left ,54,9833732125888 ,46,6490167631851 ,78,963615304458
33.6472443 ,Left ,54,9190272326255 ,46,6146441950975 ,78,963103439316
33.6619721 ,Left ,54,8484337352794 ,46,5867454731536 ,78,9459879247823
33.6841478 ,Left ,54,7894295520316 ,46,5674749839245 ,78,9340074446648
33.7064293 ,Left ,54,6979638187275 ,46,6123865117257 ,78,9098173378064
33.7289223 ,Left ,54,6123936541363 ,46,6505224019432 ,78,867582223997
33.7439408 ,Left ,54,584410686296 ,46,6595102521767 ,78,8619093143949
33.7665785 ,Left ,54,5569675830912 ,46,6606165627302 ,78,8696643853067
33.788949 ,Left ,54,4821040637059 ,46,7177967666194 ,78,8476843350127
33.803965 ,Left ,54,4238318714063 ,46,7538278362258 ,78,8011297834623
33.8267559 ,Left ,54,4472186432054 ,46,7564633077837 ,78,7636832986577
33.8491577 ,Left ,54,5615270420597 ,46,7291249587107 ,78,7240572447305
33.8642161 ,Left ,54,6057120295072 ,46,6686244295497 ,78,697353910766
33.886718 ,Left ,54,564342495894 ,46,6005495850549 ,78,7003657903258
33.916805 ,Left ,54,5282918321737 ,46,5338796083846 ,78,7000903648369
33.9318997 ,Left ,54,5493773853119 ,46,4980253847153 ,78,6785195872795
33.9695048 ,Left ,54,5198213442861 ,46,47391518316 ,78,6959719606097
33.9844853 ,Left ,54,4970646868036 ,46,4982110506786 ,78,7663631357992
34.0069919 ,Left ,54,5037262286336 ,46,5599973384517 ,78,841859265697
34.0294155 ,Left ,54,533185156169 ,46,5889338016796 ,78,9095108625475
34.0444249 ,Left ,54,5539207667198 ,46,5837813193988 ,78,924114660901
34.0668441 ,Left ,54,5819109154551 ,46,5824097628909 ,78,9261326819811
34.0891714 ,Left ,54,5884333116191 ,46,6063123810061 ,78,9108264465786
34.1040246 ,Left ,54,6493602315768 ,46,6638436225431 ,78,8671633934494
34.1263249 ,Left ,54,7077291423927 ,46,7023769809558 ,78,8567122769757
34.1490279 ,Left ,54,7228147518426 ,46,7902309207925 ,78,8563688173049
34.1639874 ,Left ,54,7315833846692 ,46,8774553159079 ,78,8654510527807
34.1865864 ,Left ,54,7735592093597 ,46,8907728147948 ,78,8862471603145
34.2096523 ,Left ,54,8350355202839 ,46,8577302527512 ,78,8817949737873
34.2244654 ,Left ,54,7795078315061 ,46,7878663895198 ,78,9007886632937
34.2468647 ,Left ,54,7386527055202 ,46,7889235142962 ,78,9033583716566
34.2692772 ,Left ,54,7466282494906 ,46,7952541011007 ,78,9009014107815
34.284156 ,Left ,54,7720696599979 ,46,7820931017451 ,78,8997451969855
34.306922 ,Left ,54,7978072492376 ,46,7588573735787 ,78,9342763210373
34.3289373 ,Left ,54,825708711877 ,46,7258231610861 ,78,9566230783084
34.3440229 ,Left ,54,8216287979472 ,46,691438781392 ,78,9648521951168
34.3666158 ,Left ,54,8267455466857 ,46,6498875079704 ,78,9648872031126
34.3891323 ,Left ,54,8866491935749 ,46,6429497622793 ,78,9639732171161
34.404032 ,Left ,54,9442772447781 ,46,6446792571936 ,78,9559973949767
34.4264897 ,Left ,54,957422320412 ,46,6427762284903 ,78,9146476202549
34.4488924 ,Left ,54,9387107595564 ,46,638564362732 ,78,8800391140065
34.4716601 ,Left ,54,8593432107137 ,46,6401916063486 ,78,885712171427
34.4867117 ,Left ,54,7777524296529 ,46,6560709462685 ,78,8064781681829
34.5090561 ,Left ,54,7006005916194 ,46,6967300652878 ,78,7843226706512
34.5315571 ,Left ,54,6828117536145 ,46,727197897839 ,78,8024205696609
34.5465635 ,Left ,54,6670147637251 ,46,7876369041579 ,78,8507552904302
34.5689455 ,Left ,54,6733252729159 ,46,8787076996279 ,78,8895844506488
34.5916919 ,Left ,54,7056203568271 ,46,9638379617517 ,78,9343462806504
34.60649 ,Left ,54,7731062632383 ,46,9919863601278 ,78,9806977085636
34.6290851 ,Left ,54,8091014920877 ,46,9775156659128 ,79,0037784840122
34.651673 ,Left ,54,7734178702678 ,46,9337654151953 ,79,018646528025
34.6666875 ,Left ,54,7359105499419 ,46,8954256761456 ,79,0106628591199
34.6888488 ,Left ,54,7143452907767 ,46,8650784035032 ,78,9914132951517
34.7116234 ,Left ,54,7355757843628 ,46,8394132080546 ,78,9760079267694
34.7266888 ,Left ,54,7300399179322 ,46,7780196961954 ,78,9610551502882
34.7490699 ,Left ,54,6880135281979 ,46,7027710290826 ,78,9235998491067
34.7716318 ,Left ,54,622788952457 ,46,653309153889 ,78,8680770797907
34.7867574 ,Left ,54,5925403643013 ,46,6470693427863 ,78,8361146355552
34.8091084 ,Left ,54,6064236872251 ,46,6752374815372 ,78,8053089152652
34.831585 ,Left ,54,6660275410963 ,46,6870342859336 ,78,7515956260393
34.8467721 ,Left ,54,6825181418501 ,46,7305924188554 ,78,7113534130783
34.8689585 ,Left ,54,6384591269744 ,46,7940776089445 ,78,6925867264203
34.8916226 ,Left ,54,6559276557387 ,46,8394485274564 ,78,6753822384568
34.9065711 ,Left ,54,686202879145 ,46,8576605976425 ,78,6499080576443
34.9291436 ,Left ,54,7321277109317 ,46,8480245068419 ,78,6470486269189
34.9516357 ,Left ,54,761516834245 ,46,8292885891844 ,78,6265857077403
34.9665657 ,Left ,54,7531737499513 ,46,8020906205274 ,78,628212742883
34.9890376 ,Left ,54,7342771538514 ,46,813791588567 ,78,6140294133896
35.0191503 ,Left ,54,7152082266232 ,46,8296620300793 ,78,5740068902154
35.0343151 ,Left ,54,6875971540154 ,46,8239474769554 ,78,561678263196
35.0567628 ,Left ,54,7039932536311 ,46,8434481058217 ,78,5408866591456
35.0868153 ,Left ,54,6304431484733 ,46,7999085807864 ,78,5111582360172
35.1091572 ,Left ,54,5611453373292 ,46,8162378523656 ,78,5156654578719
35.1316593 ,Left ,54,4815929002526 ,46,8133269616375 ,78,4899236887837
35.1466928 ,Left ,54,4789329452364 ,46,7850576890239 ,78,4571145573855
35.1689373 ,Left ,54,468252077425 ,46,7108783689808 ,78,4839950193279
35.1915521 ,Left ,54,3661672130898 ,46,6882457508352 ,78,4860669669563
35.2066651 ,Left ,54,2807004729794 ,46,7504641338102 ,78,4872022356015
35.2291849 ,Left ,54,2962190530639 ,46,8201678312983 ,78,4664898610223
35.2517902 ,Left ,54,3600064401949 ,46,8582117903938 ,78,4684525710303
35.2666845 ,Left ,54,4079205570567 ,46,8589475143039 ,78,4526004566548
35.2891946 ,Left ,54,3988765388821 ,46,8704357286474 ,78,4393248805647
35.3117858 ,Left ,54,3376478821463 ,46,8905155838426 ,78,4004576259277
35.3265545 ,Left ,54,3312659397457 ,46,9333060757511 ,78,4100172195441
35.3491779 ,Left ,54,4041065044354 ,46,9359347382392 ,78,3994267093172
35.3716562 ,Left ,54,4850862545153 ,46,9067405589038 ,78,3891580979496
35.3865631 ,Left ,54,516199966609 ,46,9067080488805 ,78,3824871156063
35.4095426 ,Left ,54,5519847434741 ,46,9083394558166 ,78,3627001030794
35.4319853 ,Left ,54,630827465072 ,46,8734740103728 ,78,3366919600765
35.4470028 ,Left ,54,7137390732318 ,46,8079206312494 ,78,3164781045024
35.4694348 ,Left ,54,7408427018214 ,46,7590914242696 ,78,2950680685376
35.491937 ,Left ,54,7121347645957 ,46,7096078982983 ,78,2661846363689
35.5070028 ,Left ,54,7111983058184 ,46,6537789980318 ,78,2392811936578
35.5295292 ,Left ,54,7331944019246 ,46,6110893739938 ,78,2180474198059
35.5519753 ,Left ,54,7642398243163 ,46,5895866953518 ,78,216447196368
35.5666463 ,Left ,54,7563021570703 ,46,5760862637686 ,78,2096242447792
35.589317 ,Left ,54,7528319782799 ,46,5656282242661 ,78,1643033191622
35.6119393 ,Left ,54,7070493206982 ,46,5461781246679 ,78,1700609670744
35.6344114 ,Left ,54,6470014862154 ,46,5685804922694 ,78,1880199186009
35.6493516 ,Left ,54,5869299275988 ,46,6651403235716 ,78,1790498087431
35.6718502 ,Left ,54,6515826573954 ,46,7691034794773 ,78,1829766854293
35.6941455 ,Left ,54,7799343614387 ,46,8744539401196 ,78,2027939032192
35.709116 ,Left ,54,8407723928122 ,46,9466005040819 ,78,2073613539251
35.7314879 ,Left ,54,8975750043829 ,47,0008168947309 ,78,23750783591
35.7540256 ,Left ,54,9482470567779 ,47,0577401693821 ,78,2641353478387
35.7690119 ,Left ,55,0788854044251 ,47,1077832457724 ,78,3087792294046
35.7916232 ,Left ,55,1884870403671 ,47,1553358999949 ,78,3877948522082
35.8142697 ,Left ,55,3064227557322 ,47,2125253508026 ,78,4277380587207
35.8292579 ,Left ,55,3711994740749 ,47,2005564215782 ,78,4736533158689
35.8516056 ,Left ,55,4069693997502 ,47,1460282820671 ,78,5329259827394
35.8739426 ,Left ,55,3878490184848 ,47,1154775991299 ,78,5835090546902
35.889489 ,Left ,55,3806002899858 ,47,0735913705305 ,78,5868221131148
35.9114845 ,Left ,55,4264738839993 ,47,0271834330409 ,78,5931168174508
35.93416 ,Left ,55,4887655811917 ,46,9912304691225 ,78,5991091967847
35.9492607 ,Left ,55,5061854609278 ,46,9663786939253 ,78,5997726613966
35.9718327 ,Left ,55,4892909084257 ,46,9552262071874 ,78,6035098771988
35.994231 ,Left ,55,4585584157126 ,46,9439291797777 ,78,6023934323525
36.0092217 ,Left ,55,4151244902157 ,46,9390533109634 ,78,5904439270503
36.0316956 ,Left ,55,3739446701345 ,46,9495217803022 ,78,5698068015613
36.0543745 ,Left ,55,3752239183293 ,46,9446027569687 ,78,5499692815056
36.0692374 ,Left ,55,3803137713626 ,46,8960613396237 ,78,53506615798
36.091615 ,Left ,55,3433814474164 ,46,8372554287819 ,78,5511812875264
36.1143294 ,Left ,55,2736684284128 ,46,8007135864046 ,78,5705155981547
36.1293824 ,Left ,55,2130017138467 ,46,76855287075 ,78,5659618592006
36.1517197 ,Left ,55,2033239571748 ,46,7334043159345 ,78,5571254145825
36.1741376 ,Left ,55,234338501489 ,46,6910826064829 ,78,5589708430842
36.1889131 ,Left ,55,2412266878414 ,46,6389529252628 ,78,5706546352007
36.2116665 ,Left ,55,1834803210248 ,46,5805641103288 ,78,5694334176763
36.2339294 ,Left ,55,1021565341357 ,46,5359173624456 ,78,5473065655404
36.2491052 ,Left ,55,0334945619357 ,46,4848411322018 ,78,5364062309396
36.2716858 ,Left ,54,9731254464647 ,46,4532481848993 ,78,5276411701765
36.293993 ,Left ,54,8737826047978 ,46,486246755706 ,78,5418537071475
36.3166052 ,Left ,54,7041054215756 ,46,5231741047824 ,78,5516781568071
36.3239337 ,Left ,54,5318997702578 ,46,5853454522079 ,78,5646205118421
36.3465616 ,Left ,54,5321015920878 ,46,6297942414483 ,78,5941790203198
36.3847004 ,Left ,54,4931919233947 ,46,7338760843541 ,78,5603003771757
36.4073375 ,Left ,54,4313895860112 ,46,768165456806 ,78,5335485086378
36.4442969 ,Left ,54,4880846080769 ,46,7708675075549 ,78,4699520804821
36.4666045 ,Left ,54,492532732747 ,46,7246920039195 ,78,4473774310337
36.4816655 ,Left ,54,4976687620039 ,46,6857451136657 ,78,4410713861739
36.5041196 ,Left ,54,5187356196069 ,46,6690391413219 ,78,4421219021425
36.5268054 ,Left ,54,491949958493 ,46,6653315050594 ,78,4051453771639
36.5416233 ,Left ,54,472462909463 ,46,6660364598446 ,78,3428149325257
36.5713539 ,Left ,54,5731729729103 ,46,6771474412592 ,78,3918372801141
36.5941612 ,Left ,54,6149130166931 ,46,6690528397423 ,78,4016084899206
36.6238514 ,Left ,54,4406411229801 ,46,7859334141138 ,78,3995366834835
36.646481 ,Left ,54,4587151183605 ,46,8003536826334 ,78,4463470331253
36.6843176 ,Left ,54,4719860808247 ,46,7442472299192 ,78,4914037744426
36.7072615 ,Left ,54,3818408249329 ,46,7852672103269 ,78,52665073153
36.7222125 ,Left ,54,3851898681096 ,46,853775535729 ,78,5341102419953
36.7444754 ,Left ,54,4212307493634 ,46,8966198829139 ,78,5539633356017
36.766974 ,Left ,54,5121336040288 ,46,9122609098006 ,78,5968573458268
36.7818121 ,Left ,54,5390772911951 ,46,8830931249994 ,78,6274878877728
36.8039228 ,Left ,54,4907054883462 ,46,8794173629551 ,78,6461136711922
36.8266608 ,Left ,54,4726140496568 ,46,8967723001356 ,78,6673398763678
36.8639572 ,Left ,54,7127438101892 ,46,8549905600863 ,78,6548161475293
36.8867036 ,Left ,54,8291446557219 ,46,8253394674027 ,78,6746463558974
36.9240263 ,Left ,54,8867337599754 ,46,8213110235937 ,78,7878911496744
36.9466491 ,Left ,54,9211624989595 ,46,7941084707596 ,78,8299477523482
36.9840667 ,Left ,55,0710326911721 ,46,7791052807069 ,78,8803906869838
37.0065662 ,Left ,55,1288719951659 ,46,7641378105905 ,78,8959772435138
37.0443303 ,Left ,55,0312337229412 ,46,7100593382473 ,78,8807118898111
37.066871 ,Left ,54,9322269133467 ,46,6865549544571 ,78,8509300678221
37.1042757 ,Left ,54,8594997356931 ,46,6662412167487 ,78,7715131798636
37.126931 ,Left ,54,8367626782462 ,46,6380389996716 ,78,7396325447564
37.1640597 ,Left ,54,8039978361702 ,46,5950960121836 ,78,7290763125231
37.1868638 ,Left ,54,8059588606515 ,46,5676529443482 ,78,7062060880597
37.2242076 ,Left ,54,7352016997151 ,46,5787981532249 ,78,6611782178024
37.2467066 ,Left ,54,6551167853014 ,46,6005355099617 ,78,6165292066769
37.2843542 ,Left ,54,5756126042889 ,46,6869877466774 ,78,6405745497066
37.3068781 ,Left ,54,5417296122033 ,46,778083611494 ,78,6328272419294
37.3443336 ,Left ,54,6552616626234 ,46,8966882954376 ,78,6153460033216
37.3743525 ,Left ,54,7026159606842 ,46,9085501017838 ,78,6168710854412
