timestamp,event,roll,pitch,yaw
0.0325274 ,Left ,63,1732541043806 ,45,0719958534486 ,68,2248779982172
0.055154 ,Left ,63,1742927845432 ,45,073478132242 ,68,2255828701385
0.0927401 ,Left ,63,1642252185779 ,45,0826363815993 ,68,2300438288278
0.1150862 ,Left ,63,1529820673149 ,45,0843740045888 ,68,2372691777864
0.1525888 ,Left ,63,1420707267255 ,45,0814614602236 ,68,2482188635501
0.175177 ,Left ,63,14077246846 ,45,0783645091086 ,68,2547369523606
0.2126277 ,Left ,63,1375942297138 ,45,0551858397836 ,68,27559977291
0.236039 ,Left ,63,1343656255989 ,45,0417644445022 ,68,291907340255
0.273148 ,Left ,63,132304209599 ,45,0040143497765 ,68,3291490247653
0.2958848 ,Left ,63,1341746971565 ,44,9890526916218 ,68,3509979116177
0.3331126 ,Left ,63,1429473740685 ,44,973623134336 ,68,3845781515329
0.3556317 ,Left ,63,1456743321189 ,44,9672470249323 ,68,3935003671457
0.3925624 ,Left ,63,1554749020117 ,44,9663462079914 ,68,4106233203898
0.4150221 ,Left ,63,1575786514394 ,44,9660674753806 ,68,4080592468597
0.452643 ,Left ,63,1244182140169 ,44,9752697984728 ,68,4037340001449
0.475188 ,Left ,63,1110085955382 ,44,9868684728261 ,68,406501067141
0.5201682 ,Left ,63,0769685592683 ,45,0099779135472 ,68,4073913559298
0.5426907 ,Left ,63,0591847868365 ,45,0208169868378 ,68,4084819151497
0.573146 ,Left ,63,0322667292063 ,45,039408153042 ,68,4197555336083
0.5957298 ,Left ,63,0194628518654 ,45,0525413587787 ,68,4251896470258
0.6331259 ,Left ,62,9766851190414 ,45,0765906993246 ,68,4358613501736
0.6555307 ,Left ,62,9503687508342 ,45,0932314563643 ,68,4434163894874
0.6924547 ,Left ,62,9034182848089 ,45,1292937614328 ,68,465730230482
0.7153105 ,Left ,62,8779496399715 ,45,1499407814937 ,68,4825220396784
0.7526471 ,Left ,62,8197109724205 ,45,201586222288 ,68,5247207256926
0.7752034 ,Left ,62,7792177247477 ,45,2352843231166 ,68,5465528831664
0.8127087 ,Left ,62,6720832916963 ,45,3123220456179 ,68,6009409884943
0.8352525 ,Left ,62,6048886224246 ,45,3563024671731 ,68,6304099401985
0.8728813 ,Left ,62,4518693985964 ,45,4393778377942 ,68,7037877865701
0.895262 ,Left ,62,3559670300718 ,45,4597769219458 ,68,7637996389368
0.9325614 ,Left ,62,2060373887792 ,45,5092267654795 ,68,8339855703795
0.9555723 ,Left ,62,122991097492 ,45,6170262559214 ,68,8069243016388
0.9925427 ,Left ,62,0256841199106 ,45,7565133483673 ,68,7169297467851
1.0151378 ,Left ,62,0284684764683 ,45,7740933770328 ,68,6546708999125
1.0527894 ,Left ,62,000391920805 ,45,8021711729159 ,68,4688177022873
1.0753798 ,Left ,61,9968895087488 ,45,8004480023626 ,68,3688775847252
1.1123905 ,Left ,61,9935469237547 ,45,7907407298169 ,68,1859821033519
1.1357144 ,Left ,61,9628228453683 ,45,7687807688778 ,68,1102079983278
1.1725238 ,Left ,61,9153485407083 ,45,7049410286102 ,68,0143990025748
1.1953362 ,Left ,61,9234166530885 ,45,6903038154395 ,67,9822739424005
1.2333378 ,Left ,61,8698336218239 ,45,7154252859663 ,67,9685200884477
1.2550944 ,Left ,61,858423115866 ,45,7581870455122 ,67,9600768416705
1.2926605 ,Left ,61,8063334679943 ,45,8505105291305 ,67,9190648788825
1.3152108 ,Left ,61,7393896467883 ,45,8810689339161 ,67,8949096485073
1.3602172 ,Left ,61,7017718280891 ,45,9519176689656 ,67,8461957872697
1.4131187 ,Left ,61,5521548084983 ,46,1555903221593 ,67,8794958361534
1.4357842 ,Left ,61,5445242864144 ,46,2165747061283 ,67,8721071475359
1.4731226 ,Left ,61,4760042688783 ,46,2972706032728 ,67,8507905578303
1.4956802 ,Left ,61,4361647826993 ,46,3084269460986 ,67,8419608909003
1.5327232 ,Left ,61,3454245293601 ,46,3254247681092 ,67,805570021233
1.555245 ,Left ,61,2886420246827 ,46,3400329493658 ,67,7856265799439
1.5928557 ,Left ,61,1946451448313 ,46,3470681446299 ,67,7665594185916
1.6154952 ,Left ,61,1987759756407 ,46,3190359190211 ,67,7486987137016
1.6455809 ,Left ,61,1721677016634 ,46,2335293550818 ,67,7424715121312
1.6676934 ,Left ,61,1800692229024 ,46,2785800981087 ,67,7089871376029
1.6904142 ,Left ,61,2196577140966 ,46,3008027030187 ,67,6975002780098
1.7053836 ,Left ,61,3163778284802 ,46,2662573904488 ,67,6651901265918
1.7276809 ,Left ,61,3676314211035 ,46,2034364747074 ,67,6192000423664
1.75032 ,Left ,61,3812070474031 ,46,1568685940273 ,67,5356234857965
1.7650501 ,Left ,61,409959453713 ,46,1335082581426 ,67,4384995088924
1.7881236 ,Left ,61,4404140208727 ,46,1053970652375 ,67,3599934541714
1.8108929 ,Left ,61,4883795447257 ,46,0925143035382 ,67,2883959876453
1.8257122 ,Left ,61,4996681157962 ,46,0991730350035 ,67,2186853764501
1.8481636 ,Left ,61,4683258537903 ,46,1278807513907 ,67,1489519701804
1.8707293 ,Left ,61,4282254488177 ,46,1652192996273 ,67,0889382010655
1.892968 ,Left ,61,39440554591 ,46,2019686167776 ,67,0467130879952
1.9154412 ,Left ,61,3641244070178 ,46,2547479445361 ,67,0224450738289
1.9455996 ,Left ,61,3016072972696 ,46,3654921185847 ,66,9931877542012
1.9681645 ,Left ,61,2779649901806 ,46,4246737135647 ,66,9717933620401
1.9909406 ,Left ,61,2628990769063 ,46,4918350672007 ,66,9415475720453
2.0055635 ,Left ,61,2406083900084 ,46,5679520528368 ,66,8932754164922
2.02763 ,Left ,61,19559468768 ,46,6304652084015 ,66,8388034567849
2.0503721 ,Left ,61,1314088753094 ,46,6876178421362 ,66,7952159781831
2.0653655 ,Left ,61,0580406500125 ,46,7059765320011 ,66,7731499308653
2.0877652 ,Left ,61,0219815428107 ,46,6603103133605 ,66,7428852545725
2.1101447 ,Left ,61,0015496377712 ,46,5949059840614 ,66,7505428361262
2.125293 ,Left ,60,9815726610199 ,46,5604080486744 ,66,7896556964898
2.1474255 ,Left ,60,9714383164213 ,46,5768357666513 ,66,8203065875148
2.1778636 ,Left ,61,0156914262884 ,46,5758319772328 ,66,8714785798062
2.1928366 ,Left ,61,091638406128 ,46,5245959777801 ,66,9280447485506
2.2153281 ,Left ,61,1383866934166 ,46,4228810195671 ,66,9961867383479
2.2305357 ,Left ,61,189565644069 ,46,348987383363 ,67,0332163221534
2.2528624 ,Left ,61,2576215694207 ,46,2852097352205 ,67,0779402304949
2.2680786 ,Left ,61,3451503682624 ,46,20326086557 ,67,1417796529695
2.2905954 ,Left ,61,4102803658367 ,46,1374162641774 ,67,2110548570152
2.3128493 ,Left ,61,4299947251876 ,46,076381344138 ,67,252003673081
2.328102 ,Left ,61,4302819454419 ,46,0072958537883 ,67,2733093789779
2.3505575 ,Left ,61,4789082878344 ,45,9970976473467 ,67,312977604022
2.3728785 ,Left ,61,5379587943193 ,46,0332295719439 ,67,3884543034103
2.3880748 ,Left ,61,6485990159492 ,46,0258882402507 ,67,4917572290253
2.4106563 ,Left ,61,7708423582667 ,45,9833248811514 ,67,5557599274054
2.4329784 ,Left ,61,8663124214886 ,45,9081815404111 ,67,616526153695
2.4477699 ,Left ,61,9319663577346 ,45,8227840274253 ,67,6887349588908
2.4705737 ,Left ,61,9605845198138 ,45,7253548046947 ,67,7660525063732
2.4927929 ,Left ,61,9877113299439 ,45,6279829030342 ,67,8330943252756
2.5082488 ,Left ,62,0118313139488 ,45,5438960580913 ,67,8709636867688
2.531077 ,Left ,62,0396571116138 ,45,4605165063486 ,67,8915193413042
2.5528299 ,Left ,62,0682217321532 ,45,3871474676853 ,67,9102993460585
2.5680909 ,Left ,62,0856737402411 ,45,3241040055624 ,67,9412085458213
2.5905218 ,Left ,62,1028744167468 ,45,2689217222017 ,67,9934095881615
2.6130745 ,Left ,62,1185354587703 ,45,2415285092607 ,68,0489713188677
2.6278321 ,Left ,62,1331218987935 ,45,2262293502548 ,68,1004645102279
2.6503961 ,Left ,62,161095250585 ,45,2237951490257 ,68,1526048039227
2.6728485 ,Left ,62,181742683693 ,45,2255932244426 ,68,2104952790719
2.6880632 ,Left ,62,2056466239267 ,45,2347225215014 ,68,2579690576518
2.7105633 ,Left ,62,2288964218448 ,45,2573330947628 ,68,2941572613853
2.7328415 ,Left ,62,2323361590554 ,45,2825373390766 ,68,3239027543412
2.7479346 ,Left ,62,2291289833872 ,45,3081447999835 ,68,344600596833
2.7704331 ,Left ,62,2317221544307 ,45,3380925782035 ,68,3651430052014
2.7928973 ,Left ,62,2346816506673 ,45,3697669802339 ,68,380900610439
2.8081017 ,Left ,62,2487220372232 ,45,3987585310296 ,68,3920099188355
2.8305128 ,Left ,62,2698101675866 ,45,418643822065 ,68,4009048975937
2.8526768 ,Left ,62,2842332402601 ,45,4274471494016 ,68,4083265676912
2.8678496 ,Left ,62,2931732259436 ,45,4407176191878 ,68,4138010320343
2.8903558 ,Left ,62,2986515793924 ,45,4581307698322 ,68,4147747145651
2.9127005 ,Left ,62,3051845876715 ,45,4655286088824 ,68,4100612610647
2.927613 ,Left ,62,3096025206719 ,45,4584321747388 ,68,3976654372506
2.950351 ,Left ,62,3135005078198 ,45,4426191913412 ,68,3799414028719
2.9727717 ,Left ,62,3285696734753 ,45,4337580086967 ,68,3528619652819
2.9878747 ,Left ,62,3664663595136 ,45,4205022724695 ,68,3217145586211
3.0104347 ,Left ,62,4025621212107 ,45,3964507230945 ,68,2891377561103
3.0327283 ,Left ,62,4290311670214 ,45,3675817033901 ,68,2619891335489
3.0477472 ,Left ,62,4447984876991 ,45,343113180406 ,68,2346956004476
3.0703455 ,Left ,62,4677454210038 ,45,3296065776981 ,68,2070464245107
3.0927983 ,Left ,62,4916761119632 ,45,3247484672994 ,68,1689216882851
3.108244 ,Left ,62,5040165535302 ,45,3145825937229 ,68,1275230554065
3.1309691 ,Left ,62,5133334474685 ,45,2999265170192 ,68,084161370629
3.152965 ,Left ,62,5213980600582 ,45,2949324037813 ,68,0441881773861
3.1678876 ,Left ,62,5196576233723 ,45,2990600091685 ,68,0086695825124
3.1905554 ,Left ,62,5186509477674 ,45,3029021080276 ,67,9786193115438
3.2128519 ,Left ,62,5218414145318 ,45,3031998065498 ,67,9420086280431
3.2353376 ,Left ,62,5298891315453 ,45,3023000131694 ,67,9034423994749
3.2504336 ,Left ,62,5286761519105 ,45,3073568743433 ,67,865942755986
3.2728328 ,Left ,62,5311208447232 ,45,3241364642239 ,67,8271958923792
3.2953108 ,Left ,62,5311174988792 ,45,3423598356599 ,67,7973055380894
3.3104844 ,Left ,62,5241290943954 ,45,3595232284387 ,67,7655015765354
3.3327301 ,Left ,62,5028861200034 ,45,3778772436098 ,67,7402092844929
3.3551983 ,Left ,62,48365669133 ,45,4083489595268 ,67,7304336866476
3.3703729 ,Left ,62,4605856932341 ,45,4421969277012 ,67,7416869836445
3.3928745 ,Left ,62,4301247126593 ,45,4740031041834 ,67,7668438744772
3.4151747 ,Left ,62,3921695972438 ,45,5075446942412 ,67,8048406862983
3.4303562 ,Left ,62,3422988238162 ,45,5358668579605 ,67,8551494764857
3.4526942 ,Left ,62,2894261636147 ,45,5749898158667 ,67,9159986979261
3.4751486 ,Left ,62,2426310544244 ,45,6174530981311 ,67,9632756720744
3.490222 ,Left ,62,1798454061264 ,45,6512934878545 ,68,0056421203202
3.5127957 ,Left ,62,1125371147461 ,45,6860851488923 ,68,0476476381069
3.5359737 ,Left ,62,0550880557544 ,45,7152095255575 ,68,0891306233631
3.5509842 ,Left ,61,9800720254106 ,45,7241647497375 ,68,1342909731063
3.5732269 ,Left ,61,9082176718246 ,45,7299472820536 ,68,1741314291443
3.5956585 ,Left ,61,8362401300442 ,45,7348527208311 ,68,1956071804757
3.6105628 ,Left ,61,7625812414299 ,45,7288377516649 ,68,1952539540618
3.632906 ,Left ,61,7057575524332 ,45,7797784273378 ,68,1940348665461
3.655527 ,Left ,61,6573389135716 ,45,8138994079709 ,68,1963647646675
3.6709907 ,Left ,61,6820910115329 ,45,8453713479558 ,68,2010860080755
3.6932901 ,Left ,61,718617827743 ,45,8937115129721 ,68,1946950668206
3.7156023 ,Left ,61,7160601513248 ,45,9271780192119 ,68,1946497739018
3.730858 ,Left ,61,7164223118983 ,45,9326150340575 ,68,1499654803982
3.7528399 ,Left ,61,7166218835742 ,45,9362128061483 ,68,0895518394605
3.7754763 ,Left ,61,7415269011484 ,45,9403419672073 ,68,0217143739539
3.7905582 ,Left ,61,7627850650728 ,45,9291864374821 ,67,9564894148827
3.8127823 ,Left ,61,7563679335701 ,45,9169614652311 ,67,8981680177401
3.8355144 ,Left ,61,7442093624839 ,45,9121719823059 ,67,8413917989437
3.850175 ,Left ,61,7528523586625 ,45,9074526221828 ,67,8076790906204
3.8732239 ,Left ,61,7560072279084 ,45,8929245338443 ,67,798410346091
3.8957464 ,Left ,61,7364267397196 ,45,8859868504612 ,67,7989216744957
3.9107072 ,Left ,61,6860154815396 ,45,879315784765 ,67,7960744919172
3.9328603 ,Left ,61,6981423334772 ,45,8799844457109 ,67,7873885082803
3.9551907 ,Left ,61,6803922358835 ,45,8928444495268 ,67,8076463271686
3.9707155 ,Left ,61,6782997939217 ,45,9461601127003 ,67,8287655413397
3.993231 ,Left ,61,6291673439334 ,46,0361243114893 ,67,8231075197571
4.0231993 ,Left ,61,6174517113298 ,46,0753628937869 ,67,8242060985372
4.0379303 ,Left ,61,5800644703328 ,46,0947838733529 ,67,7978335513468
4.0603046 ,Left ,61,5091723623489 ,46,1094429333211 ,67,7710160594677
4.0752972 ,Left ,61,4772060454995 ,46,1228760313484 ,67,7333509614285
4.0901446 ,Left ,61,4666235222265 ,46,0985555123142 ,67,6788997756898
4.1128224 ,Left ,61,4014354841627 ,46,1002912100862 ,67,6519496270801
4.1351827 ,Left ,61,3254755365784 ,46,1533937408845 ,67,6647267426174
4.1508997 ,Left ,61,2720796573251 ,46,2388035382462 ,67,6845684887625
4.1732385 ,Left ,61,2698465027707 ,46,3128409142072 ,67,6993585191387
4.1957869 ,Left ,61,2540184316272 ,46,364264235399 ,67,6882847772824
4.2182471 ,Left ,61,2380987868572 ,46,3951315421019 ,67,6779379565161
4.232733 ,Left ,61,2230056115862 ,46,405337838955 ,67,6669564259567
4.2553787 ,Left ,61,1950275547943 ,46,4080656229819 ,67,6517880554208
4.2777771 ,Left ,61,1728771750125 ,46,4055718096548 ,67,6280417416265
4.2928876 ,Left ,61,1557983832307 ,46,4002497844484 ,67,612319775824
4.3153104 ,Left ,61,1463230659588 ,46,3865590781791 ,67,6018848899769
4.338093 ,Left ,61,14792317725 ,46,372952320318 ,67,5979869079467
4.3529752 ,Left ,61,141308503776 ,46,3640695689691 ,67,5846440184976
4.3752766 ,Left ,61,1264341604605 ,46,3622840660526 ,67,572482318063
4.3980028 ,Left ,61,1329562633621 ,46,3495125739094 ,67,5642621126538
4.4128456 ,Left ,61,1451110768098 ,46,3358312133302 ,67,5664123525573
4.4355132 ,Left ,61,1451110768098 ,46,3358312133302 ,67,5664123525573
4.4579041 ,Left ,61,1417159087092 ,46,3220694976709 ,67,5643150716207
4.472945 ,Left ,61,1254580454405 ,46,301989451754 ,67,5690703046208
4.4954484 ,Left ,61,1115045056794 ,46,3024003429343 ,67,5776203907199
4.5175975 ,Left ,61,1026533885781 ,46,3264043724106 ,67,5738184789989
4.5327405 ,Left ,61,101750095413 ,46,3241834933572 ,67,553156040271
4.5551736 ,Left ,61,1165386977423 ,46,302547054361 ,67,5758288700677
4.5778202 ,Left ,61,0752592886573 ,46,3439498295696 ,67,6186286920772
4.592803 ,Left ,61,0207480663449 ,46,4237479360452 ,67,6490463333074
4.6156934 ,Left ,61,0376520012803 ,46,5005754546467 ,67,661389219845
4.6383287 ,Left ,61,1008298625529 ,46,5357032546394 ,67,6391109177173
4.6533696 ,Left ,61,1015759327294 ,46,5483192272916 ,67,580586691577
4.6758453 ,Left ,61,0940016483166 ,46,5468241170622 ,67,5039933134724
4.6979912 ,Left ,61,1088856564488 ,46,5505781656461 ,67,4172365523199
4.712765 ,Left ,61,122346485938 ,46,5684542464221 ,67,3368606215646
4.7352831 ,Left ,61,118146770359 ,46,5948894809572 ,67,2748577866868
4.7578371 ,Left ,61,0951991107023 ,46,6206703304041 ,67,2255983436525
4.7728458 ,Left ,61,0708104515396 ,46,6463776688838 ,67,1883306669625
4.795386 ,Left ,61,0616102185934 ,46,6766102283301 ,67,1518605203322
4.8179001 ,Left ,61,0538337962707 ,46,7050906853527 ,67,112866700751
4.8327359 ,Left ,61,0534700728426 ,46,7214156962286 ,67,0731386558717
4.8551539 ,Left ,61,0506072375513 ,46,7256403697442 ,67,0271526494989
4.8777525 ,Left ,61,0419222681726 ,46,7273734175603 ,66,9848143946742
4.8926725 ,Left ,61,0334472405146 ,46,7347262291333 ,66,93918123005
4.9152979 ,Left ,61,0175810425265 ,46,7389273971793 ,66,8846997542595
4.9377894 ,Left ,61,0253076398014 ,46,7559657657544 ,66,8442782530878
4.9527141 ,Left ,60,9950987804373 ,46,7831737875282 ,66,7924219387257
4.9754197 ,Left ,60,9743885465847 ,46,7885400752315 ,66,7307461560388
4.9983638 ,Left ,60,9459040110613 ,46,7640416781928 ,66,6834394087672
5.0132607 ,Left ,60,9446719807869 ,46,7008974646073 ,66,6786448394726
5.0355584 ,Left ,60,9244902184302 ,46,6257309529659 ,66,7198546968516
5.0578605 ,Left ,60,9312258143035 ,46,6254761106289 ,66,7622247365279
5.0729819 ,Left ,60,9235455914255 ,46,6819013416619 ,66,8126437675704
5.0955436 ,Left ,61,0061236894648 ,46,6820693305026 ,66,8685590606078
5.118009 ,Left ,61,0980393676029 ,46,6418950926013 ,66,9030563812549
5.1402843 ,Left ,61,1281983515465 ,46,5448507864371 ,66,9554678828255
5.1554461 ,Left ,61,1771720455907 ,46,4780965223473 ,66,9572660786019
5.1778567 ,Left ,61,2140528229494 ,46,4142000683347 ,66,9617929352497
5.2004009 ,Left ,61,262424569046 ,46,3281690130481 ,66,9872481636419
5.2153912 ,Left ,61,2917358648346 ,46,2448236917642 ,67,0244885069764
5.2379727 ,Left ,61,2805386218788 ,46,1466964299773 ,67,0428822203592
5.2603189 ,Left ,61,3113214683658 ,46,0601958344501 ,67,0894321539999
5.275497 ,Left ,61,3468960401145 ,46,056607215282 ,67,1394933288818
5.2976435 ,Left ,61,4006142310069 ,46,1229836783023 ,67,1979884943581
5.3200978 ,Left ,61,4948656612458 ,46,1704560141814 ,67,2629835584531
5.3351093 ,Left ,61,5623053605423 ,46,1675035155026 ,67,2971673122062
5.3578085 ,Left ,61,6187020858573 ,46,1088829508126 ,67,3377430290319
5.3801587 ,Left ,61,6717279081979 ,46,0440592590787 ,67,3763224618053
5.3876821 ,Left ,61,701169292127 ,45,9833689663451 ,67,4108344626465
5.4101383 ,Left ,61,7214632855037 ,45,9218114933816 ,67,4341534038451
5.448366 ,Left ,61,8147078660009 ,45,8066048290823 ,67,4559423709551
5.470977 ,Left ,61,8548610121273 ,45,7611013961199 ,67,4791501795271
5.5078957 ,Left ,61,8838755664245 ,45,7358453176362 ,67,5762460528408
5.5307131 ,Left ,61,9155140310446 ,45,7282203801679 ,67,6258274740765
5.5679147 ,Left ,61,9796444675157 ,45,6957709197609 ,67,7253655571635
5.5905902 ,Left ,61,9993179814139 ,45,6795433181911 ,67,7789547538645
5.627637 ,Left ,62,0215822372055 ,45,6562301606219 ,67,8692914586471
5.6502143 ,Left ,62,035564601646 ,45,6340100866147 ,67,9025997808494
5.6875856 ,Left ,62,0807957769744 ,45,5408894707923 ,67,9661879504344
5.7110146 ,Left ,62,1054023962522 ,45,4838620598183 ,67,9840958692454
5.7481469 ,Left ,62,1538507138861 ,45,3893203107472 ,67,9930797584153
5.770916 ,Left ,62,1878902647175 ,45,3415762615106 ,67,9945382272398
5.8081968 ,Left ,62,2713919264776 ,45,2598583739905 ,67,9879793417063
5.830604 ,Left ,62,3068720581154 ,45,2256933915068 ,67,9706696208349
5.8680155 ,Left ,62,3206233207843 ,45,1813996013532 ,67,9080981256201
5.8905452 ,Left ,62,3424924928687 ,45,1696003539037 ,67,8621505113198
5.9275496 ,Left ,62,3779351777769 ,45,1614452110116 ,67,7511440771225
5.9501979 ,Left ,62,375430840691 ,45,1712425325694 ,67,699314397285
5.9880037 ,Left ,62,3809785212767 ,45,185191085921 ,67,5958038361396
6.0109307 ,Left ,62,3697700424657 ,45,1807859011705 ,67,5433518913379
6.0559268 ,Left ,62,3481905453738 ,45,19679360627 ,67,4664963910859
6.0783771 ,Left ,62,3390291306321 ,45,1941612764652 ,67,4438476203236
6.108067 ,Left ,62,3271896724019 ,45,1787121858524 ,67,4377392794667
6.1309555 ,Left ,62,332634283046 ,45,1689494817865 ,67,4453462618689
6.1675466 ,Left ,62,3704938208239 ,45,1245023966995 ,67,4529634096229
6.1902156 ,Left ,62,3893838199042 ,45,0940576552505 ,67,455007632021
6.2275213 ,Left ,62,4242443763219 ,45,0514805625203 ,67,4260621720225
6.2503299 ,Left ,62,4377941482798 ,45,0441627283804 ,67,3939594006559
6.2875371 ,Left ,62,4629844160814 ,45,0504278395803 ,67,3233908452166
6.3109989 ,Left ,62,4664160647424 ,45,0605188355535 ,67,2987347065002
6.348195 ,Left ,62,4329575015413 ,45,0915683147892 ,67,3082479668159
6.3706787 ,Left ,62,4025625681067 ,45,1135112638029 ,67,3438047920959
6.4078814 ,Left ,62,3232668173287 ,45,1799402499604 ,67,4735409331317
6.430587 ,Left ,62,2766311038404 ,45,2124672921982 ,67,5651897273377
6.4678759 ,Left ,62,1800810992459 ,45,2815011739868 ,67,7693092173086
6.4905754 ,Left ,62,1393602142101 ,45,3286258493287 ,67,8578157269771
6.5277969 ,Left ,62,0057274021664 ,45,3803495847719 ,68,0390342145202
6.5505501 ,Left ,61,9417374021469 ,45,4195263095852 ,68,121742360321
6.5880752 ,Left ,61,8317334622996 ,45,480005408167 ,68,2246799160256
6.6102872 ,Left ,61,756725921313 ,45,4914614181493 ,68,2611052170605
6.6479568 ,Left ,61,65864786134 ,45,4968269455345 ,68,3017381070551
6.670278 ,Left ,61,6010270735025 ,45,5653634870192 ,68,3158604206732
6.7075304 ,Left ,61,5442811688727 ,45,8523136111963 ,68,3495306254943
6.7301557 ,Left ,61,5399776350804 ,45,9711130484845 ,68,3233437394942
6.7675756 ,Left ,61,5525654755433 ,46,0804403093374 ,68,193639773609
6.7900867 ,Left ,61,5189415134379 ,46,10869351869 ,68,1112740109296
6.8281311 ,Left ,61,5070448742642 ,46,1269546370184 ,67,9418630312248
6.8501201 ,Left ,61,4903782413809 ,46,121961452595 ,67,8514142143034
6.8878147 ,Left ,61,4529791207819 ,46,0911654321284 ,67,7536602103132
6.9103432 ,Left ,61,4699267936382 ,46,0823958463116 ,67,7227215198097
6.9480568 ,Left ,61,4953628654717 ,46,0534370980835 ,67,6962824900296
6.9707337 ,Left ,61,4852727238122 ,46,0373767238657 ,67,6925607872143
7.0077464 ,Left ,61,4412577337068 ,45,9738926191328 ,67,7013178944081
7.0301118 ,Left ,61,4344828989281 ,45,9635496139995 ,67,6926061000103
7.0603836 ,Left ,61,4442605766988 ,45,9043498703301 ,67,6901928956641
7.0900998 ,Left ,61,4066225134623 ,45,933580433392 ,67,7412516647407
7.128446 ,Left ,61,3626654962427 ,46,029081410735 ,67,8438654284325
7.1508852 ,Left ,61,3381736195672 ,46,0464834901113 ,67,8695619454686
7.1886918 ,Left ,61,29145688363 ,46,0723182053211 ,67,8844676121816
7.2030035 ,Left ,61,3261446594362 ,46,0486715302125 ,67,8432558515356
7.2255477 ,Left ,61,3095996969558 ,46,02365803916 ,67,8311255144396
7.2404631 ,Left ,61,2785315066805 ,46,0424014157237 ,67,8361641809112
7.2629197 ,Left ,61,2659557895604 ,46,1125920406914 ,67,8253209408998
7.2853037 ,Left ,61,3039543126053 ,46,1702954562152 ,67,8115518325208
7.3006236 ,Left ,61,3325488982668 ,46,1956287956939 ,67,7721340114894
7.3229326 ,Left ,61,33792215236 ,46,188187718508 ,67,7295303776195
7.3454209 ,Left ,61,3282365284548 ,46,172226032586 ,67,678526301376
7.3604705 ,Left ,61,3228932418144 ,46,1673423397096 ,67,5881455252071
7.3827963 ,Left ,61,3543914563336 ,46,1512515564 ,67,5056732764041
7.4126521 ,Left ,61,3792975565491 ,46,1221254301343 ,67,4492421819435
7.4275669 ,Left ,61,3912350322939 ,46,0910596874182 ,67,4256642542769
7.4501103 ,Left ,61,4127015589429 ,46,0777705138118 ,67,4367371977635
7.4653798 ,Left ,61,4298415547512 ,46,0837182510037 ,67,4729061729916
7.4802482 ,Left ,61,4631052650284 ,46,0955009359233 ,67,5282758222232
7.5026729 ,Left ,61,4814276192208 ,46,1033780683129 ,67,6037560163489
7.5252742 ,Left ,61,4616461142375 ,46,1093524956233 ,67,689380489488
7.5402946 ,Left ,61,4493989938796 ,46,1126422677442 ,67,7650398046563
7.5628203 ,Left ,61,441336189198 ,46,1107207798485 ,67,8143794592082
7.5850591 ,Left ,61,4369389064781 ,46,1228889832049 ,67,8250459926287
7.6001409 ,Left ,61,3989275229114 ,46,1473914144313 ,67,8056510234086
7.6227443 ,Left ,61,3555262088044 ,46,1756467673997 ,67,7708286429267
7.6451029 ,Left ,61,3274710009305 ,46,1915895497721 ,67,7499550758276
7.660475 ,Left ,61,3070080399294 ,46,1972355634926 ,67,7439329169131
7.683176 ,Left ,61,2986647440035 ,46,2155925108616 ,67,7489261678984
7.7058311 ,Left ,61,2896305258566 ,46,2598470526817 ,67,7487380074277
7.7208745 ,Left ,61,2662961838338 ,46,3113730350522 ,67,74138733565
7.7428623 ,Left ,61,2594379656923 ,46,3486259700359 ,67,7496518565361
7.7653769 ,Left ,61,2573894245987 ,46,3732364305561 ,67,7569791217633
7.7809232 ,Left ,61,239063236698 ,46,3801343248522 ,67,7616712088449
7.8030717 ,Left ,61,2156862629301 ,46,3680757632121 ,67,7527270392991
7.8257138 ,Left ,61,1884545098862 ,46,3331390426828 ,67,7414525771561
7.8478992 ,Left ,61,1624249501884 ,46,3214182557718 ,67,7298182077433
7.863154 ,Left ,61,1392940090635 ,46,3262480898094 ,67,6986182687869
7.8855923 ,Left ,61,1397485961956 ,46,3094038727433 ,67,6809114167993
7.9004669 ,Left ,61,1661711195932 ,46,2825557652168 ,67,6985666835159
7.9230748 ,Left ,61,1482603230241 ,46,3379794899074 ,67,7180574634217
7.945723 ,Left ,61,1240879653605 ,46,4014346822667 ,67,7244993052145
7.9681616 ,Left ,61,17512612291 ,46,4469060793234 ,67,7140620189034
7.983069 ,Left ,61,203667620687 ,46,4860403984066 ,67,6740408262307
8.0055998 ,Left ,61,1934974306248 ,46,5045890144095 ,67,6232152206373
8.0283004 ,Left ,61,1839468793157 ,46,5272643732433 ,67,5563540407468
8.0431875 ,Left ,61,1816444909704 ,46,5412420418504 ,67,4878562398001
8.0655206 ,Left ,61,1836058457497 ,46,5577360231588 ,67,4231058228843
8.0877458 ,Left ,61,1648648532894 ,46,5781238012054 ,67,3747708948357
8.1029247 ,Left ,61,15216714077 ,46,5984421737803 ,67,3347811205432
8.1255257 ,Left ,61,1403493303894 ,46,6192253449995 ,67,3022973869114
8.1477656 ,Left ,61,1356270093813 ,46,6508404531732 ,67,2743292471992
8.1628738 ,Left ,61,143550547393 ,46,6854093944124 ,67,2361448853394
8.1854358 ,Left ,61,1348604603084 ,46,7105846820536 ,67,1881516612312
8.2080446 ,Left ,61,1176473757684 ,46,7294587886883 ,67,1398579370712
8.2228673 ,Left ,61,083211927016 ,46,7324956538965 ,67,10470695441
8.2528839 ,Left ,61,0734367239232 ,46,7327587333794 ,67,0616183254897
8.2755212 ,Left ,61,0663270054902 ,46,7309091636722 ,67,0083981256331
8.2903111 ,Left ,61,0546756612048 ,46,7296333341877 ,66,9549418989736
8.3053336 ,Left ,61,0387379714068 ,46,7304311994787 ,66,8967295160062
8.3276874 ,Left ,61,0110535425224 ,46,725024763076 ,66,8304062329052
8.3426354 ,Left ,60,9918912031488 ,46,7068180222037 ,66,7710606845164
8.3651572 ,Left ,60,9814142239234 ,46,697690171276 ,66,718324317165
8.3884329 ,Left ,60,9695642416699 ,46,7034845999457 ,66,6697220877883
8.403445 ,Left ,60,9319342159905 ,46,7256406120127 ,66,6138784440958
8.4258558 ,Left ,60,9391097623756 ,46,705568081769 ,66,5546477373758
8.4484666 ,Left ,60,9220416343583 ,46,680864674952 ,66,543014272703
8.4629985 ,Left ,60,904864075208 ,46,6536845444406 ,66,5939578570292
8.4853189 ,Left ,60,8891301524391 ,46,6870802191817 ,66,6439348275334
8.5077601 ,Left ,60,934847892616 ,46,709050319002 ,66,7068650847392
8.5225907 ,Left ,61,0319385857596 ,46,7041747785787 ,66,7430261295088
8.5526111 ,Left ,61,0517035629013 ,46,6322397484242 ,66,7966989726237
8.5756733 ,Left ,61,0752046443929 ,46,5480676361501 ,66,8571316246539
8.59096 ,Left ,61,103919637599 ,46,492773315976 ,66,8851140453988
8.6058598 ,Left ,61,1414004605799 ,46,446338217747 ,66,9243170432932
8.6282463 ,Left ,61,1636298004011 ,46,3899412409421 ,66,9685406165541
8.6425226 ,Left ,61,1805920853586 ,46,3142439468002 ,67,0166317527275
8.6653044 ,Left ,61,2061211103581 ,46,1854124152911 ,67,0272926412462
8.6878166 ,Left ,61,2398620823803 ,46,0761756744919 ,67,0573747970849
8.7099123 ,Left ,61,264691273643 ,46,0701356338234 ,67,0904552224901
8.7251728 ,Left ,61,3009657792147 ,46,1291097260513 ,67,1467895670019
8.7477123 ,Left ,61,4188044212709 ,46,1614595151228 ,67,186757953245
8.7700474 ,Left ,61,5147647324082 ,46,1499237082867 ,67,2061540207901
8.785192 ,Left ,61,5890682817007 ,46,102406741651 ,67,2392934886784
8.8076232 ,Left ,61,6504122038575 ,46,0450186374469 ,67,2706777394339
8.8374992 ,Left ,61,7007738431092 ,45,9873978527717 ,67,2955833044665
8.8525923 ,Left ,61,7465024240043 ,45,9359201488783 ,67,3097596489368
8.8825455 ,Left ,61,8595137522837 ,45,8373653550087 ,67,3056924405173
8.9054144 ,Left ,61,8901858918805 ,45,8036892998217 ,67,3210313305149
8.9279577 ,Left ,61,91560377338 ,45,7803237404614 ,67,3517228699497
8.9500958 ,Left ,61,9297465687038 ,45,7670465396001 ,67,387228282565
8.9651122 ,Left ,61,9269087380326 ,45,7597275763602 ,67,4228066358866
8.9884338 ,Left ,61,9742889660274 ,45,7799866987218 ,67,4472112492
9.0105251 ,Left ,61,9988871098742 ,45,7928774426251 ,67,4666166686029
9.025186 ,Left ,62,0220572808315 ,45,792925844235 ,67,4874535184256
9.0485194 ,Left ,62,0185851377552 ,45,8046129307211 ,67,5088448621356
9.0706297 ,Left ,62,0080758333864 ,45,8184370495267 ,67,5249861149538
9.0859593 ,Left ,62,0183283512746 ,45,8266836589525 ,67,5287797580885
9.1084642 ,Left ,62,0303145028409 ,45,8295863918528 ,67,530954218877
9.130552 ,Left ,62,0332126506042 ,45,8382808501195 ,67,5341623758259
9.145499 ,Left ,62,0327860926861 ,45,8468348563183 ,67,5317916292839
9.1676551 ,Left ,62,0260042277467 ,45,8506611153225 ,67,521866122525
9.1903082 ,Left ,62,0305890307601 ,45,8468893505683 ,67,5135650137038
9.2051973 ,Left ,62,0348843107529 ,45,8447868673621 ,67,5137258969857
9.2276426 ,Left ,62,0333270225873 ,45,8430805243407 ,67,5125910091518
9.2509763 ,Left ,62,04673169271 ,45,8257005796583 ,67,516182973357
9.2657066 ,Left ,62,0501948665517 ,45,7956238638737 ,67,5195772840035
9.2881989 ,Left ,62,0490551228901 ,45,7621804432803 ,67,5214290441548
9.3105933 ,Left ,62,0535576600625 ,45,7336142873794 ,67,5255265827347
9.3254422 ,Left ,62,059550969642 ,45,6946480566729 ,67,528893957603
9.3480691 ,Left ,62,0664749792855 ,45,648454851425 ,67,5348752855098
9.3703903 ,Left ,62,080927300358 ,45,6005886419654 ,67,5417773400904
9.385511 ,Left ,62,0820646780073 ,45,5607136264204 ,67,5567595157704
9.4080521 ,Left ,62,0712272503794 ,45,5238718448832 ,67,5799233062313
9.4309118 ,Left ,62,0686047305512 ,45,4826830566598 ,67,6101407874258
9.4457429 ,Left ,62,0754669401893 ,45,4437022775522 ,67,6471423907983
9.4684847 ,Left ,62,0890992450282 ,45,4069429375037 ,67,6858139034449
9.4903957 ,Left ,62,0939329849151 ,45,3711644507253 ,67,7342425319508
9.5053302 ,Left ,62,1002649802083 ,45,3407900749099 ,67,7900078655182
9.5277981 ,Left ,62,1046830137966 ,45,3069532406559 ,67,849576273865
9.5504842 ,Left ,62,1106595941427 ,45,2751478422356 ,67,9127278139997
9.5655374 ,Left ,62,1138576710394 ,45,2471347154401 ,67,9770189846142
9.5883808 ,Left ,62,1245873945437 ,45,2210295202948 ,68,0484661214361
9.610949 ,Left ,62,1313214615829 ,45,1987570534809 ,68,1151679333551
9.6259557 ,Left ,62,1317827759354 ,45,1744180146976 ,68,1809541024292
9.6478096 ,Left ,62,1332506560925 ,45,1619133671946 ,68,24007611683
9.6703862 ,Left ,62,138772801828 ,45,1561727805003 ,68,2991771534113
9.685456 ,Left ,62,1620004599322 ,45,1584600700051 ,68,3525357665298
9.708055 ,Left ,62,1829642328525 ,45,1588324299233 ,68,3970811661876
9.7303571 ,Left ,62,1943589063767 ,45,1531249307497 ,68,4336535088221
9.7451753 ,Left ,62,2064155415031 ,45,1508715841316 ,68,4605628892938
9.7679676 ,Left ,62,2226714179723 ,45,1571761778845 ,68,4750911315726
9.790089 ,Left ,62,2448391180319 ,45,1670081235399 ,68,4780564695029
9.80516 ,Left ,62,2625338380306 ,45,1750375069405 ,68,4722676491186
9.8277548 ,Left ,62,2707148857901 ,45,1870954797239 ,68,4559389981061
9.850194 ,Left ,62,2654858061496 ,45,1959620058979 ,68,4342042299748
9.8726051 ,Left ,62,2638362549395 ,45,2102735578116 ,68,4122123428685
9.8879915 ,Left ,62,2556266578538 ,45,2275573073657 ,68,3876483148263
9.9104937 ,Left ,62,2526155958749 ,45,2385970535771 ,68,3699004226902
9.9328935 ,Left ,62,249335331463 ,45,2482424098809 ,68,3593772486354
9.9477891 ,Left ,62,2463517214933 ,45,2566751474021 ,68,3565177346465
9.9703908 ,Left ,62,2325308416009 ,45,2736219500229 ,68,3547711003731
9.9928044 ,Left ,62,2165310876224 ,45,2809283420338 ,68,3579935852791
10.0078602 ,Left ,62,2186973556568 ,45,2798182452113 ,68,3580653566917
10.0303844 ,Left ,62,2186973556568 ,45,2798182452113 ,68,3580653566917
10.0529185 ,Left ,62,2104228012233 ,45,2637037368717 ,68,3517363441263
10.0679831 ,Left ,62,2056433054762 ,45,249347599281 ,68,3389297737284
10.0904456 ,Left ,62,2065805775786 ,45,2330453949519 ,68,3206188862233
10.112921 ,Left ,62,2107609412962 ,45,2171323131002 ,68,3030240232875
10.1278073 ,Left ,62,206454107614 ,45,2115316546642 ,68,2954750222167
10.1503381 ,Left ,62,198455318082 ,45,2153574055444 ,68,2982880155069
10.1728418 ,Left ,62,1928164610774 ,45,2209968730708 ,68,3100185385398
10.1875779 ,Left ,62,1879448961382 ,45,226775357144 ,68,3295849845072
10.2103933 ,Left ,62,1769627526354 ,45,2335421845362 ,68,3568741224023
10.2326794 ,Left ,62,1642576000092 ,45,2498371603657 ,68,3869511490251
10.2479366 ,Left ,62,1513046845292 ,45,2747822770122 ,68,4144120403583
10.2703578 ,Left ,62,1289371565731 ,45,2978031692388 ,68,4424000355181
10.2925719 ,Left ,62,0986149497456 ,45,3239692151812 ,68,4684165229453
10.3076159 ,Left ,62,061126721028 ,45,3533619618267 ,68,486344553677
10.3300917 ,Left ,62,026716582818 ,45,380582989038 ,68,4984841035898
10.3527975 ,Left ,61,9929728426283 ,45,4038781838822 ,68,509860642077
10.3678498 ,Left ,61,9621436690423 ,45,4216298263902 ,68,5116295514922
10.390528 ,Left ,61,9215547448835 ,45,4312532638787 ,68,5152070981412
10.4128294 ,Left ,61,881589428689 ,45,4483728229345 ,68,5103135557605
10.42797 ,Left ,61,846514239948 ,45,4765062446446 ,68,4860355465379
10.4501427 ,Left ,61,8088662963462 ,45,4890189884056 ,68,4565818404424
10.4727723 ,Left ,61,7995133359184 ,45,5143003230066 ,68,4424214601844
10.487658 ,Left ,61,7680010816715 ,45,5733381065681 ,68,4362456433771
10.5102216 ,Left ,61,7414028085408 ,45,6962758010686 ,68,4030910656978
10.532727 ,Left ,61,6911750892232 ,45,8117428255149 ,68,3623989857908
10.5479224 ,Left ,61,6894863986443 ,45,8475141898603 ,68,3138833498207
10.5704624 ,Left ,61,6994100229632 ,45,8530738789272 ,68,2393268363
10.5925731 ,Left ,61,7160592575738 ,45,851931694196 ,68,1480641143306
10.615063 ,Left ,61,7283094174257 ,45,8438282674961 ,68,0566186993485
10.6302956 ,Left ,61,7400590218523 ,45,8286164973242 ,67,9687366549959
10.6526916 ,Left ,61,7491394916187 ,45,8187166497955 ,67,8768201907844
10.6755278 ,Left ,61,7604758267022 ,45,8164101843571 ,67,7898797647949
10.690528 ,Left ,61,771069686621 ,45,8030638755765 ,67,7255931781371
10.7128705 ,Left ,61,7967579272632 ,45,7850418756859 ,67,6820891983275
10.7281353 ,Left ,61,8157314143041 ,45,7727083111925 ,67,6442732334859
10.7509286 ,Left ,61,8416524402141 ,45,7619627671879 ,67,6106478315049
10.773148 ,Left ,61,8507137695472 ,45,7611530197442 ,67,5831072812822
10.7880967 ,Left ,61,8517249909142 ,45,75821285862 ,67,5618153184373
10.8107796 ,Left ,61,8488734326177 ,45,765046661444 ,67,5458388255212
10.8331867 ,Left ,61,8306472282592 ,45,7739922416693 ,67,5415870778023
10.8555394 ,Left ,61,7990417300542 ,45,7748405198685 ,67,5488453709847
10.87076 ,Left ,61,7604670000722 ,45,7816216340995 ,67,5569384138904
10.8926738 ,Left ,61,7146366699218 ,45,7774977150908 ,67,5351275120635
10.9152781 ,Left ,61,7428129544518 ,45,801688459323 ,67,5000160336087
10.9301243 ,Left ,61,7049071274303 ,45,8172749198905 ,67,488227079848
10.9526179 ,Left ,61,6667171407863 ,45,9041628786192 ,67,4705078759574
10.9752364 ,Left ,61,6281410089743 ,45,9434594249478 ,67,461354524537
10.9905064 ,Left ,61,6131896811915 ,45,9579921063471 ,67,4337938857856
11.0053628 ,Left ,61,5641404169177 ,45,9547958764527 ,67,4197753122102
11.0429219 ,Left ,61,5298170275675 ,45,9172578914767 ,67,4196663691073
11.0653263 ,Left ,61,5687308703777 ,45,8677893822542 ,67,4110076934747
11.1028999 ,Left ,61,5723825979421 ,45,8000201805222 ,67,4080958379842
11.1253814 ,Left ,61,5843123063447 ,45,8498192023127 ,67,4400981352262
11.1627517 ,Left ,61,632658002102 ,45,9488365431918 ,67,4783196696985
11.1858698 ,Left ,61,6584860315524 ,45,9533817834118 ,67,5235841724193
11.2231542 ,Left ,61,6522060880366 ,45,9713598516093 ,67,5814964864569
11.2454833 ,Left ,61,6299564456808 ,45,9831242931228 ,67,5929026102754
11.2906379 ,Left ,61,6336009302319 ,45,9891649155495 ,67,6384379105041
11.3127781 ,Left ,61,6429389366352 ,45,9906283887951 ,67,6656571410107
11.3426861 ,Left ,61,6480915654996 ,45,9629896719025 ,67,723401856528
11.3652501 ,Left ,61,6728777084628 ,45,9381559755802 ,67,7543785603113
11.4025694 ,Left ,61,7459280064916 ,45,899850505361 ,67,8118525771266
11.4253239 ,Left ,61,7753829572439 ,45,8747453596622 ,67,8407125915122
11.462726 ,Left ,61,8298933171187 ,45,8310770520082 ,67,8693997641749
11.4853351 ,Left ,61,8533949767376 ,45,8169880678117 ,67,8596774298217
11.5226239 ,Left ,61,8858186742509 ,45,7961878243872 ,67,8443362181305
11.5453655 ,Left ,61,8922579097188 ,45,7825537209979 ,67,8380546237371
11.5826345 ,Left ,61,8905882134568 ,45,755572733074 ,67,8269097486637
11.6050522 ,Left ,61,9001301046025 ,45,746505808987 ,67,8225605431924
11.6425326 ,Left ,61,8985014428759 ,45,7274195091604 ,67,8187413130769
11.6654114 ,Left ,61,8762454991648 ,45,7202275299105 ,67,8190291384471
11.7028705 ,Left ,61,8517203945098 ,45,7205318311857 ,67,8059753251299
11.7255011 ,Left ,61,8427254137091 ,45,7155394393794 ,67,7982236381606
11.7630676 ,Left ,61,8233349754988 ,45,7064653829938 ,67,7880202900523
11.7856501 ,Left ,61,8154755101485 ,45,6988605564782 ,67,7797334535925
11.8229045 ,Left ,61,7985362274416 ,45,6869765602236 ,67,7611530159758
11.8456586 ,Left ,61,7927309157855 ,45,68240785353 ,67,7541535517973
11.882936 ,Left ,61,7793059920009 ,45,6737260468759 ,67,7498448646705
11.9052815 ,Left ,61,773357259748 ,45,6671863713001 ,67,7524506228862
11.9426556 ,Left ,61,7723391099939 ,45,642594126524 ,67,7599280208709
11.9649885 ,Left ,61,7660698595794 ,45,6310116662299 ,67,7635007866933
12.0025898 ,Left ,61,7564389219377 ,45,6064179898811 ,67,7624027765184
12.0254081 ,Left ,61,7523914679351 ,45,6003016946255 ,67,7599185519102
12.0626511 ,Left ,61,7485835952151 ,45,5893029115247 ,67,7588687758545
12.0851732 ,Left ,61,7423993308052 ,45,5876405296522 ,67,7600889162116
12.1228765 ,Left ,61,7356411937357 ,45,5887425843823 ,67,7623301030325
12.145326 ,Left ,61,7356411937357 ,45,5887425843823 ,67,7623301030325
12.1831428 ,Left ,61,7377814037558 ,45,5876691323092 ,67,7624008299442
12.2053029 ,Left ,61,7329256958959 ,45,5891966408896 ,67,7595118417957
12.2427571 ,Left ,61,725911809952 ,45,5947210904153 ,67,758043462127
12.2654695 ,Left ,61,725911809952 ,45,5947210904153 ,67,758043462127
12.3025599 ,Left ,61,7274966501207 ,45,5934871265843 ,67,7576425112004
12.325195 ,Left ,61,7230798049634 ,45,5993064887409 ,67,7563915928025
12.362653 ,Left ,61,7110168370008 ,45,6005628808595 ,67,7555998092263
12.3851479 ,Left ,61,7110168370008 ,45,6005628808595 ,67,7555998092263
12.4226672 ,Left ,61,7131552302614 ,45,5994900250654 ,67,7556704209796
12.4453672 ,Left ,61,7131552302614 ,45,5994900250654 ,67,7556704209796
12.4826058 ,Left ,61,7131552302614 ,45,5994900250654 ,67,7556704209796
12.5051452 ,Left ,61,7225040951426 ,45,5986858628046 ,67,7536450755347
12.5427769 ,Left ,61,7246432667072 ,45,5976130943676 ,67,7537158159716
12.5652681 ,Left ,61,7236325343392 ,45,596082980183 ,67,753097741999
12.6026876 ,Left ,61,7252173604061 ,45,5948494161625 ,67,7526966004946
12.6254568 ,Left ,61,7276157948339 ,45,5927382291849 ,67,7602429860686
12.6626253 ,Left ,61,7374298523036 ,45,5837639945331 ,67,7816209910753
12.6852418 ,Left ,61,741301305175 ,45,5845422328069 ,67,7899415672028
12.7226152 ,Left ,61,7463423944687 ,45,5899311616434 ,67,8075399022395
12.7454069 ,Left ,61,7504396721786 ,45,5998748454159 ,67,8160767028599
12.7827119 ,Left ,61,7559290696997 ,45,620878192626 ,67,8463492351234
12.7982674 ,Left ,61,7612689069265 ,45,6354066260942 ,67,8642071499792
12.8209217 ,Left ,61,7611677649409 ,45,6481422848637 ,67,8886530311326
12.8357061 ,Left ,61,7701062323896 ,45,657912316837 ,67,9135701222079
12.8579223 ,Left ,61,7791585828619 ,45,6605995262212 ,67,935846509345
12.880421 ,Left ,61,7919425657184 ,45,6609357878543 ,67,9578293499313
12.8953432 ,Left ,61,8040426099219 ,45,6541078465633 ,67,9832286581262
12.9177903 ,Left ,61,811336533887 ,45,6492489450174 ,68,0080446260965
12.9401905 ,Left ,61,8249116269482 ,45,6418676825361 ,68,0304987718387
12.955321 ,Left ,61,8403809885122 ,45,6378258825536 ,68,0493097333817
12.9779431 ,Left ,61,8472711753714 ,45,6376886627287 ,68,0655189479156
13.0002263 ,Left ,61,8542825744972 ,45,647039174693 ,68,077040486108
13.0152199 ,Left ,61,8640957346535 ,45,6620176971059 ,68,0829361788957
13.0377528 ,Left ,61,8718442352734 ,45,6739604281748 ,68,0875751506009
13.0602991 ,Left ,61,8774693676408 ,45,6869838214214 ,68,0921515094583
13.0751799 ,Left ,61,8799947954142 ,45,6984175903739 ,68,0962954473747
13.0976173 ,Left ,61,8819752293724 ,45,7096708246292 ,68,0999885215001
13.1204004 ,Left ,61,8860051982184 ,45,7164751690266 ,68,0999502274461
13.1353277 ,Left ,61,888134402293 ,45,7153907200714 ,68,1000259348262
13.1578211 ,Left ,61,888134402293 ,45,7153907200714 ,68,1000259348262
13.1802541 ,Left ,61,8897136928279 ,45,7141260369118 ,68,0996460386292
13.1953033 ,Left ,61,8897136928279 ,45,7141260369118 ,68,0996460386292
13.2180419 ,Left ,61,8897136928279 ,45,7141260369118 ,68,0996460386292
13.2403262 ,Left ,61,8918432450377 ,45,7130415437852 ,68,0997217522609
13.2550825 ,Left ,61,8918432450377 ,45,7130415437852 ,68,0997217522609
13.277704 ,Left ,61,8941434840881 ,45,7041366354998 ,68,0997160424262
13.3004222 ,Left ,61,8996873702149 ,45,696062552937 ,68,1027637627475
13.3153973 ,Left ,61,9064047654012 ,45,6887477729464 ,68,1090603131688
13.3377618 ,Left ,61,9145835520097 ,45,6838738522931 ,68,1138500323221
13.3602947 ,Left ,61,9156242414952 ,45,6853865818694 ,68,1144922373687
13.3753232 ,Left ,61,917756455206 ,45,6843005615263 ,68,114567731059
13.3979192 ,Left ,61,917756455206 ,45,6843005615263 ,68,114567731059
13.4205266 ,Left ,61,9128201558737 ,45,6900031692686 ,68,1128327878408
13.4354543 ,Left ,61,9047740636543 ,45,69412494879 ,68,1106486766841
13.4578714 ,Left ,61,8994827610383 ,45,6977416913441 ,68,1113328743259
13.4802969 ,Left ,61,893880383396 ,45,7069705394704 ,68,1080144243891
13.5030252 ,Left ,61,890959832146 ,45,7152926807479 ,68,1052283130264
13.5178854 ,Left ,61,8874162391747 ,45,7230300176366 ,68,0996526996201
13.5403657 ,Left ,61,8844107142821 ,45,7279869579138 ,68,0930572227756
13.5553522 ,Left ,61,8820761245449 ,45,7294153938928 ,68,0880441776944
13.5775458 ,Left ,61,8820761245449 ,45,7294153938928 ,68,0880441776944
13.6001821 ,Left ,61,8842047096562 ,45,7283319256649 ,68,088120094076
13.6152232 ,Left ,61,8842047096562 ,45,7283319256649 ,68,088120094076
13.6378618 ,Left ,61,8863334808301 ,45,7272484371505 ,68,0881960088962
13.6605254 ,Left ,61,8946096267477 ,45,7289280201726 ,68,086838302326
13.6828146 ,Left ,61,8993590265398 ,45,7280941994457 ,68,0871781769627
13.6980799 ,Left ,61,9003995269142 ,45,7296078580344 ,68,0878220150304
13.7203727 ,Left ,61,9003995269142 ,45,7296078580344 ,68,0878220150304
13.7426644 ,Left ,61,8998497961692 ,45,729426831077 ,68,087366118696
13.7577212 ,Left ,61,8998497961692 ,45,729426831077 ,68,087366118696
13.7803177 ,Left ,61,9019793093989 ,45,7283434860459 ,68,0874423037251
13.8029174 ,Left ,61,9019793093989 ,45,7283434860459 ,68,0874423037251
13.817954 ,Left ,61,9019793093989 ,45,7283434860459 ,68,0874423037251
13.8403168 ,Left ,61,9030199065655 ,45,7298570151355 ,68,0880864196886
13.8627638 ,Left ,61,9030199065655 ,45,7298570151355 ,68,0880864196886
13.8777245 ,Left ,61,9030199065655 ,45,7298570151355 ,68,0880864196886
13.900396 ,Left ,61,9050167523223 ,45,7295236166199 ,68,0855601609715
13.9228992 ,Left ,61,9050167523223 ,45,7295236166199 ,68,0855601609715
13.9379411 ,Left ,61,9062388940578 ,45,7261767351324 ,68,0875946690663
13.9601113 ,Left ,61,902366766546 ,45,7231346854907 ,68,0937717265554
13.9826762 ,Left ,61,8937126688893 ,45,7147907955286 ,68,1080957437212
13.9976685 ,Left ,61,8851880107746 ,45,7057023496321 ,68,1250411109318
14.0201934 ,Left ,61,8884871502705 ,45,7037527669736 ,68,1404070340736
14.042835 ,Left ,61,8847793091547 ,45,7044792852095 ,68,1527591254463
14.0577636 ,Left ,61,8796316757934 ,45,7057260946151 ,68,1681022822172
14.080532 ,Left ,61,866386022937 ,45,7090858494541 ,68,1909766931911
14.1106253 ,Left ,61,8551485378944 ,45,7121168299821 ,68,2113276937048
14.1254062 ,Left ,61,8542217722524 ,45,7194195370539 ,68,2292520373756
14.1478913 ,Left ,61,849424168889 ,45,7278077706447 ,68,2546070310789
14.1628303 ,Left ,61,8442801527009 ,45,7414026605498 ,68,2736041205925
14.1780634 ,Left ,61,8408043751177 ,45,7628235109912 ,68,28516495978
14.200386 ,Left ,61,8366128239291 ,45,7864310730382 ,68,2815786241404
14.2229651 ,Left ,61,8328437908546 ,45,8068548863027 ,68,2746312473451
14.2379228 ,Left ,61,8327595984931 ,45,8249075480262 ,68,2674026812669
14.2605288 ,Left ,61,8177938079242 ,45,8347160109642 ,68,2636132259563
14.2829099 ,Left ,61,8134923326476 ,45,8426180284704 ,68,252596071799
14.2980494 ,Left ,61,8064312191225 ,45,8510192315692 ,68,2387064948626
14.3205637 ,Left ,61,806886810175 ,45,864174649395 ,68,2195612598913
14.3503175 ,Left ,61,8184137779056 ,45,8875532526265 ,68,1949824659192
14.3650418 ,Left ,61,8314048662072 ,45,9001043415875 ,68,1541440611127
14.3875721 ,Left ,61,8320524093593 ,45,9114648128262 ,68,105973516653
14.4026944 ,Left ,61,826645110052 ,45,9316316027797 ,68,0655295307003
14.4179667 ,Left ,61,821880625025 ,45,9584575176209 ,68,0195337122793
14.440272 ,Left ,61,8041775172406 ,45,9990600730134 ,67,9709663385867
14.462706 ,Left ,61,7818015732211 ,46,0321620891557 ,67,9197073275211
14.4777068 ,Left ,61,7700087959094 ,46,0684719960509 ,67,87373766251
14.5003612 ,Left ,61,7419612441349 ,46,102066951049 ,67,835053197643
14.5226354 ,Left ,61,7122179475339 ,46,1345776998616 ,67,7927580318055
14.5376092 ,Left ,61,6826242536656 ,46,1515765525894 ,67,75666742302
14.5604742 ,Left ,61,6599602164314 ,46,1671028952345 ,67,7233632221899
14.5830433 ,Left ,61,6311191341259 ,46,183090376072 ,67,7019332991191
14.6052901 ,Left ,61,6019152743678 ,46,1921152493093 ,67,6909124233493
14.6206103 ,Left ,61,5892587341257 ,46,2028187287334 ,67,6801421341542
14.6429287 ,Left ,61,5750558666641 ,46,2087429678824 ,67,6780442464957
14.665335 ,Left ,61,565612530618 ,46,2124753772168 ,67,6880665868029
14.6804494 ,Left ,61,5540365588508 ,46,2007069746235 ,67,7111067537897
14.7027157 ,Left ,61,5393933936531 ,46,1930362812875 ,67,7369429066081
14.7251908 ,Left ,61,5385256041968 ,46,1945404672415 ,67,7628874311613
14.7402428 ,Left ,61,5332251159054 ,46,2025370678274 ,67,7850398263658
14.7628179 ,Left ,61,5427580356406 ,46,2182523348859 ,67,8064490611201
14.7853149 ,Left ,61,5294315640849 ,46,2290459679709 ,67,8334357289621
14.8002669 ,Left ,61,5212322468115 ,46,2317530656094 ,67,856251514487
14.822973 ,Left ,61,5237080653599 ,46,2338213733725 ,67,8649813835611
14.8453479 ,Left ,61,5086215464311 ,46,2346269175482 ,67,8632874508737
14.8602636 ,Left ,61,5019827241025 ,46,2477319761451 ,67,8487564490474
14.8828467 ,Left ,61,4924931414369 ,46,2630483971627 ,67,839854391176
14.90534 ,Left ,61,4809310872562 ,46,2734300044424 ,67,8392007182731
14.9275778 ,Left ,61,4762510939026 ,46,2824269278589 ,67,8412712988771
14.9503061 ,Left ,61,4710665260868 ,46,294195447555 ,67,8443657149306
14.9726462 ,Left ,61,4730127874347 ,46,3061824467273 ,67,8455170539303
14.9877058 ,Left ,61,4756325663282 ,46,313538291817 ,67,8484844897364
15.0028776 ,Left ,61,4678400359201 ,46,3179496108857 ,67,8486142564516
15.0253242 ,Left ,61,4550082766248 ,46,3210878815017 ,67,8507675395809
15.0403183 ,Left ,61,445666322236 ,46,322631319726 ,67,8500631406245
15.0627808 ,Left ,61,4452776119305 ,46,3217372993039 ,67,8521703284042
15.085265 ,Left ,61,4526821169063 ,46,3205431015251 ,67,8553583172399
15.1002011 ,Left ,61,4590447921133 ,46,3178193794344 ,67,8579006568122
15.1226773 ,Left ,61,465921102737 ,46,3164326242849 ,67,8606331328919
15.1452486 ,Left ,61,465921102737 ,46,3164326242849 ,67,8606331328919
15.1605179 ,Left ,61,4767002152129 ,46,3173078317625 ,67,8598822683376
15.1829693 ,Left ,61,4767002152129 ,46,3173078317625 ,67,8598822683376
15.2053959 ,Left ,61,4777438937381 ,46,3188351537326 ,67,8605308523308
15.2205533 ,Left ,61,4777438937381 ,46,3188351537326 ,67,8605308523308
15.2429064 ,Left ,61,4859131870457 ,46,3205761149268 ,67,8592440049354
15.2653152 ,Left ,61,4879942449102 ,46,319520287189 ,67,8593264982493
15.2804184 ,Left ,61,483701606063 ,46,3170818431672 ,67,855647132237
15.3028853 ,Left ,61,4769405841555 ,46,31480071702 ,67,8539948076764
15.3253207 ,Left ,61,4769405841555 ,46,31480071702 ,67,8539948076764
15.3401274 ,Left ,61,479021707193 ,46,3137449208357 ,67,8540770442541
15.3627354 ,Left ,61,4811030051449 ,46,3126891081327 ,67,8541592790681
15.3854978 ,Left ,61,480571822189 ,46,3124996546473 ,67,8537009627668
15.4003875 ,Left ,61,4795287745655 ,46,3109721893247 ,67,8530526016114
15.423045 ,Left ,61,4903302105501 ,46,3099757910495 ,67,8618407068789
15.4530465 ,Left ,61,4965838952952 ,46,3101873045583 ,67,8725781821328
15.468043 ,Left ,61,5041645463459 ,46,3063919007584 ,67,8878879789279
15.4905568 ,Left ,61,5112287918729 ,46,3065058269067 ,67,9039681182207
15.5204349 ,Left ,61,532418159419 ,46,3045736864526 ,67,9414874958361
15.5427786 ,Left ,61,544613588988 ,46,302863506407 ,67,9654251907019
15.5652903 ,Left ,61,5573564608798 ,46,3013236369913 ,67,9898400798326
15.5876159 ,Left ,61,5628179705747 ,46,3014308696824 ,68,0133725748959
15.6026748 ,Left ,61,5721621569603 ,46,3008176913508 ,68,0319470153251
15.6252968 ,Left ,61,5901942129413 ,46,2927337425469 ,68,0475173678571
15.6475755 ,Left ,61,5998268969358 ,46,2867151161852 ,68,0519340575034
15.6627683 ,Left ,61,6030442569444 ,46,279375835543 ,68,0525401779972
15.6851327 ,Left ,61,6068886974958 ,46,2745695736906 ,68,0463273850298
15.7080354 ,Left ,61,6090388410683 ,46,2717396319246 ,68,0379096154757
15.7226566 ,Left ,61,610094171445 ,46,2732582384125 ,68,0385671603788
15.7452812 ,Left ,61,6231227542011 ,46,2794484851186 ,68,0319011694967
15.7676726 ,Left ,61,6231227542011 ,46,2794484851186 ,68,0319011694967
15.7826087 ,Left ,61,6252073180601 ,46,2783839659037 ,68,0319845349804
15.8053052 ,Left ,61,6236816024039 ,46,2837466153315 ,68,0335875075027
15.8279243 ,Left ,61,6225991757277 ,46,2982225885388 ,68,0355426945007
15.8429349 ,Left ,61,6243670704489 ,46,3145781313147 ,68,0331073246725
15.8655373 ,Left ,61,6278052678986 ,46,3248570004117 ,68,0316448013442
15.8880891 ,Left ,61,6324174813138 ,46,3318415156747 ,68,0321782566246
15.9028318 ,Left ,61,6286698158512 ,46,3389779117864 ,68,0311333681626
15.9253986 ,Left ,61,6297625844978 ,46,3445945228106 ,68,03304035952
15.9482177 ,Left ,61,6297625844978 ,46,3445945228106 ,68,03304035952
15.9629683 ,Left ,61,6297625844978 ,46,3445945228106 ,68,03304035952
15.9851443 ,Left ,61,6248047166313 ,46,3396789174567 ,68,0361015288155
16.0079697 ,Left ,61,6203393928178 ,46,3319829257651 ,68,0381375998535
16.0228971 ,Left ,61,6205638527394 ,46,3234792821236 ,68,0405580792481
16.0453834 ,Left ,61,6227228885171 ,46,3146240617584 ,68,0404944801607
16.068724 ,Left ,61,6177970826773 ,46,3138082739459 ,68,0448065011853
16.0831679 ,Left ,61,6198790203525 ,46,3127441774704 ,68,0448904508418
16.1052556 ,Left ,61,6291457133042 ,46,3159395841204 ,68,0443179127521
16.1279212 ,Left ,61,6470129107409 ,46,3206044991301 ,68,0406415846038
16.1427547 ,Left ,61,6592768093483 ,46,3249663883367 ,68,0382634316916
16.1653196 ,Left ,61,6679101206466 ,46,3305382391171 ,68,0364089576595
16.1880596 ,Left ,61,6679101206466 ,46,3305382391171 ,68,0364089576595
16.2028605 ,Left ,61,6598925510254 ,46,3275095468729 ,68,0314578371498
16.2252497 ,Left ,61,6609184949674 ,46,3249293572549 ,68,0308773228848
16.248181 ,Left ,61,6619762439402 ,46,326446762329 ,68,0315426988592
16.2628281 ,Left ,61,6628497581599 ,46,3144444820738 ,68,0354917684129
16.2851946 ,Left ,61,6653957894814 ,46,2963636943659 ,68,0404064099543
16.3077239 ,Left ,61,6767812727601 ,46,2723592938648 ,68,0443977364114
16.3301975 ,Left ,61,6823113355246 ,46,2513386470817 ,68,046261044571
16.3454357 ,Left ,61,6941120917507 ,46,238388839746 ,68,0410168197995
16.3677989 ,Left ,61,7142793284363 ,46,2222998192677 ,68,035863161273
16.3828763 ,Left ,61,7346029534878 ,46,2013905196933 ,68,0320380390431
16.4053246 ,Left ,61,762122505904 ,46,1724466557629 ,68,0238192346967
16.4279129 ,Left ,61,7810484215867 ,46,1338240592693 ,68,0162338688858
16.4428438 ,Left ,61,7885218879788 ,46,1008625132094 ,68,0093127109735
16.4652184 ,Left ,61,7977186630026 ,46,0801918586507 ,67,9987082399999
16.4879052 ,Left ,61,8127136187603 ,46,060228735295 ,67,9891296506453
16.5103292 ,Left ,61,8299551295659 ,46,0396015415847 ,67,9819557880182
16.5251909 ,Left ,61,8449928686235 ,46,0176474556264 ,67,9819817646074
16.5479025 ,Left ,61,8597625748946 ,45,9981252075741 ,67,9879506755399
16.5703572 ,Left ,61,8679051696447 ,45,9903487250658 ,67,9912395987282
16.5852889 ,Left ,61,8852688644232 ,45,9822341299568 ,68,0014611568569
16.6077949 ,Left ,61,9168424160381 ,45,9686785245011 ,68,0113018879729
16.6380236 ,Left ,61,9655607262508 ,45,9204814640614 ,68,0354674490679
16.6605382 ,Left ,61,9874824263513 ,45,9027100865988 ,68,0480759580412
16.6978721 ,Left ,62,0320734868241 ,45,8688204754611 ,68,0553098275338
16.7204115 ,Left ,62,0574925238199 ,45,8531142544568 ,68,0639576670513
16.7580401 ,Left ,62,1001338290903 ,45,8090982304571 ,68,1014934167016
16.7805861 ,Left ,62,1230281635114 ,45,7851458178304 ,68,1303581698483
16.8177209 ,Left ,62,1451808909647 ,45,7324182535407 ,68,1864402248906
16.84009 ,Left ,62,1598614361826 ,45,7132670304809 ,68,2105903523328
16.8784556 ,Left ,62,1570176366587 ,45,6797453038357 ,68,2486482163799
16.9006863 ,Left ,62,1547611682985 ,45,6680405283409 ,68,2632013688421
16.9377565 ,Left ,62,1423503952574 ,45,6619915946097 ,68,2778257780511
16.9605796 ,Left ,62,1456654969705 ,45,6586607193716 ,68,2796959719822
16.9975764 ,Left ,62,1480321706212 ,45,6571609492046 ,68,2847596043466
17.0202106 ,Left ,62,1501726367545 ,45,6560672495043 ,68,2848377193121
17.0575626 ,Left ,62,1604654082578 ,45,6561379305756 ,68,267405729064
17.0803377 ,Left ,62,1759594009854 ,45,6477523747541 ,68,2433268198104
17.1181076 ,Left ,62,2001288035837 ,45,6454434017254 ,68,1777821720218
17.1484135 ,Left ,62,2029486326432 ,45,6476075432792 ,68,1452902910942
17.185428 ,Left ,62,2157164799233 ,45,635291203789 ,68,1009730337944
17.2003731 ,Left ,62,2144700353934 ,45,6341904302488 ,68,0953531127164
17.2381811 ,Left ,62,2024993235048 ,45,6261330415902 ,68,1200745002632
17.2602651 ,Left ,62,2036002170588 ,45,6217745701942 ,68,1315635896982
17.2981463 ,Left ,62,213306016535 ,45,6100928205578 ,68,1418794302258
17.32035 ,Left ,62,2158766654522 ,45,5951049573369 ,68,1296150762552
17.357681 ,Left ,62,2163379708212 ,45,5694410920637 ,68,0668076366634
17.3801765 ,Left ,62,2256052627247 ,45,5657221486751 ,68,0143845360033
17.4177368 ,Left ,62,2364975084397 ,45,5704410229246 ,67,9081783823215
17.440428 ,Left ,62,2355576866167 ,45,5797875603707 ,67,8748798380032
17.477859 ,Left ,62,2237972694074 ,45,6248065002284 ,67,8570991906733
17.5002287 ,Left ,62,2029959190437 ,45,6545789861935 ,67,8800667942302
17.5382653 ,Left ,62,1253696717729 ,45,71503226683 ,67,9679437972979
17.5609395 ,Left ,62,0760853585831 ,45,7448933726866 ,68,0312064579798
17.5985308 ,Left ,61,9617193900723 ,45,8226330022461 ,68,1689563158501
17.6208401 ,Left ,61,891338535318 ,45,8593035371624 ,68,2339690449077
17.6579327 ,Left ,61,7609990462069 ,45,9161480631926 ,68,339015441904
17.680427 ,Left ,61,6933287319179 ,45,9594511754082 ,68,3880890787341
17.7184861 ,Left ,61,5910884430394 ,45,9964060271537 ,68,4637969751646
17.7407763 ,Left ,61,5680860000411 ,45,9949081636334 ,68,4710188041166
17.7781147 ,Left ,61,5241162991796 ,46,1016083530882 ,68,4129088833745
17.8004918 ,Left ,61,5373096062034 ,46,1713849227359 ,68,3563868205821
17.8380195 ,Left ,61,5694285540442 ,46,2353246250317 ,68,2186745358098
17.8604003 ,Left ,61,5840281566198 ,46,2545794226807 ,68,1419517684957
17.8981222 ,Left ,61,5927890035416 ,46,2738522861166 ,67,9600144919878
17.9203156 ,Left ,61,5714422490476 ,46,2660028224662 ,67,8682871345833
17.9575633 ,Left ,61,5061613546858 ,46,2434187130487 ,67,7340423508372
17.9800562 ,Left ,61,53228346879 ,46,2362509057081 ,67,69409832382
18.0176422 ,Left ,61,488832966301 ,46,2499661230809 ,67,6879538176144
18.0401526 ,Left ,61,4630289029456 ,46,2684566563717 ,67,6959375353685
18.0777952 ,Left ,61,404369476466 ,46,3009336984911 ,67,6584862304293
18.1001178 ,Left ,61,3524040323092 ,46,3045030136814 ,67,6282006251717
18.1377561 ,Left ,61,3690733029397 ,46,3000330537677 ,67,5759948755767
18.1601232 ,Left ,61,3105742584736 ,46,3946051187061 ,67,5884569355496
18.1977089 ,Left ,61,2379725056941 ,46,5954703637153 ,67,6468024274137
18.2201666 ,Left ,61,2221464090228 ,46,6546795142618 ,67,6606131202886
18.2580159 ,Left ,61,1773204341152 ,46,7199656252505 ,67,674920495427
18.2802479 ,Left ,61,1770051418155 ,46,7451828796769 ,67,690409846998
18.3176709 ,Left ,61,1631480578056 ,46,7564120885896 ,67,7070227534739
18.3401334 ,Left ,61,1459245871459 ,46,7424779899097 ,67,7156047099699
18.377677 ,Left ,61,1444177902355 ,46,7318423117055 ,67,7146122095776
18.4006923 ,Left ,61,155058229254 ,46,7267785385265 ,67,704308783945
18.4383944 ,Left ,61,166009274271 ,46,7153151569378 ,67,6647885547745
18.452938 ,Left ,61,163424581777 ,46,7189887197576 ,67,6479223048026
18.4755905 ,Left ,61,1499133491962 ,46,7260104339351 ,67,6281809696983
18.490596 ,Left ,61,143416592787 ,46,7481117069764 ,67,609408722102
18.5130792 ,Left ,61,1266971229373 ,46,7783199039587 ,67,5917127456463
18.5355529 ,Left ,61,1224540739339 ,46,7939852654798 ,67,5835169687132
18.5505973 ,Left ,61,1127617273555 ,46,8022968286626 ,67,5850312946569
18.5730309 ,Left ,61,0920146422174 ,46,8146031061364 ,67,5811267946469
18.5954918 ,Left ,61,0473672491974 ,46,8023108662858 ,67,5817280609996
18.6106562 ,Left ,61,0438150653758 ,46,7885806220653 ,67,5794597543664
18.6330041 ,Left ,60,9982370765274 ,46,7796451620838 ,67,5561444046352
18.6553864 ,Left ,60,9905013236972 ,46,7498294724683 ,67,5138270696787
18.6705435 ,Left ,61,0444234251442 ,46,6630667549907 ,67,5186548071497
18.6929747 ,Left ,61,016603081841 ,46,6482692071444 ,67,5459169963455
18.715355 ,Left ,60,9799186818307 ,46,71630495141 ,67,5518855860998
18.7305895 ,Left ,61,001260846102 ,46,7931918091288 ,67,557919550527
18.7530493 ,Left ,61,0433285057507 ,46,8534303865743 ,67,5491985200782
18.7829128 ,Left ,61,0546121586553 ,46,8700042008155 ,67,5209067175029
18.7979827 ,Left ,61,0518166336686 ,46,8770021848947 ,67,4854063171466
18.8204343 ,Left ,61,0650325032488 ,46,8942787133221 ,67,4479360769237
18.8501297 ,Left ,61,0701964550328 ,46,9339819151622 ,67,3837828313632
18.8726457 ,Left ,61,0483813930981 ,46,9594311671884 ,67,3491600175182
18.8954135 ,Left ,61,0332893564917 ,46,989438686624 ,67,3091870629053
18.910304 ,Left ,61,0271859963436 ,47,0195018784962 ,67,2760755040573
18.9328368 ,Left ,61,0175159691257 ,47,0570285392264 ,67,24424995858
18.9551861 ,Left ,61,0208213714291 ,47,0894261301038 ,67,2004268398816
18.9701317 ,Left ,61,013692864678 ,47,1057455539537 ,67,1478834261688
18.9928473 ,Left ,60,9990722309192 ,47,1214401274915 ,67,0968066296458
19.015198 ,Left ,60,984687743374 ,47,12140107059 ,67,0605803657034
19.0305128 ,Left ,60,9839972681328 ,47,1293401107482 ,67,018736800996
19.0528178 ,Left ,60,9809812819698 ,47,1384003804142 ,66,9721680559236
19.0754588 ,Left ,60,9677724686955 ,47,1512097864494 ,66,9255012519483
19.0975776 ,Left ,60,9506638670838 ,47,1519425740477 ,66,8842268197378
19.1200941 ,Left ,60,9354786958034 ,47,1618440685025 ,66,8537332861316
19.1577748 ,Left ,60,8974856079926 ,47,1735749604254 ,66,769523070463
19.1804408 ,Left ,60,8440529106349 ,47,1391101348212 ,66,7259913955114
19.1951916 ,Left ,60,8277815013296 ,47,0542407108611 ,66,7025313528634
19.2102776 ,Left ,60,8151036217526 ,46,9655054241954 ,66,7450497211811
19.2327843 ,Left ,60,797077325695 ,46,985829529929 ,66,7904081589792
19.2550682 ,Left ,60,7946073687442 ,47,0115491303142 ,66,8544126002175
19.2702417 ,Left ,60,8893780338659 ,46,9849987243549 ,66,8938893064608
19.2926763 ,Left ,60,9209130432169 ,46,8759636492319 ,66,9353247585703
19.3154899 ,Left ,60,9394360790911 ,46,7442207079697 ,66,9758936193351
19.3377647 ,Left ,60,9652550908229 ,46,6884556585408 ,66,9815944364295
19.3526871 ,Left ,60,9513955375178 ,46,6213539956429 ,66,999208907057
19.3751968 ,Left ,60,9894463091062 ,46,5330600698232 ,67,0137003916582
19.3976075 ,Left ,61,0149451529753 ,46,3969680298491 ,67,0247332579277
19.4126918 ,Left ,61,0282107427917 ,46,2708304263921 ,67,0526883057933
19.4354056 ,Left ,61,0551163980566 ,46,2222229590361 ,67,1004705035045
19.457543 ,Left ,61,1062935789287 ,46,2470437900547 ,67,1727152990306
19.4729025 ,Left ,61,2437074422468 ,46,2828119765193 ,67,238203643054
19.4953847 ,Left ,61,3576622734961 ,46,2785418225092 ,67,2742367057677
19.5179794 ,Left ,61,4588663361935 ,46,2354727039581 ,67,3247296379173
19.5329786 ,Left ,61,5549270058992 ,46,1773785540557 ,67,3825302790126
19.5555938 ,Left ,61,6532572674133 ,46,1064581771521 ,67,4545442637854
19.5781972 ,Left ,61,735165980307 ,46,0199006356809 ,67,5250949781531
19.5930481 ,Left ,61,7883176492909 ,45,931460628249 ,67,5718508010296
19.6154495 ,Left ,61,8302390564258 ,45,8580463679912 ,67,5785987862848
19.6454798 ,Left ,61,8662014887255 ,45,7984179398506 ,67,5736569605736
19.6605663 ,Left ,61,8954120534947 ,45,750678141492 ,67,5796700902486
19.6826107 ,Left ,61,9054033590428 ,45,7114310043234 ,67,5989607885056
19.7127805 ,Left ,61,9220045205085 ,45,6724513355183 ,67,6294445933857
19.7353706 ,Left ,61,9198557443062 ,45,6735145612437 ,67,6293694690464
19.7579946 ,Left ,61,9396244138059 ,45,6897059673494 ,67,6291186614511
19.7727891 ,Left ,61,9306931701496 ,45,6952063530985 ,67,6350238722007
19.7952223 ,Left ,61,9444566009276 ,45,7155021673308 ,67,632470941231
19.8179823 ,Left ,61,9117756421769 ,45,7305133532645 ,67,6261493043442
19.8329799 ,Left ,61,8867543613201 ,45,7406027094299 ,67,6240505915468
19.8559139 ,Left ,61,8790057325639 ,45,7496180595598 ,67,6210442740477
19.8782738 ,Left ,61,85570076945 ,45,7482445836139 ,67,6256927481208
19.8930846 ,Left ,61,8555798664953 ,45,7523655288395 ,67,6268937443159
19.9155672 ,Left ,61,8515767036007 ,45,7624568698523 ,67,6273464995546
19.9452873 ,Left ,61,8430669767993 ,45,7829083180556 ,67,6300522339227
19.9603993 ,Left ,61,8217329897264 ,45,7981822186123 ,67,6326155893124
19.9828735 ,Left ,61,7989544516144 ,45,8042546569954 ,67,6290863813385
19.9979767 ,Left ,61,7843370481678 ,45,8146212394721 ,67,6234150086961
20.0129093 ,Left ,61,7695095227518 ,45,8332222503227 ,67,6201413381253
20.035943 ,Left ,61,7661921702443 ,45,8504386108965 ,67,6172708586888
20.0580861 ,Left ,61,7609646146484 ,45,8577824143264 ,67,6240323628008
20.0729594 ,Left ,61,7532059176672 ,45,8512600199687 ,67,6339084765128
20.0953932 ,Left ,61,7413152103435 ,45,8461193078274 ,67,6462202240879
20.1180458 ,Left ,61,7380321501013 ,45,8466399530524 ,67,6565489889809
20.1329659 ,Left ,61,735219122418 ,45,8485219457378 ,67,6670437139429
20.1553859 ,Left ,61,7297285482093 ,45,8372789358631 ,67,6781020599317
20.1781589 ,Left ,61,7289000002032 ,45,8158272604984 ,67,694074667001
20.1930491 ,Left ,61,7249334739207 ,45,8002212559458 ,67,7146399006722
20.2154985 ,Left ,61,721208353866 ,45,7908393792812 ,67,7339931887971
20.2377836 ,Left ,61,7203866830501 ,45,7727610305617 ,67,7538184162464
20.2526786 ,Left ,61,7306443946245 ,45,7416861942214 ,67,7811146462597
20.2751852 ,Left ,61,7321078452384 ,45,7059379535636 ,67,8216245555664
20.2978885 ,Left ,61,7359309741131 ,45,6753156108483 ,67,86105010045
20.3205463 ,Left ,61,7293709651974 ,45,6575834254092 ,67,8984294095759
20.3354354 ,Left ,61,7232727963947 ,45,6441460102595 ,67,9375130652745
20.3579451 ,Left ,61,7283655577063 ,45,6350405259329 ,67,9867386550398
20.3803995 ,Left ,61,739735992942 ,45,6252245359921 ,68,0494386859842
20.3953533 ,Left ,61,7554972284535 ,45,6210729942415 ,68,1197131146721
20.4180268 ,Left ,61,7621652127666 ,45,6099237377732 ,68,1921220096135
20.4404076 ,Left ,61,766391401808 ,45,5947499359979 ,68,2656288893454
20.4552217 ,Left ,61,7710979186047 ,45,5804277545686 ,68,337149017571
20.4785119 ,Left ,61,7768675972834 ,45,5703102979071 ,68,3970367815236
20.5012229 ,Left ,61,7794952722814 ,45,5654765865598 ,68,4453416279336
20.5157959 ,Left ,61,785411887703 ,45,5671517155429 ,68,4857666511477
20.5378285 ,Left ,61,7940656757599 ,45,5710427240256 ,68,5166601846969
20.5605057 ,Left ,61,8046462988711 ,45,5741543485993 ,68,5426421767065
20.5754204 ,Left ,61,8207876883368 ,45,5752255941796 ,68,5631594209186
20.598001 ,Left ,61,8334486728603 ,45,5799765861163 ,68,5767717538826
20.6205397 ,Left ,61,8500026901859 ,45,5867969912684 ,68,5727837333113
20.6355207 ,Left ,61,8593518240686 ,45,595627993357 ,68,5609788688516
20.6580915 ,Left ,61,8720285122758 ,45,6072910581424 ,68,5424435739495
20.6803182 ,Left ,61,8918946750563 ,45,6175138464852 ,68,5197774419368
20.6955516 ,Left ,61,8953197864906 ,45,6285793056499 ,68,4945897158157
20.7177394 ,Left ,61,8950425757165 ,45,6388493545795 ,68,4797804838162
20.7401832 ,Left ,61,8907537558218 ,45,6509526126785 ,68,469843249323
20.7552141 ,Left ,61,8898788179823 ,45,6589718736317 ,68,4644266002252
20.7776159 ,Left ,61,8903028021467 ,45,6681206741578 ,68,4646600045881
20.8004242 ,Left ,61,8829227840728 ,45,6729070588687 ,68,4652428445952
20.8153003 ,Left ,61,8633836841109 ,45,681320668914 ,68,4758695668429
20.8378619 ,Left ,61,8470115148375 ,45,6880955122619 ,68,4970268906605
20.8604166 ,Left ,61,8208476173257 ,45,6920232400422 ,68,5208647504199
20.8751367 ,Left ,61,7963835563108 ,45,7058829588941 ,68,5481958022017
20.8976175 ,Left ,61,7800137795499 ,45,7336119509195 ,68,5703600195445
20.9209619 ,Left ,61,7479251081462 ,45,7632729904649 ,68,580792302935
20.9358276 ,Left ,61,7223358588952 ,45,7940274000531 ,68,5741734641826
20.9585611 ,Left ,61,6896055483168 ,45,8319397320672 ,68,5607020388529
20.9809744 ,Left ,61,6482157828463 ,45,8573856840079 ,68,5397700018013
20.99599 ,Left ,61,5965644255318 ,45,8733441198467 ,68,5204012295029
21.0180136 ,Left ,61,5504368404414 ,45,8674220418108 ,68,4944821203388
21.0401929 ,Left ,61,5144857205851 ,45,8493685407865 ,68,4821953034954
21.0553003 ,Left ,61,4551646309177 ,45,8422296666364 ,68,5012500065263
21.0778446 ,Left ,61,4474083686304 ,45,9071863104237 ,68,5044683726849
21.1004236 ,Left ,61,4177584667311 ,46,057486653835 ,68,4839686147897
21.1225828 ,Left ,61,3843306104586 ,46,2458186230654 ,68,4442462311075
21.1376242 ,Left ,61,350301210785 ,46,40287337257 ,68,4312223109382
21.1602424 ,Left ,61,3598023392306 ,46,463945748237 ,68,4053608504312
21.1827507 ,Left ,61,3529340400616 ,46,487351692821 ,68,3400893910044
21.1978359 ,Left ,61,320400866458 ,46,5077194657638 ,68,2524052379335
21.2203781 ,Left ,61,3000633397219 ,46,5269365530466 ,68,1615781678955
21.2428735 ,Left ,61,3015547921183 ,46,5462116387012 ,68,0814908854749
21.2579663 ,Left ,61,3087988438908 ,46,564341303764 ,67,9941979365094
21.2802406 ,Left ,61,311153167915 ,46,5704876276184 ,67,9254913696552
21.3028628 ,Left ,61,3151286934361 ,46,5493688094538 ,67,8789850887653
21.3176297 ,Left ,61,329909641076 ,46,5161274853574 ,67,8374019322117
21.3401648 ,Left ,61,355050773471 ,46,5167205408052 ,67,7749645254393
21.3627108 ,Left ,61,3616878464685 ,46,5274417040336 ,67,7138998667416
21.3779762 ,Left ,61,3651181196274 ,46,5365562816134 ,67,6769799128364
21.4004386 ,Left ,61,3421137867091 ,46,5276836505422 ,67,6763470721582
21.4227803 ,Left ,61,3257829487347 ,46,518216398691 ,67,6937687165923
21.4379817 ,Left ,61,323950861486 ,46,5232067792692 ,67,7354766899948
21.4603416 ,Left ,61,3174007871385 ,46,5337783203367 ,67,7934383724549
21.4827929 ,Left ,61,3075526962591 ,46,5471241615637 ,67,8720066996973
21.4978256 ,Left ,61,3058930651874 ,46,5784415582079 ,67,9651697428326
21.5204802 ,Left ,61,3089569819811 ,46,6102868404672 ,68,0538196806545
21.5429393 ,Left ,61,3085620746781 ,46,6261351085503 ,68,1476289689546
21.5579313 ,Left ,61,3023400087719 ,46,6337168619954 ,68,2355890422186
21.5803361 ,Left ,61,2887011827831 ,46,6366201855092 ,68,3107405827475
21.6026145 ,Left ,61,2808542389023 ,46,639330571167 ,68,35141076151
21.6176747 ,Left ,61,2734570691099 ,46,6497677068966 ,68,361255127712
21.6403766 ,Left ,61,265017375252 ,46,6584793378549 ,68,350351369989
21.6630193 ,Left ,61,2690546962009 ,46,6613036188051 ,68,3133276075851
21.6780147 ,Left ,61,2655071449985 ,46,664975812541 ,68,2707219782131
21.7006213 ,Left ,61,2545910415315 ,46,6824365775279 ,68,2236971017018
21.7228112 ,Left ,61,2360065297696 ,46,7031934289486 ,68,1770734247661
21.7381827 ,Left ,61,2227349888842 ,46,7273596085699 ,68,1393834773416
21.7605977 ,Left ,61,2094906621862 ,46,7307905813497 ,68,1185102645137
21.7830382 ,Left ,61,2090226865875 ,46,7258045064564 ,68,1193972346348
21.7978653 ,Left ,61,1973473808248 ,46,7127913044224 ,68,1291032409523
21.8203882 ,Left ,61,1776454813372 ,46,6874402912465 ,68,1565434711084
21.8426683 ,Left ,61,1819270896774 ,46,656915298599 ,68,1983281333996
21.8576989 ,Left ,61,1975816477551 ,46,6321717075872 ,68,256669788191
21.8803022 ,Left ,61,2095742799102 ,46,6147388197572 ,68,3341103641282
21.902704 ,Left ,61,2226745572859 ,46,610413620722 ,68,4314769535379
21.918104 ,Left ,61,2493982954604 ,46,6193978422257 ,68,5274674064357
21.9407554 ,Left ,61,2795499451942 ,46,6260535983582 ,68,6185485390787
21.9629548 ,Left ,61,3038663984913 ,46,6282081299853 ,68,6916933707093
21.9779889 ,Left ,61,343472286931 ,46,6245084052625 ,68,7503589837028
22.0005182 ,Left ,61,3708070212838 ,46,6175839324408 ,68,7909588922726
22.0229488 ,Left ,61,39917334234 ,46,605820881747 ,68,807038341889
22.0379856 ,Left ,61,426318184876 ,46,5705479569063 ,68,7950178748875
22.0605351 ,Left ,61,4645335337717 ,46,5335582551655 ,68,7449550174213
22.0829361 ,Left ,61,4926816247939 ,46,4950199102817 ,68,6624554299192
22.0978657 ,Left ,61,4900123888492 ,46,4571685037073 ,68,5623253789719
22.1202915 ,Left ,61,4765563732074 ,46,4256203998851 ,68,4787284448258
22.1500384 ,Left ,61,4824417845161 ,46,4021747159774 ,68,4234058848727
22.1727018 ,Left ,61,5022161526517 ,46,3859428935558 ,68,3799029928983
22.1882414 ,Left ,61,5299795063297 ,46,3794482180463 ,68,3303667948071
22.2033997 ,Left ,61,532415504205 ,46,3717114240237 ,68,2716752681077
22.2257332 ,Left ,61,5114367195544 ,46,3510022762502 ,68,2088159956051
22.2409306 ,Left ,61,4738406925259 ,46,3419850240958 ,68,1420231133634
22.2559206 ,Left ,61,4397763786095 ,46,3586110136321 ,68,0741233956317
22.2930796 ,Left ,61,4032279627699 ,46,2865645917998 ,67,9730797200196
22.3150948 ,Left ,61,3827529824014 ,46,2789079996391 ,67,9455566477623
22.3526372 ,Left ,61,3645133423638 ,46,3336609453095 ,67,9806422312238
22.3753151 ,Left ,61,3219482459981 ,46,3382681300893 ,67,9843225093592
22.412776 ,Left ,61,257990643651 ,46,3737901621689 ,67,9492438878781
22.435322 ,Left ,61,3336349081018 ,46,4060287985084 ,67,9102992378711
22.47257 ,Left ,61,2164335678752 ,46,59014249987 ,67,9621853772894
22.4960004 ,Left ,61,1862290153364 ,46,682917389653 ,68,0122204934998
22.5331407 ,Left ,61,1721138966282 ,46,7503314136119 ,68,0513254014674
22.5555758 ,Left ,61,1500706161178 ,46,7772223242063 ,68,0487593432239
22.5925733 ,Left ,61,1715063667898 ,46,8180730446368 ,68,0391847825717
22.6153603 ,Left ,61,1561923307012 ,46,8113630354707 ,68,0323431525191
22.6526852 ,Left ,61,1309834144008 ,46,7741095049307 ,67,994895331291
22.6753241 ,Left ,61,1337922110257 ,46,7547983638151 ,67,9694815545169
22.71307 ,Left ,61,1563489166414 ,46,7360159021613 ,67,8857095801141
22.7357354 ,Left ,61,1533277249557 ,46,7142622292343 ,67,8460903578417
22.772973 ,Left ,61,1398749153647 ,46,6581117309531 ,67,7893864349301
22.7954307 ,Left ,61,1389533831343 ,46,6148683825558 ,67,7685149082353
22.840377 ,Left ,61,0892564155261 ,46,5155248281137 ,67,7494728385422
22.8627585 ,Left ,61,0561868585333 ,46,4549859961786 ,67,7302205690387
22.8926008 ,Left ,61,0361934056394 ,46,4674113177529 ,67,7316603720978
22.9152576 ,Left ,60,9917257764367 ,46,549783951175 ,67,7460235019282
22.9528391 ,Left ,61,0522081002105 ,46,5843636253945 ,67,8263822254604
22.9752297 ,Left ,61,119492294737 ,46,5292374572577 ,67,8433817991536
23.0128696 ,Left ,61,1978680603017 ,46,4733852204716 ,67,835543270761
23.0351527 ,Left ,61,256898384076 ,46,456295800622 ,67,8428540788906
23.0730741 ,Left ,61,3879826635907 ,46,4098897230276 ,67,8802955662042
23.0954038 ,Left ,61,4345771417425 ,46,3689503066137 ,67,9037250376974
23.132939 ,Left ,61,5216367580751 ,46,3126922758392 ,67,9353628704118
23.1556303 ,Left ,61,5700246793981 ,46,3076545816206 ,67,9398691361793
23.1925987 ,Left ,61,621000193517 ,46,3209183082406 ,67,9197516571743
23.2152113 ,Left ,61,6374484989118 ,46,3323732940367 ,67,8926807734025
23.2526245 ,Left ,61,6355556081996 ,46,3479209162833 ,67,8057746832502
23.2753396 ,Left ,61,624850917718 ,46,3582020457702 ,67,7542603046889
23.312542 ,Left ,61,5726613462339 ,46,3987727099542 ,67,6516765383933
23.3353917 ,Left ,61,5344709160349 ,46,4452298408378 ,67,5910114142746
23.3729141 ,Left ,61,4892544748104 ,46,5461204464944 ,67,4590549588543
23.3958299 ,Left ,61,4588940288388 ,46,6157959387855 ,67,3922611419325
23.4328333 ,Left ,61,3879896015984 ,46,7909525145658 ,67,2321774232301
23.4551735 ,Left ,61,34390620985 ,46,8680848470419 ,67,1640042388502
23.4926803 ,Left ,61,2456044856231 ,46,9849477721948 ,67,013200065511
23.5152432 ,Left ,61,1685173090816 ,47,0350286363298 ,66,9162932737881
23.5526116 ,Left ,61,0395980975624 ,47,0140062094227 ,66,7832339731316
23.5752954 ,Left ,61,0095516181653 ,46,917607480922 ,66,7987141896793
23.6127148 ,Left ,60,9838609485561 ,46,9156748818845 ,66,9010237376986
23.6354753 ,Left ,61,0114876268455 ,46,8919465414535 ,66,9803264418121
23.6728546 ,Left ,61,1117925104083 ,46,6897487837676 ,67,154482002833
23.6951428 ,Left ,61,1381635199707 ,46,6619833943818 ,67,198559355532
23.7327375 ,Left ,61,1789224247601 ,46,5634827775588 ,67,2695919158361
23.7552268 ,Left ,61,2368178680631 ,46,4614907653835 ,67,2670217530586
23.7925945 ,Left ,61,1906497567529 ,46,4767178417735 ,67,329194976261
23.8152086 ,Left ,61,2323245792992 ,46,5120477574254 ,67,384642850628
23.8532573 ,Left ,61,3915556098433 ,46,4332124005817 ,67,4666933563028
23.8757277 ,Left ,61,4633211233064 ,46,3286993585443 ,67,5256068169792
23.9129957 ,Left ,61,6040851702818 ,46,1716166594164 ,67,6595821970853
23.9354829 ,Left ,61,6659442823877 ,46,1034989483723 ,67,7064033223733
23.9727854 ,Left ,61,7868855678844 ,45,9888739799928 ,67,7529965325943
23.9955243 ,Left ,61,8322187793631 ,45,9486326568068 ,67,7761981778756
24.0102841 ,Left ,61,8643044796968 ,45,9233401943377 ,67,8029994874238
24.0326867 ,Left ,61,8688284479092 ,45,9090975495103 ,67,8270502028349
24.0552055 ,Left ,61,8873633670735 ,45,905006482545 ,67,8305574639308
24.0853754 ,Left ,61,9291364857585 ,45,8926472429747 ,67,8341333726924
24.1076714 ,Left ,61,9628419979015 ,45,8748201929468 ,67,8401056471507
24.1304577 ,Left ,61,9790235584306 ,45,8626181894461 ,67,8432077150248
24.1454665 ,Left ,61,9810850081774 ,45,8656562242448 ,67,8445235238641
24.1676868 ,Left ,61,9814971709266 ,45,8665900576825 ,67,8424055330333
24.1902158 ,Left ,61,9743463546572 ,45,8654461679955 ,67,833261205897
24.2052117 ,Left ,61,975111342295 ,45,8639561216704 ,67,825211153401
24.2276985 ,Left ,61,9805524761127 ,45,8657763436964 ,67,8187509351172
24.2503948 ,Left ,61,9795234143087 ,45,8642564897244 ,67,8180931564221
24.2653508 ,Left ,61,9799548228157 ,45,8454572644013 ,67,8276363734163
24.2880401 ,Left ,61,9690029774142 ,45,832328406649 ,67,8451260805224
24.3105558 ,Left ,61,9651892589258 ,45,8203471952756 ,67,8717836212449
24.3253244 ,Left ,61,9790154466368 ,45,804720031666 ,67,891721690573
24.3476753 ,Left ,61,9740378418997 ,45,7708870674472 ,67,9135072501967
24.37038 ,Left ,61,9666773325491 ,45,7397929106082 ,67,9438275597845
24.3852042 ,Left ,61,9635494607397 ,45,718519157208 ,67,9829605194928
24.4085246 ,Left ,61,9642655170418 ,45,7016042862745 ,68,0294993643318
24.4315137 ,Left ,61,9574415763858 ,45,6798525122579 ,68,0813883364399
24.4458633 ,Left ,61,9581953790485 ,45,6571344750738 ,68,138949950896
24.4686819 ,Left ,61,9753295225924 ,45,6348311136044 ,68,1989615061372
24.4909572 ,Left ,61,9995671332118 ,45,6244841929099 ,68,2584029822013
24.5060021 ,Left ,62,0371797112553 ,45,616067327821 ,68,309843769689
24.5278994 ,Left ,62,0677200685858 ,45,5942207281383 ,68,3484733786653
24.5503444 ,Left ,62,0932135435867 ,45,5661245919276 ,68,3767442938934
24.5653979 ,Left ,62,122465365518 ,45,5458983025598 ,68,3974085135382
24.5878109 ,Left ,62,1443733544435 ,45,5284459362509 ,68,4076406374971
24.6101916 ,Left ,62,1665495021843 ,45,5011667015107 ,68,4067587532522
24.6253134 ,Left ,62,1920110251723 ,45,4701687349665 ,68,4053710639923
24.6478081 ,Left ,62,2152394143961 ,45,4410396414108 ,68,4012754729887
24.671004 ,Left ,62,2299077629967 ,45,4326477704001 ,68,3924437059749
24.6857011 ,Left ,62,2367379879047 ,45,4447588899394 ,68,3843561397569
24.7085674 ,Left ,62,2459970194756 ,45,4545312058934 ,68,3700798201694
24.7310322 ,Left ,62,2492600452848 ,45,449668628216 ,68,355898460449
24.7460161 ,Left ,62,2562104051189 ,45,456881386001 ,68,3353224754426
24.7684829 ,Left ,62,24902697967 ,45,4726385711536 ,68,3240283182566
24.7905083 ,Left ,62,2450145595393 ,45,4961707164384 ,68,30468295773
24.8053815 ,Left ,62,2443685411779 ,45,5077956994826 ,68,2823820331225
24.8281193 ,Left ,62,2323055653763 ,45,4958717430653 ,68,2640279561719
24.8508232 ,Left ,62,2192932143053 ,45,4902134163854 ,68,2525038498813
24.8655076 ,Left ,62,1816565102625 ,45,4925338988344 ,68,2515194670179
24.8882998 ,Left ,62,1515621456551 ,45,5019943822634 ,68,2586287226803
24.9107545 ,Left ,62,1322850610561 ,45,5045868696482 ,68,2806347614964
24.9251173 ,Left ,62,1183035356115 ,45,5088556376342 ,68,3168356327856
24.9476786 ,Left ,62,0883932405535 ,45,5224191890473 ,68,3672583206926
24.9703762 ,Left ,62,0509554514267 ,45,5465730628691 ,68,4281832400686
24.9854215 ,Left ,62,0171510423631 ,45,5781527630599 ,68,4860360483128
25.0080237 ,Left ,61,991965072974 ,45,6102298610423 ,68,5428145352123
25.030478 ,Left ,61,9600733236912 ,45,6361825485846 ,68,5967577771864
25.0528321 ,Left ,61,9372590523943 ,45,6800233560331 ,68,6313482183932
25.0676428 ,Left ,61,897169238306 ,45,7304170612898 ,68,6443909164949
25.0904055 ,Left ,61,8468834690913 ,45,7796779161632 ,68,6403560905183
25.1127168 ,Left ,61,7932400634587 ,45,8169298622116 ,68,6293260885945
25.1279493 ,Left ,61,7474654132778 ,45,8543273484394 ,68,616776478538
25.1508018 ,Left ,61,6991824945097 ,45,8975600450205 ,68,5953470653755
25.1804337 ,Left ,61,6489597987514 ,45,9233019497023 ,68,5654402558046
25.1953713 ,Left ,61,6376280326416 ,45,9326513118767 ,68,5306917166369
25.2333834 ,Left ,61,591217479908 ,46,0542424553427 ,68,4224046953713
25.2483998 ,Left ,61,5723726175278 ,46,1448312940507 ,68,3783213756115
25.2710008 ,Left ,61,620919465329 ,46,1909871932254 ,68,3321802174833
25.2929698 ,Left ,61,6492165308588 ,46,2188385797817 ,68,259774332406
25.3082284 ,Left ,61,6674781478513 ,46,2330824206593 ,68,1743901324441
25.3304653 ,Left ,61,6755804639684 ,46,2389712464595 ,68,0902691396944
25.3528889 ,Left ,61,6790254975054 ,46,2424814341846 ,68,0226008837051
25.3680348 ,Left ,61,6783650695668 ,46,2297488579168 ,67,959527929879
25.3903287 ,Left ,61,6552844057713 ,46,2048225377997 ,67,8974636643639
25.4128423 ,Left ,61,6443924997793 ,46,1915882071396 ,67,8309491904069
25.4279385 ,Left ,61,6307415105957 ,46,18161754357 ,67,7699283885158
25.4504236 ,Left ,61,6170549865785 ,46,1733336583654 ,67,7174759576186
25.4728251 ,Left ,61,6086589447637 ,46,1595636656569 ,67,6739328604366
25.4878018 ,Left ,61,591741579953 ,46,1546709570792 ,67,6400628134631
25.5104927 ,Left ,61,5659058203615 ,46,1686756910319 ,67,590411688893
25.5328796 ,Left ,61,5219735234559 ,46,1694438208135 ,67,5303935422808
25.5478888 ,Left ,61,5658049724106 ,46,1649402844708 ,67,4756271520282
25.5704101 ,Left ,61,5191421542914 ,46,1444175856608 ,67,4815109393764
25.5927226 ,Left ,61,4555792495629 ,46,1817388871847 ,67,5063242711359
25.6076839 ,Left ,61,456354636891 ,46,2044845061011 ,67,5513407420962
25.6302849 ,Left ,61,4635649070718 ,46,2216883509406 ,67,5497953222873
25.6528897 ,Left ,61,4166837269011 ,46,2131592875759 ,67,5570729743493
25.6677957 ,Left ,61,3850594106548 ,46,2140552542693 ,67,541078876824
25.6904689 ,Left ,61,3698234970028 ,46,2235599482616 ,67,4917952306106
25.7128813 ,Left ,61,4296093474535 ,46,2385635013139 ,67,4303006744679
25.7278984 ,Left ,61,3501204065644 ,46,3141413641274 ,67,4497763399109
25.7504155 ,Left ,61,2421281455435 ,46,433339616113 ,67,5170395851923
25.7727316 ,Left ,61,2269054708911 ,46,5122513666739 ,67,5896618046337
25.7953225 ,Left ,61,2348825055121 ,46,568406661392 ,67,6304492007337
25.8103573 ,Left ,61,1892138023689 ,46,6112722024034 ,67,6655147930703
25.8329927 ,Left ,61,1661893464416 ,46,6557401864623 ,67,6913608788054
25.8552089 ,Left ,61,1711085044174 ,46,6999166783683 ,67,7205866279536
25.8702195 ,Left ,61,1714370817524 ,46,7265962340049 ,67,7541097212137
25.8929397 ,Left ,61,1547460837875 ,46,7149491599043 ,67,7960967151048
25.9077203 ,Left ,61,1565768060008 ,46,6795378225256 ,67,8383994941839
25.9303743 ,Left ,61,1650241762995 ,46,6511958492625 ,67,88111360008
25.9528774 ,Left ,61,1909879177353 ,46,6382161827814 ,67,9105249216223
25.9751804 ,Left ,61,2233742500405 ,46,6109463380469 ,67,9188353428272
25.9904151 ,Left ,61,2599490963049 ,46,5748371560771 ,67,9022702105499
26.0127274 ,Left ,61,3055535041444 ,46,5333096487233 ,67,8623984590939
26.0351559 ,Left ,61,3346192570143 ,46,4822169677956 ,67,8149619124505
26.0502228 ,Left ,61,3642555853632 ,46,4350418008709 ,67,7735974234416
26.0730127 ,Left ,61,3860003866734 ,46,3966434963728 ,67,7466518329646
26.0958614 ,Left ,61,422499114986 ,46,3626110749128 ,67,7152089777475
26.1104871 ,Left ,61,4722113083978 ,46,340194193422 ,67,6713840688877
26.1328179 ,Left ,61,5119031942087 ,46,3295226404482 ,67,6145654667931
26.1552897 ,Left ,61,5446392200521 ,46,3107790758669 ,67,5346577801801
26.1703292 ,Left ,61,5652948517978 ,46,2894180378032 ,67,454496671494
26.1929518 ,Left ,61,5766230046563 ,46,2713113632845 ,67,382161742301
26.2153158 ,Left ,61,5879753561393 ,46,246087415375 ,67,3249615971622
26.2303906 ,Left ,61,6022113182091 ,46,2204963861646 ,67,2706162269297
26.252838 ,Left ,61,6123136671887 ,46,2024891072491 ,67,20578979673
26.2752523 ,Left ,61,6054084617205 ,46,185979911917 ,67,1393665711896
26.290292 ,Left ,61,6073356150453 ,46,1689753250001 ,67,0840791788431
26.3127169 ,Left ,61,6135506728555 ,46,1425786459667 ,67,0486596678368
26.3353836 ,Left ,61,6190935152636 ,46,1144942863606 ,67,0354876246298
26.3504888 ,Left ,61,6222521848508 ,46,1056470062272 ,67,0405903916867
26.3730425 ,Left ,61,6081401750006 ,46,1089402691957 ,67,0574649658649
26.3955476 ,Left ,61,5974012539631 ,46,1237637162035 ,67,0660801275532
26.4106066 ,Left ,61,5838484619628 ,46,1417464336756 ,67,0553245613931
26.432931 ,Left ,61,5853554683945 ,46,1618622462318 ,67,0342957036921
26.4556376 ,Left ,61,5771928792781 ,46,1816653974169 ,67,0172510735607
26.4705877 ,Left ,61,5626879955564 ,46,1946465303276 ,67,002154359511
26.4930641 ,Left ,61,5562492988479 ,46,2026550775487 ,66,9894316481755
26.5156206 ,Left ,61,5430435000528 ,46,2128170282426 ,66,9785148538985
26.5304249 ,Left ,61,5288326275905 ,46,2248202971186 ,66,9706924483889
26.5531181 ,Left ,61,5181112441389 ,46,2416487876781 ,66,965282468124
26.5754687 ,Left ,61,5065974968452 ,46,2532924478883 ,66,9602233393621
26.5901644 ,Left ,61,5077395127722 ,46,2571640277842 ,66,953769701434
26.6128808 ,Left ,61,5077395127722 ,46,2571640277842 ,66,953769701434
26.6354576 ,Left ,61,5006808873771 ,46,2473651395796 ,66,9601145918227
26.6504378 ,Left ,61,4912312564264 ,46,2434256648397 ,66,965054368022
26.6731062 ,Left ,61,4838711040413 ,46,2418864960916 ,66,9738038771684
26.6953784 ,Left ,61,4897882549344 ,46,2452904259243 ,66,985721602955
26.7110288 ,Left ,61,4981681522679 ,46,2438393560717 ,67,0034405687633
26.7335552 ,Left ,61,5069884986642 ,46,2373176858707 ,67,0272331525631
26.7557801 ,Left ,61,5169304990765 ,46,231613273184 ,67,0542203625748
26.7706281 ,Left ,61,5286165665369 ,46,2270181336003 ,67,0737088030521
26.792992 ,Left ,61,5427938320907 ,46,2217754599042 ,67,0890449919799
26.8155012 ,Left ,61,5452329043197 ,46,2228540642795 ,67,0867451885657
26.830604 ,Left ,61,5599592534072 ,46,2135122825869 ,67,0832426713423
26.8603907 ,Left ,61,5681806980903 ,46,2074633961426 ,67,0747585425539
26.8828108 ,Left ,61,5715986380682 ,46,2027970062283 ,67,0634235284613
26.8981286 ,Left ,61,5896362363607 ,46,19292740832 ,67,0497879258886
26.9203916 ,Left ,61,5964851069322 ,46,1844470859447 ,67,042707093073
26.935378 ,Left ,61,5889442905504 ,46,1831269980883 ,67,0467377067969
26.958041 ,Left ,61,5722089931542 ,46,1842323629166 ,67,0726698218072
26.9727295 ,Left ,61,5572538437359 ,46,1954889263041 ,67,1319916327139
26.9952314 ,Left ,61,5625579743335 ,46,2187475627069 ,67,2178178589652
27.0177636 ,Left ,61,5654743403955 ,46,2412726480427 ,67,3261273496596
27.0327521 ,Left ,61,561108052006 ,46,2583886194382 ,67,4441313220002
27.0554465 ,Left ,61,5436457412149 ,46,2837867162613 ,67,5537088660915
27.0776812 ,Left ,61,5084005250938 ,46,3213876791649 ,67,6446070618239
27.092867 ,Left ,61,4892642210835 ,46,3668485350337 ,67,7223416195495
27.1154003 ,Left ,61,4710036157835 ,46,4114338379877 ,67,7896586434377
27.1377968 ,Left ,61,4415615396003 ,46,4381055316479 ,67,850117792466
27.1530977 ,Left ,61,421080219367 ,46,4578989495644 ,67,8919619976493
27.1757088 ,Left ,61,4054961170951 ,46,480420880746 ,67,9020116212267
27.1981395 ,Left ,61,3811676158956 ,46,5028844971796 ,67,8853567159614
27.2132444 ,Left ,61,3659417243017 ,46,525165763669 ,67,8576395398812
27.2356049 ,Left ,61,3430785603911 ,46,5369411362879 ,67,8205377780442
27.2582488 ,Left ,61,342168112944 ,46,5577308026027 ,67,7740006537647
27.2730168 ,Left ,61,3334313418634 ,46,5805670232124 ,67,7169815134098
27.2956362 ,Left ,61,3133712643713 ,46,5958301519586 ,67,6662722674728
27.3180931 ,Left ,61,3060702964004 ,46,6080301153803 ,67,6313619469602
27.3332056 ,Left ,61,2949953547461 ,46,6191073139647 ,67,6108302261062
27.3557207 ,Left ,61,3045719257653 ,46,6344588642567 ,67,5942923155454
27.3782862 ,Left ,61,2998407925562 ,46,6511018774147 ,67,5787600819087
27.3930609 ,Left ,61,286853044027 ,46,6666030859292 ,67,5619442136675
27.4153761 ,Left ,61,2502243916199 ,46,6531264291867 ,67,5531437291612
27.4379272 ,Left ,61,2392607406647 ,46,6523518751778 ,67,5490547280524
27.453013 ,Left ,61,2063132896016 ,46,6824539096039 ,67,5442501936325
27.4752112 ,Left ,61,1720185466066 ,46,7312873177145 ,67,5378121214608
27.4979381 ,Left ,61,1582370482593 ,46,756804404952 ,67,5265552436188
27.5128219 ,Left ,61,202272960918 ,46,7501442002418 ,67,5100955928323
27.5352973 ,Left ,61,1614068698989 ,46,784669268199 ,67,5006271129718
27.5579203 ,Left ,61,1286296806008 ,46,8378562357323 ,67,4680014985775
27.5728436 ,Left ,61,1447942488374 ,46,8635929144892 ,67,4380527007276
27.5953718 ,Left ,61,1460911284528 ,46,8978293014075 ,67,3846725297517
27.6179389 ,Left ,61,1361716218113 ,46,926486114858 ,67,3127643610793
27.6328871 ,Left ,61,1387683054856 ,46,9558145401087 ,67,2379848529749
27.6553431 ,Left ,61,1359341412639 ,46,9941733467827 ,67,1778456351919
27.6778163 ,Left ,61,1306996269601 ,47,0377790876041 ,67,1142974637607
27.6927673 ,Left ,61,1109549080761 ,47,0652709728165 ,67,0663772225567
27.7152829 ,Left ,61,0944286195046 ,47,080613884629 ,67,041981511815
27.7379552 ,Left ,61,0869403441838 ,47,0849165276726 ,67,0204036943056
27.7527225 ,Left ,61,0831419803909 ,47,1088754365677 ,66,9827706409749
27.7752913 ,Left ,61,0577725013302 ,47,1485643013112 ,66,9310587916937
27.7980351 ,Left ,61,0427264383674 ,47,1887299553825 ,66,8656941149189
27.812981 ,Left ,61,0191792610963 ,47,2066536274254 ,66,7925253975673
27.8354939 ,Left ,60,9902704117969 ,47,2018643684174 ,66,719001488596
27.8581953 ,Left ,60,9597425633579 ,47,1914798758621 ,66,6559342155403
27.8878367 ,Left ,60,8945641290464 ,47,1389226030561 ,66,5563888573061
27.9103671 ,Left ,60,8413439834238 ,47,1129376048531 ,66,5131364754521
27.9477928 ,Left ,60,8037829517915 ,47,0368183584168 ,66,5533249221268
27.9702054 ,Left ,60,7933224785757 ,47,0623156198283 ,66,6356558917285
28.0077468 ,Left ,60,8711461134843 ,47,0646293683536 ,66,7938812801732
28.0303808 ,Left ,60,9068235428009 ,46,9797891265908 ,66,8576558314544
28.0680508 ,Left ,60,9853097897722 ,46,7900533655797 ,66,9977157044494
28.0905352 ,Left ,61,0098333053765 ,46,7413797786429 ,67,0447505495787
28.1278478 ,Left ,61,0900837684366 ,46,6027185732054 ,67,1401170515461
28.1510351 ,Left ,61,1078844487024 ,46,5552812275838 ,67,1647979959812
28.188209 ,Left ,61,1778608386773 ,46,3833378917524 ,67,1594690096056
28.2103306 ,Left ,61,2079964454699 ,46,4024504318736 ,67,1985096704335
28.247847 ,Left ,61,3300306382174 ,46,5361997214543 ,67,3111087046204
28.2709109 ,Left ,61,3953625952862 ,46,5257180544756 ,67,3409390007053
28.3087062 ,Left ,61,5052253650705 ,46,3881076086906 ,67,3981155079541
28.330821 ,Left ,61,5346638915456 ,46,3346323921126 ,67,4221906347242
28.3679227 ,Left ,61,6305605554683 ,46,2807182553033 ,67,4293930069571
28.3902946 ,Left ,61,6902724583534 ,46,2190029226257 ,67,4493433390215
28.4278752 ,Left ,61,7539069029381 ,46,1152636740203 ,67,5145656290798
28.4504317 ,Left ,61,7461600486806 ,46,1007657073927 ,67,5419912931455
28.487862 ,Left ,61,795059369493 ,46,096107486798 ,67,5897056686666
28.5104546 ,Left ,61,8188112197789 ,46,0915061367197 ,67,6190837142336
28.5486754 ,Left ,61,8090862164279 ,46,0826684967272 ,67,6887163695059
28.5707832 ,Left ,61,8015410166168 ,46,0768384125738 ,67,714362255118
28.6083756 ,Left ,61,7893268142698 ,46,0511754617443 ,67,740223112288
28.6308275 ,Left ,61,7827689216163 ,46,0485871221631 ,67,7434266710222
28.6676905 ,Left ,61,7668680672264 ,46,0347903839888 ,67,7399721356514
28.6901753 ,Left ,61,7622105021901 ,46,0314511580208 ,67,7384039227506
28.7278081 ,Left ,61,7650122738502 ,46,0239446508983 ,67,7385172901557
28.7503698 ,Left ,61,7667213415639 ,46,0219711396255 ,67,7407035594955
28.7880439 ,Left ,61,76883758653 ,46,0209132550819 ,67,7407839382675
28.8180935 ,Left ,61,76883758653 ,46,0209132550819 ,67,7407839382675
28.8705038 ,Left ,61,7725286300626 ,46,0186149500396 ,67,7404786949993
28.9077751 ,Left ,61,7745838676075 ,46,0216675075485 ,67,7417808154146
28.9303475 ,Left ,61,7641938971067 ,46,0250626933235 ,67,7442313014965
28.9678483 ,Left ,61,765767948321 ,46,023822149629 ,67,7438458772065
28.9903266 ,Left ,61,7576348226172 ,46,0224778017095 ,67,7474485635016
29.027713 ,Left ,61,7419131569079 ,46,0199752915286 ,67,7551275194417
29.0503859 ,Left ,61,7397986959105 ,46,0210340486836 ,67,7550475560884
29.0876513 ,Left ,61,7378769375337 ,46,0172489488132 ,67,7563242508517
29.1104297 ,Left ,61,7332388670338 ,46,0214023025049 ,67,7597716508069
29.1479366 ,Left ,61,7206932814391 ,46,0360275286768 ,67,7550357429326
29.1702139 ,Left ,61,7113500313299 ,46,0470031657173 ,67,7498134248228
29.207815 ,Left ,61,6924052450413 ,46,0583084713266 ,67,7508740532487
29.2301807 ,Left ,61,6830736550889 ,46,0632327913304 ,67,7539760219815
29.267915 ,Left ,61,6635662128038 ,46,0814166181696 ,67,7572800769995
29.290294 ,Left ,61,6577427562207 ,46,0918337590733 ,67,7602131928193
29.3278977 ,Left ,61,6305737650741 ,46,103563971727 ,67,7733385438341
29.3503127 ,Left ,61,6291961879333 ,46,1086336335793 ,67,7797940129599
29.387989 ,Left ,61,6308581797705 ,46,0987272507184 ,67,7998590427499
29.4104161 ,Left ,61,6328211848347 ,46,086332168746 ,67,8140452850155
29.4478511 ,Left ,61,6494153438426 ,46,0627880992898 ,67,8365923234341
29.4702382 ,Left ,61,660520746852 ,46,0532137392762 ,67,847825611731
29.5076423 ,Left ,61,6705116426616 ,46,038237100497 ,67,8775704272641
29.5452211 ,Left ,61,6800325695044 ,46,024491436847 ,67,9202759834563
29.5680085 ,Left ,61,6906779439859 ,46,0161165684807 ,67,9444869848392
29.6053498 ,Left ,61,7076589922964 ,45,9888874492617 ,68,0073206588996
29.6277332 ,Left ,61,7158173702999 ,45,9704144004242 ,68,0408803555554
29.6503 ,Left ,61,7287240759422 ,45,9428695220004 ,68,0724149501415
29.6879484 ,Left ,61,758066343899 ,45,8860431489195 ,68,1327489826076
29.702995 ,Left ,61,7733076357254 ,45,8569539775635 ,68,1694599064242
29.725585 ,Left ,61,7810481839139 ,45,8332622710268 ,68,2042292010198
29.7406193 ,Left ,61,7952107538724 ,45,8107813580829 ,68,2428461975763
29.7627265 ,Left ,61,8142418793698 ,45,7948612617532 ,68,28690520144
29.7853057 ,Left ,61,8331605948643 ,45,7796091064577 ,68,3284328708995
29.800239 ,Left ,61,8489673477966 ,45,7668513725984 ,68,3707705188158
29.8227472 ,Left ,61,8696758720488 ,45,7555770354524 ,68,4061283964707
29.8453762 ,Left ,61,8905978686363 ,45,7537504628468 ,68,4368060261166
29.8606836 ,Left ,61,9072291237406 ,45,7578008308861 ,68,4662153842688
29.8831129 ,Left ,61,9230241155467 ,45,7698285817124 ,68,4902819410042
29.9055503 ,Left ,61,9368318768463 ,45,7760563269863 ,68,5046623034911
29.9205175 ,Left ,61,9459900978072 ,45,7815103134769 ,68,5100447264056
29.94264 ,Left ,61,9470904756924 ,45,78710434338 ,68,511931205186
29.9653808 ,Left ,61,9557530278849 ,45,7974248088081 ,68,5085329234164
29.9804747 ,Left ,61,9702128417739 ,45,804248638666 ,68,5049439667452
30.0027079 ,Left ,61,9772275406869 ,45,8087827231201 ,68,4992345634407
30.0251912 ,Left ,61,974174489783 ,45,8097211345036 ,68,4913105297629
30.0403769 ,Left ,61,9765131038707 ,45,8083022742982 ,68,4755657784216
30.0629691 ,Left ,61,9886105375933 ,45,8026949065508 ,68,4545578328329
30.0854235 ,Left ,62,014376038447 ,45,8020619792711 ,68,4343435800164
30.1006628 ,Left ,62,0354677935672 ,45,7863235702158 ,68,4111831276607
30.1227846 ,Left ,62,0481357506176 ,45,7656892059677 ,68,3854447706228
30.1452856 ,Left ,62,0822088839771 ,45,7531958047885 ,68,3466300508697
30.1604816 ,Left ,62,1132208825492 ,45,7383744443813 ,68,29609844664
30.1834306 ,Left ,62,1394888063553 ,45,7303483163465 ,68,2343758198386
30.206042 ,Left ,62,1533062146811 ,45,7188303556552 ,68,1726027942458
30.2207282 ,Left ,62,1637092383084 ,45,7018579937647 ,68,1110714049289
30.2432469 ,Left ,62,1796757131769 ,45,6846071452853 ,68,0527902920969
30.2656827 ,Left ,62,2047996372874 ,45,6684898851531 ,67,9963426747623
30.2804199 ,Left ,62,2225100231171 ,45,6537730222721 ,67,9367192645328
30.3030124 ,Left ,62,2295126191429 ,45,6378645602538 ,67,8828384492164
30.3253248 ,Left ,62,2350416185167 ,45,6203243412182 ,67,8416266956417
30.3404138 ,Left ,62,2410129858647 ,45,6115507071527 ,67,8057260737414
30.3629488 ,Left ,62,2449978724636 ,45,6064083766881 ,67,7761982693929
30.3855579 ,Left ,62,2513752757043 ,45,6097436862314 ,67,7494507814973
30.4005611 ,Left ,62,2518038632712 ,45,6169128908187 ,67,73897706801
30.4228604 ,Left ,62,2451369996889 ,45,6271675669783 ,67,7415106778984
30.4454893 ,Left ,62,2264882984155 ,45,6487512831335 ,67,7617742536937
30.4602099 ,Left ,62,2000704720559 ,45,6877622411067 ,67,8024196184299
30.4828387 ,Left ,62,1575336391888 ,45,7266893442211 ,67,8567023781005
30.5052929 ,Left ,62,1263899200317 ,45,7764473362003 ,67,9080277146928
30.5204783 ,Left ,62,0693217861477 ,45,8297418190464 ,67,9621594468433
30.5429089 ,Left ,61,9985611034381 ,45,8964386957797 ,68,024068696447
30.5656427 ,Left ,61,9216489582469 ,45,966543520986 ,68,0989579082936
30.5879295 ,Left ,61,8351236649429 ,46,0547273282801 ,68,1702792475368
30.6030275 ,Left ,61,7243227899372 ,46,1688501724312 ,68,2050249542781
30.6256217 ,Left ,61,6279896133624 ,46,2434979878153 ,68,2364861830147
30.6482086 ,Left ,61,5462261703666 ,46,3051689188315 ,68,2424087739786
30.6631609 ,Left ,61,4823839948648 ,46,4056299676156 ,68,216969583162
30.6855566 ,Left ,61,4071287917141 ,46,5344382689153 ,68,1857645288581
30.708205 ,Left ,61,3852021808981 ,46,6059138191583 ,68,1491356186507
30.7229359 ,Left ,61,3780769353708 ,46,6364818075327 ,68,0891381920559
30.7453405 ,Left ,61,3376926927439 ,46,6712124310851 ,68,0083294029467
30.7678387 ,Left ,61,3202810601294 ,46,6942769712003 ,67,9246875321034
30.78291 ,Left ,61,3208009690293 ,46,713506961786 ,67,8400749963879
30.8052476 ,Left ,61,280535858556 ,46,7216118231743 ,67,7643654768584
30.8286369 ,Left ,61,2687982958039 ,46,7145205255867 ,67,6899292968443
30.8432509 ,Left ,61,229693755813 ,46,6852292931421 ,67,6559768444028
30.8655966 ,Left ,61,2238730574021 ,46,6468777507292 ,67,6710073688078
30.8878876 ,Left ,61,2132877461781 ,46,6482717535768 ,67,6823788487744
30.9028572 ,Left ,61,2219566003241 ,46,6644660321426 ,67,6936091576315
30.9255776 ,Left ,61,1983367347069 ,46,6790304440647 ,67,6774252896704
30.9480804 ,Left ,61,1575034133426 ,46,6895843266168 ,67,6628603258503
30.9628694 ,Left ,61,1616621289052 ,46,7226487799788 ,67,6363320470635
30.9853729 ,Left ,61,1945459921702 ,46,7528006256933 ,67,5949445469913
31.007944 ,Left ,61,1844727954251 ,46,8175469799295 ,67,6085893126927
31.0302106 ,Left ,61,1273979722662 ,46,9663087698884 ,67,6423478642629
31.052684 ,Left ,61,0748987073715 ,47,1146832636592 ,67,6843402108717
31.0828841 ,Left ,61,0730749142255 ,47,2605681606325 ,67,7571510600388
31.1051822 ,Left ,61,0355028395451 ,47,2948828513209 ,67,7675670061807
31.1285197 ,Left ,61,0180665430589 ,47,3155170688752 ,67,7644959570796
31.1434239 ,Left ,61,0020265893967 ,47,3204580750137 ,67,7537294967565
31.1660046 ,Left ,60,9741007603494 ,47,2922955968551 ,67,74825736062
31.1884564 ,Left ,60,9599290181939 ,47,240568581334 ,67,7452005035887
31.2034711 ,Left ,60,933621597349 ,47,1580487797003 ,67,7358600543675
31.2259252 ,Left ,60,9289497114628 ,47,0896992673022 ,67,7292207454518
31.2480004 ,Left ,60,8991003936615 ,47,0459588408124 ,67,7019970439993
31.2631365 ,Left ,60,8977125525983 ,46,9949790705806 ,67,6588399316933
31.2856111 ,Left ,60,9689451757007 ,46,9060435846486 ,67,6405538078159
31.3080617 ,Left ,60,984816647181 ,46,8622356962569 ,67,6544947608341
31.3234504 ,Left ,60,9439365096015 ,46,9551353781615 ,67,6426081328541
31.3458244 ,Left ,60,9556323235681 ,47,0572602811121 ,67,6477816642627
31.3681822 ,Left ,61,0343213946009 ,47,1440965729516 ,67,6231931137236
31.3830892 ,Left ,61,0417390330525 ,47,1853088780954 ,67,5874709047482
31.4058008 ,Left ,61,0252112888653 ,47,2364572350651 ,67,5167787817024
31.428727 ,Left ,61,0061887516694 ,47,2985801273299 ,67,4346418847258
31.4435283 ,Left ,60,9964966485336 ,47,3508131331598 ,67,3558652357027
31.4654218 ,Left ,60,9858402589461 ,47,3816205279036 ,67,2901683094276
31.487994 ,Left ,60,9455339262905 ,47,4007649894911 ,67,2388272242208
31.5028842 ,Left ,60,8948595091656 ,47,4138825774065 ,67,1893844845261
31.5251798 ,Left ,60,8660775416329 ,47,4230615991263 ,67,1346564895454
31.5479968 ,Left ,60,8645935280293 ,47,4017040620522 ,67,0883940820367
31.5629172 ,Left ,60,8590985610401 ,47,3739322943536 ,67,0547426121142
31.5855062 ,Left ,60,8267813605682 ,47,3450897015788 ,67,0096194804555
31.6078021 ,Left ,60,7891301940187 ,47,2929726165216 ,66,9667433005911
31.6227868 ,Left ,60,7778884263785 ,47,1817305852661 ,66,9357588302009
31.6452026 ,Left ,60,7944043577977 ,47,0613517907229 ,66,9477789245915
31.6678999 ,Left ,60,7684561631383 ,47,0322548058653 ,66,9945099939474
31.6903955 ,Left ,60,7534020287452 ,47,0915803330174 ,67,035401032169
31.705479 ,Left ,60,8167880863099 ,47,1354201686438 ,67,0882770213445
31.7276395 ,Left ,60,917624510644 ,47,1218932585951 ,67,1136105914291
31.7504963 ,Left ,60,9815963929079 ,47,0603319776948 ,67,1395997016042
31.7654964 ,Left ,61,0410206023996 ,47,0220438085243 ,67,1203222566289
31.7880023 ,Left ,61,0885762401677 ,46,9780453970041 ,67,1100778998665
31.8106282 ,Left ,61,149135474132 ,46,911549602193 ,67,1288635316144
31.8255697 ,Left ,61,2016724269549 ,46,8594562530107 ,67,1537770813817
31.8478542 ,Left ,61,2205128072101 ,46,8374026371887 ,67,171087898487
31.8702273 ,Left ,61,2595256915359 ,46,8178523592273 ,67,1947475826808
31.8853147 ,Left ,61,3277089010342 ,46,7780334960939 ,67,2279038778627
31.9080037 ,Left ,61,3925154206496 ,46,7407151279214 ,67,2636638568636
31.9305873 ,Left ,61,4350735453065 ,46,7211503970859 ,67,292985072274
31.9456 ,Left ,61,4646834084506 ,46,7215215733454 ,67,3092180504378
31.9681663 ,Left ,61,5006585405905 ,46,7169813237473 ,67,317425569275
31.9908007 ,Left ,61,5364934604223 ,46,7108565605847 ,67,3125531042445
32.0056797 ,Left ,61,5580886777951 ,46,6936080308649 ,67,3047946279012
32.0281419 ,Left ,61,5604409623938 ,46,6848826636437 ,67,2869428428551
32.0508151 ,Left ,61,5642746667735 ,46,6838519768555 ,67,2621835309096
32.0657508 ,Left ,61,567717886635 ,46,6953802250702 ,67,2364645056542
32.0883576 ,Left ,61,5564649251452 ,46,714650884951 ,67,2187265771299
32.1108126 ,Left ,61,5449403868843 ,46,7364112295851 ,67,2068143806777
32.1257636 ,Left ,61,5310365893321 ,46,7552879216224 ,67,2064234658648
32.1482808 ,Left ,61,5164402856676 ,46,7682707851642 ,67,2088410108092
32.1708296 ,Left ,61,5051196407451 ,46,7781401425949 ,67,2130039215551
32.1856308 ,Left ,61,4900601325181 ,46,7868224435228 ,67,2136827942782
32.2079695 ,Left ,61,471594431937 ,46,7888245077995 ,67,2146457028824
32.2304181 ,Left ,61,4541299386773 ,46,7830410024623 ,67,2205656563711
32.2453157 ,Left ,61,4463624153827 ,46,7656600523655 ,67,2388144228827
32.2686577 ,Left ,61,4398825270922 ,46,7495985421124 ,67,2625188374159
32.2908603 ,Left ,61,4432573939468 ,46,7417038664449 ,67,2831821890934
32.3058828 ,Left ,61,4500346352139 ,46,7445808728386 ,67,3048003666615
32.32832 ,Left ,61,4692365136927 ,46,7465887549454 ,67,3279701002939
32.3503386 ,Left ,61,4814433890418 ,46,7434490242186 ,67,360824608276
32.3655644 ,Left ,61,4998970521603 ,46,7372107197669 ,67,3939964811019
32.3881214 ,Left ,61,5083824012799 ,46,7328352830405 ,67,4234340477228
32.4103697 ,Left ,61,5146719734499 ,46,7249201021801 ,67,4492853619217
32.4254137 ,Left ,61,515859812116 ,46,7186582359935 ,67,4674479099943
32.4479215 ,Left ,61,5254076584881 ,46,7187787755092 ,67,4813999559566
32.4705102 ,Left ,61,5348114151059 ,46,7236845112977 ,67,4940988041492
32.4928785 ,Left ,61,5438613077572 ,46,7265511726208 ,67,5091225229105
32.508042 ,Left ,61,5548379228518 ,46,7302052979764 ,67,5214722418978
32.5302733 ,Left ,61,5562812527261 ,46,7325751107787 ,67,5378677628996
32.5453796 ,Left ,61,5608845950097 ,46,7306762382617 ,67,5451392141597
32.5680145 ,Left ,61,5608845950097 ,46,7306762382617 ,67,5451392141597
32.5904747 ,Left ,61,5608845950097 ,46,7306762382617 ,67,5451392141597
32.6130039 ,Left ,61,5589653972189 ,46,7310072755671 ,67,5475738484797
32.6280466 ,Left ,61,5589653972189 ,46,7310072755671 ,67,5475738484797
32.6501308 ,Left ,61,5589653972189 ,46,7310072755671 ,67,5475738484797
32.6728147 ,Left ,61,5486859904128 ,46,7290608815996 ,67,5554893392138
32.6878927 ,Left ,61,5368581287523 ,46,7283527593192 ,67,5637816664854
32.7110507 ,Left ,61,5271037402387 ,46,7266198548811 ,67,5721714915861
32.7334048 ,Left ,61,5188852266948 ,46,719558340531 ,67,5789321429498
32.7486248 ,Left ,61,5056366007667 ,46,7123318844608 ,67,5873734447728
32.7706471 ,Left ,61,4917302878091 ,46,7085736714788 ,67,5943429456089
32.7930126 ,Left ,61,4844009236776 ,46,7037495972959 ,67,5992729061963
32.8082042 ,Left ,61,4814419270908 ,46,702553527372 ,67,6010412975551
32.8306407 ,Left ,61,4766315502029 ,46,7039796971237 ,67,5981163362945
32.8530387 ,Left ,61,4794540159772 ,46,7088405896143 ,67,595323526117
32.8682175 ,Left ,61,4734821525278 ,46,7164955186829 ,67,5919575180185
32.8906511 ,Left ,61,4745246194655 ,46,7180299736777 ,67,5926311790641
32.9129153 ,Left ,61,4757827632474 ,46,7211535467615 ,67,5887047370036
32.9278202 ,Left ,61,4763831879693 ,46,7277385069777 ,67,5832945934225
32.9504483 ,Left ,61,4740259841091 ,46,7331258561352 ,67,5796512682095
32.9728279 ,Left ,61,4729836948307 ,46,7315910992984 ,67,578976662415
32.9880051 ,Left ,61,4729836948307 ,46,7315910992984 ,67,578976662415
33.010233 ,Left ,61,4750510965801 ,46,7305609259912 ,67,5790680409441
33.0327244 ,Left ,61,4764007973097 ,46,7318380723516 ,67,5845525922648
33.0479285 ,Left ,61,4764007973097 ,46,7318380723516 ,67,5845525922648
33.070456 ,Left ,61,4798005627836 ,46,7279842811859 ,67,5888713493166
33.0928499 ,Left ,61,4802426614295 ,46,7229329715175 ,67,5949562414021
33.1079936 ,Left ,61,4802426614295 ,46,7229329715175 ,67,5949562414021
33.130441 ,Left ,61,4823103699783 ,46,7219018333099 ,67,5950474990786
33.1527676 ,Left ,61,4778266242779 ,46,7271670092334 ,67,5981919620172
33.167691 ,Left ,61,4755272113528 ,46,7325256924836 ,67,6123517854212
33.1904668 ,Left ,61,4736519703223 ,46,7357759674562 ,67,6407561475244
33.212979 ,Left ,61,4651224568413 ,46,739609382442 ,67,6934351924368
33.2281762 ,Left ,61,4650871945064 ,46,746287575978 ,67,7738764588185
33.2505165 ,Left ,61,4539518636791 ,46,7620704533448 ,67,8786720342704
33.2729632 ,Left ,61,4398720129629 ,46,8133382143535 ,68,0091395887387
33.2881404 ,Left ,61,4261902108247 ,46,8928338964524 ,68,1720561871289
33.3104724 ,Left ,61,3941525729341 ,47,0049972105904 ,68,3732971434248
33.3329562 ,Left ,61,337753253948 ,47,1457718320221 ,68,6133589298638
33.347789 ,Left ,61,2726882932177 ,47,3216676062752 ,68,8739309753594
33.3702176 ,Left ,61,1909794570592 ,47,5266011824434 ,69,1278498833034
33.3930241 ,Left ,61,0930120683731 ,47,753622373378 ,69,3701339607408
33.4078787 ,Left ,60,996918292921 ,48,0068129743545 ,69,6234297461014
33.430588 ,Left ,60,9182448726959 ,48,2951116339032 ,69,9017140161805
33.4529935 ,Left ,60,8602082846935 ,48,6222677095636 ,70,1974544623372
33.4751693 ,Left ,60,8315785152953 ,48,9764409179666 ,70,4868223204376
33.4909595 ,Left ,60,7952439914879 ,49,3308563068263 ,70,7610389080391
33.5059359 ,Left ,60,7702645158876 ,49,6746024242503 ,71,0184362234041
33.5433493 ,Left ,60,7083969810104 ,50,3266378235559 ,71,4949580659683
33.5659952 ,Left ,60,7043502032538 ,50,621917003847 ,71,7159889421217
33.6033058 ,Left ,60,7208814002099 ,51,0271547623667 ,71,989352305215
33.6256773 ,Left ,60,7149425217251 ,51,1378883875284 ,72,0633435595868
33.6627521 ,Left ,60,7949851863874 ,51,2302084274965 ,72,2014227267843
33.6853851 ,Left ,60,8949253829347 ,51,1672246966212 ,72,2131660154818
33.7227142 ,Left ,61,0718162857853 ,50,7858729813335 ,72,1016609351564
33.745654 ,Left ,61,1900015997035 ,50,5266275360187 ,72,0439883233845
33.7832165 ,Left ,61,5452686724347 ,49,8694465883252 ,71,9397074575821
33.805528 ,Left ,61,7598119231867 ,49,4225034180813 ,71,7885046604688
33.8427274 ,Left ,62,2037551229547 ,48,4243459072875 ,71,2161578814708
33.8653719 ,Left ,62,4237125879783 ,47,9329558980825 ,70,9137712742962
33.9035141 ,Left ,62,7235644112965 ,47,1387684555012 ,70,3693602752618
33.9258193 ,Left ,62,8274403082027 ,46,8624360639453 ,70,0964084566593
33.9626946 ,Left ,62,9878946972402 ,46,4704755815351 ,69,6376202261189
33.9852383 ,Left ,63,0600820228271 ,46,3609558047617 ,69,4930050466248
34.0226901 ,Left ,63,0569336375108 ,46,3109067623035 ,69,4011477674111
34.0460267 ,Left ,63,0321029941677 ,46,3402688478291 ,69,3936370867295
34.0910228 ,Left ,62,8529064743638 ,46,3871652777405 ,69,3466722232273
34.1130278 ,Left ,62,7622937163684 ,46,4367007708423 ,69,3579677695923
34.1427444 ,Left ,62,5946935427641 ,46,5895112124037 ,69,4258316464601
34.1654145 ,Left ,62,5241356084391 ,46,6487285336266 ,69,4734350735031
34.2026089 ,Left ,62,4378293786208 ,46,7388352299963 ,69,5789755015694
34.2253541 ,Left ,62,4293321189877 ,46,786843867251 ,69,6127741230335
34.2626723 ,Left ,62,3506585993883 ,46,8454943236037 ,69,6311329790284
34.2851147 ,Left ,62,2977123800716 ,46,8655673935888 ,69,6436857834507
34.322678 ,Left ,62,2617847454508 ,46,8533434339054 ,69,6245868906175
34.3452941 ,Left ,62,2454912906978 ,46,8168823765846 ,69,5875903323985
34.3829733 ,Left ,62,2237515304528 ,46,6948407184907 ,69,4354663339845
34.4055031 ,Left ,62,2019675467091 ,46,6238911195505 ,69,3598356284676
34.4430938 ,Left ,62,1484960785502 ,46,5079400962904 ,69,1817593564423
34.4654344 ,Left ,62,1420880213445 ,46,4549387002676 ,69,0707135628558
34.5031122 ,Left ,62,1092435754014 ,46,3128439600719 ,68,873553975157
34.5255536 ,Left ,62,0922330191733 ,46,2462837647845 ,68,8043624449866
34.5631564 ,Left ,62,0827198138132 ,46,1341368046961 ,68,6796185079134
34.5854516 ,Left ,62,1058954380844 ,46,0719715278069 ,68,6259473837266
34.6229099 ,Left ,62,1468652600755 ,45,9898757182524 ,68,5629809932609
34.6455996 ,Left ,62,1546077671851 ,45,9511427155583 ,68,5305138787227
34.6826857 ,Left ,62,1552511782896 ,45,8547319530606 ,68,4231960705415
34.7053391 ,Left ,62,1576802716514 ,45,8196136456941 ,68,3702940233125
34.74291 ,Left ,62,1948398517252 ,45,8089686626423 ,68,2674862903901
34.7656557 ,Left ,62,2009210609578 ,45,8042573591022 ,68,2172384509859
34.8027467 ,Left ,62,2058937337025 ,45,8143965123382 ,68,171452578214
34.8252147 ,Left ,62,2069036279229 ,45,8529509113405 ,68,1766853931093
34.8626446 ,Left ,62,1640512598575 ,45,9496957011905 ,68,2289516392146
34.8853348 ,Left ,62,1219906411769 ,45,9924569470029 ,68,2607444590749
34.9303215 ,Left ,62,012333394529 ,46,1003580701732 ,68,3015806845215
34.9529283 ,Left ,61,9415180285263 ,46,1516554503276 ,68,3062282469823
34.9830103 ,Left ,61,7327036078191 ,46,2257329400562 ,68,3686376766641
35.0205305 ,Left ,61,5614897657004 ,46,3113492767853 ,68,4031914002776
35.0424996 ,Left ,61,4639198921746 ,46,4031629564813 ,68,3391080200536
35.0652192 ,Left ,61,3636924927433 ,46,5357649488429 ,68,2901858025291
35.1026635 ,Left ,61,2669156048133 ,46,8123767667957 ,68,2583945877113
35.1251636 ,Left ,61,2930797649079 ,46,8577381131329 ,68,2455758847814
35.1630911 ,Left ,61,2430797117056 ,46,9362046310478 ,68,1390065586873
35.2005697 ,Left ,61,2429170460573 ,46,9753052970704 ,68,0400968740709
35.2230505 ,Left ,61,2263314635079 ,46,9760567445735 ,67,9902036436756
35.2607767 ,Left ,61,1928632194818 ,46,9088157348721 ,67,899143401763
35.2829789 ,Left ,61,2035221603662 ,46,8745519928857 ,67,8545211314894
35.2983389 ,Left ,61,2275158117857 ,46,8559098883592 ,67,8168878295796
35.3356584 ,Left ,61,262674177054 ,46,8094794060529 ,67,7819109837399
35.3581001 ,Left ,61,2773640687004 ,46,8004892215718 ,67,7634031222912
35.380784 ,Left ,61,2907436331003 ,46,8061849119312 ,67,742083789561
35.3956498 ,Left ,61,3118174323255 ,46,7975361136659 ,67,7343022494855
35.4183466 ,Left ,61,339464403423 ,46,7814711680048 ,67,7482260299226
35.440597 ,Left ,61,350695232256 ,46,7625404717278 ,67,7686461014748
35.4556526 ,Left ,61,3771726334341 ,46,7355395444363 ,67,7863520784883
35.4782637 ,Left ,61,3738505117229 ,46,6826043227675 ,67,791897459138
35.5008189 ,Left ,61,388415718283 ,46,651999637169 ,67,7740678732631
35.5156699 ,Left ,61,4033744523725 ,46,6412288373056 ,67,7649828805926
35.5378256 ,Left ,61,4160314725932 ,46,6258171940338 ,67,7591997171065
35.5604184 ,Left ,61,4478478264967 ,46,5975658475578 ,67,7444981475241
35.5752806 ,Left ,61,479015528627 ,46,5575204017365 ,67,7230560923419
35.5981187 ,Left ,61,4917286180864 ,46,5175533854672 ,67,6919398254634
35.6207849 ,Left ,61,489592114654 ,46,4865533738352 ,67,6436836648521
35.6357477 ,Left ,61,4728497046628 ,46,4566374424348 ,67,5894113499815
35.6581548 ,Left ,61,4642078205811 ,46,4444503793243 ,67,5366353670625
35.6808108 ,Left ,61,42369622801 ,46,4319302594078 ,67,49242680322
35.6957666 ,Left ,61,4537031424422 ,46,3898449785915 ,67,4854427480934
35.7182686 ,Left ,61,4482031705531 ,46,3453486868112 ,67,508701020422
35.7477064 ,Left ,61,4314043814952 ,46,3805340333783 ,67,5305729989547
35.76276 ,Left ,61,429741426677 ,46,4279016141587 ,67,5600417039373
35.7854161 ,Left ,61,4599903211624 ,46,4581284889061 ,67,5604978206705
35.800353 ,Left ,61,421583723925 ,46,4795197816095 ,67,5527315473309
35.8155043 ,Left ,61,3571614347179 ,46,5190084108361 ,67,5346302739157
35.837709 ,Left ,61,3333817162455 ,46,5688401452986 ,67,491975629875
35.8602406 ,Left ,61,3832322606486 ,46,5692096546019 ,67,4457447143596
35.8751531 ,Left ,61,3274749975861 ,46,5524056393109 ,67,4610289632534
35.8986055 ,Left ,61,2824837711697 ,46,597625426424 ,67,4898432994004
35.9209127 ,Left ,61,2599137437611 ,46,6425661926426 ,67,5587639062497
35.9356348 ,Left ,61,3043880932339 ,46,7170680656717 ,67,6026123885249
35.9581648 ,Left ,61,3049981207507 ,46,7728047323215 ,67,6405036758688
35.9807569 ,Left ,61,2980261645633 ,46,8327904202845 ,67,6607839843443
35.9955813 ,Left ,61,2824589162009 ,46,8925680898719 ,67,6724196886742
36.0182358 ,Left ,61,2703483879978 ,46,9229121339507 ,67,6704498204142
36.040554 ,Left ,61,2444044939225 ,46,9228474893528 ,67,6643766851893
36.0555511 ,Left ,61,2096227013284 ,46,9170089638003 ,67,6707688782692
36.0780377 ,Left ,61,1764961088196 ,46,9162601163539 ,67,6709451816763
36.1006941 ,Left ,61,1778081075881 ,46,9345090273563 ,67,6544343286595
36.1156224 ,Left ,61,1633774250659 ,46,9315671589406 ,67,6363285568094
36.138247 ,Left ,61,168603367832 ,46,9125168629977 ,67,6286660448415
36.1602364 ,Left ,61,1643078571492 ,46,9000366911669 ,67,6319112212498
36.1751512 ,Left ,61,1617975665225 ,46,9278804311138 ,67,6202253048923
36.1979554 ,Left ,61,1485104382202 ,46,9573078794913 ,67,6150239357082
36.2204663 ,Left ,61,1476175344745 ,46,9550997470668 ,67,6168867262917
36.2352664 ,Left ,61,1376955100662 ,46,9550439451179 ,67,5981615844391
36.2578098 ,Left ,61,1047335217605 ,46,9557810833916 ,67,5539942107188
36.2802306 ,Left ,61,0916324787784 ,46,9078130197791 ,67,5175431132823
36.2953898 ,Left ,61,0961770292896 ,46,8578365492319 ,67,532346680177
36.3181487 ,Left ,61,0486772628239 ,46,9195104291106 ,67,5555514627199
36.3406478 ,Left ,61,0129272921084 ,47,0191964120671 ,67,5718055830804
36.362843 ,Left ,61,0459565603751 ,47,0764670936726 ,67,5838371457807
36.378015 ,Left ,61,069205001151 ,47,1102684149857 ,67,570133104037
36.400564 ,Left ,61,0682705258787 ,47,1311723446527 ,67,5442993572322
36.4229651 ,Left ,61,0871211275864 ,47,1398226554502 ,67,5172381913803
36.4380914 ,Left ,61,1174685161512 ,47,1517206054837 ,67,4878073429923
36.4605652 ,Left ,61,1306823493521 ,47,1628446152701 ,67,4458742110998
36.4828469 ,Left ,61,1254185114741 ,47,1726340500089 ,67,4011324723006
36.498077 ,Left ,61,1191313537029 ,47,18084818661 ,67,3557795385263
36.5203227 ,Left ,61,1189751602476 ,47,184955813417 ,67,3175635970564
36.5429354 ,Left ,61,1181831410442 ,47,1914239869511 ,67,2847124102181
36.5579136 ,Left ,61,1117310552072 ,47,1948091778143 ,67,257850432459
36.5803652 ,Left ,61,1169439157115 ,47,2030187420982 ,67,2241048760557
36.6033733 ,Left ,61,1226641988881 ,47,2084722191454 ,67,1893480694305
36.6186298 ,Left ,61,1196927729725 ,47,2154365034246 ,67,1543014733765
36.6409415 ,Left ,61,1101684656317 ,47,2354673829701 ,67,1075706518873
36.6629156 ,Left ,61,0936522228944 ,47,2591804204159 ,67,063961948007
36.6780943 ,Left ,61,0943552838024 ,47,2835299889245 ,67,0201110880931
36.7004065 ,Left ,61,0924799781415 ,47,3033928263508 ,66,9747839029804
36.7229005 ,Left ,61,0824076707897 ,47,3208915643461 ,66,9348407943989
36.7378896 ,Left ,61,0750912336953 ,47,3320276080545 ,66,888262074274
36.7604937 ,Left ,61,0508390684261 ,47,3418972811911 ,66,8293919695868
36.782649 ,Left ,61,0279889912356 ,47,3478041601436 ,66,7750110205835
36.7976931 ,Left ,60,9897796849401 ,47,3542215598371 ,66,715953789147
36.8202704 ,Left ,60,9492780120493 ,47,3447746490682 ,66,6515113009794
36.8427609 ,Left ,60,9134166257407 ,47,272468765162 ,66,605195922423
36.8577216 ,Left ,60,9016289684345 ,47,1701172763829 ,66,5958990682594
36.8801877 ,Left ,60,8864226125865 ,47,1429346828851 ,66,6345222114827
36.9026451 ,Left ,60,8483044460599 ,47,2008871436421 ,66,6990300533598
36.9177208 ,Left ,60,8934126160281 ,47,2461848293145 ,66,7601897729918
36.9404577 ,Left ,60,9824303113348 ,47,2313056000307 ,66,7981824143557
36.9628038 ,Left ,61,0120169931773 ,47,1484377672069 ,66,8417199371096
36.9780103 ,Left ,61,0538696551735 ,47,0686464638506 ,66,8707347928803
37.0011132 ,Left ,61,0724856214193 ,47,0208410417977 ,66,8803110123539
37.0235815 ,Left ,61,0999064224907 ,46,9309688653629 ,66,8970777854358
37.0382766 ,Left ,61,1364176510398 ,46,8150812768645 ,66,9243518852766
37.0607207 ,Left ,61,1416863338449 ,46,7229807000863 ,66,9504345285409
37.0832654 ,Left ,61,1450347480221 ,46,6009888236781 ,66,9549546982558
37.1057426 ,Left ,61,1819131381115 ,46,5062294628935 ,66,9868277512403
37.120715 ,Left ,61,2324842246908 ,46,5168169938484 ,67,0327323637876
37.143286 ,Left ,61,2571294491038 ,46,5958646138764 ,67,1172044825869
37.1654728 ,Left ,61,3536114292295 ,46,6559492151907 ,67,202074122657
37.1805382 ,Left ,61,425418566596 ,46,6668622728971 ,67,2491778208049
37.2031171 ,Left ,61,4853686577925 ,46,6302249369503 ,67,2975076251558
37.2256087 ,Left ,61,5629749394564 ,46,5721554651539 ,67,3460995451768
37.2405253 ,Left ,61,6124893992791 ,46,510423843563 ,67,4052829236118
37.2631327 ,Left ,61,6179927679564 ,46,449250557196 ,67,471891026352
37.2853458 ,Left ,61,6318273173239 ,46,3914352981518 ,67,5329218822791
37.30053 ,Left ,61,664972151223 ,46,3401363453341 ,67,5916754162835
37.3228562 ,Left ,61,6938865020897 ,46,2948576769465 ,67,6516617914917
37.3453657 ,Left ,61,7251111043093 ,46,2739022673157 ,67,7172573691254
37.3602899 ,Left ,61,7432414380578 ,46,2800864815237 ,67,7903060436814
37.3903137 ,Left ,61,7467515088351 ,46,308390637003 ,67,8658775185417
37.4129499 ,Left ,61,7578038574109 ,46,319704726268 ,67,9372878184977
37.4279534 ,Left ,61,7845981710081 ,46,3210262406959 ,67,9975800604406
37.443071 ,Left ,61,7939319414722 ,46,3143901451144 ,68,0582089090371
37.4653801 ,Left ,61,7906429859453 ,46,3126106464322 ,68,1163054017268
37.4803467 ,Left ,61,7861972700315 ,46,3100306189237 ,68,1712491522533
37.5031381 ,Left ,61,7910957028745 ,46,3019432689881 ,68,2076319809271
37.5252148 ,Left ,61,7905834019216 ,46,2811131870667 ,68,2396325725779
37.5402548 ,Left ,61,8023388236762 ,46,2604476823015 ,68,2680882931849
37.5627215 ,Left ,61,8225334985618 ,46,2525171292522 ,68,2993973514034
37.5853543 ,Left ,61,83906261703 ,46,2394065540105 ,68,3126026056051
37.601069 ,Left ,61,8377010799037 ,46,2141548189264 ,68,3223920515808
37.6233919 ,Left ,61,8344972699258 ,46,1888408789959 ,68,3190244430205
37.6452806 ,Left ,61,834039065717 ,46,181334570358 ,68,2932823802181
37.6602654 ,Left ,61,8340200562501 ,46,1849479408301 ,68,258256963608
37.6827893 ,Left ,61,8555025248777 ,46,1747264660745 ,68,1960868504434
37.7054883 ,Left ,61,8602028604102 ,46,1474675080561 ,68,1260102528492
37.7204582 ,Left ,61,8592482005784 ,46,1232077691106 ,68,0539146602687
37.7432699 ,Left ,61,8675519683789 ,46,110638043238 ,67,9789876799493
37.7657561 ,Left ,61,8847765901383 ,46,1101697300032 ,67,8963431772024
37.7808803 ,Left ,61,8997474658741 ,46,115231779322 ,67,8101732935695
37.8032868 ,Left ,61,9089896464726 ,46,111073600793 ,67,7386736218899
37.8257982 ,Left ,61,9123298035507 ,46,1070041259174 ,67,6839891303344
37.8408096 ,Left ,61,9126660833018 ,46,1132762739595 ,67,637501058045
37.8631 ,Left ,61,9111753250741 ,46,1265714807745 ,67,6011675757656
37.8855718 ,Left ,61,8976913008716 ,46,1408730450471 ,67,588910171684
37.9009248 ,Left ,61,89153588852 ,46,1466418324628 ,67,595017545629
37.9234627 ,Left ,61,8713572303601 ,46,1533573463256 ,67,6253539329461
37.9455196 ,Left ,61,837239840898 ,46,1716741661252 ,67,6752533728225
37.9605081 ,Left ,61,7923169496651 ,46,1983661966155 ,67,7393994575959
37.9830415 ,Left ,61,7460820308994 ,46,2244887121775 ,67,8135111551273
38.005481 ,Left ,61,7086129960858 ,46,2480836885512 ,67,8901041088297
38.0205329 ,Left ,61,670511743004 ,46,2695653446478 ,67,9687121873246
38.0427685 ,Left ,61,6335640967706 ,46,2994456967644 ,68,0371684499875
