timestamp,event,roll,pitch,yaw
0.0088042 ,Left ,42.4401692703586 ,54.1809128849528 ,77.4958296634972
0.0308915 ,Left ,42.3791620519037 ,54.1240646794887 ,77.4366328881222
0.0466303 ,Left ,42.3313140260826 ,54.0357689319646 ,77.3888700030333
0.0692442 ,Left ,42.3410280085965 ,53.9462730014716 ,77.3548851192333
0.0912433 ,Left ,42.3210404696982 ,53.9072465846716 ,77.2988062105678
0.1065589 ,Left ,42.326295039927 ,53.9200277373547 ,77.2575667558473
0.1284312 ,Left ,42.3653840289757 ,53.9188138553821 ,77.2451632978264
0.1507755 ,Left ,42.4217615334207 ,53.8895589607625 ,77.2584126213226
0.1656749 ,Left ,42.4805449214783 ,53.876129004891 ,77.2690709880038
0.1884195 ,Left ,42.5321837751087 ,53.8862518916523 ,77.2789709500727
0.2110698 ,Left ,42.5962643390105 ,53.8833718343687 ,77.2757071488155
0.2251993 ,Left ,42.6925062918341 ,53.8885231078246 ,77.2666296494375
0.2484102 ,Left ,42.7674681272488 ,53.9104388501963 ,77.253196810611
0.270822 ,Left ,42.80387849841 ,53.9242663585508 ,77.243267945988
0.285246 ,Left ,42.8070076102451 ,53.9344340944943 ,77.2389574299305
0.3086667 ,Left ,42.8074791873898 ,53.9544074797533 ,77.2213538115557
0.3307775 ,Left ,42.8343551260791 ,53.9487022128277 ,77.208485194131
0.3458109 ,Left ,42.8247414725978 ,53.925298147841 ,77.1960193286881
0.3684367 ,Left ,42.7840809708103 ,53.8947989771831 ,77.1888127056943
0.3908891 ,Left ,42.7420265527845 ,53.8707723747445 ,77.1783033471159
0.4051704 ,Left ,42.6998252169451 ,53.8401659663265 ,77.1403029607992
0.4305999 ,Left ,42.643500428679 ,53.8161250627736 ,77.1008720384717
0.4534188 ,Left ,42.6037742823746 ,53.817629128654 ,77.0850529325992
0.4657132 ,Left ,42.5636237870254 ,53.8255081896532 ,77.0741754716362
0.4885435 ,Left ,42.5394281559686 ,53.8445118967176 ,77.0666401394023
0.5116901 ,Left ,42.5048261446423 ,53.8702464125407 ,77.0536835934911
0.5321563 ,Left ,42.4712708443592 ,53.8942861393075 ,77.0405559390451
0.5485182 ,Left ,42.4553546039032 ,53.9143513762303 ,77.0286002839058
0.5708963 ,Left ,42.4305002901139 ,53.9281819402716 ,77.0243486732974
0.592001 ,Left ,42.4212605155558 ,53.9294702308371 ,77.0319123552945
0.6083829 ,Left ,42.4184817986563 ,53.9019797522059 ,77.0512958332826
0.6309966 ,Left ,42.4328085784197 ,53.8401781780464 ,77.0714633066032
0.6523789 ,Left ,42.4411538685632 ,53.7767371174414 ,77.0770597721874
0.6683451 ,Left ,42.4503644183849 ,53.7371611925463 ,77.0704065289936
0.6908214 ,Left ,42.4499851832626 ,53.7220512082911 ,77.0438069143426
0.7125465 ,Left ,42.4147508134279 ,53.741084750904 ,76.9875103196487
0.7287972 ,Left ,42.3322643928189 ,53.7869271007077 ,76.9077648758363
0.7508759 ,Left ,42.2315296215131 ,53.8324094253153 ,76.8216680065974
0.7723004 ,Left ,42.1259682615059 ,53.850897538903 ,76.7523428719319
0.7882944 ,Left ,42.026210444209 ,53.8373242396881 ,76.6954609629573
0.8109046 ,Left ,41.94000751103 ,53.796175331922 ,76.6371413737589
0.8318779 ,Left ,41.9020909354191 ,53.7433545679183 ,76.5882029319336
0.848353 ,Left ,41.8704198463371 ,53.6762853709094 ,76.5408035234709
0.8708366 ,Left ,41.8832733364885 ,53.622094177974 ,76.5337335659933
0.8920153 ,Left ,41.9322030244369 ,53.5762860008498 ,76.5651749043448
0.9083289 ,Left ,41.9706507881999 ,53.5404961144051 ,76.5975645493048
0.9310065 ,Left ,41.9840021168023 ,53.5194614691748 ,76.6354532307584
0.9520173 ,Left ,41.9929633303115 ,53.5057189012987 ,76.6730364238766
0.9676799 ,Left ,42.0278318410818 ,53.5001061913526 ,76.7051811614852
0.9908202 ,Left ,42.0603284165998 ,53.4888592583644 ,76.732149404328
1.0134827 ,Left ,42.078108409946 ,53.4708094248731 ,76.7623683901037
1.0283225 ,Left ,42.0860505711445 ,53.4487406697445 ,76.7891198030249
1.0511259 ,Left ,42.0813789406346 ,53.433802435106 ,76.8074609725319
1.0820679 ,Left ,42.0627269296341 ,53.4154803008823 ,76.8133424151412
1.0898621 ,Left ,42.0423375815285 ,53.3952270381647 ,76.8167322556013
1.1112678 ,Left ,42.0674671219303 ,53.3756065848862 ,76.8149244947055
1.1333183 ,Left ,42.0749167241753 ,53.3559309484511 ,76.8070561924246
1.1476228 ,Left ,42.0491941812935 ,53.3276317312407 ,76.8061189417808
1.1708622 ,Left ,42.004147046595 ,53.3062882345209 ,76.8022166982162
1.1933568 ,Left ,41.9782937113369 ,53.2850399364844 ,76.7788250795249
1.2076756 ,Left ,41.9868625456288 ,53.265329001527 ,76.7491483284399
1.2308188 ,Left ,41.9938609657132 ,53.2497941621882 ,76.7190436403315
1.2631115 ,Left ,41.9662724072969 ,53.2576413011347 ,76.7136831857974
1.2677393 ,Left ,41.912943751928 ,53.3018654672505 ,76.7140517434296
1.2908441 ,Left ,41.8709943581121 ,53.3470776361561 ,76.6937008640844
1.3135244 ,Left ,41.8371883161028 ,53.3680176184929 ,76.6501575849191
1.3283647 ,Left ,41.7554939415525 ,53.3540393515003 ,76.6057809103492
1.3507741 ,Left ,41.6237662475739 ,53.3179456987867 ,76.5348199208497
1.374225 ,Left ,41.5740515414677 ,53.26729601421 ,76.4877395223541
1.3948304 ,Left ,41.5642240194993 ,53.230163955491 ,76.4552216981913
1.4109348 ,Left ,41.5859470994929 ,53.2101739347317 ,76.4235464074067
1.4334465 ,Left ,41.5403396233373 ,53.2010438343535 ,76.400054156054
1.4476795 ,Left ,41.4844900230994 ,53.2067615950568 ,76.4166246378183
1.4712691 ,Left ,41.3775468964012 ,53.1952235127089 ,76.3788039619337
1.4932984 ,Left ,41.3197472380246 ,53.2080315527686 ,76.3082972082608
1.5145959 ,Left ,41.3104865720724 ,53.23704012222 ,76.2371096268795
1.5308428 ,Left ,41.3000511224452 ,53.2647040253304 ,76.2100142763388
1.5594858 ,Left ,41.2300149016752 ,53.324228689708 ,76.2204271612077
1.5748515 ,Left ,41.0908224666449 ,53.3698836160308 ,76.1919148385844
1.5909115 ,Left ,41.1299990194831 ,53.4486116013092 ,76.160542561503
1.6133685 ,Left ,41.2368838124923 ,53.4946338879743 ,76.0908283318334
1.6344091 ,Left ,41.2693469462741 ,53.5101019860582 ,76.057106217939
1.6508149 ,Left ,41.2095307471014 ,53.5677703046419 ,76.0498184483608
1.6733164 ,Left ,41.1126406672374 ,53.6033457953367 ,76.0014944929977
1.6950286 ,Left ,41.0831169923515 ,53.5794654382515 ,75.9283190092668
1.7108693 ,Left ,41.0975570000232 ,53.5681207007783 ,75.8722694740921
1.7333074 ,Left ,41.02450819409 ,53.5723206048186 ,75.8615973531701
1.7544503 ,Left ,40.9733682179046 ,53.5914558700418 ,75.9114458150853
1.7709098 ,Left ,40.9930142074664 ,53.6764065769315 ,75.9109659737349
1.7933786 ,Left ,41.1234439496915 ,53.731854594049 ,75.8762249616161
1.8147204 ,Left ,41.1890350338758 ,53.8038838606832 ,75.9009716955184
1.8373405 ,Left ,41.1360244485259 ,53.905245953496 ,75.9868199273886
1.8533293 ,Left ,41.0446722596296 ,53.9913370695134 ,76.0242202570871
1.8746427 ,Left ,41.0504492353965 ,54.0108914102511 ,76.0385294142602
1.8904439 ,Left ,40.9943807050119 ,53.9602132236369 ,76.0483014892767
1.9133771 ,Left ,40.9279009462931 ,53.9222984487374 ,76.0517312120916
1.9360191 ,Left ,40.8685391000408 ,53.9262152536668 ,76.0599291807624
1.9502227 ,Left ,40.7837852296409 ,53.947746003164 ,76.0545008601722
1.9734689 ,Left ,40.7786565738392 ,54.0311349265055 ,76.0287307965115
1.9959422 ,Left ,40.803807230695 ,54.0608684188615 ,75.9692558823349
2.0103232 ,Left ,40.8921969341671 ,54.0484035832564 ,75.9573066934739
2.033385 ,Left ,40.8597704697532 ,54.0292013666575 ,75.9388334174655
2.0559486 ,Left ,40.7696383545858 ,54.0170356389471 ,75.9213338632854
2.0710855 ,Left ,40.6864891384229 ,54.0302315866275 ,75.8797495098297
2.0963579 ,Left ,40.6384094796786 ,54.0455542745448 ,75.8119512413548
2.1159236 ,Left ,40.6327901940885 ,54.0682705926508 ,75.7752805637046
2.1303067 ,Left ,40.5821937555316 ,54.0840776317551 ,75.7699679570352
2.1534629 ,Left ,40.4251437923553 ,54.0939058007468 ,75.6946608225672
2.1759732 ,Left ,40.2598907666799 ,54.086317708846 ,75.5567160948375
2.1970874 ,Left ,40.2557590589116 ,54.1130640553336 ,75.4569837516809
2.2136676 ,Left ,40.2602022692986 ,54.1560750126371 ,75.4418595161259
2.2358292 ,Left ,40.2931901995415 ,54.2030691219724 ,75.472557839545
2.2570356 ,Left ,40.3629480935998 ,54.2046853278372 ,75.4860331722756
2.2734736 ,Left ,40.5907912892667 ,54.0633740690832 ,75.4765705684032
2.2967263 ,Left ,40.6129538935727 ,53.8792807336744 ,75.4993430151298
2.3171186 ,Left ,40.5352414410085 ,53.7958968494447 ,75.6227769983694
2.3334759 ,Left ,40.4663242300919 ,53.7194105855945 ,75.6579102150715
2.3559803 ,Left ,40.6226935364626 ,53.6365453565798 ,75.6101615878779
2.3770761 ,Left ,40.8242230323002 ,53.5338091734728 ,75.6097672771868
2.3933287 ,Left ,40.8394830428804 ,53.4196481663771 ,75.6218798556592
2.4158897 ,Left ,40.8097177007908 ,53.3933588222623 ,75.6484873847252
2.4369662 ,Left ,40.8010150747408 ,53.4510616339545 ,75.6574183853934
2.4535275 ,Left ,40.8787951238126 ,53.5565574614618 ,75.6674878383919
2.4758641 ,Left ,40.9786939055398 ,53.6594589626534 ,75.6594280426169
2.4970589 ,Left ,41.0950537197121 ,53.691197657989 ,75.6712087124709
2.5135584 ,Left ,41.1236388536417 ,53.64660299254 ,75.6916754831997
2.5359828 ,Left ,41.0568651641785 ,53.5910680056357 ,75.705202195472
2.5569809 ,Left ,41.0254101879069 ,53.5665533576156 ,75.7339369430565
2.5733331 ,Left ,41.0763191924355 ,53.5349460484507 ,75.7876387492321
2.5958871 ,Left ,41.1530571667087 ,53.4881703092091 ,75.8448556204801
2.6168629 ,Left ,41.2049279159316 ,53.4409087089128 ,75.9009182152104
2.6333297 ,Left ,41.2441658164554 ,53.410160036869 ,75.9685433344385
2.6570811 ,Left ,41.2875459353615 ,53.3866461091838 ,76.02547042503
2.6768241 ,Left ,41.3526601665901 ,53.3676976686152 ,76.074099884631
2.6932975 ,Left ,41.41190821836 ,53.3560003123667 ,76.1132127710879
2.7158652 ,Left ,41.449949753341 ,53.3495196735595 ,76.1498560739227
2.7371742 ,Left ,41.4496695062609 ,53.350133226817 ,76.1869485720671
2.7534767 ,Left ,41.47160802425 ,53.3375660925187 ,76.2246035506089
2.7758098 ,Left ,41.5276590910974 ,53.3163631553395 ,76.2446871991635
2.7970028 ,Left ,41.5263571720659 ,53.3322692512105 ,76.2607329004697
2.8133332 ,Left ,41.4970358334427 ,53.3872740427973 ,76.2914868674693
2.8360898 ,Left ,41.4743255611637 ,53.4475587854526 ,76.3016131290267
2.8570271 ,Left ,41.4796595294476 ,53.5120716612853 ,76.3027148984379
2.8734064 ,Left ,41.4365164633244 ,53.574601096558 ,76.2854167569428
2.8958875 ,Left ,41.4020590879032 ,53.6377994517252 ,76.2262348814083
2.9206415 ,Left ,41.4405329175992 ,53.7160439825098 ,76.1452794779392
2.9327124 ,Left ,41.4027860411054 ,53.7885647170729 ,76.1038207976783
2.9559018 ,Left ,41.306240154323 ,53.8175691899688 ,76.111233712352
2.978538 ,Left ,41.2185962451405 ,53.8111859747916 ,76.0789933164929
2.9926943 ,Left ,41.238327440095 ,53.7778244991518 ,76.0314453608081
3.015957 ,Left ,41.3059274220353 ,53.7602624238979 ,76.0308004982948
3.0384615 ,Left ,41.2710669805067 ,53.7533067083204 ,76.044438403229
3.0527286 ,Left ,41.2027820105582 ,53.7257234844072 ,76.0220071702827
3.075836 ,Left ,41.0903059996 ,53.6765610387899 ,75.9658420763333
3.0983818 ,Left ,40.978813155663 ,53.6314388784301 ,75.9742808109695
3.1127006 ,Left ,40.9263851990062 ,53.6028969004244 ,75.9006727948715
3.1359623 ,Left ,40.9905352721632 ,53.5867513963828 ,75.8935855835041
3.1584136 ,Left ,41.0201743783429 ,53.5607280920058 ,75.9290221814627
3.1796569 ,Left ,40.9414926865749 ,53.6319508969026 ,75.9632239913212
3.195845 ,Left ,40.9705774065792 ,53.7155561925949 ,75.9703476688251
3.218335 ,Left ,41.0837596855291 ,53.7670156516005 ,75.9887836127986
3.2394881 ,Left ,41.1237304335621 ,53.8242741200147 ,76.0023265326944
3.2561997 ,Left ,41.0268470319165 ,53.8859900073512 ,76.0139496469455
3.2793187 ,Left ,40.9684676347696 ,53.950312279177 ,75.9837466602434
3.2994968 ,Left ,40.9673824662603 ,53.9804539196232 ,75.9788230868982
3.3159511 ,Left ,41.0153504104457 ,53.9804036184199 ,76.0038715257625
3.3383408 ,Left ,41.0297097996998 ,53.9822678497653 ,76.0192325828144
3.3529861 ,Left ,41.0230773281323 ,53.9993357767861 ,76.0363971187883
3.3758646 ,Left ,40.9853097843462 ,54.0320079022759 ,76.0600916544012
3.3986125 ,Left ,40.9911924060645 ,54.0453945133096 ,76.0724314505421
3.420951 ,Left ,40.9496385836473 ,54.0521979666864 ,76.0666636208205
3.4360397 ,Left ,40.9304290705449 ,53.9937586079108 ,76.0831968285238
3.4584281 ,Left ,40.9005195668338 ,54.013286651205 ,76.0734724669126
3.4638843 ,Left ,40.8353298119166 ,54.1126166198846 ,76.0915177505175
3.4863222 ,Left ,40.7539204235819 ,54.3007961471401 ,76.1206665402593
3.5044833 ,Left ,40.7602934301255 ,54.4788547706806 ,76.122916685039
3.5239844 ,Left ,40.787032775899 ,54.5397298970931 ,76.096222032893
3.5467781 ,Left ,40.8188134523749 ,54.512173860052 ,76.1039969785083
3.5616266 ,Left ,40.8076434466274 ,54.4209009771765 ,76.0726455448986
3.5838767 ,Left ,40.7385493174075 ,54.3452710281991 ,76.0101473659796
3.6017513 ,Left ,40.7043372986118 ,54.2768329671379 ,75.9681507523638
3.6214879 ,Left ,40.6948404287865 ,54.2029645866617 ,75.9323319002573
3.6437187 ,Left ,40.7535304269 ,54.1414622959809 ,75.9035644514308
3.661824 ,Left ,40.7789981960077 ,54.1293367533968 ,75.9129001524636
3.6813798 ,Left ,40.740109786218 ,54.1469554516418 ,75.920358930014
3.7038401 ,Left ,40.711933586663 ,54.1964120302468 ,75.8899024100093
3.7217831 ,Left ,40.739806469117 ,54.2630759043399 ,75.8206151339452
3.7412383 ,Left ,40.7634675087445 ,54.3251116578272 ,75.7627271640669
3.7638617 ,Left ,40.6699248867317 ,54.4089467341271 ,75.7382963286567
3.7863393 ,Left ,40.557717513806 ,54.4816539813758 ,75.7006926764885
3.8013378 ,Left ,40.4941639257029 ,54.5076514743174 ,75.6212731327931
3.8237301 ,Left ,40.5174169089921 ,54.5666989418482 ,75.6255909432351
3.8464061 ,Left ,40.5335948803791 ,54.6191140572146 ,75.6669721292856
3.8613978 ,Left ,40.5969503385512 ,54.6213928116201 ,75.6738057375772
3.883798 ,Left ,40.76801431705 ,54.4984285322687 ,75.6288525926738
3.9062292 ,Left ,40.8337303041394 ,54.3223728114693 ,75.633039805469
3.921448 ,Left ,40.7676241438649 ,54.187529421957 ,75.7102986000227
3.9440692 ,Left ,40.7235661277371 ,54.098067210707 ,75.7399931178138
3.9663961 ,Left ,40.8351871698522 ,54.0355940066405 ,75.7324289337733
3.9813552 ,Left ,40.9942245093554 ,53.9392551273054 ,75.7369308437643
4.0037671 ,Left ,41.0215298367088 ,53.8173589777453 ,75.7585228884791
4.0351626 ,Left ,40.9910236077612 ,53.756392125319 ,75.8053444565945
4.0412982 ,Left ,41.0392692844356 ,53.7366748332618 ,75.8455640979312
4.064084 ,Left ,41.1371218714402 ,53.7501820453585 ,75.873471786653
4.0863284 ,Left ,41.2255195776851 ,53.7649507977759 ,75.8941546058877
4.1014964 ,Left ,41.2558904276213 ,53.7423831035691 ,75.9321226682112
4.1238543 ,Left ,41.2435267516539 ,53.7346776152188 ,76.0186261713618
4.1416723 ,Left ,41.2472072122482 ,53.7637278707363 ,76.0999223994775
4.1614848 ,Left ,41.3087903567021 ,53.7857614785498 ,76.1774690143343
4.1840669 ,Left ,41.3941056072566 ,53.7908168876667 ,76.2474323785149
4.2016479 ,Left ,41.4199176749971 ,53.768365623752 ,76.3114241750251
4.2215511 ,Left ,41.4144572296761 ,53.7378907991032 ,76.3604618759156
4.2438925 ,Left ,41.4245181952002 ,53.7097892786195 ,76.3908561409761
4.2620846 ,Left ,41.4723694108589 ,53.6775771093775 ,76.4116049825919
4.2812826 ,Left ,41.4873592133122 ,53.6403179380413 ,76.4111709315531
4.3038695 ,Left ,41.5052957100781 ,53.6146233975093 ,76.4151684843614
4.3216644 ,Left ,41.4758000939281 ,53.6024011602854 ,76.416101777338
4.3413459 ,Left ,41.4623928489297 ,53.5798173529273 ,76.4071093430634
4.3642599 ,Left ,41.5437440457358 ,53.5550072799217 ,76.4230365757438
4.3816855 ,Left ,41.5529709313222 ,53.5699132094711 ,76.4436885236686
4.4012206 ,Left ,41.5151842616916 ,53.6139501287065 ,76.4568854754691
4.4238353 ,Left ,41.4873574955779 ,53.6857397277056 ,76.4293610730135
4.4417663 ,Left ,41.5054686925363 ,53.7449313529703 ,76.3640290599414
4.4627132 ,Left ,41.6113867777668 ,53.8068187177779 ,76.2736304067272
4.4839767 ,Left ,41.6032248431391 ,53.8754208219994 ,76.2342627853289
4.5016991 ,Left ,41.4659209591748 ,53.9765356876242 ,76.2472254729832
4.5227823 ,Left ,41.3837845817678 ,54.0432813916259 ,76.2239833380353
4.5438101 ,Left ,41.4110041795278 ,54.0815319002654 ,76.1827100961777
4.5629203 ,Left ,41.4600735788101 ,54.0735523868589 ,76.1721363914444
4.590294 ,Left ,41.4816053001076 ,54.0266308525878 ,76.1843776840827
4.6038065 ,Left ,41.4452080048171 ,53.9823385917857 ,76.206486288011
4.6217423 ,Left ,41.3406478897913 ,53.9373673479805 ,76.1884894192494
4.6427534 ,Left ,41.2612673473177 ,53.9059841724651 ,76.1490301829908
4.6638557 ,Left ,41.2364938254915 ,53.896165302049 ,76.1086733470916
4.6817568 ,Left ,41.2543091803043 ,53.8320940351762 ,76.0905028434177
4.7027739 ,Left ,41.1919549360572 ,53.7680378562201 ,76.0571671757486
4.7238752 ,Left ,41.0833940722524 ,53.7661854574499 ,76.0165145111503
4.741662 ,Left ,41.1165766180942 ,53.710033030259 ,76.0287158467154
4.765341 ,Left ,41.1908232001725 ,53.7163630833834 ,76.0472843273417
4.7837898 ,Left ,41.2631500685839 ,53.7988099910017 ,76.051003699399
4.8017412 ,Left ,41.3046476530712 ,53.8619812472509 ,76.1107225229539
4.8241856 ,Left ,41.3113350503358 ,53.9121882890923 ,76.1326352906109
4.8437251 ,Left ,41.2592474750652 ,53.9726839050717 ,76.1145463973298
4.8693984 ,Left ,41.200251577788 ,54.0098813495022 ,76.0450910159968
4.8890138 ,Left ,41.2137352583223 ,54.0598420952194 ,75.9574551690266
4.9039047 ,Left ,41.1389074614509 ,54.0357689319646 ,75.956278217586
4.9217475 ,Left ,41.149666689964 ,53.974248942228 ,76.0102310273315
4.9441616 ,Left ,41.1443870762594 ,53.92443167848 ,75.9699613441393
4.9638521 ,Left ,41.1573958002855 ,53.9119259313098 ,75.960118974092
4.981731 ,Left ,41.1602085374577 ,53.9720255463291 ,76.0089039125605
5.004435 ,Left ,41.141743598379 ,54.0178886986282 ,76.0391008535425
5.0236077 ,Left ,41.0957859239779 ,54.0515109462713 ,76.0299571914219
5.0419122 ,Left ,41.0137394550759 ,54.0265088639275 ,76.0431567895349
5.0644173 ,Left ,41.055132212551 ,54.0022843208204 ,76.0639612186793
5.0839976 ,Left ,41.0340792374978 ,54.0223925006943 ,76.0928063030759
5.1016261 ,Left ,40.8903418512468 ,54.1022834778921 ,76.1043013463039
5.1244276 ,Left ,40.8372533619404 ,54.2746913162431 ,76.1120633594678
5.1467549 ,Left ,40.9067178622632 ,54.3917602164863 ,76.0964480158192
5.1643469 ,Left ,40.9675748677955 ,54.4100954673393 ,76.095267193124
5.1916259 ,Left ,40.9618033220579 ,54.3625043571034 ,76.1034983282659
5.2038495 ,Left ,40.9559789048418 ,54.2512374700275 ,76.0776612589372
5.2217348 ,Left ,40.9548561743614 ,54.1775430714977 ,76.0769113041862
5.2442422 ,Left ,40.9286197288545 ,54.1406432070601 ,76.0722300078948
5.2638751 ,Left ,40.9025580978582 ,54.1281663409502 ,76.0575069289991
5.281725 ,Left ,40.9844637673076 ,54.1361040012011 ,76.0466400601087
5.3041582 ,Left ,41.0717750816564 ,54.1093946431319 ,76.0253181459346
5.324609 ,Left ,41.053191589932 ,54.1198904341899 ,76.0023452233496
5.3409179 ,Left ,40.9688398391897 ,54.1852704497225 ,75.9796611983632
5.3647546 ,Left ,40.8824384795533 ,54.2562354208224 ,75.9315501995504
5.3844677 ,Left ,40.8783412179961 ,54.2902995269449 ,75.8649591046922
5.4008746 ,Left ,40.9278252332267 ,54.286614506322 ,75.8100612040651
5.4233382 ,Left ,40.924711485655 ,54.2924331453769 ,75.8096732663496
5.4448015 ,Left ,40.8366577023344 ,54.3038550025097 ,75.8144911031918
5.4608627 ,Left ,40.7819352165699 ,54.3160520549034 ,75.7947575592502
5.4833633 ,Left ,40.7922184057857 ,54.3093884022913 ,75.7693160340832
5.5045469 ,Left ,40.788180989507 ,54.2852651747849 ,75.7519891488051
5.520867 ,Left ,40.7249684170823 ,54.2626724590579 ,75.7491002809507
5.5434568 ,Left ,40.6468816028204 ,54.2612470814355 ,75.7610579745044
5.5662778 ,Left ,40.6864371280749 ,54.2445452751442 ,75.7531094457238
5.5809641 ,Left ,40.8066914502346 ,54.1569846520095 ,75.7419611837005
5.603337 ,Left ,40.9054307905413 ,53.9750366765361 ,75.7078504950276
5.6244782 ,Left ,40.8596594659564 ,53.8257017019085 ,75.7207975801432
5.6403165 ,Left ,40.8048607098716 ,53.824500470169 ,75.8211200202316
5.6634447 ,Left ,40.8220706088474 ,53.8386158293321 ,75.8242862744865
5.6847048 ,Left ,40.9552387177035 ,53.8749190139131 ,75.7644887779289
5.7006701 ,Left ,41.051193431732 ,53.8440010481996 ,75.782073560162
5.7233858 ,Left ,41.0392900274653 ,53.7831194132023 ,75.8129577701644
5.7459014 ,Left ,41.0137232442147 ,53.7734347005991 ,75.843978281375
5.7601431 ,Left ,41.0315248678482 ,53.8226617337242 ,75.8477793436197
5.7833765 ,Left ,41.1308005104061 ,53.8416315112911 ,75.8350166709945
5.8058379 ,Left ,41.2140192336635 ,53.821153400697 ,75.8472327803297
5.8210856 ,Left ,41.1848843614682 ,53.7412736250107 ,75.8627900779919
5.8436629 ,Left ,41.128633494474 ,53.7115946461686 ,75.9122732190682
5.8659682 ,Left ,41.1410855443987 ,53.6997402911677 ,75.9580876906548
5.8802897 ,Left ,41.1967863450097 ,53.6749811103946 ,75.9944753534818
5.9035313 ,Left ,41.3190003554139 ,53.6468155889618 ,76.0341448001158
5.9261458 ,Left ,41.4220662039819 ,53.6010454983032 ,76.0741755745617
5.9403579 ,Left ,41.4367487672897 ,53.56775048013 ,76.1168732156551
5.9634534 ,Left ,41.4175014035096 ,53.5597665241315 ,76.1402558091863
5.9872069 ,Left ,41.4567791404013 ,53.5543924700094 ,76.1459255151148
6.0008647 ,Left ,41.5398056815057 ,53.5447144232641 ,76.1565196140272
6.0234131 ,Left ,41.5882566602208 ,53.5461790244463 ,76.1687175967305
6.0460716 ,Left ,41.5633424958739 ,53.5477716882676 ,76.1791703154927
6.0602001 ,Left ,41.57677649198 ,53.5321589625259 ,76.1823390181926
6.0834626 ,Left ,41.6095075267613 ,53.5189930585047 ,76.1784175654815
6.1058146 ,Left ,41.6145286196238 ,53.5120561058867 ,76.1599958176474
6.1202623 ,Left ,41.5853047495866 ,53.537525602163 ,76.1675821348373
6.1433532 ,Left ,41.547156190478 ,53.5797089683698 ,76.1711659277701
6.1658651 ,Left ,41.5309726030083 ,53.6261189089298 ,76.1639360361401
6.1802829 ,Left ,41.5418036705998 ,53.6661061790143 ,76.1557888030968
6.2034407 ,Left ,41.6225991078183 ,53.709479959065 ,76.1039010388962
6.2257754 ,Left ,41.5608594902152 ,53.7694682373911 ,76.0687237972853
6.2471904 ,Left ,41.5002404407648 ,53.8026112677701 ,76.0747715377229
6.2639325 ,Left ,41.4093162808088 ,53.8093894807875 ,76.0563768602503
6.2858415 ,Left ,41.3991894038192 ,53.7960192497916 ,76.0324268345779
6.3070287 ,Left ,41.4507182692548 ,53.7581571670624 ,76.0166360936769
6.3234691 ,Left ,41.4253454656934 ,53.737352859804 ,76.0337279201122
6.3459688 ,Left ,41.355421265103 ,53.7379309130648 ,76.049728409269
6.3669545 ,Left ,41.3058809819983 ,53.7297703533877 ,76.0201161505647
6.3837143 ,Left ,41.2779614804431 ,53.7014040302419 ,75.9745874229869
6.4058812 ,Left ,41.2219808228512 ,53.6726852246568 ,75.9622667908502
6.4269983 ,Left ,41.1963036544846 ,53.6498548404846 ,75.9372022597645
6.4433045 ,Left ,41.2063273605362 ,53.6716328072924 ,75.9254289206625
6.4656692 ,Left ,41.1901616344083 ,53.7189333757545 ,75.9208299978734
6.4871438 ,Left ,41.1026340088264 ,53.7336626305392 ,75.913534860344
6.50332 ,Left ,41.1723115926108 ,53.7571951207825 ,75.9207920724641
6.526089 ,Left ,41.2680450306183 ,53.7839305430432 ,75.8893079818469
6.5469049 ,Left ,41.3003861090367 ,53.8024659103603 ,75.9051407184316
6.5629544 ,Left ,41.2299705161997 ,53.8263342529323 ,75.9081197992658
6.5862412 ,Left ,41.1348035945229 ,53.8478881415844 ,75.897692092345
6.6070127 ,Left ,41.1076761320096 ,53.8800586091996 ,75.8637083332802
6.6227301 ,Left ,41.082273428557 ,53.9400694521732 ,75.8124561219558
6.645943 ,Left ,41.1133806166427 ,53.9288887542432 ,75.8640596600284
6.668455 ,Left ,41.1035884930888 ,53.8931204140319 ,75.8777954530613
6.6832963 ,Left ,41.118526629876 ,53.8682353341043 ,75.8545111117178
6.7059747 ,Left ,41.1430399850979 ,53.8629140563654 ,75.8568169103482
6.7283588 ,Left ,41.1245500806101 ,53.9038283379643 ,75.8750942171511
6.7436673 ,Left ,41.1068390628262 ,53.9388842937565 ,75.8727762535786
6.7658254 ,Left ,41.0932853316428 ,53.9782945536589 ,75.8719527620984
6.788464 ,Left ,41.0403823686533 ,53.9359894943505 ,75.8826790918903
6.8094548 ,Left ,41.0194042405222 ,53.9677469954493 ,75.8783437591497
6.8260159 ,Left ,40.9866003255559 ,54.0291938951455 ,75.8897386597688
6.8483343 ,Left ,40.9110962626243 ,54.1228386764521 ,75.8824943124543
6.8632371 ,Left ,40.8642892142832 ,54.2450449688422 ,75.865359694349
6.8857947 ,Left ,40.8919076541344 ,54.2799894425519 ,75.8331494337788
6.9084045 ,Left ,40.9726165570692 ,54.2552508451074 ,75.8409175066013
6.9298811 ,Left ,40.956926499505 ,54.1855651734671 ,75.8267726285241
6.9460595 ,Left ,40.8886196772963 ,54.1183958824736 ,75.8133711081882
6.9684102 ,Left ,40.852765311546 ,54.0425894483197 ,75.8080223317874
6.9827241 ,Left ,40.9091447515263 ,53.9537089426493 ,75.8274272321144
7.0067632 ,Left ,40.9530001572821 ,53.8770446691186 ,75.8504297449086
7.0284302 ,Left ,40.9832018158333 ,53.8239210446496 ,75.8814316675191
7.0427793 ,Left ,41.0089736732722 ,53.7879109346218 ,75.916406409205
7.0661616 ,Left ,41.0327601058102 ,53.752514735856 ,75.933226494137
7.0883428 ,Left ,41.0791236678022 ,53.7123795507611 ,75.9340421248715
7.1027086 ,Left ,41.0920664231627 ,53.70260509681 ,75.9084936829031
7.1258276 ,Left ,41.0573019082662 ,53.7394206334888 ,75.8784633889529
7.1483669 ,Left ,41.0129205653943 ,53.8086228306247 ,75.8505292568716
7.169475 ,Left ,40.9757194107023 ,53.8792780454625 ,75.8087995966848
7.1859309 ,Left ,40.9494866262461 ,53.9584797022492 ,75.7882339558875
7.2084718 ,Left ,40.9216567869735 ,54.0595786238745 ,75.7828592062693
7.229813 ,Left ,40.818849087762 ,54.1413763984887 ,75.7547076704692
7.2458731 ,Left ,40.7193369139311 ,54.2258230604658 ,75.6882791874762
7.2685439 ,Left ,40.6679319592738 ,54.2794637408367 ,75.6023982470755
7.2896902 ,Left ,40.6335911608458 ,54.2836258206517 ,75.5618647438729
7.3058391 ,Left ,40.5375941377062 ,54.3209928519166 ,75.5240635463592
7.328582 ,Left ,40.5198799222585 ,54.3795961847748 ,75.4988754663442
7.3498287 ,Left ,40.5334647086464 ,54.4604775952194 ,75.5102784686353
7.3658145 ,Left ,40.555447731846 ,54.5490375750178 ,75.5379884758539
7.388343 ,Left ,40.5766177091261 ,54.5749325042629 ,75.5514866424726
7.4098203 ,Left ,40.7866405610667 ,54.4147286101775 ,75.5709168432882
7.4258035 ,Left ,40.8669649620609 ,54.1442747707862 ,75.527079144399
7.4498381 ,Left ,40.7902172989877 ,54.021315751503 ,75.6141110767429
7.4694861 ,Left ,40.7924195237043 ,53.9948849455572 ,75.7474482237994
7.485921 ,Left ,40.8675371862814 ,53.9374720396706 ,75.7151940902899
7.5085806 ,Left ,41.0251783010194 ,53.8835601437209 ,75.6853745739489
7.5309209 ,Left ,41.1002235062666 ,53.8079074532068 ,75.7268916257658
7.5452328 ,Left ,41.0344984622061 ,53.7534101264277 ,75.754583097214
7.5684246 ,Left ,41.0060218921726 ,53.7550960594838 ,75.7690543583168
7.5894765 ,Left ,41.0601258091758 ,53.7569635146207 ,75.7521304953707
7.6050882 ,Left ,41.1876958968498 ,53.7538513625728 ,75.7562671204051
7.6283591 ,Left ,41.2468660967901 ,53.7306244745457 ,75.782672633773
7.6508637 ,Left ,41.2277936895376 ,53.6697509211519 ,75.8023548534983
7.6651812 ,Left ,41.2014775963535 ,53.6575230994191 ,75.8246404315327
7.6883189 ,Left ,41.2483532400803 ,53.6525766441754 ,75.8412569878857
7.7107411 ,Left ,41.3177555943615 ,53.6560355569912 ,75.8640795357381
7.7258134 ,Left ,41.3741392425354 ,53.6379188847595 ,75.9026057654751
7.7482685 ,Left ,41.4349168526554 ,53.5936467120352 ,75.9473674873975
7.7707767 ,Left ,41.4743193058213 ,53.5412626518924 ,75.994374166103
7.7852799 ,Left ,41.483653848096 ,53.4969914504014 ,76.0180289782611
7.8083542 ,Left ,41.4863197713516 ,53.461533917025 ,76.0142235998267
7.8309224 ,Left ,41.5180261753129 ,53.4321126486921 ,76.0190081300886
7.8478347 ,Left ,41.5575476248711 ,53.3857915651602 ,76.0159345674914
7.8684609 ,Left ,41.5970781510419 ,53.341697433312 ,76.009637521087
7.8909453 ,Left ,41.584249227262 ,53.3300758003942 ,75.9956735842259
7.91222 ,Left ,41.5589362425519 ,53.3574124641957 ,76.0266318697778
7.9283532 ,Left ,41.5472957041543 ,53.4229268215742 ,76.0547057024485
7.9509048 ,Left ,41.5392844443394 ,53.5018127650854 ,76.0588083906456
7.9721349 ,Left ,41.6329946116326 ,53.5919965478847 ,76.0430730121196
7.9886157 ,Left ,41.6287059816945 ,53.6504674560222 ,76.0411166546873
8.0108796 ,Left ,41.5282923861579 ,53.6909789521491 ,76.055963942125
8.0320443 ,Left ,41.4097211249708 ,53.7177201932495 ,76.0212671910477
8.0486561 ,Left ,41.4443465364042 ,53.6889274162633 ,75.9825884218952
8.0708476 ,Left ,41.5224412583664 ,53.6415142698024 ,75.9481935525676
8.0922533 ,Left ,41.4681447142814 ,53.617266880988 ,75.9526085369699
8.1084493 ,Left ,41.4037214014322 ,53.5887342951443 ,75.9386119341074
8.1309004 ,Left ,41.3060659159588 ,53.5464151434837 ,75.8446750084256
8.1519729 ,Left ,41.2687799741489 ,53.5234169526473 ,75.7857041178068
8.1685842 ,Left ,41.2150589210479 ,53.4855607209055 ,75.7630113131433
8.1910989 ,Left ,41.1962503602489 ,53.504023170012 ,75.7086474536429
8.211976 ,Left ,41.1700538667271 ,53.5015471468624 ,75.7050385126176
8.2284612 ,Left ,41.2095563602279 ,53.47584833932 ,75.73831532801
8.2512031 ,Left ,41.2683335470395 ,53.4652542267484 ,75.7378646216025
8.2720434 ,Left ,41.3055023282764 ,53.5079120503851 ,75.7631666155063
8.2883535 ,Left ,41.3298195707536 ,53.5802025999662 ,75.7799584003614
8.3109126 ,Left ,41.2806368904232 ,53.6534601091086 ,75.7707821018442
8.3320098 ,Left ,41.2435409285094 ,53.7046309704153 ,75.7357722766473
8.3482515 ,Left ,41.2338992274148 ,53.7881255668507 ,75.6841510084658
8.3709417 ,Left ,41.2369107845732 ,53.8304343244319 ,75.6767439315741
8.3920565 ,Left ,41.2492187368279 ,53.8411966435958 ,75.7030186163069
8.4084528 ,Left ,41.2532443901904 ,53.826948862552 ,75.6833888024343
8.4309272 ,Left ,41.2981724916139 ,53.8095564581683 ,75.6871445999912
8.4520615 ,Left ,41.2697047304796 ,53.8208975186149 ,75.6753314597621
8.4745409 ,Left ,41.191184078957 ,53.8365479794813 ,75.644333287583
8.4909379 ,Left ,41.2200996991962 ,53.8284572080868 ,75.6220518185434
8.512038 ,Left ,41.1647544240026 ,53.7830071637726 ,75.648735192311
8.5284695 ,Left ,41.0977715286975 ,53.7959781242258 ,75.6559390858526
8.5508533 ,Left ,41.0600767741646 ,53.8558631072843 ,75.6864786430614
8.5735146 ,Left ,40.995109553981 ,53.9529140144389 ,75.6947345108941
8.5943328 ,Left ,41.0238372924901 ,54.0681063597672 ,75.6951107132384
8.610912 ,Left ,41.115827944153 ,54.0982538420264 ,75.6644821104409
8.633363 ,Left ,41.1163194214949 ,54.0509380063082 ,75.6597680186828
8.6479554 ,Left ,41.045223631912 ,54.0072374414695 ,75.6642058754072
8.6709218 ,Left ,40.9342083514854 ,53.9867426244305 ,75.6850778292329
8.6934594 ,Left ,40.9221566708938 ,53.968794549491 ,75.6810378488519
8.7078594 ,Left ,40.9804393185754 ,53.9445061055082 ,75.6437092499501
8.7308008 ,Left ,41.0227979088075 ,53.9023349679133 ,75.6062482628846
8.753304 ,Left ,40.9978952546974 ,53.8919187786639 ,75.6155930393458
8.7677189 ,Left ,40.9122888888451 ,53.886673988348 ,75.5715810722241
8.7908219 ,Left ,40.8706738751054 ,53.9144329228677 ,75.5073899624585
8.8134986 ,Left ,40.888628883442 ,53.973986937417 ,75.4632788176068
8.8276199 ,Left ,40.8960750774994 ,54.0106790867404 ,75.4130249672993
8.8510318 ,Left ,40.8935981688337 ,54.0223266117253 ,75.4083879331819
8.8734297 ,Left ,40.8527271693832 ,54.1022674132611 ,75.4662849561145
8.8946135 ,Left ,40.9070974252018 ,54.2037388402603 ,75.476521792798
8.910812 ,Left ,41.0406746776494 ,54.2148948498189 ,75.4757442188165
8.9333056 ,Left ,41.1646089307813 ,54.101788051544 ,75.4755165747122
8.9544573 ,Left ,41.1408895095862 ,53.9422270114527 ,75.5021677255022
8.9707891 ,Left ,41.0220794649349 ,53.8721192486093 ,75.571803547722
8.993336 ,Left ,40.9803523856333 ,53.8021044099589 ,75.5518898373191
9.0146015 ,Left ,41.0950814737015 ,53.7475121374356 ,75.497509282424
9.0308099 ,Left ,41.1935698222454 ,53.671436211694 ,75.489418397035
9.0533659 ,Left ,41.1965390655331 ,53.5939814216566 ,75.4808944505777
9.0744916 ,Left ,41.0926069080083 ,53.558538650232 ,75.4854767680656
9.0909333 ,Left ,41.1941806371807 ,53.5303242650278 ,75.5136285693195
9.1134781 ,Left ,41.2321370836945 ,53.5361900431218 ,75.5205699602909
9.134562 ,Left ,41.303770052197 ,53.5531369661253 ,75.5374845273764
9.1509243 ,Left ,41.3396437400211 ,53.5003557653344 ,75.5700681968634
9.1562846 ,Left ,41.2946790385059 ,53.465069384727 ,75.6147898777332
9.1787381 ,Left ,41.2850074594984 ,53.4409151434314 ,75.6600398675201
9.201238 ,Left ,41.3128952902868 ,53.4216861270216 ,75.7094260117141
9.2163218 ,Left ,41.3867953472784 ,53.3981928890578 ,75.7663321482256
9.2388114 ,Left ,41.4288905055257 ,53.3484429361828 ,75.8274558094489
9.2566562 ,Left ,41.4132019936346 ,53.3015218068818 ,75.8718998184739
9.27625 ,Left ,41.4043335266646 ,53.2629405541323 ,75.9108456841089
9.2988366 ,Left ,41.4303105630986 ,53.2430603432345 ,75.9332791533622
9.3167706 ,Left ,41.4740647237902 ,53.2369008857262 ,75.9562258704179
9.3364677 ,Left ,41.4986616363129 ,53.2393806647558 ,75.9694848366007
9.3587904 ,Left ,41.4861048923312 ,53.2578516655913 ,75.9776868187627
9.3768312 ,Left ,41.5044141484124 ,53.2875152175536 ,75.9845518663848
9.3962847 ,Left ,41.5262436732505 ,53.3253672622985 ,75.9862564224088
9.4186842 ,Left ,41.5521643482792 ,53.3508931425709 ,75.9920983310095
9.4366645 ,Left ,41.5582351916332 ,53.3813974437007 ,76.0045022571326
9.4562191 ,Left ,41.5314625706321 ,53.4281012628061 ,76.0385459575251
9.4787866 ,Left ,41.5014386957197 ,53.4664155118648 ,76.025681045084
9.4969452 ,Left ,41.4949449284609 ,53.487727616414 ,75.9868754400208
9.5164781 ,Left ,41.5093608947367 ,53.5305507277909 ,75.9741947086126
9.5387992 ,Left ,41.5173186702456 ,53.5864270623599 ,75.9394539187541
9.5614938 ,Left ,41.5780674736105 ,53.6687566486151 ,75.8668304790805
9.5762727 ,Left ,41.520445357494 ,53.7354624253922 ,75.8516135307483
9.5989043 ,Left ,41.4417254760959 ,53.7588371207366 ,75.8832469399136
9.6215963 ,Left ,41.4148145801643 ,53.7537023322359 ,75.8490570552748
9.6365135 ,Left ,41.4806026347407 ,53.7385188475206 ,75.8184061751251
9.6589243 ,Left ,41.5435762761649 ,53.719665342689 ,75.8314407695826
9.6766061 ,Left ,41.4942849371628 ,53.6926174965066 ,75.8627469910002
9.7001361 ,Left ,41.3910853304739 ,53.6822008436198 ,75.8495134793734
9.718804 ,Left ,41.294665946696 ,53.6323262091162 ,75.8052533404488
9.7366447 ,Left ,41.2636776366211 ,53.5672343150657 ,75.7670729485171
9.7562577 ,Left ,41.3350599512901 ,53.5047793481614 ,75.7487473597015
9.778984 ,Left ,41.3893612161014 ,53.456207361631 ,75.7227424200088
9.796644 ,Left ,41.3516033800188 ,53.4457096257453 ,75.7194182204027
9.8163526 ,Left ,41.2579889863464 ,53.4952294676594 ,75.7347982806663
9.8388433 ,Left ,41.281274804871 ,53.5603013619477 ,75.7313451509031
9.8612865 ,Left ,41.4499120954751 ,53.5953129760564 ,75.7249005567556
9.8765891 ,Left ,41.5091467406245 ,53.6078491430231 ,75.7397147860397
9.8990772 ,Left ,41.4281217452199 ,53.6239264268206 ,75.7608473380564
9.9213412 ,Left ,41.2988490848154 ,53.6475427565299 ,75.7379832552869
9.9364045 ,Left ,41.28596081463 ,53.6825571845747 ,75.676731858672
9.9589962 ,Left ,41.3090517816987 ,53.7584879346851 ,75.6508363404256
9.9765561 ,Left ,41.2591181175827 ,53.8441710456323 ,75.6490883775818
9.9962259 ,Left ,41.2393865950947 ,53.905247664873 ,75.6732399822781
10.0188626 ,Left ,41.2579004974942 ,53.9321592781554 ,75.6597168358265
10.0369817 ,Left ,41.3057816710343 ,53.9280679703163 ,75.6397247935616
10.056286 ,Left ,41.2662886694525 ,53.9536261218656 ,75.6516514509449
10.0786862 ,Left ,41.1907734038535 ,53.9908396020773 ,75.6958714576188
10.0968604 ,Left ,41.1746039493807 ,53.9873188852136 ,75.6960907814589
10.1188492 ,Left ,41.1727409738663 ,53.9783058129111 ,75.6888090198899
10.1403147 ,Left ,41.1145987727168 ,53.9593225382963 ,75.6809668683323
10.1644199 ,Left ,41.0942745916058 ,53.9990788080975 ,75.6505763003557
10.1776681 ,Left ,41.1123251433674 ,54.0255501100615 ,75.6706766072041
10.1988472 ,Left ,41.0656053115824 ,54.0639532533949 ,75.6943529403623
10.2166623 ,Left ,40.9782700297216 ,54.1800081588771 ,75.6944100111401
10.2376732 ,Left ,41.0264944914166 ,54.215678475465 ,75.6493427299256
10.2587824 ,Left ,41.1233805416003 ,54.1914647468353 ,75.669981963907
10.2767408 ,Left ,41.1225505311078 ,54.1009132170229 ,75.6598649383411
10.2990308 ,Left ,41.0060279641303 ,54.0612011352458 ,75.6838617284141
10.3188623 ,Left ,40.9092461169117 ,54.0540077577875 ,75.6691517415868
10.3368796 ,Left ,40.9632819594335 ,54.0266783743401 ,75.6208984186157
10.3578178 ,Left ,41.0493694450889 ,54.0099140424454 ,75.5897132123497
10.3787867 ,Left ,41.0503431213072 ,54.0004526664111 ,75.5971589462341
10.3965814 ,Left ,40.9630279758022 ,54.0000906514236 ,75.588767633696
10.4178601 ,Left ,40.9357159101847 ,54.0125924736128 ,75.5579772711602
10.4389226 ,Left ,40.9495295935981 ,54.0264934316444 ,75.5102785199824
10.4566139 ,Left ,40.9792331231579 ,54.0389598141331 ,75.4845226088607
10.4793618 ,Left ,40.9740090317452 ,54.0348803458797 ,75.4740615828945
10.4989497 ,Left ,40.9350477326127 ,54.0383934841409 ,75.489521662105
10.5167229 ,Left ,40.8970034362153 ,54.0767990554763 ,75.4993505006544
10.5390805 ,Left ,40.8676505272242 ,54.1094906744357 ,75.4929618058242
10.5589292 ,Left ,40.9043047784803 ,54.1133098518802 ,75.4979061465604
10.5765865 ,Left ,40.8274381873809 ,54.1183377399617 ,75.5294869545157
10.5991046 ,Left ,40.8057411780983 ,54.128839877398 ,75.5561383358685
10.6187735 ,Left ,40.9434428378641 ,54.0807548151205 ,75.5512450575859
10.6367639 ,Left ,41.0844633499539 ,53.9241278178484 ,75.5091413576013
10.6592035 ,Left ,41.0238959112427 ,53.774531055344 ,75.5241987721289
10.678739 ,Left ,40.9109196904054 ,53.7704275347946 ,75.6469257727206
10.6967129 ,Left ,40.8894874557207 ,53.7593180321032 ,75.619558957469
10.7197176 ,Left ,41.0395280414436 ,53.7617269103882 ,75.5476978527633
10.7402843 ,Left ,41.1283201596441 ,53.7150168488139 ,75.5453978159689
10.7565837 ,Left ,41.0837229551839 ,53.6258821535201 ,75.5327960352461
10.7791893 ,Left ,40.9188092582621 ,53.5719338201915 ,75.5319087305012
10.7990522 ,Left ,41.0186453189156 ,53.5538293448563 ,75.5761727160688
10.8165711 ,Left ,41.0750950176569 ,53.5974342204074 ,75.5668007938324
10.83903 ,Left ,41.1550870434689 ,53.6432230906007 ,75.5708314583847
10.8587875 ,Left ,41.2060294343609 ,53.6110025253244 ,75.5728710591463
10.8767449 ,Left ,41.2075343827507 ,53.5546551254828 ,75.5763610014071
10.8991644 ,Left ,41.1553499501936 ,53.5729825223574 ,75.6163353308029
10.9187699 ,Left ,41.1369501311224 ,53.5796697991324 ,75.6216376374145
10.9366774 ,Left ,41.1646476982169 ,53.5856504187044 ,75.6215825644782
10.9591127 ,Left ,41.2345222280335 ,53.5758794890232 ,75.6462944786311
10.9788039 ,Left ,41.2531636598995 ,53.5441851755059 ,75.6787429987725
10.9958274 ,Left ,41.2348092520071 ,53.5113196588871 ,75.7060970585618
11.0185099 ,Left ,41.2636160736244 ,53.4835850971525 ,75.7204619227391
11.0395175 ,Left ,41.3057234606768 ,53.4658833247037 ,75.7367583294229
11.0558548 ,Left ,41.3264513825652 ,53.454326651984 ,75.7711890143857
11.0785514 ,Left ,41.3576645954202 ,53.4427664874462 ,75.782346094351
11.0997425 ,Left ,41.3996443100659 ,53.4354662819002 ,75.7941071637125
11.1159006 ,Left ,41.4375048329247 ,53.4285224685613 ,75.8124865031411
11.1393259 ,Left ,41.4601276934074 ,53.40681108678 ,75.8117108050192
11.1595112 ,Left ,41.4655306422521 ,53.4253775649138 ,75.8228147165838
11.1758034 ,Left ,41.4559924365623 ,53.4595836062077 ,75.8403392088714
11.1983747 ,Left ,41.4230454466536 ,53.5239716909128 ,75.8752813866459
11.2196887 ,Left ,41.4256672173208 ,53.5802113583702 ,75.88704487576
11.2357596 ,Left ,41.4564336303007 ,53.6324389370913 ,75.8546781411908
11.2584464 ,Left ,41.545815181107 ,53.6716815299577 ,75.808093169518
11.2793112 ,Left ,41.4852459010439 ,53.720791892638 ,75.8232559906569
11.295845 ,Left ,41.3867338330374 ,53.7423727390831 ,75.8377400475376
11.3184593 ,Left ,41.335233594391 ,53.7429385204453 ,75.8040769575262
11.3397466 ,Left ,41.3899575171036 ,53.7074749009519 ,75.7661819961654
11.3558369 ,Left ,41.4654182187898 ,53.6640959543652 ,75.753633167273
11.378612 ,Left ,41.4043367653549 ,53.6338956524276 ,75.7817653635756
11.4008443 ,Left ,41.3398458615437 ,53.6077218522137 ,75.767472752775
11.415191 ,Left ,41.2903640921758 ,53.5679723203878 ,75.7251963516149
11.4383654 ,Left ,41.3026244850739 ,53.5104863649553 ,75.7114691598707
11.4609148 ,Left ,41.2852595904902 ,53.4933919587384 ,75.7085735935067
11.4758571 ,Left ,41.2364649046844 ,53.4766607009392 ,75.6812500458214
11.4985074 ,Left ,41.2412954370086 ,53.5202881838926 ,75.657839737702
11.5270131 ,Left ,41.2311511001173 ,53.581488272485 ,75.6643909841119
11.5352435 ,Left ,41.2403880285256 ,53.6445931002146 ,75.6914123743457
11.5585239 ,Left ,41.3103163876987 ,53.6781182240514 ,75.6853160676896
11.5809266 ,Left ,41.3737815558833 ,53.687293834988 ,75.7055580240308
11.5952304 ,Left ,41.3288563373545 ,53.6954287505383 ,75.7154333450074
11.6183673 ,Left ,41.2085044048475 ,53.702336390422 ,75.6967215219605
11.6409343 ,Left ,41.1581517675178 ,53.7086992321307 ,75.6593258732434
11.6619302 ,Left ,41.185355087971 ,53.7125745595394 ,75.6172363543361
11.6784504 ,Left ,41.1744502485497 ,53.7280421508393 ,75.5833517382795
11.7012295 ,Left ,41.1300949047228 ,53.6813284557997 ,75.6085081792423
11.7152857 ,Left ,41.118038484318 ,53.6467486197999 ,75.6107246201477
11.7383494 ,Left ,41.1914499677268 ,53.6123957450994 ,75.5450611838655
11.7608961 ,Left ,41.248442719823 ,53.6222279464317 ,75.5540489720644
11.7824109 ,Left ,41.2364030704253 ,53.7047477183628 ,75.6091803773918
11.7980699 ,Left ,41.1578453214266 ,53.7748955756863 ,75.6240019580587
11.8208049 ,Left ,41.1675571965809 ,53.8478214576651 ,75.6040963395408
11.8351788 ,Left ,41.1593042775958 ,53.8960839010708 ,75.6251368047376
11.8582602 ,Left ,41.1330021009494 ,53.9261889631145 ,75.6401319621044
11.8808912 ,Left ,41.1180110187579 ,53.9986072323124 ,75.6340813640875
11.9019983 ,Left ,41.0817822679526 ,54.036200367562 ,75.6468575646547
11.9184299 ,Left ,41.0424439539113 ,54.144707961839 ,75.6609027102129
11.9409211 ,Left ,41.0267884509908 ,54.2503654667938 ,75.6287611375875
11.9622238 ,Left ,41.0887517699795 ,54.272670023791 ,75.599222834869
11.9785656 ,Left ,41.1721903931634 ,54.221075800265 ,75.6020698214326
12.0008698 ,Left ,41.1529328447807 ,54.1107208207654 ,75.5797014162557
12.0220723 ,Left ,41.0547685655781 ,54.0505738564947 ,75.5727967607979
12.0390068 ,Left ,41.0053830384066 ,54.0046924515254 ,75.5646919141694
12.0609477 ,Left ,41.0457985102813 ,53.9491964090195 ,75.5637152740815
12.0833698 ,Left ,41.1378452777416 ,53.9167765471505 ,75.5584991772003
12.1061148 ,Left ,41.1543608106161 ,53.9036985208244 ,75.5607889920152
12.1208846 ,Left ,41.0959484432311 ,53.9373082755266 ,75.5718293596333
12.1419467 ,Left ,41.0556428167806 ,53.9671044733241 ,75.5435897819512
12.1584604 ,Left ,41.0626590969891 ,53.9872068884879 ,75.4692255742123
12.1820547 ,Left ,41.0116473654025 ,54.0436535839084 ,75.4323163071647
12.2019057 ,Left ,40.9272149194152 ,54.1432211356328 ,75.3882296402026
12.2185684 ,Left ,40.8838236048475 ,54.1932361216298 ,75.3206220782546
12.2409141 ,Left ,40.8895754036508 ,54.2153237662288 ,75.3129738553322
12.2619125 ,Left ,40.9523915711045 ,54.2463339894022 ,75.3608302293286
12.2776698 ,Left ,41.0098523703764 ,54.2621411353715 ,75.3699307204704
12.3008398 ,Left ,41.1348205524621 ,54.1750042958974 ,75.3596071632115
12.3218858 ,Left ,41.2169530673148 ,54.0194256073798 ,75.3826173655358
12.3377569 ,Left ,41.1773755866464 ,53.9690348739082 ,75.5218104723179
12.361267 ,Left ,41.0988446361729 ,53.9447493947777 ,75.5638649455008
12.3833901 ,Left ,41.146405170593 ,53.8992047130366 ,75.4780081837961
12.3986198 ,Left ,41.2627180282387 ,53.8392442323685 ,75.4609523214821
12.4209147 ,Left ,41.2594987790306 ,53.7208535718569 ,75.4570761951468
12.4433162 ,Left ,41.1123673884402 ,53.6248741567215 ,75.4548780812334
12.4577391 ,Left ,41.1427454677837 ,53.5741768360038 ,75.482436753948
12.4808093 ,Left ,41.2158709166517 ,53.5868704976666 ,75.4996443757396
12.503437 ,Left ,41.2812674752187 ,53.620410713843 ,75.4970664600315
12.5176761 ,Left ,41.3128101515352 ,53.6147266034318 ,75.5074456155936
12.5409286 ,Left ,41.2843466983052 ,53.6203365893004 ,75.5630609742095
12.5635331 ,Left ,41.2578814479954 ,53.6651444791408 ,75.6149597493893
12.577613 ,Left ,41.2819333495385 ,53.6985028411031 ,75.6565326367001
12.6008149 ,Left ,41.3582602014142 ,53.7028692953405 ,75.6967107537486
12.6236332 ,Left ,41.4047618645137 ,53.6561288394986 ,75.7232479689325
12.6375503 ,Left ,41.3797078708984 ,53.5968815760917 ,75.7526495338336
12.6608271 ,Left ,41.3467928955955 ,53.5354665954884 ,75.7779941842349
12.6832829 ,Left ,41.3738981346933 ,53.4815605736899 ,75.7850567746635
12.6977259 ,Left ,41.4355754799365 ,53.4328232767809 ,75.7816622432603
12.7209547 ,Left ,41.4711836271233 ,53.4106089294268 ,75.7909093400772
12.7433686 ,Left ,41.4591163326761 ,53.418268560884 ,75.8009341317976
12.7576963 ,Left ,41.4746868484949 ,53.4014551722409 ,75.8007087598203
12.7822613 ,Left ,41.5422689679169 ,53.3757162381059 ,75.8137199809977
12.8035934 ,Left ,41.5822955085488 ,53.3641532063691 ,75.8264188935622
12.8176657 ,Left ,41.5542539612008 ,53.3758408111537 ,75.8478762297104
12.8408606 ,Left ,41.5413260445744 ,53.4120940929237 ,75.8625614363604
12.8636029 ,Left ,41.5572938202618 ,53.4821822831307 ,75.8816355674339
12.8845503 ,Left ,41.5547251202946 ,53.5433409162536 ,75.8845799050096
12.90085 ,Left ,41.5730946700893 ,53.6002439898065 ,75.8296907476373
12.9233451 ,Left ,41.6019495122605 ,53.6727298065867 ,75.8073433173701
12.9444579 ,Left ,41.5244968247965 ,53.7324778307544 ,75.8267925985485
12.9608915 ,Left ,41.409103287183 ,53.7564245669274 ,75.8467333765655
12.9834482 ,Left ,41.4113773465876 ,53.7498405877243 ,75.8289849034599
13.0044996 ,Left ,41.5204354548228 ,53.7213160459165 ,75.8169631513537
13.0208205 ,Left ,41.4977592457582 ,53.6951707955437 ,75.8253053648065
13.0434549 ,Left ,41.4390749603733 ,53.7036672592044 ,75.8283175021239
13.0646335 ,Left ,41.3472667226373 ,53.6840552990618 ,75.7656287060696
13.0809343 ,Left ,41.2990413812357 ,53.6408151692572 ,75.714629664935
13.103402 ,Left ,41.2813484490907 ,53.6369871665274 ,75.6728354442225
13.1245363 ,Left ,41.2968484872564 ,53.6433091719811 ,75.6417224432464
13.1409693 ,Left ,41.3081015721225 ,53.6255628697543 ,75.6273230639091
13.1634492 ,Left ,41.2575586999199 ,53.5600006215811 ,75.6296054641194
13.1924976 ,Left ,41.2805016652951 ,53.5320702229944 ,75.642090414227
13.2008826 ,Left ,41.3202609933354 ,53.5573984748405 ,75.6366198057375
13.2233201 ,Left ,41.3883435005241 ,53.6158478824624 ,75.6477983984375
13.2444855 ,Left ,41.3664513647544 ,53.6910862945924 ,75.6667220396081
13.2607898 ,Left ,41.2830454537008 ,53.7241907950348 ,75.6308340805242
13.2832629 ,Left ,41.2672095814561 ,53.7961364028805 ,75.6128636671972
13.3058841 ,Left ,41.2439221230887 ,53.8755404403338 ,75.6101686699265
13.3208666 ,Left ,41.193368319015 ,53.8987787442965 ,75.636724226713
13.3433661 ,Left ,41.195923353573 ,53.8963543825005 ,75.6243381857058
13.3658119 ,Left ,41.2324141129906 ,53.8765758386012 ,75.6119736346139
13.3808522 ,Left ,41.1846963405351 ,53.8850469639102 ,75.6222302980157
13.4032581 ,Left ,41.1025081541936 ,53.9192761499529 ,75.6346957555276
13.4259365 ,Left ,41.1054935139157 ,53.937219483495 ,75.6187684725722
13.4401312 ,Left ,41.141853579875 ,53.9177248293815 ,75.6428701698523
13.4694737 ,Left ,41.0673260166333 ,53.9054943481249 ,75.6647878833807
13.4861017 ,Left ,41.0645537544088 ,53.995712604365 ,75.7117692776256
13.5001561 ,Left ,41.0307177386382 ,54.0886804718008 ,75.7579398248603
13.5234625 ,Left ,41.0424424875406 ,54.1993831052885 ,75.7938128120807
13.5463459 ,Left ,41.0530457579657 ,54.3030220730575 ,75.7759366729562
13.5669506 ,Left ,41.1185971692085 ,54.3304686055475 ,75.760522673664
13.5833805 ,Left ,41.0648342107973 ,54.2782410170054 ,75.7529575974692
13.6061631 ,Left ,41.0272300760164 ,54.1993839651029 ,75.7410848740996
13.620272 ,Left ,40.9750251739482 ,54.138767995843 ,75.7107659378365
13.6433427 ,Left ,41.0101629334109 ,54.0838199399273 ,75.6919566865597
13.6658518 ,Left ,41.0318417228926 ,54.072571813516 ,75.6928189791821
13.680159 ,Left ,41.0310670217172 ,54.0780230211366 ,75.6615133897213
13.7035009 ,Left ,41.0337700964057 ,54.0776892321622 ,75.6424178447495
13.725805 ,Left ,41.0014880956073 ,54.0904777388863 ,75.6248671030108
13.7402403 ,Left ,40.9077863214817 ,54.1264287990577 ,75.5716799122765
13.7694683 ,Left ,40.8595920243039 ,54.2047123530143 ,75.4908738942862
13.7859115 ,Left ,40.8025723638035 ,54.2487080451075 ,75.3958696042925
13.8068913 ,Left ,40.8004952666404 ,54.2480627673815 ,75.3537860971336
13.823383 ,Left ,40.7555326113026 ,54.2963785117289 ,75.4023341552325
13.8459341 ,Left ,40.8399581322223 ,54.3760179990736 ,75.4604207119076
13.8669989 ,Left ,40.9537435256693 ,54.4087333371541 ,75.4755352271623
13.8832042 ,Left ,41.0732737214903 ,54.3389104263632 ,75.4815238156976
13.9058224 ,Left ,41.0608782362288 ,54.2460889921674 ,75.5468661730636
13.9269626 ,Left ,40.9812922254513 ,54.2124020118479 ,75.6088484345758
13.9433429 ,Left ,41.0038024525627 ,54.1715961449624 ,75.5717128828928
13.9657694 ,Left ,41.1224655377342 ,54.0990849837706 ,75.5439923991314
13.9870378 ,Left ,41.1067569285817 ,53.9929122461273 ,75.5272701030789
14.0032846 ,Left ,41.0534661577421 ,53.8824476479705 ,75.5245839035411
14.0257856 ,Left ,41.0199600068196 ,53.8232428572066 ,75.5226357809754
14.0484008 ,Left ,41.1592181906057 ,53.8195789361212 ,75.5890402160178
14.0694734 ,Left ,41.183754657203 ,53.8665623544687 ,75.6224390961424
14.0858337 ,Left ,41.2736666528469 ,53.892408376346 ,75.6448359364927
14.1080885 ,Left ,41.350685189655 ,53.8332932096538 ,75.6530085942889
14.1227318 ,Left ,41.2952629108574 ,53.8070049732461 ,75.6880103669856
14.1457736 ,Left ,41.2304398318007 ,53.8540582901002 ,75.7136092191918
14.1671043 ,Left ,41.2316733487644 ,53.8840845044832 ,75.6780328002534
14.1833941 ,Left ,41.3308944110996 ,53.8866526023743 ,75.6661439066304
14.2059211 ,Left ,41.3656452352759 ,53.8632084633094 ,75.6760123074348
14.2284553 ,Left ,41.3073098572115 ,53.8306940291799 ,75.6762696692527
14.243649 ,Left ,41.2743084497933 ,53.792800062556 ,75.6730335508642
14.2657831 ,Left ,41.3175328127674 ,53.7478055366943 ,75.6602032892641
14.2885176 ,Left ,41.3525405434936 ,53.7184799381424 ,75.649529903452
14.3032917 ,Left ,41.3708175833855 ,53.721946376153 ,75.670080198296
14.3260742 ,Left ,41.3756762268172 ,53.7118599770183 ,75.68606027362
14.3487131 ,Left ,41.4199389620647 ,53.6971374684141 ,75.6927784296356
14.3634851 ,Left ,41.4373105641004 ,53.6787070962225 ,75.7077110433611
14.3857939 ,Left ,41.4824927318152 ,53.6650158637773 ,75.7139551851895
14.4084069 ,Left ,41.5226040139755 ,53.6626608815915 ,75.7133162597228
14.4226677 ,Left ,41.5166848832377 ,53.7013735651557 ,75.7538484678947
14.4461184 ,Left ,41.473504912241 ,53.7534709822055 ,75.7930078581204
14.4685391 ,Left ,41.4501954195073 ,53.8069012266877 ,75.794881421445
14.4827145 ,Left ,41.4698281846614 ,53.8351024531867 ,75.7658606945102
14.5059056 ,Left ,41.5444617709807 ,53.8515297256005 ,75.7321980514419
14.5283695 ,Left ,41.4532683997302 ,53.8681620319072 ,75.7269967840345
14.542604 ,Left ,41.3801664956 ,53.861551128592 ,75.7558272470866
14.565915 ,Left ,41.3706769971476 ,53.8478074125261 ,75.7293757079294
14.5885464 ,Left ,41.4379565102913 ,53.8201359823844 ,75.7005594045169
14.6026668 ,Left ,41.506399023811 ,53.8014176623408 ,75.7190169133002
14.6259173 ,Left ,41.4646046035003 ,53.7762270436451 ,75.7544510079115
14.648387 ,Left ,41.4118199297343 ,53.7592790028991 ,75.7450164994504
14.6627431 ,Left ,41.3659609296743 ,53.7301831488012 ,75.6938412835204
14.6858873 ,Left ,41.3501937082659 ,53.6922204065855 ,75.6784544744277
14.7083694 ,Left ,41.3475398109908 ,53.6657510207872 ,75.6592037437306
14.7294878 ,Left ,41.3548728237685 ,53.6344432373723 ,75.6720458258481
14.7458295 ,Left ,41.3042178384297 ,53.6412120802184 ,75.6559120282845
14.7682519 ,Left ,41.2561770653192 ,53.6939060139841 ,75.6710854817561
14.7895667 ,Left ,41.2988617951121 ,53.7082155174902 ,75.7036695913873
14.8058417 ,Left ,41.3683201706938 ,53.7273914044602 ,75.7151365803474
14.8283852 ,Left ,41.4273111584398 ,53.7573618435714 ,75.7152479108336
14.8503505 ,Left ,41.4271951108993 ,53.800856382415 ,75.7327165988011
14.8577052 ,Left ,41.3485538895927 ,53.8462228961987 ,75.7243759704598
14.8786626 ,Left ,41.2863091135633 ,53.8719242531454 ,75.6763414028049
14.8938398 ,Left ,41.2864283678765 ,53.8886202641519 ,75.6188172514075
14.9163189 ,Left ,41.3011363021674 ,53.9469260744447 ,75.6040531986989
14.9313581 ,Left ,41.2349533078775 ,53.9178455053044 ,75.6355032909521
14.9538344 ,Left ,41.2151447357729 ,53.8973296163143 ,75.660594136866
14.971763 ,Left ,41.260342873708 ,53.9053740624156 ,75.6421289582161
14.9912864 ,Left ,41.3309218689555 ,53.9204610626646 ,75.6427207887405
15.0137476 ,Left ,41.2885178343802 ,53.9679880500163 ,75.6455830846563
15.0316857 ,Left ,41.2677733741291 ,54.0049527492625 ,75.670809463435
15.0513253 ,Left ,41.2527916822707 ,54.0332195793837 ,75.6812464627389
15.0738822 ,Left ,41.1547822964441 ,53.9981758146159 ,75.649123328115
15.0917731 ,Left ,41.1364086239036 ,54.0525529363848 ,75.6404372067801
15.1114664 ,Left ,41.1594270157833 ,54.0900395436048 ,75.6643285746598
15.1337916 ,Left ,41.1508342039763 ,54.1556052852638 ,75.7013648707834
15.1577231 ,Left ,41.1260841692554 ,54.2581383500327 ,75.7056372265936
15.1712481 ,Left ,41.1836332203726 ,54.2826447152543 ,75.6982162006057
15.193803 ,Left ,41.2233926540529 ,54.245885176889 ,75.7245204064179
15.2116322 ,Left ,41.1811728706045 ,54.1729803028186 ,75.7027128588088
15.2313084 ,Left ,41.1259937326911 ,54.1424400635637 ,75.7141735440113
15.2539135 ,Left ,41.0984943906973 ,54.1137076175794 ,75.698937746021
15.271682 ,Left ,41.0914800715807 ,54.0859100704442 ,75.6768326562672
15.291188 ,Left ,41.1426483165941 ,54.0953602630065 ,75.6694843142547
15.3137005 ,Left ,41.160293910581 ,54.1189699507995 ,75.6749797901796
15.3324134 ,Left ,41.0993454051273 ,54.1689493429828 ,75.6563338608221
15.3513122 ,Left ,41.0294717072736 ,54.2320164712279 ,75.591269539475
15.3736889 ,Left ,40.979823938971 ,54.2967173524262 ,75.5221992059593
15.391637 ,Left ,40.9365633375535 ,54.33945095629 ,75.4433357356282
15.4141627 ,Left ,40.8863202820999 ,54.3483812787423 ,75.3619068337323
15.4339926 ,Left ,40.8325340239059 ,54.3735994855176 ,75.3640736322447
15.4563681 ,Left ,40.8972416620873 ,54.4489942536989 ,75.4205467558104
15.4759374 ,Left ,41.0247853069508 ,54.4589808453972 ,75.4496776214041
15.4937899 ,Left ,41.2154345211295 ,54.3517678120483 ,75.4777289738192
15.5196818 ,Left ,41.2511934810331 ,54.181739282284 ,75.5246761745746
15.5327323 ,Left ,41.1867049224034 ,54.1350625343624 ,75.6557550296133
15.553685 ,Left ,41.165853876842 ,54.1188551366958 ,75.6955251335332
15.5761633 ,Left ,41.2746706096155 ,54.100290883106 ,75.6428557989275
15.5925694 ,Left ,41.3531447929634 ,54.018944569193 ,75.6145200086947
15.6136161 ,Left ,41.2566218511125 ,53.872857206736 ,75.6083216309046
15.643791 ,Left ,41.2011604545517 ,53.7626912181229 ,75.5997927472396
15.6542497 ,Left ,41.2566774473939 ,53.7126877867718 ,75.6102809025348
15.6739379 ,Left ,41.2904038765781 ,53.7354965636865 ,75.6215490283154
15.6963115 ,Left ,41.3408899138232 ,53.7862602788403 ,75.652968374227
15.7140645 ,Left ,41.3652058493891 ,53.7592833936834 ,75.683522455715
15.7338047 ,Left ,41.3552288464455 ,53.7342098059433 ,75.7104808383952
15.7517831 ,Left ,41.3191108122592 ,53.7395182992527 ,75.7222238104597
15.7743257 ,Left ,41.3499791176949 ,53.7090482790777 ,75.727567205103
15.7936749 ,Left ,41.3847483505323 ,53.6745484332757 ,75.7390785474633
15.8118119 ,Left ,41.3882031167482 ,53.6209912980008 ,75.7439294601244
15.832713 ,Left ,41.397169910215 ,53.5641740113619 ,75.7518026798144
15.8539733 ,Left ,41.4027981547933 ,53.5165648837789 ,75.7465210991722
15.871781 ,Left ,41.4377533682954 ,53.4845380982932 ,75.7362291993034
15.8926793 ,Left ,41.4640439295375 ,53.4759925182598 ,75.7418170642809
15.9140543 ,Left ,41.4747602043526 ,53.4813037769541 ,75.763201850352
15.9316504 ,Left ,41.4626959333882 ,53.4793718787178 ,75.7688847930252
15.9528001 ,Left ,41.4919424508255 ,53.4567091191581 ,75.7761851116678
15.9738556 ,Left ,41.5213922558436 ,53.4536120485972 ,75.7805122036201
15.9922985 ,Left ,41.5149528132038 ,53.4656018087609 ,75.7859040693857
16.0129002 ,Left ,41.4902129908661 ,53.486293500106 ,75.7898132630219
16.0339284 ,Left ,41.4772630482702 ,53.5132275098596 ,75.7850175659763
16.0517313 ,Left ,41.4729046096871 ,53.579266795185 ,75.790209517763
16.0727468 ,Left ,41.4317734050863 ,53.6245892034202 ,75.7598500097666
16.0938328 ,Left ,41.5063646296547 ,53.6740951728517 ,75.6840404217095
16.1115588 ,Left ,41.4506255955209 ,53.7121099520599 ,75.6757434381047
16.1342335 ,Left ,41.4067954051174 ,53.7234553653106 ,75.7334195251065
16.1537501 ,Left ,41.3346796740657 ,53.7488062257232 ,75.7389949647417
16.1718436 ,Left ,41.3768330929552 ,53.7223131674574 ,75.7236841100801
16.1941855 ,Left ,41.545734721785 ,53.6514847192674 ,75.7233149148736
16.2138022 ,Left ,41.540142868341 ,53.6025718823717 ,75.7896001739353
16.2316504 ,Left ,41.4452696030013 ,53.5890854051551 ,75.8149295262801
16.2540849 ,Left ,41.3697835199129 ,53.632747174791 ,75.7303332988865
16.2737791 ,Left ,41.3922327492298 ,53.6231963453261 ,75.6852710173482
16.2918059 ,Left ,41.3895183643361 ,53.6041938240726 ,75.67362174801
16.3140545 ,Left ,41.3117825180529 ,53.5956163024726 ,75.6530869809542
16.3336779 ,Left ,41.285147802443 ,53.5954502210572 ,75.5821634518357
16.3515911 ,Left ,41.2844360350249 ,53.5681602283945 ,75.5810489217706
16.3740478 ,Left ,41.3049480525822 ,53.5292813058043 ,75.625990259166
16.3937466 ,Left ,41.3213173633507 ,53.5488376588052 ,75.6318228849727
16.4115367 ,Left ,41.3979056295771 ,53.5865223185944 ,75.6266719102595
16.4340767 ,Left ,41.4562144073704 ,53.6262182368923 ,75.6671920663724
16.4536664 ,Left ,41.3877134740813 ,53.6750058383652 ,75.6746531952045
16.4716625 ,Left ,41.3028246442728 ,53.7288220064466 ,75.6660279036026
16.4940449 ,Left ,41.2968850367858 ,53.7352671059165 ,75.6172946100418
16.5137434 ,Left ,41.3519097120796 ,53.7894537642849 ,75.5745993378222
16.5316199 ,Left ,41.317937102244 ,53.7876014945091 ,75.6021945865832
16.5541297 ,Left ,41.2438334568964 ,53.7716316777322 ,75.6180866480344
16.5736718 ,Left ,41.2517752298803 ,53.7451830372299 ,75.5723558785415
16.5918861 ,Left ,41.3307231852644 ,53.7167426423244 ,75.5416982244724
16.6141669 ,Left ,41.3230516571874 ,53.7605263632652 ,75.5842696857698
16.6369775 ,Left ,41.235955567642 ,53.7907647831547 ,75.6192018975009
16.6516276 ,Left ,41.2572508090632 ,53.8264186179527 ,75.6066250243653
16.6741109 ,Left ,41.2507347536505 ,53.808769422325 ,75.6593742589682
16.6947112 ,Left ,41.2453158664915 ,53.841199574455 ,75.6916351339318
16.7109313 ,Left ,41.1964954650443 ,53.9182125473668 ,75.715419737463
16.7335505 ,Left ,41.1130992189785 ,54.0466035143613 ,75.7039064824579
16.7544173 ,Left ,41.0576435985083 ,54.2254234367412 ,75.6885602226288
16.7708009 ,Left ,41.092886965036 ,54.3027576398636 ,75.6338707480343
16.7933419 ,Left ,41.0998814879296 ,54.2957675208031 ,75.6214077977393
16.8144236 ,Left ,41.0734559528398 ,54.2068977482042 ,75.6087936871961
16.8307485 ,Left ,41.0246138918659 ,54.0787787418419 ,75.5645251143901
16.8533525 ,Left ,41.0051139340584 ,54.013866587522 ,75.5359509996156
16.87583 ,Left ,41.0101716356392 ,53.9604952358523 ,75.5376228471879
16.8909497 ,Left ,41.0170845751717 ,53.9387052377058 ,75.5430816120831
16.9132542 ,Left ,41.0766047938436 ,53.9012574700866 ,75.5385969713008
16.9358108 ,Left ,41.1243475112179 ,53.8523006695444 ,75.5320479304465
16.9502641 ,Left ,41.1022173723144 ,53.8792050972089 ,75.5408328518134
16.9732296 ,Left ,41.0588641463602 ,53.9634234663795 ,75.5558901928973
16.9959285 ,Left ,41.0167103115181 ,54.052088547723 ,75.5213745713931
17.0102214 ,Left ,40.9889193068071 ,54.1181251645474 ,75.4455477735726
17.0334706 ,Left ,40.9234459018377 ,54.1538309839809 ,75.3690152196681
17.0559 ,Left ,40.8634286659393 ,54.1864736686556 ,75.3283940578298
17.0712565 ,Left ,40.8454111687725 ,54.2708153179598 ,75.3511469833085
17.1010509 ,Left ,41.0083457719696 ,54.360602641587 ,75.4004354085994
17.1158077 ,Left ,41.1112659135649 ,54.37460445587 ,75.4178910240516
17.1302293 ,Left ,41.1457023742313 ,54.3007555423274 ,75.4326659446648
17.1534024 ,Left ,41.0922450293899 ,54.2110446944028 ,75.5071341621885
17.1758823 ,Left ,41.0963768048399 ,54.1308244615652 ,75.5495308633144
17.1968787 ,Left ,41.1859713306517 ,54.0222379434098 ,75.5086655811561
17.2132177 ,Left ,41.2606874638388 ,53.9007609593628 ,75.5091381727971
17.2357528 ,Left ,41.222023947633 ,53.7904791242591 ,75.5095095634386
17.257394 ,Left ,41.1821749534207 ,53.7561290561722 ,75.4830306593237
17.273248 ,Left ,41.2435373112517 ,53.7815774644443 ,75.5071540612975
17.2957735 ,Left ,41.3055051152294 ,53.840642957817 ,75.538262203395
17.3170899 ,Left ,41.3557734037751 ,53.9119612627467 ,75.5514955296313
17.3357369 ,Left ,41.4400397368016 ,53.8806965817177 ,75.5784288414326
17.3557315 ,Left ,41.4618429904596 ,53.7745325192771 ,75.5669699317096
17.3703168 ,Left ,41.4070759127296 ,53.6749362833574 ,75.5651528316476
17.3933228 ,Left ,41.3728337166189 ,53.6276375712765 ,75.6001620720134
17.4159007 ,Left ,41.3915810390568 ,53.5938438145609 ,75.6206190839124
17.4301864 ,Left ,41.4453317982944 ,53.5649374024727 ,75.6246963095868
17.4532635 ,Left ,41.5275270243399 ,53.5215150259136 ,75.6381895330487
17.4759091 ,Left ,41.5359903066928 ,53.4728228347992 ,75.6446543561162
17.490094 ,Left ,41.5174570091392 ,53.4316387386403 ,75.6426694649101
17.5134094 ,Left ,41.5131518986687 ,53.3981552752421 ,75.6399491116819
17.5363459 ,Left ,41.553720779556 ,53.385917853623 ,75.6285865481357
17.5502199 ,Left ,41.5855418419897 ,53.3936087561751 ,75.6306677169733
17.5733808 ,Left ,41.582581421033 ,53.3993632950312 ,75.630254940472
17.5957989 ,Left ,41.6043812286581 ,53.3953833113969 ,75.6359079844825
17.6170539 ,Left ,41.6586446962885 ,53.3746876390754 ,75.6325965758013
17.6333037 ,Left ,41.6481777407514 ,53.3785159679665 ,75.6128416840836
17.6558893 ,Left ,41.6229723178688 ,53.4133784353851 ,75.6207209430021
17.6816255 ,Left ,41.5916369863017 ,53.495560185414 ,75.6339354920944
17.6937581 ,Left ,41.6178904561701 ,53.5663012384225 ,75.6302043142203
17.7145385 ,Left ,41.6968936096108 ,53.6098265616779 ,75.6099190762365
17.7295715 ,Left ,41.6625358013844 ,53.6427081874088 ,75.640810281072
17.7519059 ,Left ,41.6697624223872 ,53.4764945353138 ,75.6776578995176
17.7744187 ,Left ,41.7908146388261 ,53.3233118319204 ,75.7047686860824
17.7895129 ,Left ,41.6600403813678 ,53.5477811721362 ,75.6590823836873
17.8119271 ,Left ,41.8986563661247 ,53.2637999990294 ,75.6773681813721
17.8345098 ,Left ,41.8131595676367 ,53.3935341398937 ,75.7048189742477
17.8494346 ,Left ,41.6840254739361 ,53.3923827535424 ,75.7457079065901
17.8718432 ,Left ,41.5810262843412 ,53.561949923702 ,75.643498431575
17.8944037 ,Left ,41.5002808735671 ,53.528258296902 ,75.6267988469837
17.9096176 ,Left ,41.5067235800199 ,53.4960000108149 ,75.5887045855146
17.931984 ,Left ,41.5098996747757 ,53.4757877283779 ,75.588481027097
17.9544612 ,Left ,41.4551867970399 ,53.4766603365405 ,75.5619246443176
17.9697776 ,Left ,41.4177428364713 ,53.4482880205912 ,75.540481510956
17.992018 ,Left ,41.4498782258346 ,53.4149051611691 ,75.5703337368361
18.0147274 ,Left ,41.5767861894346 ,53.153452350819 ,75.6245618850643
18.0292566 ,Left ,41.7492548379273 ,52.9389842854181 ,75.6531343516686
18.051982 ,Left ,41.7159926100452 ,53.1001168076723 ,75.6736906181012
18.0744549 ,Left ,41.6616286693261 ,53.1406236793353 ,75.6768722906183
18.089467 ,Left ,41.6331280497503 ,53.2207665273883 ,75.6506736892417
18.1118209 ,Left ,41.6453237625044 ,53.3338389159932 ,75.653674895646
18.1346153 ,Left ,41.6061638614773 ,53.4114661895912 ,75.6691197785537
18.1496436 ,Left ,41.5765987150378 ,53.442563370273 ,75.6783516555305
18.1719368 ,Left ,41.5629736753385 ,53.4452459469502 ,75.6533742041496
18.1880386 ,Left ,41.5532313596581 ,53.4429248051119 ,75.6433839787759
18.2095971 ,Left ,41.4709819519233 ,53.4620648576077 ,75.6249899545396
18.2320703 ,Left ,41.4307819452981 ,53.465061126356 ,75.61361816788
18.2476133 ,Left ,41.4204329308578 ,53.4641132416941 ,75.5825022352594
18.2707629 ,Left ,41.3781118170518 ,53.4196826356089 ,75.5949809501115
18.2920161 ,Left ,41.3694117124265 ,53.4646703121792 ,75.6009242642701
18.3077174 ,Left ,41.3599536597347 ,53.5494263995581 ,75.6213953631302
18.3307928 ,Left ,41.312125474711 ,53.6521978111025 ,75.625300141995
18.3519262 ,Left ,41.2807724772327 ,53.7665352940879 ,75.6181362787188
18.3746185 ,Left ,41.3047850607099 ,53.7958371747823 ,75.5880564716049
18.3907997 ,Left ,41.3696016627109 ,53.7576211367613 ,75.6129398793547
18.4119069 ,Left ,41.3168420247826 ,53.6772970519519 ,75.5930149450426
18.4275914 ,Left ,41.2126596754722 ,53.6413341977661 ,75.5939173106576
18.4507408 ,Left ,41.178865031488 ,53.6260839737614 ,75.5753952205083
18.4719278 ,Left ,41.2306093645172 ,53.6020664099349 ,75.5548979446517
18.4876808 ,Left ,41.28062973314 ,53.5946248084153 ,75.5529151893944
18.510805 ,Left ,41.2315538074852 ,53.5996483704871 ,75.5520266103196
18.5319949 ,Left ,41.164718082824 ,53.6638242345333 ,75.5535090243891
18.5477321 ,Left ,41.1385079222836 ,53.7267906461097 ,75.5232835548527
18.5789226 ,Left ,41.1877919779623 ,53.7582099775638 ,75.4967187424012
18.5997037 ,Left ,41.1429832511089 ,53.7853249093903 ,75.4822994427839
18.6180651 ,Left ,41.0692172442834 ,53.8496628629313 ,75.5030530127486
18.6383447 ,Left ,41.0184005906282 ,53.9574324431751 ,75.5428536985734
18.6594664 ,Left ,41.0679778206442 ,54.0563866669527 ,75.5848822104634
18.6758429 ,Left ,41.2285943775391 ,54.0831185872663 ,75.6289318911953
18.6982412 ,Left ,41.3479382988891 ,53.9873090931421 ,75.6292623235558
18.7196393 ,Left ,41.2821104904464 ,53.818076168003 ,75.6066917571
18.7358772 ,Left ,41.1959693152426 ,53.7448945271557 ,75.6768200560584
18.7585183 ,Left ,41.194503874167 ,53.683890464638 ,75.669079749087
18.7793478 ,Left ,41.2774682077954 ,53.6296616951535 ,75.6202785771988
18.7957361 ,Left ,41.339324719037 ,53.5530303253304 ,75.6398883321597
18.8183469 ,Left ,41.2881770614026 ,53.4955877655459 ,75.6409182485622
18.8394693 ,Left ,41.2676283654289 ,53.5234276486989 ,75.679480621739
18.8551134 ,Left ,41.3177618108976 ,53.5774335398597 ,75.6973472260666
18.8784782 ,Left ,41.4272792388999 ,53.5814012951196 ,75.6857979163171
18.8996837 ,Left ,41.4849601724678 ,53.5243883552068 ,75.672457742745
18.915049 ,Left ,41.4007083961204 ,53.4396274012442 ,75.6658192509813
18.9385298 ,Left ,41.3264000212465 ,53.4554414959684 ,75.6982727686451
18.9610557 ,Left ,41.3421645600877 ,53.4824489225779 ,75.6847140066142
18.9752075 ,Left ,41.4431263015487 ,53.4817449722926 ,75.6752085661903
18.9983191 ,Left ,41.522644678979 ,53.4508268021692 ,75.7080749946976
19.0212809 ,Left ,41.498014455171 ,53.4084477415398 ,75.7316593925124
19.0433654 ,Left ,41.4616156094678 ,53.366426372706 ,75.7544645982424
19.0583351 ,Left ,41.5359796030486 ,53.309758695267 ,75.7500629792929
19.0807499 ,Left ,41.6118186644275 ,53.2547512401592 ,75.7301527465299
19.0958727 ,Left ,41.6258619619299 ,53.2525543386211 ,75.7400701219922
19.1183583 ,Left ,41.5827243628716 ,53.2494247010905 ,75.7423920857939
19.1408945 ,Left ,41.600556872046 ,53.2356574544375 ,75.7474623626513
19.155224 ,Left ,41.6618612521625 ,53.2242723315558 ,75.7591136272549
19.1783855 ,Left ,41.6654281511857 ,53.2202974606095 ,75.7501198734726
19.20084 ,Left ,41.6290344046036 ,53.2562638339181 ,75.7599218983855
19.2150257 ,Left ,41.6143185262689 ,53.3184678472529 ,75.7856643491545
19.2382942 ,Left ,41.607211975363 ,53.378409707056 ,75.7892187264856
19.260879 ,Left ,41.6640915491292 ,53.453450307572 ,75.7608230372193
19.2752111 ,Left ,41.6777501709774 ,53.5139374831734 ,75.7701298836483
19.2986666 ,Left ,41.5844354867222 ,53.5558257783097 ,75.8104473710163
19.320785 ,Left ,41.4414815169251 ,53.5891620510279 ,75.8035598399944
19.3419346 ,Left ,41.4764692644607 ,53.5531727157554 ,75.769407369381
19.3583564 ,Left ,41.6229783123329 ,53.4533891083597 ,75.7529554579962
19.3809011 ,Left ,41.5841363812848 ,53.4065861057359 ,75.7464562058361
19.4019722 ,Left ,41.4664412169786 ,53.4305212263026 ,75.7488895044012
19.4183808 ,Left ,41.3729725434558 ,53.4112049086376 ,75.7030036501631
19.4421849 ,Left ,41.3404943356775 ,53.3906394506056 ,75.6491736243962
19.4621044 ,Left ,41.3832427352699 ,53.3695138088182 ,75.6267538061563
19.4782664 ,Left ,41.3951874408264 ,53.3381863367687 ,75.6298503955518
19.5007745 ,Left ,41.3516928677982 ,53.3205016912975 ,75.635270198968
19.5218547 ,Left ,41.287567899705 ,53.3623859504551 ,75.6612572178827
19.5385677 ,Left ,41.309020299203 ,53.4252578842834 ,75.6702270758608
19.5610591 ,Left ,41.4396852635033 ,53.481875436413 ,75.6604992228948
19.5821008 ,Left ,41.5017666578287 ,53.4833885460426 ,75.6611761797359
19.5982417 ,Left ,41.4333575738952 ,53.4943834835577 ,75.6837733859867
19.6208564 ,Left ,41.3167791645546 ,53.5133543857741 ,75.683973805363
19.6419582 ,Left ,41.26750714799 ,53.5035390646807 ,75.6344458490204
19.6583229 ,Left ,41.3331723000934 ,53.5060085953036 ,75.5885320901304
19.6808762 ,Left ,41.3200260205074 ,53.5169241399815 ,75.5740079259855
19.7019526 ,Left ,41.2934806656359 ,53.4582465929892 ,75.6312728275705
19.7182464 ,Left ,41.2883171995888 ,53.3981729901336 ,75.6155221638714
19.7409824 ,Left ,41.2832589126423 ,53.3991994904593 ,75.5679138690132
19.761895 ,Left ,41.3043227601925 ,53.4711856975909 ,75.5817906245795
19.7783555 ,Left ,41.2659563156317 ,53.5148552818736 ,75.608517596543
19.8009355 ,Left ,41.2666311457932 ,53.4588835230776 ,75.6333209372446
19.8219564 ,Left ,41.1973542524702 ,53.6150838090864 ,75.6102690104293
19.8376527 ,Left ,41.0546108905457 ,53.9848502303806 ,75.5499830584901
19.8609086 ,Left ,41.0327875120754 ,54.31676024818 ,75.5315120513229
19.8818785 ,Left ,40.9654561547342 ,54.3987997509476 ,75.5272556616905
19.8977212 ,Left ,40.9738590652206 ,54.2939978245399 ,75.5757511161573
19.9208032 ,Left ,40.9998588906368 ,54.2212647838306 ,75.5735753221806
19.9432813 ,Left ,40.9934670574339 ,54.4018958184645 ,75.543475915992
19.9579066 ,Left ,40.9421214721499 ,54.5806191217783 ,75.4880538067048
19.9807679 ,Left ,40.8955918627875 ,54.4383108314501 ,75.4378165819984
20.003316 ,Left ,40.915049756386 ,54.0896902402359 ,75.4389813998788
20.0183471 ,Left ,40.9438907296972 ,53.948886435013 ,75.4362081517141
20.0409121 ,Left ,40.9165769307722 ,54.1108435914834 ,75.3986031272335
20.0676216 ,Left ,40.9177484041246 ,54.2366205705495 ,75.3805851599044
20.0775907 ,Left ,40.8908272134775 ,54.3581251736831 ,75.3413745306491
20.100787 ,Left ,40.8920281088604 ,54.3753408541124 ,75.3658343582132
20.1233858 ,Left ,40.8945548861244 ,54.441456951508 ,75.3549974874743
20.1377185 ,Left ,40.8550595068077 ,54.4979036248225 ,75.352788506699
20.1608855 ,Left ,40.838027420913 ,54.5377107564221 ,75.3676188159791
20.1833615 ,Left ,40.8205908121574 ,54.5687301684946 ,75.4055243054616
20.1976966 ,Left ,40.8546314905431 ,54.5626563743716 ,75.4591878675088
20.2208235 ,Left ,40.9329795627113 ,54.5098284517581 ,75.4910786741564
20.2435157 ,Left ,41.0245272933935 ,54.3414901177936 ,75.4769281246335
20.2645645 ,Left ,40.9916581809907 ,54.1626039564044 ,75.4652132017634
20.2808753 ,Left ,40.9638386955093 ,54.1061862062497 ,75.5678701810505
20.3033202 ,Left ,40.9520171514806 ,54.0903253387687 ,75.575627992367
20.3245333 ,Left ,41.0397967566454 ,54.0526822061516 ,75.5324447790407
20.3408789 ,Left ,41.0532306678215 ,53.969150264219 ,75.5195131974331
20.3632975 ,Left ,40.9910574186152 ,53.8336888285437 ,75.4745394764003
20.3845939 ,Left ,40.9237745672154 ,53.7458509075003 ,75.4480500430075
20.4010017 ,Left ,41.0776556093533 ,53.6855623405017 ,75.4900729412325
20.4293182 ,Left ,41.110577414358 ,53.6824778757072 ,75.5088885738945
20.4445297 ,Left ,41.1537303337253 ,53.6924634852866 ,75.5112411693743
20.4608821 ,Left ,41.2315077995628 ,53.6643642650643 ,75.5378778734273
20.4839862 ,Left ,41.2637061334823 ,53.6676661689877 ,75.5799890933611
20.5044848 ,Left ,41.248731522193 ,53.7094843465664 ,75.618234711938
20.5207668 ,Left ,41.2899799898982 ,53.7225820758878 ,75.6512312653313
20.5433414 ,Left ,41.3521730532983 ,53.6971853565187 ,75.6804786248726
20.5487037 ,Left ,41.3637178472807 ,53.6606104474546 ,75.6904176905658
20.571151 ,Left ,41.3417103813295 ,53.6236605876455 ,75.6822848894371
20.5864148 ,Left ,41.3715589554377 ,53.5786470275968 ,75.6600734078376
20.6087966 ,Left ,41.4035164380706 ,53.5296476769037 ,75.6349770886383
20.6314516 ,Left ,41.4130733065821 ,53.4787880922566 ,75.6236445436518
20.6462559 ,Left ,41.3772788698018 ,53.4407383764855 ,75.6035938376839
20.6688644 ,Left ,41.3679032903009 ,53.3976931122222 ,75.5915866542003
20.6911902 ,Left ,41.4465307109158 ,53.3351474800456 ,75.596678832441
20.7064694 ,Left ,41.5361202230841 ,53.3039650285216 ,75.6033525243229
20.7286951 ,Left ,41.5250219383678 ,53.3379654438756 ,75.6266611039419
20.7466957 ,Left ,41.4938493311642 ,53.3961474534636 ,75.6347090405059
20.7661572 ,Left ,41.5229547282485 ,53.453909546174 ,75.6410726835126
20.7887834 ,Left ,41.5541637951419 ,53.4990505541171 ,75.6610921095385
20.8066391 ,Left ,41.5463006196532 ,53.5268374622845 ,75.6822671976981
20.8276544 ,Left ,41.5004847214316 ,53.5452839192161 ,75.7088060610904
20.8486332 ,Left ,41.487882714886 ,53.5511691838216 ,75.7282022130121
20.8666869 ,Left ,41.5087165403699 ,53.5343098970509 ,75.7332689445288
20.8862743 ,Left ,41.5303825882411 ,53.5116149659244 ,75.7330354481628
20.9087527 ,Left ,41.514739183565 ,53.5061246433592 ,75.7366338940996
20.9265542 ,Left ,41.4919855985169 ,53.513831023182 ,75.7394895282949
20.9477766 ,Left ,41.4831617445133 ,53.5313817052729 ,75.7231582231719
20.9687736 ,Left ,41.4870989113838 ,53.5435461442404 ,75.7053885196001
20.9866182 ,Left ,41.5169175629843 ,53.574624936964 ,75.7041499003322
21.0062494 ,Left ,41.581933488454 ,53.6082397788088 ,75.6721846778256
21.0287994 ,Left ,41.6467811642726 ,53.6398468866332 ,75.6437956923006
21.0514704 ,Left ,41.6770231015377 ,53.6978623736757 ,75.6995097626111
21.0663967 ,Left ,41.592741469484 ,53.7709757458608 ,75.7725619495929
21.0888953 ,Left ,41.5720772825094 ,53.8106720928683 ,75.7823220770879
21.1112802 ,Left ,41.6893368102901 ,53.7977526487715 ,75.8010994126583
21.1267201 ,Left ,41.6776286070818 ,53.7741853240594 ,75.8125006225198
21.1487664 ,Left ,41.626437628016 ,53.7484091676796 ,75.8280437420216
21.1712409 ,Left ,41.5376589251695 ,53.7334214748923 ,75.8274637578588
21.1862101 ,Left ,41.49834937553 ,53.6964625300261 ,75.7944015603751
21.2087576 ,Left ,41.4944418343443 ,53.6573321465947 ,75.755635226344
21.2265107 ,Left ,41.5055194360362 ,53.646038507202 ,75.7279784671627
21.2462757 ,Left ,41.5005846466381 ,53.6375148099213 ,75.7060322674338
21.2689355 ,Left ,41.4792684650808 ,53.6231756528993 ,75.6909881146857
21.2865435 ,Left ,41.4700714650315 ,53.600532979578 ,75.6597911755524
21.3064054 ,Left ,41.4738833389741 ,53.5837836627366 ,75.6255741383746
21.3286186 ,Left ,41.4710059651454 ,53.5795297875355 ,75.5995345618711
21.34648 ,Left ,41.4454356953593 ,53.5767307095041 ,75.5743784089539
21.3665931 ,Left ,41.4522942387044 ,53.5713857573471 ,75.5559877084248
21.3886975 ,Left ,41.4672475526975 ,53.562281805432 ,75.5366209842047
21.4066078 ,Left ,41.4618508778237 ,53.5672078015061 ,75.5277102356602
21.4284002 ,Left ,41.4364024884353 ,53.5905859764209 ,75.519419286519
21.4487587 ,Left ,41.4378954296533 ,53.610776653073 ,75.5098149381224
21.4689546 ,Left ,41.460713278762 ,53.6184422414017 ,75.5105412010112
21.4876035 ,Left ,41.460713278762 ,53.6184422414017 ,75.5105412010112
21.5087703 ,Left ,41.426000616111 ,53.6136924822091 ,75.5083504471619
21.5265721 ,Left ,41.4276407494191 ,53.6122789121706 ,75.5083577037166
21.5476553 ,Left ,41.4427229530073 ,53.6141945104034 ,75.5023646055869
21.568784 ,Left ,41.4478021882686 ,53.6183639807854 ,75.4977479967622
21.5866331 ,Left ,41.4484228622852 ,53.6139570658244 ,75.4864387816729
21.6077067 ,Left ,41.4566024561407 ,53.5984305000849 ,75.4843653423002
21.6285856 ,Left ,41.4594326742116 ,53.5953796517852 ,75.4843361236557
21.6465728 ,Left ,41.4507635081692 ,53.5941911787104 ,75.4772722963773
21.6677288 ,Left ,41.4476790686916 ,53.5943161328952 ,75.4777026735923
21.6887089 ,Left ,41.4683696077696 ,53.5886328312518 ,75.4810644519323
21.70662 ,Left ,41.4669247501976 ,53.587345688275 ,75.4815005132082
21.7276271 ,Left ,41.4669247501976 ,53.587345688275 ,75.4815005132082
21.7487243 ,Left ,41.4715103605348 ,53.5875952072268 ,75.489473634225
21.7664833 ,Left ,41.4608844674295 ,53.6159910102435 ,75.4959557620257
21.7951837 ,Left ,41.4180124249675 ,53.671992503194 ,75.5364139548956
21.8162578 ,Left ,41.3562116259128 ,53.7167099762808 ,75.5672970377575
21.826498 ,Left ,41.3127793469989 ,53.7706088074641 ,75.5150363971028
21.849198 ,Left ,41.2981516647709 ,53.8126143681078 ,75.4834986523655
21.8687366 ,Left ,41.3706948920309 ,53.7434872354214 ,75.506086430502
21.8864945 ,Left ,41.3741764183635 ,53.6940473564089 ,75.5044254490738
21.9092019 ,Left ,41.3838660575478 ,53.6531969559158 ,75.4672608839853
21.9286907 ,Left ,41.4030666896871 ,53.6580055986762 ,75.4721585282298
21.9466729 ,Left ,41.4168676850609 ,53.7170866118566 ,75.5173615716597
21.9690576 ,Left ,41.3616156199008 ,53.7627356161365 ,75.5166895010878
21.9887168 ,Left ,41.3783938220925 ,53.798338919984 ,75.4929601301403
22.0066871 ,Left ,41.4015721652947 ,53.7893545603683 ,75.4963178131393
22.0290515 ,Left ,41.3548648341559 ,53.7752489964323 ,75.5248236362674
22.0492227 ,Left ,41.3541285833619 ,53.7540703963116 ,75.5254422031806
22.0690835 ,Left ,41.3825588427696 ,53.7177370140763 ,75.4930708195147
22.0965265 ,Left ,41.4665531910892 ,53.6822812485942 ,75.4932628304009
22.108833 ,Left ,41.4697406324449 ,53.5995111171607 ,75.4849569982218
22.1265569 ,Left ,41.4566344716665 ,53.5370764012065 ,75.5005243993835
22.1491759 ,Left ,41.4241397032138 ,53.4975571603455 ,75.5221371208379
22.1687242 ,Left ,41.425752244435 ,53.481973345397 ,75.539357779159
22.1865577 ,Left ,41.4753087667474 ,53.491033300372 ,75.5499057496824
22.2091999 ,Left ,41.5048259825805 ,53.5322236330492 ,75.5741061583509
22.2287702 ,Left ,41.4605147195642 ,53.580311350227 ,75.5952442609351
22.2466016 ,Left ,41.40318926065 ,53.6382504007883 ,75.5928677410926
22.2691562 ,Left ,41.3917196941915 ,53.7201947285983 ,75.5756471121719
22.2887283 ,Left ,41.3457558044462 ,53.8698300441258 ,75.5840397421098
22.3065223 ,Left ,41.2494578512344 ,54.0519660183211 ,75.5843851321896
22.3291927 ,Left ,41.1730408511955 ,54.2470105952484 ,75.5766847605352
22.3517565 ,Left ,41.1553283728276 ,54.4323760458227 ,75.5518827724117
22.3666493 ,Left ,41.1116151101441 ,54.5428721951668 ,75.5459760896772
22.3885398 ,Left ,41.0914993287068 ,54.5639755935856 ,75.5400127547272
22.4094198 ,Left ,41.1466953133666 ,54.5414860174123 ,75.5283040579587
22.4258692 ,Left ,41.0958684573374 ,54.4913922761766 ,75.50397928502
22.4483451 ,Left ,40.9817950853156 ,54.4471736115338 ,75.4893308213454
22.4695931 ,Left ,40.9444326376328 ,54.3539467089166 ,75.4304882414976
22.485872 ,Left ,40.9790365816881 ,54.2525176529803 ,75.3858516503065
22.5082002 ,Left ,40.9273151661171 ,54.1942806964141 ,75.3403841200159
22.5294486 ,Left ,40.8750728556597 ,54.1932842662339 ,75.3191418061608
22.5457458 ,Left ,40.8710286593556 ,54.2130319072394 ,75.2830761682988
22.5683262 ,Left ,40.861689568319 ,54.1955415799297 ,75.2361946587613
22.5893231 ,Left ,40.8445836455283 ,54.2658908771343 ,75.2911159283908
22.606045 ,Left ,41.0068280675849 ,54.3165532293572 ,75.3771979765306
22.6283882 ,Left ,41.1777777217479 ,54.2669785615945 ,75.3960422705012
22.6495594 ,Left ,41.2401493780494 ,54.1549482623093 ,75.3482343108033
22.6652151 ,Left ,41.122492609172 ,54.1111623549854 ,75.4052880767226
22.6883044 ,Left ,41.0590144366292 ,54.1460098855325 ,75.5048965871849
22.7094372 ,Left ,41.0839839332186 ,54.1613226606624 ,75.4525226600196
22.7252949 ,Left ,41.1624692092408 ,54.128366438147 ,75.4170342573887
22.7485466 ,Left ,41.2095221035809 ,53.9869017443341 ,75.4436350894348
22.7708131 ,Left ,41.185921055084 ,53.7656172818131 ,75.4506693673803
22.7852289 ,Left ,41.1301890941637 ,53.5159416588011 ,75.4227058648102
22.808213 ,Left ,41.1584006429826 ,53.3646497240819 ,75.4054486927024
22.8307398 ,Left ,41.2377572888194 ,53.3094051825705 ,75.4151972053114
22.8450886 ,Left ,41.3112720308837 ,53.3346495829113 ,75.480687329833
22.8681687 ,Left ,41.3261177449669 ,53.4040089450008 ,75.5107690277196
22.8908396 ,Left ,41.3306537376071 ,53.4844913286612 ,75.48105553504
22.9051944 ,Left ,41.3800428625581 ,53.5237434260426 ,75.4653860403763
22.9282512 ,Left ,41.289189870518 ,53.5284666413819 ,75.4780396458167
22.9508654 ,Left ,41.2949762720998 ,53.538706667876 ,75.5204337267345
22.9652393 ,Left ,41.3328338499006 ,53.5432905819929 ,75.5219191514635
22.9883637 ,Left ,41.3701552180047 ,53.5898624522353 ,75.5313438274087
23.011142 ,Left ,41.3324729546507 ,53.6154047480811 ,75.5187819171187
23.0252295 ,Left ,41.3222695785976 ,53.6053195560174 ,75.5012521813548
23.0483607 ,Left ,41.2748142424468 ,53.5537323092796 ,75.5187029806127
23.0707292 ,Left ,41.3150428620279 ,53.4409060379807 ,75.548567467955
23.0883831 ,Left ,41.3982286734384 ,53.3216188744564 ,75.6019608742264
23.1084154 ,Left ,41.4123430426931 ,53.2488318232763 ,75.6360998331307
23.1308519 ,Left ,41.4080030699549 ,53.2058212127583 ,75.6295375698805
23.1451351 ,Left ,41.4534239650966 ,53.2091762631685 ,75.6140760506696
23.1682461 ,Left ,41.5324783985685 ,53.2313764264148 ,75.6043309163361
23.1908406 ,Left ,41.5544038703476 ,53.2861227938814 ,75.6149461520135
23.2054511 ,Left ,41.5140785441715 ,53.3455900210973 ,75.615456570711
23.2282893 ,Left ,41.4666024910497 ,53.3994341557889 ,75.6210614840666
23.2507799 ,Left ,41.4710477091189 ,53.4302291658406 ,75.6241799364883
23.2720123 ,Left ,41.4885047077567 ,53.4329135928405 ,75.6265882656527
23.2882521 ,Left ,41.4765264943669 ,53.4226018988401 ,75.6335600488344
23.3108538 ,Left ,41.460418131466 ,53.415579333626 ,75.6315792948495
23.3318486 ,Left ,41.464415427688 ,53.4226250815497 ,75.6325442174221
23.348382 ,Left ,41.4899322653012 ,53.443768362436 ,75.6304392716405
23.3708044 ,Left ,41.5243224675846 ,53.4581547880868 ,75.6251187841547
23.391816 ,Left ,41.5546650204443 ,53.4719479656017 ,75.6352467412189
23.4083948 ,Left ,41.5545669170555 ,53.4939345559579 ,75.6469124721064
23.4307659 ,Left ,41.5594731407409 ,53.5122682915397 ,75.6580207877774
23.4517325 ,Left ,41.5992338832339 ,53.5133556010618 ,75.6630975988234
23.4684311 ,Left ,41.6543495341043 ,53.4864605388562 ,75.6696591322117
23.4908096 ,Left ,41.6867050099448 ,53.4640924745979 ,75.6615384351748
23.5119177 ,Left ,41.6479968423022 ,53.4563609728943 ,75.6634118806763
23.5283628 ,Left ,41.6023631352557 ,53.4612996583463 ,75.6618174608568
23.5507575 ,Left ,41.6082210990871 ,53.4669024021993 ,75.6265260307444
23.5719274 ,Left ,41.622877614695 ,53.5079221364997 ,75.6324907741359
23.5884353 ,Left ,41.6002336893283 ,53.5815518937596 ,75.6671258807404
23.6108253 ,Left ,41.5366761341358 ,53.6363262179561 ,75.6666191330995
23.6318438 ,Left ,41.5356781135407 ,53.6587024398379 ,75.6330289225621
23.6477261 ,Left ,41.6029015063353 ,53.6158001732681 ,75.5617509521927
23.670871 ,Left ,41.5058841334449 ,53.5629657616101 ,75.544914190353
23.6918709 ,Left ,41.4121608419626 ,53.5733373234494 ,75.5718262525516
23.7076313 ,Left ,41.3536590646308 ,53.5903516544945 ,75.5251753344771
23.7308123 ,Left ,41.4625166233781 ,53.5974326386362 ,75.4806798026402
23.7532254 ,Left ,41.5579170691617 ,53.6096886796414 ,75.4892159298076
23.7677005 ,Left ,41.5191665513153 ,53.6151798350451 ,75.5189777267805
23.7907187 ,Left ,41.4278237841346 ,53.6248031921621 ,75.5122867637829
23.8134353 ,Left ,41.3645211044149 ,53.6169617554978 ,75.4676699081159
23.8278647 ,Left ,41.3517132838555 ,53.6087204707393 ,75.4412203265139
23.8507439 ,Left ,41.3501143928238 ,53.5740543507109 ,75.4352387425541
23.8732465 ,Left ,41.3095424511288 ,53.5380003359227 ,75.4034305699852
23.887785 ,Left ,41.2554787925083 ,53.5442486412569 ,75.4063185641545
23.9109671 ,Left ,41.1817777366364 ,53.5113871054478 ,75.4106482027079
23.9336055 ,Left ,41.2453111566495 ,53.5339492152515 ,75.4039383572825
23.9475762 ,Left ,41.3457633898478 ,53.5739917093583 ,75.3578601844683
23.9709428 ,Left ,41.3945625860549 ,53.6210358461702 ,75.389491547715
23.9933489 ,Left ,41.2866764569609 ,53.673064293805 ,75.3997988026265
24.0145461 ,Left ,41.1453013470105 ,53.6796544919394 ,75.3700008421801
24.0308683 ,Left ,41.1667398562635 ,53.6886803296822 ,75.3194122755428
24.0533244 ,Left ,41.1840059373687 ,53.6623716297391 ,75.2907035477068
24.0744707 ,Left ,41.1697711680803 ,53.5908599613183 ,75.3147577364304
24.0907496 ,Left ,41.1067268528048 ,53.5641848352336 ,75.3130388599419
24.1133167 ,Left ,41.1060865125056 ,53.5850202537003 ,75.2854273680402
24.1276026 ,Left ,41.1497079571581 ,53.6312926750938 ,75.2723197681233
24.1507624 ,Left ,41.1803167503165 ,53.6767716580908 ,75.3099886114513
24.1732187 ,Left ,41.1238197656743 ,53.7404767969656 ,75.3332652921258
24.1876136 ,Left ,41.0188905890673 ,53.7453905799099 ,75.3243846097688
24.2108874 ,Left ,41.0445118163796 ,53.7962193864452 ,75.3198997719586
24.2333214 ,Left ,41.0882102550427 ,53.8926682092936 ,75.3410133477639
24.2543742 ,Left ,40.9959342123755 ,53.9923410747345 ,75.3618238144065
24.2708045 ,Left ,40.9349848136521 ,54.1120005430168 ,75.370902685396
24.2935075 ,Left ,40.9486698626168 ,54.1486329632768 ,75.3318722729214
24.3144378 ,Left ,40.9707094016101 ,54.1187974843974 ,75.3269422255986
24.3307928 ,Left ,40.932118023702 ,54.0219363006341 ,75.3104858949418
24.3533051 ,Left ,40.864311653626 ,53.9381991380414 ,75.264672687782
24.3768184 ,Left ,40.8639894270434 ,53.9309855191876 ,75.2749640543264
24.3907559 ,Left ,40.8754741205655 ,53.9383576453772 ,75.286748724977
24.4131402 ,Left ,40.8733049694075 ,53.9607018824856 ,75.2741660194273
24.4344522 ,Left ,40.8611008137347 ,54.0091899039256 ,75.2800701752244
24.4526903 ,Left ,40.8054976026039 ,54.0980141153056 ,75.2988974251883
24.4732644 ,Left ,40.7427527651179 ,54.1971518064364 ,75.2660740194085
24.4943261 ,Left ,40.751049510641 ,54.2429189954374 ,75.2231976914027
24.5108782 ,Left ,40.7007271121267 ,54.2545070146284 ,75.2484718688479
24.5333576 ,Left ,40.7556349414636 ,54.2690836487268 ,75.3305588128478
24.5544055 ,Left ,40.8278814853516 ,54.2666548980135 ,75.3580291893269
24.5701987 ,Left ,41.0084731584247 ,54.1494066300078 ,75.3244759925032
24.5932598 ,Left ,41.0114151000249 ,54.0141635375964 ,75.3310749415997
24.614531 ,Left ,40.9113171119817 ,53.9872465463218 ,75.4142764887445
24.6300885 ,Left ,40.8763193386538 ,53.9587986548387 ,75.380086161171
24.6533255 ,Left ,41.0519843985254 ,53.8999527626003 ,75.331032387971
24.6759944 ,Left ,41.1634924078785 ,53.8144107068692 ,75.331655185242
24.6904374 ,Left ,41.059340580826 ,53.7307402925594 ,75.3346037378835
24.7132013 ,Left ,41.0032702215086 ,53.6315925079172 ,75.3172804453848
24.7358139 ,Left ,41.1073346885359 ,53.5469239814918 ,75.3280300460247
24.7500713 ,Left ,41.2260238760495 ,53.5223367813113 ,75.3795821520956
24.7738051 ,Left ,41.2007025535084 ,53.5511025503753 ,75.3820308133954
24.7960297 ,Left ,41.2531161206796 ,53.5471507408358 ,75.3702422635963
24.8103948 ,Left ,41.3094800084846 ,53.4707440813935 ,75.3881165782758
24.8332525 ,Left ,41.2806871898119 ,53.4734421607008 ,75.4289701520229
24.8557686 ,Left ,41.2342961270231 ,53.5194507737227 ,75.4475527743764
24.8701696 ,Left ,41.2675921477531 ,53.5361732667357 ,75.4414314144036
24.8933307 ,Left ,41.3440819903711 ,53.5130088803441 ,75.452554708185
24.9159747 ,Left ,41.3739221727651 ,53.4835428228262 ,75.4852389536933
24.930258 ,Left ,41.3365959725652 ,53.4476152444539 ,75.5193907345564
24.9532488 ,Left ,41.3459799796567 ,53.3958487358186 ,75.5205471328875
24.9757238 ,Left ,41.3855222172567 ,53.3380823157751 ,75.520213792954
24.9901239 ,Left ,41.433147659837 ,53.3103278093486 ,75.5462739437197
25.0132803 ,Left ,41.4149458583361 ,53.2926447375325 ,75.5618270336967
25.0358385 ,Left ,41.4201766219577 ,53.2738081080768 ,75.5729964792041
25.0501265 ,Left ,41.4538380568159 ,53.2828725718952 ,75.5709283171573
25.0733969 ,Left ,41.4762730825081 ,53.3117237082844 ,75.5799610031503
25.0958675 ,Left ,41.464744595225 ,53.3723996640313 ,75.6260666686772
25.1102431 ,Left ,41.4285774786118 ,53.4326404599395 ,75.6558329264221
25.1333148 ,Left ,41.4242848746177 ,53.48465945652 ,75.6114030599776
25.1558657 ,Left ,41.4398112381376 ,53.5708477939463 ,75.5884113426211
25.1769303 ,Left ,41.3669777549814 ,53.6344903508214 ,75.5879403073822
25.1933233 ,Left ,41.2212283233824 ,53.6510956635998 ,75.5694187287093
25.215855 ,Left ,41.2664584048932 ,53.5886738304327 ,75.5142253359023
25.2368942 ,Left ,41.3750684696294 ,53.5090920139927 ,75.4746105668635
25.2531104 ,Left ,41.3490347393018 ,53.4814001059907 ,75.4782012509488
25.27585 ,Left ,41.2352351426355 ,53.4621343222187 ,75.4483279025224
25.2983122 ,Left ,41.1811818253603 ,53.4181195208738 ,75.4003764724434
25.3127161 ,Left ,41.2042355699284 ,53.4100082222479 ,75.3762852730721
25.335777 ,Left ,41.2290607191961 ,53.4228645557307 ,75.3635176522325
25.3569073 ,Left ,41.1989971360755 ,53.4108652326583 ,75.3623144652199
25.3732488 ,Left ,41.2169055330945 ,53.4249589263267 ,75.3593576879035
25.4023258 ,Left ,41.2326438985345 ,53.3672439437314 ,75.3757246998593
25.4258592 ,Left ,41.2837038813422 ,53.3561253373502 ,75.4100475715378
25.4326384 ,Left ,41.2939064040794 ,53.3872358279827 ,75.4146984078112
25.4557371 ,Left ,41.2905860359749 ,53.4566895685211 ,75.4119980938751
25.4785648 ,Left ,41.2299872572599 ,53.5347350103921 ,75.4095929393902
25.4927002 ,Left ,41.1010190592863 ,53.624839952525 ,75.4027330401784
25.5158019 ,Left ,41.0574281538172 ,53.7542627221907 ,75.3610031787171
25.5367956 ,Left ,41.0408447153759 ,53.8819035048025 ,75.3755289801151
25.5525923 ,Left ,41.0360792775429 ,54.0064507680991 ,75.4220882082869
25.575986 ,Left ,41.0341664363536 ,54.0845455744719 ,75.3882721339992
25.5981934 ,Left ,41.0966038931805 ,54.1214063676004 ,75.3867521143471
25.6125447 ,Left ,41.0520209318778 ,54.1260488603242 ,75.3905409565907
25.6358267 ,Left ,40.9033276756257 ,54.1387538847395 ,75.3781066130149
25.6587144 ,Left ,40.9025637899919 ,54.1167477971085 ,75.357525466884
25.6732491 ,Left ,40.9352659816755 ,54.0744355292571 ,75.322352151492
25.6957003 ,Left ,40.863629057447 ,54.0319337962323 ,75.2938743577186
25.7185478 ,Left ,40.7847353112247 ,54.0687786143374 ,75.2501959619638
25.7326732 ,Left ,40.8047941790516 ,54.1776339326302 ,75.2308789994091
25.7557758 ,Left ,40.7560778869112 ,54.272405852789 ,75.2447470755636
25.7782615 ,Left ,40.7106415739762 ,54.4139132823572 ,75.2839711688803
25.7927041 ,Left ,40.7240608940228 ,54.468228643772 ,75.2604135538838
25.8157644 ,Left ,40.8166015530405 ,54.4293997642845 ,75.2722773292769
25.8383079 ,Left ,40.7656646409316 ,54.3221336456352 ,75.2529823547025
25.8596182 ,Left ,40.690335941705 ,54.2377046348867 ,75.2105949025091
25.8757929 ,Left ,40.7069803768643 ,54.1985327550213 ,75.1840316022238
25.8984527 ,Left ,40.7843311452433 ,54.1470390254343 ,75.1882052952186
25.9125622 ,Left ,40.7970699399076 ,54.1345240167327 ,75.2003961851964
25.9358436 ,Left ,40.7756623846369 ,54.136395904736 ,75.209693797418
25.9583172 ,Left ,40.7745902205171 ,54.1578852221793 ,75.2032856193164
25.9726893 ,Left ,40.7710439128028 ,54.2052389779204 ,75.1867554892133
25.9956672 ,Left ,40.7512952966316 ,54.2438549304589 ,75.1926283876448
26.0182057 ,Left ,40.6721967217317 ,54.2756760992865 ,75.2042263996346
26.0325358 ,Left ,40.6000428460335 ,54.2559939474118 ,75.156775479498
26.0558684 ,Left ,40.5850391544767 ,54.2082343312112 ,75.1405811875239
26.0781381 ,Left ,40.6351430862471 ,54.1937389399169 ,75.1857123333234
26.0993621 ,Left ,40.6610255547512 ,54.1779464223188 ,75.2049516151992
26.1157678 ,Left ,40.7367779147433 ,54.0997310946269 ,75.1868382051061
26.1382816 ,Left ,40.8753733573866 ,53.8903313396329 ,75.1683881298987
26.1592475 ,Left ,40.9193224605736 ,53.7277863865183 ,75.1804204325683
26.1758568 ,Left ,40.8672867737565 ,53.7032329356079 ,75.2608590618878
26.19823 ,Left ,40.8998181085085 ,53.7462806307601 ,75.2891656968969
26.2194961 ,Left ,41.0253865116076 ,53.8009441316659 ,75.2533355200229
26.2365724 ,Left ,41.0801047843445 ,53.7748185968248 ,75.2359466819328
26.2411515 ,Left ,40.9314109111977 ,53.6625166817773 ,75.2108899433483
26.2639125 ,Left ,40.9049913907657 ,53.5485524094853 ,75.2010289419345
26.2862437 ,Left ,41.0091957309732 ,53.4794487697986 ,75.2298672603666
26.3013811 ,Left ,41.0210884475205 ,53.5042860026753 ,75.2679163304288
26.323694 ,Left ,41.0544754277696 ,53.5575476840239 ,75.252055443116
26.3461968 ,Left ,41.1573088910352 ,53.5292092230613 ,75.2529828996447
26.3613747 ,Left ,41.2144697260075 ,53.5087750867232 ,75.2850248878416
26.3837642 ,Left ,41.1481754213765 ,53.5557038115939 ,75.3189725060364
26.4064573 ,Left ,41.123319076014 ,53.6049073980026 ,75.3360087080174
26.421218 ,Left ,41.1719764025283 ,53.6242810023766 ,75.3415721287081
26.443657 ,Left ,41.2304997814085 ,53.5925813947552 ,75.3545463123541
26.4616778 ,Left ,41.2425827599136 ,53.5253851749381 ,75.3879858995323
26.481121 ,Left ,41.2129931767005 ,53.4542639948875 ,75.4118379891422
26.511264 ,Left ,41.2020520294974 ,53.3833450570196 ,75.4026226607477
26.5215943 ,Left ,41.2714618053073 ,53.3305176614962 ,75.3989152425124
26.5412516 ,Left ,41.3285324003609 ,53.316578045746 ,75.4028056612286
26.5637246 ,Left ,41.3483428623532 ,53.3215003312874 ,75.419047223672
26.5818468 ,Left ,41.3491908500603 ,53.3340905891259 ,75.4344642457731
26.603069 ,Left ,41.3671061980244 ,53.3392897198789 ,75.4335323201723
26.6237106 ,Left ,41.4394209476922 ,53.3422580601373 ,75.4463866309264
26.6416256 ,Left ,41.4425063922717 ,53.3411352345561 ,75.4731256862689
26.661302 ,Left ,41.4230465797769 ,53.3353503010354 ,75.4806293172129
26.6836442 ,Left ,41.3934478588936 ,53.3452245784296 ,75.4695296859433
26.7016247 ,Left ,41.3793029860267 ,53.3919121341118 ,75.496916131855
26.7212654 ,Left ,41.3139218610108 ,53.426418406279 ,75.4911684012686
26.743654 ,Left ,41.2812677388469 ,53.458705376383 ,75.4735176982208
26.7661669 ,Left ,41.3962217119003 ,53.4945737470953 ,75.425288141221
26.7887367 ,Left ,41.324520337438 ,53.4951027455758 ,75.4261802447866
26.8111545 ,Left ,41.2131078733662 ,53.500486141964 ,75.4729713591979
26.8262729 ,Left ,41.1555396512629 ,53.4709317315086 ,75.4408407750118
26.8414315 ,Left ,41.2675467099849 ,53.4462285512822 ,75.3970398734554
26.8636525 ,Left ,41.3481751722095 ,53.4726762330391 ,75.4166587133009
26.8864447 ,Left ,41.2892993783753 ,53.5096092112246 ,75.4211275197287
26.9012749 ,Left ,41.1813728517142 ,53.5115421720179 ,75.365634490627
26.9237059 ,Left ,41.2029046308006 ,53.4765753102225 ,75.3318010827332
26.941535 ,Left ,41.2180002603526 ,53.3965632578295 ,75.3102726590308
26.9614329 ,Left ,41.1698270925347 ,53.3696346114959 ,75.3093393119574
26.9836878 ,Left ,41.0911473697323 ,53.3548452660836 ,75.2971445176896
27.0031734 ,Left ,41.098108205681 ,53.3904152470602 ,75.262238907322
27.0229587 ,Left ,41.1321073924368 ,53.4855477224032 ,75.2624998716478
27.0435539 ,Left ,41.1114422659589 ,53.5202808914536 ,75.2901464819896
27.0615494 ,Left ,41.1535201433782 ,53.532839100039 ,75.3100461746994
27.0811885 ,Left ,41.2023163579257 ,53.5497036273975 ,75.3010235674618
27.1036928 ,Left ,41.2023654984703 ,53.5551769129575 ,75.3150773806321
27.1215958 ,Left ,41.1319397069612 ,53.5679735366192 ,75.3288941266101
27.1426968 ,Left ,41.0268886148607 ,53.557438239604 ,75.3023139676223
27.1635695 ,Left ,41.0421777193321 ,53.5434894876392 ,75.2568397975318
27.1814752 ,Left ,41.040072126373 ,53.5100702685121 ,75.2154157868299
27.2027475 ,Left ,41.0422309387663 ,53.4223864577813 ,75.2402160771201
27.2238982 ,Left ,41.0074244620241 ,53.365925962076 ,75.2154470161561
27.2415551 ,Left ,41.0203331614596 ,53.3830028410763 ,75.1917927851727
27.262566 ,Left ,41.0729611227278 ,53.4461623801772 ,75.1730458607984
27.2839675 ,Left ,41.0906487711356 ,53.4937404062771 ,75.1759354559402
27.3015766 ,Left ,41.0078701241487 ,53.5709723412874 ,75.2373622006417
27.3225607 ,Left ,40.937164878504 ,53.6402420874661 ,75.2680318825317
27.3450398 ,Left ,40.9716376937847 ,53.7790476878073 ,75.3090848337213
27.3675482 ,Left ,40.9028636873861 ,53.9118769074457 ,75.3529436173139
27.3826483 ,Left ,40.8199612997588 ,54.0937238421562 ,75.3975345045579
27.4038246 ,Left ,40.8160614425409 ,54.1991602909595 ,75.3773547458858
27.4215204 ,Left ,40.8428496618376 ,54.2252628261298 ,75.3773992437997
27.4425409 ,Left ,40.7966112352495 ,54.1858765998205 ,75.3586669081817
27.463596 ,Left ,40.7244600799182 ,54.1298954677713 ,75.3235204706784
27.4815821 ,Left ,40.6623498865662 ,54.0953493501178 ,75.2710448314416
27.5040294 ,Left ,40.6025003473497 ,54.0700352661666 ,75.2259897401733
27.5239812 ,Left ,40.6191536495884 ,54.0645558511226 ,75.187347220268
27.541614 ,Left ,40.6632265976557 ,54.0680979030113 ,75.1815927714771
27.5640004 ,Left ,40.6217186770237 ,54.0881052202809 ,75.1553997639224
27.58372 ,Left ,40.535791709569 ,54.1035811708316 ,75.0988805378435
27.6014139 ,Left ,40.5155065025108 ,54.1227945143122 ,75.0506181858421
27.6242186 ,Left ,40.5197595867481 ,54.1109878259333 ,75.0127192586964
27.6465021 ,Left ,40.5581952734963 ,54.074988465052 ,75.0183144113185
27.661616 ,Left ,40.6228444055274 ,54.0581321251788 ,75.0668066229041
27.6842558 ,Left ,40.6693254173523 ,54.0338702593595 ,75.107920692931
27.7037933 ,Left ,40.7825488953577 ,53.966969876115 ,75.1114916188347
27.7215866 ,Left ,40.8376815984357 ,53.8821598734973 ,75.1646846662671
27.7440916 ,Left ,40.8100637322882 ,53.8330276335133 ,75.2238341866193
27.7639372 ,Left ,40.8463519984569 ,53.8012424067736 ,75.2438497942915
27.7814707 ,Left ,40.9640668406987 ,53.7201968008056 ,75.2696185478625
27.8040825 ,Left ,41.0208138049384 ,53.6046455262224 ,75.2708662835421
27.8252901 ,Left ,40.9295731130487 ,53.4823191862672 ,75.2686034509455
27.8417646 ,Left ,40.8835693483153 ,53.3796546432804 ,75.2461440375259
27.8640961 ,Left ,41.0307069061481 ,53.3029180277317 ,75.258741639578
27.883762 ,Left ,41.093367893383 ,53.2855840286003 ,75.2916363802435
27.9018975 ,Left ,41.0509130872623 ,53.3346449761357 ,75.2908392907299
27.9241236 ,Left ,41.0664695551378 ,53.3268758097011 ,75.2920614256833
27.9443891 ,Left ,41.1523700736118 ,53.2939407119608 ,75.2936143126244
27.9608238 ,Left ,41.1911488864391 ,53.3184693017105 ,75.2995676383537
27.9832093 ,Left ,41.184693622842 ,53.3642416187816 ,75.3433473574393
28.0045667 ,Left ,41.2048981523012 ,53.4351674033567 ,75.3987656414937
28.0207898 ,Left ,41.2330870557389 ,53.4815656756211 ,75.439503258277
28.0442286 ,Left ,41.2584669074985 ,53.5079594429843 ,75.481303566727
28.0635736 ,Left ,41.2738236451544 ,53.5026722035772 ,75.5155947703666
28.081155 ,Left ,41.2812519850187 ,53.4651369090897 ,75.5417552350189
28.1032319 ,Left ,41.2819322837187 ,53.4132959105759 ,75.5566476863353
28.1244141 ,Left ,41.2763386076448 ,53.3486938097512 ,75.5660070778797
28.1407225 ,Left ,41.2728568992943 ,53.3079054685194 ,75.5679663476205
28.163302 ,Left ,41.2912513571587 ,53.2799750145767 ,75.557538978691
28.1843529 ,Left ,41.3112596431785 ,53.2795619175132 ,75.5446256141367
28.2007754 ,Left ,41.3100381655654 ,53.3012415236825 ,75.5257482183693
28.2232133 ,Left ,41.3347001623203 ,53.3376777506523 ,75.4847813426629
28.2444208 ,Left ,41.3587999207344 ,53.3502350819971 ,75.4569818600178
28.2608675 ,Left ,41.3294771800721 ,53.3829307830475 ,75.4566950300996
28.2832353 ,Left ,41.3465169014425 ,53.3930539283047 ,75.4698017307075
28.3044187 ,Left ,41.3696003233581 ,53.3884499769277 ,75.4664683016688
28.3208228 ,Left ,41.381980302617 ,53.3829242323211 ,75.4649641880549
28.3433263 ,Left ,41.3688687283305 ,53.393809189228 ,75.4505001134692
28.3644902 ,Left ,41.3710364295757 ,53.4039224263927 ,75.4303842314293
28.3807394 ,Left ,41.3552969190629 ,53.4185921292505 ,75.4187611943006
28.4032261 ,Left ,41.3431415925882 ,53.4359215216893 ,75.4178909482516
28.4259225 ,Left ,41.343728745548 ,53.443258196052 ,75.4076398843271
28.4401081 ,Left ,41.3480427235563 ,53.4395365912134 ,75.3954223837112
28.4635317 ,Left ,41.3400037102609 ,53.4447622380662 ,75.3870340539833
28.4880508 ,Left ,41.3169532430082 ,53.4571100905334 ,75.3861978817423
28.5007187 ,Left ,41.3207883054003 ,53.4759535279703 ,75.3881179739503
28.5232208 ,Left ,41.3498536247784 ,53.5109765938596 ,75.4098762124627
28.5457696 ,Left ,41.3375980389557 ,53.5472805958462 ,75.4509234859678
28.5607535 ,Left ,41.2867534402045 ,53.5770789611801 ,75.4520170910829
28.5834718 ,Left ,41.3189105177651 ,53.587723920913 ,75.4024233468424
28.605789 ,Left ,41.3547598241776 ,53.5930602745029 ,75.3501118823522
28.6200699 ,Left ,41.292958472789 ,53.6383745827477 ,75.3685687974878
28.6432548 ,Left ,41.1752177147478 ,53.6907630493644 ,75.3836887093723
28.6657756 ,Left ,41.1641958671388 ,53.718751634665 ,75.3538365914445
28.6801807 ,Left ,41.2837770884231 ,53.7124751049915 ,75.3397166177464
28.7042358 ,Left ,41.2519156877845 ,53.6801909939998 ,75.3326867841852
28.733372 ,Left ,41.2339276455766 ,53.6351673515329 ,75.343539323401
28.746863 ,Left ,41.2017253015377 ,53.5616644993773 ,75.3380282714181
28.7632837 ,Left ,41.2291816223375 ,53.4951893733996 ,75.3565025497121
28.7860582 ,Left ,41.2259971984224 ,53.4554941967857 ,75.3013027547349
28.8000155 ,Left ,41.2969723776415 ,53.4141568430975 ,75.271614354625
28.8233151 ,Left ,41.3562772116232 ,53.3888498449119 ,75.2620883099586
28.8457267 ,Left ,41.3376251276011 ,53.3545003927497 ,75.2388224620897
28.8601403 ,Left ,41.3055591571157 ,53.3565232116598 ,75.2622402758149
28.8832512 ,Left ,41.2728968432531 ,53.3391424152913 ,75.2624377114445
28.9058051 ,Left ,41.3198189880845 ,53.3060574982266 ,75.2627203928716
28.9268811 ,Left ,41.3274401387754 ,53.2687645239205 ,75.2739486229987
28.9432178 ,Left ,41.3126520165893 ,53.2217558741816 ,75.2882312194896
28.9658634 ,Left ,41.2740345273821 ,53.1977918746528 ,75.2999334751855
28.9868672 ,Left ,41.2553699112014 ,53.2028897617411 ,75.2847271122545
29.0037241 ,Left ,41.2504802794594 ,53.2309167384959 ,75.256613162336
29.0316876 ,Left ,41.2404284766746 ,53.2735937023322 ,75.2238350424896
29.0468279 ,Left ,41.2055690740548 ,53.331191792603 ,75.2140607935375
29.0651983 ,Left ,41.1439052285204 ,53.3933773852858 ,75.1783539808483
29.0857317 ,Left ,41.1137201472132 ,53.438523120139 ,75.1369202328736
29.1070567 ,Left ,41.1470859947884 ,53.4092671141484 ,75.1838413364216
29.1233645 ,Left ,41.109530653732 ,53.4362879007454 ,75.2278224925286
29.1457414 ,Left ,41.1255665045395 ,53.4671906029952 ,75.2131026732813
29.1670713 ,Left ,41.1881544517871 ,53.4751359514244 ,75.2090252527262
29.1832 ,Left ,41.1941111924939 ,53.5179170869323 ,75.2183290180557
29.2057956 ,Left ,41.0925644386291 ,53.5515129307263 ,75.2070069151726
29.2268592 ,Left ,41.0540565270985 ,53.5704287862138 ,75.162843489251
29.2433219 ,Left ,41.0772292997399 ,53.5905579940101 ,75.1310188002333
29.2663196 ,Left ,41.0096557437879 ,53.6523479558775 ,75.1712779583194
29.287263 ,Left ,40.9742965944326 ,53.6993826407786 ,75.2143494161016
29.3108163 ,Left ,41.0654207987972 ,53.6567776801107 ,75.1692445055446
29.3258113 ,Left ,41.102879295039 ,53.5703167674467 ,75.1239791666762
29.3468606 ,Left ,41.0395653774648 ,53.5422949679952 ,75.1527770816135
29.3626805 ,Left ,40.9212185226348 ,53.5160580877 ,75.1320627325714
29.385816 ,Left ,40.9841523913859 ,53.4599757285942 ,75.1007008187174
29.4081561 ,Left ,41.0391050028328 ,53.4188365663199 ,75.0949146649838
29.4232668 ,Left ,40.9797019571139 ,53.3939718898259 ,75.1200312572036
29.4458118 ,Left ,40.9225451253934 ,53.4077039795314 ,75.1313331731321
29.46819 ,Left ,40.9869774589948 ,53.4267931128141 ,75.1451885603576
29.4833516 ,Left ,40.9975530242178 ,53.4023640168369 ,75.2105549901794
29.5056888 ,Left ,40.9579985830349 ,53.448418545472 ,75.2694869585328
29.5282415 ,Left ,40.8895989508199 ,53.5375087038884 ,75.2691154419494
29.5426623 ,Left ,40.9342813369109 ,53.5847027402949 ,75.2397650246282
29.5658212 ,Left ,40.9150827896201 ,53.5979255446209 ,75.2529639341039
29.5882693 ,Left ,40.8505828491299 ,53.5533284822133 ,75.2437324397666
29.6027586 ,Left ,40.7763831973764 ,53.483061285998 ,75.2114990307188
29.6258521 ,Left ,40.7543575216231 ,53.4498071019562 ,75.1983873926472
29.6482811 ,Left ,40.7081174277741 ,53.4013877070565 ,75.1992560197918
29.6626225 ,Left ,40.7368385196984 ,53.3558215670232 ,75.2144479286478
29.6893768 ,Left ,40.813302539989 ,53.2775291734041 ,75.1843650915466
29.7082165 ,Left ,40.7309836433766 ,53.2231338145282 ,75.1135112219131
29.7295779 ,Left ,40.6469004732303 ,53.2942764621282 ,75.0865000638094
29.7458029 ,Left ,40.6023012455847 ,53.3771074168098 ,75.0400044125693
29.7682383 ,Left ,40.6253606458327 ,53.4268529543668 ,75.0252816293567
29.789607 ,Left ,40.5430407100636 ,53.504495856359 ,75.0622248704507
29.8057522 ,Left ,40.4204632998222 ,53.587724650859 ,75.1155885980421
29.8285022 ,Left ,40.3650937507308 ,53.6204542879136 ,75.1204439780534
29.8493972 ,Left ,40.5038208037629 ,53.5726845248926 ,75.1195476814051
29.8658458 ,Left ,40.6386369278734 ,53.3984956203083 ,75.0851975423766
29.8882471 ,Left ,40.5835229468167 ,53.1437147404588 ,75.0388487569224
29.9094216 ,Left ,40.5167378188298 ,52.9619708977492 ,75.0419321111603
29.9258375 ,Left ,40.5357940559731 ,52.8400658457817 ,75.1270106931827
29.9482081 ,Left ,40.6391032549382 ,52.7615615280997 ,75.1629701703586
29.9694313 ,Left ,40.6860835205272 ,52.6776114454673 ,75.132439956366
29.9857534 ,Left ,40.6622728263827 ,52.5985492727229 ,75.1463498295078
30.0084765 ,Left ,40.6076217667524 ,52.510686665008 ,75.140497083994
30.0295546 ,Left ,40.5478909332844 ,52.5127498590089 ,75.1510597187821
30.0456831 ,Left ,40.6145980653202 ,52.5826423847147 ,75.1550902679776
30.0683229 ,Left ,40.6135107625616 ,52.7090974405147 ,75.1594056116823
30.0894805 ,Left ,40.6456249614595 ,52.792069464676 ,75.1786251818525
30.1056781 ,Left ,40.7153821657457 ,52.7906657660718 ,75.2199167014635
30.1282762 ,Left ,40.7623062177074 ,52.7379871916525 ,75.2507376580971
30.1497124 ,Left ,40.7461463351128 ,52.74105247647 ,75.2834432162504
30.1658046 ,Left ,40.7602582151777 ,52.7443549820337 ,75.315371024291
30.1882812 ,Left ,40.847605290343 ,52.7333507039439 ,75.328021929461
30.2092287 ,Left ,40.914599493801 ,52.7129865778108 ,75.3354284610437
30.2258623 ,Left ,40.9296899229738 ,52.6972118151318 ,75.356406771099
30.2483713 ,Left ,40.9597067984961 ,52.6731802733177 ,75.3518504428293
30.2694133 ,Left ,41.0179545258974 ,52.6396613265296 ,75.3372562190006
30.2857302 ,Left ,41.0524744510227 ,52.6086014796383 ,75.333263713737
30.3081867 ,Left ,41.052985983238 ,52.5712638258199 ,75.3471211763357
30.330846 ,Left ,41.0621791828583 ,52.5510434841328 ,75.3730541305243
30.3457184 ,Left ,41.075597778167 ,52.5361101678225 ,75.4177853555824
30.3683417 ,Left ,41.1130990777845 ,52.4867868206874 ,75.4497668661621
30.3983218 ,Left ,41.1437302557865 ,52.4570430843595 ,75.4551499540592
30.4057283 ,Left ,41.1246712741995 ,52.492376252712 ,75.4906998622128
30.4284432 ,Left ,41.091877076837 ,52.5341211910183 ,75.5369298413197
30.4507738 ,Left ,41.09882242016 ,52.5616664581382 ,75.5535934732172
30.4650109 ,Left ,41.114040425217 ,52.5683188958387 ,75.5696250703353
30.4883061 ,Left ,41.1004516874808 ,52.5622320431312 ,75.6158934655513
30.5107767 ,Left ,41.1258737453307 ,52.5807400583721 ,75.5885792776562
30.52504 ,Left ,41.0499882704855 ,52.6654988034649 ,75.5579195080909
30.5484075 ,Left ,41.0155113137447 ,52.7468809894614 ,75.5666433081694
30.5707868 ,Left ,40.9346510893508 ,52.7822454795934 ,75.5140628436105
30.58546 ,Left ,40.9060937015778 ,52.7973428034897 ,75.4691237191224
30.6084552 ,Left ,40.9417166939493 ,52.788740412821 ,75.430138162828
30.6307859 ,Left ,40.8975453008481 ,52.754296680483 ,75.4291239276199
30.6517845 ,Left ,40.8374020911647 ,52.7119645549767 ,75.4095738969013
30.6743606 ,Left ,40.7914690189799 ,52.6438672882732 ,75.3300401075189
30.6908659 ,Left ,40.7964531103206 ,52.5653894320915 ,75.2837111484051
30.7118846 ,Left ,40.780365340458 ,52.4776310286704 ,75.262349432938
30.7282549 ,Left ,40.7288479899852 ,52.3946323294454 ,75.2486010942314
30.7507217 ,Left ,40.6823830083388 ,52.3731940345992 ,75.2020714181329
30.7732876 ,Left ,40.6864113542163 ,52.4184411065324 ,75.1906438356769
30.7882311 ,Left ,40.7725962586563 ,52.438236965171 ,75.2255796730596
30.8107201 ,Left ,40.8446258685852 ,52.4540628760153 ,75.2528288518682
30.8331902 ,Left ,40.8702293675692 ,52.4988898248665 ,75.275697890028
30.8482875 ,Left ,40.8678769121519 ,52.554784914665 ,75.3144020337967
30.8708068 ,Left ,40.8333350389755 ,52.6032030354255 ,75.3177626878342
30.8928595 ,Left ,40.7738331961486 ,52.6449516924131 ,75.2683638394532
30.9084857 ,Left ,40.782159330468 ,52.6842602807262 ,75.2370880477694
30.930789 ,Left ,40.7044565310099 ,52.6758852335384 ,75.2534484045556
30.9536378 ,Left ,40.7134244086747 ,52.6515249931584 ,75.2359055108883
30.9682329 ,Left ,40.7706926024566 ,52.6204323159724 ,75.1853877157825
30.9908076 ,Left ,40.759425167253 ,52.6377869669633 ,75.1809224043816
31.0119961 ,Left ,40.6870306053731 ,52.693671963352 ,75.17296042159
31.0282837 ,Left ,40.6274601991501 ,52.7118030826589 ,75.1498480698285
31.0506706 ,Left ,40.6022479562402 ,52.7151042970633 ,75.1578639244947
31.0719195 ,Left ,40.575021228148 ,52.6834924957638 ,75.1504165924883
31.0882826 ,Left ,40.5451451078606 ,52.753235315891 ,75.1592948033062
31.1110535 ,Left ,40.474060217568 ,52.8545339085077 ,75.1618372001763
31.1318359 ,Left ,40.4270881056833 ,53.0322105197724 ,75.1717366738845
31.1483433 ,Left ,40.401263593842 ,53.2045188564739 ,75.1550549212336
31.1708112 ,Left ,40.4114376161933 ,53.2760644925414 ,75.1222866016446
31.1917502 ,Left ,40.4331575957266 ,53.263984461192 ,75.1322038019992
31.2083006 ,Left ,40.3922994185643 ,53.1790031741772 ,75.1054316642365
31.2308272 ,Left ,40.3443005519642 ,53.1045102617059 ,75.051620580325
31.2520102 ,Left ,40.3677401036205 ,53.0720290720619 ,75.0147917402495
31.2683003 ,Left ,40.4083237497329 ,53.0247180084168 ,74.9956087154132
31.2908126 ,Left ,40.4467403872933 ,52.9785624001679 ,74.9764582547657
31.3133913 ,Left ,40.4877591849185 ,52.9481618724123 ,74.9621027963935
31.3302361 ,Left ,40.5001129173977 ,52.9726178092544 ,74.9628879714949
31.3506656 ,Left ,40.4769110481456 ,53.0325961226381 ,74.9488852648738
31.3732437 ,Left ,40.4783068621911 ,53.08119247715 ,74.9052553761819
31.3882836 ,Left ,40.496571262071 ,53.1438126947523 ,74.8610990720469
31.410723 ,Left ,40.4197954516556 ,53.2773884096999 ,74.866311611052
31.4331893 ,Left ,40.3112806719251 ,53.4189762623515 ,74.8737703885188
31.4475473 ,Left ,40.2095102974509 ,53.4675328505316 ,74.7923772190367
31.470957 ,Left ,40.1856593426364 ,53.4323855368252 ,74.7125828854643
31.4932849 ,Left ,40.1284509881439 ,53.3397684921039 ,74.6948890950282
31.507506 ,Left ,40.0623735766713 ,53.281377623035 ,74.7075998895849
31.5325449 ,Left ,40.1407296050064 ,53.1950745493366 ,74.7101902492022
31.5533798 ,Left ,40.3656430125341 ,52.9891835294153 ,74.6928102369286
31.5674869 ,Left ,40.4994550746162 ,52.7065374587007 ,74.6837029929731
31.5906127 ,Left ,40.3970332829256 ,52.5758606507595 ,74.7639325450522
31.6131092 ,Left ,40.3923672751742 ,52.5668003308457 ,74.8465390995837
31.6342832 ,Left ,40.4934730710865 ,52.603645552968 ,74.8086947577785
31.650709 ,Left ,40.638841876193 ,52.5967612818042 ,74.7716344979827
31.6731712 ,Left ,40.5405483325912 ,52.5169149198445 ,74.8063807315535
31.6942277 ,Left ,40.4721606481335 ,52.3921978042223 ,74.8606317176327
31.7107064 ,Left ,40.556060651727 ,52.2602329616621 ,74.8959047416818
31.7331857 ,Left ,40.5857044515334 ,52.2233528692093 ,74.900496758115
31.7543544 ,Left ,40.5817917445376 ,52.2993602870044 ,74.8891995928957
31.7701576 ,Left ,40.6469718300778 ,52.3399055539425 ,74.8702463476401
31.7932166 ,Left ,40.7252083026554 ,52.3263966093054 ,74.867248147929
31.8142511 ,Left ,40.723765328148 ,52.3704728258515 ,74.8717829692158
31.8307413 ,Left ,40.7425646988333 ,52.3987404114711 ,74.8610856123563
31.8533104 ,Left ,40.8172373240615 ,52.4171897905472 ,74.8840552989931
31.8743562 ,Left ,40.8560855959796 ,52.4238853642594 ,74.9237187998955
31.8906569 ,Left ,40.862453853961 ,52.4182371713497 ,74.9880896069434
31.9132653 ,Left ,40.8667731308094 ,52.3837148853587 ,75.05084430641
31.9185693 ,Left ,40.9156234087883 ,52.334579374704 ,75.0978845798174
31.9411984 ,Left ,40.974049754319 ,52.2638323366319 ,75.1357920809666
31.9563609 ,Left ,41.0106686507024 ,52.2228373629232 ,75.1807488226795
31.9788353 ,Left ,40.9940204461254 ,52.2165247864793 ,75.212388388537
32.001138 ,Left ,40.99755659222 ,52.2314635713699 ,75.2379700306781
32.0162062 ,Left ,41.0213055630649 ,52.2558093684757 ,75.2416093398102
32.0388921 ,Left ,41.059368420307 ,52.2846866467666 ,75.2297752395656
32.063701 ,Left ,41.067485237224 ,52.3372511219346 ,75.2341007268373
32.0760518 ,Left ,41.0524193797025 ,52.3956714483887 ,75.2365273044659
32.0988268 ,Left ,41.0635355545956 ,52.4377099926771 ,75.2191128575034
32.1213663 ,Left ,41.0514403937119 ,52.455128151926 ,75.1795387424148
32.1363375 ,Left ,41.0272072832587 ,52.4900196044925 ,75.1685479168911
32.1586647 ,Left ,40.9967810064675 ,52.538734655088 ,75.1410487601592
32.1768003 ,Left ,40.9910621347767 ,52.6042911851388 ,75.1045979417054
32.1961159 ,Left ,41.0031738140479 ,52.6269249438682 ,75.0852971262225
32.2188459 ,Left ,41.0180680424043 ,52.5930434769658 ,75.0776736683612
32.2411505 ,Left ,41.1048398334614 ,52.5654122581186 ,75.0648893448089
32.256247 ,Left ,41.0439206838352 ,52.5829575602385 ,75.1154111939631
32.2787816 ,Left ,40.9896504947123 ,52.6269095565487 ,75.1621752390603
32.3012416 ,Left ,40.9597215174902 ,52.6774661499268 ,75.1402121977811
32.3162433 ,Left ,41.0300602316985 ,52.7007567342518 ,75.1142715156419
32.340061 ,Left ,41.0684283296985 ,52.6899593838331 ,75.0906870728472
32.3566531 ,Left ,41.017585367913 ,52.659764388192 ,75.0901507610706
32.3762032 ,Left ,40.9162295795374 ,52.6798987974272 ,75.0514964583164
32.398669 ,Left ,40.8472025962122 ,52.6672960211521 ,74.9982714299627
32.4215987 ,Left ,40.8214156994293 ,52.6166781380248 ,74.9797222783525
32.436181 ,Left ,40.7929028961322 ,52.5692777424172 ,74.9875975948905
32.4586234 ,Left ,40.7388569291009 ,52.5111412532448 ,74.9568270959296
32.476644 ,Left ,40.7221627268187 ,52.5026830801387 ,74.8889976452206
32.4960799 ,Left ,40.6667602140721 ,52.4712022422833 ,74.8528670039766
32.5186732 ,Left ,40.7092435126628 ,52.426357820055 ,74.8448170739691
32.5411861 ,Left ,40.7861648603745 ,52.4049575321352 ,74.8118536696722
32.5562287 ,Left ,40.8100472073495 ,52.4196055840932 ,74.8090703815648
32.5814856 ,Left ,40.7769769773654 ,52.4625670319805 ,74.8066685885091
32.5966447 ,Left ,40.7234509606689 ,52.5232409528354 ,74.7901351147021
32.6190777 ,Left ,40.7137951882583 ,52.6130379325541 ,74.7574012190559
32.6416001 ,Left ,40.7367739409125 ,52.7000899913625 ,74.7621376783507
32.6564519 ,Left ,40.6889868978099 ,52.7227903414783 ,74.8292076861965
32.6762157 ,Left ,40.6490411541944 ,52.7098455841065 ,74.8319226400184
32.6987811 ,Left ,40.6876174527289 ,52.6649891330137 ,74.789607138485
32.7164447 ,Left ,40.6837313667585 ,52.6768325292926 ,74.8199845846723
32.7361818 ,Left ,40.6113371622736 ,52.7130955910378 ,74.8306591412121
32.7587555 ,Left ,40.5943418302563 ,52.728440788406 ,74.7897885188224
32.7765075 ,Left ,40.6043106537429 ,52.703501955966 ,74.7932839556689
32.7974893 ,Left ,40.5658435726749 ,52.6758367624666 ,74.7903921295411
32.8186146 ,Left ,40.5269311364108 ,52.7251449931653 ,74.7879441378961
32.8364964 ,Left ,40.4561354481735 ,52.75184341462 ,74.8005006058771
32.8580366 ,Left ,40.4243361365431 ,52.7930179611593 ,74.7953501788365
32.8788027 ,Left ,40.4857690090368 ,52.823479488272 ,74.7864342635706
32.8970528 ,Left ,40.5597295840035 ,52.8153624398743 ,74.7748680473351
32.9190012 ,Left ,40.5423325366142 ,52.7919173641534 ,74.7900386370199
32.9387708 ,Left ,40.4308293855163 ,52.7734464682249 ,74.7983218231549
32.9565059 ,Left ,40.3729020991553 ,52.7772544194035 ,74.7839081184679
32.9774761 ,Left ,40.4739355691668 ,52.7667970857857 ,74.7607622081266
32.9987497 ,Left ,40.4811468228164 ,52.7711796659815 ,74.7611349499405
33.0167566 ,Left ,40.3992509540155 ,52.8103560449972 ,74.7469094511909
33.0383506 ,Left ,40.3064023729458 ,52.8628454700256 ,74.7201240365918
33.0586892 ,Left ,40.2788733549073 ,52.9384053812175 ,74.6733981883301
33.0765366 ,Left ,40.2771208425778 ,52.9702093424143 ,74.62228082848
33.0976065 ,Left ,40.2390999687279 ,52.9395520954636 ,74.5788443743983
33.1185898 ,Left ,40.18287858365 ,52.8758630599437 ,74.5534702904776
33.1365239 ,Left ,40.1540549236353 ,52.8511519014317 ,74.5746891189327
33.1590992 ,Left ,40.2213875272829 ,52.8530326929572 ,74.5972490400987
33.1786929 ,Left ,40.3924912678508 ,52.7923910081965 ,74.6055198503596
33.1964565 ,Left ,40.4389873831584 ,52.6489995306493 ,74.610990353392
33.2191243 ,Left ,40.3992666380193 ,52.5708594213159 ,74.65591707098
33.2386984 ,Left ,40.3945296629388 ,52.5681737661398 ,74.7163352867665
33.2640685 ,Left ,40.4623612104429 ,52.5571464604263 ,74.6798851938779
33.2790696 ,Left ,40.5059751593003 ,52.4699524444236 ,74.6410105589881
33.2986547 ,Left ,40.4396798003751 ,52.3815579866106 ,74.6423528879984
33.3165544 ,Left ,40.3927434845493 ,52.3018338055809 ,74.6348870126084
33.339012 ,Left ,40.4446785969243 ,52.2580743268654 ,74.6537509813278
33.3586124 ,Left ,40.515120797671 ,52.2167180453957 ,74.6530432631742
33.3767581 ,Left ,40.544342034605 ,52.1772342814833 ,74.6616007636163
33.3990131 ,Left ,40.5431827879425 ,52.1420109564872 ,74.7055652055292
33.4185976 ,Left ,40.5289666571627 ,52.1774382469646 ,74.7644330152262
33.4366568 ,Left ,40.5880958898025 ,52.2186941187394 ,74.8222206858719
33.4591353 ,Left ,40.6536150854957 ,52.2306622947627 ,74.8799498710226
33.4786166 ,Left ,40.6923268720388 ,52.2019677298358 ,74.9303734026187
33.4964713 ,Left ,40.6796896539974 ,52.1777214531533 ,74.9684452410128
33.5190687 ,Left ,40.6802161353785 ,52.1695664455918 ,74.9937672963558
33.5386475 ,Left ,40.6869515496876 ,52.1587879013517 ,75.0064356322923
33.5565463 ,Left ,40.7011080253351 ,52.1379761500124 ,75.0197245096348
33.579027 ,Left ,40.6939145256293 ,52.1079530610585 ,75.03443805594
33.5986793 ,Left ,40.7134211009499 ,52.0793695852247 ,75.054398265698
33.6164935 ,Left ,40.725908804487 ,52.0618204215244 ,75.0879036175631
