timestamp,event,roll,pitch,yaw
0.0288589 ,Left ,62,8346934388649 ,45,790091825976 ,87,1616882974565
0.0439307 ,Left ,62,8151977716458 ,45,7959312113539 ,87,1519844660284
0.066483 ,Left ,62,8007680302506 ,45,7982118220088 ,87,1440138095841
0.089003 ,Left ,62,8007680302506 ,45,7982118220088 ,87,1440138095841
0.1045126 ,Left ,62,7927551009125 ,45,7963281073435 ,87,1406910543263
0.1272846 ,Left ,62,7737487671746 ,45,7991597370065 ,87,1329690077627
0.1492562 ,Left ,62,7585091687946 ,45,8037637312519 ,87,1242492537376
0.1642286 ,Left ,62,7574604369886 ,45,8061438907704 ,87,1168773825337
0.1864118 ,Left ,62,7523523975403 ,45,8108216395718 ,87,1118999006661
0.2165137 ,Left ,62,7539217379186 ,45,8214218400531 ,87,1041461077207
0.2315161 ,Left ,62,7560139408706 ,45,8220513675321 ,87,1046785179639
0.2544114 ,Left ,62,7539217379186 ,45,8214218400531 ,87,1041461077207
0.2694409 ,Left ,62,768842535327 ,45,8263089440014 ,87,1000496261612
0.2844829 ,Left ,62,7741629930502 ,45,8328456124364 ,87,0943692678793
0.3067754 ,Left ,62,7775160081682 ,45,842308222964 ,87,0916186463325
0.3291728 ,Left ,62,7796086712116 ,45,8429383882534 ,87,0921543796408
0.3440217 ,Left ,62,7775160081682 ,45,842308222964 ,87,0916186463325
0.3663462 ,Left ,62,7775160081682 ,45,842308222964 ,87,0916186463325
0.3888752 ,Left ,62,776380892933 ,45,8487399162701 ,87,0922476886156
0.4037559 ,Left ,62,7730577408375 ,45,8639822566958 ,87,086146532251
0.4263613 ,Left ,62,7614681282348 ,45,8826915203894 ,87,08148077455
0.4489533 ,Left ,62,7604756328128 ,45,8956197444893 ,87,071278070343
0.4638558 ,Left ,62,7641940871378 ,45,9056995041762 ,87,0673621003399
0.4864988 ,Left ,62,7620708405165 ,45,9250507591116 ,87,0578092364167
0.5089635 ,Left ,62,7429934683258 ,45,943082372973 ,87,0408526206837
0.52413 ,Left ,62,7422578858759 ,45,96603689079 ,87,0233383119095
0.5466205 ,Left ,62,7475102517447 ,45,9837785897637 ,87,0005564521089
0.5689384 ,Left ,62,7286485244466 ,45,9799890101322 ,86,9847061958925
0.5840333 ,Left ,62,697094612364 ,45,9707404535042 ,86,9766920777316
0.6066773 ,Left ,62,6816692057841 ,45,9447362622549 ,86,9732704921662
0.6289446 ,Left ,62,6621780099096 ,45,9062203687114 ,86,9605328415341
0.6441392 ,Left ,62,6359149652692 ,45,8506325199298 ,86,935942876314
0.6664234 ,Left ,62,6383034490868 ,45,7948019287318 ,86,9031072247302
0.6889079 ,Left ,62,6074646521505 ,45,7495297902406 ,86,8773682943441
0.712067 ,Left ,62,5098214255046 ,45,7304744921548 ,86,8704744747874
0.7273302 ,Left ,62,4515793971539 ,45,772113648164 ,86,862950552798
0.7496841 ,Left ,62,3859616587538 ,45,8336860468896 ,86,8770050715405
0.7722938 ,Left ,62,3050558837974 ,45,9066286704026 ,86,8883470990711
0.78678 ,Left ,62,2591320407303 ,45,9845546013255 ,86,8706624659293
0.8089492 ,Left ,62,2480450539882 ,46,0443096873649 ,86,8431512060659
0.831568 ,Left ,62,2478701039759 ,46,0806947501966 ,86,807221514368
0.8466581 ,Left ,62,2472980006788 ,46,0772894862377 ,86,7765742343866
0.8689798 ,Left ,62,2517581929341 ,46,018794372399 ,86,7402433463715
0.891763 ,Left ,62,2598159820747 ,45,9613187576648 ,86,72496333363
0.9066577 ,Left ,62,1991238180849 ,45,9377437190257 ,86,7161746959311
0.9288077 ,Left ,62,0987923225096 ,45,9296023063611 ,86,71906946446
0.9514336 ,Left ,62,0308040549298 ,45,928553129784 ,86,7113416993646
0.966696 ,Left ,61,9779354402674 ,45,9248509607645 ,86,7220719123501
0.9965235 ,Left ,61,9369393990228 ,45,9325297320731 ,86,7272892764704
1.0190945 ,Left ,61,8527703768828 ,45,9237144266319 ,86,7368357457319
1.0417455 ,Left ,61,7592146004182 ,45,8929448921683 ,86,7306833945169
1.0640182 ,Left ,61,6236417946972 ,45,8338731358508 ,86,7163403770603
1.0790103 ,Left ,61,5467767584238 ,45,791546505587 ,86,6938743343914
1.0940024 ,Left ,61,4545621797362 ,45,7736850250342 ,86,6705400339193
1.109138 ,Left ,61,3406046514559 ,45,7809849166038 ,86,6429198898125
1.1317833 ,Left ,61,2836233370129 ,45,7749454631805 ,86,6260244085116
1.1466557 ,Left ,61,2516373659327 ,45,7462251265701 ,86,6313515956814
1.1692438 ,Left ,61,1602851681084 ,45,7143057586778 ,86,64473877996
1.1915247 ,Left ,61,0734525296665 ,45,719098378586 ,86,6588387319183
1.2066822 ,Left ,61,0491899634664 ,45,7575274552693 ,86,6687709533492
1.2290043 ,Left ,61,0748199283771 ,45,7996901303699 ,86,6565787602176
1.2515656 ,Left ,61,081255091766 ,45,7802066423297 ,86,6826849174756
1.2740865 ,Left ,61,0706465771015 ,45,7868000212273 ,86,6926870455366
1.2965666 ,Left ,61,0487090896268 ,45,7602586954499 ,86,6970441370079
1.3189661 ,Left ,61,087365345193 ,45,7415310254885 ,86,7025483393251
1.3340149 ,Left ,60,9976391380791 ,45,7378850556494 ,86,7026585082005
1.3490149 ,Left ,60,943244375031 ,45,7153979776809 ,86,6890151851844
1.3717681 ,Left ,60,9340952145706 ,45,6889958761936 ,86,6870770964625
1.3864709 ,Left ,60,9559813106045 ,45,6486916767157 ,86,6877714754897
1.409155 ,Left ,60,987412364228 ,45,594857305536 ,86,6918052434427
1.431662 ,Left ,61,0024043007134 ,45,5341062502548 ,86,6811659743903
1.4467397 ,Left ,61,0552987048453 ,45,4812542609069 ,86,65616635313
1.4690258 ,Left ,61,1065361891115 ,45,4509582227882 ,86,6238608038668
1.4918572 ,Left ,61,0638775851821 ,45,4249588044456 ,86,6142107633526
1.5067123 ,Left ,61,0627057464086 ,45,4259653342927 ,86,6016601893846
1.5292718 ,Left ,61,093182660679 ,45,4194308393807 ,86,6096687637193
1.5515297 ,Left ,61,0972023104284 ,45,433105715558 ,86,6392492883722
1.5814862 ,Left ,61,0813039625086 ,45,4673529527987 ,86,651744972865
1.5965502 ,Left ,61,0621215706141 ,45,482339788406 ,86,6386574401349
1.6189507 ,Left ,61,0412211938337 ,45,4724345986331 ,86,605042259997
1.6339688 ,Left ,61,0444610234721 ,45,4566100026817 ,86,5535961811496
1.6490464 ,Left ,61,0124745092995 ,45,4185001196707 ,86,5126169614013
1.6715972 ,Left ,60,956577779312 ,45,3889706325219 ,86,4801722322051
1.6943438 ,Left ,60,9499148163027 ,45,3727565816018 ,86,4625142243261
1.7091735 ,Left ,60,9519598812072 ,45,3556188937929 ,86,4599437452009
1.7318184 ,Left ,60,9417856713025 ,45,3498999819846 ,86,4808328989797
1.7543843 ,Left ,60,9375842681095 ,45,3571291569792 ,86,5058036987704
1.7692131 ,Left ,60,9263111392848 ,45,3820974930487 ,86,5166572655653
1.7916426 ,Left ,60,9242710191111 ,45,3949369974124 ,86,5257320536339
1.8140822 ,Left ,60,951105120879 ,45,4122839430408 ,86,527808995923
1.8291021 ,Left ,60,9559327089819 ,45,4280002229808 ,86,5289007447585
1.8518871 ,Left ,60,9555573064104 ,45,4354835308157 ,86,5268110881863
1.8741394 ,Left ,60,9539417314865 ,45,432026991341 ,86,5284027263599
1.8892805 ,Left ,60,9635219178469 ,45,425525752626 ,86,5317864291161
1.9118986 ,Left ,60,9951424523625 ,45,4147089336254 ,86,5327663762753
1.9339161 ,Left ,61,0078915273477 ,45,4042330838044 ,86,5458187333831
1.9492343 ,Left ,61,0161921914564 ,45,3959372860023 ,86,5689288755082
1.9714921 ,Left ,61,0389920017708 ,45,3937657018759 ,86,5835166673704
1.9940638 ,Left ,61,0582088005441 ,45,3831558135027 ,86,5900309328723
2.0090218 ,Left ,61,1043522713519 ,45,3432828455854 ,86,5897814941774
2.0314224 ,Left ,61,1430860227713 ,45,2791035450909 ,86,5743692424672
2.0541681 ,Left ,61,1439833082675 ,45,2185158716381 ,86,5353296350336
2.0689108 ,Left ,61,190006056555 ,45,1771567197036 ,86,4772514242922
2.0916595 ,Left ,61,2232899740295 ,45,1596410231855 ,86,4400847612224
2.1218988 ,Left ,61,2454343389954 ,45,16618684814 ,86,4097071661809
2.1368957 ,Left ,61,2716859724111 ,45,1613781004004 ,86,3834590253268
2.1594265 ,Left ,61,3272805448054 ,45,1470808926413 ,86,3504150743393
2.1742317 ,Left ,61,4183620043038 ,45,1465861201852 ,86,3200352217709
2.1894729 ,Left ,61,4816330790859 ,45,1681226459627 ,86,3193177031581
2.2119271 ,Left ,61,5114396840191 ,45,2156029689096 ,86,342981224153
2.2346221 ,Left ,61,5340425060417 ,45,2527646290603 ,86,382093605881
2.2492972 ,Left ,61,570268500822 ,45,2488388031878 ,86,4184351994911
2.2719984 ,Left ,61,6218240260315 ,45,2135713871009 ,86,4238358953115
2.294567 ,Left ,61,7096465154296 ,45,1942054912866 ,86,418015466132
2.3093816 ,Left ,61,7099776682606 ,45,1938966077315 ,86,4266744513042
2.3319587 ,Left ,61,6659001170106 ,45,1991497338774 ,86,428475804688
2.3543978 ,Left ,61,6975592366102 ,45,207642045319 ,86,4273603861539
2.3693624 ,Left ,61,7545137843745 ,45,2126507923563 ,86,4319822528468
2.3918186 ,Left ,61,7526456754671 ,45,2213463090116 ,86,4466809524161
2.4144089 ,Left ,61,7169056032753 ,45,2317222954581 ,86,4650861614313
2.4293978 ,Left ,61,701176020521 ,45,2446073264304 ,86,4788433723329
2.4520564 ,Left ,61,7128005530521 ,45,2544203986426 ,86,4922870823877
2.4743698 ,Left ,61,7301729637434 ,45,2620692258025 ,86,5048989975842
2.4892803 ,Left ,61,7393545953576 ,45,2708749831795 ,86,5255604393965
2.5113545 ,Left ,61,7302115184494 ,45,2784500893111 ,86,5491034417032
2.5338993 ,Left ,61,7207132477643 ,45,2796670976171 ,86,5771565553293
2.5489729 ,Left ,61,7488727256811 ,45,271047734728 ,86,5873102924764
2.5714678 ,Left ,61,7750463080314 ,45,2615106919647 ,86,5905351604526
2.5940439 ,Left ,61,7947966845058 ,45,2521547585739 ,86,570967432876
2.623933 ,Left ,61,8527601271668 ,45,2304032576593 ,86,541941103935
2.646526 ,Left ,61,8560438068006 ,45,2293177689636 ,86,542030250871
2.6847037 ,Left ,61,8698897663287 ,45,1961860524908 ,86,5440128675424
2.7070025 ,Left ,61,866090730048 ,45,2005443334408 ,86,554948658446
2.722109 ,Left ,61,8437367612592 ,45,2224068915105 ,86,5623215242385
2.7445087 ,Left ,61,8360809118804 ,45,2485091562292 ,86,5746259568375
2.7669423 ,Left ,61,8334128594989 ,45,270019277883 ,86,5852770984457
2.782087 ,Left ,61,8181257210802 ,45,2881769298162 ,86,5979158291089
2.8044266 ,Left ,61,7804149837068 ,45,3072398865758 ,86,6093187421287
2.8269103 ,Left ,61,7595048485704 ,45,3228670926349 ,86,6227476411424
2.8643169 ,Left ,61,7377913447642 ,45,346435175073 ,86,6613595568448
2.8870306 ,Left ,61,7173978574405 ,45,3631020628324 ,86,6865953081432
2.9020594 ,Left ,61,7109009076531 ,45,3824360786788 ,86,706137490537
2.9243809 ,Left ,61,7174679128733 ,45,3961848499 ,86,7225093039002
2.9620994 ,Left ,61,7069475591253 ,45,4128752664445 ,86,7379829334176
2.976902 ,Left ,61,699289933379 ,45,4382248179178 ,86,7448983482838
3.021435 ,Left ,61,7118213953598 ,45,4901194291513 ,86,7669777917371
3.0441396 ,Left ,61,7290226789554 ,45,5165323868613 ,86,7647366597452
3.0665917 ,Left ,61,748587426283 ,45,5311001176224 ,86,7584286516231
3.1047605 ,Left ,61,8115951758339 ,45,5353691745159 ,86,7357800408777
3.1270488 ,Left ,61,8367096952556 ,45,522698392251 ,86,7188735818532
3.1645214 ,Left ,61,8512339639887 ,45,460244029057 ,86,7038784186137
3.1868999 ,Left ,61,9065849926969 ,45,4586837767323 ,86,7316940421819
3.231711 ,Left ,61,8316869925088 ,45,4864437963332 ,86,8139974377245
3.2616676 ,Left ,61,8427740218092 ,45,5414885309528 ,86,8316332666686
3.2917709 ,Left ,61,9828256287279 ,45,6118300797536 ,86,7526231242776
3.3442026 ,Left ,62,0308143090898 ,45,5443752806996 ,86,4657962860632
3.3668263 ,Left ,62,0184439313311 ,45,4882943650974 ,86,3501731885319
3.404386 ,Left ,62,0176980647803 ,45,3458171079228 ,86,1562732766335
3.4267162 ,Left ,61,9627222064867 ,45,2993564900828 ,86,1192043972911
3.4641645 ,Left ,61,8901549838439 ,45,2750372305055 ,86,1225461562842
3.4942422 ,Left ,61,8889500553143 ,45,292073009247 ,86,1562341430099
3.5318457 ,Left ,61,7314865837483 ,45,3627451558762 ,86,1621667205579
3.5467503 ,Left ,61,6876528453683 ,45,3933790585997 ,86,1433736051449
3.5843116 ,Left ,61,737148881927 ,45,367837692659 ,86,0149718212755
3.6068258 ,Left ,61,7262250023945 ,45,343391827311 ,85,9950514744688
3.6441613 ,Left ,61,6808270623799 ,45,3304430996668 ,86,1007858068817
3.6665183 ,Left ,61,6360362688997 ,45,4070937214317 ,86,1296226467712
3.7040442 ,Left ,61,6962396584177 ,45,5535085895779 ,86,1814039653551
3.7271554 ,Left ,61,6698884480691 ,45,6160498298808 ,86,2032462732027
3.7649387 ,Left ,61,6260643006826 ,45,7160440242822 ,86,2254157734559
3.7872531 ,Left ,61,6132520286037 ,45,7661926177023 ,86,243794874598
3.8245502 ,Left ,61,5905888737562 ,45,744570019419 ,86,302498843387
3.8466295 ,Left ,61,5550098996288 ,45,6835963111221 ,86,3353051180196
3.8840782 ,Left ,61,3623542954296 ,45,740003169208 ,86,3801461741377
3.9065659 ,Left ,61,368600279491 ,45,7345899356053 ,86,4199721825253
3.9439224 ,Left ,61,4204428180118 ,45,5301560009664 ,86,5077714734744
3.966412 ,Left ,61,4163149088404 ,45,3764818059139 ,86,5188092874305
4.0039406 ,Left ,61,4899479485433 ,45,0688361838277 ,86,4868863974846
4.0265162 ,Left ,61,4811352322461 ,44,9724169175327 ,86,4580182754847
4.0645529 ,Left ,61,6196487643378 ,44,9022551256591 ,86,3907800598499
4.0943016 ,Left ,61,6150388786212 ,44,9279672240495 ,86,3714619429927
4.1320186 ,Left ,61,6519881595079 ,45,0774552667607 ,86,3309111917971
4.1467882 ,Left ,61,6890511712143 ,45,21945374051 ,86,3289164894753
4.184539 ,Left ,61,6751130906163 ,45,4861241429181 ,86,3095235768198
4.2070055 ,Left ,61,7202404409861 ,45,6060072092821 ,86,304904454798
4.2444949 ,Left ,61,7106556262315 ,45,827223504606 ,86,2830013524823
4.2668979 ,Left ,61,7103651152742 ,45,8761166341245 ,86,2708469317422
4.304316 ,Left ,61,6833487882493 ,45,8230141252102 ,86,254086719588
4.349245 ,Left ,61,5418297473211 ,45,9339955369216 ,86,2241260691445
4.3719499 ,Left ,61,514712711187 ,46,0176315447767 ,86,2219511637872
4.3869133 ,Left ,61,5577390025382 ,46,0414405291695 ,86,2193624652342
4.4244577 ,Left ,61,6485344706429 ,45,9106026630018 ,86,1954637386698
4.4545924 ,Left ,61,6366645920496 ,45,6999962567483 ,86,1939649058528
4.4768448 ,Left ,61,6437647456628 ,45,635940743749 ,86,2031745619455
4.4994389 ,Left ,61,6342006927789 ,45,5863161612986 ,86,1974980598038
4.5220541 ,Left ,61,6308412173306 ,45,5400659529906 ,86,1674891178065
4.5370044 ,Left ,61,6247936089147 ,45,468814360706 ,86,1375040544462
4.5590176 ,Left ,61,602330592314 ,45,4238278579165 ,86,1075083576071
4.58154 ,Left ,61,5117665801825 ,45,3728789941071 ,86,110116664602
4.5964565 ,Left ,61,4620261193954 ,45,3631812926323 ,86,1270081024745
4.6189061 ,Left ,61,4714217989728 ,45,4089911630041 ,86,1597903996905
4.6492399 ,Left ,61,432472298609 ,45,4950329788116 ,86,1882728631227
4.6643947 ,Left ,61,4129852819462 ,45,5642895849396 ,86,2276826024177
4.6869893 ,Left ,61,4449566581714 ,45,5843347283192 ,86,2661846179037
4.7170595 ,Left ,61,5770754066486 ,45,574198989381 ,86,2998042692042
4.739585 ,Left ,61,6042150032235 ,45,5721268548613 ,86,2899378661366
4.7621766 ,Left ,61,6185020737056 ,45,5621424586303 ,86,2733581097591
4.7771207 ,Left ,61,6660853467765 ,45,5449338338439 ,86,2705663141326
4.7994724 ,Left ,61,7321822075021 ,45,5495563944318 ,86,2608290526153
4.8218212 ,Left ,61,7303219899246 ,45,5386860334434 ,86,2410008037481
4.8368992 ,Left ,61,7057267297684 ,45,5323042440166 ,86,2146977287576
4.859256 ,Left ,61,7147116504549 ,45,5352639113632 ,86,1881896198391
4.8892271 ,Left ,61,7602651312828 ,45,5313397849269 ,86,1786885807289
4.904545 ,Left ,61,7630362328452 ,45,5079290416918 ,86,1810652953199
4.9342067 ,Left ,61,7505891668254 ,45,469796971115 ,86,1870167943707
4.9492488 ,Left ,61,7751556889722 ,45,4294662794401 ,86,1960757550105
4.9644995 ,Left ,61,8042028088515 ,45,3889856046372 ,86,2110651715522
4.9867504 ,Left ,61,8218002509453 ,45,3526560627128 ,86,2277502854647
5.0017107 ,Left ,61,8205673645804 ,45,3179848182559 ,86,2517791489416
5.0164772 ,Left ,61,8156919370332 ,45,2835794347958 ,86,2704606876883
5.0389557 ,Left ,61,8159343707119 ,45,2430435588994 ,86,2780016697434
5.0613581 ,Left ,61,8183881902522 ,45,2245941497058 ,86,2718958337036
5.0765083 ,Left ,61,8079029390074 ,45,2226684339488 ,86,2645846799249
5.0990686 ,Left ,61,805430807623 ,45,223714342145 ,86,2655530364417
5.1216092 ,Left ,61,8284838041941 ,45,2107814934543 ,86,2685126117028
5.1367136 ,Left ,61,840013785905 ,45,1964602722615 ,86,282955586617
5.1667458 ,Left ,61,8084202031766 ,45,1904574040979 ,86,3052455583811
5.189178 ,Left ,61,7698890863013 ,45,1870120063827 ,86,3257046996678
5.2044205 ,Left ,61,7592227260584 ,45,1844807863374 ,86,3346586385901
5.2191833 ,Left ,61,7494690013298 ,45,1783094091615 ,86,3413145399744
5.2413956 ,Left ,61,7267795606961 ,45,1678957421648 ,86,3447505811163
5.2566278 ,Left ,61,6917847142551 ,45,1617510602841 ,86,3489032404597
5.2788759 ,Left ,61,6885438867021 ,45,1558983435674 ,86,3555216908484
5.301771 ,Left ,61,689144568929 ,45,1633205438587 ,86,3627674274272
5.3170562 ,Left ,61,6663848032319 ,45,1798081894545 ,86,3712936675852
5.3395838 ,Left ,61,6390946955681 ,45,2003034169093 ,86,3836803968412
5.3618887 ,Left ,61,6464041519929 ,45,2285662538387 ,86,3863404824616
5.3767157 ,Left ,61,6615969872731 ,45,2492904049442 ,86,3855198248406
5.3991604 ,Left ,61,6699636556558 ,45,2666320347887 ,86,3792345344532
5.421752 ,Left ,61,6832591759402 ,45,2816897607906 ,86,371567773633
5.4367428 ,Left ,61,6961408721661 ,45,2962103849032 ,86,3650725354533
5.4592792 ,Left ,61,7158214342746 ,45,3221170513367 ,86,3541195415955
5.481704 ,Left ,61,7167500063257 ,45,3550893381295 ,86,3343810667382
5.504089 ,Left ,61,7181542418834 ,45,3794091507552 ,86,3199223695616
5.5191823 ,Left ,61,742858271907 ,45,3958139366459 ,86,3010029425853
5.5419307 ,Left ,61,7857202381367 ,45,3919912027158 ,86,2869916254445
5.5640309 ,Left ,61,7974480966552 ,45,3733750774934 ,86,2787522192771
5.5794257 ,Left ,61,8150515559487 ,45,3367608705943 ,86,2890737591695
5.6018372 ,Left ,61,8185126241663 ,45,3029489566167 ,86,3308787043734
5.6242944 ,Left ,61,7958749518141 ,45,2978934049069 ,86,3685883666277
5.639332 ,Left ,61,7664732723466 ,45,3139059140696 ,86,4062426099041
5.6618153 ,Left ,61,7796296836301 ,45,3650497198714 ,86,4331518467545
5.684324 ,Left ,61,8035872372138 ,45,4136922986901 ,86,4448205050564
5.6992118 ,Left ,61,824890244495 ,45,4490999559479 ,86,435853354128
5.7292796 ,Left ,61,9111406650829 ,45,4747726387846 ,86,3864730560154
5.7518569 ,Left ,61,9151340213498 ,45,4527609340641 ,86,3364470832351
5.7663918 ,Left ,61,93573050889 ,45,4251607301855 ,86,2736852844015
5.7814138 ,Left ,61,9328706236827 ,45,395466156738 ,86,2163966241167
5.804014 ,Left ,61,9657812327396 ,45,3754915489586 ,86,131618729087
5.8191756 ,Left ,61,9727643876236 ,45,3247774567422 ,86,0486911677604
5.8413506 ,Left ,61,9907119315571 ,45,2500493103346 ,85,993394684867
5.8638144 ,Left ,62,0155313124606 ,45,1861804951373 ,85,9713373024072
5.8791409 ,Left ,61,986596616494 ,45,125132201096 ,85,9806072206147
5.9014904 ,Left ,61,9097299403982 ,45,1221293661921 ,85,986001065303
5.9241079 ,Left ,61,8858964004179 ,45,1835763139406 ,86,0022159364042
5.939028 ,Left ,61,8640157703321 ,45,2495539201915 ,86,0286970406622
5.9616279 ,Left ,61,8281470450997 ,45,3026826131537 ,86,0468093306774
5.9919299 ,Left ,61,8060369642968 ,45,3460936353531 ,86,0391524393922
6.006987 ,Left ,61,7883451176109 ,45,3562127030137 ,86,0365068134766
6.0293379 ,Left ,61,7824717089622 ,45,3475614479654 ,86,0042304747691
6.059328 ,Left ,61,8194883714488 ,45,319935254914 ,85,9685829947531
6.0818634 ,Left ,61,8181616161103 ,45,2836027437777 ,86,0118768856782
6.1043366 ,Left ,61,7704194277971 ,45,2944564067047 ,86,0851812221285
6.1192905 ,Left ,61,7140903737321 ,45,3743036123573 ,86,1336063969001
6.1417245 ,Left ,61,7100792670648 ,45,4695072431215 ,86,1724200166279
6.1644187 ,Left ,61,7113391218969 ,45,539372357387 ,86,2075748382033
6.1792351 ,Left ,61,7230360996613 ,45,5699588187443 ,86,2522458325117
6.2018336 ,Left ,61,6997476586975 ,45,6289056550866 ,86,2814931455752
6.2240968 ,Left ,61,701491540084 ,45,6729833817106 ,86,3081754355145
6.2393123 ,Left ,61,7014457692535 ,45,7085189530163 ,86,3438195071373
6.2693471 ,Left ,61,691733925526 ,45,7371730983373 ,86,3666099397337
6.2918707 ,Left ,61,7031612267002 ,45,7608292651166 ,86,3880239777395
6.3144357 ,Left ,61,726809700089 ,45,7577876784015 ,86,4052890553421
6.3370915 ,Left ,61,7277977300089 ,45,7360874388324 ,86,4219691443469
6.3523285 ,Left ,61,6664158939199 ,45,7377913581398 ,86,3973893673612
6.3666822 ,Left ,61,6238981088652 ,45,7655547490719 ,86,3457469591033
6.381753 ,Left ,61,510605793163 ,45,7944681640155 ,86,3222900024169
6.4042812 ,Left ,61,4776629528451 ,45,8078358225441 ,86,3404276944683
6.4266809 ,Left ,61,5219785572618 ,45,8126514709271 ,86,3896815908002
6.4415453 ,Left ,61,5388856321566 ,45,8390136779646 ,86,4242058791636
6.4643711 ,Left ,61,5388980221496 ,45,8377492067128 ,86,464086833191
6.4867785 ,Left ,61,5627131509836 ,45,7637073488005 ,86,4828173898223
6.5017127 ,Left ,61,5921213553107 ,45,6083718988447 ,86,4682695063977
6.5240498 ,Left ,61,6312063052262 ,45,4609577807301 ,86,440201978691
6.5464933 ,Left ,61,698759800573 ,45,3294610242439 ,86,3975234062379
6.5615414 ,Left ,61,7119844130827 ,45,2039232545758 ,86,3763868388606
6.5917551 ,Left ,61,7240601832923 ,45,0942493005781 ,86,3407199808904
6.614263 ,Left ,61,7253742681386 ,44,9953507617149 ,86,3089313434431
6.6292682 ,Left ,61,7102490580333 ,44,9307343211284 ,86,2826865289985
6.6516106 ,Left ,61,7142864571782 ,44,8999016917778 ,86,2646894031913
6.6666813 ,Left ,61,7060002085488 ,44,8836041416585 ,86,2527160819686
6.6815621 ,Left ,61,7642769637532 ,44,924971323191 ,86,2653616948429
6.7039172 ,Left ,61,7487746471958 ,45,0103220894213 ,86,2848122035383
6.726577 ,Left ,61,7229975642674 ,45,109816165564 ,86,2839290704483
6.7417621 ,Left ,61,7573236818777 ,45,196307389953 ,86,2740683191448
6.7643254 ,Left ,61,8040826740951 ,45,2773351037008 ,86,2603607476998
6.786757 ,Left ,61,8219500524056 ,45,3883493479021 ,86,2353559093915
6.8019335 ,Left ,61,7728422644629 ,45,5242370702798 ,86,2089593051395
6.8316262 ,Left ,61,7726043206201 ,45,6403741199091 ,86,2097762370543
6.8541449 ,Left ,61,8536182804291 ,45,7020747885118 ,86,2263230493915
6.8766852 ,Left ,61,8819335330706 ,45,7631412320059 ,86,2355732573435
6.8915794 ,Left ,61,786162232904 ,45,8384912475136 ,86,2023942493145
6.9141223 ,Left ,61,6851430671908 ,45,8904979195372 ,86,1600719045366
6.9291255 ,Left ,61,6787272570056 ,45,9179193899859 ,86,1334085825613
6.9438847 ,Left ,61,76875919703 ,45,9167088030075 ,86,1170279890785
6.966494 ,Left ,61,736988080979 ,45,9443305445788 ,86,1144621962266
6.9892491 ,Left ,61,6469254133315 ,46,0147144053595 ,86,114847960323
7.0041742 ,Left ,61,6208932943121 ,46,0673040971157 ,86,1153854384456
7.0266464 ,Left ,61,6963799904373 ,46,0750441126439 ,86,0897175253782
7.0493404 ,Left ,61,761194726213 ,46,0533699437391 ,86,0606481370448
7.0641239 ,Left ,61,7413318144661 ,46,0222892113038 ,86,028884850907
7.0866471 ,Left ,61,7175186509418 ,45,9588798027088 ,86,0031784989924
7.1018403 ,Left ,61,7230363172558 ,45,8940392032942 ,85,991057659296
7.1243329 ,Left ,61,7088417323294 ,45,8345786425325 ,85,9797872766273
7.1465313 ,Left ,61,6663131148131 ,45,7868806169934 ,85,9533827094402
7.1616888 ,Left ,61,6943137519153 ,45,7377587730125 ,85,907879005833
7.1841238 ,Left ,61,740037722347 ,45,6621627381172 ,85,8788278472572
7.2069074 ,Left ,61,7232550029701 ,45,6032727857753 ,85,8614354454478
7.2292553 ,Left ,61,6588402725809 ,45,5758467271491 ,85,8526100869611
7.2442531 ,Left ,61,6389524254754 ,45,5477747549675 ,85,8462907764893
7.266803 ,Left ,61,6228018063274 ,45,5938957799544 ,85,8591797433322
7.2819308 ,Left ,61,612833331677 ,45,6766378954441 ,85,8774796030606
7.3038346 ,Left ,61,6418965541076 ,45,7282655149208 ,85,9258077202486
7.3266637 ,Left ,61,6901018235177 ,45,7340344797118 ,85,9932440325779
7.3491709 ,Left ,61,7347874356495 ,45,7174412659809 ,86,0437858633099
7.3640252 ,Left ,61,8310377292059 ,45,704025904457 ,86,0643941369077
7.393985 ,Left ,61,8671973229406 ,45,6750750802729 ,86,0899734001025
7.4166358 ,Left ,61,9119953328316 ,45,6417164312432 ,86,1321366490897
7.4318354 ,Left ,61,9958478474103 ,45,6186649722861 ,86,1846887812187
7.4468135 ,Left ,62,0166341095147 ,45,5936535468686 ,86,2205159396506
7.4690045 ,Left ,61,9660673466218 ,45,5615406612816 ,86,2318972043227
7.4838501 ,Left ,61,9324515825839 ,45,5163203070391 ,86,2325655316589
7.5063781 ,Left ,62,0071634844789 ,45,4607677279639 ,86,24885188541
7.5289479 ,Left ,62,0293303403051 ,45,4231745789367 ,86,2811591712568
7.5441036 ,Left ,61,9397625225476 ,45,366100209351 ,86,3054029367725
7.5666787 ,Left ,61,8740007194884 ,45,314201319701 ,86,3082596053326
7.589065 ,Left ,61,8654507304679 ,45,2911198429492 ,86,3025535920172
7.6041549 ,Left ,61,8717391982585 ,45,3055934791143 ,86,3026740487545
7.626739 ,Left ,61,8732786108444 ,45,3104471653469 ,86,3043284198905
7.6491384 ,Left ,61,8895116561285 ,45,2961738184673 ,86,2956211737255
7.6644475 ,Left ,61,8565029910417 ,45,2730823897757 ,86,2882737168667
7.6868992 ,Left ,61,8242331566949 ,45,2593200351653 ,86,2751847213247
7.7169004 ,Left ,61,8229593049721 ,45,2655549960047 ,86,2691402350718
7.73168 ,Left ,61,8221107250362 ,45,2678469632883 ,86,2683589141566
7.7542829 ,Left ,61,8068016094614 ,45,2751027047419 ,86,2778171038848
7.7692362 ,Left ,61,8085385812813 ,45,2868082494512 ,86,2878808202738
7.7842461 ,Left ,61,8101285970164 ,45,3068487687959 ,86,3013697723707
7.8066426 ,Left ,61,7904576824304 ,45,3374548440715 ,86,3067274566316
7.8290742 ,Left ,61,7940954156601 ,45,3682349192133 ,86,3045653375095
7.8440699 ,Left ,61,8135151748602 ,45,3828567089279 ,86,2917985130349
7.8664591 ,Left ,61,844896230034 ,45,390196352297 ,86,2728828423795
7.8889696 ,Left ,61,8635066977364 ,45,4080107853441 ,86,2496616610596
7.904077 ,Left ,61,8541955687836 ,45,439655735762 ,86,2217199478221
7.9268387 ,Left ,61,8485562498816 ,45,4665168388092 ,86,2055871778816
7.9568267 ,Left ,61,8604463690949 ,45,4956364902543 ,86,1759859691715
7.9715238 ,Left ,61,8984334760065 ,45,4960567338044 ,86,1510783192855
7.9939948 ,Left ,61,9056815296154 ,45,4834616092188 ,86,1336055215038
8.0240537 ,Left ,61,9215941008097 ,45,4421875330393 ,86,1269962035263
8.0466095 ,Left ,61,9558660787239 ,45,4122840667234 ,86,1521141927524
8.0691695 ,Left ,61,9818213934068 ,45,4065923848786 ,86,1941807691922
8.0843607 ,Left ,61,9311944614464 ,45,4099908180629 ,86,2493377754048
8.1065168 ,Left ,61,923970680613 ,45,4748004352235 ,86,2746352340072
8.1290642 ,Left ,61,963514055495 ,45,5365836968775 ,86,2884471417616
8.1443672 ,Left ,62,0049417698748 ,45,5844283088698 ,86,2684002239275
8.166802 ,Left ,62,0651779315292 ,45,5972844678713 ,86,2064562933263
8.1892722 ,Left ,62,0991932801112 ,45,5674110834581 ,86,1748046209535
8.2041292 ,Left ,62,1041560066875 ,45,5478881370959 ,86,1192768526102
8.234258 ,Left ,62,1163306986109 ,45,5040164242845 ,86,0665861208282
8.2566399 ,Left ,62,1171832652822 ,45,4719792096177 ,85,9929439553879
8.2713768 ,Left ,62,156536448252 ,45,4299379758918 ,85,9330331422202
8.2940091 ,Left ,62,1622377830734 ,45,3516131077163 ,85,8663276582793
8.3092485 ,Left ,62,1628628208209 ,45,2559975918212 ,85,8289681514927
8.3394891 ,Left ,62,0477136445618 ,45,2368468365783 ,85,8681119734935
8.3621784 ,Left ,62,0230771132059 ,45,2697134528332 ,85,9038827071529
8.3996636 ,Left ,61,9658976745258 ,45,3325667380121 ,85,9377403149679
8.4222109 ,Left ,61,9344055175397 ,45,330491657916 ,85,9469018777603
8.4596915 ,Left ,61,8994378900793 ,45,3472137238312 ,85,909416005534
8.4821737 ,Left ,61,9351744718424 ,45,361584417939 ,85,8905995251231
8.5196878 ,Left ,61,9039861212728 ,45,3847730776506 ,86,0115184692521
8.5422769 ,Left ,61,8021825280968 ,45,467774649863 ,86,0782574321629
8.5795022 ,Left ,61,8395886137499 ,45,6431190621112 ,86,1433752975713
8.6021813 ,Left ,61,8191726688736 ,45,6855645474273 ,86,1899206153414
8.6395189 ,Left ,61,7887926039441 ,45,7753055131608 ,86,2243585867306
8.6620231 ,Left ,61,7921914757022 ,45,8114528763893 ,86,2269249908207
8.6995973 ,Left ,61,7962696257308 ,45,8433035472067 ,86,2572226404363
8.7216609 ,Left ,61,8184723334205 ,45,8312322297643 ,86,2855140120767
8.7664972 ,Left ,61,8343900875479 ,45,7631527854648 ,86,3033448335672
8.7888503 ,Left ,61,787077582453 ,45,7790575200241 ,86,281813386263
8.8189329 ,Left ,61,6586723801836 ,45,8644071639812 ,86,2764627827451
8.8414933 ,Left ,61,6627661981636 ,45,900226476899 ,86,330367678324
8.8789487 ,Left ,61,7469793187827 ,45,808734088908 ,86,4404164818815
8.9013919 ,Left ,61,8128183428647 ,45,6934219266157 ,86,4278575883198
8.9389044 ,Left ,61,8847681139426 ,45,4083083886328 ,86,3180587733505
8.9617066 ,Left ,61,9025651468911 ,45,2640526359278 ,86,2720398892893
8.9992819 ,Left ,61,9584082197538 ,45,0891409546171 ,86,2342697936192
9.021788 ,Left ,62,0005227320512 ,45,0311596243279 ,86,2084334588803
9.0593344 ,Left ,61,9622546784788 ,44,9060217289706 ,86,154176028759
9.0817644 ,Left ,61,9884793408359 ,44,9311843137044 ,86,1399236362895
9.1193343 ,Left ,62,0321273709762 ,45,0830411685244 ,86,1281066359943
9.1418718 ,Left ,62,0294100255199 ,45,2108368681921 ,86,1303085774724
9.1792889 ,Left ,62,0600072844596 ,45,4492480263725 ,86,1082960297138
9.2017967 ,Left ,62,0803351961184 ,45,5803392227575 ,86,0791443539384
9.239363 ,Left ,62,0895201309977 ,45,8068792041881 ,86,078285324432
9.2617386 ,Left ,62,1068541239658 ,45,8513493642449 ,86,0815032215158
9.2994112 ,Left ,61,9577613244998 ,45,8592203402537 ,86,0891198153127
9.3219713 ,Left ,61,9003080047077 ,45,906492447532 ,86,0811814005651
9.3593491 ,Left ,61,8797984772032 ,45,9754164672533 ,86,0833755837084
9.381899 ,Left ,61,8781049839534 ,46,0077386146415 ,86,105109189703
9.4192915 ,Left ,61,89293217896 ,45,9582532957359 ,86,1293672853205
9.4416895 ,Left ,61,8782695973729 ,45,915834958732 ,86,1310713037462
9.4790137 ,Left ,61,9598706597918 ,45,8345116154613 ,86,1222186701218
9.5015522 ,Left ,61,9273734480261 ,45,7982664838429 ,86,125246175164
9.5393113 ,Left ,61,8906879869136 ,45,7347437702457 ,86,0768706815247
9.5621751 ,Left ,61,9014341296771 ,45,6720013943894 ,86,0501557157876
9.5994979 ,Left ,61,8164805877055 ,45,5197000312915 ,86,0406250708575
9.6293343 ,Left ,61,7890035221577 ,45,4829793847325 ,86,0152256646913
9.6668107 ,Left ,61,7227229173188 ,45,4709743999189 ,85,9729505936877
9.6818528 ,Left ,61,7707075962872 ,45,4870119546628 ,86,0083196983593
9.7194518 ,Left ,61,7993655360618 ,45,5923004739845 ,86,1162709273424
9.7419514 ,Left ,61,8676591774629 ,45,6137343854535 ,86,1384651773854
9.7792315 ,Left ,61,9930720016454 ,45,5602224568641 ,86,1846364496947
9.8020446 ,Left ,61,953355837016 ,45,5364553600719 ,86,2410788328927
9.8390743 ,Left ,61,9515320879114 ,45,4694538687556 ,86,2324260913727
9.8614873 ,Left ,61,9135372912836 ,45,3902321113149 ,86,1937071809268
9.8992288 ,Left ,61,9519612503797 ,45,2613613516739 ,86,2051523980484
9.9293553 ,Left ,61,9249281190864 ,45,1801054804028 ,86,2215505052315
9.9671479 ,Left ,61,9005652862272 ,45,0709003630225 ,86,1954940905846
9.9821049 ,Left ,61,914753930434 ,45,0688217408702 ,86,1832626052101
10.0197193 ,Left ,61,9031790276766 ,45,0512099107354 ,86,1712240789652
10.0421617 ,Left ,61,9135685695979 ,45,0326750229551 ,86,167768684049
10.0792952 ,Left ,61,8869923022738 ,45,06272444574 ,86,1668391857731
10.1015079 ,Left ,61,9000493646355 ,45,0852144148484 ,86,1804947813487
10.1389744 ,Left ,61,9093131251091 ,45,1313639048479 ,86,2191613739797
10.1690763 ,Left ,61,900016393331 ,45,1843355699717 ,86,2426683651058
10.1915932 ,Left ,61,9249238736477 ,45,2217520986029 ,86,2473710160852
10.2140675 ,Left ,61,9313747671008 ,45,262501362891 ,86,2550267748592
10.2367025 ,Left ,61,9478291364004 ,45,2943603390606 ,86,2658277709888
10.2516729 ,Left ,61,9597424703856 ,45,3324002589562 ,86,2738985647829
10.2743263 ,Left ,61,9508497789879 ,45,3755488534191 ,86,2695487072824
10.296615 ,Left ,61,9462395313872 ,45,4126193692891 ,86,2529555839916
10.3116587 ,Left ,61,9655377717269 ,45,4365271995096 ,86,2341181163069
10.334514 ,Left ,61,9735952222164 ,45,447106651295 ,86,2197437418204
10.3567902 ,Left ,61,9810465676586 ,45,4447278642967 ,86,2076899291695
10.3717713 ,Left ,61,9735353792945 ,45,4110583578528 ,86,1990535427333
10.3941603 ,Left ,61,977283803206 ,45,3656767232216 ,86,1965097014914
10.4166525 ,Left ,62,0100061495962 ,45,3103868161375 ,86,2306128766597
10.4315517 ,Left ,62,0165261225358 ,45,2952669626736 ,86,2692769821767
10.4540778 ,Left ,61,9469417757584 ,45,3230157615921 ,86,3146302963776
10.4766355 ,Left ,61,949736833199 ,45,3983962956504 ,86,3421176509332
10.4916123 ,Left ,62,0187981475835 ,45,4601864441118 ,86,3561109003717
10.5143242 ,Left ,62,0744756011017 ,45,4911872430639 ,86,3463196883179
10.5367475 ,Left ,62,1489774931434 ,45,4969717989589 ,86,3075759973813
10.551481 ,Left ,62,1703138437556 ,45,4717485485623 ,86,2746386271367
10.5740271 ,Left ,62,1897569971504 ,45,4466839282784 ,86,2249998737289
10.5965009 ,Left ,62,2244678769937 ,45,4069587704545 ,86,1736609346234
10.6114726 ,Left ,62,235604840906 ,45,3706583206157 ,86,1115088002762
10.6343588 ,Left ,62,2940120258039 ,45,332980579875 ,86,0409690222392
10.6566426 ,Left ,62,3087287685478 ,45,2961506390524 ,85,970375377794
10.6716445 ,Left ,62,2668415927068 ,45,2475174732028 ,85,8848681807389
10.6941896 ,Left ,62,2513514431268 ,45,2105729064611 ,85,8394018415495
10.7242667 ,Left ,62,2739897115148 ,45,1830201566912 ,85,8703202773614
10.7392977 ,Left ,62,2356636468181 ,45,1871996969923 ,85,9092804314329
10.7618323 ,Left ,62,1510654963581 ,45,2459056530401 ,85,9361210038666
10.7767881 ,Left ,62,1146243480369 ,45,3033914134461 ,85,9482461099829
10.7919162 ,Left ,62,1086956049867 ,45,3531536971836 ,85,9431249366972
10.8143503 ,Left ,62,1465858270239 ,45,3763419507181 ,85,9365700491335
10.8367165 ,Left ,62,1265072571994 ,45,3803238434117 ,85,9279968496867
10.8519144 ,Left ,62,0674957257883 ,45,3712237402908 ,85,8947252668703
10.8744554 ,Left ,62,1255659033345 ,45,35507027056 ,85,8736718004771
10.8968832 ,Left ,62,181602942798 ,45,3261619937532 ,85,8873831360068
10.9116475 ,Left ,62,1758328802688 ,45,3138028190955 ,85,9445218606722
10.9340067 ,Left ,62,0694032690842 ,45,37437688448 ,85,9943046656822
10.956654 ,Left ,62,0003427303328 ,45,4285922391117 ,86,017062604077
10.9716448 ,Left ,62,0756170638363 ,45,473503252957 ,86,0211757482006
10.9941809 ,Left ,62,110954234777 ,45,5345060847847 ,86,0269370787466
11.0169215 ,Left ,62,0890991110643 ,45,599382541139 ,86,0273914823352
11.0318232 ,Left ,62,0511245379811 ,45,6384314195678 ,86,0410156430162
11.0543393 ,Left ,62,0527920819274 ,45,6792245216027 ,86,0636875963974
11.0768215 ,Left ,62,1052449555402 ,45,7169363242759 ,86,0951477591141
11.0918766 ,Left ,62,0877252297604 ,45,7213159469301 ,86,1371852851994
11.1142598 ,Left ,62,0308330985213 ,45,6795667047435 ,86,1541370847865
11.1367797 ,Left ,62,0121649360535 ,45,646783745656 ,86,1711727435481
11.1592682 ,Left ,61,938370205563 ,45,6786196648114 ,86,175686851165
11.1744208 ,Left ,61,8894325888039 ,45,7175102722874 ,86,1617438870967
11.196838 ,Left ,61,875465863222 ,45,7390630245507 ,86,1932445777344
11.2192017 ,Left ,61,9148026166676 ,45,6941410690994 ,86,2553148553156
11.234453 ,Left ,61,8973776257309 ,45,617761891316 ,86,305136469511
11.2567141 ,Left ,61,9266648745843 ,45,512706059643 ,86,3139788545495
11.2793715 ,Left ,61,9402442617275 ,45,3619348951351 ,86,3042032154625
11.2944582 ,Left ,61,9617600557817 ,45,1953394145055 ,86,2932415772148
11.3169155 ,Left ,61,9488165624069 ,45,0717070118551 ,86,2965721706484
11.3393561 ,Left ,61,9530753997126 ,45,0073295110227 ,86,2575959816837
11.3544591 ,Left ,62,0080201400809 ,44,9516107389323 ,86,2114492184381
11.3766352 ,Left ,62,0697016582975 ,44,9214825722826 ,86,1759685929248
11.3991587 ,Left ,62,0769233049459 ,44,9221849133502 ,86,1467318636781
11.4142927 ,Left ,62,0430994865308 ,44,9718444250307 ,86,136319554614
11.4369057 ,Left ,62,04212337773 ,45,0673749336935 ,86,1226977109207
11.4592402 ,Left ,62,0667849530729 ,45,1730745131201 ,86,1104820837084
11.4743648 ,Left ,62,1059964310511 ,45,2730770573895 ,86,1047400548463
11.4966513 ,Left ,62,1038599001668 ,45,375186089152 ,86,1053807912637
11.519266 ,Left ,62,0820713282544 ,45,4934960754321 ,86,0900781445138
11.5342802 ,Left ,62,0741350405992 ,45,6087249854024 ,86,0514407205253
11.5566839 ,Left ,62,0625775516357 ,45,68089307587 ,86,0220854551675
11.5867777 ,Left ,62,0891736595811 ,45,7202430279123 ,86,0102074407448
11.6017456 ,Left ,62,0889166167623 ,45,7559399091989 ,86,0035184843749
11.624172 ,Left ,62,0050490389026 ,45,7758917877589 ,86,0150745275546
11.6543322 ,Left ,61,8847059060645 ,45,861808593406 ,86,0175854040223
11.6767504 ,Left ,61,8707765322158 ,45,9129018245384 ,86,0389890682531
11.6992457 ,Left ,61,8726210504729 ,45,9744474404076 ,86,0492220807853
11.7139007 ,Left ,61,8923445355002 ,45,9999978625719 ,86,0619199290306
11.7366147 ,Left ,61,9242164469505 ,45,9685647330118 ,86,0546672682352
11.758887 ,Left ,61,9133299187484 ,45,8924331112493 ,86,0618879619103
11.7739262 ,Left ,61,9131351765897 ,45,8118650188116 ,86,0602949176855
11.7965897 ,Left ,61,929678925896 ,45,7348775605522 ,86,0550994746839
11.8264732 ,Left ,61,9440155833968 ,45,6788071292509 ,86,0624424293116
11.841863 ,Left ,61,9029800612794 ,45,6296532087136 ,86,0503190696703
11.8719178 ,Left ,61,8696582253734 ,45,570804214877 ,86,0196422223832
11.8869245 ,Left ,61,9019051040836 ,45,4957221940201 ,85,9992942702767
11.9016858 ,Left ,61,9007057894376 ,45,4204003734729 ,85,9722697588718
11.9242934 ,Left ,61,8426756422847 ,45,3887458028142 ,85,9569655876581
11.9392983 ,Left ,61,7481467286803 ,45,3754711272677 ,85,9399860036468
11.9545129 ,Left ,61,7464938311717 ,45,3957964920299 ,85,9341978338672
11.9769177 ,Left ,61,7748841744653 ,45,4267670824428 ,85,9716483215059
11.9992556 ,Left ,61,7559318365901 ,45,4955185547375 ,86,0068899710612
12.0145235 ,Left ,61,7513484806623 ,45,5236795420623 ,86,0531644986858
12.0367361 ,Left ,61,8279781037476 ,45,5201067593768 ,86,0828849900575
12.0590492 ,Left ,61,9209931955646 ,45,4803401677407 ,86,1051246409339
12.0818115 ,Left ,61,9765935820775 ,45,4510025929961 ,86,1126787385358
12.1040857 ,Left ,61,9640856992927 ,45,4233481938856 ,86,115191993915
12.126637 ,Left ,61,9814247938522 ,45,410363241088 ,86,1256854528401
12.1565545 ,Left ,62,0414760984228 ,45,3837469639476 ,86,1018903278002
12.1792058 ,Left ,61,9410686490523 ,45,3381789051874 ,86,0761671021854
12.2015367 ,Left ,61,989389173116 ,45,2845385659951 ,86,0751810493241
12.2167483 ,Left ,62,0710009735697 ,45,2320137004587 ,86,0763098984954
12.2396586 ,Left ,62,0198808853756 ,45,183317180449 ,86,078799140936
12.2621915 ,Left ,61,9306106257371 ,45,1254456079297 ,86,0826298299292
12.2771964 ,Left ,61,953198270805 ,45,1087395436408 ,86,0601269877329
12.2992799 ,Left ,61,9450637885261 ,45,0980071428139 ,86,0532119503189
12.3217495 ,Left ,61,9441931310512 ,45,1002983199018 ,86,0524435548729
12.3368503 ,Left ,61,9698675237924 ,45,0989426396192 ,86,0600209529452
12.3593481 ,Left ,61,9912508856578 ,45,0965512271141 ,86,0580204235281
12.3893504 ,Left ,61,9576655661876 ,45,0959351255809 ,86,0609139489226
12.4045855 ,Left ,61,9217190548563 ,45,0975472273562 ,86,0758870728623
12.4345971 ,Left ,61,9225796483492 ,45,0998658002872 ,86,0917674378851
12.4492644 ,Left ,61,9133365156966 ,45,1077354304192 ,86,0925766368354
12.4646182 ,Left ,61,8961302381667 ,45,1206077320578 ,86,0971995304386
12.4794427 ,Left ,61,8824373461562 ,45,1345532042986 ,86,1102836481776
12.5020048 ,Left ,61,8863002239906 ,45,152241031198 ,86,1196919274692
12.5169454 ,Left ,61,8693414973748 ,45,1762295050916 ,86,1199051902294
12.5394476 ,Left ,61,8600800684002 ,45,2080255935087 ,86,1133876566543
12.5619977 ,Left ,61,8705025847198 ,45,236143456979 ,86,1066987585778
12.5770638 ,Left ,61,9169430178599 ,45,2602419059834 ,86,0999534336137
12.5994047 ,Left ,61,9203402949679 ,45,287682027075 ,86,100939880389
12.6220687 ,Left ,61,8863699017863 ,45,3244843405296 ,86,1057421650234
12.6371143 ,Left ,61,8664042169663 ,45,3628316902494 ,86,1018497101957
12.659414 ,Left ,61,9002175065783 ,45,3900719998166 ,86,0842668769731
12.6820731 ,Left ,61,93940661051 ,45,3940198332451 ,86,0718065538308
12.6970736 ,Left ,61,9478270707049 ,45,3848630410921 ,86,0668495396414
12.7192953 ,Left ,61,9326835252554 ,45,3676495381907 ,86,0705786859273
12.7421039 ,Left ,61,932043888946 ,45,3444636753746 ,86,0674929697378
12.7570956 ,Left ,61,9930013005762 ,45,3118236537137 ,86,091300987895
12.7795518 ,Left ,62,0249551188125 ,45,3048034082341 ,86,1377443522478
12.8018804 ,Left ,61,9381722860712 ,45,3244373872736 ,86,1853360426582
12.8169674 ,Left ,61,9148815064056 ,45,4002391179056 ,86,208293482093
12.8394097 ,Left ,61,9754900922984 ,45,4581284218579 ,86,2106514285619
12.8619399 ,Left ,62,0555349023213 ,45,4650992335653 ,86,1968809688166
12.8769093 ,Left ,62,1429260978796 ,45,4630226154342 ,86,1627434203826
12.899392 ,Left ,62,140369708565 ,45,4362138043141 ,86,1329242649947
12.9220391 ,Left ,62,1731871070805 ,45,4152177385796 ,86,0805326113988
12.9370623 ,Left ,62,2018177594526 ,45,3761665742587 ,86,0195240646188
12.9594908 ,Left ,62,2136666839086 ,45,3406823263068 ,85,969260283826
12.9894129 ,Left ,62,246285706505 ,45,3366887850158 ,85,9020284651143
13.004597 ,Left ,62,2786980484804 ,45,3016571347896 ,85,8477437856436
13.0269997 ,Left ,62,2638455399362 ,45,2503813046804 ,85,7954842054951
13.0419634 ,Left ,62,2890465949909 ,45,2042002888974 ,85,7569482201388
13.0646201 ,Left ,62,2539170005789 ,45,1670808186345 ,85,7787147742011
13.0794544 ,Left ,62,1904373946933 ,45,1737530399002 ,85,8141285473897
13.1018902 ,Left ,62,1471610957684 ,45,2373613350597 ,85,8711364896655
13.1242922 ,Left ,62,0998783299901 ,45,2877745117615 ,85,9260466873561
13.1393525 ,Left ,62,0607803593905 ,45,329911681208 ,85,9657478659454
13.1621468 ,Left ,62,0484637714984 ,45,3521982943035 ,85,9839318277272
13.1842708 ,Left ,62,0142949669488 ,45,3637623900819 ,85,977785866472
13.2069802 ,Left ,62,0251340805883 ,45,3601077086533 ,85,9381613653934
13.2295745 ,Left ,62,0345057927511 ,45,3484208418229 ,85,9061954274332
13.2518698 ,Left ,62,0655841050741 ,45,3171549128797 ,85,8884549723
13.26686 ,Left ,62,1192325697469 ,45,2926848909414 ,85,9358708829437
13.2820016 ,Left ,62,0256145731822 ,45,326173019358 ,86,0038754507909
13.3043869 ,Left ,61,9555583322649 ,45,4107226744754 ,86,0494150402429
13.3194194 ,Left ,61,9373467351782 ,45,487358775364 ,86,076229318263
13.3417147 ,Left ,61,9616243004563 ,45,5327777668988 ,86,0925544100717
13.3643974 ,Left ,61,9690472857208 ,45,5929682619455 ,86,1004739622784
13.3868212 ,Left ,61,9240852007615 ,45,6237609660411 ,86,1227251096036
13.4018262 ,Left ,61,9085073095371 ,45,6579672345016 ,86,1289837418233
13.4242677 ,Left ,61,927860000285 ,45,69828297722 ,86,1256042462815
13.4394157 ,Left ,61,9421505079603 ,45,7535902862063 ,86,1209084920841
13.4619125 ,Left ,61,9421505079603 ,45,7535902862063 ,86,1209084920841
13.4841688 ,Left ,61,9339937148643 ,45,6956618953324 ,86,1270101523315
13.4990676 ,Left ,61,9276600970144 ,45,6558052115952 ,86,1241126035367
13.5214497 ,Left ,61,8654429376434 ,45,6835479412814 ,86,133508978016
13.5439926 ,Left ,61,7443383535118 ,45,7305047447931 ,86,1242846716134
13.5590791 ,Left ,61,7242636319234 ,45,7529396178553 ,86,1384420303996
13.5820888 ,Left ,61,7674128289246 ,45,7411459298207 ,86,1716572429753
13.6050278 ,Left ,61,8042566239826 ,45,6791297438958 ,86,2117544292375
13.6270304 ,Left ,61,8223689041839 ,45,586739908337 ,86,2407098355938
13.6423708 ,Left ,61,8795557191478 ,45,4527917079234 ,86,2425927999133
13.6648416 ,Left ,61,9135938008717 ,45,313580891607 ,86,2158888329298
13.6870919 ,Left ,61,9790123689237 ,45,1694818108057 ,86,1768870480092
13.7018534 ,Left ,61,9873812796918 ,45,0338229419356 ,86,162414976107
13.724171 ,Left ,61,953248467957 ,44,9498545631072 ,86,1484210383105
13.7466979 ,Left ,61,963543941042 ,44,917978456665 ,86,1194733250954
13.7692966 ,Left ,62,0114989803771 ,44,8961962079736 ,86,0853363368706
13.8068142 ,Left ,62,04950507717 ,44,8753959689113 ,86,0576084829897
13.8369362 ,Left ,62,0405611992998 ,44,8950235426534 ,86,0744457780566
13.8517142 ,Left ,62,0637885787983 ,44,9466952583587 ,86,0930624542528
13.8668138 ,Left ,62,0710610707361 ,45,049155873297 ,86,0981367026665
13.8820618 ,Left ,62,0541081650696 ,45,1797329036319 ,86,0963668787684
13.9041784 ,Left ,62,0719247763829 ,45,3140652647971 ,86,0904628338627
13.9268516 ,Left ,62,0969476605325 ,45,4161359004184 ,86,0822592024652
13.9417622 ,Left ,62,1149967220063 ,45,5102761819382 ,86,0606656888483
13.9644214 ,Left ,62,1324413242412 ,45,5981629785813 ,86,0287449837179
13.9867868 ,Left ,62,1382425754638 ,45,6754550787273 ,85,9994192657908
14.0017787 ,Left ,62,1110552569419 ,45,7280073731749 ,85,9940226235775
14.0239013 ,Left ,62,1184554211206 ,45,7467465333442 ,85,9974399268382
14.061481 ,Left ,62,0120595708865 ,45,7689842864224 ,85,9880861368248
14.0839808 ,Left ,61,9389997710593 ,45,8085670620161 ,85,9902333381015
14.114259 ,Left ,61,8786372703237 ,45,9540879763928 ,86,0117186910042
14.13659 ,Left ,61,8957796132979 ,45,9963314654078 ,86,035180586683
14.1740375 ,Left ,61,9115402020794 ,45,9396810800269 ,86,0535813463389
14.1970122 ,Left ,61,924646267862 ,45,8927754027788 ,86,054115451816
14.234071 ,Left ,61,9995002226732 ,45,7930339492097 ,86,027908220769
14.2565288 ,Left ,61,9842388411833 ,45,7549782642439 ,86,0223262329522
14.2942767 ,Left ,61,9714564132498 ,45,6583021572272 ,85,9671107593179
14.3167448 ,Left ,61,9630580429895 ,45,6067277063605 ,85,9177501232878
14.35398 ,Left ,61,9474847084776 ,45,4761096931934 ,85,851170166771
14.3765563 ,Left ,61,9009995409952 ,45,4231406967517 ,85,8201662937319
14.4143231 ,Left ,61,8919792646198 ,45,3326715303624 ,85,7548279903409
14.4369094 ,Left ,61,8454333325904 ,45,3288913179618 ,85,7487300340769
14.4746394 ,Left ,61,8330194762759 ,45,4390633465543 ,85,8209818389546
14.4967758 ,Left ,61,8864706305997 ,45,4830386748581 ,85,8665624224132
14.5343826 ,Left ,62,0063242079176 ,45,4894095177254 ,85,9154573245087
14.5569863 ,Left ,62,0821935665677 ,45,4722365555333 ,85,9274142432463
14.5946263 ,Left ,62,1580688137595 ,45,429652609305 ,85,9848908542662
14.6168722 ,Left ,62,2012433621996 ,45,4062190697883 ,85,9944117220359
14.6543272 ,Left ,62,0887001387341 ,45,3297840904302 ,85,9301543968251
14.6767347 ,Left ,62,167811189202 ,45,3072947865882 ,85,9183393146293
14.7140841 ,Left ,62,1761592879374 ,45,2274037729975 ,85,9438319266722
14.7368377 ,Left ,62,0798326284821 ,45,1946169605286 ,85,9556131003984
14.7742031 ,Left ,62,09226534991 ,45,2085566459434 ,85,9227393000281
14.7969068 ,Left ,62,0723956886934 ,45,1964997657486 ,85,9334734761853
14.8343513 ,Left ,62,0521485267178 ,45,1623550481489 ,85,9377997165662
14.8569202 ,Left ,62,0171516472918 ,45,1647050642169 ,85,9439936027743
14.894279 ,Left ,61,9915953739027 ,45,2191719471617 ,85,9718326441407
14.9166743 ,Left ,61,9912432612261 ,45,2356648108598 ,85,9867755895528
14.954479 ,Left ,61,9560495267692 ,45,2636610700647 ,86,0166272644945
14.9768908 ,Left ,61,9549473953396 ,45,297153542203 ,86,0299236637153
15.0144758 ,Left ,61,9487168491075 ,45,3626121972082 ,86,0341990035871
15.0368072 ,Left ,61,9477971249899 ,45,3843159570767 ,86,0326578823321
15.0743731 ,Left ,62,0046805406352 ,45,4374759042884 ,86,0103913071578
15.0968728 ,Left ,61,9971292160261 ,45,464632415342 ,86,0056843260491
15.1342692 ,Left ,62,0083739039086 ,45,5280707417497 ,85,9951883153521
15.1566747 ,Left ,62,0075108246257 ,45,530354451926 ,85,994440756112
15.1944099 ,Left ,62,0330377342585 ,45,4825328539041 ,86,0049216091755
15.2169263 ,Left ,62,0386937394749 ,45,4317201228131 ,86,013373822562
15.2545189 ,Left ,62,0306841596038 ,45,3499345298457 ,86,0749834494088
15.2765143 ,Left ,62,0070484772179 ,45,3685150432278 ,86,1041342794145
15.3139818 ,Left ,62,0775344673429 ,45,4627828959844 ,86,1394145959878
15.3365103 ,Left ,62,1078926990052 ,45,4822298531721 ,86,1267742910443
15.3741631 ,Left ,62,1936717985998 ,45,4602083165123 ,86,0447346433308
15.3969263 ,Left ,62,2360050793262 ,45,4405120431527 ,85,9935174664275
15.441968 ,Left ,62,2913133108174 ,45,3549296160697 ,85,8700547703616
15.4644548 ,Left ,62,3208483202661 ,45,3014176800954 ,85,8097664300649
15.4944477 ,Left ,62,2222554602345 ,45,2389659764561 ,85,6843226713438
15.5169831 ,Left ,62,2268303795392 ,45,2141688026623 ,85,6562188250983
15.5543338 ,Left ,62,2147430861135 ,45,2049183856771 ,85,7532797898216
15.576821 ,Left ,62,0877095572306 ,45,2704994667059 ,85,7904530948527
15.6142202 ,Left ,62,069811547585 ,45,3661991172005 ,85,8056818481644
15.6369003 ,Left ,62,0729328250483 ,45,3452052254715 ,85,8075681180667
15.6740126 ,Left ,61,9909096238913 ,45,2796326274727 ,85,7318445779857
15.6967049 ,Left ,62,0699774043976 ,45,245347317039 ,85,7059643883138
15.7339341 ,Left ,62,1060112056839 ,45,1958984182159 ,85,7915340913626
15.7644349 ,Left ,61,9928388512203 ,45,2698287885257 ,85,8360090371125
15.816651 ,Left ,62,0331981485815 ,45,4391271350199 ,85,8637737007221
15.8540617 ,Left ,61,998973135055 ,45,5560152673793 ,85,9077850874431
15.8767453 ,Left ,62,0232660906013 ,45,6069902183946 ,85,9297485590182
15.9144453 ,Left ,62,0213891860073 ,45,7264193887054 ,85,984406607075
15.9293778 ,Left ,62,0585633223935 ,45,6780023694854 ,86,0115982850735
15.9515839 ,Left ,62,0625607470229 ,45,6604026441745 ,86,0259649202124
15.9666402 ,Left ,61,9337834792148 ,45,7077071052783 ,86,0277091380476
15.9894082 ,Left ,61,8740984820389 ,45,7292734742373 ,86,0296409704656
16.0116202 ,Left ,61,9397497540778 ,45,6910911735854 ,86,0490060969781
16.0344138 ,Left ,61,9911518734642 ,45,5703159708859 ,86,0750268166723
16.0567868 ,Left ,61,9945624299848 ,45,42166173095 ,86,087208918485
16.0869311 ,Left ,62,0205784071679 ,45,1321891032043 ,86,0313020209478
16.1092298 ,Left ,62,0446640587383 ,45,0005730371083 ,86,0086294115248
16.1316707 ,Left ,62,088032340815 ,44,9660950492687 ,85,964108369327
16.1466369 ,Left ,62,1593045294769 ,44,9603804321841 ,85,9193630597015
16.1692345 ,Left ,62,2087293887181 ,44,9756689813975 ,85,8786301849696
16.1918265 ,Left ,62,2370938905974 ,45,0227423454465 ,85,8681938504677
16.2063749 ,Left ,62,2234810444955 ,45,1291436612248 ,85,8658286440171
16.2291799 ,Left ,62,2111306980888 ,45,2454151862039 ,85,8568657851519
16.259253 ,Left ,62,2513414668993 ,45,3726761283357 ,85,8670279486842
16.2740461 ,Left ,62,2895490267879 ,45,4837822663799 ,85,879140933634
16.296478 ,Left ,62,3029773636069 ,45,5712624869804 ,85,8798644768074
16.3267252 ,Left ,62,1644397197356 ,45,7581665179373 ,85,8278719519791
16.3489624 ,Left ,62,1539496442689 ,45,8049791856705 ,85,8181358372315
16.3716087 ,Left ,62,2348009850037 ,45,8039818663876 ,85,825509412629
16.3868969 ,Left ,62,2273373030073 ,45,7744794839456 ,85,8386694021923
16.409483 ,Left ,62,1607441313894 ,45,8102591699533 ,85,846022993525
16.4320148 ,Left ,62,0697109585804 ,45,855115570197 ,85,8515388750718
16.4467672 ,Left ,61,9956824555532 ,45,9168708698241 ,85,8428375111595
16.4690118 ,Left ,61,984806282143 ,45,9798228241747 ,85,8476756865389
16.4915275 ,Left ,62,02580810298 ,46,0350458659762 ,85,8640675986444
16.5065238 ,Left ,62,0625537306608 ,46,0319183422489 ,85,8849758397364
16.5292309 ,Left ,62,0859291089133 ,45,9729745197892 ,85,8911296149322
16.5520772 ,Left ,62,0521379755176 ,45,8634845849571 ,85,9094037776958
16.567199 ,Left ,62,0474622567671 ,45,7498398387067 ,85,9137418709251
16.5972124 ,Left ,62,0699886798882 ,45,6693719684344 ,85,9182346973944
16.6195669 ,Left ,62,0729163095387 ,45,6162393495353 ,85,9089298420756
16.6348328 ,Left ,62,0466865592462 ,45,5632720290955 ,85,8832770200277
16.6495737 ,Left ,62,0224524279226 ,45,5097306113436 ,85,8403364343076
16.6722334 ,Left ,62,0307746863311 ,45,4528457166222 ,85,7986213950165
16.6871399 ,Left ,62,0095312370284 ,45,3970074565399 ,85,7583073446104
16.7096526 ,Left ,61,953099481529 ,45,3968654282027 ,85,7213231528732
16.7321073 ,Left ,61,8982733483563 ,45,3971795478613 ,85,713603397378
16.7470878 ,Left ,61,9464669300101 ,45,4239573256655 ,85,7469361960356
16.7693912 ,Left ,61,9455158977112 ,45,485706663847 ,85,7912261023708
16.7921142 ,Left ,61,9217174172236 ,45,5613375115767 ,85,8357119195815
16.8221281 ,Left ,61,9753272400222 ,45,5835715293087 ,85,8741997623374
16.8370731 ,Left ,62,0576334797724 ,45,5773222755741 ,85,8981914827259
16.8670054 ,Left ,62,0837640747762 ,45,5468536245275 ,85,8937188727058
16.8822072 ,Left ,62,1092702423698 ,45,4990641657768 ,85,8827033310652
16.8972096 ,Left ,62,1053830427495 ,45,4487148226295 ,85,8843880007546
16.93418 ,Left ,62,1899626667709 ,45,3851131312374 ,85,8876653789517
16.9491728 ,Left ,62,1877613708957 ,45,3565041573985 ,85,9050830322632
16.9715453 ,Left ,62,1656624408242 ,45,3416906960135 ,85,9067361221705
16.9942761 ,Left ,62,1572756952609 ,45,3098755179962 ,85,9046689471013
17.0091353 ,Left ,62,1712438573848 ,45,297027111275 ,85,9032555212521
17.0316186 ,Left ,62,1180057225815 ,45,2815623004878 ,85,881872697707
17.0543364 ,Left ,62,0521937569012 ,45,2342904004324 ,85,8742812962407
17.0694959 ,Left ,62,0533880057183 ,45,1910219263249 ,85,8682105208423
17.0917787 ,Left ,62,093607442081 ,45,1615984465745 ,85,8561267020009
17.1220623 ,Left ,62,0581598617715 ,45,1633154486148 ,85,863397690242
17.1369307 ,Left ,62,0205572101059 ,45,1690610675564 ,85,8702880152576
17.1593922 ,Left ,62,0522117714163 ,45,1610620579395 ,85,8769448485815
17.1746881 ,Left ,62,066275852978 ,45,1593958117432 ,85,8926236966681
17.1896426 ,Left ,62,0367555646156 ,45,1578252124093 ,85,9174074371629
17.2118192 ,Left ,62,0155525881062 ,45,1645561875271 ,85,9424078333244
17.2347212 ,Left ,62,0376045627028 ,45,1850968022331 ,85,9521523627381
17.2493655 ,Left ,62,0571905134158 ,45,2066304526881 ,85,9629551602555
17.2715196 ,Left ,62,0430178344176 ,45,2459683103705 ,85,9784006393242
17.2940377 ,Left ,62,0494364212344 ,45,2770977693838 ,85,9797460425208
17.3091862 ,Left ,62,0623739066298 ,45,2983889546052 ,85,9756521250826
17.3316895 ,Left ,62,0617817670129 ,45,3217843982777 ,85,9697369853778
17.3543114 ,Left ,62,0561515124866 ,45,3519045874132 ,85,9588621605572
17.3691754 ,Left ,62,0373408251952 ,45,3859790948836 ,85,9480902467411
17.3993505 ,Left ,62,0301933351535 ,45,4134787039643 ,85,9359376468551
17.421817 ,Left ,62,0510834288399 ,45,4182954482134 ,85,9196635957751
17.4367914 ,Left ,62,0565410211074 ,45,3996675726788 ,85,9176522531556
17.4519121 ,Left ,62,0543899093761 ,45,3661540578276 ,85,9073506768352
17.4744081 ,Left ,62,0550273734044 ,45,3360260141964 ,85,9261618842776
17.4893813 ,Left ,62,0508218162309 ,45,3294099875332 ,85,9475499152484
17.5116325 ,Left ,62,0363499129966 ,45,3342627134319 ,85,9791083975364
17.5341692 ,Left ,62,0242672652113 ,45,374678140762 ,86,0078511716357
17.5493247 ,Left ,62,0611063158365 ,45,4302852852667 ,86,0244206380403
17.5717279 ,Left ,62,1344501772058 ,45,4573113206383 ,86,0292306684935
17.5940404 ,Left ,62,167114177355 ,45,4487123506481 ,86,0175484611048
17.6089611 ,Left ,62,2220582844951 ,45,4054497950062 ,85,9663946038094
17.631875 ,Left ,62,256854716665 ,45,3702353659334 ,85,9228125027259
17.6615986 ,Left ,62,2851942769339 ,45,3359369587646 ,85,8544622950092
17.6841803 ,Left ,62,2987233090456 ,45,2866402612982 ,85,7899894604955
17.699147 ,Left ,62,3077554731041 ,45,2447147770993 ,85,7472504052281
17.7141847 ,Left ,62,3579142303621 ,45,2368092355474 ,85,6855073731812
17.7291931 ,Left ,62,3149196878048 ,45,2315857763645 ,85,6324412158039
17.7514872 ,Left ,62,2900956893919 ,45,2175530330493 ,85,5638048289565
17.7740028 ,Left ,62,2694566647759 ,45,195507451589 ,85,5448630540534
17.7967252 ,Left ,62,2936762469961 ,45,1563208117614 ,85,5695599291778
17.8114817 ,Left ,62,2984347868304 ,45,1207930569709 ,85,6225034289396
17.8341315 ,Left ,62,1919625954103 ,45,1524401616519 ,85,6646506715291
17.8565285 ,Left ,62,1826785652883 ,45,2145535435413 ,85,6841386769815
17.8716957 ,Left ,62,2118303291553 ,45,2648542390584 ,85,6803872642485
17.894309 ,Left ,62,2148168206073 ,45,2687444988899 ,85,6870235743955
17.9241932 ,Left ,62,1907467701105 ,45,2811567316324 ,85,6767149425337
17.9392255 ,Left ,62,1976950825167 ,45,3034325605018 ,85,6344784692158
17.9615789 ,Left ,62,177058851175 ,45,3358464168572 ,85,5981890518801
17.991682 ,Left ,62,2692689551841 ,45,3285933934357 ,85,6945792282144
18.0144192 ,Left ,62,1497860355533 ,45,3686977481527 ,85,7863763347043
18.0368969 ,Left ,62,0243789471521 ,45,4584559014992 ,85,8379771499116
18.0520385 ,Left ,62,0201555774726 ,45,5245745220766 ,85,8645087153036
18.0746011 ,Left ,62,0858010469459 ,45,5856821991566 ,85,8669966073559
18.096747 ,Left ,62,0694653567762 ,45,6485725868465 ,85,8731291225979
18.1118004 ,Left ,61,9881634015689 ,45,7099744434717 ,85,878274288626
18.1345746 ,Left ,61,9917281991944 ,45,7326148888074 ,85,879588190188
18.1570038 ,Left ,62,0536611779227 ,45,7859758740252 ,85,8721252304673
18.1719528 ,Left ,62,0826346075463 ,45,8212695835237 ,85,8757780013776
18.194277 ,Left ,62,0824809719292 ,45,790133227287 ,85,8962962061264
18.2167575 ,Left ,62,0688605236433 ,45,7411110104193 ,85,8962694580304
18.2317442 ,Left ,62,0391302457427 ,45,7437087598248 ,85,865218325427
18.2542233 ,Left ,61,9261679820164 ,45,7799436928919 ,85,846870721738
18.2766738 ,Left ,61,8824901768005 ,45,8110705736515 ,85,8683579990574
18.291553 ,Left ,61,9078724012373 ,45,8194099348823 ,85,9116252123401
18.3141552 ,Left ,61,9144205971062 ,45,7709985311599 ,85,9643081123115
18.3366641 ,Left ,61,8982616995268 ,45,6736084865659 ,85,9987641142451
18.3598166 ,Left ,61,9042943295533 ,45,5316678139788 ,86,0092384241672
18.3742248 ,Left ,61,9485460641967 ,45,38729929735 ,85,996002263523
18.396674 ,Left ,62,0074584986567 ,45,2457118490939 ,85,9772724137742
18.4191705 ,Left ,61,9565770347511 ,45,1220166817706 ,85,9735049637709
18.4342479 ,Left ,61,931135807479 ,45,0844973536044 ,85,9598088804328
18.4567022 ,Left ,61,9966999440779 ,45,0664977396424 ,85,9452414448317
18.4871222 ,Left ,62,0564496336056 ,45,0134812644205 ,85,9268401880931
18.5022229 ,Left ,62,0658458503059 ,44,9641961575105 ,85,9054565786406
18.5244191 ,Left ,62,0431115210821 ,44,9738828618767 ,85,8982090774757
18.5396148 ,Left ,62,0215362010757 ,45,0483984324908 ,85,8934583960749
18.5544301 ,Left ,62,0547100269704 ,45,1431282962898 ,85,9048862014462
18.5769458 ,Left ,62,121770025738 ,45,2507280603267 ,85,9136009845345
18.5996461 ,Left ,62,1296919722475 ,45,352343165989 ,85,9364364759784
18.6146533 ,Left ,62,0904502750978 ,45,4593982903742 ,85,9542083641749
18.6369822 ,Left ,62,1082551129083 ,45,5842221602029 ,85,9345640094292
18.6596352 ,Left ,62,1389115171017 ,45,7105972999706 ,85,8847480010985
18.6746008 ,Left ,62,1272421880457 ,45,7946515690057 ,85,842239372039
18.6968115 ,Left ,62,1413788956742 ,45,8368605868597 ,85,8281355409269
18.719229 ,Left ,62,1532994065976 ,45,8864582104383 ,85,8109019277018
18.7341325 ,Left ,62,1178735311591 ,45,9237481356183 ,85,8108791144152
18.756641 ,Left ,62,0168367068287 ,45,9390620968722 ,85,8537588865071
18.7790364 ,Left ,62,0343737287812 ,45,9630864463338 ,85,8756636602164
18.7942807 ,Left ,62,0359877399843 ,45,997476449681 ,85,9027557952162
18.8167832 ,Left ,61,9749979635471 ,46,0658909716461 ,85,9111463912976
18.8394202 ,Left ,61,9694253531106 ,46,1243316325589 ,85,9144539149069
18.8540931 ,Left ,62,00189960622 ,46,1251357241065 ,85,9185528031603
18.876524 ,Left ,62,0307153334133 ,46,0842005746185 ,85,9076621599053
18.8989445 ,Left ,62,0282852275623 ,46,0203250713415 ,85,896004951235
18.9140801 ,Left ,62,0463770155988 ,45,9286525326863 ,85,8797152242343
18.9368764 ,Left ,62,0693360670274 ,45,8532545254614 ,85,8495706695509
18.959302 ,Left ,62,0900182037057 ,45,7846716878057 ,85,8172680585219
18.9742138 ,Left ,62,0489496313613 ,45,7365430272704 ,85,7863471939335
18.9969197 ,Left ,62,0298103401194 ,45,699776008938 ,85,742938791359
19.0193454 ,Left ,62,0572151310506 ,45,6354625510112 ,85,7057960720209
19.0345035 ,Left ,62,0769485062196 ,45,5573035965123 ,85,6918702727433
19.0568185 ,Left ,62,0249357865476 ,45,4795332824999 ,85,6905620843873
19.0791254 ,Left ,61,9752682094609 ,45,4267685662346 ,85,6752135933823
19.0944787 ,Left ,61,9393740197635 ,45,414326275484 ,85,6580999662057
19.1169263 ,Left ,61,8587081862252 ,45,4397892449534 ,85,6633937400656
19.1391429 ,Left ,61,8821711863753 ,45,4767582571509 ,85,6918421960532
19.1541889 ,Left ,61,9240114920286 ,45,5213159399051 ,85,7357668131552
19.1764503 ,Left ,61,960525945932 ,45,5563287175008 ,85,7935258458161
19.1991979 ,Left ,61,9948348678516 ,45,5690729580872 ,85,8283667328579
19.2141 ,Left ,62,0415201505396 ,45,5356625034859 ,85,8590116809979
19.2365441 ,Left ,62,0922522935718 ,45,5124989032411 ,85,8712000287821
19.2591917 ,Left ,62,112432214348 ,45,4869426643656 ,85,8870194275768
19.2742259 ,Left ,62,1516286263603 ,45,4722851088989 ,85,8946329119931
19.2966323 ,Left ,62,1964267025944 ,45,4344337839822 ,85,9064131000834
19.3191885 ,Left ,62,2337460497159 ,45,4064047380889 ,85,9082350050603
19.3342456 ,Left ,62,1838713471029 ,45,365248034466 ,85,9309819262295
19.3565696 ,Left ,62,1882575805105 ,45,3255173015597 ,85,9398948868096
19.3793299 ,Left ,62,2724677740578 ,45,277331011739 ,85,9315142447785
19.3946867 ,Left ,62,2533452099723 ,45,2247285772164 ,85,9274288459139
19.4169213 ,Left ,62,1885231516172 ,45,1840139558639 ,85,930705922984
19.4393907 ,Left ,62,1793287793847 ,45,1476410487801 ,85,9410270465402
19.4544199 ,Left ,62,228463418082 ,45,1166687319628 ,85,9440512283041
19.4770614 ,Left ,62,2008626574603 ,45,095601250381 ,85,9432633816523
19.4995391 ,Left ,62,1414399094601 ,45,0826482066022 ,85,957305286508
19.5146441 ,Left ,62,1185827290003 ,45,0710528790462 ,85,9702594773411
19.5369016 ,Left ,62,1569408449744 ,45,0643875544737 ,85,9735467763241
19.5595074 ,Left ,62,1541343096566 ,45,0714619931886 ,85,9776895855522
19.5746063 ,Left ,62,1112071530311 ,45,0909323638023 ,85,9951256822437
19.5969903 ,Left ,62,1017150518709 ,45,1091821880844 ,86,0078069560455
19.619345 ,Left ,62,1111501596822 ,45,1238021902197 ,86,0262537461788
19.6420577 ,Left ,62,1108511706656 ,45,1547876542754 ,86,0339831906079
19.6644996 ,Left ,62,0869216632737 ,45,1946550892644 ,86,0429344340365
19.7019385 ,Left ,62,1073088465089 ,45,2651432249276 ,86,0518679182886
19.7167633 ,Left ,62,1101209322907 ,45,3125783029638 ,86,0501077692172
19.7393088 ,Left ,62,1036880269833 ,45,3382548282288 ,86,0514403397105
19.7617951 ,Left ,62,1056350907835 ,45,3606242149327 ,86,0445697722104
19.7693677 ,Left ,62,0995914442238 ,45,3936169837372 ,86,0318607994289
19.7919094 ,Left ,62,0933334562902 ,45,4211285018691 ,86,0137805815089
19.8294067 ,Left ,62,0984902263864 ,45,4365974195642 ,85,9889402520521
19.8516959 ,Left ,62,0721701571506 ,45,4411793279972 ,85,9919823834171
19.8965494 ,Left ,62,1370394731218 ,45,3977094272956 ,86,0029982473552
19.9490426 ,Left ,62,0269542530374 ,45,4762799265376 ,86,1429611427662
19.9715664 ,Left ,62,0678513223731 ,45,5352521880219 ,86,1745285265551
20.0092885 ,Left ,62,1276155423047 ,45,5802021091463 ,86,2068643899225
20.0316166 ,Left ,62,1634167846853 ,45,5691078600058 ,86,1923502566182
20.0694969 ,Left ,62,2184811881958 ,45,5088478594789 ,86,1008977311825
20.0920453 ,Left ,62,2395997774064 ,45,4624315938687 ,86,0387838927719
20.129254 ,Left ,62,3041267655901 ,45,3922995357638 ,85,8964602864032
20.1522535 ,Left ,62,3212425844021 ,45,352609010692 ,85,8230999040124
20.1899225 ,Left ,62,2837281152573 ,45,3042331865361 ,85,6569173948703
20.2122847 ,Left ,62,2816718106711 ,45,2801672841239 ,85,646685469708
20.2497967 ,Left ,62,2466160172819 ,45,2740988814023 ,85,76823728579
20.272289 ,Left ,62,1708499699078 ,45,3321628024286 ,85,8280904902498
20.3094457 ,Left ,62,1735938399099 ,45,442864809804 ,85,8745154444642
20.3317266 ,Left ,62,1654063233305 ,45,4538208300927 ,85,8814586937305
20.3691773 ,Left ,62,1115031459154 ,45,4623841438132 ,85,8167126293393
20.3917507 ,Left ,62,1455427892365 ,45,4678936338224 ,85,7942889549507
20.4290471 ,Left ,62,1371539696896 ,45,430508951814 ,85,9071373069845
20.451857 ,Left ,61,9853930730887 ,45,5157472677129 ,85,9459157263833
20.4892001 ,Left ,61,9524130628144 ,45,6298309791568 ,85,9917192942681
20.5117687 ,Left ,61,9462337209981 ,45,6502816934215 ,86,01541010461
20.5497842 ,Left ,61,8717206508922 ,45,7021562401295 ,86,0149927642485
20.5721389 ,Left ,61,8762785381892 ,45,7209538405271 ,86,0075126138815
20.6090761 ,Left ,61,9556916364951 ,45,7809453519153 ,85,9450189603583
20.6314905 ,Left ,61,8660743439886 ,45,7972455889418 ,85,9521431786328
20.6693333 ,Left ,61,9879006526036 ,45,7322499017407 ,85,9673440456044
20.6991639 ,Left ,61,8845836136958 ,45,7591507271202 ,85,9754701940392
20.7440369 ,Left ,61,8465603565783 ,45,8360689318773 ,86,0313727535049
20.7592877 ,Left ,61,868895165339 ,45,7829736835994 ,86,0759195594344
20.811682 ,Left ,61,9093074303547 ,45,4287874744168 ,86,115890213578
20.8492039 ,Left ,61,9408895020435 ,45,1640500283704 ,86,0877503586693
20.871634 ,Left ,61,9957523511767 ,45,0995395416491 ,86,0330171889207
20.909541 ,Left ,62,0697240688602 ,45,0081007974346 ,85,9959316520398
20.9316833 ,Left ,62,086843986065 ,44,9888419313603 ,85,9956727003626
20.9765883 ,Left ,62,1213477218096 ,45,1136709892154 ,85,9832558430195
20.9990305 ,Left ,62,1391893469541 ,45,2358517030285 ,85,9792307059545
21.0516032 ,Left ,62,1762607865924 ,45,5893114180982 ,85,9624497821941
21.0894683 ,Left ,62,2424293374567 ,45,7200704586572 ,85,9373265600158
21.1123327 ,Left ,62,2148391785626 ,45,7837199760166 ,85,9067625894428
21.1498811 ,Left ,62,1423549209334 ,45,902331187599 ,85,8136898055428
21.1723822 ,Left ,62,1402254008417 ,45,8701006062419 ,85,8208030385978
21.2090616 ,Left ,62,0724316175642 ,45,882898695084 ,85,871732657353
21.2315818 ,Left ,61,9814067754306 ,45,9580937890275 ,85,9065218389954
21.2690128 ,Left ,62,0168630074023 ,46,0578117616654 ,85,9527507561856
21.29167 ,Left ,62,0424145691843 ,46,0274172966215 ,85,9483729785303
21.3219453 ,Left ,61,9656362040111 ,45,8595851541576 ,85,923202890667
21.3516702 ,Left ,61,9751377795531 ,45,7452057818722 ,85,8989812868996
21.3893044 ,Left ,61,9497217735384 ,45,6261129595117 ,85,8361145037382
21.4118015 ,Left ,61,8803601803007 ,45,5780172470891 ,85,7823078456799
21.4489968 ,Left ,61,9250780768084 ,45,4313286836308 ,85,696809381908
21.4724512 ,Left ,61,8588809410658 ,45,3980056032404 ,85,666221388036
21.5096529 ,Left ,61,8502908307003 ,45,3862493498798 ,85,7124279747713
21.5323951 ,Left ,61,8907762699539 ,45,4583474009163 ,85,7514179548494
21.5692806 ,Left ,61,9393557645787 ,45,5771437222328 ,85,8185268064414
21.5844686 ,Left ,62,0050937300035 ,45,564523558481 ,85,8337062786361
21.6296215 ,Left ,62,0878187081701 ,45,5180375375616 ,85,8494007406225
21.6444305 ,Left ,62,1304886943271 ,45,4986430809109 ,85,8473534936485
21.6669923 ,Left ,62,2074645308234 ,45,4587240626013 ,85,8426889573638
21.6820931 ,Left ,62,2494105659806 ,45,425910062196 ,85,8502516920374
21.7046068 ,Left ,62,2490170903264 ,45,3927036324819 ,85,8690199694506
21.7267146 ,Left ,62,2333713709938 ,45,3457764893518 ,85,894744386561
21.7415645 ,Left ,62,244190717134 ,45,3067340106171 ,85,9163986445089
21.7642509 ,Left ,62,2701375655911 ,45,2646086618192 ,85,923499414351
21.7863438 ,Left ,62,2438027263505 ,45,2046414794137 ,85,9248596321081
21.802205 ,Left ,62,2226926289084 ,45,1614771506602 ,85,9259865826641
21.8246573 ,Left ,62,2297319360492 ,45,1522227588886 ,85,9193690359798
21.8467538 ,Left ,62,202550453778 ,45,1373861994593 ,85,9077848235843
21.8616759 ,Left ,62,1930427765317 ,45,1161299998169 ,85,9086783871084
21.8841042 ,Left ,62,1904892707366 ,45,1025864059409 ,85,9168994689328
21.9070849 ,Left ,62,1565095934847 ,45,1033832111854 ,85,9291040298082
21.9223419 ,Left ,62,1104853586414 ,45,1088999062866 ,85,9408363468199
21.9447026 ,Left ,62,1033644819979 ,45,1002288880636 ,85,9433178776347
21.9673267 ,Left ,62,1295170847337 ,45,0849058594681 ,85,9356690189058
21.9822969 ,Left ,62,1037701423058 ,45,0805634774893 ,85,9377127263998
22.0049235 ,Left ,62,0497534659425 ,45,0887487874811 ,85,9386335468616
22.0270134 ,Left ,62,0457901816613 ,45,10983719019 ,85,9354304172939
22.0420061 ,Left ,62,0812923589923 ,45,1282564815146 ,85,9325896490569
22.0645512 ,Left ,62,0908643879173 ,45,1461174493484 ,85,934556504309
22.0864066 ,Left ,62,0987358635087 ,45,1819496890807 ,85,9311607855873
22.1023453 ,Left ,62,1008281509264 ,45,2096312746171 ,85,9232084563465
22.1322949 ,Left ,62,1123006293357 ,45,2215667689728 ,85,9237097731521
22.1548878 ,Left ,62,1270967274937 ,45,2324596164196 ,85,9243706620519
22.1698325 ,Left ,62,1312147461907 ,45,2608328274732 ,85,9169865666152
22.192351 ,Left ,62,0987653666835 ,45,2936338140351 ,85,9073542923942
22.207036 ,Left ,62,1188341269752 ,45,3166201385982 ,85,8861598272739
22.2219347 ,Left ,62,1492593507334 ,45,3202954248232 ,85,871109653139
22.2442816 ,Left ,62,1677164858449 ,45,3003685036239 ,85,8607594937091
22.2667109 ,Left ,62,1361511019599 ,45,2710585239299 ,85,8717369943267
22.2819647 ,Left ,62,1515732661553 ,45,248549106029 ,85,9005541866331
22.3042441 ,Left ,62,1679988865421 ,45,2495334494223 ,85,9465579985354
22.326796 ,Left ,62,1085824784446 ,45,2788794863195 ,85,9916665185405
22.3417134 ,Left ,62,074293447989 ,45,3476840424676 ,86,0225011586206
22.3639917 ,Left ,62,1104567748509 ,45,3974065689947 ,86,0412553981631
22.3864124 ,Left ,62,1620432712958 ,45,4263982352623 ,86,0553054892321
22.4023268 ,Left ,62,1786228007931 ,45,4339085938238 ,86,0607286993982
22.4246277 ,Left ,62,2145684865195 ,45,4299205423611 ,86,039592281521
22.4470839 ,Left ,62,2079220777461 ,45,397472881253 ,86,0070045474172
22.4620692 ,Left ,62,2888443630492 ,45,3699812449231 ,85,9627645253418
22.4847026 ,Left ,62,3371299115915 ,45,356703246813 ,85,9142731192393
22.5068331 ,Left ,62,328965159565 ,45,330182841553 ,85,883230581943
22.5293582 ,Left ,62,3226613570686 ,45,3080226090827 ,85,834837163453
22.5446808 ,Left ,62,3172374678138 ,45,2837801644633 ,85,7722608727831
22.5803765 ,Left ,62,3287957158619 ,45,2542923751916 ,85,7248110117997
22.5893079 ,Left ,62,3181898250711 ,45,2070018400037 ,85,6796648116478
22.6043402 ,Left ,62,3362351202206 ,45,1458248075829 ,85,6753978935984
22.6266782 ,Left ,62,2733375518752 ,45,1279167275908 ,85,7048393709597
22.6491885 ,Left ,62,2061341314076 ,45,1749581139517 ,85,716461055026
22.6642386 ,Left ,62,2146063751124 ,45,2207783968173 ,85,7492125975174
22.6865327 ,Left ,62,2116430733189 ,45,24586880305 ,85,8066626605911
22.709281 ,Left ,62,1669624345761 ,45,2664415330097 ,85,8530841639717
22.7241941 ,Left ,62,1263855464659 ,45,2817007957633 ,85,8707118717021
22.7465701 ,Left ,62,0927273529403 ,45,2675006941985 ,85,8557994046421
22.7691013 ,Left ,62,1360154032279 ,45,247445388408 ,85,8130593555887
22.7839889 ,Left ,62,1782692568696 ,45,230140389297 ,85,7823148145132
22.8065844 ,Left ,62,1348055647666 ,45,2153545501495 ,85,7706455574163
22.8292706 ,Left ,62,1830734604678 ,45,191331324088 ,85,7815736043454
22.8441561 ,Left ,62,1871427708425 ,45,1859057232788 ,85,8311341190639
22.8665211 ,Left ,62,1115211992053 ,45,248341044156 ,85,8720993993056
22.8891341 ,Left ,62,0756494584661 ,45,3299095753433 ,85,8990635429755
22.9044074 ,Left ,62,079347502753 ,45,4010928367585 ,85,9208975215428
22.9272507 ,Left ,62,0761118707943 ,45,4532084509958 ,85,933288507241
22.9494848 ,Left ,62,0242599341651 ,45,5168150763887 ,85,9281001760776
22.9648335 ,Left ,62,0129299264 ,45,5477919041835 ,85,9214907857709
22.9868812 ,Left ,62,0516054643293 ,45,5686954486577 ,85,9158846260316
23.0091337 ,Left ,62,0782079064525 ,45,6352361409841 ,85,9020465145059
23.0241919 ,Left ,62,0480535859937 ,45,687952013915 ,85,8923501088669
23.0466709 ,Left ,62,0179988484885 ,45,664739062947 ,85,9012386059755
23.069372 ,Left ,62,0870623545342 ,45,6212856611443 ,85,9118983210687
23.0844517 ,Left ,62,0493848023294 ,45,6242806553826 ,85,9259659578096
23.1067341 ,Left ,61,9655411136513 ,45,6561928499536 ,85,9304525563358
23.1289003 ,Left ,61,9727233881409 ,45,6585580270103 ,85,9537711220244
23.1440947 ,Left ,62,0419990078497 ,45,594583765515 ,85,9897206303612
23.1667064 ,Left ,62,0474168506123 ,45,4758988155918 ,86,014239231139
23.1893777 ,Left ,62,0153030503547 ,45,371952043464 ,86,0117884404389
23.204454 ,Left ,62,0188588001501 ,45,2711603391613 ,85,9588223783597
23.22688 ,Left ,62,0798809930793 ,45,130168114234 ,85,917908494831
23.2570527 ,Left ,62,1331177766199 ,45,025269038469 ,85,8948340304871
23.2790354 ,Left ,62,1413507902825 ,45,0023515733747 ,85,8654536119892
23.2940847 ,Left ,62,1787453289576 ,45,0285553524614 ,85,8564447269913
23.3089879 ,Left ,62,2323453009774 ,45,0919671801128 ,85,8296965245806
23.3324554 ,Left ,62,2804922640715 ,45,1567078536701 ,85,8421703377248
23.3471638 ,Left ,62,3146736891878 ,45,2656609149043 ,85,8634198219696
23.3697781 ,Left ,62,3098970576157 ,45,4003541684796 ,85,8734637328532
23.3923422 ,Left ,62,3098404730339 ,45,5495139545482 ,85,8678911569905
23.4074039 ,Left ,62,3041551144156 ,45,696373134488 ,85,8612729509128
23.4297953 ,Left ,62,3638873368462 ,45,7814390485082 ,85,8571024100917
23.4521768 ,Left ,62,4032904967136 ,45,8300610205374 ,85,8564565123065
23.4668513 ,Left ,62,3185007049368 ,45,8971849153043 ,85,8349317015387
23.4890565 ,Left ,62,2490225783034 ,45,9677826404898 ,85,8077267311472
23.5115108 ,Left ,62,2104918243829 ,45,9941290986629 ,85,8010071027708
23.5265779 ,Left ,62,2212150786429 ,46,0249645472316 ,85,7880662243521
23.5498457 ,Left ,62,2387175744071 ,46,0341989049235 ,85,8107419882572
23.5722105 ,Left ,62,174942519514 ,46,0750773725851 ,85,8333947922611
23.5870583 ,Left ,62,0966232655106 ,46,1532266677066 ,85,8538916124164
23.6097353 ,Left ,62,0997896097794 ,46,2096757240623 ,85,8738322820806
23.6316609 ,Left ,62,1822852717137 ,46,2102258048192 ,85,8731062981081
23.6468014 ,Left ,62,2405535577432 ,46,1399102272297 ,85,8598229888808
23.6694113 ,Left ,62,2263978285707 ,46,0327893170372 ,85,853892081424
23.6918282 ,Left ,62,1994292165283 ,45,8914090458034 ,85,8749023864254
23.7067351 ,Left ,62,2090303093171 ,45,7874874160153 ,85,8818617560069
23.7293997 ,Left ,62,1970499504408 ,45,6905436666982 ,85,8694375597302
23.7518185 ,Left ,62,1590575444994 ,45,6179288558008 ,85,8373471312487
23.7668955 ,Left ,62,1466993551026 ,45,5623507858112 ,85,7943783411782
23.7892453 ,Left ,62,1709788284772 ,45,4757273456808 ,85,7684638784493
23.8117569 ,Left ,62,1516067622647 ,45,3908574571891 ,85,7520040329571
23.8267611 ,Left ,62,1405781828925 ,45,3266194924733 ,85,7207798273196
23.8492995 ,Left ,62,1070096149768 ,45,310005511622 ,85,7125222449771
23.8718367 ,Left ,62,0656603452963 ,45,2969869507986 ,85,7193059320555
23.8868402 ,Left ,62,1115022480531 ,45,3424430595429 ,85,7580669511033
23.9090809 ,Left ,62,1433057739741 ,45,4121995914198 ,85,7921126373923
23.9314613 ,Left ,62,1497722036683 ,45,4604685603303 ,85,8354234582125
23.9471531 ,Left ,62,1999676678811 ,45,4813098471594 ,85,8657549561406
23.9695026 ,Left ,62,2264071911739 ,45,4826067201136 ,85,8809577063966
23.9919591 ,Left ,62,2477199231677 ,45,4588412127498 ,85,8714587793182
24.0070381 ,Left ,62,2732554577908 ,45,4193467463141 ,85,8639052522015
24.0365809 ,Left ,62,3350879848207 ,45,3874135096003 ,85,8652607993882
24.0591007 ,Left ,62,3778711558663 ,45,3502948664082 ,85,8993568279884
24.0816473 ,Left ,62,3804243403453 ,45,3335004478532 ,85,9365537483383
24.0967762 ,Left ,62,3389811162963 ,45,3205251294205 ,85,9579539724639
24.1191699 ,Left ,62,3505912324733 ,45,2656253192326 ,85,9633141675137
24.1341503 ,Left ,62,3898591854452 ,45,202630325137 ,85,9626492300896
24.1490355 ,Left ,62,4147639658198 ,45,1610016579371 ,85,9455279677139
24.171577 ,Left ,62,3366323307017 ,45,128542634121 ,85,9510011953785
24.1871301 ,Left ,62,249325285788 ,45,1150426911316 ,85,9534024393836
24.2095919 ,Left ,62,2454442106489 ,45,1078721582071 ,85,9342005838877
24.2322706 ,Left ,62,2594405952002 ,45,0895237844326 ,85,9273514895844
24.2471191 ,Left ,62,2514416685578 ,45,0842952154011 ,85,925674945424
24.2693715 ,Left ,62,2277237808588 ,45,0906776077796 ,85,9272082007325
24.2916408 ,Left ,62,1989634649496 ,45,0935898633423 ,85,9397228094973
24.3067269 ,Left ,62,1972126468662 ,45,0936310550908 ,85,9445317653934
24.3293665 ,Left ,62,1861368048054 ,45,0890403928524 ,85,9513927615374
24.3519081 ,Left ,62,1579110301218 ,45,0777903837523 ,85,9636804784922
24.3742829 ,Left ,62,1385264544392 ,45,072893866191 ,85,9754240267008
24.389363 ,Left ,62,1193902878471 ,45,0800925715655 ,85,994578127427
24.411508 ,Left ,62,1227143059575 ,45,0983152439861 ,86,0018861325167
24.4339786 ,Left ,62,1401319720779 ,45,111352308535 ,86,0135472508045
24.4491216 ,Left ,62,1322787723678 ,45,1410556516898 ,86,0299593450353
24.4721763 ,Left ,62,1286601406102 ,45,1719464314398 ,86,0409397715614
24.4946785 ,Left ,62,124592535179 ,45,1943599944632 ,86,0479316345796
24.5094953 ,Left ,62,1413838043982 ,45,2230591934996 ,86,0479604694285
24.531857 ,Left ,62,145325094183 ,45,2620086965544 ,86,0373740733913
24.5542041 ,Left ,62,1292122785473 ,45,2993347994374 ,86,0279145644756
24.5693635 ,Left ,62,1223778168017 ,45,3299260506354 ,86,0143362760948
24.5917234 ,Left ,62,1408087716793 ,45,3425535291374 ,85,986039521085
24.6145094 ,Left ,62,1580882539465 ,45,3352485391017 ,85,9654513689154
24.6369061 ,Left ,62,1385095948611 ,45,3237914350601 ,85,953496707207
24.6597549 ,Left ,62,110861220551 ,45,2914327323347 ,85,9503840198209
24.6891928 ,Left ,62,1654550226821 ,45,2259420085447 ,85,9985081241821
24.711428 ,Left ,62,1220092735825 ,45,2284274922907 ,86,0436107369512
24.7341272 ,Left ,62,040032641199 ,45,2657070528117 ,86,0873868714115
24.74909 ,Left ,62,0447750988063 ,45,3280119092765 ,86,1077148032638
24.7718291 ,Left ,62,0946293033958 ,45,3615492586719 ,86,1199653391634
24.7944906 ,Left ,62,1388603384288 ,45,3775059555541 ,86,1275058327224
24.8093184 ,Left ,62,1389716898458 ,45,3739120008557 ,86,1240723685757
24.8318302 ,Left ,62,1774868620601 ,45,3675068126792 ,86,0987710111224
24.8544883 ,Left ,62,1847338386916 ,45,3528477373549 ,86,0663987570583
24.8693299 ,Left ,62,2460997892753 ,45,3353037814573 ,86,0177139494496
24.8916417 ,Left ,62,262741373823 ,45,3197036892621 ,85,9716201588503
24.9144362 ,Left ,62,2783503793709 ,45,2909748024633 ,85,9202323137094
24.9293221 ,Left ,62,285573994343 ,45,2768975099621 ,85,8579110867357
24.9519098 ,Left ,62,3262227425404 ,45,2753311198985 ,85,7938778635947
24.9741838 ,Left ,62,3043962247671 ,45,2602969795555 ,85,7400594908273
24.9892425 ,Left ,62,244287220816 ,45,2046771172096 ,85,6991051731743
25.0119963 ,Left ,62,2464943185009 ,45,1572641746265 ,85,691522615409
25.0342679 ,Left ,62,2178897800766 ,45,1372958056961 ,85,7209549402211
25.0494731 ,Left ,62,1968135403305 ,45,160046184957 ,85,7556551871835
25.0716906 ,Left ,62,1773152188915 ,45,2010959535157 ,85,802495623641
25.0942498 ,Left ,62,1558953491976 ,45,2348600250912 ,85,8468016974437
25.1090555 ,Left ,62,1365362032297 ,45,2772688882792 ,85,8610394686377
25.1315715 ,Left ,62,1261852308155 ,45,303387819274 ,85,8633779837428
25.1541274 ,Left ,62,1247778009331 ,45,3084964999924 ,85,8394513078966
25.1693001 ,Left ,62,1315987810791 ,45,3139214030807 ,85,7894471847843
25.1916403 ,Left ,62,1447206600927 ,45,2977436731088 ,85,775531311399
25.2142293 ,Left ,62,2013526860232 ,45,2593470762811 ,85,8038357067058
25.229333 ,Left ,62,1595184771845 ,45,2615549730148 ,85,8439175881785
25.2517185 ,Left ,62,0775439387572 ,45,3248832556841 ,85,8664511470481
25.2742928 ,Left ,62,060537815891 ,45,4019236562938 ,85,887607657348
25.2890548 ,Left ,62,0654494970153 ,45,4658761841724 ,85,9037818331403
25.3119828 ,Left ,62,0621083683256 ,45,4921863699719 ,85,9211329857729
25.3342181 ,Left ,62,0317500231063 ,45,5239867572241 ,85,9377059187228
25.357077 ,Left ,62,0379119215051 ,45,5716031055148 ,85,9394162500637
25.3718673 ,Left ,62,0146542590202 ,45,6225344161432 ,85,9506078912223
25.3942603 ,Left ,62,0216447541131 ,45,6759216104641 ,85,9503700623453
25.4246823 ,Left ,62,025901334985 ,45,7254691844618 ,85,964868498553
25.4393888 ,Left ,62,0240607772383 ,45,7139757147855 ,85,9961708642236
25.4695607 ,Left ,62,0472027210618 ,45,6526274132396 ,86,0295730450258
25.4846508 ,Left ,62,029333554401 ,45,6473995321214 ,86,0436061513257
25.4921334 ,Left ,61,883313606434 ,45,7110493987815 ,86,0671622140358
25.52943 ,Left ,61,8320570090402 ,45,7868317189656 ,86,1240436053854
25.5445746 ,Left ,61,8738347566009 ,45,7389253091706 ,86,1916253429087
25.5669283 ,Left ,61,862469412573 ,45,6372074052916 ,86,2464954249391
25.5895585 ,Left ,61,8383566225741 ,45,5058396061112 ,86,2821230530924
25.6046448 ,Left ,61,8878616436181 ,45,3654468434847 ,86,2503154863423
25.6269587 ,Left ,61,9421921525582 ,45,1945685233314 ,86,2211167472934
25.6494923 ,Left ,61,9196161164221 ,45,0794675531563 ,86,1934114842602
25.6646115 ,Left ,61,9604725707733 ,45,0299788719877 ,86,1403439506227
25.6944273 ,Left ,62,0160914934209 ,44,9874758336346 ,86,0917738424574
25.7170513 ,Left ,62,068723005175 ,44,9584200460205 ,86,0423694878074
25.7319889 ,Left ,62,0773263233867 ,44,9585024062935 ,86,009532452286
25.7469774 ,Left ,62,0486692912947 ,44,9987349614349 ,85,9974899121062
25.7844582 ,Left ,62,1162269304122 ,45,1238392529028 ,85,9967485215943
25.8070818 ,Left ,62,119660758196 ,45,2053063002747 ,86,0023463733635
25.8444794 ,Left ,62,123321290991 ,45,3866314663296 ,86,0113144625823
25.866485 ,Left ,62,1122470651519 ,45,4920984376566 ,85,9841799953497
25.9042689 ,Left ,62,1698677249102 ,45,6213259519445 ,85,9383683775033
25.926709 ,Left ,62,2171637458256 ,45,665642011063 ,85,9106671436741
25.9724195 ,Left ,62,113291108924 ,45,7831160868532 ,85,816261307819
25.9945822 ,Left ,62,1164027636954 ,45,807799223488 ,85,7905914054926
26.0243266 ,Left ,62,1770317134643 ,45,7803522470016 ,85,7935174279405
26.0468869 ,Left ,62,072600907805 ,45,8340821984746 ,85,8118991184391
26.0841558 ,Left ,61,9910656990176 ,46,0688385039627 ,85,8467559663245
26.1072446 ,Left ,62,0446863543871 ,46,1410027714922 ,85,8784585901815
26.1448921 ,Left ,62,0643703409772 ,46,0890604068818 ,85,9083197425642
26.1673421 ,Left ,62,0292578540999 ,46,013562027849 ,85,9029012816663
26.2044392 ,Left ,62,0212016999933 ,45,7801821905392 ,85,8968962248366
26.226867 ,Left ,61,9680417782494 ,45,7167835493255 ,85,8890731154152
26.2715758 ,Left ,61,9351322197464 ,45,6166744536894 ,85,8096415178012
26.2940744 ,Left ,61,9465450054457 ,45,552047706708 ,85,7810396334737
26.3242525 ,Left ,61,8489964850375 ,45,4211040167333 ,85,7435781178808
26.3472695 ,Left ,61,8388393962514 ,45,3827065991316 ,85,7445414870573
26.3846274 ,Left ,61,8801483087805 ,45,3656502320157 ,85,7850754918167
26.407097 ,Left ,61,8624164310718 ,45,4345229223881 ,85,7933585495517
26.444597 ,Left ,61,9677166218871 ,45,4847380507008 ,85,8085018220491
26.4670686 ,Left ,62,0368000092217 ,45,4608848737008 ,85,8182182118119
26.5046325 ,Left ,62,1044173691023 ,45,4247714691106 ,85,8544854142811
26.5269866 ,Left ,62,1379734257489 ,45,4063603311388 ,85,8660596306766
26.5640196 ,Left ,62,2795978271954 ,45,359257666035 ,85,9058602045387
26.5867504 ,Left ,62,2449028859623 ,45,3476139531204 ,85,9176514984108
26.6241711 ,Left ,62,2501914189734 ,45,2784824523046 ,85,907687139279
26.6467773 ,Left ,62,2657088246036 ,45,2489989733828 ,85,9002427034422
26.6844377 ,Left ,62,1542493282188 ,45,1931600985954 ,85,9249289855917
26.7068137 ,Left ,62,1651558780357 ,45,1596262334767 ,85,9093398845695
26.7443512 ,Left ,62,1345853680943 ,45,1582414502075 ,85,8821609001566
26.7669886 ,Left ,62,1154746924116 ,45,1710536648417 ,85,8915959230849
26.8042873 ,Left ,62,1093783285512 ,45,1678449185574 ,85,9148796180496
26.8346576 ,Left ,62,1167989183739 ,45,1591389163754 ,85,9285974094407
26.8723635 ,Left ,62,094844844007 ,45,1690466533727 ,85,9430968808577
26.8873215 ,Left ,62,0894481426369 ,45,1897969859043 ,85,9533956607655
26.9249882 ,Left ,62,0995685376884 ,45,2272543340942 ,85,962213550412
26.946849 ,Left ,62,0900118164984 ,45,2558484837461 ,85,9653403298368
26.9841159 ,Left ,62,1582417132116 ,45,2986817208798 ,85,945743686953
27.0068661 ,Left ,62,1584418507135 ,45,3254686148377 ,85,9310459231049
27.0440757 ,Left ,62,1519584396638 ,45,3826038856721 ,85,9179246271816
27.0665735 ,Left ,62,1643751350563 ,45,3965722151985 ,85,9066859131833
27.1044637 ,Left ,62,1587322613268 ,45,378076252942 ,85,9114530515977
27.1269373 ,Left ,62,1744334866564 ,45,3335089946035 ,85,9134074102774
27.1645294 ,Left ,62,1811373304603 ,45,2832033900462 ,85,9842465498964
27.1867262 ,Left ,62,1669919122671 ,45,3011261685541 ,86,0199937675439
27.2239411 ,Left ,62,2002306986513 ,45,3879286372222 ,86,0671922520963
27.2467075 ,Left ,62,2365335167949 ,45,4155410263404 ,86,0593544258864
27.2843874 ,Left ,62,2832596271614 ,45,387639458576 ,85,9745919213246
27.3069642 ,Left ,62,3253044885909 ,45,3655417912404 ,85,9160627186694
27.3444116 ,Left ,62,3487299255921 ,45,2851843826338 ,85,7794270483295
27.3594701 ,Left ,62,3829172109205 ,45,2554894813454 ,85,7119288353449
27.381995 ,Left ,62,4109510682911 ,45,2509420675713 ,85,6412265802653
27.3971144 ,Left ,62,3814097931177 ,45,2239922626662 ,85,5836721833331
27.4192387 ,Left ,62,3728445588467 ,45,1768148089517 ,85,5401286162088
27.4414639 ,Left ,62,3437290072464 ,45,1611522849695 ,85,5342748617441
27.4565326 ,Left ,62,2631934524148 ,45,1746637748575 ,85,5550738491009
27.4792537 ,Left ,62,2305407402786 ,45,2097916909687 ,85,5954199300609
27.5016571 ,Left ,62,2429620101726 ,45,2423220236031 ,85,6511856134747
27.5169476 ,Left ,62,2248461693987 ,45,2713467312057 ,85,692127760755
27.5396479 ,Left ,62,1668881278106 ,45,299989605072 ,85,7046884641143
27.5615399 ,Left ,62,1566937599888 ,45,3032233546538 ,85,6963797114469
27.576715 ,Left ,62,1846710073737 ,45,2924095698586 ,85,671490120004
27.599579 ,Left ,62,2099181000536 ,45,2897954967863 ,85,6261646451853
27.6222837 ,Left ,62,1735003809829 ,45,2914332281959 ,85,6029806103269
27.637039 ,Left ,62,2343567362133 ,45,2725109532833 ,85,6299889819173
27.6594197 ,Left ,62,2451297888244 ,45,262764438845 ,85,7004817561331
27.6819194 ,Left ,62,1174038146035 ,45,3245898922871 ,85,7612793317172
27.6967312 ,Left ,62,0513055409308 ,45,4131469935047 ,85,7927790836098
27.7191691 ,Left ,62,061203632377 ,45,466837719306 ,85,8104778062167
27.7415299 ,Left ,62,0668933292862 ,45,4867135487641 ,85,8300463672314
27.7641588 ,Left ,62,0370285167599 ,45,5320775390253 ,85,8284014848827
27.7792929 ,Left ,61,9724387907131 ,45,5651804552143 ,85,8395902220364
27.8018816 ,Left ,61,9828317498098 ,45,6034836711874 ,85,839029152044
27.8167458 ,Left ,62,0336987156303 ,45,6535088803486 ,85,8343991625012
27.8390623 ,Left ,62,0656852944206 ,45,7096585223733 ,85,8371886046033
27.861745 ,Left ,62,0353655184689 ,45,689261946042 ,85,9005146659071
27.8769387 ,Left ,62,0385845938441 ,45,6310127749603 ,85,9348073369872
27.8995437 ,Left ,61,9871011187979 ,45,6110220273703 ,85,9709574473126
27.9221002 ,Left ,61,8813791535628 ,45,6444946855935 ,85,9857496254547
27.9444826 ,Left ,61,8809375900417 ,45,6422305361906 ,86,0062142300173
27.9670452 ,Left ,61,9107947378764 ,45,5821574259152 ,86,0451896456173
28.0046282 ,Left ,61,9140556251454 ,45,3553160435751 ,86,0840153902026
28.0195762 ,Left ,61,9312027145539 ,45,2415901792251 ,86,0514670922415
28.042119 ,Left ,61,9704923609205 ,45,1433580461511 ,86,0211273467579
28.0646069 ,Left ,62,0809014466613 ,45,1198135635357 ,85,9644099361381
28.079294 ,Left ,62,1609929932112 ,45,1121439984509 ,85,9159699333508
28.1017552 ,Left ,62,1934684825859 ,45,1505352143206 ,85,8861893006857
28.1241023 ,Left ,62,2139811951215 ,45,2067685281262 ,85,888670528313
28.1390301 ,Left ,62,2504386811081 ,45,2950704917052 ,85,9089225631308
28.1615819 ,Left ,62,2916450439066 ,45,4146025712611 ,85,9211529493021
28.1918694 ,Left ,62,3039838808024 ,45,5556424802393 ,85,9190084010919
28.2069483 ,Left ,62,2914704459509 ,45,6914400542086 ,85,9076349923171
28.2293374 ,Left ,62,2955383586809 ,45,7978040062742 ,85,9178941344984
28.2594648 ,Left ,62,3088062826974 ,45,9129251185351 ,85,9344535055865
28.2817178 ,Left ,62,2604864606956 ,45,9570117786499 ,85,9202533817958
28.3048113 ,Left ,62,2069311104365 ,45,9567629576658 ,85,9096040554874
28.3199683 ,Left ,62,1775294439918 ,45,9561271180664 ,85,9024084510412
28.342223 ,Left ,62,1533102984966 ,45,9697943803701 ,85,9155775689754
28.3646205 ,Left ,62,1027553239331 ,46,0306659429265 ,85,9249499212632
28.3795169 ,Left ,62,0285988906403 ,46,1124461253793 ,85,9335714341692
28.4023842 ,Left ,62,0418716658468 ,46,1424884993161 ,85,9529775043592
28.4247488 ,Left ,62,1019615477061 ,46,1184189708522 ,85,9598773156562
28.439355 ,Left ,62,1243149467916 ,46,0460043033055 ,85,9488981271137
28.4694814 ,Left ,62,1055049035266 ,45,9567274292302 ,85,9210298574517
28.4919209 ,Left ,62,081132156136 ,45,8367688884894 ,85,9053082758865
28.5068114 ,Left ,62,0558919217578 ,45,7406381209638 ,85,8673794336619
28.5292591 ,Left ,62,0000900356798 ,45,681175307331 ,85,8230223323818
28.5443452 ,Left ,61,9542566376199 ,45,6320273773888 ,85,7602468626135
28.5596077 ,Left ,61,9854908540312 ,45,5578082373956 ,85,7072076913854
28.5818903 ,Left ,62,0044643075771 ,45,4546149969972 ,85,6734560100197
28.6044911 ,Left ,61,9447307104258 ,45,4106761684329 ,85,6616442465396
28.6195119 ,Left ,61,8646058866648 ,45,4060039609396 ,85,6495800124265
28.6417434 ,Left ,61,8759936611059 ,45,4451255103303 ,85,6629104867187
28.664353 ,Left ,61,961109607591 ,45,4974524181464 ,85,6974591835709
28.6793422 ,Left ,61,9697171618724 ,45,5712994840255 ,85,7323092852074
28.7019116 ,Left ,61,9453463433463 ,45,6008482245059 ,85,7629216850661
28.7244522 ,Left ,62,0053685736141 ,45,5912548280264 ,85,7692692163602
28.7468072 ,Left ,62,1373663378097 ,45,5649409342473 ,85,7398159838374
28.7693582 ,Left ,62,179592168217 ,45,5270746126466 ,85,7281756327102
28.7921038 ,Left ,62,2098957299 ,45,4996312051498 ,85,7340010302927
28.8073684 ,Left ,62,2579106001571 ,45,4748972902596 ,85,761195370493
28.8214627 ,Left ,62,2914422589629 ,45,457964186984 ,85,7821777731335
28.8443093 ,Left ,62,2702540882293 ,45,4520983649261 ,85,7865991767256
28.859229 ,Left ,62,2353980146925 ,45,44410227971 ,85,8080592595156
28.8815931 ,Left ,62,2688252998822 ,45,4261582297562 ,85,8387559285375
28.9040517 ,Left ,62,3232760903636 ,45,4017811461757 ,85,851125664861
28.9192299 ,Left ,62,288447742514 ,45,3518995106778 ,85,8472936424719
28.941514 ,Left ,62,2297880121279 ,45,3018787409529 ,85,8493772718884
28.9643503 ,Left ,62,2015081318658 ,45,278331300833 ,85,8474653921211
28.9791916 ,Left ,62,1864570399449 ,45,254226874699 ,85,8425943104935
29.002274 ,Left ,62,1583144824286 ,45,2147951379854 ,85,8235641218101
29.0321393 ,Left ,62,1894496691195 ,45,1930424797113 ,85,8059363901608
29.054689 ,Left ,62,1651507882869 ,45,17101377887 ,85,8116135614895
29.0695123 ,Left ,62,1163527743047 ,45,1867872984508 ,85,803093785182
29.0844554 ,Left ,62,1331429242153 ,45,1782453025219 ,85,799635620757
29.0996984 ,Left ,62,1710938365338 ,45,1587802300996 ,85,8052542643084
29.1223849 ,Left ,62,1658484003208 ,45,1364401032056 ,85,8217146440164
29.1446476 ,Left ,62,1276648934077 ,45,1393334183689 ,85,8363561333682
29.1670094 ,Left ,62,0908778407672 ,45,1584605671497 ,85,8548004466103
29.1818297 ,Left ,62,1302728244613 ,45,1808159651978 ,85,8527868110796
29.2043327 ,Left ,62,1540191427218 ,45,2001864353802 ,85,8398519842478
29.2265214 ,Left ,62,1379707089207 ,45,2123160716829 ,85,8407934901012
29.2415611 ,Left ,62,1271214891006 ,45,2299636536287 ,85,8391368352488
29.2642894 ,Left ,62,1497034141801 ,45,2452128191986 ,85,8298522286186
29.2867629 ,Left ,62,1573240175338 ,45,259914068172 ,85,8104115418741
29.3017703 ,Left ,62,1636396465342 ,45,2897395866472 ,85,7875885712049
29.3320072 ,Left ,62,1404227996691 ,45,3168870307994 ,85,7705710916912
29.3544039 ,Left ,62,1504788906286 ,45,3271915770728 ,85,7602047675029
29.3694174 ,Left ,62,1801840441042 ,45,3128994902876 ,85,7547472835596
29.3839642 ,Left ,62,206631293343 ,45,270404719056 ,85,7426797255607
29.406632 ,Left ,62,1817447886077 ,45,220061266815 ,85,7522869009673
29.4214345 ,Left ,62,1848125734175 ,45,1935498411776 ,85,7914602513472
29.4442706 ,Left ,62,200586566404 ,45,1985358744856 ,85,8535580682869
29.4668768 ,Left ,62,1158476129962 ,45,2541057978126 ,85,9174998126028
29.4819367 ,Left ,62,0899605907483 ,45,3556159222538 ,85,9619917777911
29.5040214 ,Left ,62,157458563577 ,45,4268692166832 ,85,9712472532158
29.526614 ,Left ,62,2314445492802 ,45,4415672345175 ,85,950076200496
29.5415986 ,Left ,62,305761820449 ,45,4297130705494 ,85,9019454012481
29.564123 ,Left ,62,2859309691268 ,45,3969556187149 ,85,860594429442
29.586527 ,Left ,62,3097122675496 ,45,3777683327151 ,85,792141024087
29.6015122 ,Left ,62,3457777614483 ,45,3395555352137 ,85,7099976873587
29.6317165 ,Left ,62,3916045522842 ,45,3004437376516 ,85,6355262841312
29.654299 ,Left ,62,4282410664029 ,45,2912244701948 ,85,5963280221777
29.6697765 ,Left ,62,4341669137174 ,45,2946507727014 ,85,6009270143045
29.6847018 ,Left ,62,4203763568668 ,45,2866627010754 ,85,6274238410234
29.7068764 ,Left ,62,4346343986379 ,45,2936422433204 ,85,659923553247
29.7220487 ,Left ,62,4413554815397 ,45,3214581856176 ,85,6999192572331
29.7445185 ,Left ,62,43950709456 ,45,3383108105645 ,85,7187765859963
29.7669295 ,Left ,62,4266485768624 ,45,3226549908617 ,85,7128826425376
29.7815771 ,Left ,62,4154856680882 ,45,3215622567203 ,85,6953183240314
29.8042984 ,Left ,62,4024663481935 ,45,311749675198 ,85,6862929806625
29.8266192 ,Left ,62,3971129326262 ,45,2931706970928 ,85,663231325135
29.8415724 ,Left ,62,3777881853581 ,45,2526915591144 ,85,6296403917614
29.8716503 ,Left ,62,4074700027729 ,45,2038386911338 ,85,583295324293
29.9016933 ,Left ,62,4582511365006 ,45,1593426182277 ,85,5367506163562
29.9170053 ,Left ,62,4597678753908 ,45,0871447407988 ,85,5145075911816
29.932041 ,Left ,62,4417287024165 ,45,0117274388121 ,85,4833288538397
29.9620997 ,Left ,62,3656215858129 ,44,989094095306 ,85,4087852564773
29.9843217 ,Left ,62,3157120951553 ,44,9726336121105 ,85,3921775742802
30.0070749 ,Left ,62,2511905086096 ,44,951936356468 ,85,4122359925034
30.0219865 ,Left ,62,1973610072319 ,44,9646389768657 ,85,449009487343
30.044447 ,Left ,62,1742343640757 ,44,9789057352045 ,85,4997872066044
30.0668945 ,Left ,62,1521138724432 ,45,0020815242856 ,85,5470929276466
30.0895325 ,Left ,62,1128175245474 ,45,0312118329649 ,85,5758603689359
30.1045837 ,Left ,62,1037810515076 ,45,0494989038501 ,85,5747537541096
30.1270704 ,Left ,62,0882615870565 ,45,0451935361369 ,85,5672764510519
30.1492488 ,Left ,62,1324265921573 ,45,0497714333286 ,85,524199776628
30.164447 ,Left ,62,1272966382884 ,45,0679978628067 ,85,4774731581446
30.1870127 ,Left ,62,1117039045008 ,45,0664882765704 ,85,4321201013355
30.2090854 ,Left ,62,1076245531353 ,45,0454900061721 ,85,4165709233306
30.2241616 ,Left ,62,0623626074477 ,45,0329374281511 ,85,4084565385106
30.2465418 ,Left ,61,9850260915753 ,45,0623991891517 ,85,414081115122
30.2692755 ,Left ,61,9371416400002 ,45,1005495428988 ,85,4328866578867
30.2843763 ,Left ,61,8938036393945 ,45,1428769129394 ,85,4745930224112
30.3066468 ,Left ,61,8599369693718 ,45,1966714006116 ,85,5309225641363
30.3294797 ,Left ,61,8074477818908 ,45,2698451587322 ,85,5837023602297
30.3444441 ,Left ,61,7987845057279 ,45,3353811949749 ,85,6371999395408
30.3669318 ,Left ,61,8540538842376 ,45,3766425770522 ,85,7027539983673
30.3893784 ,Left ,61,86768317377 ,45,4306495311423 ,85,7756657495168
30.4042968 ,Left ,61,8407697808135 ,45,517964212877 ,85,8028851143653
30.4346052 ,Left ,61,81592787863 ,45,5363898341457 ,85,8015371205576
30.4569382 ,Left ,61,8682736979949 ,45,4800437018016 ,85,8013379122801
30.4717815 ,Left ,61,8587329363802 ,45,4599012370881 ,85,798903991661
30.4945475 ,Left ,61,7777076341547 ,45,4895768689357 ,85,7840210950205
30.5092366 ,Left ,61,772406150572 ,45,4948614454925 ,85,804691469368
30.5244127 ,Left ,61,8130178576775 ,45,4638068860555 ,85,8360626214764
30.5467776 ,Left ,61,8463714927789 ,45,3879971885415 ,85,8696246553037
30.569367 ,Left ,61,8945224059523 ,45,2934017602346 ,85,8842581161786
30.5844213 ,Left ,61,931919913055 ,45,1904478400812 ,85,8731367507502
30.6068823 ,Left ,61,9670943887393 ,45,0887233979444 ,85,8180848875219
30.6293863 ,Left ,61,9662395670937 ,45,0204956917504 ,85,7821913874975
30.6516758 ,Left ,62,0692610023714 ,45,0573480991424 ,85,717237782735
30.6667507 ,Left ,62,1933443908874 ,45,1061378399779 ,85,659812091713
30.6894065 ,Left ,62,2262530157386 ,45,1617326671252 ,85,6240705202432
30.7195349 ,Left ,62,2418200604353 ,45,200479385436 ,85,6371717926296
30.7419815 ,Left ,62,2925358761622 ,45,2470638708239 ,85,6649042293828
30.7643027 ,Left ,62,3271357373666 ,45,3303671653761 ,85,6711873732748
30.7792206 ,Left ,62,3012552122222 ,45,4468275555919 ,85,6662896277063
30.794329 ,Left ,62,3045793947306 ,45,5455698644152 ,85,6650370589231
30.8090795 ,Left ,62,3539512766875 ,45,6066758200339 ,85,6768418073323
30.8241798 ,Left ,62,3458716427459 ,45,6891984438222 ,85,6727504761968
30.8467299 ,Left ,62,2457185451756 ,45,764711743984 ,85,6691680086617
30.8694254 ,Left ,62,1544054811375 ,45,8040296447527 ,85,6620429237613
30.8917613 ,Left ,62,1302468341533 ,45,7786263475968 ,85,6697241035717
30.9068776 ,Left ,62,1543357978954 ,45,7605100565359 ,85,6833159285487
30.9292821 ,Left ,62,0988421546556 ,45,8021504150845 ,85,7148317912752
30.9518358 ,Left ,61,985313603748 ,45,9035220750982 ,85,7425136754129
30.9667812 ,Left ,61,9231971214082 ,45,9871276031811 ,85,775190926106
30.9892091 ,Left ,61,9748555524954 ,46,0027734406573 ,85,795856310878
31.0117417 ,Left ,62,0035769840033 ,45,9666846319409 ,85,8051685367651
31.0265289 ,Left ,62,0039627302383 ,45,8671580068076 ,85,816769481249
31.0492414 ,Left ,62,0017729108737 ,45,7139592309933 ,85,8133615392827
31.0715552 ,Left ,61,9675702489021 ,45,5903150614034 ,85,8086545465355
31.0865817 ,Left ,61,8972371378975 ,45,5343202361318 ,85,7986031168368
31.1091211 ,Left ,61,8800401788904 ,45,4965734202469 ,85,7669638451954
31.1317716 ,Left ,61,9219578905385 ,45,4369263894135 ,85,7265533903914
31.1466898 ,Left ,61,9324364439478 ,45,3913036334065 ,85,7037216004407
31.1694328 ,Left ,61,9042985463537 ,45,3293910345674 ,85,6935056217131
31.191906 ,Left ,61,8553240704852 ,45,2725322830568 ,85,6841246103629
31.2069272 ,Left ,61,8157338302196 ,45,2740450625316 ,85,6707938217359
31.2292203 ,Left ,61,781182285946 ,45,2624808972376 ,85,6895284797797
31.2594389 ,Left ,61,8314443151741 ,45,3305654861887 ,85,7544200091907
31.2818491 ,Left ,61,8059207974484 ,45,3863228530623 ,85,7850721127607
31.3189516 ,Left ,61,9239034492928 ,45,3982060221225 ,85,8092941661334
31.3417591 ,Left ,61,9789856556169 ,45,377176744646 ,85,8211274902928
31.3792824 ,Left ,62,0478547722791 ,45,3538988400308 ,85,8497786646595
31.4020251 ,Left ,62,1043532253917 ,45,3333890922417 ,85,8610431311921
31.4390009 ,Left ,62,1333038071863 ,45,2613348077566 ,85,8897150953094
31.4615596 ,Left ,62,0968528984504 ,45,2295374500912 ,85,9020420702815
31.4993333 ,Left ,62,1517266096994 ,45,1626526897298 ,85,9192186586661
31.5218761 ,Left ,62,1686066371407 ,45,1111780206267 ,85,9069418154796
31.5597157 ,Left ,62,1353774560194 ,45,0862491007491 ,85,9103944358108
31.581936 ,Left ,62,100983784823 ,45,0910191074959 ,85,9174489315526
31.6195767 ,Left ,62,1138056447387 ,45,0483177178389 ,85,9097665008913
31.6417659 ,Left ,62,1353798450766 ,45,0210353366851 ,85,9102862583497
31.6790983 ,Left ,62,0321845122647 ,45,0364944632868 ,85,9283509259699
31.7016941 ,Left ,62,0489505930842 ,45,0379414250757 ,85,9453105618646
31.7391547 ,Left ,62,0384795499305 ,45,0381670496168 ,85,9892708753176
31.7619544 ,Left ,62,0129724893599 ,45,0528026621543 ,86,0071580548359
31.7992294 ,Left ,62,040783226645 ,45,0950220966849 ,86,0022998938466
31.8217073 ,Left ,62,0487512170065 ,45,1161226607799 ,85,9996442057637
31.85912 ,Left ,62,0528897723494 ,45,1819031032906 ,85,9953449235009
31.8817278 ,Left ,62,0585659328222 ,45,211740486071 ,85,9924510976547
31.9199233 ,Left ,62,0869279299622 ,45,2999273846353 ,86,0018589156727
31.9424181 ,Left ,62,1040577890311 ,45,3440870758924 ,86,0064710845436
31.9795488 ,Left ,62,1026421164165 ,45,4234844639162 ,86,018500854101
32.0021548 ,Left ,62,1170391770802 ,45,4394052815183 ,86,01080326271
32.0395797 ,Left ,62,1370570485511 ,45,4091889433044 ,86,0115872394367
32.0621181 ,Left ,62,1758900818078 ,45,3719616979938 ,85,9997974406753
32.1070414 ,Left ,62,1619022544493 ,45,343305756535 ,86,0380808463907
32.1595021 ,Left ,62,1135543719342 ,45,4481341511045 ,86,1213405019267
32.1818896 ,Left ,62,1420475077337 ,45,4934203714821 ,86,1289222098065
32.2194574 ,Left ,62,3090066404818 ,45,4648967155115 ,86,1018375461958
32.241992 ,Left ,62,2774444984159 ,45,4052518772127 ,86,0624217924943
32.2794256 ,Left ,62,293341511354 ,45,30290458679 ,85,9669769347322
32.30185 ,Left ,62,330696247711 ,45,265977554073 ,85,889184350691
32.3393369 ,Left ,62,332759266249 ,45,1819531674847 ,85,7564718973808
32.3695241 ,Left ,62,2776093830947 ,45,1457622760089 ,85,7007144643209
32.4219863 ,Left ,62,3077655676165 ,45,0563780705945 ,85,7230362933499
32.4594449 ,Left ,62,2186936821167 ,45,1156437551977 ,85,7927827296773
32.481922 ,Left ,62,2178936452832 ,45,1727131917416 ,85,7806874269016
32.5191658 ,Left ,62,2813937134258 ,45,2108116640027 ,85,7563437230832
32.5422367 ,Left ,62,2544777098382 ,45,2125032970171 ,85,7245773291498
32.5799655 ,Left ,62,301057810677 ,45,19980357358 ,85,7425027446051
32.6021747 ,Left ,62,3212155138938 ,45,1776703269603 ,85,8037134404942
32.6394366 ,Left ,62,1712234457968 ,45,2812001280227 ,85,8859614916041
32.6617948 ,Left ,62,1853566149538 ,45,3494300545359 ,85,8875018685635
32.6993445 ,Left ,62,1910557175143 ,45,4854733435319 ,85,8844278093549
32.721864 ,Left ,62,1628978364099 ,45,5367087015755 ,85,8962295862248
32.7594791 ,Left ,62,1623208607256 ,45,6281316038833 ,85,9440686436743
32.7817304 ,Left ,62,2002270553127 ,45,6656642952574 ,85,9726807080264
32.8194963 ,Left ,62,2595041033509 ,45,5938300751039 ,86,0170332718451
32.8419663 ,Left ,62,1669060807239 ,45,629919186598 ,86,0485997947642
32.872014 ,Left ,62,0467129893652 ,45,7001226220104 ,86,0649938088972
32.9093621 ,Left ,62,1031407524717 ,45,6487580565861 ,86,1030098432302
32.9470223 ,Left ,62,073714390193 ,45,4041326383347 ,86,1592642642945
32.9621271 ,Left ,62,0697036158396 ,45,2994268916583 ,86,1379677981719
32.9995027 ,Left ,62,168189782132 ,45,027769558052 ,86,0458490408364
33.0219483 ,Left ,62,1525160615146 ,44,9597377936249 ,85,9918492335372
33.0595894 ,Left ,62,2355333831884 ,44,8829511042942 ,85,9282632910515
33.0820839 ,Left ,62,2668892373177 ,44,8511851940215 ,85,9177799229393
33.0970975 ,Left ,62,2646537831458 ,44,8552347061032 ,85,9173779745065
33.1120107 ,Left ,62,2411316997776 ,44,9361627946648 ,85,9283929610229
33.1344342 ,Left ,62,2609977259266 ,45,0549384978039 ,85,9171909684489
33.1568009 ,Left ,62,2555970481753 ,45,1665657374728 ,85,916614063001
33.1721459 ,Left ,62,281687413617 ,45,2696669464332 ,85,9370953256716
33.2020554 ,Left ,62,3043072512576 ,45,3663653661496 ,85,9504542606569
33.224522 ,Left ,62,3048541991547 ,45,4584824705155 ,85,9497724387567
33.2393593 ,Left ,62,2998855308647 ,45,5543965487304 ,85,9243319417316
33.2546294 ,Left ,62,2922743024722 ,45,6626019220162 ,85,8811129410103
33.2771153 ,Left ,62,2944688180172 ,45,7387499675083 ,85,8589405968369
33.292008 ,Left ,62,3305994163193 ,45,7528015665597 ,85,8428477924679
33.3146971 ,Left ,62,3248103199049 ,45,7230895467332 ,85,8448746487523
33.3371086 ,Left ,62,2491976936209 ,45,7677129046389 ,85,8232327525861
33.3519465 ,Left ,62,1927628597824 ,45,8199496012339 ,85,8100081478156
33.3744684 ,Left ,62,1749166884392 ,45,8675171284809 ,85,8028131099488
33.397055 ,Left ,62,1919218081363 ,45,8916455022199 ,85,8099458376853
33.4117269 ,Left ,62,1817454359211 ,45,9101159205513 ,85,8199855832499
33.4341287 ,Left ,62,1451021129396 ,45,8900745459076 ,85,8316316386164
33.4643652 ,Left ,62,157191704755 ,45,8405836422398 ,85,8234786364134
33.4792613 ,Left ,62,165857258244 ,45,7703051668866 ,85,7945605430641
33.5093936 ,Left ,62,1543389215804 ,45,6685749547702 ,85,7821429578953
33.5392648 ,Left ,62,113356934993 ,45,5536229468818 ,85,7282491127965
33.5617518 ,Left ,62,0730487562862 ,45,5005830080446 ,85,6977037380366
33.576619 ,Left ,62,0904370651958 ,45,4435651933136 ,85,6534799566246
33.5915877 ,Left ,62,1171343326465 ,45,3692737101764 ,85,6219132732127
33.6141704 ,Left ,62,0216753434364 ,45,3027502836082 ,85,6087179767357
33.6369178 ,Left ,61,9545073018153 ,45,2720362395466 ,85,6050495738831
33.6592148 ,Left ,61,956436556241 ,45,2181464297751 ,85,6170509887089
33.6747094 ,Left ,61,9785491241493 ,45,2328141869749 ,85,6385278659123
33.6971258 ,Left ,61,9166176025528 ,45,3083646437469 ,85,6493926032719
33.7194777 ,Left ,61,8931039957462 ,45,376389353007 ,85,6604431685878
33.7342711 ,Left ,61,9686000678293 ,45,3984284614595 ,85,6719234500241
33.7569364 ,Left ,62,0363079539983 ,45,3813106691589 ,85,6818466796518
33.7719188 ,Left ,62,0629034075354 ,45,340861411795 ,85,6930398700933
33.7944884 ,Left ,62,1006374857995 ,45,3104949985517 ,85,7028576970609
33.8167684 ,Left ,62,1302104605117 ,45,2896991726291 ,85,7166018762313
33.8318036 ,Left ,62,184029442505 ,45,282071395903 ,85,7223119910266
33.8542155 ,Left ,62,2393980223291 ,45,2656693487184 ,85,7342761873999
33.8768694 ,Left ,62,255631092638 ,45,2544495512253 ,85,7662974531332
33.8992374 ,Left ,62,2580351937603 ,45,2322408165012 ,85,7916317051313
33.914352 ,Left ,62,2851749993166 ,45,2079212945117 ,85,7976993773352
33.936492 ,Left ,62,3065864147023 ,45,1822998886303 ,85,7861470763616
33.9591035 ,Left ,62,2854249085287 ,45,1528806821704 ,85,7747712922353
33.9742199 ,Left ,62,2588281362316 ,45,1350847760419 ,85,7649879081013
33.9967117 ,Left ,62,2475877660323 ,45,1363037017436 ,85,768551281724
34.0193324 ,Left ,62,2273450367653 ,45,1290363399236 ,85,7856831989078
34.0342318 ,Left ,62,246578723229 ,45,0791797507667 ,85,806825647977
34.0565803 ,Left ,62,2872381830335 ,45,067484005995 ,85,8138794843342
34.0798225 ,Left ,62,227546179735 ,45,0915404376553 ,85,8249334712934
34.0946188 ,Left ,62,1687952922133 ,45,1246433074119 ,85,8388588486566
34.1168346 ,Left ,62,211462276881 ,45,1427426423881 ,85,8463698868762
34.1395298 ,Left ,62,2482546895262 ,45,1516955937089 ,85,8590677789274
34.1546431 ,Left ,62,2152743041324 ,45,1567385533995 ,85,8739612724812
34.176666 ,Left ,62,1621826386271 ,45,1702990567139 ,85,8955166695575
34.1995176 ,Left ,62,169196866156 ,45,1993504194689 ,85,904083494635
34.2146019 ,Left ,62,2017978805727 ,45,2431336415321 ,85,9013347868773
34.2368921 ,Left ,62,2072075937371 ,45,2867323759022 ,85,9076693337738
34.2594747 ,Left ,62,1863229605945 ,45,3155984022501 ,85,9241459058483
34.2740008 ,Left ,62,1815974889525 ,45,3423028668548 ,85,9388509986107
34.2967139 ,Left ,62,181986826713 ,45,3814823160657 ,85,9444757374621
34.3192184 ,Left ,62,1877003585804 ,45,4101428302974 ,85,9452601893119
34.3342866 ,Left ,62,1781815428386 ,45,4420854277937 ,85,9455961055938
34.3568132 ,Left ,62,1929018838539 ,45,4746045009119 ,85,9392643487723
34.3792625 ,Left ,62,1916218318363 ,45,4763304528777 ,85,9396216369501
34.3943102 ,Left ,62,1965340621959 ,45,4662254870678 ,85,9261310435478
34.4170719 ,Left ,62,2197609682032 ,45,4465414130198 ,85,9142427558108
34.4398456 ,Left ,62,2096907301382 ,45,4167427641301 ,85,9044150471477
34.454746 ,Left ,62,191432103941 ,45,3910953935559 ,85,8860678773648
34.4769788 ,Left ,62,2155530774892 ,45,3468308283717 ,85,9045946884753
34.4995179 ,Left ,62,24313597857 ,45,3308254946677 ,85,9361957589772
34.5145162 ,Left ,62,1696632043328 ,45,3414722299291 ,85,9756922954398
34.5369634 ,Left ,62,1209890160248 ,45,3999011399505 ,86,0047502494356
34.5592429 ,Left ,62,1427393036241 ,45,4393150385891 ,86,0217978149875
34.5750035 ,Left ,62,2057172295741 ,45,4575767686638 ,86,0322853436661
34.5973976 ,Left ,62,228731274001 ,45,4585364735457 ,86,0229051026758
34.6196179 ,Left ,62,2750992425161 ,45,4509011223557 ,85,997505093853
34.6345798 ,Left ,62,2728188177872 ,45,4241658088932 ,85,967599980424
34.6568947 ,Left ,62,3050594658723 ,45,4003455087676 ,85,9369429348278
34.6793596 ,Left ,62,3496489829297 ,45,3705793495258 ,85,8967528104667
34.6946132 ,Left ,62,3642985274944 ,45,3264288375192 ,85,8680162001826
34.7168943 ,Left ,62,344712341581 ,45,2824144683568 ,85,8522180174224
34.7392369 ,Left ,62,3559921487991 ,45,259854528733 ,85,8195204734553
34.7545712 ,Left ,62,3669561742304 ,45,2378845149396 ,85,7845769415044
34.7768253 ,Left ,62,328377198833 ,45,2111580653239 ,85,7507507679155
34.7992602 ,Left ,62,2851615616885 ,45,1950248247477 ,85,7081549139312
34.8220062 ,Left ,62,2427825051127 ,45,1643444289457 ,85,6803216700827
34.8368997 ,Left ,62,2203474523544 ,45,1489936772073 ,85,6682597308129
34.8668278 ,Left ,62,2409610123873 ,45,1220742677703 ,85,6951452277785
34.8967568 ,Left ,62,2674131294358 ,45,1196383099356 ,85,7429025214
34.9116138 ,Left ,62,1762692189771 ,45,1588465984376 ,85,7759102777408
34.9268136 ,Left ,62,1204699960431 ,45,206103229562 ,85,7868976937808
34.9566761 ,Left ,62,2143829745092 ,45,2635997984839 ,85,7582572203931
34.9793775 ,Left ,62,1990890481785 ,45,2511542130098 ,85,7469566132139
35.0018771 ,Left ,62,1779755925064 ,45,2552403863032 ,85,7294650550883
35.0168668 ,Left ,62,1843156352388 ,45,264896780856 ,85,7020478257635
35.0393239 ,Left ,62,2275655369176 ,45,2744898725861 ,85,6934984923077
35.0616809 ,Left ,62,2351085491307 ,45,2723801222133 ,85,730496253597
35.0767322 ,Left ,62,1593843898841 ,45,2975747285204 ,85,7804553192832
35.0992337 ,Left ,62,0981327963194 ,45,3705995255364 ,85,8144997567363
35.1217342 ,Left ,62,1063205103272 ,45,4345040067608 ,85,8425139015065
35.1368097 ,Left ,62,1047872331843 ,45,4786339842038 ,85,8593902046523
35.1594994 ,Left ,62,0508400777582 ,45,5145978379967 ,85,8832946798655
35.1818228 ,Left ,62,0070648266158 ,45,5811044387605 ,85,8865358607169
35.1970433 ,Left ,62,0495663233781 ,45,6254683579565 ,85,8875386787819
35.2194217 ,Left ,62,0634189097558 ,45,6764126340794 ,85,889297796688
35.2416782 ,Left ,62,0821907899241 ,45,7460295209832 ,85,8988221648985
35.2569488 ,Left ,62,0620429303145 ,45,7539373145491 ,85,9062757699944
35.279439 ,Left ,62,0960951359955 ,45,7069477792277 ,85,9044230806979
35.3018625 ,Left ,62,0756807223612 ,45,6900212597705 ,85,9069926248647
35.3167595 ,Left ,61,9884489778614 ,45,7105210271684 ,85,9122528324455
35.3394785 ,Left ,61,954866217091 ,45,720513012277 ,85,9177757572404
35.3615791 ,Left ,61,9905257839763 ,45,6855988851165 ,85,9389029205589
35.3774173 ,Left ,62,0298551074299 ,45,5965680406395 ,85,9616566864548
35.4074644 ,Left ,62,0514640819462 ,45,4721304298327 ,85,9809894582901
35.4298902 ,Left ,62,0354572431934 ,45,3568852495412 ,85,9679133762355
35.4523289 ,Left ,62,095637269551 ,45,209796284928 ,85,9375978888482
35.4669955 ,Left ,62,1422399044292 ,45,0782972874878 ,85,9282662895617
35.4819616 ,Left ,62,1627472802015 ,45,0255395832162 ,85,9097919398265
35.5045459 ,Left ,62,2065199543506 ,45,0133884017349 ,85,871766475088
35.519303 ,Left ,62,2523039159568 ,45,0233711956923 ,85,8354775993064
35.5416099 ,Left ,62,2702524208473 ,45,060577488719 ,85,8128333221668
35.5643784 ,Left ,62,3054246147605 ,45,1187892728425 ,85,807178720524
35.5791323 ,Left ,62,3341511411487 ,45,2145021456043 ,85,8044294553463
35.6018399 ,Left ,62,3243281520487 ,45,3282727975099 ,85,8134746578301
35.6170022 ,Left ,62,3189355931958 ,45,4400623196701 ,85,8330672047485
35.6395022 ,Left ,62,357617992461 ,45,5358313181062 ,85,848571036328
35.6617898 ,Left ,62,3525262174594 ,45,6376804098202 ,85,8545438869043
35.6844569 ,Left ,62,322172623776 ,45,7467251411281 ,85,8292602002752
35.6995076 ,Left ,62,244620357694 ,45,8207051258612 ,85,79006423413
35.7219517 ,Left ,62,2563997422011 ,45,840707494578 ,85,7613176375174
35.7443579 ,Left ,62,2586868534014 ,45,8159078165708 ,85,7525935335116
35.7590338 ,Left ,62,2015847641429 ,45,8300821368832 ,85,7299985944177
35.7824505 ,Left ,62,1204685915041 ,45,8452828538873 ,85,7358574898131
35.8045573 ,Left ,62,1207705335741 ,45,8993049378033 ,85,7328515700635
35.8193237 ,Left ,62,1310696371611 ,45,9641627147271 ,85,7389247001213
35.8414127 ,Left ,62,1303999415639 ,45,9975964318377 ,85,7592219551616
35.8641418 ,Left ,62,1388473891708 ,46,0048836881313 ,85,7694855095041
35.8791267 ,Left ,62,1310970638124 ,45,9676200962845 ,85,7772908544625
35.9017125 ,Left ,62,1399795344703 ,45,9140953238501 ,85,7560503350303
35.9242005 ,Left ,62,1708412184976 ,45,8191668071367 ,85,7432830910173
35.9391087 ,Left ,62,1574684648249 ,45,7435957685037 ,85,7222556717271
35.9691883 ,Left ,62,114019634782 ,45,684422530613 ,85,7059557239923
35.9992282 ,Left ,62,0585931826989 ,45,6253426893646 ,85,6806495130945
36.0140972 ,Left ,62,0830554683222 ,45,554135022921 ,85,6382526426763
36.0293953 ,Left ,62,1352816757166 ,45,4685057237212 ,85,6025756386961
36.0442544 ,Left ,62,114641793488 ,45,3780549659096 ,85,5855467336081
36.0593847 ,Left ,62,0595285136269 ,45,3035861180537 ,85,5764586689689
36.081653 ,Left ,62,040619765224 ,45,2891865565247 ,85,5728780907071
36.1042862 ,Left ,62,026091563998 ,45,2947144869078 ,85,5733988821435
36.1192746 ,Left ,62,0427549867749 ,45,335557449648 ,85,6106442503944
36.1418374 ,Left ,62,0372820382268 ,45,4055894503094 ,85,6468081666991
36.164192 ,Left ,62,0472530217543 ,45,4511612872584 ,85,6821127493033
36.1794011 ,Left ,62,0870688309344 ,45,4618676275063 ,85,6947637550498
36.2016761 ,Left ,62,157231371304 ,45,4403975729348 ,85,6990047950145
36.2243605 ,Left ,62,2256619888034 ,45,4057121586546 ,85,6967531489922
36.2396165 ,Left ,62,2446149431712 ,45,3753089911407 ,85,7107093020539
36.2619746 ,Left ,62,2640196361087 ,45,3712679289219 ,85,7117321221634
36.2845603 ,Left ,62,3237007234127 ,45,3538049857927 ,85,7181164472128
36.2995043 ,Left ,62,3876239295238 ,45,3275399287033 ,85,7199917524772
36.3216874 ,Left ,62,3973087096062 ,45,2947630782348 ,85,7355034115472
36.3441437 ,Left ,62,3477415587421 ,45,2753018550376 ,85,7648029077916
36.3590965 ,Left ,62,3313724554438 ,45,2641234573127 ,85,783701787609
36.3815527 ,Left ,62,3645295460234 ,45,2443324948923 ,85,7910167529407
36.4047995 ,Left ,62,360218908324 ,45,1929954072415 ,85,7797465365203
36.4198321 ,Left ,62,3459476687333 ,45,1322256623126 ,85,7763484678499
36.442163 ,Left ,62,3075522329919 ,45,1073717749885 ,85,7724396383914
36.4642404 ,Left ,62,2669817610507 ,45,0965285792018 ,85,7673976841042
36.4868632 ,Left ,62,2161218178427 ,45,0945942603164 ,85,7658830528758
36.501894 ,Left ,62,2075750305552 ,45,088946302701 ,85,7716893788255
36.5241464 ,Left ,62,2353402696921 ,45,0727114761721 ,85,7903318214624
36.5467452 ,Left ,62,2057187872374 ,45,0844152039408 ,85,804134540595
36.5692207 ,Left ,62,1579313285556 ,45,1098268644872 ,85,8188388004361
36.5992434 ,Left ,62,2074664538069 ,45,1345599189239 ,85,8369504240612
36.6218216 ,Left ,62,1919327885369 ,45,143642496913 ,85,8547596115276
36.6441816 ,Left ,62,165283325926 ,45,1639969640074 ,85,8752509843518
36.659305 ,Left ,62,1693224784887 ,45,1991856238709 ,85,8762951755941
36.6814919 ,Left ,62,2065558775697 ,45,2300497875203 ,85,8678344833127
36.7045869 ,Left ,62,2173788626417 ,45,2495607437794 ,85,8667050020621
36.727404 ,Left ,62,2132362879489 ,45,2798306445022 ,85,878931291906
36.7422046 ,Left ,62,2103974600374 ,45,3140378802975 ,85,8812246627034
36.7645016 ,Left ,62,2242657783377 ,45,3317638185506 ,85,8750374484179
36.794439 ,Left ,62,2164655319222 ,45,3600867858336 ,85,8671617380711
36.8168892 ,Left ,62,2030257702343 ,45,3958963345424 ,85,8655448593483
36.8392312 ,Left ,62,2110177756518 ,45,4282593853959 ,85,8655350046138
36.8691815 ,Left ,62,2291736803527 ,45,4063302729317 ,85,8468612119406
36.884063 ,Left ,62,217690689819 ,45,3740675813706 ,85,8350597855565
36.9066521 ,Left ,62,1950592867001 ,45,337376566599 ,85,8150400825693
36.9218786 ,Left ,62,195257066526 ,45,3000222026019 ,85,8327143539973
36.9366556 ,Left ,62,1922338474317 ,45,2849645653516 ,85,8729890857478
36.9741955 ,Left ,62,1373404987587 ,45,3560664799679 ,85,9703789925791
36.9968523 ,Left ,62,1281744673942 ,45,4166346743762 ,86,0209974527436
37.0345039 ,Left ,62,256252334117 ,45,4803696907189 ,86,0626790959036
37.0569671 ,Left ,62,310519293784 ,45,4815838247936 ,86,049045852815
37.0944593 ,Left ,62,3514403468208 ,45,4025338971543 ,85,9802339490795
37.1168947 ,Left ,62,3840662927692 ,45,376058773763 ,85,9299560511169
37.15432 ,Left ,62,3941753859525 ,45,2963259098817 ,85,8174434374851
37.1767491 ,Left ,62,3773953328813 ,45,2714156824513 ,85,7499617217122
37.2141006 ,Left ,62,3169411142441 ,45,2103132889648 ,85,6049738168912
37.2367106 ,Left ,62,3112622523698 ,45,1726282038093 ,85,5586677592266
37.2745913 ,Left ,62,3292161041615 ,45,0821438366192 ,85,6323071142496
37.2966537 ,Left ,62,2780023471252 ,45,1065425610701 ,85,6738158948446
37.3342058 ,Left ,62,2665513255365 ,45,1913221328527 ,85,7025494850523
37.3571562 ,Left ,62,3226164119946 ,45,2111800412428 ,85,6942625488008
37.3945148 ,Left ,62,2418213854845 ,45,2113814246484 ,85,6692610931588
37.4167583 ,Left ,62,2513673063155 ,45,2370715735216 ,85,6346882321541
37.4543416 ,Left ,62,3609691281231 ,45,2039018964216 ,85,6860841485187
37.476925 ,Left ,62,2656451291028 ,45,2448474150879 ,85,7362538707537
37.5144889 ,Left ,62,1810271434673 ,45,3916608439038 ,85,7799082011719
37.5369713 ,Left ,62,20764688024 ,45,4264073853737 ,85,7825881578575
37.5744669 ,Left ,62,1305969026855 ,45,5201988436793 ,85,7774536300893
37.5970241 ,Left ,62,1579416570124 ,45,5347779459306 ,85,7766520745785
37.634385 ,Left ,62,1779628738221 ,45,6345245079204 ,85,7571713916223
37.6573204 ,Left ,62,1933863142895 ,45,6053722373815 ,85,777279651953
37.6946618 ,Left ,62,1521781056334 ,45,5863087638821 ,85,8365877316926
37.7169541 ,Left ,62,0433269495346 ,45,6377447085681 ,85,8576607480594
37.7546498 ,Left ,62,1056021042213 ,45,5923776453835 ,85,9354094531155
37.7771556 ,Left ,62,1575240404056 ,45,5018136098525 ,85,9700748995626
37.814808 ,Left ,62,1054026103797 ,45,2899183501187 ,85,9906164953372
37.8369359 ,Left ,62,1659494978814 ,45,1472362850016 ,85,9753165474919
37.8745224 ,Left ,62,2397423662183 ,44,9861154347089 ,85,936490520856
37.8971608 ,Left ,62,2497369008782 ,44,947506821935 ,85,9128041242637
37.9345105 ,Left ,62,3388201622048 ,44,9271212430602 ,85,8695241550114
37.9570653 ,Left ,62,3574105983165 ,44,997930984251 ,85,8631327363896
37.9947323 ,Left ,62,3776728261942 ,45,2313584092166 ,85,8653449082474
38.0170583 ,Left ,62,4230596671193 ,45,3550482314128 ,85,8648989003719
38.0546596 ,Left ,62,4653305030673 ,45,557629621445 ,85,8769356783359
38.0771731 ,Left ,62,4561319184071 ,45,6635338376078 ,85,8599718669496
38.1146852 ,Left ,62,4638909880891 ,45,7868733682933 ,85,7879168578273
38.1369738 ,Left ,62,4683966997436 ,45,8028886032947 ,85,7488004996218
38.1822319 ,Left ,62,3559758041029 ,45,8501133823054 ,85,708396970804
38.2046466 ,Left ,62,2861123282268 ,45,8926847711369 ,85,6986694910185
38.2569748 ,Left ,62,2966646979042 ,45,9595170838378 ,85,7134395379461
38.2946937 ,Left ,62,2414455870621 ,45,8668257529288 ,85,7367937673371
