timestamp,event,roll,pitch,yaw
0.0178045 ,Left ,62,3270682827408 ,48,5037093899137 ,85,6896058665365
0.017807 ,Left ,62,3270682827408 ,48,5037093899137 ,85,6896058665365
0.034418 ,Left ,62,3116328959237 ,48,5029185265065 ,85,6972085659116
0.0344197 ,Left ,62,3116328959237 ,48,5029185265065 ,85,6972085659116
0.0568614 ,Left ,62,3124704370324 ,48,5036655590267 ,85,7024743202939
0.0568634 ,Left ,62,3124704370324 ,48,5036655590267 ,85,7024743202939
0.0717971 ,Left ,62,324243586005 ,48,501419091713 ,85,7038367718429
0.071799 ,Left ,62,324243586005 ,48,501419091713 ,85,7038367718429
0.0942777 ,Left ,62,3288669400869 ,48,5000299378593 ,85,7069577927368
0.0942794 ,Left ,62,3288669400869 ,48,5000299378593 ,85,7069577927368
0.1168667 ,Left ,62,3149405551107 ,48,4941962716434 ,85,7116398164889
0.1168691 ,Left ,62,3149405551107 ,48,4941962716434 ,85,7116398164889
0.1318652 ,Left ,62,3128920826949 ,48,4934443134371 ,85,7109084034855
0.1318674 ,Left ,62,3128920826949 ,48,4934443134371 ,85,7109084034855
0.154338 ,Left ,62,3128920826949 ,48,4934443134371 ,85,7109084034855
0.1543398 ,Left ,62,3128920826949 ,48,4934443134371 ,85,7109084034855
0.1770457 ,Left ,62,3192793275191 ,48,4921812352256 ,85,7157833351905
0.1770479 ,Left ,62,3192793275191 ,48,4921812352256 ,85,7157833351905
0.1919344 ,Left ,62,3230938819563 ,48,4930583871174 ,85,7182703880021
0.191937 ,Left ,62,3230938819563 ,48,4930583871174 ,85,7182703880021
0.2143955 ,Left ,62,3230938819563 ,48,4930583871174 ,85,7182703880021
0.2143972 ,Left ,62,3230938819563 ,48,4930583871174 ,85,7182703880021
0.2196795 ,Left ,62,3210448547499 ,48,4923069002611 ,85,7175387453325
0.2196811 ,Left ,62,3210448547499 ,48,4923069002611 ,85,7175387453325
0.2421609 ,Left ,62,3285106782861 ,48,4950827037102 ,85,7193924375384
0.242163 ,Left ,62,3285106782861 ,48,4950827037102 ,85,7193924375384
0.2588641 ,Left ,62,3400160530793 ,48,4933398513698 ,85,7134425201344
0.2588665 ,Left ,62,3400160530793 ,48,4933398513698 ,85,7134425201344
0.2802415 ,Left ,62,3427229110756 ,48,4939862763677 ,85,7033507253321
0.2802489 ,Left ,62,3427229110756 ,48,4939862763677 ,85,7033507253321
0.302773 ,Left ,62,3390096702572 ,48,5004430047823 ,85,6940905957184
0.3027806 ,Left ,62,3390096702572 ,48,5004430047823 ,85,6940905957184
0.3178975 ,Left ,62,3450659907393 ,48,5080503779803 ,85,6817711779139
0.3179053 ,Left ,62,3450659907393 ,48,5080503779803 ,85,6817711779139
0.340187 ,Left ,62,3532679692712 ,48,5237517814362 ,85,6634392130302
0.3401945 ,Left ,62,3532679692712 ,48,5237517814362 ,85,6634392130302
0.3626194 ,Left ,62,3525196975009 ,48,5458622179943 ,85,6425091395595
0.3626272 ,Left ,62,3525196975009 ,48,5458622179943 ,85,6425091395595
0.3789606 ,Left ,62,3361352885999 ,48,5651517562254 ,85,6214014183738
0.378966 ,Left ,62,3361352885999 ,48,5651517562254 ,85,6214014183738
0.3997721 ,Left ,62,3064969595984 ,48,5946842331032 ,85,6064781151671
0.3997753 ,Left ,62,3064969595984 ,48,5946842331032 ,85,6064781151671
0.422165 ,Left ,62,2928465977152 ,48,6251457200682 ,85,5902863180568
0.4221668 ,Left ,62,2928465977152 ,48,6251457200682 ,85,5902863180568
0.4372272 ,Left ,62,2894648104654 ,48,6451896160952 ,85,5706995803964
0.4372292 ,Left ,62,2894648104654 ,48,6451896160952 ,85,5706995803964
0.4599145 ,Left ,62,2690782603261 ,48,654532786063 ,85,5579780489733
0.4599165 ,Left ,62,2690782603261 ,48,654532786063 ,85,5579780489733
0.4821874 ,Left ,62,2156626431223 ,48,6505533469593 ,85,5575436998893
0.4821894 ,Left ,62,2156626431223 ,48,6505533469593 ,85,5575436998893
0.4971825 ,Left ,62,1488854824394 ,48,6218164838897 ,85,5682940770092
0.4971844 ,Left ,62,1488854824394 ,48,6218164838897 ,85,5682940770092
0.5198706 ,Left ,62,105856688912 ,48,5513751268073 ,85,5761941385963
0.5198735 ,Left ,62,105856688912 ,48,5513751268073 ,85,5761941385963
0.542096 ,Left ,62,0486032178691 ,48,4271117797004 ,85,5848654871037
0.5420979 ,Left ,62,0486032178691 ,48,4271117797004 ,85,5848654871037
0.5585225 ,Left ,62,0078081697552 ,48,2879632966583 ,85,5849846478952
0.5585243 ,Left ,62,0078081697552 ,48,2879632966583 ,85,5849846478952
0.579939 ,Left ,61,9638669782005 ,48,1767962922291 ,85,5880347912632
0.5799412 ,Left ,61,9638669782005 ,48,1767962922291 ,85,5880347912632
0.6023957 ,Left ,61,9461993947122 ,48,1436944180695 ,85,5981372688779
0.6023979 ,Left ,61,9461993947122 ,48,1436944180695 ,85,5981372688779
0.6187007 ,Left ,61,9304081888089 ,48,1906769209365 ,85,5845480908029
0.6187032 ,Left ,61,9304081888089 ,48,1906769209365 ,85,5845480908029
0.6397087 ,Left ,61,9014895787369 ,48,256712543208 ,85,5470116134192
0.6397105 ,Left ,61,9014895787369 ,48,256712543208 ,85,5470116134192
0.6623803 ,Left ,61,8522437213402 ,48,2945773334121 ,85,5026450885581
0.6623828 ,Left ,61,8522437213402 ,48,2945773334121 ,85,5026450885581
0.6787806 ,Left ,61,8168588568853 ,48,3172335660795 ,85,4651472293158
0.6787835 ,Left ,61,8168588568853 ,48,3172335660795 ,85,4651472293158
0.6997287 ,Left ,61,7826458421045 ,48,3433183068144 ,85,4395961892744
0.6997306 ,Left ,61,7826458421045 ,48,3433183068144 ,85,4395961892744
0.7222006 ,Left ,61,7359531284713 ,48,356248307081 ,85,4137256071408
0.7222025 ,Left ,61,7359531284713 ,48,356248307081 ,85,4137256071408
0.7388405 ,Left ,61,6845616245148 ,48,3444590473598 ,85,3851038596628
0.7388427 ,Left ,61,6845616245148 ,48,3444590473598 ,85,3851038596628
0.7674544 ,Left ,61,603854671503 ,48,2943742271613 ,85,3778385734136
0.767458 ,Left ,61,603854671503 ,48,2943742271613 ,85,3778385734136
0.7824061 ,Left ,61,5592229878561 ,48,2220367027549 ,85,3826278745494
0.7824105 ,Left ,61,5592229878561 ,48,2220367027549 ,85,3826278745494
0.7988346 ,Left ,61,56533115843 ,48,1639032807422 ,85,4022414744037
0.7988386 ,Left ,61,56533115843 ,48,1639032807422 ,85,4022414744037
0.8200112 ,Left ,61,6651292895864 ,48,1741976376599 ,85,3887463861039
0.8200154 ,Left ,61,6651292895864 ,48,1741976376599 ,85,3887463861039
0.842228 ,Left ,61,6569449598816 ,48,1948527980673 ,85,3595276098905
0.8422296 ,Left ,61,6569449598816 ,48,1948527980673 ,85,3595276098905
0.8587069 ,Left ,61,6048637498498 ,48,1767589319174 ,85,3530573124588
0.8587085 ,Left ,61,6048637498498 ,48,1767589319174 ,85,3530573124588
0.8796407 ,Left ,61,5312114154897 ,48,1984175132246 ,85,3785681515604
0.8796427 ,Left ,61,5312114154897 ,48,1984175132246 ,85,3785681515604
0.9022879 ,Left ,61,4272542225024 ,48,2561880039691 ,85,3990192951443
0.9022905 ,Left ,61,4272542225024 ,48,2561880039691 ,85,3990192951443
0.9187281 ,Left ,61,4232534568183 ,48,2380237162375 ,85,398923815797
0.9187315 ,Left ,61,4232534568183 ,48,2380237162375 ,85,398923815797
0.9402157 ,Left ,61,4482509566258 ,48,197234575871 ,85,3886756670606
0.9402218 ,Left ,61,4482509566258 ,48,197234575871 ,85,3886756670606
0.9624122 ,Left ,61,4701817390279 ,48,1233600350193 ,85,4150871285246
0.9624143 ,Left ,61,4701817390279 ,48,1233600350193 ,85,4150871285246
0.9788566 ,Left ,61,5541863119681 ,48,0557361749436 ,85,4411364320221
0.978859 ,Left ,61,5541863119681 ,48,0557361749436 ,85,4411364320221
1.0006047 ,Left ,61,5164179718309 ,48,0057704347315 ,85,445372429416
1.0006128 ,Left ,61,5164179718309 ,48,0057704347315 ,85,445372429416
1.0223829 ,Left ,61,4944197883423 ,48,0274094721183 ,85,4607905117869
1.0223872 ,Left ,61,4944197883423 ,48,0274094721183 ,85,4607905117869
1.0478541 ,Left ,61,4539588138395 ,48,1046367390902 ,85,4465670523654
1.0478561 ,Left ,61,4539588138395 ,48,1046367390902 ,85,4465670523654
1.0596645 ,Left ,61,4870006691282 ,48,0675162206487 ,85,4166960881296
1.0596663 ,Left ,61,4870006691282 ,48,0675162206487 ,85,4166960881296
1.0822936 ,Left ,61,4441274188516 ,47,9628550559751 ,85,4097685560477
1.0822955 ,Left ,61,4441274188516 ,47,9628550559751 ,85,4097685560477
1.1000473 ,Left ,61,3364247885302 ,47,8699147706221 ,85,4359567466942
1.1000493 ,Left ,61,3364247885302 ,47,8699147706221 ,85,4359567466942
1.1196986 ,Left ,61,3636493802983 ,47,7999181423931 ,85,4310627251909
1.1197004 ,Left ,61,3636493802983 ,47,7999181423931 ,85,4310627251909
1.1423884 ,Left ,61,3750988904936 ,47,830963301239 ,85,3770722773765
1.1423913 ,Left ,61,3750988904936 ,47,830963301239 ,85,3770722773765
1.1603002 ,Left ,61,3778854843712 ,47,9329050736657 ,85,3304956997842
1.1603042 ,Left ,61,3778854843712 ,47,9329050736657 ,85,3304956997842
1.1797407 ,Left ,61,4573947136984 ,47,9859709417383 ,85,3076743575108
1.1797427 ,Left ,61,4573947136984 ,47,9859709417383 ,85,3076743575108
1.202445 ,Left ,61,4757785726004 ,48,0202397306679 ,85,2818465466445
1.2024469 ,Left ,61,4757785726004 ,48,0202397306679 ,85,2818465466445
1.220337 ,Left ,61,4647052127513 ,48,0508747292914 ,85,2529570853133
1.2203392 ,Left ,61,4647052127513 ,48,0508747292914 ,85,2529570853133
1.2402279 ,Left ,61,4043790882389 ,48,0659742322653 ,85,21376207475
1.2402356 ,Left ,61,4043790882389 ,48,0659742322653 ,85,21376207475
1.2628531 ,Left ,61,3505957111999 ,48,0893252636642 ,85,138862484541
1.2628607 ,Left ,61,3505957111999 ,48,0893252636642 ,85,138862484541
1.2807277 ,Left ,61,3298609757207 ,48,0924851128741 ,85,0599292548894
1.2807351 ,Left ,61,3298609757207 ,48,0924851128741 ,85,0599292548894
1.3003861 ,Left ,61,3049152080836 ,48,0813999865928 ,84,994541191059
1.3003939 ,Left ,61,3049152080836 ,48,0813999865928 ,84,994541191059
1.3224842 ,Left ,61,2806954016333 ,48,0698762351279 ,84,9525494862557
1.3224884 ,Left ,61,2806954016333 ,48,0698762351279 ,84,9525494862557
1.3403019 ,Left ,61,2660408671612 ,48,0714814888755 ,84,9335389889108
1.340306 ,Left ,61,2660408671612 ,48,0714814888755 ,84,9335389889108
1.3601266 ,Left ,61,2757835963723 ,48,0796981014899 ,84,930216198984
1.3601309 ,Left ,61,2757835963723 ,48,0796981014899 ,84,930216198984
1.3825789 ,Left ,61,3031465983616 ,48,0821149915415 ,84,9286436730496
1.3825832 ,Left ,61,3031465983616 ,48,0821149915415 ,84,9286436730496
1.4003066 ,Left ,61,3047450555844 ,48,0722044319579 ,84,9046580963744
1.4003106 ,Left ,61,3047450555844 ,48,0722044319579 ,84,9046580963744
1.4199409 ,Left ,61,2846925512046 ,48,0736329853617 ,84,8715543752394
1.4199429 ,Left ,61,2846925512046 ,48,0736329853617 ,84,8715543752394
1.4422295 ,Left ,61,2671546640182 ,48,0777163235598 ,84,841090707176
1.4422313 ,Left ,61,2671546640182 ,48,0777163235598 ,84,841090707176
1.4603106 ,Left ,61,2516349673694 ,48,0686200189245 ,84,8102891556356
1.4603126 ,Left ,61,2516349673694 ,48,0686200189245 ,84,8102891556356
1.479665 ,Left ,61,2674024288791 ,48,0379323631522 ,84,78481178421
1.4796668 ,Left ,61,2674024288791 ,48,0379323631522 ,84,78481178421
1.5022034 ,Left ,61,2473203421094 ,48,0040817723961 ,84,7647251985192
1.5022052 ,Left ,61,2473203421094 ,48,0040817723961 ,84,7647251985192
1.5200319 ,Left ,61,1889511488197 ,47,9593441938553 ,84,7333429227291
1.5200336 ,Left ,61,1889511488197 ,47,9593441938553 ,84,7333429227291
1.53987 ,Left ,61,0716927030169 ,47,936150020688 ,84,725298638997
1.539872 ,Left ,61,0716927030169 ,47,936150020688 ,84,725298638997
1.5620265 ,Left ,60,9636892249647 ,47,9232500823283 ,84,7787167842458
1.5620286 ,Left ,60,9636892249647 ,47,9232500823283 ,84,7787167842458
1.5801987 ,Left ,60,9202470401582 ,47,9187957526544 ,84,8338747019695
1.5802007 ,Left ,60,9202470401582 ,47,9187957526544 ,84,8338747019695
1.6027263 ,Left ,61,0204622621658 ,47,9257590689765 ,84,8783514486792
1.6027286 ,Left ,61,0204622621658 ,47,9257590689765 ,84,8783514486792
1.6221691 ,Left ,61,1402926170668 ,47,9418687383982 ,84,9162555069031
1.622171 ,Left ,61,1402926170668 ,47,9418687383982 ,84,9162555069031
1.6403473 ,Left ,61,1728968763277 ,47,9454728891897 ,84,9534696407829
1.6403499 ,Left ,61,1728968763277 ,47,9454728891897 ,84,9534696407829
1.6613109 ,Left ,61,1868331554464 ,47,930249976638 ,84,9771997433909
1.6613128 ,Left ,61,1868331554464 ,47,930249976638 ,84,9771997433909
1.6845039 ,Left ,61,1825036981686 ,47,9670762081675 ,85,0082191310708
1.6845059 ,Left ,61,1825036981686 ,47,9670762081675 ,85,0082191310708
1.6974197 ,Left ,61,1578050748967 ,48,0543829310075 ,85,0619227499212
1.6974223 ,Left ,61,1578050748967 ,48,0543829310075 ,85,0619227499212
1.719749 ,Left ,61,1656517801596 ,48,1243727372693 ,85,088760095329
1.7197509 ,Left ,61,1656517801596 ,48,1243727372693 ,85,088760095329
1.7424339 ,Left ,61,1909944950084 ,48,3490443377058 ,85,0993608600634
1.7424365 ,Left ,61,1909944950084 ,48,3490443377058 ,85,0993608600634
1.7574899 ,Left ,61,1946753420735 ,48,5495973643646 ,85,1206290019092
1.7574936 ,Left ,61,1946753420735 ,48,5495973643646 ,85,1206290019092
1.7802575 ,Left ,61,1517594661595 ,48,3163950288223 ,85,1313844252746
1.7802627 ,Left ,61,1517594661595 ,48,3163950288223 ,85,1313844252746
1.8022481 ,Left ,61,1370635586185 ,48,4493968236582 ,85,1663410057043
1.8022498 ,Left ,61,1370635586185 ,48,4493968236582 ,85,1663410057043
1.8172564 ,Left ,61,209699013221 ,48,1703870008655 ,85,2369144359886
1.8172581 ,Left ,61,209699013221 ,48,1703870008655 ,85,2369144359886
1.8398908 ,Left ,61,3937950236558 ,48,4081753617689 ,85,2609241455142
1.8398928 ,Left ,61,3937950236558 ,48,4081753617689 ,85,2609241455142
1.8622007 ,Left ,61,4127560120076 ,48,2342718424504 ,85,2947702192471
1.8622026 ,Left ,61,4127560120076 ,48,2342718424504 ,85,2947702192471
1.8771982 ,Left ,61,5070230916954 ,48,3361099116592 ,85,3277866887156
1.8772001 ,Left ,61,5070230916954 ,48,3361099116592 ,85,3277866887156
1.9000456 ,Left ,61,5283959853288 ,48,3577830723296 ,85,3746840522011
1.9000486 ,Left ,61,5283959853288 ,48,3577830723296 ,85,3746840522011
1.9221799 ,Left ,61,5435013322783 ,48,3801765823759 ,85,4370488250124
1.922182 ,Left ,61,5435013322783 ,48,3801765823759 ,85,4370488250124
1.9374129 ,Left ,61,588846578603 ,48,4092755839118 ,85,5139589943693
1.9374153 ,Left ,61,588846578603 ,48,4092755839118 ,85,5139589943693
1.9599106 ,Left ,61,6513707434594 ,48,4374442653799 ,85,5891701629816
1.9599138 ,Left ,61,6513707434594 ,48,4374442653799 ,85,5891701629816
1.9823437 ,Left ,61,7027447575739 ,48,4541109533507 ,85,6484214802178
1.9823468 ,Left ,61,7027447575739 ,48,4541109533507 ,85,6484214802178
1.9974594 ,Left ,61,7326746722697 ,48,5151257583321 ,85,7051061161212
1.9974627 ,Left ,61,7326746722697 ,48,5151257583321 ,85,7051061161212
2.0200143 ,Left ,61,8499879433854 ,48,457340483144 ,85,7566459980801
2.0200176 ,Left ,61,8499879433854 ,48,457340483144 ,85,7566459980801
2.0422084 ,Left ,61,916361144773 ,48,2956312631334 ,85,8155254332052
2.0422231 ,Left ,61,916361144773 ,48,2956312631334 ,85,8155254332052
2.0588642 ,Left ,61,9716508324541 ,48,3029185223628 ,85,8769672497047
2.0588665 ,Left ,61,9716508324541 ,48,3029185223628 ,85,8769672497047
2.0798052 ,Left ,61,9765433131868 ,48,302424439745 ,85,9530577037718
2.079807 ,Left ,61,9765433131868 ,48,302424439745 ,85,9530577037718
2.0963851 ,Left ,62,0004596941499 ,48,2899454158369 ,86,0215651265911
2.0963872 ,Left ,62,0004596941499 ,48,2899454158369 ,86,0215651265911
2.1186268 ,Left ,62,0242219098908 ,48,2797793032786 ,86,0958814354937
2.1186288 ,Left ,62,0242219098908 ,48,2797793032786 ,86,0958814354937
2.1398517 ,Left ,62,0414597209571 ,48,2829453232745 ,86,1699014085947
2.1398541 ,Left ,62,0414597209571 ,48,2829453232745 ,86,1699014085947
2.1562795 ,Left ,62,1050440652026 ,48,2878976986609 ,86,2323629058206
2.1562816 ,Left ,62,1050440652026 ,48,2878976986609 ,86,2323629058206
2.1786076 ,Left ,62,1523367615191 ,48,2796114822746 ,86,2910662451448
2.1786093 ,Left ,62,1523367615191 ,48,2796114822746 ,86,2910662451448
2.1997994 ,Left ,62,1485273952408 ,48,2616215514754 ,86,3521881486385
2.1998018 ,Left ,62,1485273952408 ,48,2616215514754 ,86,3521881486385
2.2163904 ,Left ,62,1608860406346 ,48,2528908906964 ,86,4138093490524
2.2163934 ,Left ,62,1608860406346 ,48,2528908906964 ,86,4138093490524
2.2389707 ,Left ,62,1840632422448 ,48,2473854336095 ,86,4733342305926
2.2389739 ,Left ,62,1840632422448 ,48,2473854336095 ,86,4733342305926
2.2600296 ,Left ,62,1940148876907 ,48,2490537472233 ,86,5225639219805
2.2600328 ,Left ,62,1940148876907 ,48,2490537472233 ,86,5225639219805
2.2760485 ,Left ,62,1943556993378 ,48,2539605102572 ,86,5711346882226
2.2760504 ,Left ,62,1943556993378 ,48,2539605102572 ,86,5711346882226
2.2985843 ,Left ,62,1783238294091 ,48,2588003026787 ,86,6192183233206
2.298586 ,Left ,62,1783238294091 ,48,2588003026787 ,86,6192183233206
2.3197572 ,Left ,62,1689032114641 ,48,2666464594369 ,86,6551143259213
2.3197644 ,Left ,62,1689032114641 ,48,2666464594369 ,86,6551143259213
2.3361864 ,Left ,62,1684504119359 ,48,2722232314115 ,86,6766329563573
2.3361891 ,Left ,62,1684504119359 ,48,2722232314115 ,86,6766329563573
2.3588525 ,Left ,62,1676683243686 ,48,2798208112158 ,86,6918976590928
2.3588559 ,Left ,62,1676683243686 ,48,2798208112158 ,86,6918976590928
2.3801206 ,Left ,62,16017412834 ,48,2907808820052 ,86,7035257809818
2.3801244 ,Left ,62,16017412834 ,48,2907808820052 ,86,7035257809818
2.3963061 ,Left ,62,1290968375595 ,48,3054727470983 ,86,7089643589858
2.3963095 ,Left ,62,1290968375595 ,48,3054727470983 ,86,7089643589858
2.4189407 ,Left ,62,0913255913463 ,48,3154403403354 ,86,707748231599
2.4189444 ,Left ,62,0913255913463 ,48,3154403403354 ,86,707748231599
2.4400805 ,Left ,62,0528565098812 ,48,3211123361553 ,86,7041595004031
2.4400842 ,Left ,62,0528565098812 ,48,3211123361553 ,86,7041595004031
2.4563766 ,Left ,62,0353440481458 ,48,3319541894206 ,86,6983592110169
2.4563803 ,Left ,62,0353440481458 ,48,3319541894206 ,86,6983592110169
2.4788555 ,Left ,62,0160425402982 ,48,338658922433 ,86,6892771347844
2.478859 ,Left ,62,0160425402982 ,48,338658922433 ,86,6892771347844
2.5000933 ,Left ,61,9861960539022 ,48,3411423157632 ,86,685575904654
2.500097 ,Left ,61,9861960539022 ,48,3411423157632 ,86,685575904654
2.5164106 ,Left ,61,9543569687434 ,48,3200625215312 ,86,6811980108865
2.5164125 ,Left ,61,9543569687434 ,48,3200625215312 ,86,6811980108865
2.538971 ,Left ,61,9317799387112 ,48,2853498498406 ,86,6800527307777
2.538973 ,Left ,61,9317799387112 ,48,2853498498406 ,86,6800527307777
2.5602938 ,Left ,61,9375742434298 ,48,2582494071825 ,86,6914990976477
2.5603014 ,Left ,61,9375742434298 ,48,2582494071825 ,86,6914990976477
2.5836783 ,Left ,61,9284195975016 ,48,2478674140702 ,86,7026288611122
2.5836862 ,Left ,61,9284195975016 ,48,2478674140702 ,86,7026288611122
2.5995397 ,Left ,61,9137138104133 ,48,251587199126 ,86,6878733473441
2.5995418 ,Left ,61,9137138104133 ,48,251587199126 ,86,6878733473441
2.6218168 ,Left ,61,9051341631887 ,48,2719620039112 ,86,6358564196699
2.6218185 ,Left ,61,9051341631887 ,48,2719620039112 ,86,6358564196699
2.6430782 ,Left ,61,9055734683228 ,48,2807628473925 ,86,5752471315539
2.6430801 ,Left ,61,9055734683228 ,48,2807628473925 ,86,5752471315539
2.6593726 ,Left ,61,9177284244405 ,48,2606960924855 ,86,4940176967396
2.6593744 ,Left ,61,9177284244405 ,48,2606960924855 ,86,4940176967396
2.6817668 ,Left ,61,9509476684606 ,48,2847344092844 ,86,418469826299
2.6817686 ,Left ,61,9509476684606 ,48,2847344092844 ,86,418469826299
2.703129 ,Left ,61,9498923735669 ,48,3419363635512 ,86,3576189331419
2.7031316 ,Left ,61,9498923735669 ,48,3419363635512 ,86,3576189331419
2.7195613 ,Left ,61,9127386154385 ,48,4026591198526 ,86,2753829027981
2.7195633 ,Left ,61,9127386154385 ,48,4026591198526 ,86,2753829027981
2.7419715 ,Left ,61,8827314862156 ,48,4163471180428 ,86,1775563679549
2.741975 ,Left ,61,8827314862156 ,48,4163471180428 ,86,1775563679549
2.7628207 ,Left ,61,8090519707174 ,48,3963256798702 ,86,0917035694402
2.7628226 ,Left ,61,8090519707174 ,48,3963256798702 ,86,0917035694402
2.7795425 ,Left ,61,7167851112178 ,48,3591100346517 ,86,0159306704282
2.7795444 ,Left ,61,7167851112178 ,48,3591100346517 ,86,0159306704282
2.801746 ,Left ,61,6536217621344 ,48,2897496978109 ,85,9612287650823
2.8017478 ,Left ,61,6536217621344 ,48,2897496978109 ,85,9612287650823
2.8227647 ,Left ,61,5879129488898 ,48,2306768903493 ,85,9450122110856
2.8227665 ,Left ,61,5879129488898 ,48,2306768903493 ,85,9450122110856
2.8392083 ,Left ,61,6125386417407 ,48,2290989247433 ,85,9420146127488
2.8392161 ,Left ,61,6125386417407 ,48,2290989247433 ,85,9420146127488
2.8623428 ,Left ,61,6865327354138 ,48,2547479866507 ,85,9320938934593
2.8623503 ,Left ,61,6865327354138 ,48,2547479866507 ,85,9320938934593
2.8834941 ,Left ,61,8537942403228 ,48,2510823256544 ,85,9028790554855
2.8835148 ,Left ,61,8537942403228 ,48,2510823256544 ,85,9028790554855
2.899044 ,Left ,61,8533181121579 ,48,1944669503008 ,85,8842485755538
2.8990492 ,Left ,61,8533181121579 ,48,1944669503008 ,85,8842485755538
2.9220975 ,Left ,61,8504253900209 ,48,1805073264893 ,85,8677355827864
2.9221027 ,Left ,61,8504253900209 ,48,1805073264893 ,85,8677355827864
2.9458369 ,Left ,61,7637180993576 ,48,2209533609398 ,85,8975539647798
2.9458396 ,Left ,61,7637180993576 ,48,2209533609398 ,85,8975539647798
2.9587509 ,Left ,61,6747031178501 ,48,2571927031143 ,85,8913062315643
2.9587537 ,Left ,61,6747031178501 ,48,2571927031143 ,85,8913062315643
2.9892714 ,Left ,61,6098021632307 ,48,2216934087499 ,85,8618062010255
2.9892731 ,Left ,61,6098021632307 ,48,2216934087499 ,85,8618062010255
3.004532 ,Left ,61,5664229959585 ,48,2057803338542 ,85,8180408922538
3.0045344 ,Left ,61,5664229959585 ,48,2057803338542 ,85,8180408922538
3.0195338 ,Left ,61,5050368608994 ,48,192909226796 ,85,8336041411196
3.0195358 ,Left ,61,5050368608994 ,48,192909226796 ,85,8336041411196
3.0417345 ,Left ,61,5121898519111 ,48,1954224377495 ,85,8159056553295
3.0417362 ,Left ,61,5121898519111 ,48,1954224377495 ,85,8159056553295
3.0645286 ,Left ,61,6036201992941 ,48,2354590039002 ,85,7832388975266
3.0645313 ,Left ,61,6036201992941 ,48,2354590039002 ,85,7832388975266
3.0787977 ,Left ,61,5817370750914 ,48,2572917172571 ,85,7721886538003
3.0788007 ,Left ,61,5817370750914 ,48,2572917172571 ,85,7721886538003
3.1017767 ,Left ,61,5613232197846 ,48,2355954970068 ,85,767068383079
3.1017784 ,Left ,61,5613232197846 ,48,2355954970068 ,85,767068383079
3.1245971 ,Left ,61,4947802313881 ,48,2916186095015 ,85,7196706778326
3.1245993 ,Left ,61,4947802313881 ,48,2916186095015 ,85,7196706778326
3.1387767 ,Left ,61,4923092438332 ,48,3205752669822 ,85,7266392712734
3.138779 ,Left ,61,4923092438332 ,48,3205752669822 ,85,7266392712734
3.1620224 ,Left ,61,4887927245405 ,48,2881219244222 ,85,7410763143013
3.1620285 ,Left ,61,4887927245405 ,48,2881219244222 ,85,7410763143013
3.1844879 ,Left ,61,4898682514947 ,48,2589566955398 ,85,719490770783
3.1844913 ,Left ,61,4898682514947 ,48,2589566955398 ,85,719490770783
3.1988461 ,Left ,61,472189344494 ,48,2271718142645 ,85,6674097679064
3.1988495 ,Left ,61,472189344494 ,48,2271718142645 ,85,6674097679064
3.2220727 ,Left ,61,4626991357457 ,48,2423905177237 ,85,5986867428767
3.2220764 ,Left ,61,4626991357457 ,48,2423905177237 ,85,5986867428767
3.244361 ,Left ,61,4576281528312 ,48,2719587832953 ,85,547975297295
3.2443628 ,Left ,61,4576281528312 ,48,2719587832953 ,85,547975297295
3.2668935 ,Left ,61,4186115125472 ,48,305321293217 ,85,5072124753844
3.266896 ,Left ,61,4186115125472 ,48,305321293217 ,85,5072124753844
3.2819682 ,Left ,61,3808467290464 ,48,3275276843353 ,85,4525740554571
3.2819708 ,Left ,61,3808467290464 ,48,3275276843353 ,85,4525740554571
3.3043025 ,Left ,61,3556708125329 ,48,3134448476447 ,85,4051850606325
3.3043042 ,Left ,61,3556708125329 ,48,3134448476447 ,85,4051850606325
3.3186315 ,Left ,61,34269533306 ,48,2756353683723 ,85,307925825595
3.3186333 ,Left ,61,34269533306 ,48,2756353683723 ,85,307925825595
3.3420616 ,Left ,61,3002897793551 ,48,2064617475836 ,85,1914321700188
3.342064 ,Left ,61,3002897793551 ,48,2064617475836 ,85,1914321700188
3.3645603 ,Left ,61,2398932229888 ,48,1493080590734 ,85,1084285383372
3.364563 ,Left ,61,2398932229888 ,48,1493080590734 ,85,1084285383372
3.3854035 ,Left ,61,1810175740914 ,48,1222188402325 ,85,0690453824093
3.3854054 ,Left ,61,1810175740914 ,48,1222188402325 ,85,0690453824093
3.4018517 ,Left ,61,1062588335002 ,48,0767578542477 ,85,039378359072
3.4018543 ,Left ,61,1062588335002 ,48,0767578542477 ,85,039378359072
3.4317267 ,Left ,61,0578060736801 ,48,021185832686 ,85,007757959405
3.4317285 ,Left ,61,0578060736801 ,48,021185832686 ,85,007757959405
3.445384 ,Left ,60,9926009906021 ,48,013760349985 ,85,0116441917667
3.4453862 ,Left ,60,9926009906021 ,48,013760349985 ,85,0116441917667
3.4619419 ,Left ,60,9367387507519 ,48,0458203810899 ,85,0301968946914
3.4619451 ,Left ,60,9367387507519 ,48,0458203810899 ,85,0301968946914
3.4843473 ,Left ,60,9544389420773 ,48,0789456959267 ,85,033973784125
3.4843491 ,Left ,60,9544389420773 ,48,0789456959267 ,85,033973784125
3.5054404 ,Left ,61,0111889662392 ,48,1042834779038 ,85,0421650363005
3.5054425 ,Left ,61,0111889662392 ,48,1042834779038 ,85,0421650363005
3.5218693 ,Left ,61,0691647428768 ,48,1183807149512 ,85,063755505746
3.521871 ,Left ,61,0691647428768 ,48,1183807149512 ,85,063755505746
3.5445021 ,Left ,61,1102092070847 ,48,1221403879588 ,85,0843347401073
3.544504 ,Left ,61,1102092070847 ,48,1221403879588 ,85,0843347401073
3.5653347 ,Left ,61,1136285671288 ,48,1463276767312 ,85,115159662486
3.5653367 ,Left ,61,1136285671288 ,48,1463276767312 ,85,115159662486
3.5818843 ,Left ,61,1372831589366 ,48,2313418380346 ,85,1680683713544
3.5818862 ,Left ,61,1372831589366 ,48,2313418380346 ,85,1680683713544
3.6048787 ,Left ,61,1676975778307 ,48,3223799978135 ,85,2189702187206
3.6048931 ,Left ,61,1676975778307 ,48,3223799978135 ,85,2189702187206
3.6258413 ,Left ,61,2440559931332 ,48,3909199878568 ,85,2698525035203
3.6258488 ,Left ,61,2440559931332 ,48,3909199878568 ,85,2698525035203
3.6417836 ,Left ,61,2950610793812 ,48,4218926763781 ,85,3191137634784
3.6417914 ,Left ,61,2950610793812 ,48,4218926763781 ,85,3191137634784
3.6650252 ,Left ,61,3008341738651 ,48,4428100144824 ,85,3675985103357
3.6650328 ,Left ,61,3008341738651 ,48,4428100144824 ,85,3675985103357
3.6856221 ,Left ,61,3061846126785 ,48,4569597148062 ,85,4209683436755
3.6856274 ,Left ,61,3061846126785 ,48,4569597148062 ,85,4209683436755
3.7020646 ,Left ,61,3293386577939 ,48,4824287447032 ,85,4668412112596
3.70207 ,Left ,61,3293386577939 ,48,4824287447032 ,85,4668412112596
3.7248053 ,Left ,61,3593725552303 ,48,5178197254232 ,85,4862248468711
3.7248202 ,Left ,61,3593725552303 ,48,5178197254232 ,85,4862248468711
3.7451546 ,Left ,61,359941157836 ,48,5458931778388 ,85,4935196467998
3.7451563 ,Left ,61,359941157836 ,48,5458931778388 ,85,4935196467998
3.7618706 ,Left ,61,3697276716529 ,48,5523740236842 ,85,4946854701979
3.7618725 ,Left ,61,3697276716529 ,48,5523740236842 ,85,4946854701979
3.7843784 ,Left ,61,3603327573769 ,48,6036025086444 ,85,4956576743108
3.7843801 ,Left ,61,3603327573769 ,48,6036025086444 ,85,4956576743108
3.8054461 ,Left ,61,3953395711346 ,48,5440540344245 ,85,4741776467816
3.805448 ,Left ,61,3953395711346 ,48,5440540344245 ,85,4741776467816
3.8218222 ,Left ,61,4627646062778 ,48,5486732303177 ,85,4462699321375
3.821824 ,Left ,61,4627646062778 ,48,5486732303177 ,85,4462699321375
3.8443756 ,Left ,61,4917524169072 ,48,4325674786044 ,85,4177639540648
3.8443782 ,Left ,61,4917524169072 ,48,4325674786044 ,85,4177639540648
3.8669049 ,Left ,61,4038082599422 ,48,2496995216124 ,85,3854780087846
3.8669073 ,Left ,61,4038082599422 ,48,2496995216124 ,85,3854780087846
3.8821282 ,Left ,61,2974107852058 ,48,293630376462 ,85,3754850935124
3.8821311 ,Left ,61,2974107852058 ,48,293630376462 ,85,3754850935124
3.9042995 ,Left ,61,2596614773852 ,48,3751055238073 ,85,3575927881344
3.9043011 ,Left ,61,2596614773852 ,48,3751055238073 ,85,3575927881344
3.9274244 ,Left ,61,2507995527033 ,48,1657719356038 ,85,3625683781303
3.9274319 ,Left ,61,2507995527033 ,48,1657719356038 ,85,3625683781303
3.942521 ,Left ,61,2525208029333 ,48,1032665629272 ,85,4311084935929
3.9425416 ,Left ,61,2525208029333 ,48,1032665629272 ,85,4311084935929
3.9649493 ,Left ,61,3787014995267 ,48,2864812518697 ,85,4535379794508
3.9649569 ,Left ,61,3787014995267 ,48,2864812518697 ,85,4535379794508
3.9874047 ,Left ,61,4741006639506 ,48,1792964261411 ,85,4549482269524
3.9874123 ,Left ,61,4741006639506 ,48,1792964261411 ,85,4549482269524
4.0024058 ,Left ,61,4407062897468 ,48,1634035837525 ,85,4750599949734
4.0024131 ,Left ,61,4407062897468 ,48,1634035837525 ,85,4750599949734
4.0248618 ,Left ,61,4779075856927 ,48,3165407476641 ,85,5216727142698
4.0248671 ,Left ,61,4779075856927 ,48,3165407476641 ,85,5216727142698
4.0467662 ,Left ,61,5277454894685 ,48,181400724252 ,85,5802012870878
4.046768 ,Left ,61,5277454894685 ,48,181400724252 ,85,5802012870878
4.0611394 ,Left ,61,4814973218346 ,48,1299126723428 ,85,6711906569664
4.0611414 ,Left ,61,4814973218346 ,48,1299126723428 ,85,6711906569664
4.0843041 ,Left ,61,5417525720925 ,48,17349505792 ,85,7589916888651
4.0843058 ,Left ,61,5417525720925 ,48,17349505792 ,85,7589916888651
4.1070456 ,Left ,61,5981317719676 ,48,1677361803428 ,85,8415100122755
4.107048 ,Left ,61,5981317719676 ,48,1677361803428 ,85,8415100122755
4.1212905 ,Left ,61,6517364109286 ,48,1497602921305 ,85,9208484089814
4.1212935 ,Left ,61,6517364109286 ,48,1497602921305 ,85,9208484089814
4.1445891 ,Left ,61,6982078771918 ,48,1164385640093 ,86,0076068738031
4.1445932 ,Left ,61,6982078771918 ,48,1164385640093 ,86,0076068738031
4.1667613 ,Left ,61,7348915471087 ,48,0906166354282 ,86,1050244760228
4.166768 ,Left ,61,7348915471087 ,48,0906166354282 ,86,1050244760228
4.1880294 ,Left ,61,7754403653985 ,48,0781734574403 ,86,2082795603655
4.1880317 ,Left ,61,7754403653985 ,48,0781734574403 ,86,2082795603655
4.2045168 ,Left ,61,803940944655 ,48,0737799132073 ,86,318825118325
4.2045196 ,Left ,61,803940944655 ,48,0737799132073 ,86,318825118325
4.2268285 ,Left ,61,836268861547 ,48,0776149105755 ,86,4229414816333
4.2268302 ,Left ,61,836268861547 ,48,0776149105755 ,86,4229414816333
4.2478956 ,Left ,61,8665787457327 ,48,0783047323312 ,86,526622344137
4.247898 ,Left ,61,8665787457327 ,48,0783047323312 ,86,526622344137
4.2643409 ,Left ,61,8979770285464 ,48,0847384745536 ,86,6210479009302
4.2643427 ,Left ,61,8979770285464 ,48,0847384745536 ,86,6210479009302
4.2870554 ,Left ,61,9400908870093 ,48,0935308945222 ,86,7145004075317
4.2870576 ,Left ,61,9400908870093 ,48,0935308945222 ,86,7145004075317
4.3081124 ,Left ,61,9618666896748 ,48,0934792983627 ,86,8080870356271
4.3081148 ,Left ,61,9618666896748 ,48,0934792983627 ,86,8080870356271
4.3243843 ,Left ,61,9810906916236 ,48,0910094669706 ,86,8858526335153
4.3243867 ,Left ,61,9810906916236 ,48,0910094669706 ,86,8858526335153
4.3470996 ,Left ,61,9829319495436 ,48,0872557220813 ,86,9535717863836
4.3471024 ,Left ,61,9829319495436 ,48,0872557220813 ,86,9535717863836
4.3676553 ,Left ,62,0090712464371 ,48,0892642301502 ,87,0016511373579
4.3676573 ,Left ,62,0090712464371 ,48,0892642301502 ,87,0016511373579
4.3844015 ,Left ,62,0327227540054 ,48,0893759059322 ,87,045805930296
4.3844034 ,Left ,62,0327227540054 ,48,0893759059322 ,87,045805930296
4.4069928 ,Left ,62,0362093794993 ,48,0889680201316 ,87,0815296550589
4.4069954 ,Left ,62,0362093794993 ,48,0889680201316 ,87,0815296550589
4.4282594 ,Left ,62,0404303760459 ,48,0954592865535 ,87,1121429018934
4.4282646 ,Left ,62,0404303760459 ,48,0954592865535 ,87,1121429018934
4.4446625 ,Left ,62,0433390135838 ,48,0991693258567 ,87,1296438260562
4.4446676 ,Left ,62,0433390135838 ,48,0991693258567 ,87,1296438260562
4.467057 ,Left ,62,0483516230109 ,48,097082381816 ,87,140503430109
4.4670618 ,Left ,62,0483516230109 ,48,097082381816 ,87,140503430109
4.4884475 ,Left ,62,0570659474709 ,48,0992660644828 ,87,1507311400905
4.4884528 ,Left ,62,0570659474709 ,48,0992660644828 ,87,1507311400905
4.5046244 ,Left ,62,0551668008711 ,48,0950424619688 ,87,1531661718202
4.5046294 ,Left ,62,0551668008711 ,48,0950424619688 ,87,1531661718202
4.5267315 ,Left ,62,0528158835323 ,48,0898297744478 ,87,1464814725831
4.5267332 ,Left ,62,0528158835323 ,48,0898297744478 ,87,1464814725831
4.5480964 ,Left ,62,0454030118629 ,48,0865792053377 ,87,1346629677711
4.5480983 ,Left ,62,0454030118629 ,48,0865792053377 ,87,1346629677711
4.5643956 ,Left ,62,0460949318428 ,48,0829796573818 ,87,1207516610788
4.5643979 ,Left ,62,0460949318428 ,48,0829796573818 ,87,1207516610788
4.5871162 ,Left ,62,0477191180622 ,48,0867912144013 ,87,10625820936
4.5871191 ,Left ,62,0477191180622 ,48,0867912144013 ,87,10625820936
4.6081697 ,Left ,62,0369849384087 ,48,0907100360407 ,87,0837503809305
4.6081764 ,Left ,62,0369849384087 ,48,0907100360407 ,87,0837503809305
4.6244018 ,Left ,62,0401016847565 ,48,0926545931251 ,87,0576022993024
4.6244049 ,Left ,62,0401016847565 ,48,0926545931251 ,87,0576022993024
4.6467341 ,Left ,62,0379027479438 ,48,1025138139236 ,87,0290710854249
4.6467372 ,Left ,62,0379027479438 ,48,1025138139236 ,87,0290710854249
4.6680681 ,Left ,62,0308789599764 ,48,1068314039537 ,86,9912968767617
4.6680718 ,Left ,62,0308789599764 ,48,1068314039537 ,86,9912968767617
4.68455 ,Left ,62,018097315195 ,48,1046407995582 ,86,9521471650924
4.6845536 ,Left ,62,018097315195 ,48,1046407995582 ,86,9521471650924
4.707067 ,Left ,62,0041456798764 ,48,1076247323035 ,86,9104430657247
4.7070693 ,Left ,62,0041456798764 ,48,1076247323035 ,86,9104430657247
4.7356164 ,Left ,61,9859319574691 ,48,1101854918595 ,86,8643687067591
4.7356183 ,Left ,61,9859319574691 ,48,1101854918595 ,86,8643687067591
4.7442666 ,Left ,61,9633811209906 ,48,1105965367777 ,86,8257731341089
4.7442683 ,Left ,61,9633811209906 ,48,1105965367777 ,86,8257731341089
4.7669079 ,Left ,61,9372497978701 ,48,1121518562365 ,86,7981680993216
4.7669101 ,Left ,61,9372497978701 ,48,1121518562365 ,86,7981680993216
4.7881387 ,Left ,61,8928122343138 ,48,0982031300278 ,86,772662007794
4.788142 ,Left ,61,8928122343138 ,48,0982031300278 ,86,772662007794
4.8045505 ,Left ,61,8439488245862 ,48,0749620193686 ,86,748672511311
4.804555 ,Left ,61,8439488245862 ,48,0749620193686 ,86,748672511311
4.8270506 ,Left ,61,821697826049 ,48,0745020074172 ,86,7366164910866
4.8270546 ,Left ,61,821697826049 ,48,0745020074172 ,86,7366164910866
4.8493084 ,Left ,61,8179489039732 ,48,1063527534628 ,86,727062651738
4.8493101 ,Left ,61,8179489039732 ,48,1063527534628 ,86,727062651738
4.8645433 ,Left ,61,9049943944803 ,48,1190970730361 ,86,7176516595955
4.8645453 ,Left ,61,9049943944803 ,48,1190970730361 ,86,7176516595955
4.887158 ,Left ,61,9970338589906 ,48,137476042915 ,86,6738245831518
4.8871609 ,Left ,61,9970338589906 ,48,137476042915 ,86,6738245831518
4.9095213 ,Left ,61,9912993522134 ,48,177920916442 ,86,608723962009
4.9095232 ,Left ,61,9912993522134 ,48,177920916442 ,86,608723962009
4.9308782 ,Left ,61,9376653576389 ,48,2508928783476 ,86,5560598515973
4.9308858 ,Left ,61,9376653576389 ,48,2508928783476 ,86,5560598515973
4.9474167 ,Left ,61,9331484357048 ,48,3202165838367 ,86,4826819300224
4.9474249 ,Left ,61,9331484357048 ,48,3202165838367 ,86,4826819300224
4.9698985 ,Left ,61,936989848574 ,48,3570265401253 ,86,3827489040282
4.9699062 ,Left ,61,936989848574 ,48,3570265401253 ,86,3827489040282
4.9841609 ,Left ,61,8956011549549 ,48,3460920512399 ,86,2568853698823
4.9841684 ,Left ,61,8956011549549 ,48,3460920512399 ,86,2568853698823
5.0073372 ,Left ,61,7984536163056 ,48,3177654004195 ,86,1532430151314
5.0073445 ,Left ,61,7984536163056 ,48,3177654004195 ,86,1532430151314
5.0309665 ,Left ,61,6699238922457 ,48,2666569566415 ,86,0585769177799
5.0309701 ,Left ,61,6699238922457 ,48,2666569566415 ,86,0585769177799
5.0437001 ,Left ,61,5835523408037 ,48,1934909285198 ,85,9852087555595
5.0437018 ,Left ,61,5835523408037 ,48,1934909285198 ,85,9852087555595
5.0669714 ,Left ,61,4935672404234 ,48,1699683782576 ,85,9429946123379
5.0669732 ,Left ,61,4935672404234 ,48,1699683782576 ,85,9429946123379
5.0895693 ,Left ,61,5137170619251 ,48,176029508602 ,85,9382099306499
5.0895716 ,Left ,61,5137170619251 ,48,176029508602 ,85,9382099306499
5.1102381 ,Left ,61,6635931075965 ,48,1682744178992 ,85,9493386606186
5.1102404 ,Left ,61,6635931075965 ,48,1682744178992 ,85,9493386606186
5.1269012 ,Left ,61,698542153605 ,48,1433326633692 ,85,939782249769
5.1269038 ,Left ,61,698542153605 ,48,1433326633692 ,85,939782249769
5.1495277 ,Left ,61,680677170637 ,48,1274150968482 ,85,9419544722106
5.14953 ,Left ,61,680677170637 ,48,1274150968482 ,85,9419544722106
5.1703945 ,Left ,61,5744595343005 ,48,176515910602 ,85,9626515887509
5.1703966 ,Left ,61,5744595343005 ,48,176515910602 ,85,9626515887509
5.1869988 ,Left ,61,5153100536318 ,48,2246498624382 ,85,9670837546607
5.1870009 ,Left ,61,5153100536318 ,48,2246498624382 ,85,9670837546607
5.2093472 ,Left ,61,5582920829251 ,48,2176736926834 ,85,9632682422545
5.209349 ,Left ,61,5582920829251 ,48,2176736926834 ,85,9632682422545
5.2236658 ,Left ,61,5281366946817 ,48,2175365857419 ,85,9580265008534
5.2236675 ,Left ,61,5281366946817 ,48,2175365857419 ,85,9580265008534
5.2473212 ,Left ,61,6357427374787 ,48,1866841264378 ,85,9597812071386
5.2473287 ,Left ,61,6357427374787 ,48,1866841264378 ,85,9597812071386
5.2697693 ,Left ,61,7735858871302 ,48,160103460837 ,85,9364549169872
5.2697767 ,Left ,61,7735858871302 ,48,160103460837 ,85,9364549169872
5.2910936 ,Left ,61,740965218143 ,48,1499380570369 ,85,9297330968252
5.2911055 ,Left ,61,740965218143 ,48,1499380570369 ,85,9297330968252
5.3072306 ,Left ,61,6864239575617 ,48,1788111081561 ,85,9358450217789
5.3072358 ,Left ,61,6864239575617 ,48,1788111081561 ,85,9358450217789
5.3295259 ,Left ,61,6051577194996 ,48,2206828523355 ,85,9432387636644
5.3295299 ,Left ,61,6051577194996 ,48,2206828523355 ,85,9432387636644
5.3505658 ,Left ,61,605257533653 ,48,1907470987606 ,85,9162625603115
5.3505698 ,Left ,61,605257533653 ,48,1907470987606 ,85,9162625603115
5.3671247 ,Left ,61,5598372374697 ,48,1122309114561 ,85,9348630693247
5.3671289 ,Left ,61,5598372374697 ,48,1122309114561 ,85,9348630693247
5.389306 ,Left ,61,49424077698 ,48,0336861011278 ,85,9408272300938
5.3893076 ,Left ,61,49424077698 ,48,0336861011278 ,85,9408272300938
5.410402 ,Left ,61,4851686165393 ,47,9713792275567 ,85,9540313337103
5.4104037 ,Left ,61,4851686165393 ,47,9713792275567 ,85,9540313337103
5.4270233 ,Left ,61,4807702525039 ,47,9614052906425 ,85,9170874972393
5.4270261 ,Left ,61,4807702525039 ,47,9614052906425 ,85,9170874972393
5.4495899 ,Left ,61,4633065794463 ,48,0184600790153 ,85,8848106855645
5.4495922 ,Left ,61,4633065794463 ,48,0184600790153 ,85,8848106855645
5.4704767 ,Left ,61,4729823836593 ,48,0620052126107 ,85,8658440732752
5.4704783 ,Left ,61,4729823836593 ,48,0620052126107 ,85,8658440732752
5.4867793 ,Left ,61,4819840079167 ,48,0899324918426 ,85,8579979942407
5.4867811 ,Left ,61,4819840079167 ,48,0899324918426 ,85,8579979942407
5.5095337 ,Left ,61,4797789818271 ,48,1325813027815 ,85,846550461332
5.509536 ,Left ,61,4797789818271 ,48,1325813027815 ,85,846550461332
5.5305684 ,Left ,61,4764974109015 ,48,1581141568332 ,85,8160315435515
5.5305711 ,Left ,61,4764974109015 ,48,1581141568332 ,85,8160315435515
5.5467115 ,Left ,61,4884424187053 ,48,1998116765599 ,85,7529055772929
5.5467132 ,Left ,61,4884424187053 ,48,1998116765599 ,85,7529055772929
5.5693337 ,Left ,61,4694792402262 ,48,2433480680161 ,85,6841486820042
5.5693358 ,Left ,61,4694792402262 ,48,2433480680161 ,85,6841486820042
5.5904445 ,Left ,61,4706458264488 ,48,2636246644686 ,85,6088734231519
5.5904476 ,Left ,61,4706458264488 ,48,2636246644686 ,85,6088734231519
5.6069243 ,Left ,61,4351467208238 ,48,2695634603315 ,85,5311787936875
5.6069277 ,Left ,61,4351467208238 ,48,2695634603315 ,85,5311787936875
5.6292926 ,Left ,61,3986293438376 ,48,2800889426654 ,85,4585316901534
5.6292943 ,Left ,61,3986293438376 ,48,2800889426654 ,85,4585316901534
5.6504144 ,Left ,61,388084837105 ,48,2920269760799 ,85,3902028569908
5.6504165 ,Left ,61,388084837105 ,48,2920269760799 ,85,3902028569908
5.6669399 ,Left ,61,3658181549976 ,48,2919159396015 ,85,3199524157753
5.6669423 ,Left ,61,3658181549976 ,48,2919159396015 ,85,3199524157753
5.6896283 ,Left ,61,3374709016079 ,48,2648038304448 ,85,2642474389393
5.6896316 ,Left ,61,3374709016079 ,48,2648038304448 ,85,2642474389393
5.7104997 ,Left ,61,3252413927365 ,48,2287449091897 ,85,2232706434388
5.7105027 ,Left ,61,3252413927365 ,48,2287449091897 ,85,2232706434388
5.7268582 ,Left ,61,3005025145557 ,48,1871848134415 ,85,1661692979971
5.7268612 ,Left ,61,3005025145557 ,48,1871848134415 ,85,1661692979971
5.7494917 ,Left ,61,2443980550613 ,48,1378688561923 ,85,1138806295732
5.7494949 ,Left ,61,2443980550613 ,48,1378688561923 ,85,1138806295732
5.7718485 ,Left ,61,1610194052408 ,48,1111904120483 ,85,1069523667756
5.7718502 ,Left ,61,1610194052408 ,48,1111904120483 ,85,1069523667756
5.7869182 ,Left ,61,1010182304249 ,48,1051441771988 ,85,1214065087136
5.78692 ,Left ,61,1010182304249 ,48,1051441771988 ,85,1214065087136
5.8093241 ,Left ,61,1882497678051 ,48,1281656758677 ,85,1583338939717
5.8093259 ,Left ,61,1882497678051 ,48,1281656758677 ,85,1583338939717
5.8318842 ,Left ,61,2481057656792 ,48,1631093275077 ,85,1959960179426
5.8318863 ,Left ,61,2481057656792 ,48,1631093275077 ,85,1959960179426
5.8461891 ,Left ,61,2413941839159 ,48,1495995991411 ,85,2325046755332
5.846191 ,Left ,61,2413941839159 ,48,1495995991411 ,85,2325046755332
5.8693974 ,Left ,61,3065254218744 ,48,1201334509613 ,85,219368815801
5.8693994 ,Left ,61,3065254218744 ,48,1201334509613 ,85,219368815801
5.8923761 ,Left ,61,2688455716091 ,48,0943640741639 ,85,2685586391087
5.8923836 ,Left ,61,2688455716091 ,48,0943640741639 ,85,2685586391087
5.9066537 ,Left ,61,2844844818172 ,48,1632252394749 ,85,3421189181571
5.9066752 ,Left ,61,2844844818172 ,48,1632252394749 ,85,3421189181571
5.9298064 ,Left ,61,3260260201297 ,48,2627966778659 ,85,3955496831918
5.9298139 ,Left ,61,3260260201297 ,48,2627966778659 ,85,3955496831918
5.9521759 ,Left ,61,4172652651721 ,48,3260035839428 ,85,4263520901883
5.9521812 ,Left ,61,4172652651721 ,48,3260035839428 ,85,4263520901883
5.9664354 ,Left ,61,4480124981342 ,48,3212622239012 ,85,4353852512407
5.9664435 ,Left ,61,4480124981342 ,48,3212622239012 ,85,4353852512407
5.9896585 ,Left ,61,3842246543316 ,48,2599063818986 ,85,4566126972571
5.9896626 ,Left ,61,3842246543316 ,48,2599063818986 ,85,4566126972571
5.9949292 ,Left ,61,3724710983934 ,48,1500778572135 ,85,5274582221006
5.9949332 ,Left ,61,3724710983934 ,48,1500778572135 ,85,5274582221006
6.0175312 ,Left ,61,4433692141935 ,48,0771416489448 ,85,5978864755615
6.0175357 ,Left ,61,4433692141935 ,48,0771416489448 ,85,5978864755615
6.0338879 ,Left ,61,5229626175047 ,48,0941038255247 ,85,6485960823979
6.0338921 ,Left ,61,5229626175047 ,48,0941038255247 ,85,6485960823979
6.0552071 ,Left ,61,6147779986364 ,48,1169553909897 ,85,7045610699826
6.0552114 ,Left ,61,6147779986364 ,48,1169553909897 ,85,7045610699826
6.0773655 ,Left ,61,7119904147771 ,48,1006795152516 ,85,7513834318913
6.0773822 ,Left ,61,7119904147771 ,48,1006795152516 ,85,7513834318913
6.0939123 ,Left ,61,7136305203615 ,48,0848493180673 ,85,8171236840249
6.0939164 ,Left ,61,7136305203615 ,48,0848493180673 ,85,8171236840249
6.1147028 ,Left ,61,7302089423178 ,48,0968252437675 ,85,8822168678291
6.1147044 ,Left ,61,7302089423178 ,48,0968252437675 ,85,8822168678291
6.1375342 ,Left ,61,793790093808 ,48,0984654009391 ,85,9576630471998
6.1375361 ,Left ,61,793790093808 ,48,0984654009391 ,85,9576630471998
6.1538548 ,Left ,61,8783818328968 ,48,0916039076147 ,86,036109835623
6.1538608 ,Left ,61,8783818328968 ,48,0916039076147 ,86,036109835623
6.1746889 ,Left ,61,9329950226341 ,48,0700427581259 ,86,1298071248037
6.1746906 ,Left ,61,9329950226341 ,48,0700427581259 ,86,1298071248037
6.1980125 ,Left ,61,9560870364386 ,48,0402804904149 ,86,2253867515577
6.1980204 ,Left ,61,9560870364386 ,48,0402804904149 ,86,2253867515577
6.2175574 ,Left ,61,9705230443915 ,48,004681394129 ,86,3196135767866
6.2175776 ,Left ,61,9705230443915 ,48,004681394129 ,86,3196135767866
6.2354381 ,Left ,62,0019002680716 ,47,9672728737438 ,86,407638786897
6.2354457 ,Left ,62,0019002680716 ,47,9672728737438 ,86,407638786897
6.2579939 ,Left ,62,0183703561901 ,47,9316655492653 ,86,4909661982999
6.2580019 ,Left ,62,0183703561901 ,47,9316655492653 ,86,4909661982999
6.2736141 ,Left ,62,0226687190225 ,47,9084751994112 ,86,5774917303882
6.2736158 ,Left ,62,0226687190225 ,47,9084751994112 ,86,5774917303882
6.2947069 ,Left ,62,0377695741048 ,47,8997423216933 ,86,6616770684553
6.2947088 ,Left ,62,0377695741048 ,47,8997423216933 ,86,6616770684553
6.3202528 ,Left ,62,0722515274972 ,47,889274900773 ,86,7477125576996
6.3202547 ,Left ,62,0722515274972 ,47,889274900773 ,86,7477125576996
6.333828 ,Left ,62,0880758760467 ,47,878455774341 ,86,8253849254637
6.33383 ,Left ,62,0880758760467 ,47,878455774341 ,86,8253849254637
6.3547335 ,Left ,62,1099588679726 ,47,862121490614 ,86,8869419814251
6.3547359 ,Left ,62,1099588679726 ,47,862121490614 ,86,8869419814251
6.378027 ,Left ,62,1296655924608 ,47,8444929307735 ,86,943476974988
6.3780352 ,Left ,62,1296655924608 ,47,8444929307735 ,86,943476974988
6.4016903 ,Left ,62,1460576711452 ,47,8420931716207 ,86,9923442164352
6.4016978 ,Left ,62,1460576711452 ,47,8420931716207 ,86,9923442164352
6.415521 ,Left ,62,1594792999386 ,47,8474797554264 ,87,0294196166556
6.4155287 ,Left ,62,1594792999386 ,47,8474797554264 ,87,0294196166556
6.4377577 ,Left ,62,1637471485785 ,47,8492872750501 ,87,0662184506957
6.4377652 ,Left ,62,1637471485785 ,47,8492872750501 ,87,0662184506957
6.4542416 ,Left ,62,1813820082634 ,47,8505300482694 ,87,0941994679042
6.454249 ,Left ,62,1813820082634 ,47,8505300482694 ,87,0941994679042
6.4749691 ,Left ,62,1909787181216 ,47,8629789537169 ,87,1141415455863
6.4749725 ,Left ,62,1909787181216 ,47,8629789537169 ,87,1141415455863
6.4974288 ,Left ,62,192787421198 ,47,8711098255608 ,87,1189118625365
6.4974323 ,Left ,62,192787421198 ,47,8711098255608 ,87,1189118625365
6.5138522 ,Left ,62,1976983944094 ,47,8701367205655 ,87,1209015817762
6.5138541 ,Left ,62,1976983944094 ,47,8701367205655 ,87,1209015817762
6.5346749 ,Left ,62,2127150723522 ,47,8760617327766 ,87,1211565708905
6.5346769 ,Left ,62,2127150723522 ,47,8760617327766 ,87,1211565708905
6.5572588 ,Left ,62,2166006203119 ,47,9021937828413 ,87,1236863846844
6.5572613 ,Left ,62,2166006203119 ,47,9021937828413 ,87,1236863846844
6.5739065 ,Left ,62,2164179191415 ,47,9378900707925 ,87,1148050988311
6.5739092 ,Left ,62,2164179191415 ,47,9378900707925 ,87,1148050988311
6.5949594 ,Left ,62,2030873425628 ,47,9720135555301 ,87,0956984853505
6.594962 ,Left ,62,2030873425628 ,47,9720135555301 ,87,0956984853505
6.6174563 ,Left ,62,216134689804 ,48,0057857328645 ,87,0691728138887
6.6174582 ,Left ,62,216134689804 ,48,0057857328645 ,87,0691728138887
6.6337288 ,Left ,62,2177876951002 ,48,0405719123363 ,87,0343444542439
6.6337311 ,Left ,62,2177876951002 ,48,0405719123363 ,87,0343444542439
6.6546995 ,Left ,62,1988772100955 ,48,0783173939607 ,86,9936982928201
6.6547013 ,Left ,62,1988772100955 ,48,0783173939607 ,86,9936982928201
6.6772862 ,Left ,62,1739671151797 ,48,1130810506563 ,86,9486288959302
6.6772883 ,Left ,62,1739671151797 ,48,1130810506563 ,86,9486288959302
6.6951951 ,Left ,62,1306376180039 ,48,1447432624732 ,86,8967586839477
6.6951975 ,Left ,62,1306376180039 ,48,1447432624732 ,86,8967586839477
6.7147799 ,Left ,62,1009454392679 ,48,163136305997 ,86,8393916305889
6.7147821 ,Left ,62,1009454392679 ,48,163136305997 ,86,8393916305889
6.7372934 ,Left ,62,0586979167024 ,48,161757411907 ,86,7898264213797
6.7372965 ,Left ,62,0586979167024 ,48,161757411907 ,86,7898264213797
6.7552553 ,Left ,61,9792805098612 ,48,1605593588328 ,86,7527217903613
6.7552587 ,Left ,61,9792805098612 ,48,1605593588328 ,86,7527217903613
6.7747455 ,Left ,61,8840160025438 ,48,1612007649938 ,86,7231993787177
6.7747474 ,Left ,61,8840160025438 ,48,1612007649938 ,86,7231993787177
6.7974047 ,Left ,61,8425758332689 ,48,1607525091892 ,86,7080666018436
6.7974068 ,Left ,61,8425758332689 ,48,1607525091892 ,86,7080666018436
6.815418 ,Left ,61,7751961130886 ,48,1293853877058 ,86,6902487992014
6.8154204 ,Left ,61,7751961130886 ,48,1293853877058 ,86,6902487992014
6.8347862 ,Left ,61,8252253345991 ,48,121243019649 ,86,6891904213305
6.8347883 ,Left ,61,8252253345991 ,48,121243019649 ,86,6891904213305
6.857253 ,Left ,61,8898072234765 ,48,133147260576 ,86,6557081109309
6.8572554 ,Left ,61,8898072234765 ,48,133147260576 ,86,6557081109309
6.8757523 ,Left ,61,868522306359 ,48,191330719092 ,86,5926288513661
6.8757553 ,Left ,61,868522306359 ,48,191330719092 ,86,5926288513661
6.8947859 ,Left ,61,8150880489606 ,48,2599815358103 ,86,5384295427147
6.8947877 ,Left ,61,8150880489606 ,48,2599815358103 ,86,5384295427147
6.9173684 ,Left ,61,8484224346341 ,48,3154996060855 ,86,4458338674729
6.917371 ,Left ,61,8484224346341 ,48,3154996060855 ,86,4458338674729
6.9352308 ,Left ,61,8330614718545 ,48,3308863266083 ,86,3421089368906
6.9352337 ,Left ,61,8330614718545 ,48,3308863266083 ,86,3421089368906
6.9577418 ,Left ,61,8158423284093 ,48,3525411550577 ,86,2440404348454
6.9577448 ,Left ,61,8158423284093 ,48,3525411550577 ,86,2440404348454
6.9775445 ,Left ,61,7387049233227 ,48,3454602881414 ,86,1376881315554
6.9775479 ,Left ,61,7387049233227 ,48,3454602881414 ,86,1376881315554
6.9952304 ,Left ,61,5983082968418 ,48,3023925980138 ,86,0371419398548
6.9952333 ,Left ,61,5983082968418 ,48,3023925980138 ,86,0371419398548
7.0148236 ,Left ,61,4759114489673 ,48,2434729809712 ,85,9483186846699
7.0148265 ,Left ,61,4759114489673 ,48,2434729809712 ,85,9483186846699
7.0373375 ,Left ,61,3824649446664 ,48,2200793072369 ,85,9200692679476
7.0373404 ,Left ,61,3824649446664 ,48,2200793072369 ,85,9200692679476
7.0553958 ,Left ,61,4311197728342 ,48,221078770797 ,85,9282170816643
7.055399 ,Left ,61,4311197728342 ,48,221078770797 ,85,9282170816643
7.074859 ,Left ,61,5801659573932 ,48,2319578634217 ,85,9578211939135
7.0748621 ,Left ,61,5801659573932 ,48,2319578634217 ,85,9578211939135
7.0973085 ,Left ,61,6380147384645 ,48,2423720252243 ,85,9635827858121
7.0973115 ,Left ,61,6380147384645 ,48,2423720252243 ,85,9635827858121
7.1156716 ,Left ,61,60550725045 ,48,2137483721867 ,85,9565748204588
7.115679 ,Left ,61,60550725045 ,48,2137483721867 ,85,9565748204588
7.1351752 ,Left ,61,5213205332894 ,48,2181426475369 ,85,9673165747256
7.1351829 ,Left ,61,5213205332894 ,48,2181426475369 ,85,9673165747256
7.1578592 ,Left ,61,4236605178869 ,48,2472818791811 ,85,982263364823
7.1578652 ,Left ,61,4236605178869 ,48,2472818791811 ,85,982263364823
7.1752364 ,Left ,61,4185060821216 ,48,233723716539 ,85,9944231441841
7.1752381 ,Left ,61,4185060821216 ,48,233723716539 ,85,9944231441841
7.1964533 ,Left ,61,370045042932 ,48,2190323448931 ,85,9863748477986
7.1964554 ,Left ,61,370045042932 ,48,2190323448931 ,85,9863748477986
7.2173097 ,Left ,61,4193302122959 ,48,1784000307951 ,86,0074549238632
7.2173123 ,Left ,61,4193302122959 ,48,1784000307951 ,86,0074549238632
7.2356432 ,Left ,61,534083079984 ,48,1726408803865 ,86,0068752965586
7.2356452 ,Left ,61,534083079984 ,48,1726408803865 ,86,0068752965586
7.255009 ,Left ,61,5814177787845 ,48,1671068611073 ,85,991308262742
7.2550111 ,Left ,61,5814177787845 ,48,1671068611073 ,85,991308262742
7.2772411 ,Left ,61,5560110381987 ,48,1219113595977 ,86,0072583561466
7.2772431 ,Left ,61,5560110381987 ,48,1219113595977 ,86,0072583561466
7.2951135 ,Left ,61,5028692361805 ,48,1448824710366 ,86,0321041057576
7.2951152 ,Left ,61,5028692361805 ,48,1448824710366 ,86,0321041057576
7.3163927 ,Left ,61,4791738499164 ,48,1617675587845 ,86,0393171873749
7.3163947 ,Left ,61,4791738499164 ,48,1617675587845 ,86,0393171873749
7.337785 ,Left ,61,4598900570513 ,48,1216377907982 ,86,0296103908646
7.3378059 ,Left ,61,4598900570513 ,48,1216377907982 ,86,0296103908646
7.3556917 ,Left ,61,3829715211348 ,48,0530664704633 ,86,0471214705189
7.3556991 ,Left ,61,3829715211348 ,48,0530664704633 ,86,0471214705189
7.3767481 ,Left ,61,3431400305134 ,47,969337185926 ,86,069399775334
7.3767533 ,Left ,61,3431400305134 ,47,969337185926 ,86,069399775334
7.3974924 ,Left ,61,3183541961948 ,47,9047645694583 ,86,0763730304327
7.3974965 ,Left ,61,3183541961948 ,47,9047645694583 ,86,0763730304327
7.4153559 ,Left ,61,271142054766 ,47,9392092923132 ,86,0427468180448
7.4153599 ,Left ,61,271142054766 ,47,9392092923132 ,86,0427468180448
7.436384 ,Left ,61,2941649739523 ,47,9903569808224 ,86,0117726292658
7.4363879 ,Left ,61,2941649739523 ,47,9903569808224 ,86,0117726292658
7.4574129 ,Left ,61,3406001569707 ,48,0328389109982 ,85,9764244347612
7.4574148 ,Left ,61,3406001569707 ,48,0328389109982 ,85,9764244347612
7.4753674 ,Left ,61,3260488341464 ,48,053265989348 ,85,9387454017433
7.4753694 ,Left ,61,3260488341464 ,48,053265989348 ,85,9387454017433
7.4984277 ,Left ,61,3026736219767 ,48,067281244204 ,85,9007811210687
7.4984356 ,Left ,61,3026736219767 ,48,067281244204 ,85,9007811210687
7.5179251 ,Left ,61,3022605560988 ,48,0841787611609 ,85,8581912114582
7.5179329 ,Left ,61,3022605560988 ,48,0841787611609 ,85,8581912114582
7.5358614 ,Left ,61,3196977797597 ,48,0985947447358 ,85,8129986928307
7.535896 ,Left ,61,3196977797597 ,48,0985947447358 ,85,8129986928307
7.5566637 ,Left ,61,333298688556 ,48,1130669593356 ,85,7623953134485
7.556669 ,Left ,61,333298688556 ,48,1130669593356 ,85,7623953134485
7.5774638 ,Left ,61,3412192098838 ,48,1090128962724 ,85,7175023092079
7.5774679 ,Left ,61,3412192098838 ,48,1090128962724 ,85,7175023092079
7.5955572 ,Left ,61,3368914040629 ,48,1100413511714 ,85,6750864067876
7.5955615 ,Left ,61,3368914040629 ,48,1100413511714 ,85,6750864067876
7.6163889 ,Left ,61,3427202763248 ,48,1202474890617 ,85,6403339669254
7.6163931 ,Left ,61,3427202763248 ,48,1202474890617 ,85,6403339669254
7.6372786 ,Left ,61,3463389648479 ,48,1320294319472 ,85,6177832710454
7.6372807 ,Left ,61,3463389648479 ,48,1320294319472 ,85,6177832710454
7.655239 ,Left ,61,3713358175141 ,48,1457903079483 ,85,5922253406642
7.655241 ,Left ,61,3713358175141 ,48,1457903079483 ,85,5922253406642
7.6776973 ,Left ,61,4052246063239 ,48,1471116988727 ,85,5601889625874
7.6776994 ,Left ,61,4052246063239 ,48,1471116988727 ,85,5601889625874
7.7047762 ,Left ,61,4177030847371 ,48,1506566355821 ,85,5202038703316
7.7047784 ,Left ,61,4177030847371 ,48,1506566355821 ,85,5202038703316
7.7151646 ,Left ,61,390170286943 ,48,14433100849 ,85,4676864196775
7.7151663 ,Left ,61,390170286943 ,48,14433100849 ,85,4676864196775
7.7378353 ,Left ,61,3518487770765 ,48,1442602100404 ,85,4089924594224
7.7378375 ,Left ,61,3518487770765 ,48,1442602100404 ,85,4089924594224
7.7572895 ,Left ,61,3486962031093 ,48,1423482797758 ,85,3557164104263
7.7572912 ,Left ,61,3486962031093 ,48,1423482797758 ,85,3557164104263
7.7756767 ,Left ,61,3647589061698 ,48,1509571266004 ,85,3195722597908
7.7756784 ,Left ,61,3647589061698 ,48,1509571266004 ,85,3195722597908
7.7978255 ,Left ,61,3762215513569 ,48,1852294384508 ,85,2840498186823
7.7978277 ,Left ,61,3762215513569 ,48,1852294384508 ,85,2840498186823
7.8173185 ,Left ,61,3260695239584 ,48,1568420567421 ,85,248984154883
7.8173217 ,Left ,61,3260695239584 ,48,1568420567421 ,85,248984154883
7.8352145 ,Left ,61,2400955592214 ,48,0677016211849 ,85,2168732624248
7.8352175 ,Left ,61,2400955592214 ,48,0677016211849 ,85,2168732624248
7.8577761 ,Left ,61,0974728710242 ,48,0684857478582 ,85,2251089890426
7.8577785 ,Left ,61,0974728710242 ,48,0684857478582 ,85,2251089890426
7.8777467 ,Left ,61,1157809632445 ,48,1271931223913 ,85,2716357362821
7.8777542 ,Left ,61,1157809632445 ,48,1271931223913 ,85,2716357362821
7.8945951 ,Left ,61,217110408403 ,48,1594086879974 ,85,3068302844498
7.8945977 ,Left ,61,217110408403 ,48,1594086879974 ,85,3068302844498
7.9167811 ,Left ,61,1804246098542 ,48,1473291039384 ,85,3586116281672
7.9167828 ,Left ,61,1804246098542 ,48,1473291039384 ,85,3586116281672
7.9378902 ,Left ,61,1635513859329 ,48,1069874904558 ,85,4124930486245
7.9378921 ,Left ,61,1635513859329 ,48,1069874904558 ,85,4124930486245
7.9543315 ,Left ,61,1939862324296 ,48,1424840284288 ,85,4877340245953
7.9543334 ,Left ,61,1939862324296 ,48,1424840284288 ,85,4877340245953
7.9845229 ,Left ,61,1963224135666 ,48,2285007847059 ,85,5461622702998
7.9845257 ,Left ,61,1963224135666 ,48,2285007847059 ,85,5461622702998
7.9980875 ,Left ,61,2641042406091 ,48,2747529391321 ,85,5653702957512
7.9980896 ,Left ,61,2641042406091 ,48,2747529391321 ,85,5653702957512
8.0144132 ,Left ,61,2696997232089 ,48,2662314613912 ,85,57087068266
8.0144154 ,Left ,61,2696997232089 ,48,2662314613912 ,85,57087068266
8.0368952 ,Left ,61,1555656443546 ,48,2186635077861 ,85,5869252511376
8.0368975 ,Left ,61,1555656443546 ,48,2186635077861 ,85,5869252511376
8.0579067 ,Left ,61,0968152057112 ,48,1419541661627 ,85,6009945403576
8.0579084 ,Left ,61,0968152057112 ,48,1419541661627 ,85,6009945403576
8.074962 ,Left ,61,1258494550936 ,48,0490962196193 ,85,6475360713013
8.0749694 ,Left ,61,1258494550936 ,48,0490962196193 ,85,6475360713013
8.0975047 ,Left ,61,179259473339 ,47,9949699678164 ,85,7087873491042
8.0975127 ,Left ,61,179259473339 ,47,9949699678164 ,85,7087873491042
8.1186023 ,Left ,61,2404284190238 ,48,0179380813823 ,85,758678955307
8.1186102 ,Left ,61,2404284190238 ,48,0179380813823 ,85,758678955307
8.1348969 ,Left ,61,3134997567122 ,48,0400582493914 ,85,80558291934
8.1349044 ,Left ,61,3134997567122 ,48,0400582493914 ,85,80558291934
8.1573222 ,Left ,61,4251176936807 ,48,0366797800535 ,85,8424101270235
8.1573263 ,Left ,61,4251176936807 ,48,0366797800535 ,85,8424101270235
8.1782587 ,Left ,61,4444038476505 ,48,0229744087738 ,85,9071082509694
8.1782651 ,Left ,61,4444038476505 ,48,0229744087738 ,85,9071082509694
8.1945547 ,Left ,61,4755015828454 ,48,0297751188089 ,85,9807787685934
8.1945586 ,Left ,61,4755015828454 ,48,0297751188089 ,85,9807787685934
8.217052 ,Left ,61,5546753293053 ,48,0297570751977 ,86,0687571108246
8.2170563 ,Left ,61,5546753293053 ,48,0297570751977 ,86,0687571108246
8.2384386 ,Left ,61,6313739871727 ,48,0307718152599 ,86,1557746432896
8.2384461 ,Left ,61,6313739871727 ,48,0307718152599 ,86,1557746432896
8.2624543 ,Left ,61,6866730332114 ,48,0203472833546 ,86,2402344205184
8.2624644 ,Left ,61,6866730332114 ,48,0203472833546 ,86,2402344205184
8.2773984 ,Left ,61,7433890581217 ,48,0222954052942 ,86,3234486837594
8.277406 ,Left ,61,7433890581217 ,48,0222954052942 ,86,3234486837594
8.2997421 ,Left ,61,7508490125096 ,48,0052428870432 ,86,4113856016355
8.2997464 ,Left ,61,7508490125096 ,48,0052428870432 ,86,4113856016355
8.3145343 ,Left ,61,7860818649364 ,47,9861415187733 ,86,49348108894
8.3145366 ,Left ,61,7860818649364 ,47,9861415187733 ,86,49348108894
8.3364815 ,Left ,61,8421623869792 ,47,9690285036809 ,86,5685220893389
8.3364832 ,Left ,61,8421623869792 ,47,9690285036809 ,86,5685220893389
8.3580699 ,Left ,61,8749906235895 ,47,9485780824738 ,86,6438926560519
8.3580721 ,Left ,61,8749906235895 ,47,9485780824738 ,86,6438926560519
8.3743699 ,Left ,61,9228526533144 ,47,9245279629862 ,86,707720148903
8.3743718 ,Left ,61,9228526533144 ,47,9245279629862 ,86,707720148903
8.3970581 ,Left ,61,9172678290019 ,47,8925914816017 ,86,7756611912813
8.3970605 ,Left ,61,9172678290019 ,47,8925914816017 ,86,7756611912813
8.4178778 ,Left ,61,9266988226065 ,47,8642980419026 ,86,8380749234608
8.4178797 ,Left ,61,9266988226065 ,47,8642980419026 ,86,8380749234608
8.4344339 ,Left ,61,9648433740344 ,47,8508250329466 ,86,8923858663633
8.4344358 ,Left ,61,9648433740344 ,47,8508250329466 ,86,8923858663633
8.4569585 ,Left ,61,9919048579457 ,47,8478021527233 ,86,9371898893924
8.4569614 ,Left ,61,9919048579457 ,47,8478021527233 ,86,9371898893924
8.4783735 ,Left ,62,0078872953031 ,47,8542223891607 ,86,9812450347172
8.4783788 ,Left ,62,0078872953031 ,47,8542223891607 ,86,9812450347172
8.494666 ,Left ,62,0035033256641 ,47,8594715240038 ,87,0182026498944
8.4946708 ,Left ,62,0035033256641 ,47,8594715240038 ,87,0182026498944
8.5172318 ,Left ,62,0187029073046 ,47,856974666195 ,87,0540754387023
8.5172367 ,Left ,62,0187029073046 ,47,856974666195 ,87,0540754387023
8.5396889 ,Left ,62,0442416308214 ,47,8549802290964 ,87,0752166563047
8.5396931 ,Left ,62,0442416308214 ,47,8549802290964 ,87,0752166563047
8.5548288 ,Left ,62,0579092896218 ,47,8674710203394 ,87,0873628397827
8.5548373 ,Left ,62,0579092896218 ,47,8674710203394 ,87,0873628397827
8.5770463 ,Left ,62,052327310655 ,47,8842942337503 ,87,0979882878025
8.5770482 ,Left ,62,052327310655 ,47,8842942337503 ,87,0979882878025
8.600022 ,Left ,62,0514753815483 ,47,8930702272949 ,87,104505177015
8.6000423 ,Left ,62,0514753815483 ,47,8930702272949 ,87,104505177015
8.6149578 ,Left ,62,0648181521459 ,47,8979480127152 ,87,106054449904
8.6149654 ,Left ,62,0648181521459 ,47,8979480127152 ,87,106054449904
8.6374331 ,Left ,62,0747374037817 ,47,9124458606761 ,87,102679679087
8.6374407 ,Left ,62,0747374037817 ,47,9124458606761 ,87,102679679087
8.6597617 ,Left ,62,0804713144868 ,47,9348235910119 ,87,0921791578591
8.6597691 ,Left ,62,0804713144868 ,47,9348235910119 ,87,0921791578591
8.6746999 ,Left ,62,0714239972357 ,47,9583335396487 ,87,0875733463824
8.6747052 ,Left ,62,0714239972357 ,47,9583335396487 ,87,0875733463824
8.7045977 ,Left ,62,0664256819367 ,47,9844207958323 ,87,0678532220368
8.7046048 ,Left ,62,0664256819367 ,47,9844207958323 ,87,0678532220368
8.7195836 ,Left ,62,0549538380713 ,48,0105964258268 ,87,0342872221941
8.7195856 ,Left ,62,0549538380713 ,48,0105964258268 ,87,0342872221941
8.7343153 ,Left ,62,0445929424682 ,48,0351645480081 ,86,9946554612763
8.734317 ,Left ,62,0445929424682 ,48,0351645480081 ,86,9946554612763
8.7569384 ,Left ,62,0309466425313 ,48,0576534155872 ,86,9502417655032
8.7569401 ,Left ,62,0309466425313 ,48,0576534155872 ,86,9502417655032
8.7795206 ,Left ,61,9902373133798 ,48,0771262398423 ,86,9022570049253
8.7795228 ,Left ,61,9902373133798 ,48,0771262398423 ,86,9022570049253
8.7942834 ,Left ,61,9525041182809 ,48,0830580133366 ,86,8689612534568
8.7942911 ,Left ,61,9525041182809 ,48,0830580133366 ,86,8689612534568
8.8178213 ,Left ,61,9097750612486 ,48,0733645728469 ,86,846670318891
8.8178288 ,Left ,61,9097750612486 ,48,0733645728469 ,86,846670318891
8.8400199 ,Left ,61,8765609465335 ,48,065241339386 ,86,8310395866359
8.8400405 ,Left ,61,8765609465335 ,48,065241339386 ,86,8310395866359
8.8540212 ,Left ,61,8461745727443 ,48,063601603562 ,86,8197208181362
8.8540264 ,Left ,61,8461745727443 ,48,063601603562 ,86,8197208181362
8.8773032 ,Left ,61,8291091536758 ,48,0482113762507 ,86,8040151016839
8.8773087 ,Left ,61,8291091536758 ,48,0482113762507 ,86,8040151016839
8.899544 ,Left ,61,7044387421789 ,48,03197092365 ,86,7615307184747
8.8995485 ,Left ,61,7044387421789 ,48,03197092365 ,86,7615307184747
8.9206874 ,Left ,61,6755603724785 ,48,0219971301826 ,86,7297042021303
8.9206915 ,Left ,61,6755603724785 ,48,0219971301826 ,86,7297042021303
8.9373347 ,Left ,61,6996773988599 ,48,0517231149476 ,86,6952059673073
8.937339 ,Left ,61,6996773988599 ,48,0517231149476 ,86,6952059673073
8.9595778 ,Left ,61,7374060372349 ,48,099556757658 ,86,6391857701816
8.9595818 ,Left ,61,7374060372349 ,48,099556757658 ,86,6391857701816
8.9806775 ,Left ,61,7621862414257 ,48,1770857447813 ,86,5825434553011
8.9806794 ,Left ,61,7621862414257 ,48,1770857447813 ,86,5825434553011
8.9970453 ,Left ,61,7748766250969 ,48,2524938672776 ,86,5301261292034
8.9970472 ,Left ,61,7748766250969 ,48,2524938672776 ,86,5301261292034
9.0193628 ,Left ,61,7394946048817 ,48,2813549267972 ,86,4790944056262
9.0193645 ,Left ,61,7394946048817 ,48,2813549267972 ,86,4790944056262
9.0338206 ,Left ,61,7088470582496 ,48,3031371203033 ,86,4078944902109
9.0338227 ,Left ,61,7088470582496 ,48,3031371203033 ,86,4078944902109
9.0569863 ,Left ,61,6148530749289 ,48,2630560131775 ,86,3148831804602
9.0569897 ,Left ,61,6148530749289 ,48,2630560131775 ,86,3148831804602
9.0796309 ,Left ,61,4976129391396 ,48,2034501364734 ,86,2261057901716
9.0796359 ,Left ,61,4976129391396 ,48,2034501364734 ,86,2261057901716
9.1007092 ,Left ,61,3926586331328 ,48,167599740548 ,86,1952978423751
9.1007141 ,Left ,61,3926586331328 ,48,167599740548 ,86,1952978423751
9.1168303 ,Left ,61,3765425292049 ,48,1551127170207 ,86,2040042647058
9.1168321 ,Left ,61,3765425292049 ,48,1551127170207 ,86,2040042647058
9.1395526 ,Left ,61,4817871957672 ,48,1771541390485 ,86,2217248323891
9.139556 ,Left ,61,4817871957672 ,48,1771541390485 ,86,2217248323891
9.160409 ,Left ,61,6259750488054 ,48,1951983057569 ,86,240762844708
9.1604108 ,Left ,61,6259750488054 ,48,1951983057569 ,86,240762844708
9.1768539 ,Left ,61,6247931941092 ,48,1656167525083 ,86,2376827895469
9.1768555 ,Left ,61,6247931941092 ,48,1656167525083 ,86,2376827895469
9.1996209 ,Left ,61,6117630798868 ,48,1425246216671 ,86,2402230351126
9.1996252 ,Left ,61,6117630798868 ,48,1425246216671 ,86,2402230351126
9.2204499 ,Left ,61,4560750948471 ,48,1729084977843 ,86,2733450133945
9.220452 ,Left ,61,4560750948471 ,48,1729084977843 ,86,2733450133945
9.2383305 ,Left ,61,4872785351848 ,48,2188800848515 ,86,2612377161171
9.2383399 ,Left ,61,4872785351848 ,48,2188800848515 ,86,2612377161171
9.2595456 ,Left ,61,5272865941839 ,48,2302491410963 ,86,2400847063325
9.2595496 ,Left ,61,5272865941839 ,48,2302491410963 ,86,2400847063325
9.2803899 ,Left ,61,5646888499917 ,48,2353320556492 ,86,2526717841235
9.2803923 ,Left ,61,5646888499917 ,48,2353320556492 ,86,2526717841235
9.2969637 ,Left ,61,7044017629047 ,48,2722757154191 ,86,2328861645948
9.2969661 ,Left ,61,7044017629047 ,48,2722757154191 ,86,2328861645948
9.3196501 ,Left ,61,7429679374319 ,48,2908793963338 ,86,2033432703582
9.3196555 ,Left ,61,7429679374319 ,48,2908793963338 ,86,2033432703582
9.3404701 ,Left ,61,6367994035621 ,48,2530982300167 ,86,1896350502218
9.340472 ,Left ,61,6367994035621 ,48,2530982300167 ,86,1896350502218
9.3569578 ,Left ,61,5913777787315 ,48,2621423730552 ,86,2113764261277
9.3569596 ,Left ,61,5913777787315 ,48,2621423730552 ,86,2113764261277
9.3793569 ,Left ,61,5093066590787 ,48,2776432985081 ,86,2212199423559
9.3793602 ,Left ,61,5093066590787 ,48,2776432985081 ,86,2212199423559
9.4004694 ,Left ,61,5175203098123 ,48,2333655364766 ,86,1866216488803
9.4004714 ,Left ,61,5175203098123 ,48,2333655364766 ,86,1866216488803
9.417023 ,Left ,61,4439641595486 ,48,1388447952506 ,86,190914160729
9.417026 ,Left ,61,4439641595486 ,48,1388447952506 ,86,190914160729
9.4392965 ,Left ,61,4115063076518 ,48,0601218450998 ,86,2089641795945
9.4392998 ,Left ,61,4115063076518 ,48,0601218450998 ,86,2089641795945
9.4604119 ,Left ,61,4006456800745 ,48,0127124896126 ,86,2183903287352
9.4604137 ,Left ,61,4006456800745 ,48,0127124896126 ,86,2183903287352
9.4770751 ,Left ,61,3853438632692 ,48,0443661918108 ,86,1813879315479
9.4770773 ,Left ,61,3853438632692 ,48,0443661918108 ,86,1813879315479
9.4995739 ,Left ,61,4007594089485 ,48,1091034178185 ,86,154731899782
9.4995835 ,Left ,61,4007594089485 ,48,1091034178185 ,86,154731899782
9.5205518 ,Left ,61,4253217503895 ,48,1542193873735 ,86,1299457903004
9.5205547 ,Left ,61,4253217503895 ,48,1542193873735 ,86,1299457903004
9.5363207 ,Left ,61,4179649186722 ,48,17509990905 ,86,101073552437
9.5363236 ,Left ,61,4179649186722 ,48,17509990905 ,86,101073552437
9.5596404 ,Left ,61,391656822278 ,48,1996127328547 ,86,0632464419446
9.5596455 ,Left ,61,391656822278 ,48,1996127328547 ,86,0632464419446
9.582031 ,Left ,61,345701065893 ,48,2066792980667 ,86,0100100605301
9.5820342 ,Left ,61,345701065893 ,48,2066792980667 ,86,0100100605301
9.5968549 ,Left ,61,3298787391684 ,48,2219937463034 ,85,9390877489205
9.5968567 ,Left ,61,3298787391684 ,48,2219937463034 ,85,9390877489205
9.619316 ,Left ,61,313212358203 ,48,248493628353 ,85,8542057337676
9.6193177 ,Left ,61,313212358203 ,48,248493628353 ,85,8542057337676
9.6418599 ,Left ,61,2817807005557 ,48,2494507801111 ,85,7632408347235
9.6418618 ,Left ,61,2817807005557 ,48,2494507801111 ,85,7632408347235
9.6568499 ,Left ,61,2371002543644 ,48,2536851728537 ,85,6909803313449
9.6568518 ,Left ,61,2371002543644 ,48,2536851728537 ,85,6909803313449
9.6795603 ,Left ,61,195668085381 ,48,2631409471807 ,85,6204259349833
9.6795628 ,Left ,61,195668085381 ,48,2631409471807 ,85,6204259349833
9.7021605 ,Left ,61,1893068230879 ,48,2578187576634 ,85,552988443387
9.7021627 ,Left ,61,1893068230879 ,48,2578187576634 ,85,552988443387
9.716438 ,Left ,61,1872385999931 ,48,2489667768323 ,85,5010920820472
9.7164406 ,Left ,61,1872385999931 ,48,2489667768323 ,85,5010920820472
9.739603 ,Left ,61,1669808998737 ,48,2322697528514 ,85,4673136975725
9.7396056 ,Left ,61,1669808998737 ,48,2322697528514 ,85,4673136975725
9.7620127 ,Left ,61,159474878995 ,48,2023450513727 ,85,4285326326435
9.7620159 ,Left ,61,159474878995 ,48,2023450513727 ,85,4285326326435
9.7763449 ,Left ,61,1633612534011 ,48,1680171766594 ,85,3496725071996
9.7763482 ,Left ,61,1633612534011 ,48,1680171766594 ,85,3496725071996
9.7999658 ,Left ,61,092435921945 ,48,1057648278625 ,85,3019485202777
9.7999814 ,Left ,61,092435921945 ,48,1057648278625 ,85,3019485202777
9.8219306 ,Left ,61,0074751534947 ,48,0663556694223 ,85,3181916599791
9.8219325 ,Left ,61,0074751534947 ,48,0663556694223 ,85,3181916599791
9.8361921 ,Left ,61,0373780986505 ,48,0783636208429 ,85,3602519284227
9.8361938 ,Left ,61,0373780986505 ,48,0783636208429 ,85,3602519284227
9.8595347 ,Left ,61,1333069514998 ,48,1121715603364 ,85,4028003571251
9.8595366 ,Left ,61,1333069514998 ,48,1121715603364 ,85,4028003571251
9.881881 ,Left ,61,2209250052073 ,48,1035461406796 ,85,4478239743575
9.8818827 ,Left ,61,2209250052073 ,48,1035461406796 ,85,4478239743575
9.9030063 ,Left ,61,2938918950395 ,48,0672579496173 ,85,4772234744941
9.9030083 ,Left ,61,2938918950395 ,48,0672579496173 ,85,4772234744941
9.9196795 ,Left ,61,2591505037034 ,48,0581692784653 ,85,5376298718518
9.9196819 ,Left ,61,2591505037034 ,48,0581692784653 ,85,5376298718518
9.9420258 ,Left ,61,2270851178262 ,48,1347542573467 ,85,617283572244
9.9420278 ,Left ,61,2270851178262 ,48,1347542573467 ,85,617283572244
9.963183 ,Left ,61,2189559610361 ,48,213693002849 ,85,6676395172971
9.9631854 ,Left ,61,2189559610361 ,48,213693002849 ,85,6676395172971
9.979532 ,Left ,61,293700822229 ,48,2375590027443 ,85,6859113000186
9.979534 ,Left ,61,293700822229 ,48,2375590027443 ,85,6859113000186
10.0019035 ,Left ,61,2753339205509 ,48,2020357214573 ,85,703216673432
10.0019054 ,Left ,61,2753339205509 ,48,2020357214573 ,85,703216673432
10.0233221 ,Left ,61,1908414727886 ,48,1546694552917 ,85,7202918525989
10.0233251 ,Left ,61,1908414727886 ,48,1546694552917 ,85,7202918525989
10.0393566 ,Left ,61,1152757207759 ,48,0936547491102 ,85,7620965615081
10.0393592 ,Left ,61,1152757207759 ,48,0936547491102 ,85,7620965615081
10.0621447 ,Left ,61,149509408355 ,48,0351131676944 ,85,8104697358307
10.0621476 ,Left ,61,149509408355 ,48,0351131676944 ,85,8104697358307
10.0831051 ,Left ,61,2659054300514 ,48,0367612706163 ,85,832903180413
10.0831086 ,Left ,61,2659054300514 ,48,0367612706163 ,85,832903180413
10.099609 ,Left ,61,3647000794487 ,48,069421461411 ,85,8559256176813
10.0996121 ,Left ,61,3647000794487 ,48,069421461411 ,85,8559256176813
10.1218021 ,Left ,61,4391635279758 ,48,0764973319035 ,85,8734178549758
10.1218038 ,Left ,61,4391635279758 ,48,0764973319035 ,85,8734178549758
10.1432286 ,Left ,61,4972386894175 ,48,0530264471769 ,85,8900737368845
10.1432309 ,Left ,61,4972386894175 ,48,0530264471769 ,85,8900737368845
10.1595433 ,Left ,61,5100057431145 ,48,0419647303353 ,85,9244810233994
10.1595453 ,Left ,61,5100057431145 ,48,0419647303353 ,85,9244810233994
10.1820017 ,Left ,61,5564591005434 ,48,0384234517325 ,85,9680625753659
10.1820047 ,Left ,61,5564591005434 ,48,0384234517325 ,85,9680625753659
10.2029268 ,Left ,61,6161774298423 ,48,0367004514182 ,86,015927377593
10.2029285 ,Left ,61,6161774298423 ,48,0367004514182 ,86,015927377593
10.2192126 ,Left ,61,6806034572783 ,48,0421286605691 ,86,0687360717718
10.2192143 ,Left ,61,6806034572783 ,48,0421286605691 ,86,0687360717718
10.2433304 ,Left ,61,7097710264581 ,48,0343618178724 ,86,1328930938183
10.2433328 ,Left ,61,7097710264581 ,48,0343618178724 ,86,1328930938183
10.2631463 ,Left ,61,7418684545854 ,48,0279960781911 ,86,2030972356141
10.2631485 ,Left ,61,7418684545854 ,48,0279960781911 ,86,2030972356141
10.2793988 ,Left ,61,7973612039539 ,48,0247867400223 ,86,2732585403933
10.2794015 ,Left ,61,7973612039539 ,48,0247867400223 ,86,2732585403933
10.3020388 ,Left ,61,8244676980974 ,48,0197546669216 ,86,3517037467218
10.3020412 ,Left ,61,8244676980974 ,48,0197546669216 ,86,3517037467218
10.3230225 ,Left ,61,8784321227195 ,48,0092528635361 ,86,4319142993014
10.323025 ,Left ,61,8784321227195 ,48,0092528635361 ,86,4319142993014
10.3396355 ,Left ,61,9123288156473 ,47,9918529062278 ,86,5124577833609
10.3396374 ,Left ,61,9123288156473 ,47,9918529062278 ,86,5124577833609
10.3679951 ,Left ,61,9316669644397 ,47,9670346034949 ,86,5962366143186
10.3679977 ,Left ,61,9316669644397 ,47,9670346034949 ,86,5962366143186
10.3830462 ,Left ,61,9671389280454 ,47,9441239607919 ,86,6741681973295
10.3830481 ,Left ,61,9671389280454 ,47,9441239607919 ,86,6741681973295
10.3995381 ,Left ,61,9771060632865 ,47,9240540065736 ,86,7457259303532
10.3995402 ,Left ,61,9771060632865 ,47,9240540065736 ,86,7457259303532
10.4219524 ,Left ,61,9979974266252 ,47,9101242651138 ,86,8196076546354
10.4219551 ,Left ,61,9979974266252 ,47,9101242651138 ,86,8196076546354
10.44325 ,Left ,62,0258993419312 ,47,8984642979713 ,86,8887828773918
10.443254 ,Left ,62,0258993419312 ,47,8984642979713 ,86,8887828773918
10.4595289 ,Left ,62,0492447123572 ,47,8949123395805 ,86,9489516684875
10.4595309 ,Left ,62,0492447123572 ,47,8949123395805 ,86,9489516684875
10.4823088 ,Left ,62,0618118937304 ,47,8959519918317 ,86,9968609643728
10.4823109 ,Left ,62,0618118937304 ,47,8959519918317 ,86,9968609643728
10.5046069 ,Left ,62,0790049929251 ,47,9005397039842 ,87,0406274489148
10.5046089 ,Left ,62,0790049929251 ,47,9005397039842 ,87,0406274489148
10.519603 ,Left ,62,0859976117292 ,47,9058700434247 ,87,0771012328694
10.5196054 ,Left ,62,0859976117292 ,47,9058700434247 ,87,0771012328694
10.5417883 ,Left ,62,1046968236773 ,47,9095391346436 ,87,1061278872945
10.54179 ,Left ,62,1046968236773 ,47,9095391346436 ,87,1061278872945
10.56457 ,Left ,62,1174804391785 ,47,9117807239296 ,87,1321448067196
10.5645726 ,Left ,62,1174804391785 ,47,9117807239296 ,87,1321448067196
10.5793674 ,Left ,62,1254571217249 ,47,9110543440044 ,87,1489893585195
10.5793692 ,Left ,62,1254571217249 ,47,9110543440044 ,87,1489893585195
10.601989 ,Left ,62,1306173324077 ,47,9119612118575 ,87,1644771969898
10.6019919 ,Left ,62,1306173324077 ,47,9119612118575 ,87,1644771969898
10.6241764 ,Left ,62,1209260980239 ,47,923388216076 ,87,1724161490751
10.624178 ,Left ,62,1209260980239 ,47,923388216076 ,87,1724161490751
10.6387269 ,Left ,62,1138697796019 ,47,932685033593 ,87,1771539431005
10.6387288 ,Left ,62,1138697796019 ,47,932685033593 ,87,1771539431005
10.661883 ,Left ,62,108657719194 ,47,9422718355451 ,87,1704314874718
10.6618851 ,Left ,62,108657719194 ,47,9422718355451 ,87,1704314874718
10.6843902 ,Left ,62,0846620712068 ,47,9706400508609 ,87,1610796846082
10.6843924 ,Left ,62,0846620712068 ,47,9706400508609 ,87,1610796846082
10.698721 ,Left ,62,0700609592638 ,47,9976702908982 ,87,1404884782945
10.6987232 ,Left ,62,0700609592638 ,47,9976702908982 ,87,1404884782945
10.7220101 ,Left ,62,0547642904761 ,48,0097878042954 ,87,1163739725879
10.7220132 ,Left ,62,0547642904761 ,48,0097878042954 ,87,1163739725879
10.7444646 ,Left ,62,0267039141235 ,48,0156942319778 ,87,0882691768172
10.744468 ,Left ,62,0267039141235 ,48,0156942319778 ,87,0882691768172
10.7588429 ,Left ,62,0020769141419 ,48,0252029535654 ,87,060713785743
10.7588464 ,Left ,62,0020769141419 ,48,0252029535654 ,87,060713785743
10.7820598 ,Left ,61,9698639492351 ,48,0427100615959 ,87,0402219263973
10.7820631 ,Left ,61,9698639492351 ,48,0427100615959 ,87,0402219263973
10.8046519 ,Left ,61,9383657407113 ,48,0604788089543 ,87,0130343865809
10.8046554 ,Left ,61,9383657407113 ,48,0604788089543 ,87,0130343865809
10.8188533 ,Left ,61,8640728252518 ,48,0404876760554 ,86,9842907103036
10.8188549 ,Left ,61,8640728252518 ,48,0404876760554 ,86,9842907103036
10.8428738 ,Left ,61,7951470679967 ,48,0296876490938 ,86,9608623590263
10.8428814 ,Left ,61,7951470679967 ,48,0296876490938 ,86,9608623590263
10.8650207 ,Left ,61,6883174392587 ,48,0561238545658 ,86,9623677471349
10.8650283 ,Left ,61,6883174392587 ,48,0561238545658 ,86,9623677471349
10.8792284 ,Left ,61,6877295654608 ,48,0853872900019 ,86,9571289981199
10.8792358 ,Left ,61,6877295654608 ,48,0853872900019 ,86,9571289981199
10.9024129 ,Left ,61,7764029945748 ,48,1255662139738 ,86,9415599949789
10.9024207 ,Left ,61,7764029945748 ,48,1255662139738 ,86,9415599949789
10.9254879 ,Left ,61,8248695819951 ,48,1869729615919 ,86,8918625711316
10.9254957 ,Left ,61,8248695819951 ,48,1869729615919 ,86,8918625711316
10.9389059 ,Left ,61,7878208538739 ,48,2234516332699 ,86,8445915707437
10.93891 ,Left ,61,7878208538739 ,48,2234516332699 ,86,8445915707437
10.9621108 ,Left ,61,7981613549424 ,48,2872573414034 ,86,7893704536955
10.9621184 ,Left ,61,7981613549424 ,48,2872573414034 ,86,7893704536955
10.9844494 ,Left ,61,7827777867943 ,48,3321512829722 ,86,72460419195
10.9844517 ,Left ,61,7827777867943 ,48,3321512829722 ,86,72460419195
11.005681 ,Left ,61,785919252561 ,48,3769335698975 ,86,6379506778672
11.0056836 ,Left ,61,785919252561 ,48,3769335698975 ,86,6379506778672
11.0219898 ,Left ,61,7440604527263 ,48,3963496358913 ,86,5294809555313
11.0219926 ,Left ,61,7440604527263 ,48,3963496358913 ,86,5294809555313
11.0445339 ,Left ,61,6269050513479 ,48,3650805679362 ,86,4310218505629
11.044537 ,Left ,61,6269050513479 ,48,3650805679362 ,86,4310218505629
11.0664639 ,Left ,61,49862255582 ,48,3251423208998 ,86,3270683506775
11.0664849 ,Left ,61,49862255582 ,48,3251423208998 ,86,3270683506775
11.0818296 ,Left ,61,409308304903 ,48,3005523251705 ,86,2913283878193
11.0818312 ,Left ,61,409308304903 ,48,3005523251705 ,86,2913283878193
11.1045047 ,Left ,61,4817176140281 ,48,2804920931219 ,86,2953797865103
11.1045066 ,Left ,61,4817176140281 ,48,2804920931219 ,86,2953797865103
11.1254275 ,Left ,61,6312548157515 ,48,3026642661978 ,86,3216227465684
11.1254324 ,Left ,61,6312548157515 ,48,3026642661978 ,86,3216227465684
11.141761 ,Left ,61,7516813775716 ,48,3129251613643 ,86,3374223994547
11.1417627 ,Left ,61,7516813775716 ,48,3129251613643 ,86,3374223994547
11.1645866 ,Left ,61,7305343984481 ,48,2629645182055 ,86,3155828219344
11.1645896 ,Left ,61,7305343984481 ,48,2629645182055 ,86,3155828219344
11.1854403 ,Left ,61,7155219745018 ,48,2187706627612 ,86,3232111661337
11.1854422 ,Left ,61,7155219745018 ,48,2187706627612 ,86,3232111661337
11.2018051 ,Left ,61,5827149936747 ,48,238399542478 ,86,3567121165964
11.201807 ,Left ,61,5827149936747 ,48,238399542478 ,86,3567121165964
11.2244848 ,Left ,61,5456300443692 ,48,2362315483925 ,86,3560914178508
11.2244875 ,Left ,61,5456300443692 ,48,2362315483925 ,86,3560914178508
11.2454984 ,Left ,61,53218644157 ,48,220389313522 ,86,3192513041486
11.2455046 ,Left ,61,53218644157 ,48,220389313522 ,86,3192513041486
11.2618785 ,Left ,61,5627279946577 ,48,196061653535 ,86,2956279576392
11.2618819 ,Left ,61,5627279946577 ,48,196061653535 ,86,2956279576392
11.2844418 ,Left ,61,7188025446378 ,48,1779797614182 ,86,2865987460933
11.284444 ,Left ,61,7188025446378 ,48,1779797614182 ,86,2865987460933
11.3055671 ,Left ,61,7192047372964 ,48,1530488456983 ,86,2660769066033
11.3055705 ,Left ,61,7192047372964 ,48,1530488456983 ,86,2660769066033
11.3219636 ,Left ,61,6491345420991 ,48,1465372034197 ,86,2690203800031
11.321966 ,Left ,61,6491345420991 ,48,1465372034197 ,86,2690203800031
11.3444925 ,Left ,61,5687580148441 ,48,1770483845478 ,86,2591236804889
11.3444945 ,Left ,61,5687580148441 ,48,1770483845478 ,86,2591236804889
11.3654376 ,Left ,61,5584597657864 ,48,1612030331287 ,86,2194898981614
11.3654393 ,Left ,61,5584597657864 ,48,1612030331287 ,86,2194898981614
11.3820147 ,Left ,61,5332660153518 ,48,0907914927869 ,86,1905504936028
11.3820169 ,Left ,61,5332660153518 ,48,0907914927869 ,86,1905504936028
11.4044637 ,Left ,61,4549086661708 ,48,0108225425409 ,86,1933225044025
11.4044658 ,Left ,61,4549086661708 ,48,0108225425409 ,86,1933225044025
11.4255122 ,Left ,61,4535029164293 ,47,9693658782723 ,86,1974116400251
11.4255145 ,Left ,61,4535029164293 ,47,9693658782723 ,86,1974116400251
11.442012 ,Left ,61,4805708979358 ,47,967330857152 ,86,184869777541
11.4420142 ,Left ,61,4805708979358 ,47,967330857152 ,86,184869777541
11.4647312 ,Left ,61,4932350529465 ,48,0239672148132 ,86,1584290203885
11.4647349 ,Left ,61,4932350529465 ,48,0239672148132 ,86,1584290203885
11.487433 ,Left ,61,5154572164076 ,48,0702886001552 ,86,1344043774805
11.4874381 ,Left ,61,5154572164076 ,48,0702886001552 ,86,1344043774805
11.5021217 ,Left ,61,4862359110969 ,48,0905741154344 ,86,1185215565637
11.5021266 ,Left ,61,4862359110969 ,48,0905741154344 ,86,1185215565637
11.5246626 ,Left ,61,4894688072001 ,48,1411986491957 ,86,0975972604242
11.5246673 ,Left ,61,4894688072001 ,48,1411986491957 ,86,0975972604242
11.5471466 ,Left ,61,4772420436905 ,48,172884266614 ,86,0449209112615
11.5471515 ,Left ,61,4772420436905 ,48,172884266614 ,86,0449209112615
11.5621904 ,Left ,61,4940937232294 ,48,1768797262434 ,85,9829483170499
11.5621954 ,Left ,61,4940937232294 ,48,1768797262434 ,85,9829483170499
11.5844273 ,Left ,61,4772300403958 ,48,1836121722806 ,85,9222939847491
11.5844323 ,Left ,61,4772300403958 ,48,1836121722806 ,85,9222939847491
11.607304 ,Left ,61,444426623823 ,48,2038338113934 ,85,8754039118907
11.607309 ,Left ,61,444426623823 ,48,2038338113934 ,85,8754039118907
11.6215338 ,Left ,61,4139258012909 ,48,2145770003714 ,85,7985143069692
11.6215387 ,Left ,61,4139258012909 ,48,2145770003714 ,85,7985143069692
11.6446915 ,Left ,61,3480473142778 ,48,205271717811 ,85,7177115986558
11.6446964 ,Left ,61,3480473142778 ,48,205271717811 ,85,7177115986558
11.673346 ,Left ,61,301482496854 ,48,1937422744729 ,85,6419505963655
11.6733511 ,Left ,61,301482496854 ,48,1937422744729 ,85,6419505963655
11.681448 ,Left ,61,3196763043419 ,48,1894655124516 ,85,5913070354869
11.6814547 ,Left ,61,3196763043419 ,48,1894655124516 ,85,5913070354869
11.7045641 ,Left ,61,3400930928913 ,48,1720635078099 ,85,5616590138117
11.704566 ,Left ,61,3400930928913 ,48,1720635078099 ,85,5616590138117
11.7268523 ,Left ,61,307647752296 ,48,1547626919881 ,85,5402371983059
11.7268542 ,Left ,61,307647752296 ,48,1547626919881 ,85,5402371983059
11.7413503 ,Left ,61,230979244962 ,48,1416709671856 ,85,5277613803585
11.7413524 ,Left ,61,230979244962 ,48,1416709671856 ,85,5277613803585
11.7645366 ,Left ,61,1532755535726 ,48,0951622543836 ,85,4809622826404
11.7645387 ,Left ,61,1532755535726 ,48,0951622543836 ,85,4809622826404
11.7871333 ,Left ,61,0279462382318 ,48,0401300595706 ,85,4818991657042
11.7871359 ,Left ,61,0279462382318 ,48,0401300595706 ,85,4818991657042
11.7921973 ,Left ,61,0094390571821 ,48,0339382257409 ,85,5161421686116
11.7921993 ,Left ,61,0094390571821 ,48,0339382257409 ,85,5161421686116
11.8093456 ,Left ,61,106392358701 ,48,0460666274412 ,85,5603512332495
11.8093531 ,Left ,61,106392358701 ,48,0460666274412 ,85,5603512332495
11.8305191 ,Left ,61,225768214648 ,48,0385766327499 ,85,6034560675405
11.8305299 ,Left ,61,225768214648 ,48,0385766327499 ,85,6034560675405
11.8528752 ,Left ,61,2875938217109 ,48,0043245137676 ,85,6382501125449
11.8528833 ,Left ,61,2875938217109 ,48,0043245137676 ,85,6382501125449
11.8712632 ,Left ,61,2689066673173 ,47,9646714829781 ,85,7214886969564
11.8712711 ,Left ,61,2689066673173 ,47,9646714829781 ,85,7214886969564
11.8903853 ,Left ,61,2797482199179 ,48,0140976042992 ,85,8023288544912
11.8903992 ,Left ,61,2797482199179 ,48,0140976042992 ,85,8023288544912
11.9125169 ,Left ,61,3114200927793 ,48,0974626537977 ,85,8587490394408
11.9125199 ,Left ,61,3114200927793 ,48,0974626537977 ,85,8587490394408
11.9304725 ,Left ,61,361424683668 ,48,1282676473049 ,85,8830267031614
11.9304755 ,Left ,61,361424683668 ,48,1282676473049 ,85,8830267031614
11.9512122 ,Left ,61,3425884865592 ,48,1027545794186 ,85,8916345207962
11.9512139 ,Left ,61,3425884865592 ,48,1027545794186 ,85,8916345207962
11.9723535 ,Left ,61,2439681801899 ,48,0343395927629 ,85,9121828384111
11.9723557 ,Left ,61,2439681801899 ,48,0343395927629 ,85,9121828384111
11.9903335 ,Left ,61,1742330991677 ,47,9813125566967 ,85,9607600414212
11.9903356 ,Left ,61,1742330991677 ,47,9813125566967 ,85,9607600414212
12.0096774 ,Left ,61,207451364226 ,47,9752725348038 ,85,9953527406603
12.0096791 ,Left ,61,207451364226 ,47,9752725348038 ,85,9953527406603
12.0322003 ,Left ,61,310313615953 ,47,9994872869395 ,86,0134963278728
12.0322024 ,Left ,61,310313615953 ,47,9994872869395 ,86,0134963278728
12.0501268 ,Left ,61,4091780522804 ,48,0309504574312 ,86,0377371978276
12.0501293 ,Left ,61,4091780522804 ,48,0309504574312 ,86,0377371978276
12.0697546 ,Left ,61,4568376283018 ,48,0241357090526 ,86,0721601269785
12.0697565 ,Left ,61,4568376283018 ,48,0241357090526 ,86,0721601269785
12.0926025 ,Left ,61,4994308597091 ,47,9845704560376 ,86,1068058609843
12.0926055 ,Left ,61,4994308597091 ,47,9845704560376 ,86,1068058609843
12.1087968 ,Left ,61,524295675213 ,47,982521577912 ,86,1508208583628
12.108799 ,Left ,61,524295675213 ,47,982521577912 ,86,1508208583628
12.129829 ,Left ,61,5894956275058 ,48,0071277782779 ,86,2090185502046
12.1298318 ,Left ,61,5894956275058 ,48,0071277782779 ,86,2090185502046
12.1526066 ,Left ,61,6587731711586 ,48,0273068247409 ,86,2770318772941
12.1526103 ,Left ,61,6587731711586 ,48,0273068247409 ,86,2770318772941
12.1689945 ,Left ,61,7311467535707 ,48,0527432970066 ,86,3527394215006
12.1690006 ,Left ,61,7311467535707 ,48,0527432970066 ,86,3527394215006
12.190307 ,Left ,61,800235706962 ,48,0846929665754 ,86,4368254422148
12.1903221 ,Left ,61,800235706962 ,48,0846929665754 ,86,4368254422148
12.2122313 ,Left ,61,8374045407194 ,48,1053074311752 ,86,5197293878089
12.212233 ,Left ,61,8374045407194 ,48,1053074311752 ,86,5197293878089
12.2303836 ,Left ,61,8628633661125 ,48,1042416788507 ,86,5963577621309
12.2303859 ,Left ,61,8628633661125 ,48,1042416788507 ,86,5963577621309
12.2497838 ,Left ,61,9071500983763 ,48,0880883441187 ,86,672744958647
12.2497856 ,Left ,61,9071500983763 ,48,0880883441187 ,86,672744958647
12.2721868 ,Left ,61,9381669082707 ,48,0636001700086 ,86,7431128012421
12.2721888 ,Left ,61,9381669082707 ,48,0636001700086 ,86,7431128012421
12.2886872 ,Left ,61,977166356582 ,48,0437182472894 ,86,8098691372771
12.2886894 ,Left ,61,977166356582 ,48,0437182472894 ,86,8098691372771
12.3097798 ,Left ,62,0097220134639 ,48,0139647104312 ,86,8642701854724
12.3097821 ,Left ,62,0097220134639 ,48,0139647104312 ,86,8642701854724
12.3325987 ,Left ,62,0171260943027 ,47,9868698454316 ,86,914147200311
12.3326016 ,Left ,62,0171260943027 ,47,9868698454316 ,86,914147200311
12.3489669 ,Left ,62,0103358391911 ,47,9595270026582 ,86,967579681704
12.3489698 ,Left ,62,0103358391911 ,47,9595270026582 ,86,967579681704
12.370035 ,Left ,62,0434353137687 ,47,9333752884023 ,87,0124383745461
12.3700379 ,Left ,62,0434353137687 ,47,9333752884023 ,87,0124383745461
12.3922889 ,Left ,62,1022434245328 ,47,9240078426657 ,87,0403245978583
12.3922908 ,Left ,62,1022434245328 ,47,9240078426657 ,87,0403245978583
12.4103279 ,Left ,62,104738849611 ,47,9122908498146 ,87,0619545710406
12.41033 ,Left ,62,104738849611 ,47,9122908498146 ,87,0619545710406
12.4301784 ,Left ,62,118642813774 ,47,9104604865904 ,87,0817245020275
12.4301862 ,Left ,62,118642813774 ,47,9104604865904 ,87,0817245020275
12.452882 ,Left ,62,1352366608319 ,47,9186139593265 ,87,1027834749112
12.4528897 ,Left ,62,1352366608319 ,47,9186139593265 ,87,1027834749112
12.4707869 ,Left ,62,1303328144312 ,47,9355088111721 ,87,1199815989284
12.4707945 ,Left ,62,1303328144312 ,47,9355088111721 ,87,1199815989284
12.4904547 ,Left ,62,1496897643133 ,47,943266239799 ,87,1260528542687
12.4904624 ,Left ,62,1496897643133 ,47,943266239799 ,87,1260528542687
12.5125043 ,Left ,62,1499747865006 ,47,9438895917875 ,87,1248885051941
12.5125099 ,Left ,62,1499747865006 ,47,9438895917875 ,87,1248885051941
12.5303038 ,Left ,62,1369473045349 ,47,9517835152033 ,87,1265777371929
12.5303065 ,Left ,62,1369473045349 ,47,9517835152033 ,87,1265777371929
12.5503978 ,Left ,62,1244706695087 ,47,967619578255 ,87,1199773672898
12.5504052 ,Left ,62,1244706695087 ,47,967619578255 ,87,1199773672898
12.5730239 ,Left ,62,1147164418812 ,47,9789114541233 ,87,1043995055513
12.5730317 ,Left ,62,1147164418812 ,47,9789114541233 ,87,1043995055513
12.5907483 ,Left ,62,0973796825207 ,47,9984610615077 ,87,0826567710851
12.5907556 ,Left ,62,0973796825207 ,47,9984610615077 ,87,0826567710851
12.6102986 ,Left ,62,0680025060784 ,48,030627228437 ,87,069443957698
12.6103062 ,Left ,62,0680025060784 ,48,030627228437 ,87,069443957698
12.6329121 ,Left ,62,0372943997652 ,48,0557317545529 ,87,054841024552
12.6329199 ,Left ,62,0372943997652 ,48,0557317545529 ,87,054841024552
12.6507044 ,Left ,62,006932005038 ,48,0722127938009 ,87,0449424123865
12.6507128 ,Left ,62,006932005038 ,48,0722127938009 ,87,0449424123865
12.6700901 ,Left ,61,9767071406396 ,48,0795698141977 ,87,0352311874275
12.6700995 ,Left ,61,9767071406396 ,48,0795698141977 ,87,0352311874275
12.6924405 ,Left ,61,9418561896687 ,48,0817042165378 ,87,0340295999752
12.6924424 ,Left ,61,9418561896687 ,48,0817042165378 ,87,0340295999752
12.7101558 ,Left ,61,8943759428019 ,48,0922973586002 ,87,0333623379705
12.7101575 ,Left ,61,8943759428019 ,48,0922973586002 ,87,0333623379705
12.7297625 ,Left ,61,8608117386782 ,48,0997122555534 ,87,0510746416757
12.7297645 ,Left ,61,8608117386782 ,48,0997122555534 ,87,0510746416757
12.7524336 ,Left ,61,8219242342339 ,48,091191848381 ,87,0678215092008
12.7524359 ,Left ,61,8219242342339 ,48,091191848381 ,87,0678215092008
12.770266 ,Left ,61,7850091885717 ,48,0697816251234 ,87,0662972939839
12.770268 ,Left ,61,7850091885717 ,48,0697816251234 ,87,0662972939839
12.7903063 ,Left ,61,6981302125787 ,48,0500342234374 ,87,0411787481167
12.7903138 ,Left ,61,6981302125787 ,48,0500342234374 ,87,0411787481167
12.8127716 ,Left ,61,714479866822 ,48,0499822516807 ,87,0281904747754
12.8127791 ,Left ,61,714479866822 ,48,0499822516807 ,87,0281904747754
12.8307623 ,Left ,61,7495312106425 ,48,0751073928432 ,86,9926486266738
12.8307697 ,Left ,61,7495312106425 ,48,0751073928432 ,86,9926486266738
12.8501543 ,Left ,61,7675518567454 ,48,1252479943574 ,86,9194904734168
12.8501586 ,Left ,61,7675518567454 ,48,1252479943574 ,86,9194904734168
12.8724641 ,Left ,61,7521985384158 ,48,1818153734423 ,86,8542243451333
12.8724682 ,Left ,61,7521985384158 ,48,1818153734423 ,86,8542243451333
12.8903339 ,Left ,61,774105528075 ,48,2439719158743 ,86,7914470309228
12.8903378 ,Left ,61,774105528075 ,48,2439719158743 ,86,7914470309228
12.9097254 ,Left ,61,7691306453077 ,48,2791361673014 ,86,7341722385517
12.9097272 ,Left ,61,7691306453077 ,48,2791361673014 ,86,7341722385517
12.9323487 ,Left ,61,7528992411888 ,48,3069726092301 ,86,6451976555018
12.9323507 ,Left ,61,7528992411888 ,48,3069726092301 ,86,6451976555018
12.9501805 ,Left ,61,6731345698232 ,48,3062022279269 ,86,5596650159626
12.9501834 ,Left ,61,6731345698232 ,48,3062022279269 ,86,5596650159626
12.971425 ,Left ,61,5430225029216 ,48,2680793208596 ,86,4700268625758
12.9714287 ,Left ,61,5430225029216 ,48,2680793208596 ,86,4700268625758
12.9921444 ,Left ,61,4376138351409 ,48,225834956273 ,86,4140844114134
12.9921462 ,Left ,61,4376138351409 ,48,225834956273 ,86,4140844114134
13.0107449 ,Left ,61,3875237740038 ,48,1982098554538 ,86,4238028799133
13.0107524 ,Left ,61,3875237740038 ,48,1982098554538 ,86,4238028799133
13.0316923 ,Left ,61,4767376371866 ,48,2089693455534 ,86,438735495372
13.0316998 ,Left ,61,4767376371866 ,48,2089693455534 ,86,438735495372
13.0526266 ,Left ,61,6227224053543 ,48,2337325457497 ,86,4506450166514
13.052632 ,Left ,61,6227224053543 ,48,2337325457497 ,86,4506450166514
13.0705031 ,Left ,61,6954107171042 ,48,2402395257961 ,86,4374864349323
13.0705082 ,Left ,61,6954107171042 ,48,2402395257961 ,86,4374864349323
13.091612 ,Left ,61,6536819126811 ,48,1789268875642 ,86,4287595946776
13.0916174 ,Left ,61,6536819126811 ,48,1789268875642 ,86,4287595946776
13.1126343 ,Left ,61,5729201601193 ,48,1776456696286 ,86,4369860801179
13.1126399 ,Left ,61,5729201601193 ,48,1776456696286 ,86,4369860801179
13.1305525 ,Left ,61,4986201776651 ,48,2223323859765 ,86,4211356928356
13.1305576 ,Left ,61,4986201776651 ,48,2223323859765 ,86,4211356928356
13.1548553 ,Left ,61,5408284943573 ,48,2332672217387 ,86,4037341535602
13.1548605 ,Left ,61,5408284943573 ,48,2332672217387 ,86,4037341535602
13.1724864 ,Left ,61,4558704917935 ,48,2001083611288 ,86,3988699793928
13.1724906 ,Left ,61,4558704917935 ,48,2001083611288 ,86,3988699793928
13.1904 ,Left ,61,436815860329 ,48,1441582506569 ,86,3899302916919
13.1904043 ,Left ,61,436815860329 ,48,1441582506569 ,86,3899302916919
13.2111043 ,Left ,61,4907420930045 ,48,1298535678496 ,86,3793846795788
13.2111059 ,Left ,61,4907420930045 ,48,1298535678496 ,86,3793846795788
13.2328289 ,Left ,61,606128742859 ,48,1503143591499 ,86,3472559828906
13.2328364 ,Left ,61,606128742859 ,48,1503143591499 ,86,3472559828906
13.250752 ,Left ,61,612424497338 ,48,1691736244522 ,86,3027172627161
13.2507595 ,Left ,61,612424497338 ,48,1691736244522 ,86,3027172627161
13.2714898 ,Left ,61,6416867400884 ,48,1929445538472 ,86,2723045803902
13.271494 ,Left ,61,6416867400884 ,48,1929445538472 ,86,2723045803902
13.2926488 ,Left ,61,5490273029125 ,48,207765136067 ,86,2718370061083
13.2926532 ,Left ,61,5490273029125 ,48,207765136067 ,86,2718370061083
13.3103233 ,Left ,61,4713186618385 ,48,2063853721285 ,86,2567789399817
13.3103274 ,Left ,61,4713186618385 ,48,2063853721285 ,86,2567789399817
13.3331831 ,Left ,61,478268172636 ,48,1806517505658 ,86,2401619865914
13.3331875 ,Left ,61,478268172636 ,48,1806517505658 ,86,2401619865914
13.3526403 ,Left ,61,4430685626441 ,48,1546289850542 ,86,2105788151511
13.3526446 ,Left ,61,4430685626441 ,48,1546289850542 ,86,2105788151511
13.3706245 ,Left ,61,4483440165977 ,48,1381764198352 ,86,2112872623449
13.3706298 ,Left ,61,4483440165977 ,48,1381764198352 ,86,2112872623449
13.3928836 ,Left ,61,4538087310705 ,48,0982204475675 ,86,2136012214655
13.3928878 ,Left ,61,4538087310705 ,48,0982204475675 ,86,2136012214655
13.4125997 ,Left ,61,4478323286148 ,48,0324913104934 ,86,208481445872
13.4126041 ,Left ,61,4478323286148 ,48,0324913104934 ,86,208481445872
13.4304891 ,Left ,61,4081655368426 ,47,9672205093229 ,86,2124061995349
13.4304935 ,Left ,61,4081655368426 ,47,9672205093229 ,86,2124061995349
13.4528135 ,Left ,61,4101999792444 ,47,9488701954625 ,86,2009563060015
13.4528175 ,Left ,61,4101999792444 ,47,9488701954625 ,86,2009563060015
13.4723527 ,Left ,61,4258366098988 ,47,9401078184709 ,86,1931030892501
13.4723554 ,Left ,61,4258366098988 ,47,9401078184709 ,86,1931030892501
13.4901717 ,Left ,61,45938611533 ,47,9453085935898 ,86,1943381855292
13.4901774 ,Left ,61,45938611533 ,47,9453085935898 ,86,1943381855292
13.5128825 ,Left ,61,4540676343558 ,47,9599327918003 ,86,2052831172038
13.5128848 ,Left ,61,4540676343558 ,47,9599327918003 ,86,2052831172038
13.5337696 ,Left ,61,4419184760346 ,47,9611134464968 ,86,2063859692246
13.5337731 ,Left ,61,4419184760346 ,47,9611134464968 ,86,2063859692246
13.5503594 ,Left ,61,4545105152333 ,47,9589397179551 ,86,1953924964838
13.550363 ,Left ,61,4545105152333 ,47,9589397179551 ,86,1953924964838
13.5731596 ,Left ,61,4492067331264 ,47,9594496467099 ,86,1870945468057
13.5731737 ,Left ,61,4492067331264 ,47,9594496467099 ,86,1870945468057
13.5921506 ,Left ,61,4520589592266 ,47,9666725944327 ,86,1900758749639
13.5921524 ,Left ,61,4520589592266 ,47,9666725944327 ,86,1900758749639
13.6102241 ,Left ,61,4475864213634 ,47,9736747956526 ,86,1841381618345
13.6102258 ,Left ,61,4475864213634 ,47,9736747956526 ,86,1841381618345
13.6326399 ,Left ,61,4322328106937 ,47,9663627100095 ,86,179097443546
13.6326419 ,Left ,61,4322328106937 ,47,9663627100095 ,86,179097443546
13.6521632 ,Left ,61,4034231587207 ,47,96694637285 ,86,1737376640162
13.652165 ,Left ,61,4034231587207 ,47,96694637285 ,86,1737376640162
13.6695954 ,Left ,61,4018366695541 ,47,9658212472874 ,86,175210765307
13.6695981 ,Left ,61,4018366695541 ,47,9658212472874 ,86,175210765307
13.6920881 ,Left ,61,4158178939104 ,47,9607222475274 ,86,1744430494679
13.6920918 ,Left ,61,4158178939104 ,47,9607222475274 ,86,1744430494679
13.7133042 ,Left ,61,4010483050312 ,47,9606301864652 ,86,1890834397081
13.7133135 ,Left ,61,4010483050312 ,47,9606301864652 ,86,1890834397081
13.7296929 ,Left ,61,3746456798626 ,47,9620309419104 ,86,2111932461299
13.7296965 ,Left ,61,3746456798626 ,47,9620309419104 ,86,2111932461299
13.7522146 ,Left ,61,3522684420904 ,47,9433239953535 ,86,2299706103324
13.7522297 ,Left ,61,3522684420904 ,47,9433239953535 ,86,2299706103324
13.7736936 ,Left ,61,3395417685473 ,47,9064331829317 ,86,2332240505071
13.7737013 ,Left ,61,3395417685473 ,47,9064331829317 ,86,2332240505071
13.7894432 ,Left ,61,3691156709977 ,47,8648059778563 ,86,2508729893801
13.7894466 ,Left ,61,3691156709977 ,47,8648059778563 ,86,2508729893801
13.8117666 ,Left ,61,4335183631167 ,47,8237203057023 ,86,2441596510182
13.8117687 ,Left ,61,4335183631167 ,47,8237203057023 ,86,2441596510182
13.8329377 ,Left ,61,4035138319657 ,47,8047258266492 ,86,2272925098919
13.8329416 ,Left ,61,4035138319657 ,47,8047258266492 ,86,2272925098919
13.8492095 ,Left ,61,3617296702954 ,47,7912767800626 ,86,2193633372416
13.8492113 ,Left ,61,3617296702954 ,47,7912767800626 ,86,2193633372416
13.8718409 ,Left ,61,3628677025599 ,47,7780667132813 ,86,2323140434997
13.8718428 ,Left ,61,3628677025599 ,47,7780667132813 ,86,2323140434997
13.8929492 ,Left ,61,3940440381679 ,47,8154210583439 ,86,2444530775167
13.892951 ,Left ,61,3940440381679 ,47,8154210583439 ,86,2444530775167
13.909368 ,Left ,61,4057804450192 ,47,8696910255135 ,86,2564704036003
13.9093699 ,Left ,61,4057804450192 ,47,8696910255135 ,86,2564704036003
13.9316718 ,Left ,61,4239159192766 ,47,912988636336 ,86,2749051221077
13.9316738 ,Left ,61,4239159192766 ,47,912988636336 ,86,2749051221077
13.9543857 ,Left ,61,4278606305142 ,47,9448808739539 ,86,2877558776984
13.9543875 ,Left ,61,4278606305142 ,47,9448808739539 ,86,2877558776984
13.9690448 ,Left ,61,4353955881078 ,47,9779252266359 ,86,2955194948979
13.9690465 ,Left ,61,4353955881078 ,47,9779252266359 ,86,2955194948979
13.9917398 ,Left ,61,4409749754399 ,47,9876915238243 ,86,3012102178323
13.9917429 ,Left ,61,4409749754399 ,47,9876915238243 ,86,3012102178323
14.0145434 ,Left ,61,4337294323069 ,48,0090728762576 ,86,2969363485692
14.0145455 ,Left ,61,4337294323069 ,48,0090728762576 ,86,2969363485692
14.0295888 ,Left ,61,4100634899666 ,48,0151602722016 ,86,2894827350412
14.0295908 ,Left ,61,4100634899666 ,48,0151602722016 ,86,2894827350412
14.0521724 ,Left ,61,3928659706394 ,48,0068900619481 ,86,2912500397359
14.0521744 ,Left ,61,3928659706394 ,48,0068900619481 ,86,2912500397359
14.0730157 ,Left ,61,3790562721798 ,48,0110757880011 ,86,2951764829068
14.0730183 ,Left ,61,3790562721798 ,48,0110757880011 ,86,2951764829068
14.0901057 ,Left ,61,3655367082106 ,48,0206125795933 ,86,3036495877402
14.0901094 ,Left ,61,3655367082106 ,48,0206125795933 ,86,3036495877402
14.1123025 ,Left ,61,3643151967814 ,48,0408114776279 ,86,3171962784264
14.1123074 ,Left ,61,3643151967814 ,48,0408114776279 ,86,3171962784264
14.1332445 ,Left ,61,3697773153171 ,48,051546891093 ,86,3197069474708
14.1332464 ,Left ,61,3697773153171 ,48,051546891093 ,86,3197069474708
14.1495816 ,Left ,61,3643294922646 ,48,0333778153819 ,86,3318345277942
14.1495835 ,Left ,61,3643294922646 ,48,0333778153819 ,86,3318345277942
14.1720116 ,Left ,61,3493236473766 ,48,0077543959035 ,86,3536157843478
14.1720138 ,Left ,61,3493236473766 ,48,0077543959035 ,86,3536157843478
14.1928902 ,Left ,61,3219616437887 ,47,9907312327912 ,86,3878694050148
14.1928922 ,Left ,61,3219616437887 ,47,9907312327912 ,86,3878694050148
14.2096504 ,Left ,61,2760965285955 ,47,9819623741819 ,86,4287494250898
14.2096532 ,Left ,61,2760965285955 ,47,9819623741819 ,86,4287494250898
14.2321366 ,Left ,61,28232474152 ,47,961301752405 ,86,4366839540862
14.2321403 ,Left ,61,28232474152 ,47,961301752405 ,86,4366839540862
14.2545728 ,Left ,61,2883929712813 ,47,9215164007158 ,86,4326281841885
14.2545763 ,Left ,61,2883929712813 ,47,9215164007158 ,86,4326281841885
14.2695588 ,Left ,61,3008308590245 ,47,8671836155193 ,86,458526973735
14.2695623 ,Left ,61,3008308590245 ,47,8671836155193 ,86,458526973735
14.2919932 ,Left ,61,2791072348989 ,47,8993798734446 ,86,4380983159833
14.2919967 ,Left ,61,2791072348989 ,47,8993798734446 ,86,4380983159833
14.3146075 ,Left ,61,2918904575561 ,47,9664167485527 ,86,4138587141409
14.3146094 ,Left ,61,2918904575561 ,47,9664167485527 ,86,4138587141409
14.3294349 ,Left ,61,3545746223512 ,48,0061753565649 ,86,3910808796618
14.3294373 ,Left ,61,3545746223512 ,48,0061753565649 ,86,3910808796618
14.3519598 ,Left ,61,3853743281402 ,48,0429442462247 ,86,3572447783696
14.3519622 ,Left ,61,3853743281402 ,48,0429442462247 ,86,3572447783696
14.3744219 ,Left ,61,3570708249238 ,48,0766108102922 ,86,3247137357162
14.3744239 ,Left ,61,3570708249238 ,48,0766108102922 ,86,3247137357162
14.3894831 ,Left ,61,363704587189 ,48,0948446788412 ,86,2874464627032
14.3894854 ,Left ,61,363704587189 ,48,0948446788412 ,86,2874464627032
14.4120263 ,Left ,61,3704548334075 ,48,1017872154095 ,86,2429513980545
14.4120289 ,Left ,61,3704548334075 ,48,1017872154095 ,86,2429513980545
14.4344866 ,Left ,61,3684439658637 ,48,1089116267126 ,86,1867802332922
14.4344897 ,Left ,61,3684439658637 ,48,1089116267126 ,86,1867802332922
14.4487404 ,Left ,61,356890212885 ,48,0943348126399 ,86,1210265971627
14.4487433 ,Left ,61,356890212885 ,48,0943348126399 ,86,1210265971627
14.4720004 ,Left ,61,2956528715283 ,48,0765328088419 ,86,0595871213364
14.4720034 ,Left ,61,2956528715283 ,48,0765328088419 ,86,0595871213364
14.4942673 ,Left ,61,2780865504434 ,48,0595838886833 ,86,005269728717
14.4942689 ,Left ,61,2780865504434 ,48,0595838886833 ,86,005269728717
14.5087306 ,Left ,61,2742995090204 ,48,0401389014201 ,85,9558650149183
14.5087322 ,Left ,61,2742995090204 ,48,0401389014201 ,85,9558650149183
14.5319972 ,Left ,61,2541927096114 ,48,0315718195635 ,85,9136062246443
14.5319992 ,Left ,61,2541927096114 ,48,0315718195635 ,85,9136062246443
14.5547505 ,Left ,61,2520676207889 ,48,0440109757175 ,85,8882661735776
14.5547551 ,Left ,61,2520676207889 ,48,0440109757175 ,85,8882661735776
14.5688939 ,Left ,61,2541316926967 ,48,068949723092 ,85,8657342154695
14.5688958 ,Left ,61,2541316926967 ,48,068949723092 ,85,8657342154695
14.5917524 ,Left ,61,2404594266925 ,48,0606985061002 ,85,8240208780073
14.5917542 ,Left ,61,2404594266925 ,48,0606985061002 ,85,8240208780073
14.6145777 ,Left ,61,1890878147264 ,48,0219335554291 ,85,7661898268664
14.6145801 ,Left ,61,1890878147264 ,48,0219335554291 ,85,7661898268664
14.628697 ,Left ,61,0758048488741 ,47,9577012936978 ,85,7739848831925
14.6286987 ,Left ,61,0758048488741 ,47,9577012936978 ,85,7739848831925
14.6518612 ,Left ,61,0640168286334 ,47,9445876752869 ,85,8104138285694
14.6518634 ,Left ,61,0640168286334 ,47,9445876752869 ,85,8104138285694
14.6744525 ,Left ,61,1621115171134 ,47,9901627422953 ,85,8503615312794
14.6744554 ,Left ,61,1621115171134 ,47,9901627422953 ,85,8503615312794
14.6959122 ,Left ,61,3415325086263 ,48,0137174462004 ,85,8788273010564
14.6959186 ,Left ,61,3415325086263 ,48,0137174462004 ,85,8788273010564
14.7121841 ,Left ,61,3447989857616 ,47,9693977984997 ,85,9372046177552
14.7121903 ,Left ,61,3447989857616 ,47,9693977984997 ,85,9372046177552
14.7348601 ,Left ,61,3236031655039 ,47,931337877417 ,85,9993642815265
14.7348698 ,Left ,61,3236031655039 ,47,931337877417 ,85,9993642815265
14.7559255 ,Left ,61,3218145925368 ,48,0019640104143 ,86,0749354750969
14.7559321 ,Left ,61,3218145925368 ,48,0019640104143 ,86,0749354750969
14.7722272 ,Left ,61,3298167653201 ,48,1078468586179 ,86,1203226006981
14.772232 ,Left ,61,3298167653201 ,48,1078468586179 ,86,1203226006981
14.7945579 ,Left ,61,3856641772738 ,48,143559983927 ,86,129784947592
14.7945598 ,Left ,61,3856641772738 ,48,143559983927 ,86,129784947592
14.8156657 ,Left ,61,3554269654885 ,48,1209121322285 ,86,1489490218585
14.8156677 ,Left ,61,3554269654885 ,48,1209121322285 ,86,1489490218585
14.832535 ,Left ,61,2310311418605 ,48,0880052135362 ,86,150389259869
14.8325426 ,Left ,61,2310311418605 ,48,0880052135362 ,86,150389259869
14.8549204 ,Left ,61,1914842035256 ,48,0208393954887 ,86,1869360128276
14.8549278 ,Left ,61,1914842035256 ,48,0208393954887 ,86,1869360128276
14.8760391 ,Left ,61,2909659815139 ,47,9571382716464 ,86,2320159428762
14.8760597 ,Left ,61,2909659815139 ,47,9571382716464 ,86,2320159428762
14.892511 ,Left ,61,3651370527507 ,47,9594584942242 ,86,2663752601012
14.892525 ,Left ,61,3651370527507 ,47,9594584942242 ,86,2663752601012
14.9221029 ,Left ,61,4170676252573 ,47,9785452956652 ,86,3035814700623
14.922107 ,Left ,61,4170676252573 ,47,9785452956652 ,86,3035814700623
14.9355371 ,Left ,61,4895198057686 ,47,9750338017207 ,86,3320319322639
14.9355405 ,Left ,61,4895198057686 ,47,9750338017207 ,86,3320319322639
14.9519643 ,Left ,61,5159902479546 ,47,982059679158 ,86,3775944050325
14.9519676 ,Left ,61,5159902479546 ,47,982059679158 ,86,3775944050325
14.9744436 ,Left ,61,5979805388716 ,48,0313948511557 ,86,4304938484465
14.9744468 ,Left ,61,5979805388716 ,48,0313948511557 ,86,4304938484465
14.9956284 ,Left ,61,6689431415115 ,48,0871390279686 ,86,5091247046201
14.9956319 ,Left ,61,6689431415115 ,48,0871390279686 ,86,5091247046201
15.0120601 ,Left ,61,775566312437 ,48,1430468406572 ,86,5840383471259
15.0120635 ,Left ,61,775566312437 ,48,1430468406572 ,86,5840383471259
15.0345983 ,Left ,61,8192114358243 ,48,170750593921 ,86,6598631396895
15.0346018 ,Left ,61,8192114358243 ,48,170750593921 ,86,6598631396895
15.0560512 ,Left ,61,8565546100139 ,48,1771690592594 ,86,7236187362003
15.0560578 ,Left ,61,8565546100139 ,48,1771690592594 ,86,7236187362003
15.0718978 ,Left ,61,8858542289735 ,48,1699356714476 ,86,7894328167149
15.0719065 ,Left ,61,8858542289735 ,48,1699356714476 ,86,7894328167149
15.0945864 ,Left ,61,9106862589964 ,48,1386928052038 ,86,8521642995848
15.0945991 ,Left ,61,9106862589964 ,48,1386928052038 ,86,8521642995848
15.1155581 ,Left ,61,940491733196 ,48,118734177662 ,86,908216666429
15.1155613 ,Left ,61,940491733196 ,48,118734177662 ,86,908216666429
15.1319446 ,Left ,61,9519671863551 ,48,0981616873545 ,86,9577237353049
15.1319465 ,Left ,61,9519671863551 ,48,0981616873545 ,86,9577237353049
15.154376 ,Left ,61,9857360631697 ,48,0855093605923 ,87,004726458756
15.1543776 ,Left ,61,9857360631697 ,48,0855093605923 ,87,004726458756
15.1784859 ,Left ,62,009928675888 ,48,0563298200939 ,87,0538388395661
15.1784881 ,Left ,62,009928675888 ,48,0563298200939 ,87,0538388395661
15.1993765 ,Left ,62,0183849028411 ,48,0193721356714 ,87,1005509938366
15.1993786 ,Left ,62,0183849028411 ,48,0193721356714 ,87,1005509938366
15.2143 ,Left ,62,0414818153479 ,47,9836316102197 ,87,1472579248695
15.2143017 ,Left ,62,0414818153479 ,47,9836316102197 ,87,1472579248695
15.2370786 ,Left ,62,0625066882587 ,47,9604106743569 ,87,1889693531575
15.237081 ,Left ,62,0625066882587 ,47,9604106743569 ,87,1889693531575
15.2521701 ,Left ,62,1050687069047 ,47,95231403926 ,87,2256951599247
15.2521726 ,Left ,62,1050687069047 ,47,95231403926 ,87,2256951599247
15.2745788 ,Left ,62,1160788050402 ,47,9368749349609 ,87,2662210268489
15.2745812 ,Left ,62,1160788050402 ,47,9368749349609 ,87,2662210268489
15.2969735 ,Left ,62,1254807116745 ,47,9205977642517 ,87,294854572652
15.2969761 ,Left ,62,1254807116745 ,47,9205977642517 ,87,294854572652
15.3118816 ,Left ,62,1600033996815 ,47,9049797561094 ,87,3117882902002
15.3118839 ,Left ,62,1600033996815 ,47,9049797561094 ,87,3117882902002
15.3344014 ,Left ,62,1677049356985 ,47,8797740917508 ,87,3255199188522
15.3344031 ,Left ,62,1677049356985 ,47,8797740917508 ,87,3255199188522
15.3569486 ,Left ,62,1913386490876 ,47,8727298547274 ,87,3447790587125
15.3569508 ,Left ,62,1913386490876 ,47,8727298547274 ,87,3447790587125
15.3714363 ,Left ,62,2146857390898 ,47,8714511821479 ,87,37256404797
15.3714385 ,Left ,62,2146857390898 ,47,8714511821479 ,87,37256404797
15.3943282 ,Left ,62,232802755128 ,47,8821665031738 ,87,3994708861074
15.39433 ,Left ,62,232802755128 ,47,8821665031738 ,87,3994708861074
15.4170419 ,Left ,62,2383442295943 ,47,890310773941 ,87,4079106334291
15.4170443 ,Left ,62,2383442295943 ,47,890310773941 ,87,4079106334291
15.4312918 ,Left ,62,240943100443 ,47,8789132808345 ,87,410589589825
15.4312946 ,Left ,62,240943100443 ,47,8789132808345 ,87,410589589825
15.4543919 ,Left ,62,2553067222608 ,47,8710153032332 ,87,4220523217602
15.4543937 ,Left ,62,2553067222608 ,47,8710153032332 ,87,4220523217602
15.4774081 ,Left ,62,2532765212389 ,47,8808141152968 ,87,4302849397305
15.4774104 ,Left ,62,2532765212389 ,47,8808141152968 ,87,4302849397305
15.4913235 ,Left ,62,2477056464185 ,47,9131633813517 ,87,4245180366857
15.4913257 ,Left ,62,2477056464185 ,47,9131633813517 ,87,4245180366857
15.5146325 ,Left ,62,2424674068246 ,47,9411947943115 ,87,4117331128611
15.5146351 ,Left ,62,2424674068246 ,47,9411947943115 ,87,4117331128611
15.5371662 ,Left ,62,2521631443253 ,47,9693065807493 ,87,4021305141779
15.5371683 ,Left ,62,2521631443253 ,47,9693065807493 ,87,4021305141779
15.5511507 ,Left ,62,2513293070487 ,48,0040312161581 ,87,4011262588399
15.5511525 ,Left ,62,2513293070487 ,48,0040312161581 ,87,4011262588399
15.5744744 ,Left ,62,2405758165648 ,48,0550974866645 ,87,3886278427957
15.574477 ,Left ,62,2405758165648 ,48,0550974866645 ,87,3886278427957
15.5970309 ,Left ,62,2187956666535 ,48,0955326188805 ,87,3563802589068
15.5970331 ,Left ,62,2187956666535 ,48,0955326188805 ,87,3563802589068
15.611274 ,Left ,62,1688044402176 ,48,1119093164415 ,87,3150677515196
15.6112776 ,Left ,62,1688044402176 ,48,1119093164415 ,87,3150677515196
15.6405333 ,Left ,62,1366980112994 ,48,1216134310876 ,87,279992383959
15.6405359 ,Left ,62,1366980112994 ,48,1216134310876 ,87,279992383959
15.657103 ,Left ,62,1117326832754 ,48,1233217047878 ,87,2491840208776
15.6571064 ,Left ,62,1117326832754 ,48,1233217047878 ,87,2491840208776
15.6715384 ,Left ,62,0390133643631 ,48,1169324634026 ,87,2247698352426
15.6715425 ,Left ,62,0390133643631 ,48,1169324634026 ,87,2247698352426
15.694587 ,Left ,61,942928314376 ,48,1140091638599 ,87,2267160556874
15.6945911 ,Left ,61,942928314376 ,48,1140091638599 ,87,2267160556874
15.7170488 ,Left ,61,8807294079642 ,48,1309162507431 ,87,2491407418951
15.7170566 ,Left ,61,8807294079642 ,48,1309162507431 ,87,2491407418951
15.7384655 ,Left ,61,8181825942761 ,48,1576490585465 ,87,2446754952072
15.7384698 ,Left ,61,8181825942761 ,48,1576490585465 ,87,2446754952072
15.7547581 ,Left ,61,76380418814 ,48,1610341166687 ,87,2004835444272
15.7547624 ,Left ,61,76380418814 ,48,1610341166687 ,87,2004835444272
15.7771049 ,Left ,61,8949869368753 ,48,1375469643022 ,87,1726795696878
15.7771068 ,Left ,61,8949869368753 ,48,1375469643022 ,87,1726795696878
15.7981092 ,Left ,62,0088148722526 ,48,1298606126289 ,87,1330622440525
15.7981112 ,Left ,62,0088148722526 ,48,1298606126289 ,87,1330622440525
15.81463 ,Left ,62,0207347127789 ,48,1602908817729 ,87,0586394973618
15.8146323 ,Left ,62,0207347127789 ,48,1602908817729 ,87,0586394973618
15.8369799 ,Left ,61,9519989922842 ,48,1819217210919 ,86,9985859400354
15.836982 ,Left ,61,9519989922842 ,48,1819217210919 ,86,9985859400354
15.8582172 ,Left ,61,9453371246196 ,48,2230903249803 ,86,9364880285776
15.8582205 ,Left ,61,9453371246196 ,48,2230903249803 ,86,9364880285776
15.8744189 ,Left ,61,9296586229286 ,48,2597757571498 ,86,8641107733563
15.8744207 ,Left ,61,9296586229286 ,48,2597757571498 ,86,8641107733563
15.8971427 ,Left ,61,9112897013133 ,48,2702723636057 ,86,7714840005189
15.8971449 ,Left ,61,9112897013133 ,48,2702723636057 ,86,7714840005189
15.9179976 ,Left ,61,8437572491816 ,48,2457888021519 ,86,6790461425356
15.9180008 ,Left ,61,8437572491816 ,48,2457888021519 ,86,6790461425356
15.9344247 ,Left ,61,6333869852758 ,48,1960654725899 ,86,6128768814489
15.9344267 ,Left ,61,6333869852758 ,48,1960654725899 ,86,6128768814489
15.9572242 ,Left ,61,4903687456569 ,48,1647921304742 ,86,5603799717628
15.9572263 ,Left ,61,4903687456569 ,48,1647921304742 ,86,5603799717628
15.9787903 ,Left ,61,4488553348287 ,48,1567861872103 ,86,571503189907
15.9788043 ,Left ,61,4488553348287 ,48,1567861872103 ,86,571503189907
15.9951005 ,Left ,61,5314182664482 ,48,1907025811994 ,86,5955413074573
15.9951152 ,Left ,61,5314182664482 ,48,1907025811994 ,86,5955413074573
16.0168765 ,Left ,61,7135640805839 ,48,2256676691599 ,86,6259803226561
16.0168782 ,Left ,61,7135640805839 ,48,2256676691599 ,86,6259803226561
16.0380614 ,Left ,61,743380041982 ,48,2263812034075 ,86,6339916083788
16.0380633 ,Left ,61,743380041982 ,48,2263812034075 ,86,6339916083788
16.053967 ,Left ,61,7031650660179 ,48,1415835717665 ,86,6358409687305
16.0539689 ,Left ,61,7031650660179 ,48,1415835717665 ,86,6358409687305
16.0784921 ,Left ,61,6080139207106 ,48,1332889884541 ,86,6547396134823
16.0784942 ,Left ,61,6080139207106 ,48,1332889884541 ,86,6547396134823
16.0981705 ,Left ,61,506879809208 ,48,176823148677 ,86,6629905010145
16.0981726 ,Left ,61,506879809208 ,48,176823148677 ,86,6629905010145
16.1143013 ,Left ,61,5495573556135 ,48,1611241258895 ,86,635634663717
16.1143032 ,Left ,61,5495573556135 ,48,1611241258895 ,86,635634663717
16.1369241 ,Left ,61,5822276727275 ,48,165384574396 ,86,6113020250792
16.1369259 ,Left ,61,5822276727275 ,48,165384574396 ,86,6113020250792
16.1593785 ,Left ,61,6378455624314 ,48,1757552129283 ,86,636359840477
16.1593803 ,Left ,61,6378455624314 ,48,1757552129283 ,86,636359840477
16.1744471 ,Left ,61,735723923454 ,48,1895873698801 ,86,6437244015842
16.1744492 ,Left ,61,735723923454 ,48,1895873698801 ,86,6437244015842
16.1970171 ,Left ,61,6959130802673 ,48,1792600213832 ,86,6505745157738
16.1970194 ,Left ,61,6959130802673 ,48,1792600213832 ,86,6505745157738
16.2196027 ,Left ,61,6713838642965 ,48,1834200087753 ,86,6800311771538
16.2196049 ,Left ,61,6713838642965 ,48,1834200087753 ,86,6800311771538
16.2349079 ,Left ,61,5937094108925 ,48,215918260348 ,86,6955616298659
16.2349197 ,Left ,61,5937094108925 ,48,215918260348 ,86,6955616298659
16.2574682 ,Left ,61,5806802793892 ,48,1910595567388 ,86,7045216189018
16.2574757 ,Left ,61,5806802793892 ,48,1910595567388 ,86,7045216189018
16.279921 ,Left ,61,4868565750644 ,48,0823265300146 ,86,7562953143996
16.2799286 ,Left ,61,4868565750644 ,48,0823265300146 ,86,7562953143996
16.2943401 ,Left ,61,4765438349583 ,48,0095540368958 ,86,7613841691057
16.2943417 ,Left ,61,4765438349583 ,48,0095540368958 ,86,7613841691057
16.3169345 ,Left ,61,4661997392306 ,47,9336494997701 ,86,7620958467631
16.3169365 ,Left ,61,4661997392306 ,47,9336494997701 ,86,7620958467631
16.3396237 ,Left ,61,4545771934358 ,47,9374711743221 ,86,7238259479464
16.3396258 ,Left ,61,4545771934358 ,47,9374711743221 ,86,7238259479464
16.3536289 ,Left ,61,4582331044966 ,47,9996847381597 ,86,7019816555736
16.3536309 ,Left ,61,4582331044966 ,47,9996847381597 ,86,7019816555736
16.376838 ,Left ,61,4992651017488 ,48,0439361806804 ,86,6780526570859
16.3768401 ,Left ,61,4992651017488 ,48,0439361806804 ,86,6780526570859
16.3996475 ,Left ,61,4995168797333 ,48,0692693919897 ,86,645937778181
16.3996501 ,Left ,61,4995168797333 ,48,0692693919897 ,86,645937778181
16.4139522 ,Left ,61,4851325921038 ,48,0965180628714 ,86,6035856225094
16.4139546 ,Left ,61,4851325921038 ,48,0965180628714 ,86,6035856225094
16.4369948 ,Left ,61,4703384609279 ,48,1200196515875 ,86,5578434554243
16.436997 ,Left ,61,4703384609279 ,48,1200196515875 ,86,5578434554243
16.4594038 ,Left ,61,4878399382054 ,48,152797425647 ,86,5067625779086
16.459406 ,Left ,61,4878399382054 ,48,152797425647 ,86,5067625779086
16.4805237 ,Left ,61,4941476606167 ,48,1814902427486 ,86,4268122448796
16.4805264 ,Left ,61,4941476606167 ,48,1814902427486 ,86,4268122448796
16.4972614 ,Left ,61,457255675722 ,48,1841886612006 ,86,3344606134523
16.4972648 ,Left ,61,457255675722 ,48,1841886612006 ,86,3344606134523
16.5196 ,Left ,61,3989834275437 ,48,1931702409797 ,86,2559527711364
16.519602 ,Left ,61,3989834275437 ,48,1931702409797 ,86,2559527711364
16.5338228 ,Left ,61,3850025520413 ,48,1973788632568 ,86,1864068999774
16.5338246 ,Left ,61,3850025520413 ,48,1973788632568 ,86,1864068999774
16.5570001 ,Left ,61,3921287495691 ,48,181027013744 ,86,1102121113353
16.5570021 ,Left ,61,3921287495691 ,48,181027013744 ,86,1102121113353
16.5854261 ,Left ,61,3870643686244 ,48,1442800288344 ,86,0434983230464
16.5854282 ,Left ,61,3870643686244 ,48,1442800288344 ,86,0434983230464
16.5937977 ,Left ,61,3345922364329 ,48,1220246797272 ,86,0126869321919
16.5938001 ,Left ,61,3345922364329 ,48,1220246797272 ,86,0126869321919
16.617113 ,Left ,61,2958848425515 ,48,1237629197197 ,85,9766896688731
16.6171168 ,Left ,61,2958848425515 ,48,1237629197197 ,85,9766896688731
16.6395551 ,Left ,61,2364431858437 ,48,0828113591441 ,85,9095498945894
16.639557 ,Left ,61,2364431858437 ,48,0828113591441 ,85,9095498945894
16.6604784 ,Left ,61,1749950491003 ,48,0105112136623 ,85,8693921647645
16.6604802 ,Left ,61,1749950491003 ,48,0105112136623 ,85,8693921647645
16.6769823 ,Left ,61,0558882340516 ,47,9798324042372 ,85,8879483887598
16.6769839 ,Left ,61,0558882340516 ,47,9798324042372 ,85,8879483887598
16.699588 ,Left ,61,0769362960073 ,47,9767639785904 ,85,9119884991286
16.699593 ,Left ,61,0769362960073 ,47,9767639785904 ,85,9119884991286
16.7206285 ,Left ,61,1706779907322 ,47,9723798527563 ,85,9484768980446
16.7206307 ,Left ,61,1706779907322 ,47,9723798527563 ,85,9484768980446
16.7370761 ,Left ,61,3025344136643 ,47,9512271619595 ,85,9815661406235
16.7370792 ,Left ,61,3025344136643 ,47,9512271619595 ,85,9815661406235
16.7595045 ,Left ,61,3083372458395 ,47,8832569922802 ,86,0381054145741
16.7595085 ,Left ,61,3083372458395 ,47,8832569922802 ,86,0381054145741
16.7807716 ,Left ,61,2732336420188 ,47,8431250310189 ,86,0956334117685
16.7807741 ,Left ,61,2732336420188 ,47,8431250310189 ,86,0956334117685
16.7970216 ,Left ,61,2652271180705 ,47,9031527505778 ,86,1602888257933
16.7970244 ,Left ,61,2652271180705 ,47,9031527505778 ,86,1602888257933
16.8196151 ,Left ,61,2798206066105 ,47,9877064655548 ,86,1958627662299
16.8196189 ,Left ,61,2798206066105 ,47,9877064655548 ,86,1958627662299
16.8405432 ,Left ,61,3687025731602 ,47,9976145925392 ,86,2009785677682
16.8405453 ,Left ,61,3687025731602 ,47,9976145925392 ,86,2009785677682
16.8570749 ,Left ,61,3139592026327 ,47,9407191090432 ,86,2151946117168
16.8570774 ,Left ,61,3139592026327 ,47,9407191090432 ,86,2151946117168
16.8795396 ,Left ,61,2290739808912 ,47,8896463518806 ,86,2273765103399
16.8795432 ,Left ,61,2290739808912 ,47,8896463518806 ,86,2273765103399
