timestamp,event,roll,pitch,yaw
0.0295221 ,Left ,63,2570711239408 ,46,6696861161972 ,36,1418285815502
0.0447952 ,Left ,63,2764449243107 ,46,6672488695653 ,36,1578620550492
0.0671009 ,Left ,63,2922211694713 ,46,6645353770287 ,36,1863147302905
0.0895843 ,Left ,63,2969211625181 ,46,6630668762253 ,36,2187570734813
0.1052317 ,Left ,63,3191118782291 ,46,6692181903896 ,36,249524409192
0.1274841 ,Left ,63,3314184403159 ,46,6741825403896 ,36,2919789835621
0.1497093 ,Left ,63,3535683882261 ,46,6652038487365 ,36,3476913176868
0.179911 ,Left ,63,3706122871836 ,46,6535967594809 ,36,401429069899
0.1950493 ,Left ,63,4241502106139 ,46,6543779692407 ,36,4362448401701
0.232415 ,Left ,63,4557755329433 ,46,6300016451146 ,36,5459904979105
0.2474637 ,Left ,63,4629784579613 ,46,6147386984436 ,36,607635640299
0.2699362 ,Left ,63,4761110226187 ,46,6132410669719 ,36,658053031093
0.2922009 ,Left ,63,4994376691563 ,46,6082582053574 ,36,7106090174131
0.3073346 ,Left ,63,5227689118357 ,46,5984935007876 ,36,7631067020563
0.3298785 ,Left ,63,5255288266555 ,46,5721240266486 ,36,8342303709982
0.3523135 ,Left ,63,4821469762721 ,46,5619229094794 ,36,9110131763007
0.3672005 ,Left ,63,4399625109816 ,46,5644074652178 ,36,9796762790677
0.3974582 ,Left ,63,4074003254947 ,46,5676863270531 ,37,0457746205343
0.4197642 ,Left ,63,3738683463373 ,46,5841137368335 ,37,1024237487101
0.4421929 ,Left ,63,3527643328654 ,46,5886574729923 ,37,1518189327399
0.4573439 ,Left ,63,3180702512804 ,46,5972382235992 ,37,2025072694451
0.4803509 ,Left ,63,3061893057897 ,46,6084757394479 ,37,2410036983982
0.495104 ,Left ,63,3056275139013 ,46,6196004228415 ,37,2646824464235
0.5100832 ,Left ,63,3394492362116 ,46,6274756472156 ,37,2768987809608
0.532696 ,Left ,63,3788753474126 ,46,622469244338 ,37,290384453297
0.5477361 ,Left ,63,3929956027919 ,46,618571744256 ,37,3026751212392
0.5701226 ,Left ,63,4294604907062 ,46,6132515001518 ,37,3031977572913
0.592484 ,Left ,63,4628387854224 ,46,6133803376709 ,37,2980869294997
0.6074216 ,Left ,63,5087388112587 ,46,6094993421459 ,37,2874169321833
0.6298571 ,Left ,63,5506467909026 ,46,6107374249939 ,37,2826182535962
0.6673133 ,Left ,63,5830395753856 ,46,6144969200648 ,37,2909338539914
0.6821259 ,Left ,63,5859516268709 ,46,6245279341624 ,37,3041373891395
0.7047501 ,Left ,63,5640045157033 ,46,6343692373756 ,37,3245223635399
0.7347934 ,Left ,63,4792940055301 ,46,6724925187337 ,37,3835668785558
0.7646328 ,Left ,63,4372792300126 ,46,7055895281872 ,37,4139188882235
0.7947691 ,Left ,63,4129219370806 ,46,7551949264634 ,37,4765871092908
0.8249106 ,Left ,63,4217833624505 ,46,7601898668537 ,37,5015139812532
0.8397794 ,Left ,63,4122203702104 ,46,7681268363721 ,37,5307670852927
0.8546195 ,Left ,63,4007775905202 ,46,7801433990524 ,37,5602300934897
0.8773115 ,Left ,63,4017931999505 ,46,7838960520018 ,37,5912462130167
0.8997573 ,Left ,63,3967246383405 ,46,776664752098 ,37,6209648507271
0.9221919 ,Left ,63,3882801816949 ,46,7674039406128 ,37,6415785915287
0.9373572 ,Left ,63,3995333907887 ,46,7496851259402 ,37,6617386774848
0.9597513 ,Left ,63,4189993917483 ,46,7265632858987 ,37,6700259913754
0.9747467 ,Left ,63,4236935743256 ,46,7163011957882 ,37,6774232911232
0.9896319 ,Left ,63,4278798588278 ,46,7019766298362 ,37,6693089687641
1.0125976 ,Left ,63,4460336497175 ,46,6814572481434 ,37,6452511944345
1.0354246 ,Left ,63,4568281360809 ,46,667831003524 ,37,6128674250947
1.0574567 ,Left ,63,4418592122144 ,46,6490816359021 ,37,5831130106702
1.0874156 ,Left ,63,4199233824826 ,46,6255317854458 ,37,5620524805594
1.1027217 ,Left ,63,4010080520491 ,46,591626283081 ,37,5306874151976
1.1175488 ,Left ,63,3834982411087 ,46,5519536015898 ,37,4961300907262
1.1550289 ,Left ,63,3768600550639 ,46,4374061343111 ,37,4404587783339
1.1703869 ,Left ,63,3631714922813 ,46,381402819355 ,37,4196501838739
1.2001973 ,Left ,63,3587965937093 ,46,3173686231747 ,37,3877078023335
1.2303417 ,Left ,63,3612609898817 ,46,2368510174096 ,37,3592749345254
1.2451129 ,Left ,63,3297124736771 ,46,1526875850744 ,37,3369762337644
1.2896772 ,Left ,63,2707592867092 ,46,0257270722229 ,37,2842343870855
1.3195292 ,Left ,63,2162691595819 ,46,0065896577721 ,37,2167168817109
1.3421337 ,Left ,63,1981800678636 ,45,9630234817212 ,37,1943970142681
1.3573686 ,Left ,63,2064928931308 ,45,9756851759914 ,37,2070539114263
1.3723537 ,Left ,63,1873112988491 ,46,0008239871022 ,37,2386654655
1.3946075 ,Left ,63,0780857179756 ,46,0365769006826 ,37,259513945401
1.4097667 ,Left ,63,1078634111006 ,46,0761976843552 ,37,2422542656816
1.4321766 ,Left ,63,1900151508359 ,46,1143023046092 ,37,2493483196113
1.4623249 ,Left ,63,2175166327434 ,46,1469085903495 ,37,2885146257055
1.4772048 ,Left ,63,2037396464864 ,46,1518651517418 ,37,3041036781029
1.5070835 ,Left ,63,1822746068938 ,46,1428851192048 ,37,283571000728
1.5221738 ,Left ,63,164714397062 ,46,1237433111977 ,37,2433586694537
1.5372956 ,Left ,63,1446203864009 ,46,1088545971372 ,37,1900811453856
1.5595912 ,Left ,63,1201928319133 ,46,1057664153418 ,37,1255844407452
1.5746775 ,Left ,63,1333949347043 ,46,0851897850276 ,37,0321185774083
1.590159 ,Left ,63,0670960823615 ,46,0437328566652 ,36,9711931061008
1.6123566 ,Left ,63,0152068970944 ,45,9623221691706 ,36,9118382821359
1.6346602 ,Left ,63,058245099563 ,45,8567032722473 ,36,8637885707931
1.6496741 ,Left ,63,1541411331983 ,45,7521329412712 ,36,8786947790522
1.672443 ,Left ,63,1850408179507 ,45,7246463830326 ,36,9306728789289
1.6948257 ,Left ,63,0380941926188 ,45,7302244768598 ,36,9480872312393
1.7171634 ,Left ,62,9884081577043 ,45,7974891755083 ,36,9164363177709
1.7398192 ,Left ,63,037703310649 ,45,8720598870813 ,36,9276324952718
1.7622174 ,Left ,63,156990905998 ,45,9339715156547 ,37,0044383510998
1.7772133 ,Left ,63,2973329351453 ,45,9172284695816 ,37,0254021676626
1.7923874 ,Left ,63,2893654826665 ,45,8102120106851 ,37,0827249003293
1.8144835 ,Left ,63,3926220051779 ,45,7382995607952 ,37,1809799750805
1.8369541 ,Left ,63,3887705906348 ,45,7531452804873 ,37,2645615947219
1.8522782 ,Left ,63,3201476112857 ,45,8728059182694 ,37,2969186822699
1.8745807 ,Left ,63,3206380299584 ,46,0487335517069 ,37,3460783055451
1.8970896 ,Left ,63,2373038039955 ,46,2603880585319 ,37,3961592981713
1.9123518 ,Left ,63,1607478339053 ,46,4579636291581 ,37,4336343081402
1.9347828 ,Left ,63,0962844809942 ,46,5595315079306 ,37,4096844704828
1.9570644 ,Left ,62,9861022515402 ,46,5134223515618 ,37,385441143585
1.972581 ,Left ,62,9070984165612 ,46,3523206247199 ,37,3349207958378
1.9944519 ,Left ,62,9308118148385 ,46,1319011300856 ,37,2854763400165
2.0170436 ,Left ,62,9816444657035 ,45,9726027934417 ,37,287666026969
2.0322577 ,Left ,62,9718502473953 ,45,937268468565 ,37,2920123620549
2.054491 ,Left ,63,0040631194234 ,45,9580589964185 ,37,2807795095957
2.0769978 ,Left ,63,1171149344031 ,45,9973821778233 ,37,2584076411988
2.0921702 ,Left ,63,2010164191334 ,46,0141601897159 ,37,2477130082967
2.1146847 ,Left ,63,1844777730591 ,46,0380863641486 ,37,280173834958
2.137305 ,Left ,63,1008491448636 ,46,0596927796131 ,37,3135549935673
2.1519157 ,Left ,63,0433474765411 ,46,0726434812588 ,37,3415700113727
2.1743712 ,Left ,63,08078825091 ,46,0751463379956 ,37,333771161443
2.1970799 ,Left ,63,1217240881338 ,46,084616140234 ,37,3260269077325
2.2121428 ,Left ,63,1233647359379 ,46,0882425345786 ,37,3226949838351
2.2345949 ,Left ,63,1005278883115 ,46,0974547864801 ,37,3316894848088
2.257462 ,Left ,63,0994717430691 ,46,1038681872549 ,37,3328113312567
2.2724525 ,Left ,63,0905721432255 ,46,1320583628613 ,37,3263024231894
2.2949826 ,Left ,63,0759140046634 ,46,1506454054317 ,37,3010140946688
2.317365 ,Left ,63,0566837418457 ,46,1756545809927 ,37,2733288438311
2.3327117 ,Left ,63,061281811328 ,46,2119269015817 ,37,2393169422359
2.3551739 ,Left ,63,0889264304637 ,46,2457889875488 ,37,2154259288995
2.3848959 ,Left ,63,0741337046516 ,46,2730227146492 ,37,1919167470573
2.4072529 ,Left ,63,063126132032 ,46,2751293549669 ,37,1644261598421
2.4298509 ,Left ,63,0663119778638 ,46,2775857786855 ,37,1192410917625
2.4449954 ,Left ,63,0901683904367 ,46,2838014646215 ,37,0673989542357
2.4598639 ,Left ,63,083185460862 ,46,2796376661933 ,37,0288506807621
2.4820949 ,Left ,63,0571218724678 ,46,2756777946572 ,37,000641303235
2.5119128 ,Left ,63,0560543573901 ,46,2731366975267 ,36,9701997873849
2.5270571 ,Left ,63,0716678383089 ,46,2657355738051 ,36,9300821626576
2.5424152 ,Left ,63,0481445238276 ,46,2557783329722 ,36,9028684366982
2.5645003 ,Left ,63,0348747449625 ,46,2400427394359 ,36,8811802923035
2.5872704 ,Left ,63,0353217243988 ,46,2204398984543 ,36,8580489530977
2.6094741 ,Left ,63,0268945661712 ,46,1928079163676 ,36,8543229434415
2.6394713 ,Left ,62,9707939554507 ,46,1420908997775 ,36,7971646550889
2.6546608 ,Left ,62,9416038135132 ,46,0968162223069 ,36,7481864164281
2.6770781 ,Left ,62,9276379286895 ,46,0604526807384 ,36,7101897906235
2.6920643 ,Left ,62,9066795800831 ,46,0366837156596 ,36,6826351485898
2.722009 ,Left ,62,8405322906906 ,46,0469378395005 ,36,6668589909243
2.7447088 ,Left ,62,6873406581937 ,46,0794875836879 ,36,6698209572079
2.7744849 ,Left ,62,7541264269265 ,46,0659181215639 ,36,688593068041
2.7970237 ,Left ,62,8676860022726 ,46,0812690418328 ,36,7316358811408
2.8195567 ,Left ,62,9586671467874 ,46,0536044331869 ,36,7680171460046
2.8347649 ,Left ,63,0024869783456 ,45,9935110310282 ,36,7645800734277
2.8569233 ,Left ,63,0221693371835 ,45,9388481289521 ,36,7573539084911
2.8802991 ,Left ,62,9839507294869 ,45,8743627270327 ,36,7976469592899
2.8953745 ,Left ,62,8668743506654 ,45,830020261058 ,36,8699422935354
2.917808 ,Left ,62,7947074093201 ,45,847404466051 ,36,9073555460965
2.932535 ,Left ,62,7482897326029 ,45,8741903636694 ,36,920645345036
2.9550761 ,Left ,62,6807060901225 ,45,9117881158472 ,36,9272015249576
2.9775045 ,Left ,62,7829401967171 ,45,9405210047609 ,36,9184458601881
2.9999794 ,Left ,62,9345416254561 ,45,8723430389684 ,36,9961290098276
3.0149943 ,Left ,63,0659900633547 ,45,871244039031 ,37,0570644428849
3.0375963 ,Left ,62,9086133550012 ,45,8947367656863 ,37,1416774782172
3.0674025 ,Left ,62,7924146777411 ,45,95467262549 ,37,155485415664
3.0823154 ,Left ,62,8868116991979 ,46,0291007449865 ,37,1166679548221
3.1050504 ,Left ,63,0101719978852 ,46,0794132430957 ,37,1100222955535
3.1275899 ,Left ,63,0318692986069 ,46,1000604383506 ,37,1563601916065
3.1501652 ,Left ,62,9803132882432 ,46,1080952761317 ,37,2323557773892
3.1800327 ,Left ,62,9669242050218 ,46,1220159489028 ,37,2859297188567
3.1951377 ,Left ,62,970491142985 ,46,1243631561678 ,37,3312122607798
3.2095625 ,Left ,63,012908159639 ,46,1352259043273 ,37,3464318716039
3.2395681 ,Left ,63,0551378053468 ,46,1586499745912 ,37,3812114483027
3.254766 ,Left ,63,0473844394104 ,46,1736440148443 ,37,3996183077641
3.2697281 ,Left ,63,0015565765306 ,46,1936954959028 ,37,4316888884209
3.3075855 ,Left ,63,022388534845 ,46,2093965331281 ,37,4669436310485
3.3300868 ,Left ,63,0419284310054 ,46,2002659188975 ,37,4839932945187
3.3672428 ,Left ,63,0197308709047 ,46,1838690777725 ,37,5234404479623
3.3898226 ,Left ,63,0427734634323 ,46,1841229869575 ,37,537094493788
3.4349735 ,Left ,63,0392288674962 ,46,1935351173258 ,37,5652215686197
3.4572709 ,Left ,63,032851126452 ,46,1955891294489 ,37,5838623633387
3.4872885 ,Left ,63,0653275377357 ,46,1816833426004 ,37,5948490580988
3.5098584 ,Left ,63,0737415566586 ,46,1827347752225 ,37,5951741411524
3.5472429 ,Left ,63,0344463606838 ,46,1593683991642 ,37,6113957884894
3.5697327 ,Left ,63,0409170344603 ,46,1470274340526 ,37,6082055054704
3.6072023 ,Left ,63,0379840023996 ,46,0838568964948 ,37,6084081579105
3.6298192 ,Left ,63,029366217984 ,46,045623838364 ,37,6199013481803
3.6670923 ,Left ,62,9589890566224 ,45,9228134704306 ,37,6345242107694
3.6895092 ,Left ,62,913971659113 ,45,8544619715127 ,37,6404465992035
3.7270893 ,Left ,62,8209456656724 ,45,7589975716435 ,37,6302022915285
3.7496617 ,Left ,62,8208194423625 ,45,6933823021443 ,37,6106330334802
3.7873446 ,Left ,63,0321216429127 ,45,6654504405014 ,37,6025954395191
3.8097768 ,Left ,62,9869686889477 ,45,7358096572425 ,37,6004221236043
3.8773071 ,Left ,62,9540483629085 ,45,8545595331675 ,37,5743753906003
3.899713 ,Left ,63,056019231911 ,45,9023585321695 ,37,5528149422941
3.9374306 ,Left ,62,727488613665 ,46,0329080075202 ,37,4325904832878
3.9670944 ,Left ,62,7875641677372 ,46,1125117506488 ,37,21940946038
3.9894967 ,Left ,62,8426459259672 ,46,0633374818496 ,37,1120800704013
4.0270809 ,Left ,62,9262541262684 ,45,8474704967345 ,37,1274437327292
4.0495511 ,Left ,63,0470416783902 ,45,8098592974642 ,37,1900534565553
4.0873172 ,Left ,62,9080481519957 ,45,8536256345612 ,37,1993627733481
4.1098788 ,Left ,62,9367201736362 ,45,9683523380001 ,37,1883626044501
4.1473563 ,Left ,63,0097825458131 ,46,2891722113638 ,37,1845810430108
4.1697117 ,Left ,62,906000310714 ,46,3015739275746 ,37,1710690377469
4.214786 ,Left ,63,1817289072213 ,46,0492300884448 ,37,2795666161513
4.2372645 ,Left ,63,0426092662555 ,45,9768811238646 ,37,3188203220861
4.2671736 ,Left ,62,8641963798139 ,46,0701054285004 ,37,400525132069
4.289523 ,Left ,62,8316798081278 ,46,2239194752675 ,37,4165626393197
4.327292 ,Left ,62,8615016007555 ,46,4262077695253 ,37,3598841238701
4.3496831 ,Left ,62,7943215233077 ,46,3755090266835 ,37,3285125473776
4.3873455 ,Left ,63,11210984877 ,46,051683600012 ,37,3335440762852
4.4098895 ,Left ,63,1014884583847 ,45,9982603697147 ,37,338370417046
4.4472229 ,Left ,62,9789908867629 ,46,0155021468394 ,37,2749369369876
4.4773233 ,Left ,63,0900652496296 ,46,0442997779109 ,37,2528124682868
4.5223347 ,Left ,63,1444922027556 ,46,0942837828201 ,37,2807120275141
4.537368 ,Left ,63,0728862514021 ,46,0888255600243 ,37,286047820828
4.5898423 ,Left ,63,0634853515452 ,46,1199993102275 ,37,2765394048755
4.6347016 ,Left ,62,9654205886819 ,46,1759272015472 ,37,2371302211738
4.6571352 ,Left ,62,9589948857683 ,46,1482564092199 ,37,2032869726682
4.7099019 ,Left ,62,8487234943396 ,46,0780296117953 ,37,0310843863353
4.7474354 ,Left ,62,8182332279929 ,46,0394685490381 ,36,945086804666
4.7698377 ,Left ,62,7610569725284 ,46,0186921775987 ,36,9345435648124
4.7846624 ,Left ,62,6981773988443 ,46,0322512914759 ,36,9486102913813
4.7997551 ,Left ,62,6549787451147 ,46,1165768419174 ,36,9666534956825
4.8225501 ,Left ,62,6036426625672 ,46,1865704742465 ,36,9666857113381
4.8448332 ,Left ,62,7283347651054 ,46,2061591492977 ,36,9501326708791
4.8675393 ,Left ,62,935070645285 ,46,1663766196863 ,37,0195422040198
4.890419 ,Left ,63,0513536803217 ,46,1313483078279 ,37,0655068224374
4.9275893 ,Left ,62,8910369502787 ,46,1150440768671 ,37,0810666356843
4.9498328 ,Left ,62,9410237538774 ,46,0988477729089 ,37,1060322702423
4.994969 ,Left ,62,7700129289684 ,46,0663205993808 ,37,1760040964748
5.0173562 ,Left ,62,6652470598881 ,46,0467406371002 ,37,1641745602571
5.0324752 ,Left ,62,5818101069096 ,46,0406067456656 ,37,1658446242109
5.0468341 ,Left ,62,5914997728936 ,46,0325259946665 ,37,1840421298649
5.0619378 ,Left ,62,7346340399292 ,46,0250111727633 ,37,185341041645
5.0845142 ,Left ,62,9157753909848 ,45,9708651420164 ,37,2162653035687
5.0995864 ,Left ,62,9260018482926 ,45,9470254348653 ,37,3014610262559
5.1221943 ,Left ,62,8228887864912 ,45,9720210096431 ,37,3578012591952
5.1444133 ,Left ,62,7267103022894 ,46,0096672867033 ,37,3950171994898
5.1595549 ,Left ,62,7961715274553 ,46,0215156297636 ,37,3934350461306
5.1822759 ,Left ,62,9605120343241 ,46,0376394140599 ,37,3701271174401
5.2044777 ,Left ,63,0331205495991 ,46,0480767568727 ,37,3759394234504
5.2196492 ,Left ,62,9444086252674 ,46,0504434614058 ,37,4194085296309
5.2425892 ,Left ,62,854691184509 ,46,056480374521 ,37,4691412830631
5.2643494 ,Left ,62,9046454832817 ,46,073185318774 ,37,4802809866841
5.2797254 ,Left ,62,9826440624592 ,46,0727985370187 ,37,4841346330327
5.3022629 ,Left ,63,0259036141273 ,46,0701125212496 ,37,4948447306085
5.3248448 ,Left ,63,0012932883612 ,46,0816333970366 ,37,5143775424059
5.3395156 ,Left ,62,9243690044533 ,46,1033035112356 ,37,5427720600046
5.3622331 ,Left ,62,9338551712466 ,46,1194224352815 ,37,5543848821712
5.3845371 ,Left ,62,9691559900421 ,46,1286824770678 ,37,5506016903869
5.3994964 ,Left ,62,986277237074 ,46,1322228032545 ,37,5404957254483
5.4296292 ,Left ,62,9729230896412 ,46,1391494419343 ,37,5521968921157
5.4523399 ,Left ,62,9320037262539 ,46,1562180426597 ,37,5654180489814
5.4669033 ,Left ,62,9194935243685 ,46,1608031484074 ,37,5779856701509
5.482184 ,Left ,62,9422955942291 ,46,1466144726171 ,37,5759468889039
5.5047097 ,Left ,62,9811167068087 ,46,1386735190044 ,37,5788949489122
5.5197318 ,Left ,62,9663717636786 ,46,1375500288552 ,37,5849105337859
5.542397 ,Left ,62,950759601699 ,46,1391983044587 ,37,5970484625448
5.5645138 ,Left ,62,952558843551 ,46,1384118576178 ,37,607446332211
5.5796349 ,Left ,62,9726695976686 ,46,1316564228315 ,37,6186505530308
5.6020576 ,Left ,62,959983733399 ,46,1228024745289 ,37,6294638959765
5.6247145 ,Left ,62,9480959559407 ,46,1203350952405 ,37,6430577074045
5.6470932 ,Left ,62,93910465953 ,46,125604905213 ,37,6503901062192
5.6620379 ,Left ,62,9658981872354 ,46,144001798112 ,37,6535181490117
5.6922661 ,Left ,62,9606464148894 ,46,1426217648485 ,37,6657142140064
5.7146067 ,Left ,62,9426836417386 ,46,1261769594043 ,37,6834406115588
5.7444972 ,Left ,62,9337794682155 ,46,1103037960168 ,37,6920975286399
5.8046236 ,Left ,62,9314731025998 ,46,1232556662809 ,37,6876190352631
5.857003 ,Left ,62,943968777188 ,46,1186400227585 ,37,675051320726
5.9095244 ,Left ,62,9340927667573 ,46,1116957683409 ,37,6813572038971
5.9395905 ,Left ,62,9668429596281 ,46,070240190599 ,37,7176380869132
5.9696678 ,Left ,62,9154150078596 ,45,9858542182214 ,37,7537538621897
5.9924044 ,Left ,62,9036830327687 ,45,9268029502325 ,37,7541277333217
6.0149177 ,Left ,62,858157455178 ,45,8550620652037 ,37,7586471323987
6.0293874 ,Left ,62,8016819992847 ,45,8274017741405 ,37,7714272997572
6.0672128 ,Left ,62,7306317762165 ,45,831087855536 ,37,6572360011445
6.0822659 ,Left ,62,8656858316612 ,45,8284737127782 ,37,6381677961254
6.1048237 ,Left ,62,8767505170357 ,45,853237589872 ,37,6689970583923
6.1423698 ,Left ,62,7480346356399 ,45,8907170865832 ,37,6663975808864
6.1572379 ,Left ,62,7390349506666 ,45,9258570552177 ,37,6202153659941
6.1796257 ,Left ,62,9214593421345 ,45,979707216288 ,37,5373152197648
6.2027939 ,Left ,62,8310525178871 ,46,1290162617613 ,37,4288234192088
6.2252045 ,Left ,62,6491309425875 ,46,2409130936287 ,37,3893451258286
6.2475849 ,Left ,62,669796084679 ,46,3447324966003 ,37,3161765824502
6.2627468 ,Left ,62,722578142601 ,46,3530967422178 ,37,2055172236306
6.2850594 ,Left ,62,72314619566 ,46,2540494662142 ,37,1368943752384
6.3073619 ,Left ,62,8394589069298 ,46,0909904948303 ,37,1622835325986
6.3225992 ,Left ,62,9994128785313 ,45,9601704065033 ,37,2107513870431
6.3451338 ,Left ,62,9297378578506 ,45,9162662431562 ,37,2246824250848
6.3672539 ,Left ,62,7731827744318 ,45,913258221709 ,37,1938529728676
6.3825845 ,Left ,62,8307010017096 ,45,9452230954034 ,37,1258927775158
6.4051521 ,Left ,62,9513096875893 ,46,0133131898392 ,37,05564692611
6.4273694 ,Left ,62,9856856651028 ,46,0663416343101 ,37,0090901755576
6.4425448 ,Left ,62,8819999875855 ,46,0937146209747 ,37,0239006462112
6.4651397 ,Left ,62,7445322974216 ,46,0597746042695 ,37,0221519761017
6.4874096 ,Left ,62,8229059666484 ,45,9493260392806 ,37,026024677536
6.517262 ,Left ,62,9724891179936 ,45,8482767279365 ,37,0864048486555
6.5323289 ,Left ,62,9725976520866 ,45,7815073645834 ,37,122521024967
6.5547233 ,Left ,62,7749986749226 ,45,758308489939 ,37,1748765254577
6.5923141 ,Left ,62,7418083388869 ,46,042068642827 ,37,2860374680012
6.6145976 ,Left ,62,7866842173825 ,46,1699949736607 ,37,2848961584316
6.6445546 ,Left ,62,8347210130439 ,46,2102408136128 ,37,2579021776869
6.6672268 ,Left ,62,9613477734889 ,46,0759505620615 ,37,2703207195126
6.6895269 ,Left ,63,0267217596269 ,45,9852855397004 ,37,2687402357443
6.7047966 ,Left ,62,9126925071498 ,45,9797825328913 ,37,2576083387114
6.7272141 ,Left ,62,796277420722 ,46,0067412047599 ,37,2645834706212
6.757263 ,Left ,62,8679239305635 ,46,0646235955807 ,37,2522287330606
6.7721778 ,Left ,63,0147502266406 ,46,1155396052665 ,37,2572450516423
6.8097649 ,Left ,63,0005688086768 ,46,1649129323732 ,37,318883706951
6.8249601 ,Left ,62,9253864424594 ,46,1853834849155 ,37,3575492317555
6.8549164 ,Left ,62,9077966652127 ,46,1996843895762 ,37,3874752933026
6.8772911 ,Left ,62,9751710084349 ,46,2141405431208 ,37,3971119893822
6.8923916 ,Left ,62,988697318952 ,46,2268186771099 ,37,4081785206082
6.9377691 ,Left ,62,9773314550352 ,46,2288755507964 ,37,4283070553506
6.9526087 ,Left ,63,0151719453455 ,46,2285217843173 ,37,4464217134081
6.9753423 ,Left ,62,9789561084112 ,46,225837854755 ,37,4738592458853
6.9976978 ,Left ,62,9736138385927 ,46,2273453141316 ,37,4897048504458
7.0275349 ,Left ,63,0062297598658 ,46,2328600501394 ,37,5008680796448
7.0423288 ,Left ,63,0328200174828 ,46,2330665632142 ,37,5180119608543
7.0648065 ,Left ,63,0030225831021 ,46,2315053180978 ,37,5530426682074
7.1035539 ,Left ,62,9825809963156 ,46,2337694103125 ,37,5962329823469
7.1171046 ,Left ,62,9943771464372 ,46,1982201087859 ,37,6188853677324
7.1472767 ,Left ,63,0995404083623 ,46,1513747888944 ,37,6020316177687
7.177306 ,Left ,63,1797120668681 ,46,3085061437226 ,37,578898236385
7.2222102 ,Left ,63,0214802241821 ,46,1970610361273 ,37,5742986281785
7.274626 ,Left ,63,1721368517183 ,45,9999427708883 ,37,424239391337
7.2897908 ,Left ,63,1373409596223 ,45,9688671557848 ,37,3994963835199
7.3123225 ,Left ,63,1279847541017 ,45,9708629373102 ,37,3602359928751
7.3272836 ,Left ,63,1306027933619 ,45,9738933539987 ,37,3246391569014
7.3423706 ,Left ,63,1062413034024 ,45,9761297553313 ,37,2968856864446
7.3644894 ,Left ,63,0813214394184 ,45,972669790086 ,37,2574829528839
7.3796214 ,Left ,63,0165411819591 ,45,9374147941401 ,37,2490592292855
7.402298 ,Left ,62,9259957711507 ,45,9769991864816 ,37,2477671512957
7.4247828 ,Left ,63,0114780811441 ,46,1110556359357 ,37,199465941803
7.4398335 ,Left ,63,0463999404247 ,46,1054387425073 ,37,1523085190415
7.4624376 ,Left ,63,0200038811147 ,46,1273937488516 ,37,1230073709233
7.4847607 ,Left ,63,0218091117346 ,46,132602871526 ,37,0863361855176
7.4998004 ,Left ,63,0225969681609 ,46,1137764598498 ,37,0453969643371
7.522327 ,Left ,63,0281821711337 ,46,0892470856742 ,36,9979535682653
7.5449221 ,Left ,62,9904920278398 ,46,0563909620275 ,36,9642418634156
7.5673762 ,Left ,62,9564922273565 ,46,0358380003336 ,36,9216987907388
7.5824951 ,Left ,62,9559494778387 ,46,012158827939 ,36,8788366710536
7.6047741 ,Left ,62,9478640459123 ,45,9945613015627 ,36,8661309146781
7.6273016 ,Left ,62,9252929368492 ,45,9881343901726 ,36,8904682793672
7.6422895 ,Left ,62,904543154415 ,45,9941292211004 ,36,9042400807157
7.6648637 ,Left ,62,878621453185 ,45,9836939712175 ,36,9163036490377
7.6948294 ,Left ,62,869510475159 ,45,9764750063299 ,36,9202394861104
7.709897 ,Left ,62,8679211072902 ,45,9833259832816 ,36,9443869043335
7.7324089 ,Left ,62,8435132137976 ,46,0009973396371 ,36,9669762404668
7.7473957 ,Left ,62,7776620154478 ,46,0194179406318 ,36,9683777934249
7.7622862 ,Left ,62,6704902724655 ,46,0441255670076 ,36,9692274252195
7.784738 ,Left ,62,5918293154227 ,46,1325204075309 ,36,9860540051553
7.8070918 ,Left ,62,5034732754514 ,46,1937422424002 ,36,9881629440772
7.8220736 ,Left ,62,4994129664746 ,46,1971452486904 ,36,9886955246594
7.8448209 ,Left ,62,6891212500178 ,46,1187447441522 ,37,0231742543204
7.8672381 ,Left ,62,7656324125788 ,46,049384712535 ,37,0359325976239
7.8822851 ,Left ,62,6662467740633 ,46,0364511206134 ,37,0031170192379
7.9046832 ,Left ,62,6956831011781 ,46,0117273596343 ,36,9669233311217
7.9271278 ,Left ,62,7604688248722 ,45,9746035978118 ,36,9684711268937
7.9496324 ,Left ,62,7528508158401 ,46,002472530512 ,37,0019940605847
7.9719727 ,Left ,62,6123387347501 ,46,0467898154243 ,37,053465277513
7.9869368 ,Left ,62,4510180885968 ,46,1178772743658 ,37,0886594144153
8.0103133 ,Left ,62,5538075938252 ,46,1450899978583 ,37,1024642802839
8.032728 ,Left ,62,8429852293815 ,46,0716873364256 ,37,1657229821531
8.0476209 ,Left ,63,0597560175573 ,45,9791465639489 ,37,2512934733812
8.0700013 ,Left ,62,9821686788474 ,45,9400570500996 ,37,3060217145261
8.0926474 ,Left ,62,870878546681 ,45,9584450217602 ,37,3166990791991
8.1076311 ,Left ,62,8691656175786 ,45,9919475911019 ,37,3081346135582
8.1299598 ,Left ,62,9679959978814 ,46,0256924400108 ,37,3033993493622
8.1600876 ,Left ,63,0323951042003 ,46,0555052699852 ,37,3140590570831
8.1749205 ,Left ,63,0024309256165 ,46,091985222717 ,37,3425948442946
8.1976771 ,Left ,62,9499718352927 ,46,1206728335562 ,37,3830868558674
8.212447 ,Left ,62,9393346868459 ,46,1272638727378 ,37,4164528853084
8.2270343 ,Left ,62,9584398388372 ,46,1168465353536 ,37,4443305391824
8.2495019 ,Left ,62,982143011547 ,46,107502283282 ,37,478069260428
8.2795767 ,Left ,62,9756705996232 ,46,1088376093687 ,37,5054730987436
8.294579 ,Left ,62,9639965445795 ,46,109876788062 ,37,520656643978
8.3172113 ,Left ,62,9662639136164 ,46,0988288267379 ,37,5147722796893
8.3397724 ,Left ,62,9637001748826 ,46,0848736208282 ,37,5067100904758
8.3623925 ,Left ,62,954868777085 ,46,0842955717647 ,37,5068164189756
8.3847682 ,Left ,62,9489943820702 ,46,0749632860227 ,37,5108593686635
8.3998051 ,Left ,62,9578147688477 ,46,0508377200009 ,37,5104578511772
8.4149651 ,Left ,62,9629688746854 ,46,0245709822996 ,37,5032685272862
8.4296783 ,Left ,62,9589502545218 ,46,0192972662852 ,37,5020003847627
8.4524121 ,Left ,62,9513697174657 ,46,0380540634553 ,37,5063183270035
8.4672544 ,Left ,62,9238732421244 ,46,0528402903845 ,37,507872765634
8.4897505 ,Left ,62,9347150052128 ,46,0483049048607 ,37,4935004642866
8.5124027 ,Left ,62,9581037320746 ,46,0318992535956 ,37,4855972512957
8.5273791 ,Left ,62,9797978102848 ,46,0282429347789 ,37,4864741502262
8.5496149 ,Left ,62,9450573673181 ,46,0223593361611 ,37,498535241278
8.5799742 ,Left ,62,9199082980481 ,46,0165874169765 ,37,5010136298222
8.5945163 ,Left ,62,9453985020341 ,46,0000442619741 ,37,5014315211664
8.6395727 ,Left ,62,9789981439279 ,45,9769318271324 ,37,5075502370482
8.6997561 ,Left ,62,942804342093 ,45,8464799060653 ,37,5716640980217
8.7296353 ,Left ,62,8500638111794 ,45,7641018820089 ,37,6305413455846
8.752262 ,Left ,62,8496331489963 ,45,7627512399734 ,37,6413183772036
8.7746497 ,Left ,62,7706682135149 ,45,7724270175313 ,37,6201120628596
8.7897717 ,Left ,62,783225322783 ,45,7419313648922 ,37,6020764011358
8.8123818 ,Left ,62,9158812777453 ,45,7199441371436 ,37,5987534854673
8.8347244 ,Left ,63,0546648090965 ,45,7466061314143 ,37,5916524107732
8.8571216 ,Left ,62,9154565890681 ,45,7685557435213 ,37,6084130941781
8.8797886 ,Left ,62,7599203101839 ,45,7956243552379 ,37,5982054662179
8.9024432 ,Left ,62,8335470734137 ,45,8405752953931 ,37,5318939260901
8.9171539 ,Left ,62,993644762535 ,45,8819787309529 ,37,4241702559121
8.9322545 ,Left ,62,9329854566954 ,45,918816495977 ,37,3515801817466
8.954791 ,Left ,62,760803525505 ,45,9401007987484 ,37,2982234782499
8.9697752 ,Left ,62,6625458420344 ,45,9550306161687 ,37,2488826992803
8.9921964 ,Left ,62,608507910419 ,45,9635105370423 ,37,1899921781471
9.0147116 ,Left ,62,6470885298468 ,45,996172057236 ,37,1303930593662
9.0299034 ,Left ,62,6719986012303 ,45,9883991251617 ,37,0672783056156
9.0521682 ,Left ,62,6968508146125 ,45,931239402427 ,37,0445290886122
9.0822839 ,Left ,62,9060164650667 ,45,8725482864462 ,37,0662516052128
9.0972104 ,Left ,62,9652645284202 ,45,8406295498759 ,37,0849605835909
9.1197769 ,Left ,62,7579498823517 ,45,8449772353586 ,37,0896256231922
9.1349264 ,Left ,62,6624965370961 ,45,8808071669223 ,37,094806879789
9.1648151 ,Left ,62,8071708672028 ,46,101911233455 ,37,0638534766353
9.1872485 ,Left ,62,8780220137 ,46,2785203686604 ,36,9644273833937
9.2021272 ,Left ,62,8549431219487 ,46,3873978495757 ,36,983566362679
9.2252041 ,Left ,63,0086070233931 ,46,2422661691742 ,37,0561039954534
9.2472583 ,Left ,62,973160506865 ,46,2231789475297 ,37,1596998013813
9.262039 ,Left ,62,9838371222832 ,46,2513642558779 ,37,2015966662971
9.2848174 ,Left ,62,856703680621 ,46,2048726932568 ,37,2760952058733
9.3071989 ,Left ,63,010003885109 ,46,3421924188484 ,37,3161141502627
9.3223068 ,Left ,62,9234181702005 ,46,2585279895361 ,37,4037753059609
9.3446399 ,Left ,62,9524044141925 ,46,4104677360484 ,37,4462887751154
9.3824751 ,Left ,62,8491041592602 ,46,4387110379679 ,37,5024211716808
9.4124302 ,Left ,62,9014278660822 ,46,250902076558 ,37,4991814109171
9.4872637 ,Left ,62,9046419457472 ,46,1522761254551 ,37,4339142030888
9.5321117 ,Left ,62,878311654008 ,46,0350517391131 ,37,3392007793529
9.5846596 ,Left ,62,9110035134767 ,45,9873343007541 ,37,3114675894079
9.6072881 ,Left ,62,8688492933053 ,45,9759978515479 ,37,3188069643547
9.6296291 ,Left ,62,8264124738113 ,45,9432246408262 ,37,3003291070237
9.652141 ,Left ,62,8514885296375 ,45,9276811718413 ,37,2786768579334
9.6970902 ,Left ,62,807636899457 ,45,8959175016501 ,37,2634645803475
9.7195786 ,Left ,62,7562613262015 ,45,8558435278673 ,37,2489362164807
9.7419912 ,Left ,62,6443353488456 ,45,8053453155245 ,37,1826239383122
9.7644637 ,Left ,62,5674870228323 ,45,8868541352485 ,37,1759017966094
9.7872371 ,Left ,62,5089571573578 ,45,998928585458 ,37,1885264681748
9.8022257 ,Left ,62,5748992502901 ,46,0259322952201 ,37,1971986386587
9.8246548 ,Left ,62,8039678815553 ,46,0330421152586 ,37,1977720947959
9.8470796 ,Left ,62,8494447861032 ,46,055817177872 ,37,2445674325129
9.8621096 ,Left ,62,699882213758 ,46,08700922678 ,37,2809526474576
9.8846742 ,Left ,62,5399543707755 ,46,1142137068528 ,37,3223106852544
9.9072593 ,Left ,62,600064662635 ,46,1443225557232 ,37,3231676331218
9.9222791 ,Left ,62,7546215530842 ,46,1773027397583 ,37,3134801636287
9.9670852 ,Left ,62,8548769991314 ,46,1885852793153 ,37,3232803642335
10.0270688 ,Left ,62,6882285309836 ,46,1482665467629 ,37,3082817343931
10.1021341 ,Left ,62,6574414818341 ,46,2058790891641 ,37,1678216346972
10.1323709 ,Left ,62,6676178915185 ,46,2200605877127 ,37,1645734137489
10.1698138 ,Left ,62,7311012132962 ,46,198400979384 ,37,1675684878163
10.1926823 ,Left ,62,7609654707736 ,46,1910462695745 ,37,1621783920472
10.2296006 ,Left ,62,747920403791 ,46,1800833940639 ,37,1088848513518
10.2446651 ,Left ,62,7675078327681 ,46,1740437400823 ,37,0753483515073
10.2828649 ,Left ,62,7988148713832 ,46,1343359347799 ,37,0180275582617
10.3201183 ,Left ,62,7821380066134 ,46,1224641365087 ,37,0016260971318
10.4320828 ,Left ,62,8495963729318 ,46,0342209294822 ,36,917237702154
10.492257 ,Left ,62,9488078507827 ,45,9882054107713 ,36,8582619188649
10.5448233 ,Left ,62,9083948414696 ,46,0224875922407 ,36,8028388426666
10.5898383 ,Left ,62,845667091769 ,46,0693383062838 ,36,8077586280432
10.6125536 ,Left ,62,8531620938701 ,46,0565907027577 ,36,8108150844727
10.6425617 ,Left ,62,8199820844063 ,46,0337805591955 ,36,7693669100164
10.6650024 ,Left ,62,8153342576247 ,46,0454945286929 ,36,7512614178245
10.7026226 ,Left ,62,8160053514518 ,46,0837043130804 ,36,7257868317438
10.725142 ,Left ,62,7981416879189 ,46,0767844889414 ,36,7280683971698
10.7776075 ,Left ,62,7367843397607 ,46,0619522752295 ,36,7443052217575
10.8453183 ,Left ,62,4385628549705 ,46,143890766259 ,36,744801165919
10.8825898 ,Left ,62,5023947366932 ,46,0159410550291 ,36,8279326534981
10.9051233 ,Left ,62,64478606664 ,45,9726944085787 ,36,8600233760197
10.9426458 ,Left ,62,4891709893055 ,45,9623333167341 ,36,9271571575896
10.9575129 ,Left ,62,5596454288256 ,45,9453577611244 ,36,9003378583108
10.9794307 ,Left ,62,6052021195427 ,45,9361923397936 ,36,8913696921417
10.9946797 ,Left ,62,5859512090245 ,45,9199419664451 ,36,876108073143
11.0172621 ,Left ,62,4438903466121 ,45,9217969061212 ,36,8792860258352
11.0394777 ,Left ,62,2970344583251 ,45,9480544440651 ,36,8902498541468
11.0546914 ,Left ,62,2593093697447 ,45,9733241977145 ,36,9083372560126
11.077176 ,Left ,62,4456362196831 ,45,9528777399297 ,36,9517200689664
11.0998041 ,Left ,62,6036502331337 ,45,8407721824659 ,37,0239767219919
11.1149448 ,Left ,62,5442370195541 ,45,828345292334 ,37,1198743824488
11.1373014 ,Left ,62,3599640515255 ,45,8464961071602 ,37,1948729312528
11.1600149 ,Left ,62,3012961931076 ,45,8922983280607 ,37,1992696480381
11.1751045 ,Left ,62,4595182960733 ,45,9343076899716 ,37,1533834483477
11.1974385 ,Left ,62,6272488770466 ,45,978390201819 ,37,1190480606196
11.2198471 ,Left ,62,6573157489176 ,46,0110103200107 ,37,118340156265
11.2419293 ,Left ,62,5932588847081 ,46,0319411017895 ,37,156187925293
11.257287 ,Left ,62,527192711432 ,46,0541866775904 ,37,1994850743829
11.2796342 ,Left ,62,5808301769737 ,46,0833779936318 ,37,2083726247866
11.3020662 ,Left ,62,6813001830033 ,46,0854438400359 ,37,2089379232136
11.3172227 ,Left ,62,718976911724 ,46,0932359147536 ,37,2217767743403
11.3395732 ,Left ,62,7109059151577 ,46,0895835217708 ,37,2472762893243
11.3621656 ,Left ,62,7262658322539 ,46,0719191897312 ,37,2841841260776
11.3848404 ,Left ,62,7451554214725 ,46,0566658041297 ,37,3053343160051
11.4148891 ,Left ,62,7447698041951 ,46,0746685920203 ,37,3318693903988
11.4372602 ,Left ,62,7425178577551 ,46,074508160517 ,37,355022447046
11.4596706 ,Left ,62,795504315969 ,46,0827583610689 ,37,3612877928809
11.4821528 ,Left ,62,8195539298886 ,46,0804713656047 ,37,359876447676
11.4972982 ,Left ,62,7987829961136 ,46,0868031026184 ,37,3667350951806
11.5196873 ,Left ,62,7630210234767 ,46,097146506491 ,37,3798806232573
11.5423192 ,Left ,62,7728790684488 ,46,0971866000872 ,37,3769938273934
11.5573799 ,Left ,62,7740394819231 ,46,0954619414228 ,37,3758285489861
11.5797144 ,Left ,62,7734500664167 ,46,0937476266334 ,37,3729278935761
11.6019914 ,Left ,62,7560062385128 ,46,0920273977592 ,37,3659710183735
11.6171698 ,Left ,62,7380026863899 ,46,0861074591912 ,37,3595619211749
11.6476749 ,Left ,62,7617515896802 ,46,0692771611181 ,37,351448874345
11.6702227 ,Left ,62,7736628565475 ,46,0481713191153 ,37,351661520634
11.6929541 ,Left ,62,7662604694443 ,46,0340865795539 ,37,3607647234815
11.7154261 ,Left ,62,751738758779 ,46,020503264921 ,37,3700253951475
11.7529057 ,Left ,62,745742892254 ,45,9981533663777 ,37,379432198883
11.7672887 ,Left ,62,7613960583113 ,45,9729332441903 ,37,3810757928933
11.78237 ,Left ,62,7832407630624 ,45,9365375707373 ,37,3868792331046
11.797289 ,Left ,62,7472600643169 ,45,844584347549 ,37,4380722364199
11.8197724 ,Left ,62,7377865611318 ,45,8022491682526 ,37,4369686363485
11.842118 ,Left ,62,6755520868204 ,45,7359173761578 ,37,4315548076424
11.8572356 ,Left ,62,6166717990576 ,45,7152463057527 ,37,4420345796482
11.8795888 ,Left ,62,543975760356 ,45,7475033701307 ,37,4473842014019
11.9023507 ,Left ,62,6044895191037 ,45,6817534282225 ,37,4369175382136
11.9171127 ,Left ,62,8045278725127 ,45,6276778617902 ,37,4315319981885
11.9395793 ,Left ,62,9019280433977 ,45,6820000847938 ,37,4069057352634
11.9620555 ,Left ,62,7194738341962 ,45,7295911327414 ,37,4152549383897
11.9770814 ,Left ,62,5612847537505 ,45,7916067018393 ,37,4041192559418
11.9994394 ,Left ,62,7156333902715 ,45,8673307584654 ,37,3658180128733
12.0220713 ,Left ,62,9104349761246 ,45,9226039808773 ,37,3307780188976
12.037405 ,Left ,62,891274301597 ,45,9409517466211 ,37,3135872155444
12.0597867 ,Left ,62,7292960719435 ,45,9311751793785 ,37,2967396048415
12.0898596 ,Left ,62,6434019004927 ,45,9096807915578 ,37,2629203768333
12.1049777 ,Left ,62,6624099106442 ,45,8906805383567 ,37,1919315968394
12.1270037 ,Left ,62,723457776406 ,45,8802525949378 ,37,1257237317228
12.1420939 ,Left ,62,7044896517842 ,45,8650066670807 ,37,0632943514512
12.1648149 ,Left ,62,648356082238 ,45,8231548355817 ,36,9863678747738
12.1797085 ,Left ,62,5863356132255 ,45,8014970923818 ,36,9274446800876
12.2022125 ,Left ,62,5346676832673 ,45,7576115331585 ,36,9139308106894
12.2247585 ,Left ,62,6736645530671 ,45,7360446465361 ,36,9514482152098
12.247476 ,Left ,62,8612561884727 ,45,7674571501621 ,36,9917921267346
12.2694977 ,Left ,62,8496180936962 ,45,7901577977842 ,37,0016199976844
12.2996409 ,Left ,62,7981557868131 ,45,849325094479 ,37,0182222213757
12.3295321 ,Left ,62,7779663993213 ,45,9229187665454 ,37,0363515366803
12.3597274 ,Left ,62,7795846099607 ,46,0073078501151 ,37,0482666365779
12.3749718 ,Left ,62,8036147748478 ,46,036423101478 ,37,043249345725
12.3897094 ,Left ,62,8047184595896 ,46,0071343927968 ,37,0405166057004
12.4049714 ,Left ,62,9596205760442 ,45,9331340744484 ,37,0490583441738
12.4198327 ,Left ,63,0379184958018 ,45,872469279132 ,37,0799426546965
12.4421726 ,Left ,62,8475585710431 ,45,8449584563377 ,37,1368527733691
12.4650246 ,Left ,62,6441301157887 ,45,8336099344139 ,37,1619269954857
12.4798696 ,Left ,62,6645136243024 ,45,845584052301 ,37,1207074063023
12.5022441 ,Left ,62,6496891695002 ,45,8366952350774 ,37,0645710136723
12.5249577 ,Left ,62,6281755254872 ,45,8851178359876 ,37,0597479065283
12.5398946 ,Left ,62,5810289859595 ,45,9238384756096 ,37,0580009370901
12.5623572 ,Left ,62,6190879641325 ,45,8802947921455 ,37,0376660375632
12.5848163 ,Left ,62,8797765777112 ,45,8928643173154 ,37,0612639698907
12.5998409 ,Left ,62,8956143679571 ,45,9161230541252 ,37,099180554252
12.6298572 ,Left ,62,5012674461234 ,45,9459072039939 ,37,1462549487338
12.652448 ,Left ,62,4013760165132 ,45,9710918588896 ,37,1468937587438
12.667229 ,Left ,62,6186878938759 ,46,0052662377837 ,37,1204872119734
12.6973289 ,Left ,62,7596916036347 ,46,0272330041772 ,37,1359221814295
12.7126097 ,Left ,62,6131963440176 ,45,973474846436 ,37,1887348954972
12.7422486 ,Left ,62,4783961514268 ,45,8667826873908 ,37,2339188823628
12.7573923 ,Left ,62,5198883488648 ,45,7831670767177 ,37,2483556564114
12.7872571 ,Left ,62,6176841285239 ,45,7380686383888 ,37,2406506661111
12.8096604 ,Left ,62,4808764961395 ,45,6958969251631 ,37,2740493068716
12.832123 ,Left ,62,4340782190367 ,45,6667068410913 ,37,2658215028645
12.8472575 ,Left ,62,4540918639655 ,45,6384636917004 ,37,2287784064839
12.8626752 ,Left ,62,471675159869 ,45,6279932517389 ,37,209544940331
12.8845628 ,Left ,62,5253519111468 ,45,7055365035707 ,37,2018916599381
12.8997905 ,Left ,62,4502288465816 ,45,8216494873919 ,37,187965962727
12.9221933 ,Left ,62,4193672124217 ,45,8553716817376 ,37,1856103919036
12.9445168 ,Left ,62,5453938992449 ,45,8873063547323 ,37,2413396317063
12.9670626 ,Left ,62,6431404134988 ,45,9477412585304 ,37,2874049505814
12.9900869 ,Left ,62,5679045026645 ,46,0305461468935 ,37,3050845291277
13.035084 ,Left ,62,5173396780153 ,46,1134617819125 ,37,3083169658601
13.0575943 ,Left ,62,5728965464191 ,46,1448196902201 ,37,2997353353222
13.087092 ,Left ,62,5717853706458 ,46,1343155331371 ,37,2816896563391
13.1246352 ,Left ,62,5371780044254 ,46,118770160754 ,37,2779985457852
13.1396483 ,Left ,62,5300729214383 ,46,1234047337755 ,37,2641551578717
13.1546459 ,Left ,62,5477133037944 ,46,1241387028471 ,37,2412761971073
13.1774212 ,Left ,62,5558830296022 ,46,1171558199011 ,37,2244254924995
13.1923801 ,Left ,62,5978789427512 ,46,0952790703427 ,37,1930020870418
13.2071537 ,Left ,62,565675353398 ,46,0586245238944 ,37,1766439608024
13.2379253 ,Left ,62,5232184726407 ,46,0258867717512 ,37,1584202077939
13.2529095 ,Left ,62,5627206618067 ,46,0151489128471 ,37,1259562602721
13.2675673 ,Left ,62,625439217371 ,45,9807406990164 ,37,0912976519609
13.2978443 ,Left ,62,6311463001435 ,45,9397494606753 ,37,06156855042
13.3128596 ,Left ,62,5792477859289 ,45,9279149127069 ,37,0649569092696
13.3276903 ,Left ,62,5738688206095 ,45,9167043896842 ,37,0704323662774
13.3501532 ,Left ,62,5979082047657 ,45,9052719455907 ,37,075985160867
13.3652225 ,Left ,62,6349709804173 ,45,9004511267469 ,37,0580428973437
13.3875268 ,Left ,62,6491052561084 ,45,9006615512834 ,37,0334982209553
13.4096123 ,Left ,62,6081458515112 ,45,9053929669251 ,37,0345183544302
13.4320771 ,Left ,62,5918810828002 ,45,9022008408892 ,37,0334698873942
13.4623675 ,Left ,62,586806958925 ,45,8810523741823 ,37,0387257820397
13.4921572 ,Left ,62,5998113417341 ,45,8712314025002 ,37,048351121322
13.5221388 ,Left ,62,6280447185238 ,45,8499162806434 ,37,0705338260468
13.5372778 ,Left ,62,6260425197388 ,45,8140687530359 ,37,088373708469
13.5597819 ,Left ,62,6275440626718 ,45,7864652281794 ,37,0818750435228
13.5825354 ,Left ,62,5830837079639 ,45,8023948411563 ,37,1141100282955
13.6046043 ,Left ,62,529510365408 ,45,8358649093001 ,37,1345351804888
13.6270491 ,Left ,62,4346529729695 ,45,8594970492882 ,37,1581570219864
13.6423284 ,Left ,62,3427131089564 ,45,8986104939293 ,37,2011515433825
13.6646923 ,Left ,62,2548710895989 ,45,9732598963186 ,37,2516642285101
13.6873628 ,Left ,62,1268666340688 ,46,0474055198869 ,37,2882505324388
13.7024502 ,Left ,62,0931142394538 ,46,0422248750283 ,37,320344213939
13.7247614 ,Left ,62,274599693355 ,45,9896880083586 ,37,3656015430834
13.7471244 ,Left ,62,5049852359955 ,45,9059888739161 ,37,3857319313922
13.7624808 ,Left ,62,3207527576174 ,45,8811476845882 ,37,4018730559416
13.7849566 ,Left ,62,2583844536151 ,45,8518887406529 ,37,3778071733699
13.8075237 ,Left ,62,4000624206166 ,45,8154344252745 ,37,3351214391996
13.8225461 ,Left ,62,434710255611 ,45,7962887986679 ,37,3317325588634
13.8449855 ,Left ,62,3643606475059 ,45,7879926061251 ,37,3018049118421
13.8673091 ,Left ,62,3044718696538 ,45,8196789705317 ,37,2800654056869
13.8822587 ,Left ,62,2706820829515 ,45,8828052273706 ,37,2265348890116
13.904563 ,Left ,62,3702234218699 ,45,9170048627124 ,37,1855830223716
13.9275969 ,Left ,62,5133867645766 ,45,8951518899692 ,37,200470404682
13.9426786 ,Left ,62,6874712585585 ,45,8354688923587 ,37,2467254989935
13.9654114 ,Left ,62,6791458563626 ,45,8523061250575 ,37,2931357434047
13.9876421 ,Left ,62,5691369043497 ,45,8792740775433 ,37,325117357504
14.0028973 ,Left ,62,5611635371302 ,45,9073508549362 ,37,3382254327654
14.0254999 ,Left ,62,6745080150324 ,45,9625663125973 ,37,302910550812
14.0470408 ,Left ,62,7188042885897 ,46,0084630365687 ,37,3020629282177
14.0696523 ,Left ,62,67431536308 ,46,0363098012653 ,37,3326452349273
14.0921161 ,Left ,62,6322976568089 ,46,0659483288912 ,37,3677023431911
14.1372915 ,Left ,62,6292324287221 ,46,0828154584824 ,37,389930839282
14.1598857 ,Left ,62,6451931570025 ,46,0991402766266 ,37,4018614136356
14.1897614 ,Left ,62,6804596216591 ,46,1160574924937 ,37,4398447535106
14.2124891 ,Left ,62,7268915689465 ,46,114298027479 ,37,4457146615255
14.2424 ,Left ,62,6863832811694 ,46,1058597914026 ,37,473979411686
14.2650297 ,Left ,62,7032029176368 ,46,1152580527336 ,37,471146648458
14.2874744 ,Left ,62,7511656344466 ,46,1199878241006 ,37,461568427375
14.3098626 ,Left ,62,7715984878881 ,46,1194860982877 ,37,4463622075439
14.3472204 ,Left ,62,7944861953514 ,46,1049597578132 ,37,4373470256501
14.3698659 ,Left ,62,8068136581085 ,46,0815262914963 ,37,43185015314
14.4147575 ,Left ,62,8050489855973 ,46,0662475885546 ,37,4387518731496
14.4296201 ,Left ,62,8365970305126 ,46,0309847044903 ,37,440045948153
14.4746296 ,Left ,62,8820595689454 ,45,995169441439 ,37,4412831908041
14.4973498 ,Left ,62,880811506085 ,45,9123507350043 ,37,4522936562246
14.5347814 ,Left ,62,8205284713168 ,45,6998550029424 ,37,5056977091787
14.5503176 ,Left ,62,7725391464806 ,45,6363844418967 ,37,5152744796406
14.565385 ,Left ,62,6582094288716 ,45,6312993194538 ,37,5365168885459
14.5878871 ,Left ,62,6754365890916 ,45,6386703807243 ,37,4762356511182
14.6102522 ,Left ,62,7431526781654 ,45,5724324449771 ,37,4289312534355
14.6254619 ,Left ,62,9328855404873 ,45,5393661876664 ,37,4626001076795
14.6478375 ,Left ,62,9320989439155 ,45,5916087620151 ,37,4742063631608
14.6700711 ,Left ,62,6874721275643 ,45,6492036248384 ,37,4797516197812
14.6848837 ,Left ,62,6086207775644 ,45,719933559088 ,37,4466386390155
14.7072952 ,Left ,62,8067798003997 ,45,789744029241 ,37,3921443001985
14.7373612 ,Left ,63,0016616460348 ,45,8374444087762 ,37,3394972391184
14.7522671 ,Left ,62,9199376087073 ,45,8561305606598 ,37,3416739217173
14.7747824 ,Left ,62,7317688905341 ,45,8485712837321 ,37,3635021841977
14.8049643 ,Left ,62,7569667044525 ,45,7877395201833 ,37,3364354625163
14.8272189 ,Left ,62,8538246804063 ,45,7480863588717 ,37,2723242880138
14.8574819 ,Left ,62,8140221989344 ,45,7078200437154 ,37,2136002981105
14.8723239 ,Left ,62,7275025256159 ,45,662657943268 ,37,1897185844829
14.8874083 ,Left ,62,6630504464462 ,45,6404140275868 ,37,1473519561111
14.9023615 ,Left ,62,622063296913 ,45,6082490266673 ,37,0885845946845
14.9170998 ,Left ,62,581757957551 ,45,6034836711874 ,37,0221529156496
14.9472918 ,Left ,62,6191339984894 ,45,6622427690773 ,36,9859505493011
14.9696487 ,Left ,62,5145675899624 ,45,6657848267439 ,36,968009359394
15.0148584 ,Left ,62,7232043737613 ,45,5983319735206 ,37,0546747888019
15.0378748 ,Left ,62,7128564854352 ,45,6094734229786 ,37,0201814420954
15.0452297 ,Left ,62,6069490625443 ,45,6474077836146 ,37,0189574955047
15.0826413 ,Left ,62,5459867059597 ,45,9419775494937 ,37,0182309908218
15.1052069 ,Left ,62,7144504816468 ,46,0788706030364 ,36,9110300714542
15.1276559 ,Left ,62,7328219782295 ,46,0405864362004 ,36,9034392281209
15.1574471 ,Left ,62,8398721559512 ,45,9134196847529 ,37,1601278440488
15.1799793 ,Left ,62,7824447441841 ,45,940838271251 ,37,1949863997461
15.2023701 ,Left ,62,7403425218655 ,45,9329246204285 ,37,1971696945534
15.2175197 ,Left ,62,7576446378007 ,45,9540865061869 ,37,2041497728973
15.2398287 ,Left ,62,7759737790771 ,45,9909943741379 ,37,236193692172
15.2623139 ,Left ,62,759649369664 ,46,0218133881989 ,37,2577456128537
15.2849588 ,Left ,62,6653379606071 ,46,0130701036406 ,37,2546615912576
15.307246 ,Left ,62,5974887963895 ,45,9557758720526 ,37,2618333394743
15.3450031 ,Left ,62,5982896258315 ,45,9105804715546 ,37,2768013280141
15.3524555 ,Left ,62,6825991163387 ,45,8412706573607 ,37,2689063220908
15.374885 ,Left ,62,6904160080605 ,45,759121595652 ,37,2508148766932
15.397878 ,Left ,62,5063906123821 ,45,6372771244366 ,37,2730054595722
15.4202715 ,Left ,62,4578887413192 ,45,687466258267 ,37,2591177910593
15.4428973 ,Left ,62,4550572257449 ,45,7072268068794 ,37,208295727976
15.4657587 ,Left ,62,6576029306078 ,45,7601420487882 ,37,2162154408542
15.4874163 ,Left ,62,7886366962883 ,45,8333148135054 ,37,2217527474428
15.5474587 ,Left ,62,5500497228448 ,46,0327861356397 ,37,3316323647502
15.569806 ,Left ,62,6308620973281 ,46,0957672958371 ,37,3639099440262
15.6224596 ,Left ,62,6310921193781 ,46,1231089199903 ,37,4281986176552
15.6372275 ,Left ,62,6208483181249 ,46,1166431961397 ,37,4349461022794
15.7423256 ,Left ,62,5687546638216 ,46,0931412977242 ,37,4033648934969
15.7947173 ,Left ,62,6011486595702 ,46,0611986298057 ,37,3431322631588
15.8329334 ,Left ,62,5833467447764 ,46,0851963870474 ,37,273789455843
15.8853676 ,Left ,62,5080866572131 ,46,1425008364668 ,37,1935633945341
15.9001938 ,Left ,62,4649714593292 ,46,1536636462017 ,37,1842485737441
15.9372738 ,Left ,62,3753132586753 ,46,3260842545832 ,37,1462161179151
15.9601055 ,Left ,62,3570599733675 ,46,2991944233834 ,37,0964646068089
15.9973134 ,Left ,62,5912461844426 ,46,144938537776 ,37,0981828737955
16.0202323 ,Left ,62,7352725783174 ,46,0762698277423 ,37,1253786284411
16.0428525 ,Left ,62,5741413613584 ,46,0253004705595 ,37,1475086533424
16.0801542 ,Left ,62,6486613941267 ,45,96164926909 ,37,0664760934965
16.1027579 ,Left ,62,616598476301 ,45,9553895848721 ,37,1003166341601
16.1403942 ,Left ,62,4096369822023 ,46,0315629986699 ,37,1449283157356
16.1774354 ,Left ,62,4172938446742 ,46,0528218197136 ,37,0621722250106
16.1998959 ,Left ,62,6739140457663 ,45,9595823796656 ,37,1211290758369
16.2376375 ,Left ,62,6939248573019 ,45,9123804044683 ,37,25576317491
16.2598825 ,Left ,62,6036341914703 ,45,944670828055 ,37,2661435452245
16.2975678 ,Left ,62,7110318947456 ,46,005172467431 ,37,2576690561635
16.3275218 ,Left ,62,7824332607939 ,46,011188785067 ,37,2888686648803
16.4023826 ,Left ,62,735281436964 ,45,9972735813628 ,37,4159665592383
16.4547525 ,Left ,62,7592605738713 ,46,0019052288957 ,37,4267798430324
16.52246 ,Left ,62,7922439898199 ,46,0176643456008 ,37,4356152061959
16.5599042 ,Left ,62,7757289347594 ,46,0716894152829 ,37,4837741329418
16.5972041 ,Left ,62,7926132590936 ,46,0887046520633 ,37,484430465627
16.6273737 ,Left ,62,7954635672971 ,46,0950252991755 ,37,495563692715
16.6649809 ,Left ,62,7945727594961 ,46,1142097963283 ,37,5070482518929
16.7250136 ,Left ,62,7681236821055 ,46,0982501712878 ,37,5298913063169
16.7472708 ,Left ,62,7446597003123 ,46,0870864926039 ,37,5428189235988
16.7922571 ,Left ,62,7378428369353 ,46,0324887966213 ,37,5666612860795
16.8075007 ,Left ,62,6919461429078 ,45,9767957610223 ,37,5947684525638
16.8521259 ,Left ,62,6419428668763 ,45,8040135548706 ,37,6643322264082
16.8748276 ,Left ,62,6113785454808 ,45,7578799915717 ,37,6565353379342
16.8897413 ,Left ,62,6794769368142 ,45,6750386436184 ,37,6672602879031
16.9121707 ,Left ,62,8145761328013 ,45,6814663993766 ,37,6788759064169
16.9345885 ,Left ,62,7877796528999 ,45,7291306933662 ,37,695868526786
16.9572583 ,Left ,62,6634657952771 ,45,790814809069 ,37,6876960053347
16.9725847 ,Left ,62,6321221229132 ,45,8564915892596 ,37,6398894794834
17.0024809 ,Left ,62,7509528026341 ,45,9206281977578 ,37,6030401728761
17.0249035 ,Left ,62,8111945601223 ,45,9633129469062 ,37,5848619755401
17.0400326 ,Left ,62,7794580166697 ,45,9907829134831 ,37,5508044342202
17.0772642 ,Left ,62,6253834460643 ,45,9921564765051 ,37,4910782752983
17.0925122 ,Left ,62,6247040831724 ,45,9982265792072 ,37,4535301815599
17.1223345 ,Left ,62,6458441434291 ,46,0076741042021 ,37,4202332035402
17.1455176 ,Left ,62,6543498579688 ,45,9997078349146 ,37,373467273919
17.1602415 ,Left ,62,5705592997028 ,45,9660754761671 ,37,3286855686349
17.1969658 ,Left ,62,5250290756846 ,45,9469500780693 ,37,2388266101695
17.2122739 ,Left ,62,5118746376654 ,45,8921645257075 ,37,1950705257505
17.2422824 ,Left ,62,6201667887724 ,45,8367989636063 ,37,213588953675
17.2647115 ,Left ,62,7844669236009 ,45,8349561287469 ,37,2328492944835
17.2800241 ,Left ,62,6610922749734 ,45,8747387350719 ,37,2210400501302
17.2949039 ,Left ,62,522146421154 ,45,9239837302667 ,37,2088685632215
17.3174311 ,Left ,62,5857049513938 ,45,975051001892 ,37,1727708854236
17.3326441 ,Left ,62,6430347827784 ,46,0212842020647 ,37,1725792277274
17.3549855 ,Left ,62,7103181550261 ,46,0464874048212 ,37,1800265620097
17.377211 ,Left ,62,6797201526567 ,46,0350874673505 ,37,1793337186075
17.3923284 ,Left ,62,6578302550493 ,45,975058472888 ,37,2031660217239
17.4150265 ,Left ,62,7771811264998 ,45,9372116049302 ,37,2106672812819
17.4370977 ,Left ,62,8344100618306 ,45,9251695346276 ,37,2193876615091
17.4521006 ,Left ,62,6792158637701 ,45,9169718855332 ,37,2600558891003
17.4744602 ,Left ,62,5746243054931 ,45,9226908903232 ,37,2917566799225
17.4976649 ,Left ,62,6540077100235 ,45,9272494781702 ,37,2904565578575
17.5129879 ,Left ,62,7639961828569 ,45,9044350893114 ,37,2828379357035
17.5353334 ,Left ,62,7584235995849 ,45,9038201611629 ,37,2797364915324
17.557399 ,Left ,62,7117600713157 ,45,9105439353419 ,37,2969140779967
17.5726008 ,Left ,62,6101872301678 ,45,9246338785033 ,37,2978379457863
17.594924 ,Left ,62,5888216005825 ,45,9005174669625 ,37,2637548504206
17.617312 ,Left ,62,6363214699322 ,45,8628105865303 ,37,2094561388114
17.6324599 ,Left ,62,6614143701916 ,45,8125944891143 ,37,1672438862906
17.6547648 ,Left ,62,5379440217121 ,45,7620399556411 ,37,1768293410956
17.677205 ,Left ,62,5382687198385 ,45,8278483050508 ,37,1777829589628
17.6924802 ,Left ,62,4389218803647 ,45,8738354530639 ,37,0913460597427
17.7146842 ,Left ,62,566878647089 ,45,841446675324 ,37,0694148014713
17.7448349 ,Left ,62,7884818634006 ,45,8867485310231 ,37,1248283891235
17.7600146 ,Left ,62,7944830016509 ,45,9775118499521 ,37,1655512688706
17.7825796 ,Left ,62,5909414040099 ,46,0817211843193 ,37,2226576398189
17.7975164 ,Left ,62,5737734523259 ,46,1630214579608 ,37,244686257265
17.8125752 ,Left ,62,6581902871144 ,46,2186220175 ,37,2456722978126
17.8423963 ,Left ,62,7060879620366 ,46,2347018116768 ,37,2571902099463
17.864991 ,Left ,62,6469684909051 ,46,2078976918886 ,37,293616599319
17.8947411 ,Left ,62,4744790455449 ,46,1694698279096 ,37,3282393504454
17.9173043 ,Left ,62,5167143407627 ,46,1485635882818 ,37,3087937718802
17.9323884 ,Left ,62,5794967945629 ,46,1185399446269 ,37,2879850794237
17.9625945 ,Left ,62,5941893340206 ,46,0688146571663 ,37,2856463635954
17.9998763 ,Left ,62,6031174285533 ,46,0149315370861 ,37,2942691783537
18.0150224 ,Left ,62,6112720741362 ,45,9616066383612 ,37,31230145358
18.0298579 ,Left ,62,616540259713 ,45,9122775420907 ,37,3487620198744
18.0449936 ,Left ,62,6095394835356 ,45,8869555690979 ,37,3661872813249
18.0598348 ,Left ,62,6158898377898 ,45,8811556577813 ,37,3615734634284
18.074907 ,Left ,62,6058085001872 ,45,8869658719219 ,37,3560478079854
18.097264 ,Left ,62,6020117654985 ,45,8969402642334 ,37,3685058898933
18.1274251 ,Left ,62,568666031968 ,45,9026074530266 ,37,4035826752074
18.1498575 ,Left ,62,5341717966053 ,45,8878634373688 ,37,4519572324967
18.2025075 ,Left ,62,5989948472807 ,45,8912351369134 ,37,5085122047319
18.2324547 ,Left ,62,576547912904 ,45,9164308856055 ,37,5379660516016
18.2550832 ,Left ,62,5398573819741 ,45,9094029645352 ,37,5590234432492
18.2775272 ,Left ,62,5232137743287 ,45,9141469374145 ,37,5548592294211
18.3075247 ,Left ,62,3725273969355 ,45,9406272506174 ,37,5302534714207
18.322311 ,Left ,62,2689649474266 ,45,9522149054085 ,37,5139606883764
18.3373134 ,Left ,62,3269735926345 ,45,967812772978 ,37,4593449160156
18.3597724 ,Left ,62,3884498282866 ,45,947802768492 ,37,4031812014571
18.3748585 ,Left ,62,4460501312651 ,45,9099153373856 ,37,411696157435
18.3972771 ,Left ,62,4871892095341 ,45,9282724474693 ,37,4416523695579
18.4199458 ,Left ,62,3898487237797 ,45,970390515927 ,37,4781134067741
18.4421456 ,Left ,62,3145579526277 ,46,0242687090399 ,37,4906017192849
18.4723743 ,Left ,62,4559642069022 ,46,0548686061445 ,37,4883274094818
18.494996 ,Left ,62,5736411593953 ,46,077794112681 ,37,4803572509875
18.5249752 ,Left ,62,4732201376548 ,46,1111266398657 ,37,4797107086109
18.5626055 ,Left ,62,4372787845408 ,46,1285975645058 ,37,4598225337944
18.5772997 ,Left ,62,4696533912716 ,46,1339270455292 ,37,4326656310806
18.592437 ,Left ,62,5046317025233 ,46,1451055102822 ,37,3871915570007
18.6377641 ,Left ,62,4662062894411 ,46,1704473452824 ,37,29286324789
18.652763 ,Left ,62,4495799190515 ,46,1806831657406 ,37,2483075254797
18.6898116 ,Left ,62,3899134780418 ,46,1695479712342 ,37,1456822434412
18.704881 ,Left ,62,3175595702691 ,46,1559360576874 ,37,1064836248522
18.7350259 ,Left ,62,3029202631863 ,46,1440016759648 ,37,0444963130925
18.7575328 ,Left ,62,2878921298858 ,46,1375860658669 ,37,0212527809498
18.7795366 ,Left ,62,2428910489223 ,46,1512176033026 ,37,0066794732827
18.794579 ,Left ,62,1488107594596 ,46,1337235161778 ,37,0103357929232
18.817001 ,Left ,62,2522171924985 ,46,1102077378078 ,36,9946334856673
18.8401286 ,Left ,62,5096309915375 ,46,0382326958686 ,37,0326773684214
18.8626684 ,Left ,62,6900732711807 ,46,0062883988894 ,37,0316996561567
18.8777012 ,Left ,62,5429503230889 ,45,9848690687534 ,37,0660068819789
18.9001122 ,Left ,62,4721628452888 ,45,942247262571 ,37,0607906670031
18.9226694 ,Left ,62,5694787948156 ,45,903087634405 ,37,0315697270704
18.9378421 ,Left ,62,6148683064702 ,45,8791014829388 ,37,0609599198109
18.9601952 ,Left ,62,5556974429045 ,45,8789991771609 ,37,1149310246795
18.9828159 ,Left ,62,4638817867006 ,45,8931863708013 ,37,1355349972107
18.9974606 ,Left ,62,4451847496989 ,45,8934267447118 ,37,1073958099071
19.0199152 ,Left ,62,4080919412492 ,45,8773482763844 ,37,0683927520951
19.0349108 ,Left ,62,3822401401938 ,45,8694488888696 ,37,0093999981988
19.0571464 ,Left ,62,3487574198627 ,45,8959996666706 ,36,9661796996966
19.0796421 ,Left ,62,3341630967676 ,45,8765035491653 ,36,9256130062215
19.1027086 ,Left ,62,3653025268794 ,45,8023233558472 ,36,9027192664182
19.1177312 ,Left ,62,5165579515985 ,45,7478911283711 ,36,9218039545011
19.1402448 ,Left ,62,5463455390291 ,45,7509064321511 ,36,952475156657
19.1626497 ,Left ,62,4034480451892 ,45,7910477342679 ,37,0101279166445
19.1777102 ,Left ,62,400618105986 ,45,8405613021474 ,37,0312928767024
19.2001162 ,Left ,62,5848378125251 ,45,887499040657 ,37,0649169181521
19.2372332 ,Left ,62,7227288420347 ,45,9301724821216 ,37,1175904481498
19.2521415 ,Left ,62,7114948526125 ,45,9637592081637 ,37,199915321679
19.289613 ,Left ,62,6002182144997 ,45,9879335728657 ,37,3007122668968
19.3121777 ,Left ,62,6018486327224 ,46,0023584340133 ,37,4329253143658
19.35742 ,Left ,62,605169566536 ,45,9750316507836 ,37,5407842956005
19.3723923 ,Left ,62,6218890499133 ,45,9775732076211 ,37,6022631925975
19.4096969 ,Left ,62,571763970087 ,45,9486676998276 ,37,7112745288482
19.4247163 ,Left ,62,5999134268465 ,45,9077910277 ,37,7470340675225
19.4477238 ,Left ,62,6211697902504 ,45,8815535801075 ,37,7758295129873
19.4625503 ,Left ,62,6094653707127 ,45,8814750752948 ,37,808340022279
19.4773423 ,Left ,62,5609015729729 ,45,890650858237 ,37,8379201034135
19.5000322 ,Left ,62,5679169178484 ,45,8923580545882 ,37,8500146218142
19.5300281 ,Left ,62,59529389532 ,45,8813438248322 ,37,857189433997
19.5601163 ,Left ,62,6045017114799 ,45,8781877168892 ,37,8687458416591
19.5824878 ,Left ,62,6022553726121 ,45,8916000016019 ,37,8867556857711
19.6196832 ,Left ,62,6064784918083 ,45,8921070065477 ,37,8946860524364
19.6796654 ,Left ,62,6279809709164 ,45,8508283919589 ,37,8761421152632
19.7023775 ,Left ,62,6551375071762 ,45,8298989646104 ,37,8764373364517
19.7172544 ,Left ,62,5923307433969 ,45,8067481576875 ,37,8662612516452
19.7397224 ,Left ,62,5253020980844 ,45,6367844077895 ,37,8056083232408
19.7621808 ,Left ,62,5308739470199 ,45,6296591220845 ,37,8051485520571
19.7774096 ,Left ,62,4735021609114 ,45,6420249686723 ,37,7988416857225
19.799748 ,Left ,62,5152504164322 ,45,6195058140344 ,37,7155993061182
19.8224411 ,Left ,62,6173912869712 ,45,5905181055874 ,37,7028198050654
19.8372853 ,Left ,62,7135985354255 ,45,6089696182438 ,37,7204297069803
19.86026 ,Left ,62,7352779644724 ,45,6434807992675 ,37,7232486170831
19.8979334 ,Left ,62,6450315442435 ,45,6785463036421 ,37,7017272853155
19.9130427 ,Left ,62,6754926668729 ,45,7170978322982 ,37,6318798251669
19.9350179 ,Left ,62,72951389817 ,45,7797532381232 ,37,5437251814398
19.9496007 ,Left ,62,6538942572077 ,45,8214229451394 ,37,4845917343163
19.9646552 ,Left ,62,5213664031217 ,45,8831478189494 ,37,4266235351661
19.9796226 ,Left ,62,4706229555111 ,45,9831927478408 ,37,3660174205319
20.0021583 ,Left ,62,5266337603992 ,46,0437535321309 ,37,271473548969
20.0246372 ,Left ,62,5478007196435 ,46,0021863094992 ,37,1966146915738
20.0397065 ,Left ,62,6118582607115 ,45,8890100890423 ,37,1974108015137
20.0698397 ,Left ,62,7037887768188 ,45,8003315584829 ,37,2546856830372
20.0929098 ,Left ,62,731821736064 ,45,7362306944221 ,37,2906363331387
20.1076204 ,Left ,62,6705354508965 ,45,7160434092374 ,37,2638491847184
20.1222715 ,Left ,62,7326742765165 ,45,7220661051132 ,37,184432358004
20.1446819 ,Left ,62,7157419642028 ,45,8201404172375 ,37,1700087717321
20.1596967 ,Left ,62,726458347235 ,45,9986489592264 ,37,1709656971577
20.1820232 ,Left ,62,6649063802697 ,46,169829286423 ,37,1308250643126
20.2121556 ,Left ,62,6613160464493 ,46,2019961973848 ,37,0993113007519
20.2270421 ,Left ,62,815265105434 ,46,0924211523824 ,37,1882199904301
20.2496688 ,Left ,62,9841006145904 ,45,9990363220231 ,37,2836420655193
20.2648925 ,Left ,62,8684257984058 ,45,9931548557307 ,37,3088837743848
20.287289 ,Left ,62,7364537177618 ,45,994491635067 ,37,294836142121
20.3097654 ,Left ,62,7403650114384 ,45,9975769653607 ,37,2770198299366
20.3321714 ,Left ,62,8398962770441 ,46,0145931099107 ,37,2574980349926
20.3474382 ,Left ,62,8921296697524 ,46,0234637004772 ,37,2731299516761
20.3626073 ,Left ,62,8249562802359 ,45,9984422994492 ,37,2950046077486
20.3849943 ,Left ,62,7421364412283 ,45,9569072764098 ,37,3117030309967
20.4075468 ,Left ,62,754650025556 ,45,9083197212284 ,37,3078006506178
20.4299861 ,Left ,62,8200926910353 ,45,8663365707656 ,37,2977472698119
20.4673257 ,Left ,62,8438994785956 ,45,8028863924286 ,37,3170250164983
20.5051156 ,Left ,62,7910327187718 ,45,7701972657872 ,37,3403688773215
20.5350799 ,Left ,62,8510708013422 ,45,7932936460299 ,37,3893863149828
20.5727535 ,Left ,62,7365286977228 ,45,8581957080653 ,37,4228742408866
20.5949614 ,Left ,62,7158638648912 ,45,8868137824363 ,37,4401795074895
20.6251175 ,Left ,62,6998595982583 ,45,9114498552689 ,37,4406625239751
20.6400752 ,Left ,62,6665010460492 ,45,9080463019143 ,37,4219698731427
20.6626855 ,Left ,62,6396224188199 ,45,8969750918148 ,37,393328491767
20.6775397 ,Left ,62,6339044092399 ,45,8853073398607 ,37,3626280833962
20.6848002 ,Left ,62,6162992009941 ,45,8876113893903 ,37,3576930076538
20.7000023 ,Left ,62,5527818664962 ,45,8961587231162 ,37,3535711433795
20.7149737 ,Left ,62,5060932758179 ,45,8830395096852 ,37,3344078785046
20.7372556 ,Left ,62,4924946988475 ,45,8499843949277 ,37,303098241576
20.7521986 ,Left ,62,4655879794998 ,45,818626642475 ,37,2764949817739
20.7747227 ,Left ,62,3777132871108 ,45,8626188029581 ,37,2913165856303
20.7971678 ,Left ,62,4354796082155 ,45,8647350141482 ,37,2751283983322
20.8124974 ,Left ,62,5372228542975 ,45,8355950877524 ,37,251508098551
20.8349377 ,Left ,62,6129323831102 ,45,8143320412814 ,37,2797604208476
20.8573253 ,Left ,62,5521333747511 ,45,853318217961 ,37,3092732091917
20.8721831 ,Left ,62,4684219205457 ,45,8909805275064 ,37,320030281082
20.8948041 ,Left ,62,5097552787916 ,45,8941381722892 ,37,2821454144304
20.9245924 ,Left ,62,594099557202 ,45,9164136000082 ,37,2514792214372
20.939672 ,Left ,62,6052999814636 ,45,9311303212549 ,37,2436981758747
20.9621433 ,Left ,62,5716482375756 ,45,9203418399393 ,37,2374766825967
20.977182 ,Left ,62,5155511411392 ,45,9157893537188 ,37,2363353854261
20.9921182 ,Left ,62,5141825768385 ,45,9204879610496 ,37,241145466557
21.0147952 ,Left ,62,5793671653049 ,45,9251099630356 ,37,2193215663114
21.0371914 ,Left ,62,6163279595372 ,45,921377183784 ,37,1771697914988
21.0523184 ,Left ,62,5477154807961 ,45,9042083697706 ,37,146996273721
21.0749294 ,Left ,62,4916103909503 ,45,9028659372457 ,37,1181162944912
21.0971628 ,Left ,62,4479968285942 ,45,9102591237741 ,37,0714411421404
21.1121352 ,Left ,62,4223520486437 ,45,9188470203941 ,37,0154318321323
21.1346743 ,Left ,62,4403892492519 ,45,9687681856769 ,36,9741128891407
21.1578803 ,Left ,62,452361221848 ,46,0338819951379 ,36,9438011020449
21.1722096 ,Left ,62,3683143824812 ,46,068426992597 ,36,9280609278443
21.1944798 ,Left ,62,4299288496237 ,46,0310917737486 ,36,9401693652317
21.2171609 ,Left ,62,6181355358807 ,46,0192836812275 ,36,9870078769736
21.2547253 ,Left ,62,7154648302671 ,45,9615876505271 ,36,9579816288472
21.2774054 ,Left ,62,7358511631642 ,45,9373554796277 ,36,9291035451609
21.2926494 ,Left ,62,7149143725178 ,45,919295690779 ,36,9814249615065
21.3225269 ,Left ,62,6498412109565 ,45,9077291094407 ,37,0275012310792
21.3453804 ,Left ,62,5156840836009 ,45,8924225640771 ,37,0768084910095
21.3751866 ,Left ,62,3496481182819 ,45,9642423377491 ,37,1118391264471
21.3973872 ,Left ,62,443204368383 ,45,9719944311782 ,37,1033095543229
21.4346922 ,Left ,62,7592285421801 ,45,8489846412448 ,37,2199847615353
21.4573954 ,Left ,62,7220685176317 ,45,8173122498533 ,37,2796623815468
21.4948288 ,Left ,62,5540692165531 ,45,8615186429631 ,37,2899843932151
21.517375 ,Left ,62,6597550016137 ,45,8851224969314 ,37,2691614625371
21.5548655 ,Left ,62,6672194070988 ,45,9055685516526 ,37,310230729083
21.6221801 ,Left ,62,6807916648002 ,45,9200373381062 ,37,3782068139636
21.6747887 ,Left ,62,7149511409229 ,45,9094473482845 ,37,3856647096863
21.7275322 ,Left ,62,7318055489882 ,45,9343437216695 ,37,4417773257345
21.7573008 ,Left ,62,7778235598168 ,45,9585941143629 ,37,4844443458431
21.8030137 ,Left ,62,7178254776837 ,45,9738833108304 ,37,5723403471609
21.8624434 ,Left ,62,7205131183546 ,45,9824759901147 ,37,5957820805898
21.9221973 ,Left ,62,7420506565399 ,46,0032682620594 ,37,6126513339068
22.0121647 ,Left ,62,7226018182014 ,45,9865776716142 ,37,6667318828097
22.1470519 ,Left ,62,6133826087355 ,45,8069576845678 ,37,7033027361891
22.154595 ,Left ,62,5546513725624 ,45,7851137505927 ,37,6926813449522
22.1921172 ,Left ,62,5360513487567 ,45,7165030918419 ,37,6711542596716
22.2146496 ,Left ,62,5402856875753 ,45,6828751900988 ,37,7081661518799
22.2370238 ,Left ,62,6757721718367 ,45,7272365075954 ,37,7577557215596
22.3046052 ,Left ,62,6374002080201 ,45,8931503146321 ,37,8481530076645
22.342562 ,Left ,62,6196829617983 ,45,9678369034558 ,37,8563296658416
22.5148991 ,Left ,62,5356392730354 ,45,9318288050652 ,37,264752561972
22.5446626 ,Left ,62,6252583215 ,45,8379203249662 ,37,2846892816404
22.5752122 ,Left ,62,6552066686158 ,45,7898174954837 ,37,3119282318532
22.5978758 ,Left ,62,4818665947998 ,45,8217140732629 ,37,2775055288158
22.6278813 ,Left ,62,4856470448364 ,46,023807219388 ,37,1820883949574
22.650373 ,Left ,62,5030284038038 ,46,1715382743937 ,37,156513746734
22.6724473 ,Left ,62,4947532583655 ,46,2315957076227 ,37,1118192328984
22.6950269 ,Left ,62,5177457179853 ,46,141322811133 ,37,1699611452483
22.7249415 ,Left ,62,6714804643802 ,46,0599185615906 ,37,2745447189231
22.7474679 ,Left ,62,6348085638313 ,46,031411144961 ,37,3443123086358
22.7624346 ,Left ,62,5040137541135 ,46,0244084647129 ,37,363773867838
22.792302 ,Left ,62,5796602227377 ,46,0223592137792 ,37,3698930734479
22.8074607 ,Left ,62,6145264551173 ,46,0306130809668 ,37,3837336793391
22.8374979 ,Left ,62,576759986822 ,46,0105443255039 ,37,4058498459466
22.8599409 ,Left ,62,5030860453625 ,45,9880807573216 ,37,4239151005634
22.8898694 ,Left ,62,5113417397682 ,45,9687897435358 ,37,4261161085095
22.9049495 ,Left ,62,5344172599195 ,45,9553530755233 ,37,4221648960239
22.9499375 ,Left ,62,5637911357939 ,45,9507265033307 ,37,4136342010417
23.0025156 ,Left ,62,5052310743379 ,45,9118446354625 ,37,428844415958
23.0625241 ,Left ,62,5380618650845 ,45,8209985904904 ,37,4065427757627
23.1148912 ,Left ,62,497618482303 ,45,7568135258489 ,37,4004051635124
23.1374531 ,Left ,62,4497628640547 ,45,7343249357269 ,37,3999447006329
23.1749897 ,Left ,62,3996569034523 ,45,7470546295604 ,37,4050777945594
23.1974318 ,Left ,62,3480224135113 ,45,8008809799593 ,37,404551352113
23.2127173 ,Left ,62,3034073905568 ,45,8533647293965 ,37,3899549133632
23.2278832 ,Left ,62,2367214018482 ,45,9671376057161 ,37,3619780078532
23.2499983 ,Left ,62,2026911687162 ,45,9214430107558 ,37,33571085608
23.2724522 ,Left ,62,3406557247581 ,45,8638669189393 ,37,3387546296331
23.2949696 ,Left ,62,3594993546047 ,45,8624216198474 ,37,3684422392129
23.3099096 ,Left ,62,2256825870198 ,45,9255812634383 ,37,3734125113427
23.3398055 ,Left ,62,2147401691248 ,45,9828759451364 ,37,3664228436213
23.354855 ,Left ,62,3881148125614 ,46,0144680199066 ,37,3683941445144
23.3771177 ,Left ,62,4551599461592 ,46,0570042484511 ,37,3794451721963
23.3920879 ,Left ,62,4038419983332 ,46,0861370455873 ,37,3940562030496
23.4146121 ,Left ,62,3530690224526 ,46,090641474532 ,37,3995001580789
23.429701 ,Left ,62,37316061972 ,46,0795361251129 ,37,3864440285884
23.4598457 ,Left ,62,4293401753256 ,46,0598021237488 ,37,3634626575998
23.4825259 ,Left ,62,4715181907914 ,46,0400811443754 ,37,3579310367865
23.505085 ,Left ,62,4669413504772 ,46,0178026473931 ,37,3626002514059
23.5199508 ,Left ,62,4506221257743 ,45,9918878394617 ,37,366863377185
23.5423179 ,Left ,62,4695605786354 ,45,9761361239377 ,37,3653713065626
23.5575191 ,Left ,62,5204741613374 ,45,9523437972674 ,37,3597023193826
23.5722853 ,Left ,62,5421077908014 ,45,9237109944431 ,37,3693878364415
23.5872106 ,Left ,62,536493313512 ,45,892603950654 ,37,3837387901978
23.6173144 ,Left ,62,5464738312945 ,45,8632756253974 ,37,4032735131852
23.6398443 ,Left ,62,5563684580654 ,45,8444736364268 ,37,4141869361636
23.6549097 ,Left ,62,5759993268399 ,45,83692896159 ,37,4205371308684
23.6848741 ,Left ,62,5956839585791 ,45,8286886874884 ,37,4198984279461
23.6997659 ,Left ,62,588004067263 ,45,8187175093463 ,37,4310370024493
23.7148751 ,Left ,62,5720524775033 ,45,811000940988 ,37,4435233886063
23.7299613 ,Left ,62,5544223375479 ,45,8115813334837 ,37,4490390544649
23.759763 ,Left ,62,5595302930181 ,45,8086312937371 ,37,44393080489
23.7824992 ,Left ,62,5498328200573 ,45,8015694384936 ,37,4345949731887
23.7973513 ,Left ,62,5397074859372 ,45,7974644852366 ,37,4222305326514
23.8421234 ,Left ,62,4912632464354 ,45,7966930625749 ,37,3824434322444
23.8571101 ,Left ,62,4877878927936 ,45,8142232385385 ,37,3443275289627
23.8797227 ,Left ,62,4602709952038 ,45,8344928331365 ,37,2921036553468
23.9021505 ,Left ,62,4413554285555 ,45,8517442937971 ,37,2381542277672
23.9173847 ,Left ,62,437754866101 ,45,8708006546987 ,37,1826795290042
23.9546247 ,Left ,62,3813657327658 ,45,8658705741089 ,37,0779306719796
23.969701 ,Left ,62,3554382566159 ,45,8620957202635 ,37,0276489197039
23.9923734 ,Left ,62,3330827124732 ,45,8688301679476 ,36,9788382869071
24.0148817 ,Left ,62,3087234404049 ,45,9039669352094 ,36,959232786148
24.0304173 ,Left ,62,2249113938921 ,45,9982481267793 ,36,9387453473607
24.052137 ,Left ,62,1344649960483 ,46,0046459552874 ,36,9142653411336
24.0748274 ,Left ,62,3007906725656 ,45,9608098792919 ,36,8723456840176
24.0897461 ,Left ,62,5342575402981 ,45,8521792287259 ,36,9148210299491
24.1121324 ,Left ,62,6036076781662 ,45,7836141883539 ,36,9432497217575
24.1346786 ,Left ,62,4104168429631 ,45,7530834465506 ,36,9431695680332
24.1496054 ,Left ,62,4250117251923 ,45,7330261113728 ,36,9047131947547
24.1722177 ,Left ,62,5481311292855 ,45,6978350847475 ,36,9047185235167
24.1948445 ,Left ,62,5709944063073 ,45,6936796080695 ,36,9250427406509
24.209962 ,Left ,62,4734757481155 ,45,7369108154872 ,36,9909540155977
24.2323294 ,Left ,62,3600195780105 ,45,8098898774891 ,37,0273105572418
24.2549739 ,Left ,62,2879143998887 ,45,8376039890426 ,37,0435814525583
24.2699096 ,Left ,62,4078306825612 ,45,7979964907395 ,37,0592746716027
24.2921232 ,Left ,62,6173329984392 ,45,7058336235865 ,37,1219922693454
24.3147246 ,Left ,62,6736382504736 ,45,6627545951882 ,37,1884016145615
24.3297772 ,Left ,62,5381656996959 ,45,6509917740203 ,37,2290890017495
24.3599311 ,Left ,62,5420700684291 ,45,6769069769813 ,37,2060586144923
24.3825344 ,Left ,62,6289581883853 ,45,7147007509536 ,37,1880171709514
24.3974399 ,Left ,62,6640536294656 ,45,7602111272399 ,37,2097643570476
24.4423099 ,Left ,62,6285773323608 ,45,7839486290702 ,37,2676503154151
24.4574175 ,Left ,62,6237817220636 ,45,7990730163774 ,37,3122031934596
24.4723968 ,Left ,62,6242900169199 ,45,7907737767917 ,37,3532223994042
24.5172225 ,Left ,62,6461308744738 ,45,8080519775804 ,37,4559695220204
24.5623783 ,Left ,62,6559071174297 ,45,8213794783968 ,37,4929652921952
24.5773352 ,Left ,62,6306794338153 ,45,8124716832965 ,37,5233536675867
24.6223886 ,Left ,62,649824460414 ,45,8028883576429 ,37,5491607986526
24.6449058 ,Left ,62,6354564010964 ,45,811435806066 ,37,6068366181693
24.659768 ,Left ,62,6235597056604 ,45,8207716773816 ,37,632638816342
24.7048366 ,Left ,62,6330035249562 ,45,7969501636394 ,37,6749479901576
24.7196699 ,Left ,62,5910395554476 ,45,7984041823056 ,37,6857857525318
24.7346026 ,Left ,62,6224621287003 ,45,8205138205206 ,37,6822076989133
24.7571333 ,Left ,62,6436066406137 ,45,829219798139 ,37,6732465039188
24.7948167 ,Left ,62,669379539892 ,45,8190404539897 ,37,6698940582705
24.8323658 ,Left ,62,662272288408 ,45,8202656629287 ,37,6770197782953
24.8924193 ,Left ,62,6504491811523 ,45,8338778007911 ,37,6733678624802
24.9149688 ,Left ,62,6639105504755 ,45,8490830709665 ,37,6652188530582
24.9673652 ,Left ,62,6246776178384 ,45,8458550559293 ,37,6663229855596
24.9824821 ,Left ,62,6046544999456 ,45,790804735279 ,37,6513561817829
25.0124613 ,Left ,62,519775925412 ,45,6379302137418 ,37,6129324719499
25.0346069 ,Left ,62,4836582633104 ,45,6281235959768 ,37,5766511262251
25.0572175 ,Left ,62,4985118562813 ,45,5545047361695 ,37,5427703412635
25.0722228 ,Left ,62,6471496686063 ,45,4870391273044 ,37,5400409721507
25.102372 ,Left ,62,7095328999379 ,45,5225602720102 ,37,5689111962687
25.1248632 ,Left ,62,5687063424088 ,45,5865044252178 ,37,6103138820274
25.1550539 ,Left ,62,4418761467577 ,45,6628879376319 ,37,6029606611612
25.1698732 ,Left ,62,5993443752908 ,45,7465991236033 ,37,5561722557628
25.192578 ,Left ,62,7406580363067 ,45,7955263280069 ,37,5499861626106
25.2372857 ,Left ,62,577114541575 ,45,8287861686252 ,37,6029526928957
25.2596191 ,Left ,62,4899499446355 ,45,8220374927057 ,37,6121857065223
25.2823491 ,Left ,62,5895214781622 ,45,8470351592624 ,37,578500039453
25.2971809 ,Left ,62,5822713965903 ,45,8711630670401 ,37,5581144084638
25.3129895 ,Left ,62,6058242305608 ,45,8848559639575 ,37,4877970536677
25.3429451 ,Left ,62,5707526585517 ,45,8791164485176 ,37,4483159943097
25.3729649 ,Left ,62,4896726014883 ,45,8836703501455 ,37,4115055925616
25.3877186 ,Left ,62,5309568256006 ,45,8761215411159 ,37,3598406041422
25.402729 ,Left ,62,5915087763149 ,45,8406226760075 ,37,325359839329
25.4324271 ,Left ,62,5741144218596 ,45,7623730447696 ,37,3169836396405
25.4551695 ,Left ,62,5865390798022 ,45,7501503772666 ,37,3097724257925
25.4851972 ,Left ,62,5805159257276 ,45,7618977468989 ,37,2967500874031
25.4999953 ,Left ,62,5779269271351 ,45,7835931782379 ,37,2940887660826
25.5224205 ,Left ,62,5955099504103 ,45,7813382944391 ,37,2989954920548
25.5374698 ,Left ,62,6119927846837 ,45,7590487054589 ,37,3309667982798
25.5525238 ,Left ,62,6071849651536 ,45,7406887790929 ,37,3824486847777
25.5750831 ,Left ,62,6179817251139 ,45,7224305414564 ,37,4044688272598
25.6049293 ,Left ,62,6076586941288 ,45,6882727309938 ,37,4164990241789
25.6197239 ,Left ,62,5711342719752 ,45,6623394217022 ,37,4357638469729
25.6421346 ,Left ,62,5877868640156 ,45,6493467281066 ,37,4449679901589
25.6871737 ,Left ,62,5607438691084 ,45,6164297311209 ,37,4289203409011
25.709721 ,Left ,62,5399108296642 ,45,6252191149764 ,37,4101226651643
25.7248327 ,Left ,62,4307933605728 ,45,6377567799724 ,37,3951345873136
25.747065 ,Left ,62,3142492380523 ,45,6476226914865 ,37,3719998088332
25.7622265 ,Left ,62,304576306896 ,45,7049759698731 ,37,3380760066549
25.7772116 ,Left ,62,3028528692833 ,45,7087028751067 ,37,2931511630542
25.8002377 ,Left ,62,2724125873799 ,45,6160250616604 ,37,2917613632197
25.8153717 ,Left ,62,4432706710051 ,45,4910984446221 ,37,3643700976662
25.8453217 ,Left ,62,5396801553282 ,45,3977940491614 ,37,4329003399751
25.8677575 ,Left ,62,3381712869967 ,45,3742142499359 ,37,430599880731
25.8824914 ,Left ,62,2398763245476 ,45,4343911310174 ,37,4187943527945
25.8976719 ,Left ,62,3039949427193 ,45,5737661449358 ,37,4154967195135
25.9200068 ,Left ,62,436690709057 ,45,7506552754962 ,37,3956818545596
25.9351303 ,Left ,62,5258495925981 ,45,8754720973187 ,37,3250836240017
25.957631 ,Left ,62,4506137032329 ,45,8423937755966 ,37,3952402880457
25.979599 ,Left ,62,5858912656676 ,45,7467750562867 ,37,510874560813
25.9946042 ,Left ,62,6054844559289 ,45,7142361334742 ,37,5550896283722
26.0171838 ,Left ,62,4855424840011 ,45,7551304468753 ,37,5334694024704
26.0403096 ,Left ,62,4695538653161 ,45,7862507139055 ,37,5166091320228
26.0627642 ,Left ,62,5615767176665 ,45,8308383917562 ,37,500756044431
26.1079006 ,Left ,62,6077928798404 ,45,8617600025707 ,37,5394911151207
26.1304476 ,Left ,62,507174551135 ,45,867219844106 ,37,5829414987226
26.1450028 ,Left ,62,3297149147871 ,45,8489981415903 ,37,6356405947354
26.1748189 ,Left ,62,2498314282471 ,45,8025709746922 ,37,6826858435661
26.2049371 ,Left ,62,2560111027914 ,45,8369369406826 ,37,6539405399717
26.2275833 ,Left ,62,2135943568455 ,45,8294011309456 ,37,6426951800007
26.2421441 ,Left ,62,283007951544 ,45,8308983024446 ,37,6321498874844
26.2647002 ,Left ,62,2767665451808 ,45,853272688262 ,37,6418106463822
26.2946826 ,Left ,62,1606962127569 ,45,8793561426078 ,37,6468865833784
26.3098893 ,Left ,62,1711580877331 ,45,9302527622437 ,37,624031424309
26.3475239 ,Left ,62,3123755323252 ,45,9750240573091 ,37,5990103648428
26.3622718 ,Left ,62,4534429139641 ,46,0134134350795 ,37,5778619715137
26.3926309 ,Left ,62,4188360888781 ,46,0381355492632 ,37,596825824758
26.4073243 ,Left ,62,2645129205268 ,46,0396773973726 ,37,6171489242165
26.4299694 ,Left ,62,3402220720021 ,46,0494321761826 ,37,5953719979187
26.4524464 ,Left ,62,451871015994 ,46,0181151104002 ,37,5759588620968
26.4673651 ,Left ,62,4940628641541 ,45,9805320199321 ,37,5667600101819
26.4901429 ,Left ,62,475234271593 ,45,943573875753 ,37,5733792694553
26.5200155 ,Left ,62,4528838756931 ,45,880830350643 ,37,5557839559795
26.5571478 ,Left ,62,5685641841227 ,45,8555070387589 ,37,4920730044418
26.5873029 ,Left ,62,5448147047772 ,45,8537721631142 ,37,4915664160897
26.6246657 ,Left ,62,5265720708614 ,45,8537716722319 ,37,4924846953879
26.639732 ,Left ,62,5496259080953 ,45,8508253237929 ,37,4798229617454
26.6773524 ,Left ,62,571071804485 ,45,8508378419089 ,37,4756999938412
26.7073612 ,Left ,62,55874365848 ,45,8403128601149 ,37,4655025729126
26.7223593 ,Left ,62,5539094469617 ,45,8386041792969 ,37,4391632694199
26.7373681 ,Left ,62,5559714411412 ,45,8356898568796 ,37,3990049233412
26.7523987 ,Left ,62,5454344310489 ,45,8350695582823 ,37,3523988509739
26.7671287 ,Left ,62,5219925255344 ,45,8443292943442 ,37,2961415114103
26.7896524 ,Left ,62,4866240356965 ,45,866273628301 ,37,2447621163304
26.8120966 ,Left ,62,471612212834 ,45,8947061064679 ,37,1902193844218
26.8273489 ,Left ,62,4742051920949 ,45,9074321461361 ,37,13894789757
26.8496146 ,Left ,62,4472328836585 ,45,9092564488885 ,37,0982344401108
26.8721994 ,Left ,62,3775616519065 ,45,897464515314 ,37,0709110315299
26.8874398 ,Left ,62,3438224965841 ,45,9067484628986 ,37,0559573920012
26.9096615 ,Left ,62,3633698928218 ,45,9455614133618 ,37,0271518713948
26.9323713 ,Left ,62,3579520631802 ,45,9668103086123 ,36,9888175278224
26.9471738 ,Left ,62,241583008451 ,45,9680064289825 ,36,9765718791149
26.9697957 ,Left ,62,2374167995648 ,45,9582200958331 ,36,9531245012886
26.9921745 ,Left ,62,4774111300162 ,45,892485356517 ,36,9641941371414
27.0299015 ,Left ,62,5058763209732 ,45,8261217084155 ,36,9747125625423
27.0526563 ,Left ,62,4156857424433 ,45,7837144470494 ,36,9443600940759
27.0898669 ,Left ,62,4901721164778 ,45,7164235056323 ,36,9537924904403
27.1124677 ,Left ,62,4502780517622 ,45,7437483497678 ,37,019248999956
27.1496772 ,Left ,62,2711196022711 ,45,8413719229889 ,37,0862891402062
27.1723887 ,Left ,62,415540038933 ,45,8458599654039 ,37,0855995753083
27.2096689 ,Left ,62,5654474049404 ,45,7687899861732 ,37,2910568533528
27.232245 ,Left ,62,4427674776228 ,45,797744553383 ,37,3928694906112
27.2699274 ,Left ,62,5270636203247 ,45,8855157321041 ,37,3810461550056
27.2927732 ,Left ,62,5912264934065 ,45,9080409070814 ,37,3723444486184
27.3374921 ,Left ,62,5251993571617 ,45,9142115462563 ,37,486945326811
27.3597878 ,Left ,62,5235046969261 ,45,9253019157342 ,37,5441766955108
27.3972246 ,Left ,62,6146124570557 ,45,936057653851 ,37,591958981274
27.4347846 ,Left ,62,6447621280707 ,45,9258065547721 ,37,6120832825631
27.4722721 ,Left ,62,6332129682248 ,45,9261334586127 ,37,6739697010394
27.5247044 ,Left ,62,652988322344 ,45,953716993309 ,37,7325490489632
27.5846601 ,Left ,62,6888459144907 ,45,9438053500131 ,37,7556348905572
27.6077169 ,Left ,62,6841128847084 ,45,9580023971321 ,37,7501042065676
27.6299458 ,Left ,62,6752933922299 ,45,9480137643445 ,37,757072681245
27.6748096 ,Left ,62,6930556726757 ,45,9355368000443 ,37,7617604143074
27.7349189 ,Left ,62,7024593797224 ,45,9283034574131 ,37,7713689995685
27.7872808 ,Left ,62,7113282036117 ,45,8806235368185 ,37,7758218207538
27.8621488 ,Left ,62,633505182103 ,45,6943754898812 ,37,7237407342457
27.9076792 ,Left ,62,6519251301473 ,45,6687101302538 ,37,7533985435544
27.9304369 ,Left ,62,7274309161078 ,45,6474671450681 ,37,7432044950304
27.9677659 ,Left ,62,5996681330648 ,45,7988680063371 ,37,8000075586962
27.990277 ,Left ,62,4934748747153 ,45,8738642827283 ,37,8185163716273
28.0200553 ,Left ,62,588150561023 ,45,9150217867781 ,37,8299924926005
28.0800958 ,Left ,62,5868483871595 ,45,946612012861 ,37,7552203557506
28.1399383 ,Left ,62,610224962756 ,45,8983961381063 ,37,474755507353
28.1922583 ,Left ,62,4798820560263 ,45,8933404064379 ,37,2929497939149
28.2303766 ,Left ,62,7408186882795 ,45,7189255599044 ,37,243639605174
28.2527894 ,Left ,62,806558095146 ,45,6296350990113 ,37,2761537763044
28.289947 ,Left ,62,5442756144328 ,45,6746182663454 ,37,2538960563052
28.3125879 ,Left ,62,5675074874811 ,45,8075963316647 ,37,2317532940318
28.3424979 ,Left ,62,5398304586144 ,46,0320132959762 ,37,1765535821047
28.3645772 ,Left ,62,474876629965 ,46,011417312618 ,37,1772983019815
28.3948436 ,Left ,62,571927504679 ,45,8997966723237 ,37,2234180612486
28.4097285 ,Left ,62,7357629600864 ,45,8150997948994 ,37,2676986571039
28.4324507 ,Left ,62,6848909132889 ,45,808201811857 ,37,3047259854383
28.4471111 ,Left ,62,5693539523675 ,45,847566106089 ,37,3284460380038
28.4621575 ,Left ,62,6100976870719 ,45,8888351920377 ,37,3465536268057
28.4849013 ,Left ,62,6709372344164 ,45,9370595189568 ,37,3620454490188
28.5074104 ,Left ,62,6934329810795 ,45,9610659115477 ,37,3777808717247
28.5223026 ,Left ,62,6695067958119 ,45,9586405449351 ,37,4017057564644
28.5449723 ,Left ,62,6080817660022 ,45,9525158160176 ,37,4283862695048
28.5754075 ,Left ,62,5952786392203 ,45,957715847129 ,37,4637732118704
28.590044 ,Left ,62,6449228157857 ,45,9600259729335 ,37,4749253310217
28.6349182 ,Left ,62,6684631032647 ,45,8977156636924 ,37,4841517081946
28.6500092 ,Left ,62,6500969560005 ,45,868955433992 ,37,4920146203002
28.6951032 ,Left ,62,6529232289257 ,45,8629673995125 ,37,5220950814725
28.7250525 ,Left ,62,6525885581912 ,45,8434563609611 ,37,5379306666631
28.7399387 ,Left ,62,6385828997215 ,45,8298751472626 ,37,5605312690797
28.7625138 ,Left ,62,6290679618926 ,45,8287210993703 ,37,5717766071213
28.7925882 ,Left ,62,6480176330516 ,45,8472654086288 ,37,5927510875
28.8153598 ,Left ,62,643493479277 ,45,8760302710103 ,37,6095856985617
28.8379033 ,Left ,62,6012261923967 ,45,8931898047211 ,37,6120668757537
28.8529142 ,Left ,62,5688262867265 ,45,8956835146804 ,37,6115294858432
28.8977642 ,Left ,62,5729971761308 ,45,9151118945648 ,37,6057135868187
28.9199388 ,Left ,62,5800780900867 ,45,9233090592838 ,37,5917235728198
28.9425155 ,Left ,62,5424194633227 ,45,9035234239072 ,37,5824674623959
28.9648201 ,Left ,62,4959085064085 ,45,8895561176578 ,37,5561092454875
28.9798016 ,Left ,62,4851935801137 ,45,8749497401828 ,37,5390733392766
29.0024525 ,Left ,62,3495887556213 ,45,8636244635266 ,37,5065875689228
29.0247278 ,Left ,62,2334718519918 ,45,9093649563262 ,37,5184517389984
29.0473135 ,Left ,62,2391137999001 ,45,923524430177 ,37,5231344573357
29.0623745 ,Left ,62,3205607252593 ,45,9287079334936 ,37,5041486303092
29.0845937 ,Left ,62,4023472649008 ,45,8602418871998 ,37,5231466974829
29.1148473 ,Left ,62,40703596178 ,45,8410081024022 ,37,5600574146369
29.130195 ,Left ,62,3160191038773 ,45,8622851741533 ,37,5852124091747
29.1529245 ,Left ,62,2959629266693 ,45,8939447717597 ,37,5739781418436
29.190171 ,Left ,62,5424854419985 ,45,9195273799254 ,37,4887482989952
29.205115 ,Left ,62,5039344035018 ,45,9300495491494 ,37,4735024706803
29.2275424 ,Left ,62,4159268716152 ,45,9305145605016 ,37,4591044631036
29.2498873 ,Left ,62,392802736976 ,45,9280492489491 ,37,4423175391157
29.2650803 ,Left ,62,4023504259925 ,45,9297382322369 ,37,4223508322645
29.2873929 ,Left ,62,4803443365556 ,45,9410353212188 ,37,3686148352391
29.3026027 ,Left ,62,4848206182088 ,45,9233556392798 ,37,3051973740975
29.3249977 ,Left ,62,4355973944723 ,45,9064033078279 ,37,2625682102457
29.3473426 ,Left ,62,4492299166819 ,45,9069474626005 ,37,2159647171176
29.369983 ,Left ,62,4636643723359 ,45,9081696472825 ,37,2032621615987
29.392414 ,Left ,62,4676844159234 ,45,9281747599146 ,37,2112326833738
29.4149518 ,Left ,62,4791685964889 ,45,9569836010411 ,37,2030002981535
29.4299408 ,Left ,62,4171049769959 ,45,946862468019 ,37,185265850998
29.4450335 ,Left ,62,3461462758168 ,45,9672965989646 ,37,1952082197038
29.4671838 ,Left ,62,3362677949325 ,46,0498517630528 ,37,1972007719981
29.4896178 ,Left ,62,2589876861481 ,46,0745589068063 ,37,1836172292279
29.5048007 ,Left ,62,3162115767908 ,46,0672113980334 ,37,1996440745434
29.527092 ,Left ,62,5450723419066 ,45,9969851325678 ,37,2445713948316
29.5574258 ,Left ,62,6366600237213 ,45,9447540299562 ,37,2834740329289
29.5722155 ,Left ,62,4921878312773 ,45,9180721367637 ,37,2961251173639
29.5946758 ,Left ,62,4702150918036 ,45,8955793975452 ,37,2765896683381
29.6098096 ,Left ,62,5635079222765 ,45,871600314492 ,37,2579720571887
29.6249337 ,Left ,62,513948504297 ,45,8419054979444 ,37,2816804106959
29.6472466 ,Left ,62,421497845368 ,45,8771144625751 ,37,3028858983694
29.6696902 ,Left ,62,3299686897428 ,45,9521554827396 ,37,312293242131
29.6849271 ,Left ,62,2475773569158 ,46,0269152024492 ,37,2913784749213
29.7074246 ,Left ,62,3568738442466 ,46,0383583500075 ,37,2759259555782
29.7297302 ,Left ,62,5658109488457 ,45,9496025813971 ,37,3247934645865
29.7448177 ,Left ,62,7055994797272 ,45,8412288008508 ,37,4017768897444
29.7671049 ,Left ,62,6219724972619 ,45,7952665182023 ,37,4212775353943
29.7898296 ,Left ,62,4867902966273 ,45,7814545302156 ,37,4059851727838
29.8048833 ,Left ,62,5221621960094 ,45,8056081513884 ,37,3705525105857
29.826968 ,Left ,62,6664917779046 ,45,8607767659012 ,37,3594992535649
29.8496788 ,Left ,62,7314090711974 ,45,8913076194525 ,37,3813004209254
29.8647246 ,Left ,62,6821420191407 ,45,8944927178765 ,37,435780788801
29.8875074 ,Left ,62,6275250448 ,45,9147610251226 ,37,4973958636743
29.9174901 ,Left ,62,6124075871172 ,45,9328553742074 ,37,5281907470218
29.9474933 ,Left ,62,6618880475276 ,45,9485634284026 ,37,5343321325574
29.9849956 ,Left ,62,6974608578608 ,45,942985812002 ,37,5594991475262
29.9999981 ,Left ,62,6685709466939 ,45,9487890024369 ,37,5797376937513
30.0226668 ,Left ,62,6325213917726 ,45,9517958824711 ,37,5984422875966
30.0675267 ,Left ,62,6039302908899 ,45,914390170343 ,37,600800918341
30.0974772 ,Left ,62,6022610765026 ,45,9108047151423 ,37,6041817172259
30.1500114 ,Left ,62,6081506470979 ,45,9089119211592 ,37,6329812462225
30.1650433 ,Left ,62,6127886337349 ,45,897698863272 ,37,6421533201142
30.1797211 ,Left ,62,6113445081844 ,45,8882423045841 ,37,6539409110956
30.2247282 ,Left ,62,6223568384181 ,45,8864595596289 ,37,6498555861252
30.2402128 ,Left ,62,6416944415262 ,45,8875521487634 ,37,635720784111
30.2927206 ,Left ,62,6438017018467 ,45,8881554682817 ,37,6353550071629
30.3376559 ,Left ,62,6620224235388 ,45,8986456884339 ,37,6258732178079
30.3673515 ,Left ,62,7004403284713 ,45,8775216120573 ,37,6046528318441
30.4424986 ,Left ,62,7093697906645 ,45,8580510310394 ,37,6042350717582
30.4574675 ,Left ,62,714155384137 ,45,8405230048266 ,37,5923916924746
30.4797658 ,Left ,62,7227520501178 ,45,8228966207433 ,37,5905929542735
30.5323611 ,Left ,62,650785524368 ,45,7978151843938 ,37,6139207631975
30.5632073 ,Left ,62,6698981873349 ,45,7260044295697 ,37,6219926559453
30.5779188 ,Left ,62,6358653940276 ,45,686630113867 ,37,6453918732509
30.5927198 ,Left ,62,5510741803479 ,45,6541760672325 ,37,6558286349743
30.6077307 ,Left ,62,5127489623448 ,45,6597302357518 ,37,6407257263639
30.6300382 ,Left ,62,5043891568167 ,45,6909575277473 ,37,6060548685802
30.6524042 ,Left ,62,5086084795047 ,45,6456825796342 ,37,5862020723586
30.6675736 ,Left ,62,6101265717021 ,45,6082061384217 ,37,5965481188878
30.6897031 ,Left ,62,656799086095 ,45,627141941236 ,37,6361199665346
30.7121252 ,Left ,62,48023533362 ,45,6733892451735 ,37,6612141553709
30.7279397 ,Left ,62,3870409434475 ,45,7384248585639 ,37,6492393213307
30.7802565 ,Left ,62,5656215538512 ,45,7829342431202 ,37,6211628491304
30.8026829 ,Left ,62,7026125810199 ,45,8205025239087 ,37,6089822060055
30.8252717 ,Left ,62,6816640228805 ,45,8412187356445 ,37,6023748597405
30.8549858 ,Left ,62,5241863337256 ,45,8742502308581 ,37,5676788482482
30.8776521 ,Left ,62,6001554926554 ,45,9005725256074 ,37,5281896025577
30.8924686 ,Left ,62,6579661966257 ,45,9259021623764 ,37,4912854607792
30.9076586 ,Left ,62,6293802240437 ,45,9247992337235 ,37,4678014517929
30.9301235 ,Left ,62,541662889093 ,45,9101763651036 ,37,4375194892975
30.9524548 ,Left ,62,4768467520834 ,45,882395169793 ,37,4035333002102
30.9675973 ,Left ,62,4211210506024 ,45,8884927554781 ,37,3621429819309
30.9899324 ,Left ,62,5218448206332 ,45,9176626862687 ,37,3029106317511
31.0122324 ,Left ,62,4364597637934 ,45,8864312266204 ,37,2531798102645
31.0273531 ,Left ,62,3816429437561 ,45,7934839340315 ,37,2204702544247
31.0648983 ,Left ,62,4897485348323 ,45,7306348555534 ,37,2580601094558
31.0871884 ,Left ,62,5833465768335 ,45,7348046399547 ,37,299186938073
31.1097813 ,Left ,62,4595138513625 ,45,7710990572367 ,37,3105299861924
31.1321956 ,Left ,62,5370646996361 ,45,8086085731554 ,37,2864162998242
31.15492 ,Left ,62,5733789140693 ,45,8564011482414 ,37,3088063269065
31.1697966 ,Left ,62,5154351745457 ,45,8912738923935 ,37,3354409495269
31.1924764 ,Left ,62,4439573121644 ,45,9020836144454 ,37,3548459289346
31.2075112 ,Left ,62,3901854426553 ,45,8842615654158 ,37,3670921248379
31.2301698 ,Left ,62,367020569468 ,45,8863592288289 ,37,3434282920293
31.2522177 ,Left ,62,4125557992518 ,45,8670331050856 ,37,3032353502244
31.2672319 ,Left ,62,4347262009853 ,45,7944176753345 ,37,2971228064057
31.289969 ,Left ,62,610426468096 ,45,7473021134869 ,37,3169976206744
31.3124762 ,Left ,62,6854317780079 ,45,7622594751106 ,37,3439554593852
31.3344475 ,Left ,62,5150423762854 ,45,7961630107296 ,37,3638573601627
31.3497031 ,Left ,62,4439500862991 ,45,8410861693552 ,37,3742018255099
31.3721789 ,Left ,62,5401307468985 ,45,9142994484979 ,37,3679158341632
31.4101245 ,Left ,62,6206574599994 ,45,9837434443034 ,37,382818309467
31.4250927 ,Left ,62,5733862406629 ,46,0427744373596 ,37,4283541750283
31.4927604 ,Left ,62,4511621762526 ,46,0396140210916 ,37,4670458097641
31.5151821 ,Left ,62,4826467728672 ,46,025662213294 ,37,4582027669284
31.5304369 ,Left ,62,4783669559734 ,46,0109415288166 ,37,4572881666539
31.5527546 ,Left ,62,358667098082 ,45,9120841995806 ,37,4383483634112
31.5828491 ,Left ,62,4103330415761 ,45,8611121209955 ,37,4111893632383
31.6054619 ,Left ,62,4717943034531 ,45,8101488859807 ,37,3966798333777
31.6273211 ,Left ,62,4971196883645 ,45,7556013746159 ,37,411279462137
31.6798313 ,Left ,62,4746182958516 ,45,7003488975742 ,37,4218166123486
31.709848 ,Left ,62,4890651066592 ,45,7121634535289 ,37,4228790012797
31.7321528 ,Left ,62,4852950656255 ,45,7257079053758 ,37,4594364887957
31.7471553 ,Left ,62,4737633247741 ,45,7098457624235 ,37,4848010930249
31.777099 ,Left ,62,5190688748616 ,45,6691584969138 ,37,5602689743157
31.8148885 ,Left ,62,5186455455223 ,45,6955847413509 ,37,6263292812803
31.8445847 ,Left ,62,481143646834 ,45,7608540937432 ,37,7435748253519
31.8823252 ,Left ,62,4527197315166 ,45,8055993083316 ,37,8483849922028
31.8974249 ,Left ,62,3995942373938 ,45,8248958839116 ,37,8860610925358
31.9199138 ,Left ,62,3579184254284 ,45,8377531348274 ,37,8793398438721
31.9347041 ,Left ,62,3027010714602 ,45,8488234959757 ,37,8601291492511
31.9499697 ,Left ,62,2157964321912 ,45,8572391643193 ,37,8621680875745
31.9722829 ,Left ,62,1172503988861 ,45,9016383726062 ,37,8654050136516
31.9952487 ,Left ,62,1471147442873 ,45,9393085389478 ,37,842469118343
32.0104753 ,Left ,62,2213426289725 ,45,9265276530327 ,37,8602266781799
32.0404896 ,Left ,62,3180513634814 ,45,9443148598788 ,37,8764041313595
32.0627521 ,Left ,62,2565476389964 ,45,9587017989343 ,37,9292949130804
32.0774335 ,Left ,62,1883187308398 ,45,994034699271 ,37,9107687093953
32.1074397 ,Left ,62,2496101067186 ,45,9924804556355 ,37,8616382990917
32.122527 ,Left ,62,3811722564691 ,46,0070325460722 ,37,8083718620178
32.137463 ,Left ,62,4103679809719 ,46,0219675905288 ,37,7844611464401
32.1749666 ,Left ,62,3538009049892 ,46,0105691737363 ,37,7418455201912
32.1899443 ,Left ,62,3162322643281 ,45,9913040335141 ,37,6924589001151
32.2121492 ,Left ,62,3699872703945 ,45,9796999907878 ,37,62479954547
32.2272455 ,Left ,62,4002095382392 ,45,949499536829 ,37,559852844996
32.249649 ,Left ,62,4223939719255 ,45,918251730196 ,37,4943205001027
32.2721636 ,Left ,62,4444978475493 ,45,8905970169908 ,37,4167803999251
32.287276 ,Left ,62,4461748455573 ,45,8627799110162 ,37,3406839966755
32.3020942 ,Left ,62,424306108668 ,45,8459172834906 ,37,2742985019747
32.3329983 ,Left ,62,4285467365705 ,45,8371380134643 ,37,1610170994345
32.3552583 ,Left ,62,4689010751676 ,45,8331371755461 ,37,0930054917526
32.3851096 ,Left ,62,4217303642967 ,45,8012586812217 ,36,9934188873301
32.4076414 ,Left ,62,4136593286048 ,45,7943956863333 ,36,9565868047858
32.4228041 ,Left ,62,4553100195688 ,45,8142448517404 ,36,9146411708068
32.4453881 ,Left ,62,4467173489296 ,45,8416481010993 ,36,9072178226385
32.4676141 ,Left ,62,3171799062798 ,45,8431971296858 ,36,9224185424348
32.4826184 ,Left ,62,3772874512531 ,45,8346165754019 ,36,9386722913815
32.5053664 ,Left ,62,6501607104238 ,45,7386149565264 ,36,9576467310823
32.5275662 ,Left ,62,752255429443 ,45,646079277742 ,36,9684809327196
32.565373 ,Left ,62,493633785971 ,45,5840414096096 ,36,9434775954358
32.5877741 ,Left ,62,526950576828 ,45,5432931990409 ,36,9141409893594
32.6250647 ,Left ,62,4173653127706 ,45,579472146123 ,36,9199616203892
32.6475592 ,Left ,62,3740210712108 ,45,6539721438335 ,36,9224594155705
32.6628334 ,Left ,62,3285966822974 ,45,725689826083 ,36,9511359927313
32.6926623 ,Left ,62,4569009505046 ,45,7197431537568 ,37,0129213283779
32.7152505 ,Left ,62,6282921172869 ,45,6706616444352 ,37,0819329060448
32.7453875 ,Left ,62,50906239688 ,45,593452239899 ,37,1483145622214
32.7676082 ,Left ,62,486002389872 ,45,6225848093264 ,37,1418468260416
32.8053221 ,Left ,62,6666629045833 ,45,6404269606245 ,37,1575288267871
32.8275812 ,Left ,62,6759922828804 ,45,6339021758046 ,37,2102675954326
32.8727116 ,Left ,62,5702504148429 ,45,6336214342734 ,37,2832671992968
32.8950128 ,Left ,62,6155789297125 ,45,6368212385072 ,37,3068649148493
32.9247124 ,Left ,62,6476985586896 ,45,632694201243 ,37,3626412993887
32.9471773 ,Left ,62,6104290000416 ,45,6324847802258 ,37,3964641748647
32.9852673 ,Left ,62,6421856065101 ,45,6229018294682 ,37,4542964296745
33.007646 ,Left ,62,62260557335 ,45,625774273565 ,37,4773303321622
33.059996 ,Left ,62,5631897670391 ,45,6508767528957 ,37,5385253607075
33.0974819 ,Left ,62,5733180690196 ,45,6479298420692 ,37,5542525301247
33.1201735 ,Left ,62,5977461909445 ,45,6353754608632 ,37,5814859555298
33.1728222 ,Left ,62,5901336073209 ,45,6635108138497 ,37,6237149860668
33.2403442 ,Left ,62,6100254323473 ,45,6515061643573 ,37,6503124398219
33.3000545 ,Left ,62,6866338632057 ,45,6361749113616 ,37,6649519218781
33.3152122 ,Left ,62,6949733932681 ,45,6354232557559 ,37,6755610824823
33.3452462 ,Left ,62,7127494481147 ,45,620062507457 ,37,6697157123488
33.3750819 ,Left ,62,7394902903927 ,45,5939797291916 ,37,665116359017
33.419923 ,Left ,62,742741418578 ,45,5624987975435 ,37,694262933858
33.4349914 ,Left ,62,6917527342201 ,45,5221285051627 ,37,7156143411254
33.479894 ,Left ,62,7188890404351 ,45,4381728962119 ,37,7151125404357
33.5023004 ,Left ,62,726578881809 ,45,401003395471 ,37,7087545977294
33.6001435 ,Left ,62,7839286192998 ,45,4496542909751 ,37,6330278078621
33.6304889 ,Left ,62,6796420049497 ,45,5091333047116 ,37,6571434041232
33.6829139 ,Left ,62,6817949660301 ,45,5480949139165 ,37,6432607829167
33.7651492 ,Left ,62,6848884040055 ,45,4911373479906 ,37,6156830116073
33.8175324 ,Left ,62,6784527808882 ,45,4652147636605 ,37,6167806015939
33.8398831 ,Left ,62,6751559729238 ,45,4564376068349 ,37,6114373128034
33.8848784 ,Left ,62,559013969402 ,45,5797638858682 ,37,5270426773405
33.914808 ,Left ,62,5707814558451 ,45,5496085806394 ,37,563370529725
33.9529569 ,Left ,62,6376565895766 ,45,6171863221291 ,37,6552017410202
33.9676115 ,Left ,62,4661264671218 ,45,665155942598 ,37,6908129332229
34.0125761 ,Left ,62,6129766859607 ,45,7660007662321 ,37,6688157871199
34.0500832 ,Left ,62,6852521204892 ,45,7909159154264 ,37,65207043923
34.0728199 ,Left ,62,5691800781504 ,45,7912091597344 ,37,6193771363213
34.1400062 ,Left ,62,5275956316241 ,45,7427828146732 ,37,4119310506654
34.1771918 ,Left ,62,4435293918198 ,45,7212133667461 ,37,202436013277
34.1997677 ,Left ,62,3573332744247 ,45,71693657029 ,37,1591680676667
34.2221688 ,Left ,62,4419161385885 ,45,6714656459074 ,37,1441030243312
34.2374087 ,Left ,62,6601833711433 ,45,6255600219294 ,37,1864739369964
34.2672691 ,Left ,62,726926029452 ,45,6155386904673 ,37,1903905402613
34.2900539 ,Left ,62,6045769183441 ,45,6451123443356 ,37,1833930497905
34.3049287 ,Left ,62,4488197436655 ,45,7307060597114 ,37,2074280324369
34.3274905 ,Left ,62,4906093059968 ,45,8925496205871 ,37,190316785683
34.3423391 ,Left ,62,5485673914842 ,46,0267152447376 ,37,1174000899478
34.3571449 ,Left ,62,6403711911065 ,46,0688728677919 ,37,0914267585968
34.3871099 ,Left ,62,6162361579042 ,45,9905677787685 ,37,1821306846181
34.4326374 ,Left ,62,6583997255421 ,45,9531602694319 ,37,2808183988096
34.447382 ,Left ,62,6060593454897 ,45,9598303316695 ,37,317516776688
34.4624877 ,Left ,62,5492709661243 ,45,9700582142428 ,37,3030568508082
34.507342 ,Left ,62,5477205018821 ,45,9648164779306 ,37,3775827504695
34.5524173 ,Left ,62,4925378087563 ,45,9364487202198 ,37,4258754163071
34.5672105 ,Left ,62,4258449422998 ,45,8900442522575 ,37,4579788273527
34.5899742 ,Left ,62,4006093154222 ,45,8330982596264 ,37,4799123409294
34.6123143 ,Left ,62,4397705363469 ,45,7691315166681 ,37,4547629146461
34.634755 ,Left ,62,3759955863772 ,45,7512542140992 ,37,447731421788
34.6648465 ,Left ,62,2637280469413 ,45,7750663812366 ,37,3887013551476
34.687393 ,Left ,62,3864601199399 ,45,8016463291705 ,37,4024438300415
34.7101533 ,Left ,62,4600274978851 ,45,8494926203209 ,37,3979253502123
34.724917 ,Left ,62,354293404902 ,45,8901855407303 ,37,4185600109686
34.7475881 ,Left ,62,3268177677933 ,45,9278714004481 ,37,445820355406
34.7775626 ,Left ,62,4031753988501 ,45,9726991853 ,37,4595667083544
34.7999276 ,Left ,62,459995466099 ,46,0132818555185 ,37,4704383687155
34.8150607 ,Left ,62,4716657806491 ,46,0250573087539 ,37,4813630912775
34.8449861 ,Left ,62,3895161683862 ,45,9974667776399 ,37,5061747280296
34.8600765 ,Left ,62,4341180172272 ,45,9933877351019 ,37,4980874907283
34.8974246 ,Left ,62,4768249079745 ,45,9933997341204 ,37,4901470537923
34.9423561 ,Left ,62,4971755539261 ,45,9758355739895 ,37,4941365117542
34.9799576 ,Left ,62,4693957239736 ,45,9159273945945 ,37,4906990555748
35.0100198 ,Left ,62,4672344660223 ,45,9112139667453 ,37,4824561942
35.0324162 ,Left ,62,5024189515658 ,45,9030490091288 ,37,4368738169889
35.0626113 ,Left ,62,5026889589148 ,45,8906604245582 ,37,401944442921
35.077482 ,Left ,62,4739948370291 ,45,8788935591428 ,37,3959916684554
35.1000448 ,Left ,62,4934884790408 ,45,893523384565 ,37,345240540543
35.1223571 ,Left ,62,5016003164096 ,45,9005769401068 ,37,314552125165
35.1450109 ,Left ,62,4909372090841 ,45,8933860283822 ,37,2784257460984
35.1597726 ,Left ,62,440502740904 ,45,8899304363024 ,37,2491167786076
35.1898836 ,Left ,62,3877856379503 ,45,8963886613386 ,37,2272038928197
35.2125358 ,Left ,62,3813097538257 ,45,9148524818535 ,37,1970792785847
35.2272626 ,Left ,62,3793089068691 ,45,9139225835962 ,37,1522425231116
35.2648082 ,Left ,62,3187252077056 ,45,9902217494787 ,37,1754448073968
35.2798744 ,Left ,62,19625576873 ,46,0670855569768 ,37,1715708339486
35.3022039 ,Left ,62,2013344639944 ,46,0817556634138 ,37,1227023752403
35.3250853 ,Left ,62,4414305805393 ,46,0149301907248 ,37,1324407963513
35.3400902 ,Left ,62,6646540161688 ,45,9459574427253 ,37,135666797986
35.3624451 ,Left ,62,5172534049646 ,45,8955630870708 ,37,1341739235349
35.3850274 ,Left ,62,4804916533351 ,45,8526174740048 ,37,0690665683328
35.3999697 ,Left ,62,544351334249 ,45,7893696939658 ,37,0318458520827
35.4225943 ,Left ,62,5416149302817 ,45,7470629896903 ,37,0401920439829
35.4448622 ,Left ,62,5138387620139 ,45,7967297913672 ,37,076122344941
35.4602496 ,Left ,62,3688671471543 ,45,8553632142438 ,37,1061567630781
35.4824182 ,Left ,62,3230118134023 ,45,8788544276812 ,37,117044899644
35.5049474 ,Left ,62,4753054289381 ,45,8123606666176 ,37,1491241019693
35.5199292 ,Left ,62,6671435940856 ,45,7013961025704 ,37,2310173434977
35.5422256 ,Left ,62,6413686876833 ,45,696926122996 ,37,2999508295706
35.565116 ,Left ,62,5074475607743 ,45,7021243731206 ,37,3475557369762
35.5801599 ,Left ,62,5375165915282 ,45,7322618302627 ,37,320835099604
35.6178258 ,Left ,62,5973515652908 ,45,7736835503905 ,37,2971751061225
35.6627388 ,Left ,62,6425370478948 ,45,7921279496664 ,37,3055677080691
35.6777021 ,Left ,62,6225074955766 ,45,8042757825548 ,37,3532672678907
35.7000714 ,Left ,62,5464671518875 ,45,8116029476519 ,37,4154574678893
35.7298335 ,Left ,62,6859412211946 ,45,7990696998636 ,37,4870750426296
35.7747394 ,Left ,62,7184382424146 ,45,8026407401313 ,37,5532223154504
35.7973576 ,Left ,62,706912609336 ,45,8107378835183 ,37,5717188586682
35.8347377 ,Left ,62,7380446680909 ,45,8180396882419 ,37,5994982269719
35.8498386 ,Left ,62,7067561495951 ,45,8228518044537 ,37,6065882294605
35.8871596 ,Left ,62,7454149562509 ,45,8142609388344 ,37,6180523717164
35.9099599 ,Left ,62,7565726176636 ,45,8070292870767 ,37,6293280883484
35.9323273 ,Left ,62,7074334759854 ,45,7950275904426 ,37,6316498895826
35.9474566 ,Left ,62,7190812041219 ,45,7873254888881 ,37,6268526641006
35.9624306 ,Left ,62,7211914717254 ,45,787926509028 ,37,6264815667085
35.984823 ,Left ,62,7124578573632 ,45,7862213502067 ,37,6282852410717
35.9997685 ,Left ,62,7027128302231 ,45,7738530112901 ,37,6344630056909
36.0300042 ,Left ,62,7105093502651 ,45,7567446892167 ,37,6420929602384
36.0599017 ,Left ,62,6962380445358 ,45,7490536499455 ,37,6562927651027
36.1049934 ,Left ,62,6750635587743 ,45,7702655949803 ,37,6724650210322
36.1648217 ,Left ,62,7062179462483 ,45,7621960529971 ,37,693101809877
36.1953667 ,Left ,62,6777594362273 ,45,7594768264861 ,37,7025310291452
36.2405386 ,Left ,62,7173459100311 ,45,7647489844424 ,37,6595228087941
36.2775126 ,Left ,62,6799538947763 ,45,7286178599427 ,37,6516742852384
36.3000482 ,Left ,62,6645399070407 ,45,7024300003856 ,37,6306336802392
36.3300902 ,Left ,62,6212707391371 ,45,6312084039464 ,37,5769014120488
36.3674583 ,Left ,62,5849911226141 ,45,6820911652948 ,37,5306060891424
36.3825654 ,Left ,62,6249407916471 ,45,647343742143 ,37,5181417935895
36.4048492 ,Left ,62,6999535888242 ,45,674235554155 ,37,5191222430865
36.4273668 ,Left ,62,7469015851863 ,45,736860277024 ,37,5364235627985
36.4500172 ,Left ,62,6081242027741 ,45,7947107793358 ,37,5735247234041
36.4948832 ,Left ,62,5271284410127 ,45,8448693479614 ,37,5802602971058
36.5474401 ,Left ,62,7601924740078 ,45,8892231290976 ,37,5068386147511
36.5774696 ,Left ,62,6076849727482 ,45,885612139337 ,37,4425946284855
36.5924301 ,Left ,62,5304819352256 ,45,8502498558018 ,37,386370129943
36.5998707 ,Left ,62,5626435785091 ,45,812862696133 ,37,3144745512982
36.6150695 ,Left ,62,5960786409009 ,45,7867118080517 ,37,2517091996596
36.6299714 ,Left ,62,52321506405 ,45,7548984849835 ,37,2140794306884
36.6449348 ,Left ,62,5280208482892 ,45,725477301727 ,37,1697312291746
36.6673044 ,Left ,62,4303518104207 ,45,6929161587925 ,37,119216594528
36.6902569 ,Left ,62,5143237387027 ,45,696920093555 ,37,111144167084
36.7201111 ,Left ,62,6708784125458 ,45,7192640626299 ,37,1547113306537
36.7423049 ,Left ,62,6453205106794 ,45,7542344321069 ,37,199131681685
36.7725806 ,Left ,62,5498099550636 ,45,8456186642461 ,37,2388751912379
36.7948568 ,Left ,62,6241395272122 ,45,8984252012688 ,37,2544590901302
36.8322734 ,Left ,62,5826975290029 ,45,9233245042338 ,37,316652016521
36.8699356 ,Left ,62,5639319877747 ,45,8856759201186 ,37,3476447468326
36.8922515 ,Left ,62,5705576156626 ,45,848673027875 ,37,3601542074358
36.929768 ,Left ,62,5687826853124 ,45,842829760704 ,37,3602056236036
36.9749559 ,Left ,62,5573516091216 ,45,7517059956047 ,37,3666086337206
36.9974222 ,Left ,62,5041378472853 ,45,6886334432611 ,37,3940524279561
37.0124456 ,Left ,62,4218282946951 ,45,7036265327254 ,37,405552221834
37.0272189 ,Left ,62,4334315650449 ,45,7870787887342 ,37,3953341963429
37.0498577 ,Left ,62,4535984243079 ,45,8399799658047 ,37,3662860573932
37.0648535 ,Left ,62,4075176773086 ,45,829654652187 ,37,3483506117367
37.0871607 ,Left ,62,4952021688787 ,45,8483819090688 ,37,3870088528108
37.1104853 ,Left ,62,5791633477835 ,45,8915070379682 ,37,393092729938
37.1254425 ,Left ,62,4611709980133 ,45,9334530951909 ,37,3999628079071
37.1771473 ,Left ,62,4144598348179 ,45,9613586935357 ,37,3927357394552
37.2222184 ,Left ,62,4713954467432 ,45,9868022490245 ,37,3808691451167
37.2372873 ,Left ,62,5124265070898 ,46,0015915825721 ,37,4475848073386
37.2751238 ,Left ,62,4582402611461 ,45,9892816077512 ,37,4757096778362
37.289881 ,Left ,62,5266707286659 ,45,9552833646592 ,37,5098001341941
37.3350349 ,Left ,62,5445574022395 ,45,9434887116304 ,37,5283627673248
37.4021825 ,Left ,62,5865893220192 ,45,9185811264617 ,37,5921327519986
37.447231 ,Left ,62,5794822105676 ,45,9121543276898 ,37,5957432462308
37.5002243 ,Left ,62,6007862120203 ,45,8867330767307 ,37,6159426643062
37.5677272 ,Left ,62,6389009935583 ,45,9028087961425 ,37,6525042296605
37.6053513 ,Left ,62,6188206567526 ,45,8998231596555 ,37,6794974818606
37.6652009 ,Left ,62,6117755047356 ,45,9174726708789 ,37,6762562708044
37.6803105 ,Left ,62,5810573331329 ,45,9123642211261 ,37,6739695602543
37.7321948 ,Left ,62,5827713242099 ,45,9165972439034 ,37,6618805324227
37.777243 ,Left ,62,5897663682207 ,45,8913008740422 ,37,6616695993837
37.837532 ,Left ,62,6023380950042 ,45,8960179391749 ,37,6421902039611
37.8747111 ,Left ,62,5691291926591 ,45,8914722072295 ,37,6476255665801
37.890482 ,Left ,62,5842645725428 ,45,8920292513491 ,37,6411664685612
37.9056162 ,Left ,62,6126600832475 ,45,8747683003676 ,37,6473387202092
37.9207133 ,Left ,62,579742904875 ,45,8702003507643 ,37,6594278292632
37.9351918 ,Left ,62,5732574845794 ,45,8731664782825 ,37,6694006452094
37.950535 ,Left ,62,5957833370421 ,45,8794459356441 ,37,6746478016784
37.9804574 ,Left ,62,6230487596256 ,45,8758056527267 ,37,6716334309323
38.0030029 ,Left ,62,6226121124901 ,45,8763181884661 ,37,6720633080445
38.0323852 ,Left ,62,6207443638404 ,45,8792858537029 ,37,6739564842201
38.0472038 ,Left ,62,6180406998838 ,45,8769649243049 ,37,6714423870689
38.062811 ,Left ,62,6396383153657 ,45,8739025586867 ,37,6636862347711
38.1079153 ,Left ,62,6242502217707 ,45,83419452483 ,37,64761650275
38.1153519 ,Left ,62,6394649273109 ,45,8183148698113 ,37,6357595982033
38.1376471 ,Left ,62,6321896315374 ,45,8089791017658 ,37,6291256347381
38.1601408 ,Left ,62,6201305531164 ,45,8025690094673 ,37,6342245815838
38.1824272 ,Left ,62,6272541942223 ,45,8072011081803 ,37,6409750459603
38.2272626 ,Left ,62,6352337417387 ,45,8421179691796 ,37,6817138250819
38.2498311 ,Left ,62,6344981528465 ,45,8548400680563 ,37,7102644885072
38.2799427 ,Left ,62,6181732650268 ,45,8687017117026 ,37,775241263202
38.3026223 ,Left ,62,6309577690491 ,45,8731573999011 ,37,7937042281317
38.35487 ,Left ,62,6438487585493 ,45,865868979064 ,37,8067346790819
38.3850389 ,Left ,62,6566370805451 ,45,8534201994517 ,37,7972657709907
38.4074642 ,Left ,62,6483932986935 ,45,8526120741946 ,37,765658966156
38.4299203 ,Left ,62,6224345293021 ,45,8529818373442 ,37,746572889873
38.4597225 ,Left ,62,6166648038073 ,45,8456778236234 ,37,7089802054348
38.4824249 ,Left ,62,5826890414813 ,45,8511871208311 ,37,7014105341108
38.5348481 ,Left ,62,5782104018419 ,45,8713621843306 ,37,6783061001363
38.5504992 ,Left ,62,5854795939961 ,45,873040239586 ,37,6814447645274
38.5803232 ,Left ,62,5673577901552 ,45,87543578518 ,37,7013163255397
38.6029076 ,Left ,62,5512476140724 ,45,8813516753352 ,37,7087916146483
38.6473908 ,Left ,62,5636905822682 ,45,8865683533514 ,37,7119911457324
38.6772181 ,Left ,62,539756040434 ,45,8873218088776 ,37,7237966222571
38.7073806 ,Left ,62,5043583770914 ,45,8852144891702 ,37,7331725956009
38.7225568 ,Left ,62,5131932406726 ,45,8821673860778 ,37,7381865132375
38.7600649 ,Left ,62,5038830098697 ,45,8715076879831 ,37,7786228212851
38.7900915 ,Left ,62,5111896908963 ,45,8626145083734 ,37,7903188711408
38.8574139 ,Left ,62,5383637874022 ,45,8382373957224 ,37,811467099939
38.8875622 ,Left ,62,5101603908167 ,45,8220586119093 ,37,8100981108903
38.9699193 ,Left ,62,5497375924467 ,45,8151821939675 ,37,8154755957487
39.015189 ,Left ,62,5821835073897 ,45,8275989504257 ,37,8385442458684
39.0305466 ,Left ,62,5993865274713 ,45,8273330201135 ,37,8490444760731
39.0674044 ,Left ,62,6169097757306 ,45,8294848605989 ,37,8471307120729
39.0897483 ,Left ,62,6215081310306 ,45,820696530641 ,37,8372417065201
39.119886 ,Left ,62,6267350636893 ,45,7872559510014 ,37,8247293286851
39.1422591 ,Left ,62,622885342825 ,45,7621325079033 ,37,8075554654917
39.1800445 ,Left ,62,6438523009792 ,45,6838132979706 ,37,7874969454974
39.2026298 ,Left ,62,6205412324561 ,45,6511171393918 ,37,7949639737203
39.2549703 ,Left ,62,5222218216245 ,45,5772761575697 ,37,8305960019726
39.2999052 ,Left ,62,6079971896511 ,45,6693984368775 ,37,8094151961877
39.322534 ,Left ,62,6688131223673 ,45,7034469006666 ,37,8697876141268
39.3824874 ,Left ,62,4387948371215 ,45,8449625067152 ,37,9128248421241
39.404766 ,Left ,62,5372588156609 ,45,9012400923566 ,37,8876813392302
39.4724658 ,Left ,62,4746412798059 ,46,0254446294513 ,37,8124096294717
39.510007 ,Left ,62,4136395796502 ,46,0133169842285 ,37,5063591397412
39.539708 ,Left ,62,3254660364785 ,45,7798748834985 ,37,3545953089279
39.5628802 ,Left ,62,429976756273 ,45,7277033572169 ,37,3713896492949
39.622662 ,Left ,62,5222609207248 ,45,7450904574648 ,37,3291375486092
39.682212 ,Left ,62,7105910379781 ,46,0913990478525 ,37,2301648663499
39.7199861 ,Left ,62,8613519424919 ,45,9205622473182 ,37,2271441596079
39.7425791 ,Left ,62,9656918979865 ,45,8097946986447 ,37,3440953483422
39.7950539 ,Left ,62,7541900776686 ,45,8212700746744 ,37,4881643098123
39.8772775 ,Left ,62,8225758896133 ,45,878345103011 ,37,5709354493161
39.9747087 ,Left ,62,3746884114549 ,45,8428092626019 ,37,5681559575997
39.9974148 ,Left ,62,3202815607839 ,45,8443477053436 ,37,522101943846
40.0124579 ,Left ,62,4227096781648 ,45,8520517185038 ,37,5201216824707
40.0423227 ,Left ,62,5448206312463 ,45,8577897770665 ,37,5383437195708
40.0648587 ,Left ,62,5296889540929 ,45,9000657144044 ,37,52407559854
40.0798103 ,Left ,62,5557448837448 ,45,9394182182188 ,37,5119605604717
40.1099295 ,Left ,62,5513301944811 ,45,9809932193586 ,37,5233932982479
40.1249303 ,Left ,62,5837302909378 ,46,0337253750371 ,37,5380726602698
40.1398976 ,Left ,62,598000407345 ,46,0587717862362 ,37,5499890413541
40.1621418 ,Left ,62,5987307298349 ,46,0606609700782 ,37,5370824693784
40.1923473 ,Left ,62,6006195535115 ,46,04892463135 ,37,5334124617597
40.2150857 ,Left ,62,623606483168 ,46,037193929014 ,37,5190866552656
40.2300853 ,Left ,62,6442159138882 ,46,0419719915443 ,37,4950139231689
40.2672949 ,Left ,62,5733248272878 ,46,066153298066 ,37,4301579107662
40.2825142 ,Left ,62,5600565323333 ,46,060388958495 ,37,3615911812798
40.3199839 ,Left ,62,4893671228489 ,46,0739675571564 ,37,2511037669861
40.3429522 ,Left ,62,4179935662022 ,46,0690172935031 ,37,2180191910479
40.3577931 ,Left ,62,3514619723488 ,46,0610906334635 ,37,1888445440315
40.3731046 ,Left ,62,3534446322114 ,46,0696870771766 ,37,1606372685348
40.3951654 ,Left ,62,3688427665518 ,46,1324551692731 ,37,1462325789335
40.4175888 ,Left ,62,316371258785 ,46,2025168096739 ,37,1367025751774
40.4324011 ,Left ,62,2909285058188 ,46,2248854427495 ,37,1338828082639
40.4550326 ,Left ,62,5331807149877 ,46,1636994156335 ,37,1508618764243
40.4772484 ,Left ,62,739317908941 ,46,0942035919408 ,37,1822644179354
40.4999408 ,Left ,62,6605706026822 ,46,0817508950295 ,37,1930968046647
40.5151026 ,Left ,62,5761117175928 ,46,0552524399865 ,37,1697055540702
40.5374515 ,Left ,62,5731991017772 ,46,0047571095832 ,37,1451145372307
40.5525469 ,Left ,62,5951024854525 ,45,9657470709611 ,37,1634295452481
40.574831 ,Left ,62,5336954111653 ,45,9141553966406 ,37,2008464647678
40.5971684 ,Left ,62,4383963618757 ,45,8669652556127 ,37,2392658413408
40.6197382 ,Left ,62,2992589593243 ,45,8486521635897 ,37,3127127288082
40.6348136 ,Left ,62,2401454998857 ,45,8939074896586 ,37,3661965925463
40.6571831 ,Left ,62,2925002765597 ,45,8845303088597 ,37,3936833596706
40.6801146 ,Left ,62,428673756864 ,45,8540792092172 ,37,3980775778528
40.6950409 ,Left ,62,6254648362419 ,45,7570315899295 ,37,4384868212158
40.717552 ,Left ,62,6489070848903 ,45,7179170511016 ,37,5099589314947
40.7474417 ,Left ,62,4530909572231 ,45,7299212104242 ,37,5831823432958
40.7623995 ,Left ,62,4223294232524 ,45,7816888441303 ,37,5845883129505
40.799819 ,Left ,62,5640055340245 ,45,8471505295252 ,37,565907821094
40.8151155 ,Left ,62,5335149629013 ,45,8559744660416 ,37,5946929685639
40.8374135 ,Left ,62,4944463783691 ,45,8760106430125 ,37,6355563777334
40.8601026 ,Left ,62,5420684393205 ,45,8997858811852 ,37,6504447073348
40.8824773 ,Left ,62,590458185988 ,45,9058598838471 ,37,6749382957336
40.9047885 ,Left ,62,5994469817758 ,45,9093343045273 ,37,6850630459404
40.9350227 ,Left ,62,6129100189297 ,45,9062917297462 ,37,6819834564481
40.9498863 ,Left ,62,6193081209858 ,45,9044885503665 ,37,6859838978506
40.9724011 ,Left ,62,6579760965788 ,45,9111423663049 ,37,6889915388793
40.9950303 ,Left ,62,6411207492364 ,45,9088204554612 ,37,704091851554
41.0099156 ,Left ,62,6639406501246 ,45,9273922732642 ,37,7126760915639
41.0849599 ,Left ,62,671191758634 ,45,9389493532736 ,37,7315786510029
41.1373249 ,Left ,62,6986765740053 ,45,9739392831015 ,37,7218075720601
41.1673756 ,Left ,62,7222874394651 ,45,9638165371266 ,37,7102455737068
41.1828011 ,Left ,62,7036101276723 ,45,9563616076576 ,37,716697529634
41.220286 ,Left ,62,6987792212278 ,45,9716887167657 ,37,7095173951173
41.242564 ,Left ,62,7189611122859 ,45,9510323221876 ,37,703021948043
41.2726833 ,Left ,62,7192219528643 ,45,9363566832023 ,37,7095650073146
41.2800735 ,Left ,62,7015117343251 ,45,9382132059815 ,37,7134000246564
41.295118 ,Left ,62,6891733815994 ,45,9483072213611 ,37,7171652121874
41.3326915 ,Left ,62,7158522176733 ,45,9492032674131 ,37,7165367902645
41.3476396 ,Left ,62,746415946886 ,45,9411900932289 ,37,7240817825244
41.3700203 ,Left ,62,7224158328188 ,45,9324485970287 ,37,7427756976569
41.3922878 ,Left ,62,684195878212 ,45,9375145502354 ,37,7428573287191
41.4149496 ,Left ,62,7085950780707 ,45,9268024599448 ,37,7374470819862
41.4451147 ,Left ,62,732751066111 ,45,9213047372576 ,37,7323156381467
41.4823792 ,Left ,62,7092315803638 ,45,9204226233818 ,37,7298020439289
41.5424364 ,Left ,62,7243396794783 ,45,8950735255153 ,37,7248268117508
41.5650117 ,Left ,62,7126828280793 ,45,8762317029672 ,37,7397390669653
41.6104209 ,Left ,62,7057277199336 ,45,8657486144062 ,37,7413865102501
41.6330976 ,Left ,62,7413300821573 ,45,8338741179436 ,37,7227583859904
41.6479454 ,Left ,62,7309233284481 ,45,7887624229701 ,37,7205504514283
41.6627519 ,Left ,62,6882566068722 ,45,693980481082 ,37,713861842598
41.6778786 ,Left ,62,6122801317503 ,45,6315937467194 ,37,7323729906503
41.700052 ,Left ,62,5215163816653 ,45,6140035191707 ,37,7627007223845
41.7147944 ,Left ,62,5971337823527 ,45,6817749676361 ,37,7220497665952
41.7380568 ,Left ,62,5567116783763 ,45,7023238184724 ,37,6763253628893
41.7599945 ,Left ,62,5918991169258 ,45,7595569682298 ,37,696766568443
41.7821503 ,Left ,62,5395703043586 ,45,8219289497031 ,37,7633732804053
41.8198273 ,Left ,62,4897276517201 ,45,8951651346555 ,37,7756030657845
41.8427618 ,Left ,62,5570303850801 ,45,9644312276439 ,37,7608626404158
41.9025798 ,Left ,62,5825262226829 ,46,0345349009579 ,37,7498219432135
41.9248843 ,Left ,62,5330024057637 ,45,9724478557674 ,37,7154550918836
41.9401315 ,Left ,62,5675073043902 ,45,8658812486384 ,37,5936612412358
41.9623378 ,Left ,62,6125517082693 ,45,8289225682844 ,37,5363500647295
41.9924432 ,Left ,62,572646710964 ,45,7797921892456 ,37,4896106887089
42.0150819 ,Left ,62,4968797695286 ,45,7204101846678 ,37,4737630881124
42.0599657 ,Left ,62,5152611059011 ,45,6715849340906 ,37,4278192193721
42.0747487 ,Left ,62,5777845187277 ,45,6435713255696 ,37,3980831359064
42.1124916 ,Left ,62,611742356944 ,45,6082696080838 ,37,4140914170722
42.1274768 ,Left ,62,5476985037707 ,45,6404933501714 ,37,4350656566558
42.1647426 ,Left ,62,5499665505215 ,45,7151700391012 ,37,4396735566533
42.1873111 ,Left ,62,5863555985268 ,45,763421955827 ,37,4464891534749
42.2179589 ,Left ,62,5300832095071 ,45,7633469815586 ,37,4543588103064
42.2403063 ,Left ,62,5379962840618 ,45,7445231760778 ,37,4568201390291
42.2773975 ,Left ,62,5155712182333 ,45,7281035461753 ,37,4447022383802
42.2921992 ,Left ,62,5182299386215 ,45,681093579742 ,37,4334609843856
42.3299194 ,Left ,62,4940855375117 ,45,58564767748 ,37,4215688559546
42.3449343 ,Left ,62,4588141236043 ,45,589091602894 ,37,4069063796733
42.3749971 ,Left ,62,472795055383 ,45,6173017814592 ,37,3842259609109
42.3897888 ,Left ,62,4921079644625 ,45,6361802081454 ,37,3510589914233
42.4047368 ,Left ,62,4963557052618 ,45,6378869785266 ,37,3123355409926
42.4277528 ,Left ,62,4518036512242 ,45,6511782210442 ,37,3275182632345
42.4427717 ,Left ,62,4119329601792 ,45,6904156805178 ,37,3395667007668
42.4582467 ,Left ,62,3641316516142 ,45,7454482328649 ,37,3611281120462
42.4803054 ,Left ,62,4451639382533 ,45,8029355227653 ,37,3766149284113
42.5024644 ,Left ,62,508409264352 ,45,8678686411192 ,37,4032051493694
42.5173265 ,Left ,62,4537394601155 ,45,9058901695629 ,37,4300395201157
42.5476537 ,Left ,62,5235779632398 ,45,9090210422536 ,37,4018257916498
42.5699112 ,Left ,62,5047516404655 ,45,9212092450037 ,37,3703086690928
42.5849818 ,Left ,62,4078903426127 ,45,9875887533333 ,37,3661598783109
42.6072745 ,Left ,62,2576066016506 ,46,0356292615457 ,37,3282285051464
42.622163 ,Left ,62,3204673258291 ,46,0446178583679 ,37,2287364952005
42.6522765 ,Left ,62,3940033294465 ,45,9601220170076 ,37,1891312170031
42.6675997 ,Left ,62,5565254752002 ,45,8779864141635 ,37,2337245546113
42.6904099 ,Left ,62,5930344607431 ,45,8576527072402 ,37,3012778466156
42.713292 ,Left ,62,4993840025148 ,45,8500403590383 ,37,310067171531
42.7279501 ,Left ,62,4655077595639 ,45,848638785897 ,37,2902441018485
42.7503149 ,Left ,62,5183962296391 ,45,8683353583779 ,37,2857703905285
42.7803386 ,Left ,62,408331742258 ,45,9777080473138 ,37,3727179813755
42.8025264 ,Left ,62,3039969348758 ,45,9914622297976 ,37,4161456786515
42.8250544 ,Left ,62,3030798728227 ,46,0097353448675 ,37,4291103813385
42.8401528 ,Left ,62,41890471666 ,45,9678594415586 ,37,4056343590497
42.8626134 ,Left ,62,4951441275354 ,45,8560534951288 ,37,3905080680664
42.8848174 ,Left ,62,5780836309399 ,45,7887437489496 ,37,4201866319302
