timestamp,event,roll,pitch,yaw
0.0199648 ,Left ,63,2809199851901 ,48,1627824814952 ,1,6859371372078
0.0343606 ,Left ,63,2809199851901 ,48,1627824814952 ,1,6859371372078
0.0573821 ,Left ,63,2832981634996 ,48,1644223142953 ,1,6864994761989
0.0799208 ,Left ,63,3008149945292 ,48,1640946357969 ,1,67927645099999
0.0943578 ,Left ,63,3111159303966 ,48,151921033329 ,1,67151883186522
0.1174179 ,Left ,63,3219242730008 ,48,1424503599101 ,1,66687410057936
0.1400286 ,Left ,63,3327406174237 ,48,136539733844 ,1,66381159561799
0.1542568 ,Left ,63,3387642775438 ,48,1283316480738 ,1,66217868927359
0.1777999 ,Left ,63,3429905695935 ,48,120999660449 ,1,65877076936655
0.2004051 ,Left ,63,3453689391873 ,48,1208598302086 ,1,65854089274448
0.2148563 ,Left ,63,3471775139879 ,48,1128686059271 ,1,6571300655339
0.2379263 ,Left ,63,3489885715859 ,48,1048776201659 ,1,65571762527774
0.2605303 ,Left ,63,3508931757336 ,48,0967078415107 ,1,64996801665039
0.2744926 ,Left ,63,3467258517441 ,48,092384786196 ,1,64604340827464
0.3035445 ,Left ,63,344939686953 ,48,087920649614 ,1,64188928861982
0.3199501 ,Left ,63,3407766969513 ,48,0835950370389 ,1,63796684862868
0.3342698 ,Left ,63,3341925526845 ,48,0786084916525 ,1,63604639248649
0.3575762 ,Left ,63,3317172668409 ,48,065672474425 ,1,63681927379797
0.3799522 ,Left ,63,3292909249038 ,48,0535349212025 ,1,63582283316797
0.4015578 ,Left ,63,3310630048362 ,48,0368253159489 ,1,63476836637583
0.4179124 ,Left ,63,3328741197944 ,48,0147739028611 ,1,63132474920692
0.4402638 ,Left ,63,3365113610389 ,47,9900708225429 ,1,62884033433725
0.4609929 ,Left ,63,3468544991531 ,47,962253918331 ,1,62249448900346
0.4776432 ,Left ,63,3614792092844 ,47,9324476529603 ,1,61507280525871
0.5001709 ,Left ,63,380380469785 ,47,9024354094615 ,1,60735734403788
0.5211956 ,Left ,63,4060056047604 ,47,8728816864572 ,1,59732238529905
0.5374667 ,Left ,63,4274302597735 ,47,8496872137162 ,1,58813904511689
0.5601356 ,Left ,63,4488415784249 ,47,8344251480448 ,1,58036275148382
0.5811768 ,Left ,63,4768269510357 ,47,8285267569856 ,1,57430017825151
0.5974647 ,Left ,63,4945906789721 ,47,8290894276673 ,1,56511036532641
0.6201268 ,Left ,63,507519849434 ,47,8335005707207 ,1,55801526614164
0.6409958 ,Left ,63,5143716031853 ,47,8407661740935 ,1,55026736374463
0.6576526 ,Left ,63,5236150124663 ,47,8478935822329 ,1,54228424833981
0.6798022 ,Left ,63,5281032044925 ,47,8535280871686 ,1,53397245955435
0.7011667 ,Left ,63,5374670781182 ,47,8535538154268 ,1,522763431262
0.7173997 ,Left ,63,5486389747319 ,47,8527150713044 ,1,51328813526901
0.7401628 ,Left ,63,5462456675316 ,47,8528542441285 ,1,51352394673191
0.7612119 ,Left ,63,5334096322718 ,47,8544093067131 ,1,51691915165866
0.7776201 ,Left ,63,5272819170676 ,47,8677620140158 ,1,51676489185384
0.8001017 ,Left ,63,4976351320029 ,47,892585619886 ,1,51432106181088
0.8225365 ,Left ,63,464448984858 ,47,9260789822744 ,1,50721720331582
0.837454 ,Left ,63,4178000961645 ,47,9666902884273 ,1,51032394776517
0.8601213 ,Left ,63,3802160181904 ,48,010387996532 ,1,51419779312651
0.8824787 ,Left ,63,3445643181799 ,48,0496615795056 ,1,51811677969277
0.8975455 ,Left ,63,2999273588799 ,48,0816625297907 ,1,52555326673936
0.919997 ,Left ,63,2387634105653 ,48,1105068521869 ,1,52355338554813
0.9426017 ,Left ,63,1900268473879 ,48,1314231117136 ,1,5323927247472
0.9569799 ,Left ,63,1095598661503 ,48,1282989312666 ,1,57241809055516
0.9799794 ,Left ,63,0272715206182 ,48,0858331696042 ,1,64012030708045
1.0023099 ,Left ,62,9474103600284 ,48,0221957413322 ,1,73287447776826
1.0165504 ,Left ,62,8931533059282 ,48,0112550553639 ,1,81731436156933
1.0400361 ,Left ,62,8472581458349 ,48,0467778836707 ,1,87669001731922
1.0623488 ,Left ,62,848813537013 ,48,0862527704334 ,1,92741331127414
1.0766346 ,Left ,62,859421628445 ,48,1215575470289 ,1,97587117833783
1.0998718 ,Left ,62,8674498590816 ,48,1593538939071 ,2,01953564086531
1.122541 ,Left ,62,8900021534756 ,48,1967395341474 ,2,04090180521095
1.1435689 ,Left ,62,9183917700698 ,48,2141266491932 ,2,03898475906059
1.1603029 ,Left ,62,9588014203013 ,48,201134579378 ,2,02161670315278
1.1822064 ,Left ,62,9993453016731 ,48,1791323062553 ,1,98129374290881
1.1966791 ,Left ,63,0204832095599 ,48,1310430557157 ,1,93643181850136
1.2202975 ,Left ,62,9983528476023 ,48,0512212048831 ,1,93906594331749
1.2425131 ,Left ,63,0044463536742 ,47,9941131959629 ,1,95680124391275
1.2566643 ,Left ,62,9888907207632 ,47,9780022124322 ,1,9485065146809
1.28002 ,Left ,62,9542206104726 ,48,0119267081615 ,1,94088239086165
1.3026145 ,Left ,62,9413786046493 ,48,0756925881313 ,1,94312925320373
1.3239139 ,Left ,62,9134643820575 ,48,1293213874374 ,1,95198104966971
1.3401796 ,Left ,62,8879420340256 ,48,1390625717369 ,1,9591502752466
1.3627498 ,Left ,62,8719172139536 ,48,1011578278821 ,1,95205640731456
1.3839529 ,Left ,62,9022774190097 ,48,059108889116 ,1,95016151457376
1.4000959 ,Left ,62,9015235138207 ,48,0776312752202 ,1,936710037795
1.4226994 ,Left ,62,911111304293 ,48,0792910218287 ,1,89685320239263
1.4437217 ,Left ,62,9045939014177 ,48,0312017509799 ,1,85743539793571
1.4601378 ,Left ,62,8609600901102 ,47,9402198647219 ,1,87552614203882
1.4828252 ,Left ,62,8611814905377 ,47,8844919905269 ,1,92633312014679
1.5038713 ,Left ,62,8387882752703 ,47,9129784697804 ,1,9286257079646
1.5201586 ,Left ,62,8210655731735 ,47,9704427928716 ,1,89195971840943
1.5422545 ,Left ,62,8257197864788 ,48,0183626826415 ,1,86326824778729
1.5639556 ,Left ,62,8185450988647 ,48,03596368847 ,1,84338081585849
1.5798247 ,Left ,62,8011169763 ,48,0203256533216 ,1,8437645826317
1.6025322 ,Left ,62,7913774276167 ,48,0459857401666 ,1,8401408503165
1.6236576 ,Left ,62,7717464816405 ,48,0796204602201 ,1,82953589964822
1.6400307 ,Left ,62,7754225019548 ,48,1170459071549 ,1,81554608297105
1.6624983 ,Left ,62,769845057439 ,48,1260625873097 ,1,80046831200114
1.6836853 ,Left ,62,776469872593 ,48,1180028909414 ,1,78831814330782
1.7001489 ,Left ,62,7748102350112 ,48,1175713295962 ,1,77964565360594
1.7225262 ,Left ,62,7718024977772 ,48,1008802753945 ,1,77504985924049
1.7435997 ,Left ,62,7505138975435 ,48,0349798177611 ,1,79453382811224
1.7598696 ,Left ,62,7245721510903 ,47,9819456386747 ,1,81991485534573
1.7829116 ,Left ,62,7008534082096 ,47,9761440202382 ,1,81853096463773
1.8054031 ,Left ,62,6838203301455 ,48,0151977976487 ,1,79947064688227
1.8204112 ,Left ,62,6614649624651 ,48,071613606664 ,1,76039561316132
1.8429853 ,Left ,62,6536527341362 ,48,1161704771393 ,1,72627631794779
1.865509 ,Left ,62,6696690132397 ,48,1367388881138 ,1,70471545423334
1.8803713 ,Left ,62,6995296224283 ,48,119998276878 ,1,68393596988033
1.9026926 ,Left ,62,7352391355005 ,48,0873886600798 ,1,66471617331815
1.9250246 ,Left ,62,7732341119562 ,48,0649253639225 ,1,65587832630019
1.9393778 ,Left ,62,8096639854524 ,48,067906612708 ,1,64725133362301
1.9700518 ,Left ,62,8554904784378 ,48,0763471819265 ,1,61935300412012
1.9854341 ,Left ,62,8882441926782 ,48,0714511471584 ,1,5905429844714
1.9996362 ,Left ,62,9107565742549 ,48,0982801632045 ,1,5735142388109
2.0223324 ,Left ,62,9141603634077 ,48,1552667182006 ,1,53385013813286
2.0450772 ,Left ,62,9014171976932 ,48,2046113018349 ,1,50028492806981
2.0592708 ,Left ,62,8820304854391 ,48,2429588924777 ,1,46858951093921
2.0823922 ,Left ,62,8696705693974 ,48,2519762320397 ,1,4643799283038
2.1049717 ,Left ,62,858053714627 ,48,2154047883927 ,1,47253116017169
2.1195597 ,Left ,62,8490142606599 ,48,1367600213734 ,1,49461362846545
2.1427381 ,Left ,62,8563878702735 ,48,0483473409648 ,1,52676701088576
2.1653812 ,Left ,62,8900784524471 ,48,0446495993068 ,1,53439071229154
2.1794416 ,Left ,62,9118934766559 ,48,0393023880677 ,1,51845861715898
2.202635 ,Left ,62,9534357746595 ,47,9685722933481 ,1,50346307811968
2.22504 ,Left ,63,038516563029 ,47,8148955497191 ,1,49083184772471
2.2460841 ,Left ,63,1169848565043 ,47,6704102106693 ,1,53508341110128
2.2623719 ,Left ,63,151260308918 ,47,7076080915092 ,1,54100277791048
2.2848696 ,Left ,63,1562242266916 ,47,7651160595198 ,1,50607250487522
2.305882 ,Left ,63,226062603646 ,47,7634046982877 ,1,51679927321804
2.3222599 ,Left ,63,2697370534241 ,47,751096859799 ,1,5797143012535
2.3447038 ,Left ,63,2649966851307 ,47,7251275585066 ,1,61983870987137
2.3659127 ,Left ,63,275750368186 ,47,7392409388801 ,1,67668997275209
2.3822658 ,Left ,63,2133367894495 ,47,8965742715992 ,1,66960310970403
2.4047382 ,Left ,63,1439703263081 ,48,057884705913 ,1,62995179195017
2.4259039 ,Left ,63,0988914379273 ,48,1209071169672 ,1,62497305269362
2.4423783 ,Left ,63,0934565288676 ,48,0979029987899 ,1,64915578400644
2.464784 ,Left ,63,0703522188611 ,48,0345958982271 ,1,65244471931515
2.485926 ,Left ,63,0688489936984 ,47,9427554068764 ,1,62986533558398
2.5022947 ,Left ,63,1252884360476 ,47,8462064329904 ,1,60258951812929
2.5250319 ,Left ,63,1942553529356 ,47,7749826461462 ,1,56814190828085
2.5459399 ,Left ,63,2362901501085 ,47,7508532404228 ,1,51935192195175
2.5623863 ,Left ,63,3076137664138 ,47,7476673352313 ,1,4567216442881
2.5851037 ,Left ,63,3704161267749 ,47,741869135428 ,1,40172895495893
2.6060955 ,Left ,63,406886247846 ,47,7404861087801 ,1,3606972586705
2.6223636 ,Left ,63,4260320561295 ,47,7541136717347 ,1,32724206226541
2.6461812 ,Left ,63,4340631602575 ,47,76718103551 ,1,28782666579185
2.6659791 ,Left ,63,4277285014138 ,47,7658814331604 ,1,24903207741965
2.6825154 ,Left ,63,4165125952776 ,47,7502585625785 ,1,2191023409433
2.7048022 ,Left ,63,4108093553529 ,47,7341459585203 ,1,2036691235874
2.7275513 ,Left ,63,3959477985635 ,47,7250058402434 ,1,20253097039872
2.7423625 ,Left ,63,3997052337235 ,47,7128174007309 ,1,20548654325753
2.7650695 ,Left ,63,3926492453887 ,47,686335261035 ,1,21333494261082
2.7873523 ,Left ,63,4024898620315 ,47,6480761583549 ,1,22567285256178
2.8086246 ,Left ,63,4314497459915 ,47,6161807822706 ,1,23974272747089
2.824943 ,Left ,63,4517368638789 ,47,5925094075738 ,1,25582440712807
2.8473937 ,Left ,63,4762196595674 ,47,5678400928612 ,1,27333891860057
2.8618762 ,Left ,63,4948807920635 ,47,53360458855 ,1,28894883061768
2.8851811 ,Left ,63,5147402262007 ,47,5003874326806 ,1,30717517343965
2.9078084 ,Left ,63,5225806237136 ,47,4829598386593 ,1,31603159666325
2.9221781 ,Left ,63,5183913064623 ,47,4839407527501 ,1,31458170689036
2.945294 ,Left ,63,5062222130774 ,47,5007202310137 ,1,30782431367044
2.967734 ,Left ,63,4941311208048 ,47,5208986987554 ,1,29830840145893
2.9821542 ,Left ,63,4888375740648 ,47,5449845323969 ,1,28369903077072
3.0052382 ,Left ,63,4748454255385 ,47,5657595356407 ,1,26388691815591
3.0274734 ,Left ,63,4606484169374 ,47,5763077844936 ,1,25230404104375
3.041909 ,Left ,63,437341419299 ,47,598028372696 ,1,25053006661956
3.0650397 ,Left ,63,4078414053037 ,47,6364442748466 ,1,24583584813184
3.0875542 ,Left ,63,3782057089295 ,47,6776050105408 ,1,24444729132001
3.1017828 ,Left ,63,3270253934034 ,47,7031339054271 ,1,24789987068419
3.1250821 ,Left ,63,2795307965762 ,47,7148815498316 ,1,25783282481306
3.1476889 ,Left ,63,2361493818604 ,47,729267457153 ,1,27080289635436
3.1619404 ,Left ,63,2036601626031 ,47,7458093376821 ,1,28194266111884
3.1850867 ,Left ,63,2139122660386 ,47,755489343581 ,1,29203570002488
3.2075615 ,Left ,63,2140927754253 ,47,740595352459 ,1,29184060433164
3.2287222 ,Left ,63,2328063288327 ,47,7200491813667 ,1,29676272243976
3.2453333 ,Left ,63,2537143736802 ,47,7116778367661 ,1,30263384122478
3.2675319 ,Left ,63,2686646721349 ,47,7146283857288 ,1,30312519618934
3.2887145 ,Left ,63,2855859140708 ,47,7165555573514 ,1,30097880856765
3.3052533 ,Left ,63,3071187906953 ,47,700651815628 ,1,29492859682129
3.327526 ,Left ,63,3354670087033 ,47,676517814781 ,1,28691503673788
3.348708 ,Left ,63,3481676658768 ,47,6548901592913 ,1,28094335375313
3.3651197 ,Left ,63,3481792806559 ,47,6337485428141 ,1,27586020804796
3.3874959 ,Left ,63,3592084155388 ,47,6111716276528 ,1,26734928958342
3.4085069 ,Left ,63,3705409169682 ,47,5840449560228 ,1,2546338583045
3.4252425 ,Left ,63,3709741854837 ,47,5565615564985 ,1,24453695001031
3.4475554 ,Left ,63,3714466380145 ,47,5264837967772 ,1,23541330031123
3.4686992 ,Left ,63,3740412332556 ,47,51118877011 ,1,22632314844133
3.4851075 ,Left ,63,3660037366215 ,47,5033670910915 ,1,22117560025321
3.5075313 ,Left ,63,3597485989511 ,47,4973076751648 ,1,21674278114958
3.528737 ,Left ,63,3476274301045 ,47,4912370872846 ,1,20836209246166
3.5451405 ,Left ,63,3458602613898 ,47,4796583536733 ,1,20120506555792
3.5674928 ,Left ,63,350138506419 ,47,459333686455 ,1,19835182309015
3.58871 ,Left ,63,3525721161273 ,47,4416174262952 ,1,1946069365323
3.6050407 ,Left ,63,3611117911802 ,47,4263273736105 ,1,18944326776481
3.6275328 ,Left ,63,3789316730208 ,47,4130454015279 ,1,17810979462288
3.6498349 ,Left ,63,4018185369931 ,47,3967426415092 ,1,16289577342821
3.6648839 ,Left ,63,4149837101866 ,47,3845516262078 ,1,15021099902883
3.6874006 ,Left ,63,4180004233923 ,47,3745047439232 ,1,14335780152837
3.7100809 ,Left ,63,4093094172849 ,47,3703530243399 ,1,13997054974804
3.7251934 ,Left ,63,4093213663141 ,47,3677578674704 ,1,14094840583522
3.7475015 ,Left ,63,4094130349675 ,47,3659701772187 ,1,14014278161886
3.7700553 ,Left ,63,4090406358367 ,47,3487300451793 ,1,14533021929303
3.7851496 ,Left ,63,4017775440109 ,47,3293410787212 ,1,1564577334763
3.8076373 ,Left ,63,3927472129254 ,47,3081771271244 ,1,16690207377174
3.8299099 ,Left ,63,3900038047665 ,47,2858758760727 ,1,17430166938954
3.8441872 ,Left ,63,3876329496526 ,47,259012277349 ,1,1775046973178
3.8677855 ,Left ,63,3876572295387 ,47,2346064605002 ,1,17948517401721
3.890121 ,Left ,63,3813248804049 ,47,2243238782008 ,1,17963804044757
3.9124364 ,Left ,63,3682309758749 ,47,2187109710204 ,1,1802297830807
3.9275597 ,Left ,63,3495420248222 ,47,2183184217006 ,1,17921325117076
3.9497164 ,Left ,63,3254617541274 ,47,2149227987018 ,1,18159001149534
3.9643935 ,Left ,63,3041413162284 ,47,2122522334918 ,1,18618288800643
3.9875224 ,Left ,63,2777889549502 ,47,2072033876976 ,1,18801573454014
4.010126 ,Left ,63,2559733119907 ,47,19947825435 ,1,19472780739006
4.0242556 ,Left ,63,2514697036327 ,47,1972237203791 ,1,20045983576604
4.0475942 ,Left ,63,2491003532547 ,47,1921735458778 ,1,202690772335
4.070151 ,Left ,63,249046158641 ,47,1835905204511 ,1,20745276303679
4.0845308 ,Left ,63,2592254270098 ,47,1790884226343 ,1,21117040603782
4.1075226 ,Left ,63,2615414511075 ,47,1755533697146 ,1,21369820594704
4.1298499 ,Left ,63,2615414511075 ,47,1755533697146 ,1,21369820594704
4.1516514 ,Left ,63,2615414511075 ,47,1755533697146 ,1,21369820594704
4.1679213 ,Left ,63,2506486078509 ,47,178585230704 ,1,21369436744583
4.1905155 ,Left ,63,2396823214832 ,47,1782222609466 ,1,21646933185271
4.211033 ,Left ,63,2224408583405 ,47,1790156605587 ,1,22231324461382
4.2275124 ,Left ,63,2068567364559 ,47,1859863343435 ,1,22863729329685
4.2501989 ,Left ,63,1936799321667 ,47,1902288712996 ,1,23569770404953
4.2712428 ,Left ,63,1882735125537 ,47,1927060504929 ,1,2457465173558
4.2875047 ,Left ,63,1858114401277 ,47,1897322467736 ,1,25739203203626
4.3101022 ,Left ,63,178482262988 ,47,1888390865624 ,1,2703371355732
4.3314068 ,Left ,63,1778619940051 ,47,191039267937 ,1,27987825150645
4.3475173 ,Left ,63,1832363434799 ,47,1974521994308 ,1,28874778187592
4.3702726 ,Left ,63,1934794787224 ,47,2043715744608 ,1,29532085734
4.3911921 ,Left ,63,2017104795719 ,47,2097075543324 ,1,30557912026513
4.4076507 ,Left ,63,2071908703613 ,47,2169030625026 ,1,31266891387482
4.4300686 ,Left ,63,2108297898309 ,47,2215215019831 ,1,32085731922777
4.4514478 ,Left ,63,208019051058 ,47,2202664609986 ,1,32906237578107
4.4675413 ,Left ,63,2036143569123 ,47,2162429392682 ,1,33399021439073
4.4903356 ,Left ,63,2014034943424 ,47,2050228729257 ,1,33563622711314
4.5114026 ,Left ,63,1995387221226 ,47,1918089452063 ,1,33211617933665
4.5275708 ,Left ,63,1953775926079 ,47,1795365586074 ,1,32706737601956
4.5501182 ,Left ,63,1873418052835 ,47,1734811107822 ,1,32282748534662
4.5712597 ,Left ,63,1787731614974 ,47,1781950351433 ,1,32335640606118
4.5875382 ,Left ,63,1846926385295 ,47,1922475016962 ,1,32908945059021
4.6101633 ,Left ,63,2054699356708 ,47,2084459659809 ,1,33686673822529
4.6325571 ,Left ,63,2280422748022 ,47,2160302827049 ,1,34932180419036
4.6476238 ,Left ,63,2573555835522 ,47,2240775268821 ,1,35938088867554
4.6701615 ,Left ,63,2763111949536 ,47,2244317620467 ,1,36464309027187
4.6926228 ,Left ,63,2873611831155 ,47,2255502065148 ,1,36009470333052
4.7078196 ,Left ,63,2927302963914 ,47,2230942822277 ,1,3500344422307
4.7300378 ,Left ,63,2870947498283 ,47,2226620172293 ,1,33316650995858
4.7525909 ,Left ,63,2838605494546 ,47,2220791184485 ,1,31603736709433
4.7669494 ,Left ,63,2870129391523 ,47,2239687997667 ,1,30167693533646
4.7898924 ,Left ,63,2881415415021 ,47,2268673019155 ,1,29000918877332
4.812314 ,Left ,63,2865990440148 ,47,2404717920936 ,1,27902291921239
4.8267558 ,Left ,63,2897556321621 ,47,2529903370807 ,1,26931984796708
4.850054 ,Left ,63,2942251019312 ,47,2656162042568 ,1,25966017878215
4.8728044 ,Left ,63,304179073265 ,47,2794482486628 ,1,24579218619045
4.8871164 ,Left ,63,3174859015836 ,47,2872029316323 ,1,23124731087415
4.9102287 ,Left ,63,3382637055712 ,47,2839979437797 ,1,21552978417643
4.9328019 ,Left ,63,3580886539229 ,47,282095064997 ,1,20690712296468
4.9468836 ,Left ,63,3740119346525 ,47,2809792382924 ,1,19247746668843
4.9760807 ,Left ,63,3749537627562 ,47,282062214905 ,1,17578499102086
4.9924957 ,Left ,63,3882859527062 ,47,2926937240007 ,1,16888610447861
5.0068651 ,Left ,63,3761931647803 ,47,326801565582 ,1,16131733505904
5.0300304 ,Left ,63,3486944681262 ,47,3720128442383 ,1,15543105583965
5.0527132 ,Left ,63,3144469174532 ,47,4236401253349 ,1,15064466987377
5.0670071 ,Left ,63,274393844821 ,47,4640429611507 ,1,14753751203846
5.0901404 ,Left ,63,218166816946 ,47,4829142089285 ,1,15728878714694
5.1126472 ,Left ,63,1755713631114 ,47,4910410156091 ,1,18914248160754
5.133734 ,Left ,63,0965337195822 ,47,4919313196101 ,1,22432917706829
5.1502289 ,Left ,63,0363713164867 ,47,4698788602718 ,1,26540449052668
5.1726981 ,Left ,62,9908922938288 ,47,4537397950479 ,1,31026644697928
5.1939915 ,Left ,62,9569068149062 ,47,4559616310965 ,1,34524426830795
5.2100805 ,Left ,62,9457124825833 ,47,4737436499922 ,1,3598989084896
5.2327391 ,Left ,62,9545495199216 ,47,4820501219809 ,1,35863064885028
5.2539348 ,Left ,62,974050507675 ,47,4869533199611 ,1,3489524265184
5.2701187 ,Left ,62,9926617866422 ,47,4917641855987 ,1,32012044883487
5.2924558 ,Left ,63,0020452198105 ,47,4872837614406 ,1,27500841904212
5.3137147 ,Left ,63,0187341654875 ,47,4587309888008 ,1,24040933253478
5.3298506 ,Left ,63,0343544820334 ,47,4489427021336 ,1,23091936466889
5.3523493 ,Left ,63,0526541942913 ,47,4112735737292 ,1,24117245533072
5.373608 ,Left ,63,0793939636073 ,47,4162651306033 ,1,25440808230817
5.3904018 ,Left ,63,0859990485068 ,47,4413426922988 ,1,25418658090779
5.4124597 ,Left ,63,0838972323303 ,47,4816501370091 ,1,25475857031906
5.4335803 ,Left ,63,0369201449927 ,47,5343932231954 ,1,2634011306528
5.4500703 ,Left ,62,9963340576566 ,47,5789951541492 ,1,27015578438695
5.4739176 ,Left ,62,956495280592 ,47,6082185984028 ,1,26799092263506
5.4935941 ,Left ,62,9110165791755 ,47,6034392236144 ,1,24733156079419
5.5100556 ,Left ,62,8701812818255 ,47,5697912745691 ,1,2439689061314
5.5327186 ,Left ,62,8985844429488 ,47,5245265088305 ,1,26542563761076
5.5550306 ,Left ,62,9318279469368 ,47,5047126446423 ,1,27618380066928
5.5700873 ,Left ,62,9605802717544 ,47,4955246334302 ,1,25349305524657
5.5927188 ,Left ,62,9665974181925 ,47,4930803583899 ,1,22864093909742
5.615365 ,Left ,62,9951264455995 ,47,4984373227476 ,1,21638848923552
5.6294195 ,Left ,62,9806706744535 ,47,5019105883282 ,1,20604299212747
5.6528221 ,Left ,62,9680134375342 ,47,5243468258174 ,1,21005084761397
5.6752429 ,Left ,62,9410667586805 ,47,5737923837076 ,1,2031173285288
5.6894702 ,Left ,62,9161995765196 ,47,6038819096054 ,1,22601156970297
5.7126814 ,Left ,62,8747503514828 ,47,6094050729889 ,1,28388783946061
5.7351 ,Left ,62,8437075725929 ,47,5938698645802 ,1,34487897669233
5.7492882 ,Left ,62,8485278409488 ,47,5608344672227 ,1,39648086432411
5.7728487 ,Left ,62,8324067661101 ,47,5725022078676 ,1,42146722441712
5.7953946 ,Left ,62,7910863336861 ,47,6260769084464 ,1,41251626357801
5.8094945 ,Left ,62,7615784358739 ,47,6982825500258 ,1,38731913944509
5.832823 ,Left ,62,745646061445 ,47,762457031287 ,1,3833925088596
5.8551668 ,Left ,62,7438530269657 ,47,7952757183545 ,1,39088194025218
5.8694885 ,Left ,62,7601750173144 ,47,7969085379555 ,1,39927149968553
5.8926916 ,Left ,62,7879084244801 ,47,7813634768077 ,1,39129987270837
5.9150492 ,Left ,62,8351746317606 ,47,758349144379 ,1,3727553382767
5.9292787 ,Left ,62,8831992531603 ,47,7437705594235 ,1,34911727313699
5.9525291 ,Left ,62,9442469459922 ,47,7669477500882 ,1,31973238765179
5.975165 ,Left ,62,9598447291809 ,47,8314846674264 ,1,28069048373027
5.9893874 ,Left ,62,9732452136789 ,47,8820540440465 ,1,2400659966897
6.0126023 ,Left ,62,9837769283478 ,47,9241209800877 ,1,20031578156876
6.0409442 ,Left ,62,9625910420041 ,47,9578181064028 ,1,16482275628762
6.0561232 ,Left ,62,9192228825044 ,48,0019269591235 ,1,14759699389527
6.0724403 ,Left ,62,8816968260526 ,48,0237312030042 ,1,14167808351881
6.0777815 ,Left ,62,8686842549773 ,48,0343912123661 ,1,15316815006353
6.1003882 ,Left ,62,8369496798561 ,48,0289202551214 ,1,14599093522523
6.1185503 ,Left ,62,8088308940472 ,47,9846567616018 ,1,14973124620541
6.1379646 ,Left ,62,794601839186 ,47,9603856862981 ,1,17406592524595
6.1605976 ,Left ,62,784020786674 ,47,9743025368422 ,1,18253531931738
6.1831491 ,Left ,62,8371079261798 ,47,937828486046 ,1,17087515230728
6.1979003 ,Left ,62,9150941396094 ,47,8385993585941 ,1,15861567945125
6.2202637 ,Left ,63,0330168125694 ,47,6901469451594 ,1,16486029950025
6.242751 ,Left ,63,1269364001023 ,47,5730023718617 ,1,18948037791658
6.257699 ,Left ,63,1804930730577 ,47,5787625418492 ,1,18240256993029
6.2804421 ,Left ,63,2119520328663 ,47,6090269328909 ,1,16175576786613
6.3030367 ,Left ,63,2799227866091 ,47,5989634445155 ,1,20240846425444
6.3214256 ,Left ,63,3504363974591 ,47,5889204604116 ,1,27079537516385
6.3408248 ,Left ,63,4086767495969 ,47,5897357812058 ,1,30198928508081
6.3628239 ,Left ,63,4114382986943 ,47,5835642787109 ,1,32478775289296
6.3777771 ,Left ,63,4199629103931 ,47,6159398580452 ,1,33653639566465
6.4002346 ,Left ,63,3929016390893 ,47,6963100001674 ,1,33320883857202
6.4228277 ,Left ,63,3497744119161 ,47,7644688830063 ,1,31655937480813
6.4378532 ,Left ,63,3133586063353 ,47,7903628712689 ,1,31714829560819
6.4609972 ,Left ,63,2982189353366 ,47,7654864717904 ,1,3133666145995
6.4835122 ,Left ,63,2863981083264 ,47,7248209863651 ,1,29172743161672
6.4981793 ,Left ,63,3091404051626 ,47,6675750920238 ,1,25878727943267
6.5205923 ,Left ,63,3341083769797 ,47,5989919907018 ,1,22700295099767
6.543349 ,Left ,63,3795743096821 ,47,5515351306746 ,1,21605893553056
6.5580846 ,Left ,63,3606231073245 ,47,5472896736125 ,1,20041751839576
6.5802584 ,Left ,63,3792234434484 ,47,5684500585598 ,1,17874561903981
6.602779 ,Left ,63,3937201101448 ,47,5887946291076 ,1,15483068290086
6.6178818 ,Left ,63,3963803745423 ,47,5996593455464 ,1,14455119359069
6.6407214 ,Left ,63,405169785867 ,47,6098018008149 ,1,14425240255183
6.6632755 ,Left ,63,4071761632236 ,47,626370690224 ,1,145117714907
6.6780557 ,Left ,63,4117031092961 ,47,626859445368 ,1,13866578111317
6.7006077 ,Left ,63,4209271632696 ,47,6165026532986 ,1,12707978514197
6.7233008 ,Left ,63,4304917463467 ,47,5938314812715 ,1,11421727112782
6.738256 ,Left ,63,4480738079425 ,47,5658117270528 ,1,10277883715883
6.7607764 ,Left ,63,4698359521834 ,47,5308581816454 ,1,09648512566483
6.7831589 ,Left ,63,4918491160675 ,47,5029286538036 ,1,09325296963893
6.7983007 ,Left ,63,5177155831446 ,47,4731890759555 ,1,08895776589938
6.8207156 ,Left ,63,5460816652473 ,47,4493335699868 ,1,08066716693153
6.8430878 ,Left ,63,5663598026528 ,47,4160228886056 ,1,0707169773626
6.858171 ,Left ,63,5880221889876 ,47,388207169951 ,1,06742303369031
6.8805005 ,Left ,63,5940096790195 ,47,3698341669176 ,1,06944449017184
6.9033754 ,Left ,63,5834145911197 ,47,3430783979184 ,1,06878136897717
6.9209377 ,Left ,63,5745927129359 ,47,3208760482532 ,1,07650432876014
6.9408504 ,Left ,63,5592293051635 ,47,3059552307325 ,1,08797645095368
6.9632754 ,Left ,63,5428621725322 ,47,294891874822 ,1,10558130965645
6.9782261 ,Left ,63,5246297897819 ,47,2838510237784 ,1,12331938827529
7.0005508 ,Left ,63,5063233206777 ,47,2692193382631 ,1,13519205240866
7.0233707 ,Left ,63,5001100752701 ,47,2685558638743 ,1,13745321965931
7.0381373 ,Left ,63,4919925890976 ,47,2729042838557 ,1,12925959351544
7.0608056 ,Left ,63,4772129167821 ,47,2775194037955 ,1,12166092600324
7.0834569 ,Left ,63,4670566395183 ,47,2828387013135 ,1,11617297312799
7.0994759 ,Left ,63,4652604583948 ,47,2862556211816 ,1,1135349190113
7.1207505 ,Left ,63,465343179352 ,47,287066845843 ,1,11175159911094
7.1515046 ,Left ,63,465343179352 ,47,287066845843 ,1,11175159911094
7.1593875 ,Left ,63,4672051683335 ,47,2870602280497 ,1,11163229778184
7.1805564 ,Left ,63,4689527307451 ,47,2776339635553 ,1,11800115031339
7.2033793 ,Left ,63,4686005313706 ,47,2629761348759 ,1,1221795575849
7.2195643 ,Left ,63,4771971657678 ,47,2522985787218 ,1,12535092135473
7.2408462 ,Left ,63,4904355588603 ,47,2395286935261 ,1,12296418801844
7.2632671 ,Left ,63,5072465660378 ,47,2251185552951 ,1,12388467313968
7.2795148 ,Left ,63,5313309523303 ,47,2163228960795 ,1,12033707668492
7.3007956 ,Left ,63,5488606383128 ,47,2060157086017 ,1,11657307321209
7.3232836 ,Left ,63,5592765079035 ,47,2057318531381 ,1,11570663739735
7.3394971 ,Left ,63,5592765079035 ,47,2057318531381 ,1,11570663739735
7.3607671 ,Left ,63,5488836638013 ,47,214641259333 ,1,11188793750049
7.3831569 ,Left ,63,5342673762296 ,47,2297051504796 ,1,1047102274533
7.3994085 ,Left ,63,5155789950408 ,47,2439236372023 ,1,09528685854468
7.4206528 ,Left ,63,4953536006479 ,47,2639835007355 ,1,07786525705732
7.4433798 ,Left ,63,4631859085952 ,47,292722599883 ,1,05229922801591
7.4609898 ,Left ,63,4067854904297 ,47,3414807241803 ,1,02878274656869
7.4804834 ,Left ,63,347969485389 ,47,397219409492 ,1,00414677541447
7.5028188 ,Left ,63,2761690737444 ,47,4491879857065 ,0,989237153426848
7.5208701 ,Left ,63,205992032935 ,47,4996619236919 ,0,981917787167448
7.5405627 ,Left ,63,1424355958844 ,47,5508354265497 ,0,976412124763489
7.5633773 ,Left ,63,0958343512606 ,47,5716652765762 ,0,965025906273684
7.581142 ,Left ,63,0841417426856 ,47,5415894276903 ,0,986766297590305
7.6007562 ,Left ,63,0703047459811 ,47,4878264899887 ,1,03886270031816
7.6232772 ,Left ,63,0750587814979 ,47,4382484880824 ,1,09799119153448
7.6411985 ,Left ,63,0775565073551 ,47,4113203181946 ,1,15434157119354
7.6607762 ,Left ,63,1022840603367 ,47,4074438156321 ,1,1979346467516
7.6830272 ,Left ,63,1282346086234 ,47,4148731921584 ,1,22506493325001
7.7009663 ,Left ,63,1760618874264 ,47,4229520211897 ,1,24682579353242
7.7205868 ,Left ,63,2201980662859 ,47,4307131268096 ,1,26019802321113
7.7432192 ,Left ,63,2378949840044 ,47,4375442687852 ,1,25139203524961
7.7609885 ,Left ,63,2652320292369 ,47,435347605449 ,1,22306596606479
7.7820646 ,Left ,63,2867904383241 ,47,4233446748924 ,1,18435468908594
7.8030384 ,Left ,63,3025949951231 ,47,4061689184191 ,1,14365737488805
7.8209272 ,Left ,63,2801904812645 ,47,3598798765589 ,1,12686372326002
7.8407656 ,Left ,63,2745290391441 ,47,3487471198572 ,1,14797746841634
7.8632224 ,Left ,63,261945159876 ,47,3616718891443 ,1,17375694375733
7.8810098 ,Left ,63,2544840086772 ,47,4062988243515 ,1,18961758367585
7.9006892 ,Left ,63,2494644232476 ,47,4916764161175 ,1,19975557705848
7.9233617 ,Left ,63,235380785869 ,47,572972738802 ,1,19151016719881
7.9409488 ,Left ,63,202039062082 ,47,6094326568946 ,1,18174171078289
7.9605381 ,Left ,63,1934517931528 ,47,6133051256283 ,1,1839369220374
7.9832116 ,Left ,63,1466294834502 ,47,6088581905816 ,1,18685223674529
8.001145 ,Left ,63,1085143463982 ,47,624548150848 ,1,176798420139
8.0220201 ,Left ,63,1047845101978 ,47,6314123382808 ,1,13736362903116
8.0432965 ,Left ,63,0996514979883 ,47,5962873848806 ,1,11177760764407
8.0609005 ,Left ,63,0966445537876 ,47,536036482478 ,1,12837252378265
8.0819833 ,Left ,63,1207501249708 ,47,5144014684513 ,1,1835359329697
8.1030174 ,Left ,63,1238281845944 ,47,5652289814429 ,1,20757872188835
8.1209351 ,Left ,63,1071228328629 ,47,6345795832703 ,1,20253596386297
8.1419773 ,Left ,63,0969092225222 ,47,7038412320022 ,1,20126224098915
8.1631912 ,Left ,63,1142941830481 ,47,7679115462846 ,1,20260035407806
8.1807506 ,Left ,63,0638721061219 ,47,8132787876473 ,1,20362393097714
8.2032122 ,Left ,63,0159958253921 ,47,8449189750187 ,1,22618843847281
8.2227169 ,Left ,62,9799098701297 ,47,8807663794562 ,1,23702841398773
8.2408911 ,Left ,62,9502488107222 ,47,9133972115553 ,1,2397791696572
8.2616862 ,Left ,62,9451759018349 ,47,9020403137998 ,1,25216899346846
8.2830458 ,Left ,62,9638972278963 ,47,8511881084018 ,1,29315221415577
8.3006952 ,Left ,62,9498765282171 ,47,7696254736414 ,1,34176662403586
8.3219716 ,Left ,62,9369715103172 ,47,785408503019 ,1,38116596046826
8.3429471 ,Left ,62,9241575921524 ,47,8568413617417 ,1,36976187409391
8.3610977 ,Left ,62,8984500404146 ,47,9148707500398 ,1,34274733539237
8.3835886 ,Left ,62,9142638010131 ,47,9326737924047 ,1,32836371442009
8.4032096 ,Left ,62,9490452054673 ,47,920581139989 ,1,30668158646006
8.420814 ,Left ,62,9619828436831 ,47,9115406709789 ,1,26176281067798
8.4434513 ,Left ,62,9731801532298 ,47,9096564719505 ,1,20096033128229
8.4627434 ,Left ,63,0123652997778 ,47,9095562388657 ,1,14156620097993
8.4808125 ,Left ,63,0391363732037 ,47,9184825177962 ,1,07815213791614
8.5032682 ,Left ,63,041773279647 ,47,9006586051197 ,1,02143103985354
8.523025 ,Left ,63,0839507931569 ,47,8916353003667 ,0,987655993518379
8.5408905 ,Left ,63,1088935948568 ,47,9111351992891 ,0,954415854939821
8.5638161 ,Left ,63,1259489744433 ,47,9359601216152 ,0,919628533891175
8.5831138 ,Left ,63,1278234162706 ,47,9498090655785 ,0,883016277363071
8.60088 ,Left ,63,1435806934208 ,47,9562612721004 ,0,861611447154649
8.6234122 ,Left ,63,1384885191486 ,47,9493580453232 ,0,843952861647202
8.6427743 ,Left ,63,115686037283 ,47,9180649896585 ,0,835775991980717
8.6608997 ,Left ,63,1086869195088 ,47,8775961502834 ,0,841944541457996
8.6836446 ,Left ,63,1102014927885 ,47,8424125918412 ,0,854197924841005
8.7036191 ,Left ,63,111530158884 ,47,8258139062661 ,0,872422253360791
8.7211606 ,Left ,63,0871234218728 ,47,8184670458842 ,0,887633119116053
8.7437574 ,Left ,63,103128589828 ,47,8060322875937 ,0,908972162254636
8.7631628 ,Left ,63,1783943926827 ,47,7711568730133 ,0,929925890672941
8.7808655 ,Left ,63,2382704077959 ,47,7139589897185 ,0,935418935198608
8.803857 ,Left ,63,2994015990229 ,47,6570008424237 ,0,945051419906049
8.8227683 ,Left ,63,3624015437672 ,47,6041313769108 ,0,930542540585047
8.840596 ,Left ,63,4107507199857 ,47,5263886158665 ,0,916335764852438
8.8631357 ,Left ,63,4302327989189 ,47,4762760613784 ,0,920471600589622
8.8828071 ,Left ,63,4501816216888 ,47,4931578009684 ,0,941685440772728
8.9012081 ,Left ,63,4714039096444 ,47,5364963791059 ,0,970444745036922
8.9238925 ,Left ,63,4944898191613 ,47,5643723142272 ,1,00934283500588
8.9434507 ,Left ,63,502574900799 ,47,5257901623464 ,1,06000375913919
8.9610689 ,Left ,63,5341248570659 ,47,4837660405163 ,1,12913747810898
8.9835236 ,Left ,63,5374975562908 ,47,5419609733959 ,1,15083713464077
9.0045296 ,Left ,63,5028516387011 ,47,6581190429157 ,1,12164757073721
9.0211893 ,Left ,63,4816231978293 ,47,7255759741412 ,1,08890602556792
9.043553 ,Left ,63,4904338435357 ,47,7371180687569 ,1,07651552528701
9.0645027 ,Left ,63,4754476160645 ,47,7087552462985 ,1,07533025182442
9.0810595 ,Left ,63,4734321166253 ,47,6484967186966 ,1,07195489361263
9.10356 ,Left ,63,4830144774118 ,47,5707528745894 ,1,05361876745588
9.1245619 ,Left ,63,5594709868671 ,47,5075670842922 ,1,03535027103686
9.1457056 ,Left ,63,5654652258442 ,47,4899678375659 ,1,01199635329689
9.163518 ,Left ,63,5814943464724 ,47,4984397239405 ,0,991214286077129
9.1846584 ,Left ,63,6040817858743 ,47,516447780288 ,0,976463861519956
9.2057327 ,Left ,63,5982486936272 ,47,5476314382727 ,0,965242457799879
9.2231311 ,Left ,63,5857629668871 ,47,5870197797743 ,0,960286934200815
9.244464 ,Left ,63,5873132928859 ,47,6193234199068 ,0,959836288149618
9.2655234 ,Left ,63,5709162416952 ,47,6377050094067 ,0,949863653239853
9.2834479 ,Left ,63,5560807238136 ,47,6336426689203 ,0,946789277483702
9.3041658 ,Left ,63,5450940470369 ,47,6219904992382 ,0,955046605961294
9.3255102 ,Left ,63,5357896833159 ,47,6139015139317 ,0,964826263884135
9.3454898 ,Left ,63,5393044768349 ,47,597670222144 ,0,9765710590707
9.3718811 ,Left ,63,5474360508396 ,47,5741828884768 ,0,984748712632268
9.3855654 ,Left ,63,5681546521059 ,47,5452768630332 ,0,998248108328998
9.4034303 ,Left ,63,5796694920757 ,47,5038767180136 ,1,02166770506014
9.4261253 ,Left ,63,6042749515159 ,47,4567087179367 ,1,04160883329653
9.4455236 ,Left ,63,6296071941858 ,47,4222361570311 ,1,05218989897609
9.4637994 ,Left ,63,6341012297106 ,47,3993453069174 ,1,05007616612002
9.4852355 ,Left ,63,6393810303887 ,47,3900193247849 ,1,03689125078832
9.5058054 ,Left ,63,6315032078106 ,47,3916313290287 ,1,02527554303218
9.5235342 ,Left ,63,6083631189024 ,47,3989419800995 ,1,01299349250132
9.5459963 ,Left ,63,5880994078591 ,47,4051714850063 ,1,00215343888433
9.5657445 ,Left ,63,5720072720266 ,47,4016466171282 ,0,9887745285358
9.583538 ,Left ,63,5548106593189 ,47,3951219492534 ,0,986996799145537
9.6060335 ,Left ,63,5437315053091 ,47,4024703115799 ,0,986784175557595
9.6262579 ,Left ,63,5399953387499 ,47,413679142049 ,0,98137142743193
9.6510335 ,Left ,63,5361156072381 ,47,4318663607422 ,0,974830415272524
9.6651908 ,Left ,63,5079221864722 ,47,4640728663107 ,0,974077371429945
9.6863873 ,Left ,63,4731413834312 ,47,5185026933079 ,0,981521057585742
9.7029143 ,Left ,63,4276166446452 ,47,5870557664763 ,0,983008552423056
9.7251409 ,Left ,63,3552979604988 ,47,6411456656985 ,0,977341181680762
9.7461436 ,Left ,63,2997421716653 ,47,6723324106352 ,0,977420286524618
9.7626951 ,Left ,63,2434439371003 ,47,6892965602472 ,0,990382036138791
9.7851003 ,Left ,63,2052198638488 ,47,6769018282885 ,1,01920101895279
9.806078 ,Left ,63,1485577996481 ,47,6421212394556 ,1,04357555761021
9.8227505 ,Left ,63,1243873137843 ,47,5882559158687 ,1,0876215387306
9.8452715 ,Left ,63,1430321953659 ,47,541792481906 ,1,13228457414394
9.8667765 ,Left ,63,1579542606309 ,47,5237151120711 ,1,1661146965792
9.8828244 ,Left ,63,1985121279761 ,47,5208012319775 ,1,17082532191643
9.905288 ,Left ,63,2563399572888 ,47,513235387087 ,1,15969093764083
9.9278649 ,Left ,63,3137337352439 ,47,4980710200934 ,1,13655035453322
9.9429394 ,Left ,63,3689844275183 ,47,4740917883278 ,1,10532089135176
9.9652407 ,Left ,63,4053488864191 ,47,4463034025983 ,1,07134942450685
9.9864734 ,Left ,63,4173871129563 ,47,4106446241555 ,1,01613133647005
10.0027971 ,Left ,63,4158245665917 ,47,3334463695707 ,0,983910806854879
10.0253796 ,Left ,63,4286239444832 ,47,2992812829741 ,0,991294354555719
10.0491363 ,Left ,63,4432660050942 ,47,3123289360364 ,1,02179237117934
10.0627132 ,Left ,63,4686121679131 ,47,3745821601915 ,1,0264900067841
10.0853691 ,Left ,63,4734317158467 ,47,4359288220124 ,1,01298384311844
10.1064098 ,Left ,63,4743682493547 ,47,4788383090449 ,0,993630014139858
10.1228155 ,Left ,63,4706704733373 ,47,5178115250473 ,0,983517151825606
10.1453568 ,Left ,63,4286631135464 ,47,549042285447 ,0,972358937429345
10.1664118 ,Left ,63,4108819114327 ,47,5719695287574 ,0,943095797335489
10.1829263 ,Left ,63,3869198117627 ,47,5664086269597 ,0,920749437020648
10.2052567 ,Left ,63,3487687135448 ,47,5347176285835 ,0,953976249814312
10.2264055 ,Left ,63,3599392160881 ,47,5776142284155 ,1,00439797957333
10.2419487 ,Left ,63,3717075573686 ,47,6611840848994 ,0,987401222295779
10.2650895 ,Left ,63,3663969503711 ,47,7283737687215 ,0,962066315550284
10.2876849 ,Left ,63,3817770910877 ,47,7905791066069 ,0,958951765221507
10.3025958 ,Left ,63,3130314872106 ,47,8694178644671 ,0,963591016208564
10.3253085 ,Left ,63,231718099903 ,47,940257771488 ,0,977770241535418
10.3478966 ,Left ,63,181769788777 ,47,987739815491 ,0,992642291530231
10.3626684 ,Left ,63,1269842438073 ,48,003994045956 ,1,02585844186185
10.3851493 ,Left ,63,0850642870431 ,48,0068690271985 ,1,05891696792178
10.4076937 ,Left ,63,0624874773364 ,47,9681882911068 ,1,07305921272183
10.42184 ,Left ,63,0421977377036 ,47,9412952404363 ,1,09853389221288
10.4453394 ,Left ,63,0236070328667 ,47,9992628232515 ,1,09474767818082
10.4676223 ,Left ,62,9935449877789 ,48,0714702600519 ,1,0741583459581
10.4819225 ,Left ,62,9900395122465 ,48,1100515019292 ,1,05911866664
10.5051082 ,Left ,63,0308519848848 ,48,0946031823752 ,1,0547974051839
10.5276652 ,Left ,63,0667811124125 ,48,061788982142 ,1,04747427603917
10.5417023 ,Left ,63,1056658048831 ,48,0282245538957 ,1,02681896516941
10.5651125 ,Left ,63,1606738227269 ,48,0030174577213 ,0,989725695408942
10.5874453 ,Left ,63,2414159792244 ,47,9945809071032 ,0,950068799567654
10.6018708 ,Left ,63,2846607925556 ,47,9938813119509 ,0,902794801046546
10.6251863 ,Left ,63,316326610092 ,47,9897075655404 ,0,865222404804628
10.6478526 ,Left ,63,3434669083335 ,47,9946178410291 ,0,831882458265042
10.6618774 ,Left ,63,3538507038315 ,48,0015660072696 ,0,79602675931158
10.6849147 ,Left ,63,3563015819796 ,47,9915918526918 ,0,746652224377934
10.7079736 ,Left ,63,3563024895371 ,47,9813704140199 ,0,712229293726412
10.7222201 ,Left ,63,3402677467092 ,47,9869189741574 ,0,69208921790688
10.7458298 ,Left ,63,2999876872609 ,48,0030380150353 ,0,684335582008284
10.7677106 ,Left ,63,2678377970095 ,48,0090514833303 ,0,688706794275658
10.7901564 ,Left ,63,2563602013789 ,48,0065313950862 ,0,705248230969395
10.8053584 ,Left ,63,2488214559291 ,47,9849877584276 ,0,725973469851404
10.8275953 ,Left ,63,2151943365935 ,47,970751830249 ,0,76197000206244
10.8487823 ,Left ,63,2068946149181 ,47,9906246111368 ,0,79031622505185
10.8650476 ,Left ,63,236246276821 ,47,9922581118768 ,0,802278240733301
10.887449 ,Left ,63,2675537908324 ,47,943260500115 ,0,813124092129552
10.9083714 ,Left ,63,324853071483 ,47,8648428315459 ,0,824342630584402
10.9250933 ,Left ,63,3973908486986 ,47,7719454373898 ,0,832246235387432
10.9478213 ,Left ,63,4351185106436 ,47,6790078856452 ,0,820500487446904
10.9688246 ,Left ,63,4598408592807 ,47,6170348656084 ,0,81257290548638
10.9851837 ,Left ,63,4916484282522 ,47,6041993806358 ,0,813332635901554
11.0077588 ,Left ,63,5401164909229 ,47,5922937383658 ,0,82841899702517
11.0287469 ,Left ,63,5636515145901 ,47,5643348798673 ,0,867833480598834
11.045332 ,Left ,63,5920821429895 ,47,5369447523188 ,0,928625770993641
11.0678888 ,Left ,63,5875690645276 ,47,5306704683953 ,0,994700293877323
11.0887252 ,Left ,63,5767826626974 ,47,5880064106863 ,1,02990773280219
11.1050514 ,Left ,63,5549412266037 ,47,6883561677306 ,1,03799623912436
11.1279965 ,Left ,63,5119991158478 ,47,7793337250216 ,1,03223982953302
11.1487612 ,Left ,63,501186690983 ,47,8044410202575 ,1,04408980704399
11.1650936 ,Left ,63,4939356280675 ,47,7798614328488 ,1,05698428928912
11.1878832 ,Left ,63,4850822891041 ,47,7358049403384 ,1,06122360447278
11.2087867 ,Left ,63,4939644157288 ,47,691527128746 ,1,04940969108791
11.2251335 ,Left ,63,5102124866337 ,47,6379305372382 ,1,02862513118563
11.2476733 ,Left ,63,5583648210122 ,47,5968242575165 ,1,017866622632
11.2702007 ,Left ,63,5549563292491 ,47,5955185343263 ,1,00248713950579
11.2852564 ,Left ,63,5713093793507 ,47,6160336374756 ,0,978613985462216
11.3075698 ,Left ,63,5807622346207 ,47,6257577046278 ,0,965287066918512
11.3298688 ,Left ,63,5717700644575 ,47,6400932301692 ,0,968044616081262
11.344923 ,Left ,63,5623912566954 ,47,6581440968028 ,0,976785840636336
11.3674113 ,Left ,63,5498716061808 ,47,6689345870385 ,0,978104241074566
11.3900805 ,Left ,63,5279621895376 ,47,6740260086295 ,0,979581007141742
11.4045012 ,Left ,63,5152719600285 ,47,6752032413722 ,0,97871773770701
11.4276918 ,Left ,63,5025428544082 ,47,6703853993592 ,0,981573723130143
11.4502693 ,Left ,63,5002601409536 ,47,6635333038872 ,0,982912883890214
11.4644229 ,Left ,63,4981746204823 ,47,6479318151426 ,0,984578750628426
11.4877069 ,Left ,63,5127440163071 ,47,6146051110744 ,0,990120030889866
11.5102477 ,Left ,63,5378277416476 ,47,5628487728015 ,1,00166326531872
11.5248576 ,Left ,63,5651108584948 ,47,5136877043712 ,1,01631008954637
11.5477036 ,Left ,63,583556803315 ,47,4804819939901 ,1,03012638208804
11.5717006 ,Left ,63,6046935213504 ,47,4555968536833 ,1,03464161398655
11.5846049 ,Left ,63,61606129133 ,47,4375130341034 ,1,02568905146814
11.6077134 ,Left ,63,6191238553177 ,47,438735383932 ,1,01316144697585
11.6302741 ,Left ,63,6041402716276 ,47,4416904643249 ,1,00906314555327
11.6446515 ,Left ,63,5851010589089 ,47,4439818847871 ,1,01134870004513
11.6678919 ,Left ,63,5673223274914 ,47,4455725736588 ,1,01539860711368
11.6901891 ,Left ,63,554700796302 ,47,4449834860227 ,1,01381748321004
11.7115261 ,Left ,63,5446389377829 ,47,4458982280535 ,1,00845469158864
11.728025 ,Left ,63,543144553077 ,47,4525686806552 ,0,99870120260521
11.750223 ,Left ,63,5373072587824 ,47,4697489184853 ,0,98540816707238
11.7714459 ,Left ,63,5385842219996 ,47,4969526541633 ,0,967587452028191
11.7877327 ,Left ,63,5315779220536 ,47,5354250039739 ,0,940398385289567
11.8101443 ,Left ,63,5110491742078 ,47,5804859478906 ,0,914898678452129
11.8313818 ,Left ,63,4866458774762 ,47,6456441170382 ,0,892209913644203
11.8474728 ,Left ,63,442503470105 ,47,7287691009545 ,0,870135056748363
11.8704956 ,Left ,63,3838159308597 ,47,8058673197368 ,0,843888899144128
11.891402 ,Left ,63,3251973162115 ,47,8734795593898 ,0,823879498796029
11.9077444 ,Left ,63,2696479141682 ,47,9190466748388 ,0,819367868122421
11.9301091 ,Left ,63,2158554488769 ,47,9510958751402 ,0,825718758761704
11.9516388 ,Left ,63,1665928915822 ,47,9614400823402 ,0,837105587839728
11.967771 ,Left ,63,1211103445655 ,47,9361955820715 ,0,851897598472282
11.9898627 ,Left ,63,0872744405725 ,47,8787400411354 ,0,89039967249147
12.01115 ,Left ,63,07003377455 ,47,7957977251067 ,0,931924762152112
12.0276397 ,Left ,63,0522001783754 ,47,7481653672275 ,0,980376422685947
12.0504529 ,Left ,63,0441366286487 ,47,7422436971994 ,1,01441476709766
12.0743982 ,Left ,63,074445838971 ,47,760861200932 ,1,03568406018135
12.0880619 ,Left ,63,1162788392274 ,47,7805301945145 ,1,05252029107754
12.1103831 ,Left ,63,1600975740538 ,47,7660689734593 ,1,06933015084494
12.1314446 ,Left ,63,2089022768147 ,47,7270692821381 ,1,06870779733236
12.1476142 ,Left ,63,2551375411582 ,47,6713104857988 ,1,04364900971235
12.1701479 ,Left ,63,3129350048685 ,47,6311754056134 ,1,00114009670441
12.1925861 ,Left ,63,3356407754575 ,47,5691687192704 ,0,955147931104302
12.2077172 ,Left ,63,3333248636356 ,47,4544241998721 ,0,964243683786282
12.2301724 ,Left ,63,3521863836277 ,47,4162924068221 ,1,00377551876434
12.2525941 ,Left ,63,3568745306551 ,47,4678616209535 ,1,03062970287701
12.2677102 ,Left ,63,3443488397321 ,47,5647223008382 ,1,02099715074071
12.2900758 ,Left ,63,3337440172795 ,47,6475194048904 ,1,00926554433605
12.3126837 ,Left ,63,2915111048353 ,47,6966520024344 ,1,00999498209789
12.3269387 ,Left ,63,2532596219566 ,47,7194310959312 ,1,00733176590971
12.3501338 ,Left ,63,2013891272788 ,47,7169530884651 ,1,01565589213934
12.3728961 ,Left ,63,1677526640846 ,47,735011090263 ,1,00845056208515
12.386886 ,Left ,63,1753378270781 ,47,7381070375566 ,0,985937873941703
12.4099143 ,Left ,63,1546683044039 ,47,6787757323436 ,0,973999083067219
12.4330747 ,Left ,63,1405632059395 ,47,5931633695458 ,1,00139311180345
12.4469675 ,Left ,63,1855153153323 ,47,5472524730365 ,1,03606277741341
12.4697533 ,Left ,63,2129049620466 ,47,5719286179286 ,1,03877377820972
12.4930552 ,Left ,63,2137624734789 ,47,612266804695 ,1,02442839029467
12.5073363 ,Left ,63,2272246827823 ,47,6514332819588 ,1,01096190654157
12.5303218 ,Left ,63,2150076497565 ,47,6775287837438 ,1,00182327170218
12.5528746 ,Left ,63,1916719587428 ,47,7111259629358 ,0,996624209137764
12.5671133 ,Left ,63,1510166306659 ,47,7448213954999 ,1,00304589930893
12.5903208 ,Left ,63,1294515165162 ,47,7807120826362 ,1,01139240015218
12.6127392 ,Left ,63,084040494119 ,47,7929035507111 ,1,01925298978698
12.6271852 ,Left ,63,0786965258595 ,47,7731752754745 ,1,04076543633567
12.6502341 ,Left ,63,0771542855928 ,47,7498383935267 ,1,06055443478682
12.6727547 ,Left ,63,0680049020099 ,47,7194931562263 ,1,07766983513867
12.6938181 ,Left ,63,0840966280695 ,47,6883500558118 ,1,09303366402238
12.7103639 ,Left ,63,0809794989987 ,47,6707412673145 ,1,10475980461302
12.7326969 ,Left ,63,1001612370597 ,47,6868915743868 ,1,10851137734446
12.7540364 ,Left ,63,1012339355792 ,47,7382606048396 ,1,08821620296035
12.7701248 ,Left ,63,1052197708388 ,47,7751761587126 ,1,06143989232583
12.7927358 ,Left ,63,1296458458717 ,47,7824095313861 ,1,04618789318086
12.8136397 ,Left ,63,1538341476951 ,47,7748663708002 ,1,03090904450815
12.8300792 ,Left ,63,1805380870872 ,47,7563897611278 ,1,00642983722088
12.8526676 ,Left ,63,1925076591357 ,47,7330517764295 ,0,980612874382128
12.8737474 ,Left ,63,2313102980728 ,47,7337516037919 ,0,94453255895816
12.8901891 ,Left ,63,2609408711551 ,47,7355543397201 ,0,903093621784564
12.9126951 ,Left ,63,2993270852751 ,47,7339221875402 ,0,868100527919627
12.9336708 ,Left ,63,338324080552 ,47,740813001004 ,0,828277414822594
12.9502348 ,Left ,63,3488568239075 ,47,7521350508799 ,0,792115714432067
12.9727167 ,Left ,63,3570624757511 ,47,7749797721947 ,0,759085218266023
12.9937959 ,Left ,63,3421141169565 ,47,7971882149356 ,0,720750400714853
13.0096155 ,Left ,63,3239421534036 ,47,8184189255087 ,0,699241546513265
13.0328979 ,Left ,63,2923361940415 ,47,8481894112563 ,0,688689699740187
13.0537888 ,Left ,63,2761483645115 ,47,8730361502157 ,0,672904136594446
13.0700954 ,Left ,63,2552950292928 ,47,8626090942464 ,0,665240076607359
13.0926957 ,Left ,63,2513343326687 ,47,8347918650914 ,0,665990528795794
13.115335 ,Left ,63,257825543091 ,47,8138758885596 ,0,669169929120466
13.1300911 ,Left ,63,2614174519861 ,47,7986116116988 ,0,679263133962216
13.1526825 ,Left ,63,3011396074124 ,47,7706784626323 ,0,694370408400265
13.1752499 ,Left ,63,3302623277038 ,47,7222758896143 ,0,718080573565418
13.1901207 ,Left ,63,3688197245063 ,47,6837469643343 ,0,751927887041765
13.2126769 ,Left ,63,3959091738233 ,47,6807181581943 ,0,79803293947275
13.2350872 ,Left ,63,4078436805471 ,47,6903963310197 ,0,850774600669557
13.2492498 ,Left ,63,4211328312476 ,47,6993231542895 ,0,905275463213983
13.2726302 ,Left ,63,4346486746687 ,47,7026783286159 ,0,933762191528946
13.2951731 ,Left ,63,442408012895 ,47,6995664078882 ,0,949015382481016
13.3095028 ,Left ,63,4416494842289 ,47,6998429733913 ,0,953483374794177
13.3327776 ,Left ,63,433496677777 ,47,7250589122979 ,0,945998720726663
13.355257 ,Left ,63,4245546084194 ,47,7617844499382 ,0,922298481316518
13.3694279 ,Left ,63,4259387520151 ,47,798263576126 ,0,897914185503944
13.3925136 ,Left ,63,428897304545 ,47,845253705882 ,0,873897989199786
13.415131 ,Left ,63,4266638015719 ,47,8787134808829 ,0,837697278726951
13.4293144 ,Left ,63,4258547744203 ,47,8915712994727 ,0,809309470250026
13.4525428 ,Left ,63,4272692923399 ,47,8967461695346 ,0,788039653420699
13.4752399 ,Left ,63,4474227573938 ,47,9007458071855 ,0,76735152538113
13.4895962 ,Left ,63,4422783975416 ,47,8851806074467 ,0,745699322868548
13.512561 ,Left ,63,4349134313107 ,47,8456173969986 ,0,734804437871164
13.5358332 ,Left ,63,4287698201155 ,47,7985664760823 ,0,731183593478168
13.549332 ,Left ,63,4123629422869 ,47,7742253573999 ,0,725546502245264
13.5727056 ,Left ,63,3941487327113 ,47,7729645154679 ,0,706845807358649
13.5952202 ,Left ,63,3782871118575 ,47,7767572972558 ,0,686000195360977
13.6161696 ,Left ,63,3684008802895 ,47,7817086902537 ,0,676001527042296
13.6324777 ,Left ,63,3295216185588 ,47,7713135085624 ,0,680122026493235
13.6549322 ,Left ,63,3743240560941 ,47,7170149105348 ,0,695931993422061
13.6761041 ,Left ,63,3994284092472 ,47,6699776300545 ,0,707540247405314
13.6926657 ,Left ,63,4191328353259 ,47,6356389076313 ,0,710181666596294
13.7148211 ,Left ,63,435869768309 ,47,6095106113717 ,0,718777218459187
13.7360298 ,Left ,63,4425999928991 ,47,5927397101294 ,0,717240526860969
13.7526264 ,Left ,63,4490574252067 ,47,5405457082542 ,0,723351714497837
13.7751472 ,Left ,63,4540440444156 ,47,4997894254027 ,0,756100347224086
13.7962344 ,Left ,63,4487622726478 ,47,4937787802251 ,0,798681189231386
13.8126894 ,Left ,63,4488199406126 ,47,4998181192683 ,0,865581570650646
13.8351473 ,Left ,63,4392722904244 ,47,5212778820403 ,0,937871116887214
13.8564347 ,Left ,63,4340454743491 ,47,5276583674858 ,0,985998069268214
13.872646 ,Left ,63,4404301192283 ,47,5079769299042 ,1,02385894221921
13.9026355 ,Left ,63,4483706972862 ,47,4744303183655 ,1,06400601468234
13.9161748 ,Left ,63,428679728944 ,47,4582284576957 ,1,10299574261104
13.9327221 ,Left ,63,4217506269029 ,47,4632714289192 ,1,11637201085671
13.9553114 ,Left ,63,4129596604081 ,47,476688076501 ,1,11651722812469
13.9763422 ,Left ,63,3817300945939 ,47,4868816361094 ,1,1080484353904
13.9928519 ,Left ,63,3576919351502 ,47,4966324498358 ,1,11391824243498
14.0152895 ,Left ,63,3395448663021 ,47,5294348408841 ,1,13386759234273
14.0361503 ,Left ,63,3405305496564 ,47,5511223406172 ,1,15197695563536
14.0527133 ,Left ,63,3570549364542 ,47,5457297578632 ,1,16140110442377
14.0753335 ,Left ,63,3785180928043 ,47,5318746356801 ,1,16034091703659
14.0975888 ,Left ,63,4002818092509 ,47,5264241436822 ,1,1501791653979
14.1126156 ,Left ,63,4209493083584 ,47,5284956579168 ,1,132678331383
14.1352676 ,Left ,63,4369708407056 ,47,5376363905387 ,1,1101181857731
14.1576942 ,Left ,63,4433010278174 ,47,5353940399011 ,1,08088045090789
14.1727162 ,Left ,63,4725376919834 ,47,5326606433012 ,1,05429331032521
14.1951657 ,Left ,63,4866097940732 ,47,5488474056119 ,1,03070814354152
14.2176735 ,Left ,63,4878630599994 ,47,5726135422542 ,1,01559017672042
14.231989 ,Left ,63,4881988748323 ,47,5950326322536 ,1,00851399006397
14.255035 ,Left ,63,498956846547 ,47,6068200691104 ,1,00459558499692
14.277694 ,Left ,63,5015820687291 ,47,6065406248712 ,1,00001656119169
14.291735 ,Left ,63,5142726850496 ,47,6053561568277 ,1,00085331353306
14.3149493 ,Left ,63,5137980644587 ,47,6082708884776 ,1,00861982696553
14.3374485 ,Left ,63,5242903813146 ,47,6142194344087 ,1,01279955911992
14.3516282 ,Left ,63,5282335554798 ,47,6160335175531 ,1,01766438240847
14.3751257 ,Left ,63,5387471119013 ,47,619382060161 ,1,02281584883911
14.3976951 ,Left ,63,5534399312449 ,47,6243790736263 ,1,02846811313154
14.4122451 ,Left ,63,5551856154821 ,47,6175525648219 ,1,03385613754416
14.4354768 ,Left ,63,5722770569096 ,47,6066526425225 ,1,03646327918911
14.4580483 ,Left ,63,5872783102133 ,47,596532432317 ,1,03312721628187
14.4723438 ,Left ,63,5923168957772 ,47,5803760615151 ,1,02548510515739
14.4955697 ,Left ,63,6078162028147 ,47,5561631856135 ,1,01997592132719
14.5177239 ,Left ,63,6163134191117 ,47,5393217215156 ,1,01824597150543
14.5319675 ,Left ,63,6208539842318 ,47,533851825148 ,1,0154730874418
14.5550954 ,Left ,63,6377425339162 ,47,5177178964726 ,1,0156650709879
14.577666 ,Left ,63,649128934351 ,47,4832342169958 ,1,01425060860852
14.5989229 ,Left ,63,6641953694113 ,47,4505122902305 ,1,01339622721175
14.615079 ,Left ,63,6603874202087 ,47,4443369750956 ,1,00868138089937
14.6374763 ,Left ,63,6438490506636 ,47,4479794597016 ,0,998551383790398
14.659265 ,Left ,63,6382248661916 ,47,4564423136637 ,0,985600920661516
14.6755437 ,Left ,63,6300045435626 ,47,4545919972413 ,0,972434687657662
14.6977452 ,Left ,63,6219628822973 ,47,4459257362507 ,0,969025911558239
14.7187771 ,Left ,63,6137236113722 ,47,4408208517551 ,0,967254446315503
14.7349466 ,Left ,63,6074624440901 ,47,4453242779751 ,0,967567446934311
14.7576547 ,Left ,63,6074624440901 ,47,4453242779751 ,0,967567446934311
14.7785401 ,Left ,63,6069032779983 ,47,4480426431205 ,0,966701201782836
14.7952002 ,Left ,63,6069032779983 ,47,4480426431205 ,0,966701201782836
14.8178538 ,Left ,63,6099296130213 ,47,4572381612655 ,0,959938935736693
14.8386449 ,Left ,63,6122952964854 ,47,4709340004962 ,0,953128503034796
14.8552189 ,Left ,63,6128477105069 ,47,4880459820251 ,0,943698007263008
14.877583 ,Left ,63,6108749346904 ,47,5096526697203 ,0,934333625669444
14.8987629 ,Left ,63,6117198619865 ,47,5354038811966 ,0,924517322972922
14.9211704 ,Left ,63,6142396033396 ,47,559338350705 ,0,909491582983695
14.9375705 ,Left ,63,6128542410802 ,47,5842328118381 ,0,897294759100859
14.958878 ,Left ,63,6001824010819 ,47,6139800647235 ,0,890154622692965
14.9751444 ,Left ,63,5835530544431 ,47,6550620651791 ,0,881944378000873
14.9976104 ,Left ,63,5533852780399 ,47,7019022140437 ,0,877123089653756
15.0197354 ,Left ,63,5084595554005 ,47,7492053821536 ,0,877568111481689
15.0349523 ,Left ,63,4587287285003 ,47,7976794438646 ,0,880833345892158
15.0576126 ,Left ,63,413745728502 ,47,8285557224437 ,0,8843606030259
15.0799751 ,Left ,63,3770070533269 ,47,8402338389509 ,0,891616364045859
15.0954338 ,Left ,63,3355356362267 ,47,838413492897 ,0,905922235119919
15.1178719 ,Left ,63,2813548602231 ,47,8387463275252 ,0,921866836563414
15.140249 ,Left ,63,2401738772006 ,47,8393711827753 ,0,930821477357482
15.1545203 ,Left ,63,2102164719702 ,47,8281570278374 ,0,936063763261349
15.1777695 ,Left ,63,1984800611069 ,47,77966912572 ,0,955934311589401
15.200294 ,Left ,63,2057301661564 ,47,7222631903402 ,0,983603885598464
15.2145222 ,Left ,63,2190155430865 ,47,6750248953905 ,1,00688072741999
15.2378919 ,Left ,63,2311765051724 ,47,6429624053861 ,1,01978613971352
15.2602353 ,Left ,63,2668912737654 ,47,6264453946033 ,1,02318493085498
15.2746196 ,Left ,63,2992623302131 ,47,6289186434006 ,1,02229970418425
15.2991505 ,Left ,63,3228972861501 ,47,6263869980866 ,1,01975047290819
15.320261 ,Left ,63,3528191907841 ,47,6359362599409 ,1,01791220540685
15.3346432 ,Left ,63,3682083278222 ,47,6386535179748 ,1,00964884777964
15.3578191 ,Left ,63,3713606877637 ,47,6362102309904 ,0,99553989804282
15.3801938 ,Left ,63,3699769453284 ,47,6042846550859 ,0,981430633953293
15.3944336 ,Left ,63,3723520875852 ,47,576620420781 ,1,00960097510106
15.4176232 ,Left ,63,3965747592435 ,47,557011281776 ,1,03996442155757
15.4401068 ,Left ,63,400254712156 ,47,5616108938174 ,1,04820625523454
15.4544809 ,Left ,63,4108472109171 ,47,5927356318594 ,1,04860607970261
15.4780533 ,Left ,63,4219017002008 ,47,6496492949189 ,1,03914103722459
15.5001847 ,Left ,63,3949582752489 ,47,6707935267066 ,1,02451083992382
15.5213127 ,Left ,63,3724706501225 ,47,6778601781546 ,1,01186578080205
15.5377683 ,Left ,63,3459450195922 ,47,6716463340846 ,0,991443772171522
15.5601459 ,Left ,63,3376917525967 ,47,6533317251386 ,0,985949322500605
15.5813144 ,Left ,63,3402342247233 ,47,6221274429095 ,1,01254969187038
15.597567 ,Left ,63,3773293334307 ,47,6221516658521 ,1,04021456150934
15.6202948 ,Left ,63,3999337534056 ,47,6520145908487 ,1,01796192621207
15.6410853 ,Left ,63,384166234495 ,47,689719955933 ,0,988693345575819
15.6575714 ,Left ,63,3873097843525 ,47,7579088849612 ,0,97399972665531
15.6800537 ,Left ,63,3435717812266 ,47,822661461558 ,0,949734505726354
15.7013265 ,Left ,63,2967672079301 ,47,8551319640268 ,0,945353827059718
15.7176441 ,Left ,63,2427253930466 ,47,8537535383177 ,0,96047211132082
15.7401499 ,Left ,63,222305080235 ,47,8361800892843 ,0,98369572345131
15.7611089 ,Left ,63,1773664274697 ,47,8061193206128 ,0,985772321767142
15.7777573 ,Left ,63,1495021478121 ,47,7590964795899 ,0,990204697532956
15.8000207 ,Left ,63,1465754565301 ,47,752893446492 ,1,00470035900882
15.8212998 ,Left ,63,1232918523425 ,47,8161494643991 ,0,999538482542017
15.8377724 ,Left ,63,0901872520274 ,47,8835569198952 ,0,985961827377673
15.8603849 ,Left ,63,0970419434137 ,47,9252207755775 ,0,986656870337109
15.8814044 ,Left ,63,1178447885583 ,47,9485688754628 ,0,99363764260165
15.8976207 ,Left ,63,1177781732802 ,47,976664517682 ,0,997365319149256
15.9199223 ,Left ,63,0911671408319 ,48,0034958924807 ,0,978454436814651
15.9426133 ,Left ,63,1100581813397 ,48,0342058835552 ,0,939850461733552
15.9574003 ,Left ,63,1120839445788 ,48,0485995563252 ,0,897107155157863
15.9799369 ,Left ,63,1013106072794 ,48,0789566852119 ,0,853446531034711
16.0027953 ,Left ,63,0717776797063 ,48,0938783320263 ,0,808223670748306
16.0181863 ,Left ,63,0565042879882 ,48,0594438739009 ,0,777031680599711
16.0402048 ,Left ,63,0507537347744 ,47,9970531851703 ,0,765150861972169
16.062699 ,Left ,63,0370680403203 ,47,9377996667657 ,0,795447129352611
16.0777558 ,Left ,63,0489582521988 ,47,9192995101075 ,0,846304662896624
16.1001527 ,Left ,63,0748121920176 ,47,9247457455164 ,0,879169235709301
16.1227903 ,Left ,63,12315823325 ,47,873632945555 ,0,89260684455023
16.1369577 ,Left ,63,1652404085307 ,47,7839265089286 ,0,897927524693576
16.1601161 ,Left ,63,2365600775065 ,47,6823670415365 ,0,891772081189198
16.1826684 ,Left ,63,3034955691328 ,47,6488555364035 ,0,881421369951924
16.1968583 ,Left ,63,3428171429825 ,47,6524058846414 ,0,863485275521927
16.2200903 ,Left ,63,3804585266288 ,47,6321010707242 ,0,879890828397712
16.2427053 ,Left ,63,44187601183 ,47,608892490746 ,0,927707206875548
16.263634 ,Left ,63,4822317437228 ,47,5545136497409 ,0,971412770621646
16.2801487 ,Left ,63,5240877970314 ,47,4793305287639 ,1,02273750949628
16.3102091 ,Left ,63,5859070912026 ,47,4901616300218 ,1,06009588901524
16.3240049 ,Left ,63,5667507717912 ,47,6223035987371 ,1,05460068216753
16.3401814 ,Left ,63,5268888224535 ,47,7528613477294 ,1,03659947594964
16.3627145 ,Left ,63,4798710017858 ,47,81464560309 ,1,04340865701539
16.3769731 ,Left ,63,4447980888421 ,47,8214774023358 ,1,05692993353522
16.400224 ,Left ,63,4210971134763 ,47,8013096595917 ,1,05775201811427
16.4225572 ,Left ,63,4010939701388 ,47,7730087032519 ,1,03338362535568
16.443474 ,Left ,63,4056383981356 ,47,732873524592 ,0,993833261801067
16.4600949 ,Left ,63,4353154687394 ,47,7027287752735 ,0,957273141304267
16.4825462 ,Left ,63,4286115940006 ,47,690416224341 ,0,928634521132419
16.5036036 ,Left ,63,4341203685367 ,47,7068242234644 ,0,905712282576446
16.5202188 ,Left ,63,4436063351369 ,47,7284782324063 ,0,884912321962229
16.5426571 ,Left ,63,4507801536428 ,47,750482779853 ,0,872961760915453
16.5636185 ,Left ,63,4644137276714 ,47,7758448282995 ,0,862151027437753
16.5801261 ,Left ,63,4689989321751 ,47,7909344692167 ,0,847282230625885
16.6026502 ,Left ,63,4792217539699 ,47,7880030537223 ,0,823981405375594
16.6236123 ,Left ,63,4824837192647 ,47,7706565479154 ,0,80529961367507
16.6401213 ,Left ,63,4945289372614 ,47,741784807948 ,0,787320416214344
16.6626108 ,Left ,63,510770326321 ,47,7086168550625 ,0,773543881731166
16.6837555 ,Left ,63,541601654026 ,47,6769697855932 ,0,759494346521725
16.7002913 ,Left ,63,5604274507911 ,47,629733654133 ,0,743378307086412
16.7227752 ,Left ,63,5891782448238 ,47,5732280387304 ,0,74163089513455
16.7436989 ,Left ,63,6079226368992 ,47,5296284375217 ,0,750582020144398
16.7602403 ,Left ,63,6163647986302 ,47,5018004973758 ,0,758814847878114
16.7828698 ,Left ,63,627163982315 ,47,4850710314514 ,0,761197517634445
16.8040298 ,Left ,63,6225747062583 ,47,4757052897239 ,0,763673217713378
16.8202386 ,Left ,63,6181913310981 ,47,4775803097587 ,0,764826868198365
16.8427443 ,Left ,63,6027754898634 ,47,4937372376493 ,0,768934349339061
16.8638322 ,Left ,63,5812966218331 ,47,5133885605767 ,0,770740908551804
16.8802134 ,Left ,63,5539851086947 ,47,5327663800064 ,0,759919071136801
16.9026618 ,Left ,63,5265262657632 ,47,5590930954307 ,0,747930742444586
16.9253002 ,Left ,63,4924862545718 ,47,615179785876 ,0,736902701798424
16.9402902 ,Left ,63,4456870773825 ,47,681843423717 ,0,722766867139295
16.9627474 ,Left ,63,404535693405 ,47,7365152917922 ,0,71557001105635
16.9849674 ,Left ,63,3471696850404 ,47,7836166251959 ,0,712287473121928
16.9997805 ,Left ,63,2970938479768 ,47,8223770586301 ,0,717502538149873
17.0229851 ,Left ,63,2476736269932 ,47,8610309263725 ,0,722522730341074
17.0455932 ,Left ,63,2068170912604 ,47,8837288365798 ,0,724185577563841
17.0597165 ,Left ,63,1720503710953 ,47,8624104633171 ,0,73810487325701
17.0826825 ,Left ,63,1475332890745 ,47,8213244265534 ,0,761989112620754
17.1051394 ,Left ,63,1551756246597 ,47,7664095630889 ,0,784370216820318
17.1195635 ,Left ,63,1626106564169 ,47,7202098422784 ,0,806307273712999
17.142894 ,Left ,63,1921806779197 ,47,6815126407295 ,0,813110748130505
17.1478593 ,Left ,63,2356172737284 ,47,6487435633492 ,0,804531808520155
17.1704048 ,Left ,63,2814369222085 ,47,6176684082175 ,0,796457845194361
17.1882699 ,Left ,63,3357543712409 ,47,5941783699114 ,0,784693143784319
17.207985 ,Left ,63,368885813543 ,47,5701202471604 ,0,767554949315955
17.2333938 ,Left ,63,4094736099059 ,47,5507838275315 ,0,743434215552929
17.2468094 ,Left ,63,458247089164 ,47,5210717860782 ,0,722574583715465
17.2681055 ,Left ,63,4272953465261 ,47,4969131539471 ,0,733078291561423
17.2905324 ,Left ,63,4271073968512 ,47,4853631751353 ,0,772854648800972
17.3071027 ,Left ,63,419349115983 ,47,5137175946936 ,0,824564573864992
17.3284256 ,Left ,63,4178663007033 ,47,5757331359042 ,0,867341399111598
17.3508459 ,Left ,63,4098702552317 ,47,6447197685651 ,0,885834478797402
17.3671802 ,Left ,63,4095982818121 ,47,7041975896207 ,0,891028515523673
17.3880724 ,Left ,63,3747383280615 ,47,7384451967456 ,0,895550060993038
17.4106486 ,Left ,63,3555152377412 ,47,7641290060636 ,0,893148226961052
17.4271231 ,Left ,63,3394873024518 ,47,7612347410399 ,0,87784101972898
17.4483473 ,Left ,63,3227453933387 ,47,753445711448 ,0,868963906224835
17.4706634 ,Left ,63,2864563218125 ,47,7403955514388 ,0,869590350022608
17.4870449 ,Left ,63,3126964911518 ,47,7280632522326 ,0,903120314561024
17.5082805 ,Left ,63,3386875408532 ,47,7895856898176 ,0,928899729085997
17.5306335 ,Left ,63,3334488682855 ,47,8463579399394 ,0,907421832429834
17.5470683 ,Left ,63,3165646531093 ,47,8917889023722 ,0,898623061016414
17.5680129 ,Left ,63,2660396290804 ,47,9525587945725 ,0,883394480995756
17.5906468 ,Left ,63,2220128228218 ,47,9853750558763 ,0,87241665921442
17.6068961 ,Left ,63,1752444583697 ,48,0036703898431 ,0,865814058946118
17.6281595 ,Left ,63,1468742856474 ,47,9910398613291 ,0,878767329008354
17.6504464 ,Left ,63,1153311994838 ,47,9708875195314 ,0,914144882652803
17.6669343 ,Left ,63,0878655683852 ,47,9542590354326 ,0,950867766385329
17.6877827 ,Left ,63,0732584398591 ,47,912145168129 ,0,990735066354299
17.7106402 ,Left ,63,0856874653016 ,47,9149751648687 ,1,03599924284671
17.728665 ,Left ,63,0668530498125 ,47,9950896142022 ,1,03979566280699
17.7480284 ,Left ,63,0315961691533 ,48,0705103115204 ,1,02739483981506
17.7705738 ,Left ,63,0510012132735 ,48,093404770541 ,1,02576979608748
17.7889022 ,Left ,63,0978864260642 ,48,082207800953 ,1,02087529463573
17.808198 ,Left ,63,1222829121429 ,48,0706708608949 ,0,995581599508212
17.8310122 ,Left ,63,1546711073661 ,48,0884566979657 ,0,950712037608892
17.848793 ,Left ,63,1695839019347 ,48,109875236896 ,0,895579761324334
17.8682598 ,Left ,63,1983494196026 ,48,1383749747197 ,0,832204988099483
17.8906831 ,Left ,63,199206692956 ,48,1468973975483 ,0,774165378468082
17.9085222 ,Left ,63,1988342179021 ,48,1589002600736 ,0,73263743911389
17.9280409 ,Left ,63,1836295708186 ,48,1676554863073 ,0,690396228630376
17.9506362 ,Left ,63,1659146942096 ,48,1493517543076 ,0,666211009234099
17.9685899 ,Left ,63,1578327351218 ,48,1333010478539 ,0,655326874232185
17.9881015 ,Left ,63,1690734820779 ,48,1197697225085 ,0,650967243980852
18.0106178 ,Left ,63,1311436826685 ,48,0620250436743 ,0,651042974859898
18.0284067 ,Left ,63,1197323491061 ,48,0066105146214 ,0,67211433264546
18.0481422 ,Left ,63,1309918450274 ,47,9800209208349 ,0,702440110965406
18.0705233 ,Left ,63,140778723738 ,47,9743576478484 ,0,714328962210109
18.0932059 ,Left ,63,2155345499231 ,47,9327664723836 ,0,713303848963602
18.1080157 ,Left ,63,2909010075163 ,47,8656465502174 ,0,707156134017522
18.1304859 ,Left ,63,3719093760066 ,47,8047284604166 ,0,686048982902186
18.1528092 ,Left ,63,4321198613918 ,47,7334233730896 ,0,65265695922234
18.1678738 ,Left ,63,4480806544634 ,47,6926355052511 ,0,641910615873689
18.1905336 ,Left ,63,4896032542578 ,47,7109686436399 ,0,662512383909238
18.2130292 ,Left ,63,5231807614909 ,47,751769984325 ,0,695928645116064
18.2281532 ,Left ,63,5546779149524 ,47,7624464922941 ,0,743811788627315
18.2535243 ,Left ,63,5875897930319 ,47,7161788719346 ,0,812978409757847
18.2729944 ,Left ,63,6279549552867 ,47,635941295739 ,0,889830602646564
18.2880556 ,Left ,63,6317396882472 ,47,6260782274684 ,0,938726750020215
18.3180889 ,Left ,63,59451804682 ,47,7440007787748 ,0,938768395658123
18.3331768 ,Left ,63,5487716300392 ,47,8707593746783 ,0,915155294769224
18.3482014 ,Left ,63,5229846265188 ,47,9287824850879 ,0,908496958473509
18.3707103 ,Left ,63,5235288319369 ,47,9261013462753 ,0,909365820351828
18.3932356 ,Left ,63,510324677605 ,47,8759288088128 ,0,908875100889297
18.4081994 ,Left ,63,5263519675528 ,47,826004819304 ,0,889772108337631
18.4303228 ,Left ,63,5813391820075 ,47,7750146188517 ,0,867875114437578
18.453139 ,Left ,63,6005447480349 ,47,7326965901933 ,0,845407633856577
18.4693782 ,Left ,63,6208493279274 ,47,7115958825991 ,0,828179963488602
18.4904916 ,Left ,63,6474278423609 ,47,7277911901951 ,0,808226686255107
18.5129965 ,Left ,63,6663469603269 ,47,7733644801456 ,0,776426148720772
18.5295468 ,Left ,63,6825867587813 ,47,8303965701853 ,0,743631801812071
18.5505382 ,Left ,63,6952569347752 ,47,8673158313956 ,0,708331674266752
18.5731043 ,Left ,63,6925815006452 ,47,8803904739966 ,0,680161556956936
18.5895168 ,Left ,63,6909923531123 ,47,8816975239825 ,0,663682489961983
18.6106547 ,Left ,63,6788955227015 ,47,8875191954379 ,0,647736219746588
18.6331693 ,Left ,63,6733298885782 ,47,8915275156639 ,0,634888186253419
18.649489 ,Left ,63,6673893213546 ,47,8886695705639 ,0,623194054340594
18.6706236 ,Left ,63,6705960572315 ,47,8717732744561 ,0,617459632136393
18.6931665 ,Left ,63,6851921070117 ,47,8447672268533 ,0,623530166186792
18.7094384 ,Left ,63,689169913756 ,47,818032046536 ,0,634649437783894
18.7305061 ,Left ,63,6966705745477 ,47,8002354045359 ,0,65392843623206
18.7532361 ,Left ,63,6979194845787 ,47,7608776084588 ,0,678739302614921
18.770988 ,Left ,63,7098086277371 ,47,6978053834031 ,0,702743536237564
18.7905829 ,Left ,63,7287089198393 ,47,6525861862021 ,0,719457037792294
18.813174 ,Left ,63,7326455252642 ,47,6370146346904 ,0,724931368133139
18.8307574 ,Left ,63,7164193921266 ,47,6439620606053 ,0,716298078699065
18.851997 ,Left ,63,7062171577846 ,47,6672362344439 ,0,699698948475198
18.8730586 ,Left ,63,6834668594361 ,47,6993836681664 ,0,683675215483253
18.8982977 ,Left ,63,6536189556952 ,47,7353795658186 ,0,67409226213301
18.9106766 ,Left ,63,6185344770081 ,47,7978114994412 ,0,668208007018599
18.9332439 ,Left ,63,5778148559671 ,47,8697193825374 ,0,66043704121301
18.9511003 ,Left ,63,5201644448931 ,47,9356836433436 ,0,648614288278984
18.9707896 ,Left ,63,4643280101058 ,47,9931956977492 ,0,645512315547384
18.9931614 ,Left ,63,4013300962437 ,48,0557390422239 ,0,655516654281648
19.0109537 ,Left ,63,3342026967792 ,48,1134013292555 ,0,67183355107401
19.0304808 ,Left ,63,2650190039022 ,48,1433281265054 ,0,688509997291628
19.0529726 ,Left ,63,2167527050299 ,48,1260902895925 ,0,708838368507234
19.0712547 ,Left ,63,190182387573 ,48,0715404999115 ,0,743661790265779
19.0902342 ,Left ,63,1306378994936 ,48,0223190665111 ,0,780488172432997
19.1127761 ,Left ,63,099058740832 ,47,9785890482506 ,0,81624442171044
19.1307049 ,Left ,63,1148143248502 ,47,9545453957705 ,0,849592149254855
19.150331 ,Left ,63,1491923754592 ,47,9454862815433 ,0,875766186292404
19.1727758 ,Left ,63,1977840720706 ,47,9615278386751 ,0,890873888483742
19.1907126 ,Left ,63,2480810482273 ,47,9764037910535 ,0,899108768583593
19.2102588 ,Left ,63,2910871160384 ,47,9629128023372 ,0,895193437278536
19.2326625 ,Left ,63,334245074197 ,47,9360449065652 ,0,883178301292084
19.2512597 ,Left ,63,3941511257494 ,47,9026150740887 ,0,850140702637472
19.271001 ,Left ,63,4201549783075 ,47,8426588882894 ,0,804836196405402
19.2933046 ,Left ,63,4237409240975 ,47,7383496066859 ,0,794304031448508
19.3108456 ,Left ,63,4477357701302 ,47,7076680017072 ,0,826152719274346
19.3306255 ,Left ,63,4451336799605 ,47,7614076780725 ,0,858942384867337
19.3530592 ,Left ,63,4457323406674 ,47,8641537374374 ,0,877158297713903
19.3709831 ,Left ,63,4196119962291 ,47,9498052393267 ,0,889097303549526
19.391848 ,Left ,63,3780937588034 ,47,994384762674 ,0,908978334648322
19.4130147 ,Left ,63,3285829618651 ,48,0432184567665 ,0,920331235116624
19.4309307 ,Left ,63,2887387656226 ,48,0566584801866 ,0,904771755459501
19.4519471 ,Left ,63,2667178113909 ,48,0363951601162 ,0,867083566590424
19.4728926 ,Left ,63,2613185198386 ,47,9654811132783 ,0,859477526938942
19.4909432 ,Left ,63,2695414746159 ,47,9034197338711 ,0,897766895254941
19.5118177 ,Left ,63,2956188934797 ,47,926125862956 ,0,934129012538955
19.5330014 ,Left ,63,2958140056066 ,47,983484817799 ,0,929638892009301
19.551099 ,Left ,63,3215726187682 ,48,0404343861244 ,0,932238709142049
19.5721149 ,Left ,63,3275012746193 ,48,0727271655762 ,0,935642291979242
19.5933126 ,Left ,63,2746567611293 ,48,0998061274666 ,0,924550642165399
19.6112049 ,Left ,63,2385717794197 ,48,1033979322989 ,0,925680457455124
19.6320913 ,Left ,63,2131195315787 ,48,0857297323597 ,0,925486233969184
19.6533497 ,Left ,63,205663598361 ,48,0395420752096 ,0,939657933692512
19.6710906 ,Left ,63,1643909282073 ,47,9707774139665 ,0,956277692289641
19.6920386 ,Left ,63,1653979455807 ,47,9088975451461 ,0,976000903797002
19.7133731 ,Left ,63,1856219961259 ,47,8838173669955 ,0,991662352054136
19.73106 ,Left ,63,1920819220274 ,47,911681329866 ,0,994997677880964
19.753587 ,Left ,63,1967858245568 ,47,9506590883837 ,0,992653432337568
19.7731755 ,Left ,63,2301163919014 ,47,9789553261223 ,1,00131478546917
19.7911393 ,Left ,63,2494752184232 ,47,9959173345805 ,1,00353872641846
19.8136399 ,Left ,63,2539415740227 ,48,0175214855798 ,1,00217713746372
19.8333463 ,Left ,63,244142200127 ,48,0447537860542 ,0,980575662267028
19.8510837 ,Left ,63,2424291259921 ,48,0799776096812 ,0,930108800908206
19.8735446 ,Left ,63,2278961452349 ,48,0971534440311 ,0,878708035260217
19.8933968 ,Left ,63,2113385529557 ,48,1299347618942 ,0,825759515152425
19.9171344 ,Left ,63,1796290582768 ,48,1580769108274 ,0,780004147582061
19.9338067 ,Left ,63,159437933115 ,48,1806399340561 ,0,750426334468576
19.953254 ,Left ,63,1411824242257 ,48,1916467562397 ,0,736944332707354
19.9711217 ,Left ,63,1198428023684 ,48,1893818472995 ,0,734834628036705
19.9935525 ,Left ,63,0652242932155 ,48,1522074343255 ,0,71913388595651
20.0132005 ,Left ,63,0629667847535 ,48,078578390485 ,0,727643637074208
20.0312643 ,Left ,63,043345940666 ,48,0026067888167 ,0,753065231487708
20.0535029 ,Left ,63,0389285334328 ,47,9613162190693 ,0,794909763563643
20.0733593 ,Left ,63,0692397627044 ,47,9471240836186 ,0,819028804540353
20.0910884 ,Left ,63,1646609658664 ,47,9045596693041 ,0,831484122233831
20.1135352 ,Left ,63,2503008020887 ,47,8264365569065 ,0,824358423341743
20.1338452 ,Left ,63,3331709955011 ,47,7209901406061 ,0,811248161432517
20.1558772 ,Left ,63,3919360919533 ,47,6525504615818 ,0,832727777451307
20.1737703 ,Left ,63,3912956363499 ,47,6902008729527 ,0,834600393616308
20.1935723 ,Left ,63,4411590030583 ,47,7100615071903 ,0,859697047452766
20.2160301 ,Left ,63,4763457107349 ,47,7348284093084 ,0,913638266952512
20.2413227 ,Left ,63,5028156276876 ,47,750243830338 ,0,970408214957899
20.2548499 ,Left ,63,5247876855449 ,47,6933523668298 ,1,00771870930848
20.270949 ,Left ,63,5500422630742 ,47,6157090067903 ,1,05260254464631
20.2935194 ,Left ,63,5401079071241 ,47,6689942788093 ,1,06869781079791
20.3130149 ,Left ,63,4878587905722 ,47,7989457583744 ,1,04878478384964
20.3354391 ,Left ,63,4549821828144 ,47,8854384190457 ,1,02731080063817
20.3534671 ,Left ,63,4211386126475 ,47,9247032893152 ,1,02523460702215
20.3745271 ,Left ,63,4047461232325 ,47,9298568853312 ,1,01127857910472
20.395616 ,Left ,63,4060622367461 ,47,9041192464241 ,0,978382329821631
20.413452 ,Left ,63,4229919298503 ,47,8698159399472 ,0,938654556238115
20.4345113 ,Left ,63,4503524682111 ,47,856671081237 ,0,912030928453241
20.4512169 ,Left ,63,4370345504233 ,47,8671298915598 ,0,881102956996383
20.4737376 ,Left ,63,4434458371419 ,47,9053894350224 ,0,838047246303026
20.4945084 ,Left ,63,4522296657015 ,47,940970344756 ,0,79581353397741
20.515504 ,Left ,63,4470879392403 ,47,9642756325679 ,0,763803653140701
20.5336142 ,Left ,63,4487441948808 ,47,9884393253672 ,0,738223562540183
20.5546932 ,Left ,63,4496526744203 ,48,0128679721788 ,0,717085323511013
20.5710854 ,Left ,63,4586003846055 ,48,0217115215487 ,0,701354950194194
20.593655 ,Left ,63,4541598455253 ,48,0032933079114 ,0,676232799333308
20.6145715 ,Left ,63,4721725783407 ,47,971818810253 ,0,658983010995251
20.6310332 ,Left ,63,4920913546543 ,47,9449748600013 ,0,650084051573607
20.6534726 ,Left ,63,511491252 ,47,9228357997381 ,0,649713121815298
20.6763168 ,Left ,63,5204757203899 ,47,902618542977 ,0,650789339321008
20.6911275 ,Left ,63,5374856320972 ,47,8771646011049 ,0,653288227589239
20.7135787 ,Left ,63,5568010458623 ,47,8474022076144 ,0,660113675449167
20.7360347 ,Left ,63,5736644402583 ,47,8109114220224 ,0,672567546802824
20.7564832 ,Left ,63,5797769391646 ,47,7648994162788 ,0,679161226812052
20.7727746 ,Left ,63,5903792354982 ,47,7266197943581 ,0,686846537728397
20.7957405 ,Left ,63,5949529577566 ,47,7065993186822 ,0,692491874977935
20.8165028 ,Left ,63,6034147590357 ,47,6942335177103 ,0,690613852554384
20.8328183 ,Left ,63,6154807076622 ,47,6889930038212 ,0,67247937742586
20.8553922 ,Left ,63,6321573081506 ,47,6843524277906 ,0,647880659888358
20.8841693 ,Left ,63,6355824896894 ,47,7044643178665 ,0,62683175494795
20.8928006 ,Left ,63,6146193649457 ,47,729516514615 ,0,607381670962961
20.9151419 ,Left ,63,594272628278 ,47,7700264081719 ,0,586385855572801
20.9365573 ,Left ,63,5590135144614 ,47,8311947804551 ,0,549894150468512
20.9529279 ,Left ,63,5070540086857 ,47,8863393794665 ,0,513761913624371
20.9752067 ,Left ,63,4497779693927 ,47,9456547620097 ,0,49680367212044
20.9896005 ,Left ,63,381198610321 ,47,9984036901675 ,0,485873882960455
21.0131764 ,Left ,63,3084434295777 ,48,0355528869225 ,0,476576461373279
21.035295 ,Left ,63,2408805744449 ,48,038669473262 ,0,471058244858928
21.056565 ,Left ,63,202652611472 ,48,0072076145317 ,0,478498316050579
21.0727685 ,Left ,63,1354999919507 ,47,9528241149988 ,0,507386045393709
21.0952909 ,Left ,63,1494389452443 ,47,8465625817152 ,0,549461089725294
21.1165207 ,Left ,63,2058521317943 ,47,7715022373451 ,0,583355154682364
21.1327554 ,Left ,63,2543826813573 ,47,7475662433285 ,0,588929070402962
21.1552499 ,Left ,63,3189890925934 ,47,7479434210638 ,0,580784978122886
21.1765112 ,Left ,63,3768227593221 ,47,7546468873084 ,0,573725020779791
21.1927863 ,Left ,63,4117285415334 ,47,7562405304142 ,0,561569049543803
21.215215 ,Left ,63,4385408225767 ,47,7440582736478 ,0,552325337009206
21.2365263 ,Left ,63,4652631548952 ,47,7334387065162 ,0,535158939678479
21.2527052 ,Left ,63,4875904114879 ,47,7056911875427 ,0,523354301976501
21.2752956 ,Left ,63,4564099566557 ,47,6663953787913 ,0,556934759396699
21.2965642 ,Left ,63,4373438574879 ,47,6846697794179 ,0,613383857948816
21.3128038 ,Left ,63,4190856593522 ,47,7649535471885 ,0,650481445480295
21.3352821 ,Left ,63,4010419902582 ,47,8473596041649 ,0,654234106988419
21.3565335 ,Left ,63,3861091401864 ,47,894366013116 ,0,646193325854283
21.3727772 ,Left ,63,3730860547373 ,47,9136653681928 ,0,642725758631589
21.3953634 ,Left ,63,3707549959462 ,47,9337047485623 ,0,641114361958122
21.4165428 ,Left ,63,3682768304602 ,47,9309702620382 ,0,618712692943818
21.4327361 ,Left ,63,3351341726905 ,47,8719231930509 ,0,611411235093729
21.4552378 ,Left ,63,3394562705246 ,47,8117337088186 ,0,693228001766471
21.4765335 ,Left ,63,36432997219 ,47,8974824449555 ,0,732068855798562
21.4927504 ,Left ,63,3407088167561 ,48,0001633050873 ,0,715017037936621
21.5152969 ,Left ,63,3450957949477 ,48,0828086119035 ,0,715267062222047
21.5364143 ,Left ,63,3503923136121 ,48,145958765709 ,0,726035608280882
21.5528029 ,Left ,63,2926872292554 ,48,206367948972 ,0,725728232963503
21.5831641 ,Left ,63,2289225391656 ,48,2502815869782 ,0,724598267217376
21.596371 ,Left ,63,1693747321418 ,48,2409568050739 ,0,723195236603822
21.6127481 ,Left ,63,1601049493119 ,48,1764282986871 ,0,735788389970351
21.6352663 ,Left ,63,1828664669342 ,48,1037875014359 ,0,75817404148269
21.6577466 ,Left ,63,1677202629893 ,48,0512018500642 ,0,763555916837736
21.6727414 ,Left ,63,1720504191196 ,48,0728303741606 ,0,762169048270155
21.6952567 ,Left ,63,1795592678072 ,48,1221795543964 ,0,7408602375746
21.7177145 ,Left ,63,2133417883543 ,48,1457606994755 ,0,73681603008172
21.7327914 ,Left ,63,2730351488885 ,48,1344357012174 ,0,745968180352307
21.7552249 ,Left ,63,3116186724075 ,48,11499793409 ,0,737623419169813
21.7776174 ,Left ,63,3512577005208 ,48,1155643241787 ,0,708205226163039
21.7922041 ,Left ,63,4089645850825 ,48,1584126020269 ,0,65407402877768
21.81541 ,Left ,63,3998866308812 ,48,2060359538925 ,0,581915938621573
21.8453474 ,Left ,63,3892439420442 ,48,2414160194145 ,0,527833301382336
21.8520676 ,Left ,63,3742157439578 ,48,2560732421173 ,0,477502500892077
21.87512 ,Left ,63,3607683312403 ,48,2679841312023 ,0,447222354696698
21.8979361 ,Left ,63,3294080873573 ,48,2670361676484 ,0,437666779086567
21.9120503 ,Left ,63,2998249253341 ,48,2283231200457 ,0,441101486795702
21.9352611 ,Left ,63,3050247953112 ,48,1716764030321 ,0,481775354439399
21.9576334 ,Left ,63,2988029278846 ,48,1059630724136 ,0,529656938164553
21.9721191 ,Left ,63,3115019895364 ,48,0972248645048 ,0,572002493544201
21.9953472 ,Left ,63,375367665637 ,48,0875933819463 ,0,572919899326321
22.0176569 ,Left ,63,4386430563186 ,48,0250422281405 ,0,558652607838221
22.032077 ,Left ,63,5085852734063 ,47,9311934145118 ,0,546716803211832
22.0552466 ,Left ,63,5653106189577 ,47,8771267941157 ,0,54681099700014
22.0776495 ,Left ,63,5760821547073 ,47,8699014895072 ,0,542877391937643
22.091983 ,Left ,63,5944834291902 ,47,8667772751207 ,0,561794020209577
22.1154731 ,Left ,63,6302551136061 ,47,8486657039861 ,0,607106570222067
22.1381233 ,Left ,63,6629937896784 ,47,8217263765722 ,0,680778780752509
22.1588118 ,Left ,63,691230934032 ,47,7720868634633 ,0,752920429929943
22.1751917 ,Left ,63,728889400437 ,47,7764381734508 ,0,808493425689939
22.1976383 ,Left ,63,6918419452169 ,47,9311734432192 ,0,79351250891032
22.2183767 ,Left ,63,6274525779843 ,48,0835357925388 ,0,748509357479219
22.2352457 ,Left ,63,5958192859254 ,48,1489409469215 ,0,730553415745307
22.2579025 ,Left ,63,5657415673921 ,48,1409372976092 ,0,732645468930015
22.2789096 ,Left ,63,5234641102237 ,48,1143825807227 ,0,72055341760387
22.2952803 ,Left ,63,4979038487241 ,48,0813452800733 ,0,68768424346465
22.3177528 ,Left ,63,4974750374673 ,48,0349308271593 ,0,658246237799536
22.3388088 ,Left ,63,5106563698902 ,48,0051497831332 ,0,614186086252508
22.3552435 ,Left ,63,5201407750818 ,47,9882987543182 ,0,565450448488381
22.3774727 ,Left ,63,5444466843335 ,47,9988590744605 ,0,506844974321149
22.3986981 ,Left ,63,5688977914828 ,48,0190960814774 ,0,450494175125362
22.4152238 ,Left ,63,5772130255577 ,48,0306412091535 ,0,410324022706166
22.4379279 ,Left ,63,5828976486499 ,48,0330458696682 ,0,381120982142709
22.4592536 ,Left ,63,5828278043505 ,48,0241452690028 ,0,353592007093483
22.4755009 ,Left ,63,5755892126672 ,48,0026641582435 ,0,33568614166427
22.4980208 ,Left ,63,5678679527893 ,47,9780954560347 ,0,329268050693356
22.5187768 ,Left ,63,5679799743507 ,47,976316403877 ,0,328458804112012
22.5352687 ,Left ,63,5961986349686 ,47,9491257190258 ,0,32940212858981
22.5577231 ,Left ,63,6228265307039 ,47,8933433339864 ,0,336689262864783
22.5801418 ,Left ,63,6525547335725 ,47,832678797826 ,0,349895091540364
22.5952978 ,Left ,63,6899970740146 ,47,7768186072421 ,0,360605551787615
22.6176327 ,Left ,63,7271533102631 ,47,7226647742245 ,0,367635688817036
22.6403417 ,Left ,63,7471715444525 ,47,6634274594775 ,0,373342930916604
22.6551028 ,Left ,63,7694113036255 ,47,6076395680371 ,0,380455756423847
22.6776527 ,Left ,63,7699087018533 ,47,5961409318801 ,0,372918424679084
22.7001703 ,Left ,63,747294339801 ,47,6123218510722 ,0,354059945958561
22.7144616 ,Left ,63,7139647669816 ,47,6276615217278 ,0,333385544438146
22.7378448 ,Left ,63,684679928439 ,47,6474592216334 ,0,320977141613385
22.7601661 ,Left ,63,6529379009042 ,47,6759091913313 ,0,304015112874427
22.7745759 ,Left ,63,6082085362069 ,47,7113688308964 ,0,286811080397855
22.7977081 ,Left ,63,5598229172234 ,47,7560644714517 ,0,263348496663121
22.8201091 ,Left ,63,5237722789329 ,47,7981321196896 ,0,239820630948322
22.8345063 ,Left ,63,4920745694442 ,47,8445381681295 ,0,22012549263711
22.85764 ,Left ,63,4535687108229 ,47,8979260023583 ,0,199606809116953
22.8802289 ,Left ,63,4169918254391 ,47,9549309947559 ,0,184804828194658
22.8944975 ,Left ,63,3797251141537 ,48,0062163506452 ,0,177976362266508
22.9176697 ,Left ,63,3419413192577 ,48,0536809159602 ,0,184316934925632
22.9402347 ,Left ,63,2934216765828 ,48,0944900777956 ,0,196731893580291
22.9545947 ,Left ,63,2520221101129 ,48,1154271154147 ,0,21482154615363
22.9776412 ,Left ,63,2140028508906 ,48,111043286951 ,0,24692382084279
23.0001675 ,Left ,63,1699475076068 ,48,0945151590729 ,0,278278703137221
23.0211524 ,Left ,63,143917895097 ,48,0497631337455 ,0,304818966450528
23.0376063 ,Left ,63,1533177134765 ,47,9688771510678 ,0,343223281625648
23.0601504 ,Left ,63,1497229533986 ,47,884120044811 ,0,391401435416067
23.0810512 ,Left ,63,1720795682391 ,47,8038948699978 ,0,431470870503764
23.0977362 ,Left ,63,2139719484505 ,47,7412496144417 ,0,46305294018341
23.12025 ,Left ,63,2608765645885 ,47,7238725121875 ,0,492785327274997
23.1411141 ,Left ,63,3125663209636 ,47,7477328532758 ,0,514973001616315
23.1576403 ,Left ,63,3413686047982 ,47,7894187824944 ,0,518855227598333
23.1801639 ,Left ,63,3632456023772 ,47,820728920307 ,0,503703038330411
23.2011991 ,Left ,63,4020903123981 ,47,8432778584097 ,0,492181168833136
23.2176811 ,Left ,63,4117084722999 ,47,8528613044823 ,0,474544038040048
23.2400507 ,Left ,63,4128989023408 ,47,8210361899435 ,0,464508114413112
23.2612666 ,Left ,63,4134418481635 ,47,736016009828 ,0,473376043103095
23.2776476 ,Left ,63,4394020988759 ,47,6487529144225 ,0,522316364302733
23.3001261 ,Left ,63,4396741159388 ,47,6688292273867 ,0,544116963999378
23.3212105 ,Left ,63,465463466856 ,47,750645552689 ,0,530065809173445
23.3377426 ,Left ,63,4676352252414 ,47,8317968157586 ,0,510834926706599
23.3601644 ,Left ,63,4913061898461 ,47,8797471728104 ,0,496784914105844
23.3813593 ,Left ,63,4634769914465 ,47,8981023243432 ,0,487432474286901
23.3976273 ,Left ,63,4422010391638 ,47,9209181695588 ,0,48614459944613
23.4201101 ,Left ,63,3874227254026 ,47,9191376908124 ,0,467176118050941
23.4414395 ,Left ,63,3309080695688 ,47,8439324887437 ,0,507494012034465
23.4576643 ,Left ,63,3582722662577 ,47,8478040674781 ,0,586521437078184
23.4802211 ,Left ,63,3265646398643 ,47,9360038893118 ,0,597701193549549
23.5025785 ,Left ,63,2999756750143 ,48,011621835598 ,0,602868449324576
23.5177019 ,Left ,63,3072875991756 ,48,06363780078 ,0,619142988238236
23.5400986 ,Left ,63,2974272469131 ,48,0907398955576 ,0,635923007767248
23.5625245 ,Left ,63,2676510949448 ,48,1102994190207 ,0,633310632417715
23.5774577 ,Left ,63,2274148043058 ,48,0849735391355 ,0,636974550393499
23.6003067 ,Left ,63,2491300021414 ,48,0592164092909 ,0,635146647958229
23.622631 ,Left ,63,2521274712645 ,48,0295563249147 ,0,615501335051202
23.6376032 ,Left ,63,2859041138275 ,48,0093432156192 ,0,585567945835037
23.6603065 ,Left ,63,3267472893032 ,47,9963985453957 ,0,543474754256869
23.6826322 ,Left ,63,3660952344533 ,47,9893023516497 ,0,493342344519973
23.6969388 ,Left ,63,4001191327977 ,47,9690316120265 ,0,454572153361299
23.7202621 ,Left ,63,4408589789601 ,47,9333829419333 ,0,42555964376051
23.7425673 ,Left ,63,4754731375559 ,47,9047588279526 ,0,395713669806069
23.7569484 ,Left ,63,4989190706911 ,47,8808759684752 ,0,370722287620619
23.7799146 ,Left ,63,5282976964928 ,47,8512028276532 ,0,35335776333507
23.8023451 ,Left ,63,5530930308411 ,47,8105306230731 ,0,341894840904357
23.8168169 ,Left ,63,5842291059958 ,47,7753016543088 ,0,341086137098614
23.847535 ,Left ,63,596551447895 ,47,7607231141334 ,0,348586097005892
23.8625386 ,Left ,63,6050296985895 ,47,7478384965501 ,0,357191521414895
23.8770922 ,Left ,63,6128707515341 ,47,7308445720356 ,0,37032141593326
23.9002831 ,Left ,63,6291261026124 ,47,7095353861847 ,0,387353024962435
23.9227557 ,Left ,63,6345894351573 ,47,6901864922104 ,0,410333849400688
23.9369954 ,Left ,63,6419929156214 ,47,6752668849275 ,0,437371248647641
23.9601843 ,Left ,63,6446308758946 ,47,6639144867426 ,0,461989252640728
23.9826833 ,Left ,63,6563216680366 ,47,658334098579 ,0,482250233739003
24.0039878 ,Left ,63,6656869672502 ,47,6596531931266 ,0,497194184649939
24.0201784 ,Left ,63,678172917713 ,47,6718179734906 ,0,501947795844498
24.0425774 ,Left ,63,6823944243731 ,47,6899651483794 ,0,499260084694007
24.0637076 ,Left ,63,6956327482108 ,47,7008827240106 ,0,492686015178305
24.080262 ,Left ,63,7133060160015 ,47,7073725242934 ,0,485952032720548
24.1026255 ,Left ,63,7218051825586 ,47,725305343603 ,0,474258077125365
24.1239424 ,Left ,63,7271473918843 ,47,7403085875735 ,0,455067950998181
24.1402063 ,Left ,63,7322849755008 ,47,7466816852758 ,0,436174095412375
24.1626432 ,Left ,63,7317942183123 ,47,7399498309646 ,0,418140899465132
24.1838137 ,Left ,63,7332312755481 ,47,7270776680868 ,0,394912108772956
24.2002168 ,Left ,63,746801453461 ,47,7110575476413 ,0,363099089804968
24.2225263 ,Left ,63,7599348676762 ,47,6891556277204 ,0,334960139601008
24.2437907 ,Left ,63,7750710150646 ,47,6647156855521 ,0,307588241007914
24.2598892 ,Left ,63,7878124814978 ,47,640509385857 ,0,289105713363757
24.2826688 ,Left ,63,7953052397504 ,47,6115216969805 ,0,281575508835879
24.3037649 ,Left ,63,8075901786687 ,47,5849811127989 ,0,272760730227165
24.3200379 ,Left ,63,8276007047224 ,47,5690524621419 ,0,26821407580264
24.3425655 ,Left ,63,8382384737688 ,47,5612384593519 ,0,270225763597392
24.363741 ,Left ,63,8330951870209 ,47,5624649443176 ,0,281924982002474
24.3802264 ,Left ,63,823443300001 ,47,5646764678973 ,0,296559201138012
24.4026869 ,Left ,63,8161899279776 ,47,5624366280615 ,0,306764859742521
24.4251925 ,Left ,63,820184326846 ,47,5669079805731 ,0,315078885581361
24.4404061 ,Left ,63,797534464677 ,47,589928904662 ,0,318695856907725
24.4626814 ,Left ,63,7687604862014 ,47,632793755516 ,0,316915112324878
24.4852103 ,Left ,63,7337406162526 ,47,6928628354864 ,0,306229059986379
24.5001233 ,Left ,63,7001792816816 ,47,7670367291331 ,0,301806297058279
24.5227222 ,Left ,63,6322545194803 ,47,8329395970484 ,0,304236019309741
24.5453131 ,Left ,63,5750831049152 ,47,8816326802855 ,0,315039225547421
24.5604525 ,Left ,63,5243968885663 ,47,9078034621064 ,0,327851750847176
24.5826278 ,Left ,63,4937480675712 ,47,9189008816978 ,0,33902841556099
24.6049206 ,Left ,63,4228827034216 ,47,9240114305348 ,0,343480451761243
24.6344343 ,Left ,63,4000088131923 ,47,9132968619735 ,0,3314879035713
24.6431318 ,Left ,63,3947699385503 ,47,934825743542 ,0,302995935391447
24.6659818 ,Left ,63,4024859629722 ,47,9563387496122 ,0,278043071765037
24.6799283 ,Left ,63,4391834925175 ,47,9395729367134 ,0,278997429367415
24.7031031 ,Left ,63,5005000761295 ,47,8973826802002 ,0,301086276626113
24.7255159 ,Left ,63,5625703969136 ,47,868568943387 ,0,312011569353757
24.7399112 ,Left ,63,6189109599688 ,47,8583357031889 ,0,305978472213893
24.7623811 ,Left ,63,644251359905 ,47,868516775522 ,0,300380310912699
24.7849525 ,Left ,63,6618757609271 ,47,9069116341373 ,0,280422528444353
24.7993293 ,Left ,63,6693791365205 ,47,9451842357841 ,0,256846348174486
24.8225227 ,Left ,63,6567405688997 ,47,9752856848352 ,0,243545802901697
24.8451435 ,Left ,63,6373653433562 ,47,9916489880817 ,0,232844115744975
24.8594992 ,Left ,63,6100240352061 ,47,9983365178568 ,0,220384488524913
24.8825408 ,Left ,63,5829687614757 ,48,0144355747679 ,0,205831220958348
24.9048774 ,Left ,63,5617550352836 ,48,0273007304237 ,0,197959151729166
24.9260563 ,Left ,63,5578671504177 ,48,0219803999874 ,0,195802841032534
24.9426367 ,Left ,63,55582143688 ,47,9943325291576 ,0,200449419266607
24.965343 ,Left ,63,5724858498309 ,47,9652527626813 ,0,216161041820827
24.9867223 ,Left ,63,595822014803 ,47,9394648360247 ,0,228684635004159
25.0029796 ,Left ,63,6191263694122 ,47,9162435646046 ,0,240205588124441
25.0255267 ,Left ,63,6386019308175 ,47,8946916321238 ,0,252805127662784
25.0468273 ,Left ,63,6528971597617 ,47,8845910482443 ,0,264394218670473
25.0629899 ,Left ,63,6588773218304 ,47,8735707296617 ,0,27396006132127
25.086734 ,Left ,63,6624386785239 ,47,8592082711043 ,0,286405301928275
25.1066941 ,Left ,63,6708419110865 ,47,8421041819988 ,0,299524943184277
25.1230886 ,Left ,63,676425899502 ,47,8329914216979 ,0,314268029247838
25.1454808 ,Left ,63,6738227200286 ,47,8342050454498 ,0,325752822001725
25.1667879 ,Left ,63,6775447406246 ,47,8344610538119 ,0,334202087315377
25.1828241 ,Left ,63,681223788255 ,47,8277165590706 ,0,339387027689933
25.2055459 ,Left ,63,6939865363448 ,47,8147762026655 ,0,347676988205839
25.2263389 ,Left ,63,7001636334476 ,47,8027603009565 ,0,354627422700439
25.2426606 ,Left ,63,7001148816191 ,47,8053555347811 ,0,3536677814644
25.2652775 ,Left ,63,6915372149702 ,47,8080275658174 ,0,353301967563165
25.2862653 ,Left ,63,6915372149702 ,47,8080275658174 ,0,353301967563165
25.3028028 ,Left ,63,6850635657174 ,47,8073554936159 ,0,359895243741434
25.3252783 ,Left ,63,6714191214616 ,47,800911229828 ,0,37064191511013
25.3463807 ,Left ,63,6576745458489 ,47,7902493655118 ,0,385915933720565
25.362781 ,Left ,63,6546070811816 ,47,7829878747298 ,0,402077110667368
25.3853055 ,Left ,63,6522054203147 ,47,783249265796 ,0,41096593602168
25.4076123 ,Left ,63,6517437827049 ,47,7843606800004 ,0,417931682735904
25.4226757 ,Left ,63,6557376821574 ,47,7844612599347 ,0,422004708843434
25.4451764 ,Left ,63,655975757608 ,47,7809037892873 ,0,420373771431622
25.4675623 ,Left ,63,6601371417591 ,47,7764503875868 ,0,415861546713987
25.4826636 ,Left ,63,663165670357 ,47,770887789877 ,0,40888445080123
25.5051977 ,Left ,63,6589145933903 ,47,7803487850703 ,0,402740330805396
25.5278478 ,Left ,63,6503479903387 ,47,8080433679664 ,0,394510670264806
25.5420283 ,Left ,63,6271677002687 ,47,8452277364499 ,0,380832628048672
25.5652513 ,Left ,63,5930738326093 ,47,8851291646942 ,0,366853471144485
25.5876701 ,Left ,63,5498618941474 ,47,9235534979811 ,0,356916757042726
25.6021907 ,Left ,63,5086379871839 ,47,9655928973176 ,0,35271516519431
25.6252793 ,Left ,63,4698123701986 ,48,0155361237105 ,0,354055449825885
25.6477431 ,Left ,63,4280029488025 ,48,057813025071 ,0,353998116445714
25.66203 ,Left ,63,3954809627758 ,48,0903736979757 ,0,35545930405203
25.6852101 ,Left ,63,3785334315064 ,48,1104596811728 ,0,354741641888567
25.7080296 ,Left ,63,3698310189189 ,48,1405097496842 ,0,340849144516753
25.7220757 ,Left ,63,3623363651196 ,48,1872358965434 ,0,313084838542461
25.7453286 ,Left ,63,3538090055672 ,48,2362309518347 ,0,25650150621315
25.7753101 ,Left ,63,3499831629718 ,48,279621739996 ,0,192931370690772
25.7821395 ,Left ,63,3490283599328 ,48,3274916746304 ,0,15252373767841
25.8052851 ,Left ,63,32697810637 ,48,3846990697702 ,0,144999037123027
25.827631 ,Left ,63,3044199235685 ,48,4399033359351 ,0,151454168556157
25.8421174 ,Left ,63,2949524717964 ,48,4434940504195 ,0,17266288867035
25.865248 ,Left ,63,2800766637429 ,48,4159546936117 ,0,178154948146673
25.8877671 ,Left ,63,2679625078486 ,48,3905354859516 ,0,173863232332368
25.9090097 ,Left ,63,2569081324963 ,48,3666610206318 ,0,146810643505474
25.9252323 ,Left ,63,2661476182059 ,48,3007898887296 ,0,117213953536544
25.9477116 ,Left ,63,2986473484221 ,48,1925545236113 ,0,114387928150072
25.9687819 ,Left ,63,3286149356986 ,48,1014082695383 ,0,140282979907812
25.9851996 ,Left ,63,3331767541563 ,48,0624357610479 ,0,184457102680486
26.0076462 ,Left ,63,3552348211435 ,48,0770201678317 ,0,240848361661125
26.0303058 ,Left ,63,3921492302093 ,48,1080993178611 ,0,301753459137304
26.0451763 ,Left ,63,4327055407566 ,48,117715223337 ,0,372092455268214
26.0676582 ,Left ,63,474080148174 ,48,0620305390288 ,0,449456332530315
26.0887182 ,Left ,63,5172661887617 ,48,038697313454 ,0,492165435478363
26.1123917 ,Left ,63,5240139398132 ,47,9968795153193 ,0,494279163954368
26.1274698 ,Left ,63,5693214133682 ,47,9432142239036 ,0,495197899215715
26.1488549 ,Left ,63,6055952767631 ,47,8909172921102 ,0,50784878289994
26.1654548 ,Left ,63,6572300488072 ,47,8567287588495 ,0,549189389883306
26.1878262 ,Left ,63,6983349972463 ,47,8500913394606 ,0,577999820002908
26.2086617 ,Left ,63,6776521492611 ,47,7687947394658 ,0,589240991038046
26.2244983 ,Left ,63,740368011348 ,47,7079217809432 ,0,626057251537917
26.2476251 ,Left ,63,721949307609 ,47,7409226037151 ,0,640223795630919
26.2687106 ,Left ,63,7012954887495 ,47,8330039888727 ,0,647230488897386
26.2845047 ,Left ,63,7401803996287 ,47,8814050092389 ,0,626395941744383
26.3076183 ,Left ,63,6837186210485 ,47,8756354423455 ,0,607729901130797
26.3301671 ,Left ,63,6603260009314 ,47,8887659929333 ,0,595776134526967
26.3451442 ,Left ,63,6496696818926 ,47,9344043252599 ,0,548656445266092
26.3675157 ,Left ,63,6426899778168 ,47,9352741864825 ,0,519452858246425
26.3903116 ,Left ,63,6649033704168 ,47,9115666259049 ,0,550209167527728
26.4051665 ,Left ,63,7045490213203 ,47,9003947257801 ,0,574974762082568
26.4276809 ,Left ,63,7161103609212 ,47,928326603577 ,0,554957448697636
26.4501805 ,Left ,63,7299956387934 ,47,9967623806664 ,0,521265636744725
26.465272 ,Left ,63,7289920444112 ,48,0775021497564 ,0,485536178211885
26.4876325 ,Left ,63,7277398527282 ,48,1330315618021 ,0,448926608915853
26.5102487 ,Left ,63,7249247983872 ,48,1392557525595 ,0,426243616594101
26.5244657 ,Left ,63,7234975644881 ,48,1136381343033 ,0,412369301839819
26.5476904 ,Left ,63,7333065483753 ,48,0791249883885 ,0,398111056556287
26.5706211 ,Left ,63,741762377908 ,48,0409039580749 ,0,37794758379823
26.5847854 ,Left ,63,755872662563 ,47,9987087141596 ,0,37059650632663
26.6080064 ,Left ,63,7734949940601 ,47,9620552122856 ,0,374127109667365
26.6302837 ,Left ,63,7868154159681 ,47,9246120383311 ,0,379670693629073
26.6447372 ,Left ,63,8010640116709 ,47,8883751588518 ,0,392022683640724
26.6678436 ,Left ,63,8125169261398 ,47,8440317002236 ,0,403090575251879
26.6902997 ,Left ,63,8336558551689 ,47,8032624003226 ,0,415053097008285
26.7047886 ,Left ,63,8423749068057 ,47,7797588132073 ,0,418626005383854
26.7280055 ,Left ,63,8426619035055 ,47,764157868099 ,0,424312065963019
26.7503957 ,Left ,63,8535439292729 ,47,7405584587724 ,0,42334697399605
26.7645803 ,Left ,63,858962999778 ,47,7055012686796 ,0,419631725318807
26.7878168 ,Left ,63,861423138311 ,47,6767925212115 ,0,421151819630251
26.8104159 ,Left ,63,863530953549 ,47,6603839386424 ,0,428452790180998
26.8313655 ,Left ,63,8568062830068 ,47,6381597814129 ,0,444437532663167
26.8535379 ,Left ,63,8561621223768 ,47,6150896033932 ,0,461729444311092
26.8702865 ,Left ,63,8536995108875 ,47,5858304122766 ,0,474110180178575
26.8913282 ,Left ,63,8729521514706 ,47,5527304125218 ,0,483181966344603
26.9076225 ,Left ,63,8750628572022 ,47,5363017153897 ,0,490474037309768
26.9300643 ,Left ,63,8643838495354 ,47,530351811158 ,0,490607680950013
26.9513342 ,Left ,63,8487731158525 ,47,520323019236 ,0,495599501305951
26.9676671 ,Left ,63,8421970608866 ,47,5092255441842 ,0,501684066586169
26.9901582 ,Left ,63,8356206635517 ,47,4981294893382 ,0,507773573412608
27.0112901 ,Left ,63,8117396257507 ,47,5020761447245 ,0,515661852609737
27.0281156 ,Left ,63,7893621187019 ,47,5138737684836 ,0,516167770518643
27.0505212 ,Left ,63,7768967880837 ,47,5217390457446 ,0,514294623591166
27.0718439 ,Left ,63,7658429061447 ,47,5211285615365 ,0,516922509617692
27.0882279 ,Left ,63,7420666155159 ,47,5249485286043 ,0,516043296252642
27.110425 ,Left ,63,7209700991957 ,47,5381297634716 ,0,512903334675658
27.1315941 ,Left ,63,6952107186248 ,47,5497073220958 ,0,509278994362383
27.1476594 ,Left ,63,6710288883178 ,47,552017876941 ,0,516306674630591
27.1714748 ,Left ,63,6486133683477 ,47,5501349976622 ,0,527703292250526
27.1913011 ,Left ,63,6331951954612 ,47,5549642239261 ,0,537452680298754
27.2076222 ,Left ,63,6104579259184 ,47,5678728468149 ,0,544830669322895
27.2299543 ,Left ,63,5843015354017 ,47,580572921195 ,0,548109836012496
27.251144 ,Left ,63,5626727404339 ,47,5896450970247 ,0,549419271639249
27.2675768 ,Left ,63,5437776256375 ,47,595868655896 ,0,547134435690467
27.2906531 ,Left ,63,5245210645412 ,47,597830946254 ,0,545036277026313
27.3128839 ,Left ,63,5142667916975 ,47,5925288393715 ,0,539054402338106
27.3275229 ,Left ,63,5020754982955 ,47,5827682232532 ,0,529041726761552
27.3501758 ,Left ,63,4945599558053 ,47,574602664466 ,0,519489786900499
27.3727352 ,Left ,63,4869723997804 ,47,5656227580215 ,0,511727075677986
27.3876019 ,Left ,63,4827355572162 ,47,5560683923141 ,0,509826234179127
27.4102485 ,Left ,63,4891885826634 ,47,5472876335813 ,0,509683069323687
27.4332419 ,Left ,63,5045591937274 ,47,5400530670565 ,0,509658890861104
27.4469249 ,Left ,63,517368444563 ,47,5372879917229 ,0,509640187650969
27.4702607 ,Left ,63,529752024878 ,47,5424710064838 ,0,511076244721265
27.4926103 ,Left ,63,5409328174302 ,47,5517106859429 ,0,508106267543058
27.5068917 ,Left ,63,547659708644 ,47,5583765243248 ,0,502089261540892
27.5300799 ,Left ,63,547659708644 ,47,5583765243248 ,0,502089261540892
27.5525864 ,Left ,63,547659708644 ,47,5583765243248 ,0,502089261540892
27.5670344 ,Left ,63,5477053301996 ,47,555781132086 ,0,503061486747889
27.5903646 ,Left ,63,5471705524298 ,47,5559056836118 ,0,503083822299519
27.6126858 ,Left ,63,5495669068088 ,47,5558152097824 ,0,502908011081479
27.6270341 ,Left ,63,5495669068088 ,47,5558152097824 ,0,502908011081479
27.6501477 ,Left ,63,5558298184854 ,47,5670223204529 ,0,501111358599009
27.6725013 ,Left ,63,5578363718313 ,47,5782853191088 ,0,499645513941553
27.6869196 ,Left ,63,56195393023 ,47,5896177478118 ,0,502384428409866
27.7101653 ,Left ,63,5615335896086 ,47,5975622729764 ,0,503848490663911
27.7326489 ,Left ,63,5506161215229 ,47,6073713996203 ,0,506917203269305
27.7467435 ,Left ,63,5439621037356 ,47,6171244468215 ,0,509657460239421
27.7760066 ,Left ,63,5367000168737 ,47,626188185885 ,0,514201281634503
27.7926721 ,Left ,63,5276269133764 ,47,6326286482649 ,0,519860754112849
27.8137078 ,Left ,63,5189333194897 ,47,6433289147495 ,0,525322733737026
27.8300831 ,Left ,63,5100309296901 ,47,6513920423549 ,0,52740586194975
27.8526647 ,Left ,63,5101092819843 ,47,6522007672709 ,0,52562295785828
27.8739791 ,Left ,63,5118485690805 ,47,6540138425675 ,0,526288358927005
27.8902207 ,Left ,63,5145581802294 ,47,6511665429606 ,0,522716405927915
27.9126798 ,Left ,63,5300105285753 ,47,6445321404336 ,0,512230150300167
27.9340229 ,Left ,63,5505547965434 ,47,6315708526547 ,0,500741707442419
27.9502618 ,Left ,63,5659611171639 ,47,6241442836747 ,0,49201471416794
27.972722 ,Left ,63,5833254057662 ,47,624771188472 ,0,493306774789471
27.9938493 ,Left ,63,5938357512529 ,47,6265084676015 ,0,497684527989994
28.0102239 ,Left ,63,5914385080491 ,47,6265969615929 ,0,497855871308378
28.0326974 ,Left ,63,5914385080491 ,47,6265969615929 ,0,497855871308378
28.0538337 ,Left ,63,5926402564661 ,47,6363916390038 ,0,480833790300325
28.0701454 ,Left ,63,587751150233 ,47,6460109768603 ,0,455550142192193
28.0927052 ,Left ,63,5783429754145 ,47,6462213811898 ,0,432691686454379
28.1138228 ,Left ,63,5668469597159 ,47,6309339160043 ,0,415818660125454
28.129928 ,Left ,63,5681404264672 ,47,6060965108875 ,0,404463788279895
28.1525358 ,Left ,63,5670914299813 ,47,5823457211813 ,0,400237756250339
28.1738764 ,Left ,63,5693756971619 ,47,5710338544675 ,0,401366776600737
28.1901262 ,Left ,63,5860565752703 ,47,5571952270073 ,0,406689430510056
28.2126929 ,Left ,63,6056292442615 ,47,5457331179657 ,0,41085353560765
28.218097 ,Left ,63,6268908519508 ,47,5386847001601 ,0,41468839777034
28.2436111 ,Left ,63,6421753433002 ,47,5392798376035 ,0,411736071751353
28.2557901 ,Left ,63,6444777708345 ,47,5538187656798 ,0,403177262601885
28.2784132 ,Left ,63,6446180014425 ,47,5778906309714 ,0,392704787601174
28.3007635 ,Left ,63,649424301845 ,47,6035745122976 ,0,382722534628398
28.3159895 ,Left ,63,6533496467838 ,47,6251284074294 ,0,37290242499701
28.3382918 ,Left ,63,653648251003 ,47,6414029581079 ,0,365334829693515
28.3609679 ,Left ,63,6535502063386 ,47,6630175061949 ,0,360216857196203
28.3757798 ,Left ,63,6469646993067 ,47,6933781315765 ,0,355271773960827
28.3982131 ,Left ,63,6402167340013 ,47,7281080567489 ,0,350164109260471
28.4203698 ,Left ,63,6136539685148 ,47,7613897137117 ,0,3455932324213
28.4355378 ,Left ,63,5830428694201 ,47,7999152690716 ,0,343699003881269
28.4578581 ,Left ,63,5519623717475 ,47,8637299168344 ,0,342532621788199
28.4804251 ,Left ,63,4992650131721 ,47,939999957415 ,0,343905776279932
28.495592 ,Left ,63,4300632645884 ,48,0065974873901 ,0,339499676014644
28.5181176 ,Left ,63,3608270760741 ,48,0551755009459 ,0,341707337778023
28.5407619 ,Left ,63,304180131956 ,48,0945033350428 ,0,353836850198989
28.555744 ,Left ,63,2389970531637 ,48,125305309766 ,0,36674073566775
28.578104 ,Left ,63,1701167203543 ,48,1316819742497 ,0,377489219477121
28.600752 ,Left ,63,115938090965 ,48,1107077169259 ,0,400980792639004
28.6170472 ,Left ,63,0832205960859 ,48,0628526892253 ,0,430787376822524
28.6382176 ,Left ,63,084190768326 ,47,9958607987627 ,0,467442712067778
28.6607928 ,Left ,63,0894260449656 ,47,9210652758549 ,0,506855924969969
28.6770077 ,Left ,63,1196621003204 ,47,869390105622 ,0,54419845279806
28.6980833 ,Left ,63,1562892853039 ,47,8409973944459 ,0,580670004816323
28.7207306 ,Left ,63,2138846591598 ,47,8390542675262 ,0,612559218656987
28.7368981 ,Left ,63,2677456295591 ,47,8695101147203 ,0,629189419374141
28.7578029 ,Left ,63,290178072817 ,47,9244307321093 ,0,637267785887956
28.7806336 ,Left ,63,3003099346393 ,47,974197455268 ,0,643828909104253
28.796914 ,Left ,63,3056010760987 ,48,0276929170674 ,0,65232201825384
28.8184785 ,Left ,63,3039162298711 ,48,0595326375561 ,0,643077633643058
28.8412822 ,Left ,63,3044503267592 ,48,0522019647245 ,0,63553921046268
28.8567651 ,Left ,63,2876508246088 ,48,0046864138724 ,0,638835572255199
28.8780538 ,Left ,63,2888067620747 ,47,9004944880284 ,0,667262649925267
28.9004005 ,Left ,63,3186936568097 ,47,8295991922603 ,0,713041856995662
28.9168736 ,Left ,63,3240572761669 ,47,8624460015261 ,0,729440579475276
28.9380792 ,Left ,63,3299125780961 ,47,9572475524069 ,0,726394750816955
28.9606426 ,Left ,63,3275906083821 ,48,0615198284652 ,0,717362333747785
28.97697 ,Left ,63,3057532872701 ,48,1396887965797 ,0,721146828145582
28.997912 ,Left ,63,2944946832436 ,48,1699830605091 ,0,730847344811868
29.0206538 ,Left ,63,2650235774185 ,48,1791241897759 ,0,727754854613706
29.0370936 ,Left ,63,2552704307398 ,48,1748167786171 ,0,705019214253036
29.0580393 ,Left ,63,2362078166049 ,48,1324693049452 ,0,668098846463182
29.0806648 ,Left ,63,2369242886689 ,48,0301095823729 ,0,659153968064442
29.0969997 ,Left ,63,2852707301363 ,47,9173408003707 ,0,691973977356994
29.1180971 ,Left ,63,2890008173844 ,47,8819229213554 ,0,699539227277167
29.1408394 ,Left ,63,2871274910034 ,47,9062306778858 ,0,697613898561536
29.1586696 ,Left ,63,2919714854836 ,47,9541910023358 ,0,680193401260333
29.1781121 ,Left ,63,2908198889121 ,47,9983501435597 ,0,652902645846611
29.2009278 ,Left ,63,2919681093192 ,48,0416173935012 ,0,627239718345252
29.2182325 ,Left ,63,2682042436434 ,48,0978073340543 ,0,627764762244494
29.238019 ,Left ,63,2294100311028 ,48,1748903066437 ,0,621119794892357
29.2603702 ,Left ,63,1788678661103 ,48,2147033705156 ,0,617655463867154
29.2784894 ,Left ,63,1418130524662 ,48,1959586583586 ,0,630358379074514
29.2980451 ,Left ,63,1386620286252 ,48,1486874897267 ,0,660878172954414
29.3207973 ,Left ,63,1446540808827 ,48,1055308750275 ,0,67148702243838
29.3388589 ,Left ,63,1249555037705 ,48,0342816401744 ,0,686036113628236
29.358438 ,Left ,63,1317619148525 ,47,9332962417486 ,0,726670530037056
29.3807488 ,Left ,63,1772711347119 ,47,9250008411957 ,0,754590366368582
29.3987098 ,Left ,63,1669013662748 ,48,0150015657296 ,0,734979309802373
29.4183759 ,Left ,63,1680576512977 ,48,1061794691408 ,0,711016214230097
29.440907 ,Left ,63,2084246211925 ,48,164746649584 ,0,713459380634306
29.4587559 ,Left ,63,2222583558864 ,48,1998950967817 ,0,724021245079678
29.4784503 ,Left ,63,2287614092244 ,48,2234226379556 ,0,727681813077652
29.500733 ,Left ,63,2248847466117 ,48,2282499779821 ,0,717214879615942
29.518858 ,Left ,63,2493850394115 ,48,2685646917168 ,0,695545327494923
29.5382092 ,Left ,63,2551358687453 ,48,2996696873524 ,0,653665136261363
29.5610207 ,Left ,63,2523864818021 ,48,3327094152245 ,0,613019784942033
29.5786117 ,Left ,63,2398199521347 ,48,3559540843696 ,0,566357339152394
29.5984734 ,Left ,63,2266724873856 ,48,3784407143232 ,0,521520471649428
29.6284024 ,Left ,63,2074230007531 ,48,3851566511376 ,0,474269916644696
29.6385584 ,Left ,63,2044442174976 ,48,359474467453 ,0,446079892212379
29.6582984 ,Left ,63,2099523329215 ,48,304817439629 ,0,434547164579004
29.6808353 ,Left ,63,2229795041357 ,48,1958037477418 ,0,453999235882083
29.698546 ,Left ,63,2367223364017 ,48,1104822516094 ,0,496577204011263
29.7210997 ,Left ,63,2567498765873 ,48,114580454218 ,0,51435366682017
29.7407674 ,Left ,63,3163698242291 ,48,13955626878 ,0,505265873055718
29.7584637 ,Left ,63,3834295510315 ,48,1113677501196 ,0,499916116818284
29.7795098 ,Left ,63,4434376043837 ,48,0256102034013 ,0,50952398444676
29.8007698 ,Left ,63,4937720309845 ,47,9574701787772 ,0,546610415937671
29.8186443 ,Left ,63,5068471166299 ,47,9427078151239 ,0,573388003600806
29.8397136 ,Left ,63,53594882616 ,47,9429460128556 ,0,59325551062103
29.8605003 ,Left ,63,5649360507148 ,47,9501003386494 ,0,611992152271825
29.8786249 ,Left ,63,605012380543 ,47,9510418298879 ,0,65728335697444
29.8996023 ,Left ,63,6320866001335 ,47,9420436810489 ,0,71596601227084
29.9207481 ,Left ,63,633834727552 ,47,9122318834392 ,0,762283655792832
29.9386288 ,Left ,63,6508964982286 ,47,9053802247381 ,0,803236724908825
29.9596184 ,Left ,63,6293771204269 ,48,0146865423554 ,0,800600569624003
29.980594 ,Left ,63,5710121767883 ,48,1488032945327 ,0,761625785655458
30.0032571 ,Left ,63,5335413670217 ,48,2128912189927 ,0,728219645398679
30.020918 ,Left ,63,5017685960967 ,48,2176368205947 ,0,72113082307767
30.0406192 ,Left ,63,4684111149142 ,48,184008911496 ,0,71394658202705
30.0631404 ,Left ,63,4394592597983 ,48,1454666440108 ,0,693762314337303
30.0795252 ,Left ,63,437368440853 ,48,097851523766 ,0,657572972091828
30.1007253 ,Left ,63,4713951347361 ,48,0481018158277 ,0,627079822808245
30.1232194 ,Left ,63,4841849229728 ,47,9994869283716 ,0,591697846393538
30.1411837 ,Left ,63,5121369767103 ,47,9775198549894 ,0,552460136522205
30.1607466 ,Left ,63,5537517926872 ,47,9819222089608 ,0,50081052048225
30.1845648 ,Left ,63,5818607123172 ,47,986043858369 ,0,456158200418454
30.2009982 ,Left ,63,5945605134898 ,47,9957816724804 ,0,41489868310541
30.2206298 ,Left ,63,6142118425227 ,48,0208664030446 ,0,367430981332814
30.2430149 ,Left ,63,6033256872955 ,48,0436960237979 ,0,31846237203436
30.2610873 ,Left ,63,5771472162706 ,48,0704008893635 ,0,280740420558769
30.2807896 ,Left ,63,5527978383546 ,48,0930956707299 ,0,256111910008157
30.3035617 ,Left ,63,5166949440546 ,48,1051422663976 ,0,246482688597289
30.3213269 ,Left ,63,4670285272366 ,48,1093749820881 ,0,25975656401135
30.3407209 ,Left ,63,4225373073036 ,48,0962176889499 ,0,292587502436088
30.3632566 ,Left ,63,3780617039454 ,48,0738011759225 ,0,331980162022049
30.3811617 ,Left ,63,3465453471859 ,48,0485925072053 ,0,367280354722422
30.4008496 ,Left ,63,3242116919705 ,47,9815920407905 ,0,404854693682199
30.4233957 ,Left ,63,315356491432 ,47,8826170564403 ,0,470146809704677
30.4410919 ,Left ,63,3329871776484 ,47,8110859594405 ,0,514090007134184
30.4609531 ,Left ,63,2998538810492 ,47,8019326821999 ,0,53339549783659
30.4834783 ,Left ,63,2847494701768 ,47,8221483148584 ,0,53262047169561
30.5010776 ,Left ,63,2971979661617 ,47,8429134419439 ,0,532525229654832
30.5220599 ,Left ,63,3158828372688 ,47,86809452606 ,0,536176043290796
30.5434422 ,Left ,63,3348858774981 ,47,8819480452399 ,0,541222759251978
30.5610962 ,Left ,63,3521753065974 ,47,8945147069904 ,0,535128994752266
30.5808232 ,Left ,63,3914261953125 ,47,8865449089864 ,0,525005031725009
30.6033266 ,Left ,63,421705111874 ,47,8700054650429 ,0,511481511719133
30.6213152 ,Left ,63,4530673034069 ,47,8291179142193 ,0,504105379795954
30.6409774 ,Left ,63,4678590388158 ,47,8134449419411 ,0,508967997258872
30.663107 ,Left ,63,4803243833716 ,47,8282284841616 ,0,512723153386386
30.6810503 ,Left ,63,5138451945438 ,47,8376998280982 ,0,521361999504781
30.7008811 ,Left ,63,536082797095 ,47,8337040382064 ,0,537427895506729
30.723494 ,Left ,63,5544016800397 ,47,8184137783031 ,0,555070844613888
30.7411156 ,Left ,63,5776935191526 ,47,8019548303278 ,0,569773544994028
30.7621687 ,Left ,63,6007932945343 ,47,8010256827506 ,0,578654571469393
30.7834096 ,Left ,63,6171526929116 ,47,8080188267491 ,0,58510198807569
30.8010416 ,Left ,63,6447861751845 ,47,8068445532996 ,0,589321655037104
30.8297412 ,Left ,63,677377932918 ,47,8131219703345 ,0,585953234223566
30.8432844 ,Left ,63,7037442043458 ,47,8244723592494 ,0,572402926887978
30.8609286 ,Left ,63,7257800768702 ,47,8410994807185 ,0,557250632264257
30.8818842 ,Left ,63,7432707734682 ,47,8605385298367 ,0,54582462283203
30.902995 ,Left ,63,7609718315695 ,47,8616554234146 ,0,5323874640804
30.9210661 ,Left ,63,7752344804962 ,47,8539992125638 ,0,519465246566416
30.9420905 ,Left ,63,7848352828598 ,47,8541814635109 ,0,499635081783936
30.9631489 ,Left ,63,7848641013641 ,47,8488805137664 ,0,469306546574033
30.9809618 ,Left ,63,7808187769637 ,47,8425214984981 ,0,427951757833413
31.0054273 ,Left ,63,7786784817805 ,47,8327606641892 ,0,389173987253254
31.0228312 ,Left ,63,7729305052966 ,47,8333253490239 ,0,351229666586315
31.040787 ,Left ,63,7600867111532 ,47,8349079599989 ,0,311955631367559
31.0638523 ,Left ,63,7538905802443 ,47,8261040460814 ,0,280431965391058
31.0835571 ,Left ,63,7433407718275 ,47,8190829130982 ,0,250029267747167
31.1014211 ,Left ,63,7323218117316 ,47,8225579226943 ,0,220174015092501
31.1238272 ,Left ,63,733475890067 ,47,8254172370417 ,0,199948972180153
31.143346 ,Left ,63,7300073796327 ,47,8276123065713 ,0,186169436787195
31.1610601 ,Left ,63,7303695797712 ,47,8282915619858 ,0,180019755623898
31.1834806 ,Left ,63,7289585728487 ,47,8331520420584 ,0,169519442025027
31.2029231 ,Left ,63,7293218719761 ,47,8338307863013 ,0,163370120800633
31.2211162 ,Left ,63,7289249742107 ,47,8321709617718 ,0,162522974077029
31.2436042 ,Left ,63,7315197060473 ,47,8277337948364 ,0,162528637519832
31.2633114 ,Left ,63,738621436761 ,47,8024946447268 ,0,165496431894405
31.2811618 ,Left ,63,7371624306577 ,47,7728844026123 ,0,164796551541352
31.3027539 ,Left ,63,7429353110372 ,47,7455126445194 ,0,153942284850332
31.3260656 ,Left ,63,7531665848119 ,47,7163535563625 ,0,141941977066339
31.3411795 ,Left ,63,7563125006529 ,47,6891863069255 ,0,135574037319304
31.3635935 ,Left ,63,7592093764895 ,47,6527139795447 ,0,140004191316079
31.3833076 ,Left ,63,77559153725 ,47,5962220148115 ,0,149318716746902
31.4011908 ,Left ,63,7821430619729 ,47,5453259447371 ,0,166068937200427
31.4236406 ,Left ,63,7713015559393 ,47,5126861933949 ,0,181898401425937
31.4432992 ,Left ,63,7642522596033 ,47,4982529109589 ,0,190707038987379
31.4609814 ,Left ,63,7576793994002 ,47,4975217436975 ,0,19740086399875
31.4836697 ,Left ,63,7399220194754 ,47,5012861777415 ,0,204797124406726
31.5032425 ,Left ,63,7175879127597 ,47,5008275618429 ,0,212641750433135
31.5211962 ,Left ,63,7043463433607 ,47,5002048253347 ,0,219831967164324
31.5436309 ,Left ,63,6885619494404 ,47,5092573565757 ,0,229516554931545
31.5634199 ,Left ,63,6808012585269 ,47,5184088253008 ,0,238487413835787
31.5813843 ,Left ,63,6709236547673 ,47,5250548734696 ,0,252981839271325
31.6039117 ,Left ,63,6637964242437 ,47,5220502880481 ,0,269389706644716
31.6250201 ,Left ,63,6582651954368 ,47,5216873119718 ,0,280255177738998
31.641042 ,Left ,63,6560527732731 ,47,518367412917 ,0,287561274415458
31.6632221 ,Left ,63,6529518531334 ,47,5213438998778 ,0,295520074589801
31.6846304 ,Left ,63,6356489321871 ,47,5224261061548 ,0,299469333079169
31.7009525 ,Left ,63,6227645841044 ,47,5216985949779 ,0,302264512348034
31.7236212 ,Left ,63,6162188691176 ,47,5166125925974 ,0,304701424561132
31.7445947 ,Left ,63,6162188691176 ,47,5166125925974 ,0,304701424561132
31.7612078 ,Left ,63,6123656463625 ,47,507879330617 ,0,3053484753996
31.7833771 ,Left ,63,6076860252998 ,47,5028453360964 ,0,307613950570699
31.8044884 ,Left ,63,6076860252998 ,47,5028453360964 ,0,307613950570699
31.820189 ,Left ,63,6035955445506 ,47,504503393518 ,0,304386513836069
31.8487485 ,Left ,63,5955360635779 ,47,5026214344232 ,0,299871127532407
31.8637901 ,Left ,63,5979349304149 ,47,502540757666 ,0,299707828608057
31.88007 ,Left ,63,5974005445546 ,47,5026734180733 ,0,299694346581832
31.9026133 ,Left ,63,5975477524361 ,47,5008895111284 ,0,298880564388394
31.9238561 ,Left ,63,5975477524361 ,47,5008895111284 ,0,298880564388394
31.9401158 ,Left ,63,6147312913179 ,47,4999818782437 ,0,303697488317212
31.9627103 ,Left ,63,629074460033 ,47,5000972537252 ,0,30688109644561
31.9838341 ,Left ,63,6435444787891 ,47,508839232909 ,0,309777424821237
32.000353 ,Left ,63,654056222958 ,47,5184421952672 ,0,315629694877613
32.0227481 ,Left ,63,6551728741861 ,47,5239866186321 ,0,322287551553442
32.0453567 ,Left ,63,663557371396 ,47,5266844805742 ,0,329419805600126
32.0666522 ,Left ,63,6755977916068 ,47,528655889746 ,0,337989603620984
32.0827884 ,Left ,63,6903021382735 ,47,5329930954548 ,0,34105344528393
32.1052929 ,Left ,63,7071676097032 ,47,5338117392549 ,0,342310960309892
32.1197234 ,Left ,63,7202776538532 ,47,5301435732152 ,0,339662757446515
32.1428384 ,Left ,63,7372144532908 ,47,528357870344 ,0,341877329280025
32.1652305 ,Left ,63,7441006262725 ,47,5238573470312 ,0,341511584417738
32.1797722 ,Left ,63,7486073248917 ,47,5228637386433 ,0,338572672654461
32.2028133 ,Left ,63,7555461800395 ,47,5252127101693 ,0,332732288012176
32.22523 ,Left ,63,7540210384159 ,47,5274932130543 ,0,318795165944355
32.2395799 ,Left ,63,7485848657273 ,47,5280285236817 ,0,308763962285732
32.262556 ,Left ,63,7449622865559 ,47,5312111632323 ,0,297600887597436
32.285101 ,Left ,63,7328961156902 ,47,5386908207686 ,0,282590495430057
32.2992813 ,Left ,63,7211818634152 ,47,5538277652443 ,0,264712814912321
32.3227336 ,Left ,63,7049258411005 ,47,5759506389703 ,0,246056420291885
32.3452053 ,Left ,63,6837268149865 ,47,5999787484182 ,0,228503823290191
32.3598162 ,Left ,63,6673397399473 ,47,6238305900562 ,0,210620919307197
32.3827554 ,Left ,63,6526165565903 ,47,6520916748799 ,0,192392969559022
32.4052031 ,Left ,63,6316495082933 ,47,6854751389027 ,0,172697621851885
32.4196829 ,Left ,63,608526318554 ,47,7179215104293 ,0,150508506928984
32.4429777 ,Left ,63,5876932707499 ,47,7564527589458 ,0,133201548532121
32.4651593 ,Left ,63,5612955974792 ,47,8101838207949 ,0,125216274861946
32.4863655 ,Left ,63,5123923971182 ,47,8713268676829 ,0,126162859100204
32.5027231 ,Left ,63,4656991109586 ,47,9281303539532 ,0,126939539802415
32.5252255 ,Left ,63,4064265571837 ,47,9781627587455 ,0,133909585572498
32.5462583 ,Left ,63,351034562504 ,48,0285733609437 ,0,149149852229476
32.5627712 ,Left ,63,2962400560926 ,48,0368709601777 ,0,177483066930634
32.5851888 ,Left ,63,255390332394 ,48,0103698306598 ,0,221333053499216
32.6062079 ,Left ,63,1958398869903 ,47,980649944986 ,0,269284249398651
32.6228768 ,Left ,63,1767228093689 ,47,9104179057651 ,0,328977198648229
32.645259 ,Left ,63,1950899100249 ,47,8574482906685 ,0,389689077247643
32.6665921 ,Left ,63,1986430755967 ,47,8518083497292 ,0,435944281841939
32.6826747 ,Left ,63,2239401664268 ,47,8792085534406 ,0,467749691654313
32.7053317 ,Left ,63,2692515936876 ,47,8988999567836 ,0,490782316811759
32.7266531 ,Left ,63,2957815281425 ,47,9261754942702 ,0,503420786324616
32.742656 ,Left ,63,3193932190018 ,47,9533119491704 ,0,492763267323999
32.7713473 ,Left ,63,3381197359373 ,47,9562120116818 ,0,465261121277482
32.7891359 ,Left ,63,3295761333373 ,47,9469180591967 ,0,429629180178214
32.8027411 ,Left ,63,3183709831172 ,47,9069951236777 ,0,410401377886386
32.825455 ,Left ,63,3457930993976 ,47,8432842012806 ,0,435879453725552
32.8464113 ,Left ,63,3546980764151 ,47,8340155821428 ,0,465329995430758
32.8627757 ,Left ,63,3623443353843 ,47,872596089496 ,0,473538194284613
32.8855101 ,Left ,63,3740746914327 ,47,9266152387871 ,0,475572296804844
32.906242 ,Left ,63,3819101342635 ,47,9659745165074 ,0,482032829799644
32.922739 ,Left ,63,3705025474426 ,47,9683164513893 ,0,492254026028713
32.9453282 ,Left ,63,3399044903787 ,47,9831697155708 ,0,504884259742156
32.9677202 ,Left ,63,319481626665 ,47,9774280454801 ,0,486413199502309
32.9828255 ,Left ,63,3325653820496 ,47,9442230891798 ,0,487963201450261
33.0052801 ,Left ,63,3179924449513 ,47,9086187325374 ,0,52630831701766
33.027712 ,Left ,63,3248147085475 ,47,9331678057755 ,0,551746812054615
33.0426942 ,Left ,63,3113356041386 ,47,9851614447466 ,0,522312077636958
33.0651419 ,Left ,63,2880531599397 ,48,0308754158004 ,0,503347741672445
33.0876501 ,Left ,63,2833339166041 ,48,0900411810919 ,0,499972702629299
33.1020952 ,Left ,63,2334137816979 ,48,1276223841225 ,0,506407212821299
33.1252488 ,Left ,63,1830645363629 ,48,1496117764768 ,0,533574839771187
33.1479248 ,Left ,63,116049687296 ,48,1535774709629 ,0,559976865903681
33.1620758 ,Left ,63,0784929952072 ,48,1388141107065 ,0,583055194782707
33.1852232 ,Left ,63,0736915659226 ,48,0722130327107 ,0,609592500121261
33.2077375 ,Left ,63,0745243474142 ,47,9765471250172 ,0,648721521428418
33.2219675 ,Left ,63,0839501891288 ,47,9938799971435 ,0,666367188271776
33.2452432 ,Left ,63,0698441880459 ,48,0679523654341 ,0,644060504885535
33.2677123 ,Left ,63,0830233737636 ,48,1336247408456 ,0,618813218660353
33.282273 ,Left ,63,1325550846876 ,48,1663691501442 ,0,611501320112172
33.3052957 ,Left ,63,1430875004045 ,48,1936580151487 ,0,6016482243389
33.3280337 ,Left ,63,1215418806324 ,48,2138138845862 ,0,562608493247151
33.3422304 ,Left ,63,1392853828915 ,48,2505485798974 ,0,501293711165889
33.3651678 ,Left ,63,1401426151559 ,48,2794631030607 ,0,435266483983096
33.387601 ,Left ,63,1363423637263 ,48,2948529516073 ,0,37629851079357
