timestamp,event,roll,pitch,yaw
0.0292342 ,Left ,61,1964639480321 ,47,970867196036 ,77,8957856799448
0.0517177 ,Left ,61,1961264374332 ,47,9713881937682 ,77,8931641717479
0.072697 ,Left ,61,1977953260268 ,47,9725294078734 ,77,8939407528901
0.0892203 ,Left ,61,193375573548 ,47,9737423398482 ,77,895945860578
0.1115519 ,Left ,61,1825589774671 ,47,9689078759023 ,77,900352786173
0.1342568 ,Left ,61,1793739878627 ,47,9625634543684 ,77,9034533340615
0.1492972 ,Left ,61,1790368764905 ,47,9630841283418 ,77,9008311847658
0.1716375 ,Left ,61,180580739252 ,47,9616459629077 ,77,9007511216014
0.1943203 ,Left ,61,180580739252 ,47,9616459629077 ,77,9007511216014
0.2092971 ,Left ,61,1782727664291 ,47,9562139247082 ,77,9117724790212
0.2316925 ,Left ,61,1794232067789 ,47,954987788303 ,77,9185771172749
0.2542155 ,Left ,61,1765376974981 ,47,9627161298341 ,77,9299572339835
0.2684773 ,Left ,61,1774586931741 ,47,9741287158511 ,77,9397409662949
0.291615 ,Left ,61,1630699469389 ,47,9869664293804 ,77,9484166841649
0.3141483 ,Left ,61,1583898499159 ,48,0071625572509 ,77,959124036167
0.3285491 ,Left ,61,1536695377964 ,48,0330328451428 ,77,9689398139776
0.3521357 ,Left ,61,1482727851483 ,48,061890526882 ,77,9849510441388
0.3746511 ,Left ,61,1387271846448 ,48,0955161370255 ,78,0009601589821
0.3888661 ,Left ,61,1268269786734 ,48,1217414389292 ,78,0081108785394
0.411531 ,Left ,61,1163277031018 ,48,1373312151182 ,78,0180834286102
0.4342757 ,Left ,61,1053147233331 ,48,1565192546876 ,78,0236975525679
0.448593 ,Left ,61,0930290373461 ,48,1839062654779 ,78,0263794502405
0.4721118 ,Left ,61,0830055507449 ,48,2077971179802 ,78,0199252827181
0.4946686 ,Left ,61,0701358872793 ,48,2314761873968 ,78,0153887202308
0.5089557 ,Left ,61,0514546616967 ,48,253110398368 ,78,0109242231517
0.5321472 ,Left ,61,0265824512738 ,48,2734542149876 ,77,9944155726209
0.5542696 ,Left ,60,9930444510613 ,48,2861084125664 ,77,9712808823807
0.5686702 ,Left ,60,9616502856919 ,48,2989630724256 ,77,9439295281714
0.5915417 ,Left ,60,9259450989547 ,48,3227910226795 ,77,9138758746871
0.6140826 ,Left ,60,8653805298094 ,48,3066389368264 ,77,8758066600236
0.6352206 ,Left ,60,8052205929326 ,48,1886554741228 ,77,8314600675451
0.6515808 ,Left ,60,6962398475074 ,48,0375098581898 ,77,7970561580252
0.6741872 ,Left ,60,6391177523232 ,47,8785331820751 ,77,8309988084112
0.6953095 ,Left ,60,5266226600093 ,47,8129167907186 ,77,8957977954074
0.7176217 ,Left ,60,4629530171234 ,47,8495804678025 ,77,9459244669034
0.7339957 ,Left ,60,4856339555064 ,47,9265205210382 ,77,9516276565139
0.7552421 ,Left ,60,5156519081614 ,48,017756194341 ,77,9476215510903
0.7716493 ,Left ,60,5425865504709 ,48,0946490452394 ,77,9285433745461
0.7942307 ,Left ,60,5476429791924 ,48,1211267135898 ,77,9085580419032
0.8149972 ,Left ,60,5599950320063 ,48,0971823466355 ,77,8861885432145
0.8335073 ,Left ,60,5759988206325 ,48,0402640015779 ,77,8562480320251
0.8541901 ,Left ,60,5835360845301 ,47,9590485188744 ,77,8103025542501
0.8752819 ,Left ,60,5920602565137 ,47,8956130980101 ,77,7431230258686
0.8915719 ,Left ,60,6056695408877 ,47,8550863717694 ,77,6676252163773
0.9143512 ,Left ,60,6182508368781 ,47,8229129468976 ,77,5976014137543
0.9350167 ,Left ,60,6116241907983 ,47,7912747446391 ,77,5641398605173
0.9520204 ,Left ,60,6289377993157 ,47,7197753024945 ,77,6223527175884
0.9742572 ,Left ,60,6452942787682 ,47,7183164008232 ,77,6742355266141
0.995333 ,Left ,60,6392367553699 ,47,8106668537129 ,77,6709057067024
1.010843 ,Left ,60,6588218410803 ,47,8979031546465 ,77,6364411033335
1.0340299 ,Left ,60,6655621878585 ,47,9347805404021 ,77,5964906659058
1.0568067 ,Left ,60,6337626830939 ,47,9207500136877 ,77,5256928438071
1.0710593 ,Left ,60,6355360257413 ,47,8139720133769 ,77,4804329568895
1.0942926 ,Left ,60,6439822582737 ,47,7057375588492 ,77,4866353778824
1.1167555 ,Left ,60,6513933438547 ,47,6324002314923 ,77,522072873328
1.1310253 ,Left ,60,6807385522531 ,47,6786766145977 ,77,515012751812
1.1539721 ,Left ,60,6996435710561 ,47,774282238056 ,77,5081472017533
1.1764727 ,Left ,60,7182738188096 ,47,8711211921647 ,77,5055885677385
1.1907149 ,Left ,60,6782864016459 ,47,9417004918811 ,77,4984878568171
1.2139252 ,Left ,60,6478972708557 ,47,9858131547853 ,77,486619422357
1.2365019 ,Left ,60,6501206520505 ,47,9998952169949 ,77,4458650345395
1.2508725 ,Left ,60,5803191734779 ,47,9883396346906 ,77,4150364847331
1.2739454 ,Left ,60,5407287073273 ,47,9307480658676 ,77,4114119140149
1.2964859 ,Left ,60,4968034289216 ,47,8279389481301 ,77,4172934473738
1.3107505 ,Left ,60,4713103938551 ,47,7852710448992 ,77,4227105920355
1.3340699 ,Left ,60,4694969633096 ,47,8147090474485 ,77,4208871804066
1.3565702 ,Left ,60,4773260653166 ,47,8774062784097 ,77,4565937312944
1.3707874 ,Left ,60,5122314104525 ,47,9393104575525 ,77,4880112966832
1.39431 ,Left ,60,5339727082794 ,47,9960914838636 ,77,4890015835121
1.416454 ,Left ,60,5694265523096 ,48,0217220376938 ,77,4854451850547
1.430728 ,Left ,60,6197837475443 ,48,0417467936078 ,77,4599305938092
1.4542672 ,Left ,60,6718657170091 ,48,0341825830087 ,77,4117519890831
1.476794 ,Left ,60,7263201319711 ,48,0020396667259 ,77,3693302390339
1.4908645 ,Left ,60,7747779482602 ,47,9376333279649 ,77,3520535288675
1.5215817 ,Left ,60,797954345693 ,47,849956950154 ,77,3488241449531
1.536692 ,Left ,60,7937659028449 ,47,7920959751906 ,77,3534083166604
1.5577347 ,Left ,60,7947181240528 ,47,7599721968287 ,77,3611046393753
1.5742444 ,Left ,60,7989619091937 ,47,7285160884879 ,77,3666376166584
1.5971492 ,Left ,60,7771299925861 ,47,6795345134385 ,77,365551399996
1.6193768 ,Left ,60,7559388840822 ,47,6183399616289 ,77,3603144415816
1.6344399 ,Left ,60,7196995187423 ,47,6367521760208 ,77,3630831024233
1.657107 ,Left ,60,7126079612579 ,47,7376313609529 ,77,3687615813066
1.6781976 ,Left ,60,6985936948733 ,47,8568028302647 ,77,3578450170703
1.6945569 ,Left ,60,6697820867794 ,47,8488375518419 ,77,3390273263751
1.7168367 ,Left ,60,6722199411638 ,47,7809503688057 ,77,3405520487439
1.738213 ,Left ,60,7052829668411 ,47,6795641167001 ,77,3080156113905
1.7545498 ,Left ,60,7452872085725 ,47,5291201405418 ,77,2806641810125
1.7768604 ,Left ,60,7375364409934 ,47,3952301164372 ,77,2557106771791
1.7983017 ,Left ,60,7163467965793 ,47,3680412259206 ,77,2280442595581
1.8137331 ,Left ,60,7344664428597 ,47,3216880536663 ,77,1891749911151
1.8371563 ,Left ,60,7304499941803 ,47,2360721065929 ,77,2210819760908
1.8581825 ,Left ,60,7269116968539 ,47,2390063374257 ,77,279527165585
1.8737821 ,Left ,60,7226812997576 ,47,3968397499761 ,77,3131117855441
1.8968672 ,Left ,60,7660886937341 ,47,6041714355478 ,77,3145629571911
1.9182228 ,Left ,60,7722497382886 ,47,7404015406833 ,77,3154058439537
1.9336954 ,Left ,60,7880156680144 ,47,8474492389324 ,77,3381158200138
1.9570781 ,Left ,60,7391934482491 ,47,9408225450369 ,77,3695146677229
1.9784145 ,Left ,60,6953847028945 ,48,0201884638553 ,77,3869230467589
1.9937018 ,Left ,60,6896560106292 ,48,0784713640555 ,77,3978876033139
2.0170303 ,Left ,60,6942266348764 ,48,1139742940516 ,77,3940313803227
2.0395292 ,Left ,60,6828716164944 ,48,1170350404417 ,77,370322125142
2.062377 ,Left ,60,6592908393525 ,48,075251332731 ,77,3408607074013
2.0769016 ,Left ,60,6513140360468 ,48,001350511349 ,77,3332967406706
2.0993873 ,Left ,60,6686669754269 ,47,9157911044443 ,77,3349294011724
2.1137905 ,Left ,60,6931279314114 ,47,8437840902329 ,77,3297508913848
2.1368995 ,Left ,60,7347722802711 ,47,7897497233185 ,77,3225939672272
2.1593886 ,Left ,60,7758940296776 ,47,7592722942661 ,77,3187244847708
2.1738416 ,Left ,60,7946433325617 ,47,728449600741 ,77,3263596642798
2.1968907 ,Left ,60,8269144122167 ,47,6879447509391 ,77,349064532161
2.219026 ,Left ,60,8551339416836 ,47,6608098449494 ,77,3712663875757
2.2334753 ,Left ,60,8908090979262 ,47,6460013857699 ,77,3826401689964
2.2564832 ,Left ,60,909831167076 ,47,6480166947296 ,77,3835091102883
2.2793308 ,Left ,60,9299725773117 ,47,6579310786387 ,77,379820886928
2.2939042 ,Left ,60,9431460053243 ,47,676764475299 ,77,3731769833747
2.3231382 ,Left ,60,9554157041416 ,47,6980717677389 ,77,3743186265497
2.3399248 ,Left ,60,954512584214 ,47,7230178361769 ,77,3907768703999
2.3537687 ,Left ,60,9719740152854 ,47,7565294102354 ,77,3937742052655
2.3769553 ,Left ,60,97718825144 ,47,7654591669508 ,77,3882338059545
2.3990336 ,Left ,60,9872693731273 ,47,7671806762413 ,77,3924820762922
2.4134205 ,Left ,60,9977954901001 ,47,773552008007 ,77,4010047351955
2.4365857 ,Left ,60,9939451031607 ,47,7887840774478 ,77,413405619043
2.459695 ,Left ,60,9898734450829 ,47,8054940461629 ,77,4203054044792
2.4739641 ,Left ,60,9850632907304 ,47,8104716057072 ,77,4270325598841
2.4967859 ,Left ,60,9882677900749 ,47,8102087206827 ,77,4277187838389
2.5193475 ,Left ,60,9903143378406 ,47,7977933014016 ,77,4284461047253
2.5401771 ,Left ,60,9916334016282 ,47,79352230893 ,77,4369693151138
2.557119 ,Left ,60,9929451596994 ,47,7952141788691 ,77,4350735486856
2.5796446 ,Left ,60,9902124866392 ,47,798489134905 ,77,4349839090994
2.6008087 ,Left ,60,99016185114 ,47,8034197099717 ,77,4460128740291
2.6175649 ,Left ,60,9788057876913 ,47,8393477253317 ,77,442617580073
2.6393524 ,Left ,60,9606402714654 ,47,8974807702481 ,77,4295617087492
2.6602421 ,Left ,60,922517770542 ,47,9475721227663 ,77,4142610075389
2.6765486 ,Left ,60,8714397374266 ,47,999649239991 ,77,4105032496021
2.6825076 ,Left ,60,8112708280331 ,48,0644876560027 ,77,4116170956324
2.7051178 ,Left ,60,7819086996845 ,48,1107944158815 ,77,4139284767646
2.7275673 ,Left ,60,7656270682282 ,48,101445650632 ,77,3990628276597
2.7424959 ,Left ,60,6929628931379 ,48,0933823166378 ,77,4036423224739
2.7649983 ,Left ,60,615251976272 ,48,0723088355029 ,77,428040702171
2.787498 ,Left ,60,5683336557962 ,48,0886616570537 ,77,4521188880547
2.802111 ,Left ,60,5282640401548 ,48,1330511434385 ,77,4664199563695
2.8245721 ,Left ,60,5033131243065 ,48,2083261311842 ,77,4660847843811
2.847202 ,Left ,60,494521619481 ,48,3017049580648 ,77,4508931957841
2.8621071 ,Left ,60,511703667578 ,48,355721733864 ,77,4207737422655
2.8848916 ,Left ,60,553224636118 ,48,3694298136871 ,77,3655648713045
2.9069127 ,Left ,60,5856759926885 ,48,2920175540833 ,77,3031419456473
2.9220925 ,Left ,60,6276747087359 ,48,202841505367 ,77,2598966601878
2.9443649 ,Left ,60,6399300700714 ,48,0991629960429 ,77,2245285876276
2.9670934 ,Left ,60,6761977465449 ,47,9949490506044 ,77,1753737622541
2.9818845 ,Left ,60,7195222350745 ,47,8908690818044 ,77,144837738937
3.0044355 ,Left ,60,762129596218 ,47,8131304695989 ,77,1542503518003
3.0271505 ,Left ,60,8231784444803 ,47,8012429753799 ,77,1649304641487
3.0420522 ,Left ,60,8472712431092 ,47,8459485356389 ,77,1602092341253
3.0650338 ,Left ,60,8838253703821 ,47,8812201682628 ,77,1668370527619
3.0829232 ,Left ,60,8835040281371 ,47,8859790439694 ,77,1871052018455
3.1021558 ,Left ,60,8592990948154 ,47,8824926340413 ,77,1848793741631
3.1247838 ,Left ,60,8471989804006 ,47,8161236081578 ,77,2032106228723
3.1429081 ,Left ,60,8564863755145 ,47,7410638293445 ,77,2468770219206
3.1623956 ,Left ,60,8485787232062 ,47,781791910126 ,77,2655029110267
3.1851127 ,Left ,60,8628770707548 ,47,8951740777603 ,77,2637574474689
3.2027467 ,Left ,60,9086848551708 ,47,9793477825823 ,77,2725241117724
3.2223766 ,Left ,60,8955280458938 ,48,036275672129 ,77,2682046032596
3.2450857 ,Left ,60,8730093541324 ,48,0714231945466 ,77,2540342188423
3.2624472 ,Left ,60,8287189458306 ,48,079302847224 ,77,2401683792678
3.2821394 ,Left ,60,8042123659384 ,48,0427174694836 ,77,2177252255249
3.3045361 ,Left ,60,7722676053089 ,48,0083940374721 ,77,1938895448954
3.3224477 ,Left ,60,7019145063698 ,47,9504138510108 ,77,1749244192718
3.3434785 ,Left ,60,658844348941 ,47,8989549822211 ,77,1944271855415
3.3646278 ,Left ,60,6063377401373 ,47,9209595506975 ,77,2210042667318
3.3825932 ,Left ,60,6010929012072 ,47,9794475999741 ,77,2712759817629
3.4021769 ,Left ,60,617133909235 ,48,0787515915531 ,77,2917905175461
3.4244562 ,Left ,60,6153509777686 ,48,1801182162449 ,77,2907731596349
3.4497867 ,Left ,60,6311817672523 ,48,2304795412021 ,77,2883832601001
3.4618718 ,Left ,60,6639117564844 ,48,2373066608958 ,77,2857026701402
3.4843959 ,Left ,60,6914197433675 ,48,2302165676697 ,77,2775149483343
3.5076233 ,Left ,60,7439838889673 ,48,1880220726652 ,77,2550471305558
3.5239482 ,Left ,60,7593046759556 ,48,1390497964812 ,77,2493774850067
3.5449828 ,Left ,60,7753599757759 ,48,0784166563156 ,77,2564572496894
3.5626461 ,Left ,60,762241909732 ,47,9881409702998 ,77,2781893001514
3.5836833 ,Left ,60,7491854925774 ,47,8902911547614 ,77,3070486328247
3.6048776 ,Left ,60,7397998213929 ,47,7828660995751 ,77,3415180081458
3.6272018 ,Left ,60,722753344091 ,47,6715830479779 ,77,3577647515783
3.6436101 ,Left ,60,7034280871536 ,47,5821850931686 ,77,3782652681164
3.6648855 ,Left ,60,6809406362029 ,47,6179346316882 ,77,3810087959984
3.6874087 ,Left ,60,6814071551198 ,47,7224316353095 ,77,3960566372474
3.7036562 ,Left ,60,6958859266365 ,47,7942144569001 ,77,4205986100614
3.725922 ,Left ,60,6919916810651 ,47,7654829988068 ,77,4314691488428
3.7426086 ,Left ,60,7240894697333 ,47,6833663307895 ,77,4162295236769
3.7636299 ,Left ,60,7651051278288 ,47,6162022483645 ,77,3468014560889
3.7847061 ,Left ,60,7650692595257 ,47,542225230857 ,77,2748323187457
3.8074132 ,Left ,60,7543628742775 ,47,4992622492013 ,77,2174789112381
3.8238372 ,Left ,60,7639373698198 ,47,4428316764808 ,77,1692830356069
3.8446294 ,Left ,60,7845387332185 ,47,352156943489 ,77,1553136753412
3.8671813 ,Left ,60,7976337062801 ,47,3066142264302 ,77,1768726467222
3.885292 ,Left ,60,8226865675865 ,47,3933527976339 ,77,1854081191883
3.9050063 ,Left ,60,8650804537629 ,47,5582645746376 ,77,1794357860335
3.9272774 ,Left ,60,8613415832372 ,47,6949446167398 ,77,1903656580844
3.9450356 ,Left ,60,8746068491808 ,47,8150530828522 ,77,2388079762482
3.9655057 ,Left ,60,8512602082422 ,47,9277110651519 ,77,288986873893
3.9874883 ,Left ,60,8413391284865 ,48,0204130099517 ,77,3313711306814
4.0059368 ,Left ,60,8395422478262 ,48,0870320085072 ,77,3627890084658
4.025144 ,Left ,60,8322652551771 ,48,1360114005029 ,77,3816173669719
4.0474872 ,Left ,60,805698049436 ,48,1617411769014 ,77,3953545792582
4.0711132 ,Left ,60,7792528158324 ,48,1654052257299 ,77,4000088946925
4.0844265 ,Left ,60,7723283744471 ,48,1411356096631 ,77,3966985652947
4.1089387 ,Left ,60,7840385413469 ,48,1027623421877 ,77,3737222684197
4.1255994 ,Left ,60,8023845792726 ,48,0492155762341 ,77,3643133139256
4.1453119 ,Left ,60,8236903542969 ,47,9902552596374 ,77,3714828123126
4.1629061 ,Left ,60,8573924875782 ,47,9390684261549 ,77,3785939097179
4.1854389 ,Left ,60,9037341041556 ,47,9001169700186 ,77,3807141067154
4.2050256 ,Left ,60,9511234744979 ,47,8790019344777 ,77,381798397128
4.2225782 ,Left ,60,981815045782 ,47,8554720505954 ,77,3894793614152
4.2449569 ,Left ,60,9978044903698 ,47,8311109979587 ,77,4042917263301
4.2664034 ,Left ,61,0087881151152 ,47,8222549662494 ,77,4091344518407
4.2829109 ,Left ,61,0072176797811 ,47,8236808056992 ,77,4091979425825
4.3053638 ,Left ,61,0045009209398 ,47,825311187043 ,77,4054349147628
4.3324866 ,Left ,60,9988574989469 ,47,8224399002464 ,77,399137823953
4.3428689 ,Left ,60,9946850704637 ,47,8188360877989 ,77,3993128155565
4.365381 ,Left ,60,9931144299997 ,47,8202618497419 ,77,3993759021823
4.3848286 ,Left ,60,9952181564174 ,47,837921360269 ,77,4021618795028
4.4023201 ,Left ,60,9904379573978 ,47,8536051522599 ,77,4013645098775
4.425065 ,Left ,60,9643935715576 ,47,8697692765248 ,77,3942787140887
4.4444884 ,Left ,60,9282019456826 ,47,8972414064656 ,77,3856064406082
4.46227 ,Left ,60,8808313868893 ,47,9399237849713 ,77,3776207230375
4.4850681 ,Left ,60,8391954498174 ,48,0086915079445 ,77,3727085540904
4.5061239 ,Left ,60,8006876235312 ,48,0596647674608 ,77,37069942034
4.5217893 ,Left ,60,7710219332423 ,48,0526761532888 ,77,3741250422307
4.5440188 ,Left ,60,7223934320476 ,48,0221333616904 ,77,3835055504149
4.5649787 ,Left ,60,6521212182326 ,48,0260088481088 ,77,3921214674767
4.5818114 ,Left ,60,6185261234258 ,48,0298357023061 ,77,3944658798352
4.6046091 ,Left ,60,5883548234946 ,48,039835052106 ,77,4322624847952
4.6249369 ,Left ,60,5912502957126 ,48,0626534240052 ,77,4658445360882
4.6416979 ,Left ,60,6011940402393 ,48,1490609300263 ,77,4451972524526
4.6643308 ,Left ,60,6409515892131 ,48,2549759615185 ,77,3989260338603
4.6857256 ,Left ,60,6641826009946 ,48,3077846058941 ,77,3454758737039
4.7025241 ,Left ,60,7002742945789 ,48,3073966750098 ,77,267733033821
4.7245784 ,Left ,60,7194627663258 ,48,242779933415 ,77,197800498778
4.7457197 ,Left ,60,7340643021411 ,48,1511406203929 ,77,1474837466165
4.7612512 ,Left ,60,7533136154677 ,48,0470676182022 ,77,0949949884796
4.7845741 ,Left ,60,7668300377051 ,47,9967247302191 ,77,059885143321
4.8056809 ,Left ,60,7943297380328 ,47,9827874319067 ,77,055670555429
4.8213359 ,Left ,60,8243208455681 ,48,0006789218656 ,77,0645203179871
4.851935 ,Left ,60,8364113970644 ,48,0722155412635 ,77,0483289096181
4.867069 ,Left ,60,812655026343 ,48,1408848839595 ,77,0307431695231
4.8819966 ,Left ,60,7874794662667 ,48,1643099845229 ,77,0102671212069
4.9045893 ,Left ,60,7431656363991 ,48,1113353874319 ,77,0108002444891
4.9268791 ,Left ,60,7511421387811 ,48,0113620181029 ,77,0773418642737
4.9419662 ,Left ,60,7910792913925 ,47,9328485090545 ,77,1559139788352
4.9644259 ,Left ,60,7901505926189 ,48,0298593621255 ,77,1925958018458
4.9870843 ,Left ,60,8176960295068 ,48,1952472376923 ,77,2216383251891
5.0096257 ,Left ,60,8335381720843 ,48,3027463151391 ,77,2595880726047
5.024455 ,Left ,60,8149721226412 ,48,3603574713189 ,77,2991630879572
5.0468592 ,Left ,60,7787113795312 ,48,3491639158489 ,77,3149537752506
5.0681303 ,Left ,60,7682838946769 ,48,2883084609127 ,77,3215927671653
5.0842224 ,Left ,60,7128864172204 ,48,2453701651474 ,77,270303069608
5.1140689 ,Left ,60,636366879627 ,48,1951997379114 ,77,2091507408554
5.1278383 ,Left ,60,5854896106599 ,48,0910629750988 ,77,177863405691
5.1443134 ,Left ,60,5557077071951 ,47,9161988329592 ,77,1640072900336
5.1665289 ,Left ,60,5932881193058 ,47,7914978028885 ,77,1578934186881
5.187823 ,Left ,60,5675475537606 ,47,802288129206 ,77,140140023607
5.2043141 ,Left ,60,5722867929245 ,47,9367455460909 ,77,1429929518688
5.2265903 ,Left ,60,6070974900108 ,48,0955052685548 ,77,1605314903403
5.2478032 ,Left ,60,6400046402188 ,48,2013641915501 ,77,190002485406
5.2642828 ,Left ,60,6293611279941 ,48,2627882083056 ,77,2134694038724
5.2867102 ,Left ,60,6385718090319 ,48,2751615911289 ,77,2172030393886
5.3078263 ,Left ,60,667887297061 ,48,2305104441398 ,77,1827121180811
5.3242412 ,Left ,60,7090991080757 ,48,1539531661298 ,77,158597526957
5.3468322 ,Left ,60,7186799549949 ,48,0801051798887 ,77,1537870004044
5.3680769 ,Left ,60,7304035481138 ,48,0154588023622 ,77,1613730900405
5.3843546 ,Left ,60,729476051856 ,47,9458467983696 ,77,1766902259997
5.406783 ,Left ,60,7273124246095 ,47,8622284644427 ,77,1979525207101
5.4275888 ,Left ,60,7241670794517 ,47,7609312622523 ,77,2100240290558
5.4441088 ,Left ,60,7103606754943 ,47,7028138515318 ,77,1959475253265
5.4664758 ,Left ,60,6998777804277 ,47,6676889632742 ,77,1989682153681
5.4877041 ,Left ,60,7109940651719 ,47,7299940229309 ,77,210001649301
5.5042771 ,Left ,60,7057855386493 ,47,8503564078545 ,77,2128635273829
5.5265319 ,Left ,60,6900241721996 ,47,9132597840378 ,77,1994866531361
5.5484275 ,Left ,60,6851421917303 ,47,868558294444 ,77,2042669007675
5.564016 ,Left ,60,6843805191922 ,47,794921327089 ,77,1771682038237
5.5872365 ,Left ,60,6988223949264 ,47,6957532555731 ,77,1285372745276
5.6084617 ,Left ,60,7093134001796 ,47,5818899880324 ,77,0882374408241
5.6239516 ,Left ,60,7183789058091 ,47,4917724702653 ,77,0672967629579
5.647079 ,Left ,60,7325849021001 ,47,4262499988124 ,77,0637983668291
5.6681082 ,Left ,60,7216076055787 ,47,393076004193 ,77,0774308202438
5.6836864 ,Left ,60,7193142293067 ,47,414337271313 ,77,1339469322506
5.7068252 ,Left ,60,7651158879176 ,47,5217708541998 ,77,1719271940117
5.7278604 ,Left ,60,7969115693956 ,47,6553201632504 ,77,1739395799533
5.7436193 ,Left ,60,7902642254718 ,47,7363208739619 ,77,1837481187434
5.766779 ,Left ,60,7886006876626 ,47,7841728108132 ,77,196841251808
5.7893409 ,Left ,60,7510151952528 ,47,8194493196132 ,77,2227824908739
5.803599 ,Left ,60,73402663784 ,47,8405736097958 ,77,2526292733843
5.8266189 ,Left ,60,7432390595157 ,47,8641316011647 ,77,2843318516105
5.849253 ,Left ,60,7267199283268 ,47,8771427065525 ,77,3051403664946
5.8646579 ,Left ,60,7066940480356 ,47,8807788218827 ,77,3286217346187
5.8867738 ,Left ,60,6974868408022 ,47,8734602963706 ,77,336037641756
5.9092336 ,Left ,60,6948267070389 ,47,8535127698774 ,77,339354074795
5.9234269 ,Left ,60,7036325311108 ,47,8287275999716 ,77,3452016638107
5.9471287 ,Left ,60,7153741647411 ,47,8067988223544 ,77,3498619145479
5.9689986 ,Left ,60,723302440044 ,47,7925611250214 ,77,3550728065708
5.9832784 ,Left ,60,7317646252052 ,47,7898249152385 ,77,3511926030679
6.0066279 ,Left ,60,7555653729823 ,47,7911201720802 ,77,3497940798587
6.0297109 ,Left ,60,7657482392479 ,47,8023617565214 ,77,3599840210583
6.0436008 ,Left ,60,7699931172198 ,47,8069434374277 ,77,3754270183194
6.0668091 ,Left ,60,7733251118631 ,47,8178163417929 ,77,3857924021078
6.0893296 ,Left ,60,7621055285534 ,47,833068620036 ,77,3864366219835
6.103658 ,Left ,60,7596868977866 ,47,8433867642591 ,77,3822104903196
6.1268181 ,Left ,60,75561504507 ,47,8406956829114 ,77,3795839582932
6.1492153 ,Left ,60,7521686619288 ,47,8305599470032 ,77,3757369826413
6.1636665 ,Left ,60,7521268193124 ,47,8262908890348 ,77,3712886696315
6.186802 ,Left ,60,7610143806887 ,47,8222901575959 ,77,3635548604179
6.2094588 ,Left ,60,7737026639062 ,47,8122635413952 ,77,3589242135235
6.2236345 ,Left ,60,7944950482297 ,47,8038283070088 ,77,3535117392478
6.2471479 ,Left ,60,809120391436 ,47,8020382748578 ,77,3454849142624
6.2696133 ,Left ,60,8263633512615 ,47,8100374141341 ,77,3401729810882
6.2908197 ,Left ,60,8347524825625 ,47,8305376846811 ,77,3329766446473
6.3068117 ,Left ,60,8467565336649 ,47,8554600841601 ,77,3122167366041
6.3297642 ,Left ,60,8227816933632 ,47,8794930577125 ,77,293762618867
6.3504231 ,Left ,60,789338831369 ,47,9352322122932 ,77,2724021296343
6.3664691 ,Left ,60,7570399868305 ,48,0080595168086 ,77,2620068087777
6.3891525 ,Left ,60,6978505196951 ,48,0331638072827 ,77,2680082338148
6.4101568 ,Left ,60,6441494158918 ,48,0349027471719 ,77,2655732325286
6.4268096 ,Left ,60,5612526811166 ,48,0129491194224 ,77,2955407028023
6.4501769 ,Left ,60,5337476736162 ,47,9486112037931 ,77,3585364517987
6.4702701 ,Left ,60,5019966608164 ,47,9610132556807 ,77,3935951762447
6.4868915 ,Left ,60,4752001621732 ,48,0362003946399 ,77,4079128977379
6.5095075 ,Left ,60,5166957269395 ,48,1140683947462 ,77,3858378545534
6.5306356 ,Left ,60,5604319497102 ,48,1715415189043 ,77,3464886654072
6.5469559 ,Left ,60,5637694129266 ,48,1728872507485 ,77,2962433544295
6.5693832 ,Left ,60,5772440926033 ,48,1521244628607 ,77,2470532769507
6.59065 ,Left ,60,5748455611276 ,48,0894447029444 ,77,1896812055823
6.6068131 ,Left ,60,5945413553816 ,48,0084934732402 ,77,1448484028339
6.6294062 ,Left ,60,5996055783469 ,47,936549668779 ,77,1200146661481
6.6507028 ,Left ,60,6208046517769 ,47,8577588140156 ,77,12763590942
6.6668644 ,Left ,60,6601635348512 ,47,8357042243182 ,77,1382711403493
6.6892936 ,Left ,60,6910578469288 ,47,8749523933811 ,77,1434934286303
6.7102528 ,Left ,60,7029622260621 ,47,9229195174657 ,77,1484935368881
6.7271618 ,Left ,60,6931492240548 ,47,952221015374 ,77,1341003682163
6.7500679 ,Left ,60,674637314721 ,47,9757173637284 ,77,0857158536241
6.7721466 ,Left ,60,6723230035633 ,47,9266061497134 ,77,0841950936258
6.7868229 ,Left ,60,6525758633779 ,47,8466693303825 ,77,1640597035358
6.8092243 ,Left ,60,6557928664733 ,47,8863464378203 ,77,2280882563033
6.831737 ,Left ,60,6749980562656 ,48,0301830710344 ,77,2587188022746
6.8464156 ,Left ,60,6893153104511 ,48,173814835992 ,77,2927866981048
6.8695968 ,Left ,60,6879188924381 ,48,242381450434 ,77,3184632266814
6.8922745 ,Left ,60,6561097236817 ,48,2515843359543 ,77,3258070059602
6.9134331 ,Left ,60,6205330440105 ,48,2420859280596 ,77,3202666978059
6.9296532 ,Left ,60,5960456441541 ,48,2347008920883 ,77,2934590445989
6.9517444 ,Left ,60,5758431671891 ,48,203383783877 ,77,2385936532036
6.9662779 ,Left ,60,5247087202442 ,48,1361668560867 ,77,1856005287611
6.989327 ,Left ,60,4566252516733 ,48,0631018897845 ,77,157846885174
7.0120197 ,Left ,60,4381200604636 ,47,9432743710174 ,77,1416112852644
7.0333506 ,Left ,60,4107394136771 ,47,7721378773973 ,77,1601483073919
7.0556391 ,Left ,60,4059853350557 ,47,6359225913449 ,77,1935592580018
7.0720623 ,Left ,60,4072758711037 ,47,6056919733449 ,77,1959782593675
7.092957 ,Left ,60,4157330663879 ,47,6860031734442 ,77,1843240712331
7.1094621 ,Left ,60,4620309480722 ,47,8157354047264 ,77,1631770736219
7.131919 ,Left ,60,4690265108241 ,47,9318187415313 ,77,1584067275092
7.1529622 ,Left ,60,4707553949908 ,48,0070013309344 ,77,1729127113598
7.1695019 ,Left ,60,4897513527115 ,48,0427736260373 ,77,1734409816923
7.1919065 ,Left ,60,5370591415145 ,48,0362607361228 ,77,1553881800254
7.2063249 ,Left ,60,5743782534096 ,48,0087555673842 ,77,1318883066486
7.2295759 ,Left ,60,5896772564328 ,47,9725526002575 ,77,1200871958273
7.2518105 ,Left ,60,586119589763 ,47,9355422947811 ,77,1310139675877
7.2726747 ,Left ,60,5828822850926 ,47,8917459560369 ,77,1565601409143
7.2891652 ,Left ,60,5910171786263 ,47,8319866417496 ,77,1751009422997
7.3123457 ,Left ,60,5717134315714 ,47,7707734263561 ,77,184181766398
7.3332351 ,Left ,60,5586718677889 ,47,6975887284576 ,77,1761129036038
7.3494385 ,Left ,60,5525829840125 ,47,6120189157511 ,77,173372507391
7.3717549 ,Left ,60,5601264402668 ,47,6224964224789 ,77,1694299415391
7.3929011 ,Left ,60,5755446141177 ,47,7337895778653 ,77,1594024267327
7.4092963 ,Left ,60,5720910328363 ,47,828118726272 ,77,1416562731537
7.4318094 ,Left ,60,5855937565414 ,47,8377139506371 ,77,1393822636693
7.4531415 ,Left ,60,6009676007677 ,47,8038253140677 ,77,1193223784619
7.4686674 ,Left ,60,6348680775132 ,47,7357014418724 ,77,089219143555
7.49177 ,Left ,60,6503067336193 ,47,648807582219 ,77,0580190971254
7.5129649 ,Left ,60,6531663972578 ,47,5858533240733 ,77,0510195660102
7.5292958 ,Left ,60,6678901439631 ,47,5616368105986 ,77,033204795787
7.5517709 ,Left ,60,6860767126692 ,47,4788333856346 ,77,0338383802927
7.5729533 ,Left ,60,7032936100713 ,47,3844421248222 ,77,1111210814128
7.5886961 ,Left ,60,7157016425238 ,47,4083051939353 ,77,1638113792069
7.6117011 ,Left ,60,7636971764308 ,47,5520454760872 ,77,169759458935
7.632595 ,Left ,60,7734490935068 ,47,6862668302215 ,77,1712431183731
7.6486271 ,Left ,60,8036971611024 ,47,7897248189774 ,77,1938451968697
7.6716899 ,Left ,60,7759105113432 ,47,8741662062076 ,77,2144241420406
7.6943111 ,Left ,60,7345977397766 ,47,9505016151975 ,77,2316672520399
7.7084129 ,Left ,60,7032811502222 ,48,0106459038315 ,77,2381980475621
7.7315285 ,Left ,60,6771987686616 ,48,0454315952577 ,77,2512831229044
7.7542466 ,Left ,60,6292035206861 ,48,057777065167 ,77,2668013209953
7.7689365 ,Left ,60,5860610815675 ,48,052065167751 ,77,2730637856877
7.7915585 ,Left ,60,5583731397358 ,48,0163369406557 ,77,2569501046151
7.8143685 ,Left ,60,5528866965319 ,47,9576007414239 ,77,2422438256714
7.8287873 ,Left ,60,5529429397807 ,47,9165960350388 ,77,2400079537852
7.8518265 ,Left ,60,5736717173028 ,47,8942584701263 ,77,2348546858377
7.8744436 ,Left ,60,5938321161438 ,47,8414186643027 ,77,2560031669971
7.8886707 ,Left ,60,6440793593297 ,47,7787976326614 ,77,2846245925243
7.9118162 ,Left ,60,6614232742762 ,47,7641649339074 ,77,2998656077112
7.9342488 ,Left ,60,6528756213666 ,47,7821037146876 ,77,3086395063398
7.9484498 ,Left ,60,6670494097112 ,47,7981558249598 ,77,3048829408421
7.9722131 ,Left ,60,6751875998864 ,47,8082334724378 ,77,2944069826246
7.9946094 ,Left ,60,6650374442588 ,47,8028965408208 ,77,2923656451786
8.008716 ,Left ,60,6535604421304 ,47,8034250972846 ,77,2854509964815
8.0320577 ,Left ,60,6501287181055 ,47,8131049718038 ,77,2709222036509
8.0539609 ,Left ,60,6555369423745 ,47,8103064048057 ,77,2583387261003
8.0684825 ,Left ,60,6506265050662 ,47,7998855780781 ,77,2509752784267
8.091587 ,Left ,60,653808726481 ,47,7996379932035 ,77,2516409013643
8.1145651 ,Left ,60,653808726481 ,47,7996379932035 ,77,2516409013643
8.1290164 ,Left ,60,6632482765615 ,47,8157041616551 ,77,2436613787153
8.1523301 ,Left ,60,6648625702462 ,47,8393245072451 ,77,2344631717562
8.1745304 ,Left ,60,6567540831303 ,47,8681458565513 ,77,2170328363758
8.195666 ,Left ,60,6356969616784 ,47,9100380267255 ,77,2023932249058
8.2119546 ,Left ,60,6052879448879 ,47,9608542414502 ,77,186603125281
8.2346323 ,Left ,60,5759189055346 ,48,0003024285983 ,77,1649909439905
8.2556594 ,Left ,60,554093004154 ,48,01148093188 ,77,129035925759
8.2720086 ,Left ,60,5393274119945 ,47,9762092917412 ,77,101023727821
8.2947127 ,Left ,60,4861976157816 ,47,9838268151831 ,77,0884205313667
8.3158004 ,Left ,60,4298623116566 ,47,9434519423441 ,77,1354358885406
8.3321119 ,Left ,60,4140759565437 ,47,9536979107184 ,77,1777685412802
8.3546701 ,Left ,60,4049747494347 ,48,0003639823364 ,77,2005192912256
8.375473 ,Left ,60,4166084978111 ,48,0925405313874 ,77,1949347670425
8.3915218 ,Left ,60,4342351172483 ,48,1651812839325 ,77,1790624299999
8.414256 ,Left ,60,4499870951697 ,48,1996644081214 ,77,1555700172745
8.4194528 ,Left ,60,4700192970058 ,48,1686888677395 ,77,1125757637072
8.4420193 ,Left ,60,5068067094393 ,48,0776933891815 ,77,0768112978219
8.4572506 ,Left ,60,5377283781262 ,47,9708032367787 ,77,0576220608972
8.4798473 ,Left ,60,5163674030693 ,47,8882649785808 ,77,0370271958121
8.5024078 ,Left ,60,5235841137021 ,47,8502409266641 ,77,0065105665397
8.5175565 ,Left ,60,5470321952054 ,47,8203998643828 ,77,0063281151704
8.5395391 ,Left ,60,582664966607 ,47,7656634740553 ,77,0416070455298
8.5627924 ,Left ,60,5926108313911 ,47,7945546028068 ,77,049197248024
8.5778445 ,Left ,60,5952261136261 ,47,8551653504718 ,77,0413424932987
8.6002721 ,Left ,60,6093575713611 ,47,8834315413911 ,77,0443619498879
8.6227461 ,Left ,60,5932425432903 ,47,9202804676793 ,77,0139350552172
8.6377032 ,Left ,60,5425913659573 ,47,9089193142716 ,76,9968256638446
8.6602787 ,Left ,60,5718356043087 ,47,8287569244548 ,77,0426462492306
8.6826047 ,Left ,60,5932479866729 ,47,8079509493062 ,77,1108748949392
8.6972987 ,Left ,60,6108351826061 ,47,9066531511098 ,77,1408781169767
8.719444 ,Left ,60,6502835067413 ,48,0425819767617 ,77,1739832737377
8.7424774 ,Left ,60,6511842618316 ,48,1490401568396 ,77,2203939127323
8.7576167 ,Left ,60,6314554588384 ,48,2183335701875 ,77,256128294292
8.7800547 ,Left ,60,5966977546212 ,48,2362904882952 ,77,2717520014861
8.8027117 ,Left ,60,5808252868553 ,48,1850145997488 ,77,2770402526503
8.8177762 ,Left ,60,5366686365049 ,48,1046600270665 ,77,2609968874527
8.8401351 ,Left ,60,4754636149653 ,48,0213548086107 ,77,2232701579928
8.862162 ,Left ,60,4290222685044 ,47,9385952438214 ,77,1882351155029
8.8771258 ,Left ,60,387635698068 ,47,8435271449459 ,77,1619236425577
8.8999458 ,Left ,60,3765081007591 ,47,7097158324341 ,77,1774884728281
8.9224419 ,Left ,60,3876535005931 ,47,6260531660467 ,77,1721683406211
8.9377983 ,Left ,60,360474662413 ,47,6264994743056 ,77,1862945899253
8.9600674 ,Left ,60,3886956468185 ,47,6910741399683 ,77,2118798284344
8.9825481 ,Left ,60,4052882653796 ,47,8020805358376 ,77,2145097081162
9.0004421 ,Left ,60,4259864016348 ,47,8961303503195 ,77,2203287834911
9.0196058 ,Left ,60,4658725154324 ,47,9500830009859 ,77,220201262482
9.0419683 ,Left ,60,5001262933082 ,47,9581700981637 ,77,2176893905759
9.0570679 ,Left ,60,5484900778438 ,47,9479545151727 ,77,2053549009379
9.0794998 ,Left ,60,599059056006 ,47,948720611698 ,77,1811298495593
9.0975345 ,Left ,60,6133496105149 ,47,9606643805821 ,77,1637632035942
9.1171891 ,Left ,60,6288737158912 ,47,9615672931378 ,77,149691301477
9.1395897 ,Left ,60,6300938654638 ,47,935641549711 ,77,156019841438
9.1574906 ,Left ,60,6172561057103 ,47,8903513282106 ,77,1772295070996
9.1784257 ,Left ,60,6165123220161 ,47,8285690082505 ,77,1954191043499
9.1993582 ,Left ,60,6173487605366 ,47,7749000200115 ,77,1905138489895
9.2176934 ,Left ,60,5838479809646 ,47,7329153323403 ,77,177573234259
9.2387045 ,Left ,60,5894568506108 ,47,7230178361769 ,77,1996178958332
9.2597373 ,Left ,60,5844846290439 ,47,8376687106337 ,77,2031189828854
9.2822658 ,Left ,60,5623781786708 ,47,9700267568118 ,77,1806306579856
9.2986477 ,Left ,60,5451556509035 ,47,9851624010368 ,77,1825769765278
9.3197028 ,Left ,60,5314382389488 ,47,9350942115804 ,77,1798879144605
9.3421282 ,Left ,60,5405222029657 ,47,8546245846263 ,77,1483075205573
9.3586708 ,Left ,60,5417932793121 ,47,7433266491765 ,77,1119785912723
9.3797266 ,Left ,60,5434826414336 ,47,6431929575467 ,77,0855067856213
9.3973418 ,Left ,60,5427769076196 ,47,5636098264304 ,77,0673268214036
9.4184306 ,Left ,60,5458687167628 ,47,4762078523565 ,77,0581490100327
9.439329 ,Left ,60,5806234143436 ,47,3996482816457 ,77,0882481632381
9.4579335 ,Left ,60,6314459913353 ,47,3844147194065 ,77,1393315261067
9.4790651 ,Left ,60,6963405439431 ,47,4717974633839 ,77,1583047936083
9.4997643 ,Left ,60,7275475131466 ,47,5827168801061 ,77,1592833268394
9.517778 ,Left ,60,7541530636386 ,47,6692342441889 ,77,1722983481792
9.5388205 ,Left ,60,737183950435 ,47,7468648259 ,77,1916252737788
9.5600894 ,Left ,60,7136610300774 ,47,8352364959905 ,77,2208846627714
9.5777516 ,Left ,60,6915249832887 ,47,9242219186712 ,77,2605489828547
9.600238 ,Left ,60,6758119755359 ,47,9899582237425 ,77,2838942046707
9.6200504 ,Left ,60,660331585557 ,48,0397487841006 ,77,2958148091691
9.6377764 ,Left ,60,626870968754 ,48,0735412449646 ,77,3000862498637
9.6598949 ,Left ,60,6022478899073 ,48,0890452975675 ,77,2888172880988
9.6794423 ,Left ,60,5903370360103 ,48,0823867306246 ,77,2674630817073
9.6974801 ,Left ,60,587273348712 ,48,0658755577673 ,77,2488280916679
9.7197717 ,Left ,60,5796185232971 ,48,0460899258344 ,77,2371383022921
9.7400177 ,Left ,60,5963049832952 ,48,0202562220858 ,77,2228965636363
9.7639616 ,Left ,60,6251531344011 ,47,9746838901597 ,77,2166868088764
9.7804747 ,Left ,60,6589063580226 ,47,9237382737952 ,77,2238210043949
9.8003067 ,Left ,60,6833283295362 ,47,8876994806259 ,77,2378503611296
9.8177232 ,Left ,60,7024233514697 ,47,8692215183578 ,77,2428788935215
9.8402786 ,Left ,60,7156874263304 ,47,8449904210503 ,77,2502890760923
9.8598561 ,Left ,60,7333236979269 ,47,8229458637863 ,77,2629545948757
9.8775055 ,Left ,60,732900270429 ,47,828487258622 ,77,2712329595937
9.9004304 ,Left ,60,7317392160634 ,47,8303180534789 ,77,2710882159466
9.9202983 ,Left ,60,7317930671874 ,47,8329178139324 ,77,2718773468006
9.9381052 ,Left ,60,7310368451805 ,47,828808391897 ,77,2835031432805
9.9604556 ,Left ,60,7224542237134 ,47,8322766464318 ,77,2938771729002
9.9798343 ,Left ,60,7170598875881 ,47,8532313142947 ,77,2921404662289
10.0051346 ,Left ,60,7369693590685 ,47,8761780261672 ,77,2726002235181
10.0200144 ,Left ,60,7411269149882 ,47,8904381789008 ,77,2648431390755
10.0425596 ,Left ,60,7256498917238 ,47,9069701246666 ,77,2581780549324
10.0575882 ,Left ,60,7043252478973 ,47,9418780654905 ,77,2476875181551
10.0799144 ,Left ,60,6769184550097 ,47,9741369645832 ,77,2377009387629
10.0994887 ,Left ,60,6509824473249 ,47,9980680673034 ,77,2224351497949
10.1175675 ,Left ,60,6243305469025 ,48,0102427889937 ,77,2070505192862
10.1398993 ,Left ,60,5783085887342 ,48,0129222296936 ,77,1857848556434
10.1611602 ,Left ,60,5159974476142 ,48,0340647658218 ,77,1669414697737
10.1775477 ,Left ,60,4765990944851 ,48,0651834006533 ,77,1624345418484
10.2001317 ,Left ,60,441379665278 ,48,0588766452343 ,77,203066807753
10.2212032 ,Left ,60,4269815537189 ,48,0870444304134 ,77,2349046821311
10.2376858 ,Left ,60,3964570694662 ,48,1807554732189 ,77,2410244191949
10.260162 ,Left ,60,4060247701804 ,48,3216304439187 ,77,2135818965323
10.2812504 ,Left ,60,4130898498625 ,48,4095904424409 ,77,1711069317271
10.3028383 ,Left ,60,4116872254107 ,48,4389433281999 ,77,115410541919
10.3192838 ,Left ,60,4188014245484 ,48,4027566085782 ,77,0627404680451
10.3404506 ,Left ,60,4264649609996 ,48,3340678344727 ,77,0362117207292
10.3567733 ,Left ,60,4221511945587 ,48,2325067120006 ,77,0188602063559
10.3791275 ,Left ,60,4415957484693 ,48,1539103080426 ,76,9935663897346
10.4004922 ,Left ,60,4494352673136 ,48,0918038454579 ,76,9623055526361
10.416618 ,Left ,60,4623778191477 ,48,0510422324347 ,76,9494301551751
10.4393257 ,Left ,60,4608094357842 ,48,0136578111108 ,76,9481910496919
10.4602557 ,Left ,60,4629336643867 ,48,0041341213872 ,76,9680745247033
10.4766453 ,Left ,60,4742370453763 ,48,025940734443 ,76,9848815063732
10.4996466 ,Left ,60,4711242606424 ,48,0608444927965 ,76,9994900126864
10.5222549 ,Left ,60,4802264350893 ,48,084544139849 ,77,0125167116931
10.5372112 ,Left ,60,4510514185363 ,48,0859327846103 ,77,0157935793039
10.5596591 ,Left ,60,4164996778923 ,48,0567732900045 ,77,0119976131383
10.5822628 ,Left ,60,4118671135941 ,48,0053301345474 ,77,0406992445199
10.597085 ,Left ,60,43172271257 ,47,9446896731083 ,77,0885439753954
10.619243 ,Left ,60,4414551095541 ,47,9775328852397 ,77,1390409280789
10.6418482 ,Left ,60,4547933934164 ,48,0710349632094 ,77,1632796643945
10.6643197 ,Left ,60,4768633391519 ,48,1508535008493 ,77,1835207343037
10.6793619 ,Left ,60,4406364661434 ,48,2242329533365 ,77,2043493650186
10.7019223 ,Left ,60,4154797717654 ,48,2713286147439 ,77,2055870519086
10.7163206 ,Left ,60,3614654233821 ,48,2952663183059 ,77,1910284077426
10.7392654 ,Left ,60,3308941313055 ,48,2805110578646 ,77,1699506265665
10.7617666 ,Left ,60,2816801176482 ,48,2412494663967 ,77,1486512477427
10.7760761 ,Left ,60,2466993567267 ,48,1896756895951 ,77,1164888427168
10.7993393 ,Left ,60,2130127167933 ,48,1278572535921 ,77,0943697999711
10.8217745 ,Left ,60,2027326386729 ,48,0173344591946 ,77,1001889409844
10.8362493 ,Left ,60,2204500011187 ,47,9462265655286 ,77,1312305375996
10.8592144 ,Left ,60,2148662860381 ,47,9329568547772 ,77,171106854933
10.881842 ,Left ,60,2565556275814 ,47,9923420215556 ,77,1966220686312
10.8961367 ,Left ,60,286870787798 ,48,087550860978 ,77,1977051065964
10.9192617 ,Left ,60,3209155495814 ,48,1580223549608 ,77,1995591431957
10.9417596 ,Left ,60,3722344655185 ,48,1902696978997 ,77,1938655537405
10.9561008 ,Left ,60,4084811489908 ,48,1691767280356 ,77,1744570391382
10.9790477 ,Left ,60,4572670928754 ,48,1149127902745 ,77,1630917951195
11.00162 ,Left ,60,4777629828544 ,48,072199056487 ,77,1514687465565
11.0228733 ,Left ,60,4884306011032 ,48,0196585860785 ,77,1440250366031
11.0393787 ,Left ,60,4916032700979 ,47,9359894196652 ,77,1539312058638
11.0618231 ,Left ,60,4795178645054 ,47,8351868266743 ,77,1869394030452
11.0832151 ,Left ,60,4476987791962 ,47,7496680736951 ,77,2241902925238
11.0993617 ,Left ,60,4366300051239 ,47,6727226716627 ,77,2261612580082
11.1219572 ,Left ,60,4127895822783 ,47,593725807152 ,77,2556458022325
11.1431463 ,Left ,60,4060165753787 ,47,6242694730702 ,77,2650595025187
11.1593375 ,Left ,60,4003559078779 ,47,7417919949516 ,77,2551866438741
11.1814926 ,Left ,60,3861615490633 ,47,7953442019452 ,77,2388476021214
11.2033871 ,Left ,60,3841497783476 ,47,737942210034 ,77,2291863873927
11.2190675 ,Left ,60,4357177220225 ,47,6469137343915 ,77,1962402810031
11.2423645 ,Left ,60,4731702161255 ,47,5418486457668 ,77,1486477824349
11.2631108 ,Left ,60,47036756861 ,47,4551937592609 ,77,109197953006
11.2792307 ,Left ,60,4939517851434 ,47,402151482331 ,77,0708230071372
11.3018178 ,Left ,60,532534026108 ,47,3426599220873 ,77,0515673784179
11.3226729 ,Left ,60,5667122930019 ,47,305637279881 ,77,0690940870356
11.3391213 ,Left ,60,61726242577 ,47,3104408326018 ,77,1287709985557
11.3618084 ,Left ,60,6457214506426 ,47,3991971241674 ,77,1605186181154
11.3907993 ,Left ,60,6785140072415 ,47,5242236761538 ,77,1760562598091
11.3988739 ,Left ,60,6631947888707 ,47,6338783970607 ,77,2062084490871
11.421815 ,Left ,60,6150452229401 ,47,7247306558416 ,77,2505885551003
11.4431069 ,Left ,60,5614090617627 ,47,7958359177088 ,77,3071820755786
11.4591802 ,Left ,60,5049003136398 ,47,8442885247244 ,77,3560067090615
11.4823635 ,Left ,60,4573199806273 ,47,871351754516 ,77,3995605877542
11.5046358 ,Left ,60,4378671476228 ,47,8987934944524 ,77,4194087247481
11.5196838 ,Left ,60,394490550297 ,47,8982992209071 ,77,4078507368336
11.5421227 ,Left ,60,3725712412008 ,47,8845106535814 ,77,3810684478314
11.5642944 ,Left ,60,3673174653573 ,47,869810077108 ,77,3586937043737
11.5793106 ,Left ,60,3683235512096 ,47,8550193594955 ,77,3456766665045
11.6017377 ,Left ,60,3852265599434 ,47,8276351679196 ,77,3370508019697
11.6246746 ,Left ,60,4233406698396 ,47,7970088673619 ,77,3257384815719
11.6389409 ,Left ,60,4611747458625 ,47,7670922960918 ,77,330288324615
11.6622817 ,Left ,60,4832356187814 ,47,7474479034018 ,77,3388556377018
11.6848012 ,Left ,60,5134912094833 ,47,736116393474 ,77,3331752866259
11.707004 ,Left ,60,5470374622846 ,47,7211461277263 ,77,320887032171
11.7220639 ,Left ,60,5691367955376 ,47,7126995029565 ,77,3097826269907
11.7443965 ,Left ,60,5810172685933 ,47,7184477111506 ,77,3059403450925
11.7585576 ,Left ,60,5888745451471 ,47,725759149548 ,77,3039655746576
11.7818293 ,Left ,60,5992105788211 ,47,7210840683608 ,77,3026478787734
11.804136 ,Left ,60,600776336129 ,47,7196545367916 ,77,3025905964268
11.8190556 ,Left ,60,593860225385 ,47,7285122549613 ,77,2995990354791
11.8421994 ,Left ,60,5854762837796 ,47,7397120567487 ,77,2938000114711
11.8647387 ,Left ,60,586480638835 ,47,742336289346 ,77,2876608687995
11.878835 ,Left ,60,5769636719448 ,47,7312386975069 ,77,2881493847582
11.9019082 ,Left ,60,5684831148914 ,47,737220847174 ,77,2808167557872
11.9243116 ,Left ,60,5649363485746 ,47,7642033766874 ,77,2731769915261
11.9453164 ,Left ,60,5636271423511 ,47,7924788708651 ,77,2582423306503
11.9619324 ,Left ,60,5604657643262 ,47,8151393908073 ,77,2475678159241
11.9843394 ,Left ,60,542948206524 ,47,833853766111 ,77,2461195345739
12.0053968 ,Left ,60,5185870004259 ,47,8474440930131 ,77,2420111980677
12.0219607 ,Left ,60,498047243307 ,47,8655965348338 ,77,2334226758995
12.051765 ,Left ,60,4574074111158 ,47,8900145718374 ,77,2200070655602
12.0654617 ,Left ,60,433487306832 ,47,8936196699512 ,77,2033214967695
12.0817574 ,Left ,60,4050459357777 ,47,8664611518527 ,77,1928509433339
12.1042758 ,Left ,60,377466200175 ,47,8346293320261 ,77,2111492510382
12.1252728 ,Left ,60,355415784363 ,47,8130630740061 ,77,2592371952539
12.1418054 ,Left ,60,3646267602096 ,47,837884498111 ,77,2876235846871
12.164275 ,Left ,60,3705402089309 ,47,9268198623587 ,77,3045942690485
12.1856125 ,Left ,60,4068421377624 ,48,041760534147 ,77,2831201539004
12.201891 ,Left ,60,4161176302422 ,48,1134555448708 ,77,2451499278228
12.224461 ,Left ,60,4296730545223 ,48,1422030990081 ,77,19658682793
12.2456392 ,Left ,60,4230930198674 ,48,1273968278508 ,77,1519883687932
12.2619817 ,Left ,60,4291688524259 ,48,0624381503249 ,77,1070353605746
12.2843338 ,Left ,60,4152745577992 ,47,957738716818 ,77,0709539937964
12.3056926 ,Left ,60,4085857670889 ,47,8823464375561 ,77,0605269198897
12.328196 ,Left ,60,3966452594303 ,47,8399947181923 ,77,0550244847586
12.3446155 ,Left ,60,4300228760662 ,47,8142162155409 ,77,1005688197114
12.3654455 ,Left ,60,4511791388249 ,47,8501523710627 ,77,1173068701718
12.3821068 ,Left ,60,430215152329 ,47,9203785390795 ,77,129624010937
12.4044646 ,Left ,60,4292292446598 ,47,9936936529268 ,77,1330692202628
12.4269045 ,Left ,60,4074121820225 ,48,0158366846094 ,77,1160573033484
12.441924 ,Left ,60,3884614620246 ,47,9937076377172 ,77,0970254776467
12.4644785 ,Left ,60,4052544021916 ,47,9266028011071 ,77,1100142081823
12.4870212 ,Left ,60,390870647098 ,47,8888844272507 ,77,1396392708588
12.5019931 ,Left ,60,4114870887555 ,47,9500960341263 ,77,1632117927802
12.5242065 ,Left ,60,4141910957106 ,48,0448430377078 ,77,1800036514559
12.5469633 ,Left ,60,4294312413148 ,48,1052170264742 ,77,189566714467
12.5612511 ,Left ,60,4194383569088 ,48,1067445829969 ,77,1927080416137
12.5842896 ,Left ,60,4090451736493 ,48,0786962866852 ,77,1914257983495
12.6070451 ,Left ,60,3976347654934 ,48,0346937601782 ,77,1751163120746
12.6211288 ,Left ,60,3647171973259 ,47,9802943112348 ,77,1684975157809
12.6440471 ,Left ,60,3261036854104 ,47,9079029789807 ,77,1685785982176
12.6667509 ,Left ,60,2612089665452 ,47,8227635639537 ,77,1924085202501
12.6812726 ,Left ,60,2395657397011 ,47,7394359505357 ,77,2250567180788
12.7044425 ,Left ,60,2265540780617 ,47,7415598545001 ,77,2368701426232
12.7268664 ,Left ,60,2014745567961 ,47,8114059440192 ,77,2471390756214
12.7411699 ,Left ,60,2053095115415 ,47,9001335971043 ,77,2586551423455
12.7640582 ,Left ,60,2374531647816 ,47,9676540095466 ,77,2646381363428
12.7867577 ,Left ,60,2510524449216 ,48,0055494482131 ,77,2601305097086
12.8008022 ,Left ,60,2546571237439 ,48,0157946180771 ,77,254490674688
12.8242121 ,Left ,60,3031258119141 ,47,9861654258375 ,77,2525497581597
12.8466728 ,Left ,60,3635297987939 ,47,9330849322126 ,77,2423512231606
12.8609095 ,Left ,60,4100130955646 ,47,8880212896069 ,77,2296063685593
12.8851336 ,Left ,60,4669653617226 ,47,8546921954514 ,77,1975048072556
12.9074084 ,Left ,60,5140513991853 ,47,8374215658602 ,77,1669545540454
12.9284617 ,Left ,60,5423450970163 ,47,8352294345709 ,77,1532814334193
12.9521123 ,Left ,60,5633662341376 ,47,8339247401823 ,77,1436724637035
12.96681 ,Left ,60,5819712127838 ,47,7997720817901 ,77,1533531776736
12.98795 ,Left ,60,602862430654 ,47,7386172107315 ,77,1761759068537
13.0043537 ,Left ,60,5740588528661 ,47,7052196849017 ,77,2054596678643
13.0267993 ,Left ,60,5435672422668 ,47,6937469862126 ,77,2120682477129
13.0473932 ,Left ,60,5295137755748 ,47,6440175700894 ,77,2166511823937
13.0642281 ,Left ,60,512117146272 ,47,5702876124644 ,77,2366694825083
13.0871465 ,Left ,60,4713559701408 ,47,5835882706433 ,77,2430752058863
13.1084291 ,Left ,60,4683082479025 ,47,6764156986003 ,77,2406891204592
13.1248433 ,Left ,60,4832217141034 ,47,730138976127 ,77,2243902319
13.1472618 ,Left ,60,4902620510492 ,47,7135959542028 ,77,2157622746906
13.1682931 ,Left ,60,5027539250403 ,47,6767245637956 ,77,197062083478
13.1845864 ,Left ,60,5024064763053 ,47,5933334565629 ,77,1649919222876
13.2068021 ,Left ,60,502958600208 ,47,5137219161853 ,77,1414359239934
13.2276768 ,Left ,60,4880223702513 ,47,5226476833447 ,77,1032863904624
13.2440964 ,Left ,60,4801958101302 ,47,495722737403 ,77,0649256136633
13.2666376 ,Left ,60,5045032293704 ,47,3934019545274 ,77,0848321111072
13.2878854 ,Left ,60,5162051301588 ,47,3518101710659 ,77,1297429243713
13.3042602 ,Left ,60,5222651720968 ,47,4330926255114 ,77,1588896979438
13.3267394 ,Left ,60,5878666119053 ,47,5704826916813 ,77,1612268787082
13.3493416 ,Left ,60,591467847121 ,47,6596771677959 ,77,1927911798968
13.3636499 ,Left ,60,5884952263074 ,47,7395304615898 ,77,2360801954293
13.3868724 ,Left ,60,543754493365 ,47,8023260802021 ,77,2804864254009
13.4093144 ,Left ,60,5173932883094 ,47,8549274568861 ,77,3084517426913
13.4250357 ,Left ,60,502789652604 ,47,889332323242 ,77,3283438959882
13.4469208 ,Left ,60,4742065883938 ,47,9110575734325 ,77,3314518141742
13.4689788 ,Left ,60,427256067189 ,47,9044999814526 ,77,3299010734192
13.4842464 ,Left ,60,4071303370193 ,47,8850604945668 ,77,3278755581557
13.5067731 ,Left ,60,410432729963 ,47,860828822673 ,77,32563147804
13.5292882 ,Left ,60,4165766714634 ,47,8385579487478 ,77,325019187189
13.5434818 ,Left ,60,4276031210735 ,47,8181120080142 ,77,3228988932119
13.566881 ,Left ,60,4469391221521 ,47,7957268472657 ,77,3233461545969
13.5893138 ,Left ,60,4698447275681 ,47,7870274550033 ,77,3253847264763
13.6034619 ,Left ,60,485140336684 ,47,7814499299441 ,77,3324808664114
13.6266639 ,Left ,60,4992650316926 ,47,7733837598443 ,77,335033423263
13.649144 ,Left ,60,5207505891613 ,47,7610063535677 ,77,3262435342559
13.6636688 ,Left ,60,5248458262466 ,47,7441966205647 ,77,319586086572
13.6869123 ,Left ,60,5333733352109 ,47,7380708617695 ,77,3083930769459
13.7168206 ,Left ,60,538848369083 ,47,7378199068961 ,77,2965482615177
13.7235364 ,Left ,60,5465915763956 ,47,7313166838703 ,77,2842421825922
13.7469799 ,Left ,60,5557405194931 ,47,7317262611213 ,77,2715169407789
13.7693141 ,Left ,60,5555177793019 ,47,7411133001969 ,77,2576154582733
13.7836863 ,Left ,60,5616638729938 ,47,7601632201278 ,77,2389535112323
13.806675 ,Left ,60,5628228172714 ,47,7807567463634 ,77,2290650566046
13.829197 ,Left ,60,574900981261 ,47,803222414426 ,77,2163781180444
13.8501937 ,Left ,60,5723014973412 ,47,8238055299055 ,77,1954293830103
13.8667148 ,Left ,60,5694641118709 ,47,8399524710804 ,77,1794376018697
13.8893005 ,Left ,60,5378535592729 ,47,8733773816 ,77,1621758024082
13.9106014 ,Left ,60,4731149322909 ,47,9107172869228 ,77,1473474346848
13.9267587 ,Left ,60,44596725097 ,47,9222336283799 ,77,1416378464604
13.9494067 ,Left ,60,418526308455 ,47,9137685880064 ,77,1269645896975
13.9703747 ,Left ,60,3830847380869 ,47,8848785305009 ,77,1105092071657
13.9942177 ,Left ,60,3347098055836 ,47,8587782103272 ,77,1229275155769
14.0092041 ,Left ,60,3086044733984 ,47,8126789303442 ,77,1665639781251
14.0303514 ,Left ,60,300761872393 ,47,8330838203229 ,77,1983516032428
14.0469711 ,Left ,60,2950487299518 ,47,9193249849658 ,77,2195118439509
14.069315 ,Left ,60,3261040969252 ,48,0462230252922 ,77,2281749503238
14.0901984 ,Left ,60,3464727171266 ,48,1470974917202 ,77,1989197670109
14.1060733 ,Left ,60,3800393680885 ,48,2010640487444 ,77,1423488129938
14.1293945 ,Left ,60,3998356826107 ,48,1744170289701 ,77,0932237146483
14.1507084 ,Left ,60,4115512218447 ,48,1168331104795 ,77,0588068126007
14.1669656 ,Left ,60,3972167566393 ,48,0342831935431 ,77,0313156571972
14.1722296 ,Left ,60,3873396390554 ,47,9547948097017 ,77,0157203578336
14.2024206 ,Left ,60,4161737398387 ,47,8736719501176 ,77,0066874006641
14.2172542 ,Left ,60,4373082336183 ,47,7949062414905 ,77,0239712873002
14.2322808 ,Left ,60,4591867800006 ,47,8495359504197 ,77,0075699039718
14.2548648 ,Left ,60,4933099598374 ,47,958756669159 ,76,9945393720666
14.2773001 ,Left ,60,5090913859842 ,48,0313441862862 ,77,0039829696793
14.2922043 ,Left ,60,490549028088 ,48,0593162835069 ,77,0246363294612
14.31479 ,Left ,60,4412044230615 ,48,0349869871159 ,77,0269552606288
14.3373376 ,Left ,60,457916951758 ,47,9428480792058 ,77,0581486767237
14.3521372 ,Left ,60,4830273159283 ,47,8539746810621 ,77,093648469053
14.3747813 ,Left ,60,4993206523975 ,47,8795759682067 ,77,1216761918051
14.397238 ,Left ,60,5255213118593 ,47,9670375923368 ,77,138897863709
14.4123068 ,Left ,60,5546327305465 ,48,0444480359451 ,77,1698416568105
14.4350018 ,Left ,60,5546184278637 ,48,0981952475607 ,77,1948372979626
14.457204 ,Left ,60,5355121792144 ,48,1333779414271 ,77,2077387609688
14.479514 ,Left ,60,5005683758761 ,48,159986352466 ,77,1939013746321
14.4944725 ,Left ,60,4705660566235 ,48,1475397035721 ,77,166926494953
14.5169844 ,Left ,60,4230209816522 ,48,1007823436554 ,77,1098148950605
14.5319215 ,Left ,60,3735111564245 ,48,0499649277571 ,77,0595845601173
14.5545711 ,Left ,60,3295849402269 ,47,950987306335 ,77,0279252916398
14.5773432 ,Left ,60,322933553202 ,47,8116895360422 ,77,0459987091308
14.5937782 ,Left ,60,3442037434711 ,47,7277691472707 ,77,0528187900292
14.6180321 ,Left ,60,3744289068864 ,47,7581669806672 ,77,048585373162
14.6373491 ,Left ,60,3998757121734 ,47,8656221407984 ,77,0435865272765
14.6523402 ,Left ,60,4221167340551 ,47,9876250629851 ,77,0461073950373
14.674841 ,Left ,60,4378041578371 ,48,0592133031537 ,77,0675533317468
14.6977539 ,Left ,60,4402980821492 ,48,0754468757109 ,77,0861673818956
14.7198884 ,Left ,60,4505627224566 ,48,044189002069 ,77,0903336226146
14.7346484 ,Left ,60,4925057124021 ,47,9848845984419 ,77,0749760539011
14.7572232 ,Left ,60,4970780469047 ,47,943347551959 ,77,0588010857248
14.772125 ,Left ,60,5101809276608 ,47,9209020237349 ,77,0408316941382
14.7947564 ,Left ,60,531259277584 ,47,8696759496247 ,77,0495096789869
14.8176196 ,Left ,60,5565280501111 ,47,7970990200826 ,77,0670655475692
14.834071 ,Left ,60,5739711551126 ,47,7187989894693 ,77,0902890569376
14.8553393 ,Left ,60,5741550012058 ,47,667045768927 ,77,1052117067359
14.8774341 ,Left ,60,5491815684481 ,47,61810407898 ,77,1318557086952
14.894099 ,Left ,60,5515876124242 ,47,5228106851071 ,77,189129944311
14.9150737 ,Left ,60,5256316587813 ,47,5719980823468 ,77,202753113809
14.9373274 ,Left ,60,5246844191199 ,47,6958524775899 ,77,1866945412268
14.9535952 ,Left ,60,5192503333774 ,47,7342717396549 ,77,1823321420022
14.9744871 ,Left ,60,5137143888077 ,47,6844517800425 ,77,1836820264868
14.997623 ,Left ,60,5431299971068 ,47,6190019172391 ,77,1594540432482
15.0140272 ,Left ,60,5261016432468 ,47,5241624613531 ,77,1259152050737
15.0351305 ,Left ,60,535397395491 ,47,4386031186073 ,77,1097483047059
15.0526306 ,Left ,60,5391687076062 ,47,3836418353803 ,77,0868896232149
15.0738084 ,Left ,60,5322423512346 ,47,3307176670013 ,77,0938472294137
15.0945168 ,Left ,60,5234403310341 ,47,2649001098002 ,77,1518133130309
15.1126538 ,Left ,60,5291236850082 ,47,2885080696118 ,77,1860340087086
15.1334751 ,Left ,60,5675996528486 ,47,4197909089703 ,77,196352142818
15.1547878 ,Left ,60,5990103563187 ,47,533361551989 ,77,1681125441013
15.1772288 ,Left ,60,6181293754946 ,47,6076436457269 ,77,1914126706095
15.1938392 ,Left ,60,5960234828546 ,47,6801189066929 ,77,2324579923574
15.2148539 ,Left ,60,5538115811734 ,47,7519240118946 ,77,2729541195058
15.2373215 ,Left ,60,5365462795338 ,47,8101335421589 ,77,289718995743
15.2549909 ,Left ,60,5118782159246 ,47,8485249704567 ,77,2950521101838
15.2746067 ,Left ,60,478274994711 ,47,8677148711745 ,77,2824870737768
15.2926549 ,Left ,60,4290978135495 ,47,8552902803106 ,77,2654528191618
15.3151511 ,Left ,60,4061403155989 ,47,8269080312023 ,77,2567343422994
15.3348022 ,Left ,60,4131556763633 ,47,7931996403473 ,77,2597344106772
15.3530318 ,Left ,60,41793796607 ,47,7578214556547 ,77,2716142968494
15.3754561 ,Left ,60,4230299143473 ,47,7176031769429 ,77,2818231860349
15.3950271 ,Left ,60,4382844785773 ,47,6767252829219 ,77,285940569573
15.4129697 ,Left ,60,4462013098889 ,47,6582331639233 ,77,2868439597816
15.4350362 ,Left ,60,4565223608761 ,47,6535572199747 ,77,2854929917119
15.4548935 ,Left ,60,4643694182714 ,47,6298406110866 ,77,2849003263159
15.4726915 ,Left ,60,4696659011727 ,47,5739278308434 ,77,2920494802994
15.4952332 ,Left ,60,4757291673248 ,47,5472065123061 ,77,2965565006854
15.514648 ,Left ,60,4632534686296 ,47,5616610475826 ,77,2962300267605
15.5325351 ,Left ,60,4768694683273 ,47,5721149360297 ,77,2907982733956
15.5548601 ,Left ,60,4906107044933 ,47,5759186073836 ,77,2894359501936
15.5744053 ,Left ,60,4828178261726 ,47,5781380010374 ,77,2973874721247
15.5926316 ,Left ,60,4844256024373 ,47,5793146203215 ,77,2980783679279
15.615153 ,Left ,60,4974459551241 ,47,5954967041656 ,77,2901955981536
15.634989 ,Left ,60,5073524940829 ,47,6102393030428 ,77,2780789177703
15.6528044 ,Left ,60,4970432102163 ,47,6297696262147 ,77,2761322277949
15.6752084 ,Left ,60,47886768602 ,47,6538445723557 ,77,2737138433792
15.695085 ,Left ,60,4669950579898 ,47,6823454688678 ,77,2649300316136
15.7128415 ,Left ,60,4444417749757 ,47,7111712535977 ,77,2518217210963
15.7352168 ,Left ,60,4302459297585 ,47,7320343714697 ,77,2332718482473
15.7550097 ,Left ,60,3972103571505 ,47,7326520271181 ,77,2286823108992
15.7727836 ,Left ,60,3511523294611 ,47,7263258053609 ,77,2286801397128
15.7952163 ,Left ,60,3135253166223 ,47,6575356093565 ,77,2591788531988
15.8163183 ,Left ,60,2928837986017 ,47,6291404727476 ,77,2876455790986
15.8327226 ,Left ,60,284906548692 ,47,6907685512367 ,77,3009753784237
15.8552131 ,Left ,60,2898336318571 ,47,8035498434375 ,77,2895306050748
15.876136 ,Left ,60,3299070072535 ,47,9091931025521 ,77,2536197997789
15.8973061 ,Left ,60,379869720053 ,47,9834006631087 ,77,1936474009407
15.9152757 ,Left ,60,4167081793583 ,47,9822031261589 ,77,1447849532133
15.936346 ,Left ,60,4413669031467 ,47,94562211819 ,77,1047246937782
15.9527686 ,Left ,60,4570450436433 ,47,8655291695828 ,77,0718507538673
15.9752369 ,Left ,60,4629704650293 ,47,7668478731224 ,77,0440018537428
16.0023241 ,Left ,60,4753657720937 ,47,6881740084343 ,77,0238833138569
16.011541 ,Left ,60,4786052528282 ,47,620278208707 ,77,0260256611902
16.0416707 ,Left ,60,5077768192718 ,47,6127486693903 ,77,0237132767086
16.0557147 ,Left ,60,5127302172797 ,47,6683503730651 ,77,0211110719974
16.0723574 ,Left ,60,516703241129 ,47,7509286978084 ,77,0289113791581
16.0942972 ,Left ,60,5177265659768 ,47,7959404384638 ,77,0507678638607
16.116838 ,Left ,60,4986184425678 ,47,8142453042935 ,77,0458282783725
16.1318592 ,Left ,60,4679804282399 ,47,8023206928375 ,77,0037589020244
16.1544244 ,Left ,60,4350190189172 ,47,7592413949765 ,76,9847471985859
16.1750991 ,Left ,60,4075999509165 ,47,7292389454886 ,77,0157573135641
16.1924615 ,Left ,60,4027908323815 ,47,7538841918343 ,77,072102926436
16.2144722 ,Left ,60,3930007176421 ,47,857526549809 ,77,1194040944205
16.2371482 ,Left ,60,3946223480604 ,47,9586940188229 ,77,1598211036387
16.2518519 ,Left ,60,3780659444633 ,48,0634924145332 ,77,1800755616565
16.2744175 ,Left ,60,3136596450588 ,48,1228628158396 ,77,1845199539847
16.2968746 ,Left ,60,2595953741369 ,48,1392057261553 ,77,1863104944334
16.3112759 ,Left ,60,2070858231564 ,48,1109953996076 ,77,1839428754764
16.3343439 ,Left ,60,1393133347943 ,48,0436594625616 ,77,1949117180869
16.3569285 ,Left ,60,0795352370269 ,47,9356615202714 ,77,2082668537217
16.3711541 ,Left ,60,064620456125 ,47,7988154999513 ,77,2263709994321
16.3944263 ,Left ,60,0816515146305 ,47,7329908018748 ,77,2372067618349
16.4168605 ,Left ,60,0846922339597 ,47,749334020895 ,77,2579718260964
16.4312198 ,Left ,60,1427002104156 ,47,7988993059391 ,77,2795851748513
16.4543583 ,Left ,60,2167623460281 ,47,8398321923917 ,77,2918104497315
16.476842 ,Left ,60,2549844800485 ,47,8518106234228 ,77,3069424521457
16.4916504 ,Left ,60,2879376679101 ,47,8725840051519 ,77,304222005009
16.514503 ,Left ,60,3390197017152 ,47,8865018411303 ,77,2830059238342
16.5372399 ,Left ,60,3869538659364 ,47,888883230945 ,77,2637426255746
16.5513002 ,Left ,60,4295789996618 ,47,8881803993027 ,77,2491140953288
16.574398 ,Left ,60,4649475125182 ,47,8901074042397 ,77,2422199387516
16.5968164 ,Left ,60,4758664190043 ,47,8902666307823 ,77,2357711623027
16.6111525 ,Left ,60,4888965958264 ,47,8925073838969 ,77,2285007936267
16.6341242 ,Left ,60,5049398583839 ,47,8748540454918 ,77,2220060557998
16.6569208 ,Left ,60,5127595159617 ,47,8270861352351 ,77,2276565005663
16.6709171 ,Left ,60,5141613141883 ,47,7564872520326 ,77,2449816256393
16.6943196 ,Left ,60,5293965220166 ,47,683681887598 ,77,253191103217
16.7166184 ,Left ,60,5465830602254 ,47,6207527218599 ,77,2324242641972
16.7384807 ,Left ,60,5559062841059 ,47,5727854624675 ,77,1838061240275
16.7546989 ,Left ,60,5655645975729 ,47,5378746163952 ,77,139018687184
16.7771943 ,Left ,60,6125791493413 ,47,5062700692107 ,77,0878016845736
16.7984033 ,Left ,60,6499912036685 ,47,4606160582171 ,77,0366690138721
16.8146766 ,Left ,60,7012203482352 ,47,4303910262255 ,77,0028367840448
16.8371895 ,Left ,60,738838666707 ,47,4443617208541 ,76,9704298193493
16.8583332 ,Left ,60,7459541729359 ,47,4816485759718 ,76,9411769553648
16.8743224 ,Left ,60,7299996581754 ,47,5198406030415 ,76,9365300366428
16.8968837 ,Left ,60,684931241274 ,47,5560557931981 ,76,9478879387448
16.9180258 ,Left ,60,599836548016 ,47,5512270982512 ,76,9795993693025
16.9348378 ,Left ,60,541672767079 ,47,5032610835653 ,77,0189318903241
16.9575002 ,Left ,60,5287040406283 ,47,5174894663943 ,77,0279566705901
16.9785254 ,Left ,60,5054123278419 ,47,6045819757278 ,76,9957804948819
16.994026 ,Left ,60,4855367995056 ,47,66401901212 ,76,9821099489749
17.0168381 ,Left ,60,4636142907788 ,47,6638561107136 ,77,0041555750811
17.0381561 ,Left ,60,4718637484553 ,47,656160985637 ,77,0171152330271
17.0534283 ,Left ,60,4885403188158 ,47,6100723616179 ,77,0233734075318
17.0768487 ,Left ,60,4980046409943 ,47,5345607667656 ,77,041714754413
17.0979033 ,Left ,60,4792316339729 ,47,4681808367652 ,77,0699634299248
17.1143276 ,Left ,60,4730379603843 ,47,3950580103721 ,77,0812445309719
17.1369015 ,Left ,60,5023995487946 ,47,3058346910369 ,77,1104603335265
17.1592583 ,Left ,60,5399600990433 ,47,2812055814551 ,77,1547502073551
17.1743586 ,Left ,60,5798250828706 ,47,3624045546768 ,77,1785839673724
17.1968022 ,Left ,60,6327135580255 ,47,468944524601 ,77,1719259010932
17.2193547 ,Left ,60,6360110916717 ,47,5529177252817 ,77,2018435957089
17.2343189 ,Left ,60,6267157500846 ,47,6364108229131 ,77,2336162241482
17.2568868 ,Left ,60,5891935369527 ,47,7021079562379 ,77,2518008913851
17.2793186 ,Left ,60,5649945322908 ,47,728756162831 ,77,2515401634409
17.2939312 ,Left ,60,5494984817858 ,47,7238894043718 ,77,2414050357584
17.3227583 ,Left ,60,5330699877763 ,47,7104003512683 ,77,2294061487762
17.3393073 ,Left ,60,5125173910205 ,47,7018457756689 ,77,2265515966894
17.3536881 ,Left ,60,5063133181576 ,47,6913899140902 ,77,2248918798277
17.3767528 ,Left ,60,5364243560492 ,47,6576010614814 ,77,2095074772336
17.399334 ,Left ,60,552637312177 ,47,5905115115803 ,77,2097877081847
17.4136812 ,Left ,60,5735082246323 ,47,5422039894787 ,77,2169261687384
17.4367224 ,Left ,60,5897447089841 ,47,5208665299277 ,77,2232118630988
17.4593568 ,Left ,60,6095513774986 ,47,5167562779825 ,77,2289043708195
17.4736204 ,Left ,60,6212986090005 ,47,519018965792 ,77,2270876795583
17.4969749 ,Left ,60,6278708247907 ,47,5177440644676 ,77,2218831762999
17.5193043 ,Left ,60,6326955137601 ,47,4942787305665 ,77,2206209720545
17.5336816 ,Left ,60,6298530267467 ,47,469611050304 ,77,2200633425942
17.5569278 ,Left ,60,6242395042588 ,47,4751945585985 ,77,2227531348609
17.5795693 ,Left ,60,6231565044224 ,47,5030105307916 ,77,2102901159818
17.6007721 ,Left ,60,6399077479096 ,47,5236132069012 ,77,188792734223
17.6168391 ,Left ,60,6276180596585 ,47,5234616092682 ,77,1717548901694
17.6390751 ,Left ,60,6059318112732 ,47,5314297207518 ,77,1762209394414
17.6603861 ,Left ,60,5663633271089 ,47,5759673145865 ,77,1847134343374
17.6768572 ,Left ,60,5474989866674 ,47,6343060876263 ,77,1974967100731
17.699481 ,Left ,60,534619584679 ,47,6727097269093 ,77,2000377494006
17.7207125 ,Left ,60,523417720583 ,47,6707166958026 ,77,2122647714109
17.7369045 ,Left ,60,5216442368322 ,47,6703245097431 ,77,2180470921971
17.7592944 ,Left ,60,5045870025821 ,47,6823829813389 ,77,2219227932375
17.7803481 ,Left ,60,4979074354279 ,47,703571147144 ,77,2055900120026
17.7970842 ,Left ,60,477799911323 ,47,7348540445556 ,77,1914722997576
17.8194048 ,Left ,60,4567407543593 ,47,7516690159042 ,77,1859728735993
17.8404785 ,Left ,60,4326022612941 ,47,7482238181676 ,77,1735985740149
17.856746 ,Left ,60,4219753351703 ,47,7318410239405 ,77,1398575010766
17.8790913 ,Left ,60,3930612332252 ,47,7469684337722 ,77,0863410984741
17.900274 ,Left ,60,313403795325 ,47,7584222014059 ,77,0768785359747
17.9168188 ,Left ,60,3151173655128 ,47,706508973211 ,77,1182320928218
17.9392096 ,Left ,60,2734584507963 ,47,744949799731 ,77,140493021096
17.9605648 ,Left ,60,2525241846837 ,47,8711915454363 ,77,1414993187486
17.9761293 ,Left ,60,2712380302134 ,48,0213248136079 ,77,1395661837235
17.9990512 ,Left ,60,2726271348002 ,48,1260236608165 ,77,117365736162
18.020344 ,Left ,60,2892370497519 ,48,1670136328043 ,77,073580145133
18.0362101 ,Left ,60,3193898105171 ,48,1104775942181 ,77,0140360307281
18.0592946 ,Left ,60,3385476734531 ,48,0148862404955 ,76,9783274797205
18.0819466 ,Left ,60,345684503449 ,47,896478453645 ,76,9451325987714
18.0963325 ,Left ,60,3345837717826 ,47,7973848025401 ,76,9241806631765
18.1195057 ,Left ,60,3470163742792 ,47,7447671350854 ,76,9209590324511
18.1419595 ,Left ,60,3716106859909 ,47,7369619843358 ,76,9459695955425
18.156425 ,Left ,60,4239162589139 ,47,7829394999544 ,76,9558751661259
18.1794405 ,Left ,60,4416974070148 ,47,8608112328142 ,76,9538252763913
18.2018787 ,Left ,60,466677413706 ,47,8927154149537 ,76,9679633241297
18.2162174 ,Left ,60,4494542636868 ,47,8795735754083 ,76,9902406229761
18.239114 ,Left ,60,4445289943362 ,47,8258283893352 ,76,986865897292
18.2615268 ,Left ,60,4665817816476 ,47,7136164423777 ,76,9861803004758
18.2826463 ,Left ,60,4685618032612 ,47,6075979516059 ,77,0100203652163
18.299045 ,Left ,60,4644138475827 ,47,6282051891109 ,77,0235600130746
18.3213079 ,Left ,60,4811095555927 ,47,7331023289818 ,77,0313783167268
18.3426169 ,Left ,60,5001071260428 ,47,8315978931071 ,77,0484543835134
18.3589885 ,Left ,60,5035418913497 ,47,8832963525887 ,77,0830408118591
18.3815517 ,Left ,60,4678653406986 ,47,8914220037962 ,77,1115636593649
18.3959095 ,Left ,60,4113393431014 ,47,8682300911552 ,77,147411412559
18.4191022 ,Left ,60,3569439523074 ,47,8497860613028 ,77,1344068138903
18.4416615 ,Left ,60,3136229244694 ,47,7893997449865 ,77,136084116859
18.4561613 ,Left ,60,2369078968822 ,47,7038007312984 ,77,1343043827379
18.4791322 ,Left ,60,1988996756271 ,47,5561196287032 ,77,1357041883824
18.5018286 ,Left ,60,2033863668032 ,47,4283154283226 ,77,137792541981
18.5228895 ,Left ,60,1952212332619 ,47,4205499265015 ,77,1297003566668
18.539226 ,Left ,60,199406012529 ,47,4726483092499 ,77,1575052829304
18.5619603 ,Left ,60,2343778479678 ,47,5766042251408 ,77,1939879751795
18.5830152 ,Left ,60,2488326166545 ,47,6780705201931 ,77,2246267346324
18.599309 ,Left ,60,2886722790008 ,47,7463497795596 ,77,2426407147604
18.6219651 ,Left ,60,3234241712634 ,47,7849879860173 ,77,2314690622164
18.6429472 ,Left ,60,3544881516305 ,47,7829459658909 ,77,2155639947979
18.6594507 ,Left ,60,3909911597826 ,47,7599810593588 ,77,2016343369208
18.6816243 ,Left ,60,3964686562052 ,47,718158492759 ,77,1988849342019
18.7104256 ,Left ,60,3949809271731 ,47,6549340348788 ,77,2011555592028
18.7193091 ,Left ,60,4126897589767 ,47,5715902931529 ,77,2049423910901
18.7417685 ,Left ,60,4160862914125 ,47,4891840188971 ,77,2106885647048
18.7633428 ,Left ,60,4259792897651 ,47,4114629547659 ,77,21932942861
18.7796906 ,Left ,60,4155893589899 ,47,3183371477993 ,77,2511399694057
18.8019663 ,Left ,60,4246710712665 ,47,3493895824375 ,77,2683165312525
18.8227697 ,Left ,60,4276459228505 ,47,4704698410572 ,77,2837752111158
18.8386532 ,Left ,60,4240921937662 ,47,5779241015435 ,77,3069855116242
18.8615793 ,Left ,60,4041382512577 ,47,5679977436641 ,77,3111977397564
18.8829821 ,Left ,60,4284951723225 ,47,5203008130172 ,77,2776835210992
18.8985165 ,Left ,60,4496880016469 ,47,4545947598298 ,77,23843883987
18.9219939 ,Left ,60,4376589536685 ,47,3812690545336 ,77,1930272821437
18.9429734 ,Left ,60,4249683196208 ,47,3265238566637 ,77,1689331128568
18.959132 ,Left ,60,4621969944197 ,47,293520412891 ,77,1201451179197
18.9814536 ,Left ,60,4808320502225 ,47,1902248963872 ,77,1356743515111
19.002922 ,Left ,60,5149725526401 ,47,0899321266309 ,77,1998528339422
19.0185922 ,Left ,60,5237795332125 ,47,1655666620391 ,77,2183439682823
19.0418101 ,Left ,60,5894846252939 ,47,3319016899818 ,77,1871792161509
19.0643863 ,Left ,60,608794437494 ,47,4631749869676 ,77,1984708222851
19.0787465 ,Left ,60,5963502721888 ,47,5853208334215 ,77,2328624105918
19.1019073 ,Left ,60,5335388993344 ,47,6953079537203 ,77,2736330759473
19.124329 ,Left ,60,4733631408494 ,47,7860848951256 ,77,3101721824263
19.1387596 ,Left ,60,4495886936427 ,47,8549863320035 ,77,3181530243996
19.1618601 ,Left ,60,4139148502339 ,47,8950799334261 ,77,3228842118681
19.1841573 ,Left ,60,3639239336709 ,47,912800734329 ,77,3143419873267
19.198648 ,Left ,60,3187940022447 ,47,9065434661034 ,77,3071929391535
19.2218495 ,Left ,60,3163242957801 ,47,8866988764445 ,77,301391407857
19.2441895 ,Left ,60,3465644272535 ,47,8335349208447 ,77,2873626209983
19.2585219 ,Left ,60,3655874054067 ,47,7550406890952 ,77,2694957305578
19.2818308 ,Left ,60,3870029039515 ,47,7004108411813 ,77,2526552110381
19.3043859 ,Left ,60,4117678756376 ,47,6817862558597 ,77,2364772115992
19.318728 ,Left ,60,4708400892092 ,47,6712760858619 ,77,2173661528151
19.3419249 ,Left ,60,4993212232264 ,47,6475285162969 ,77,2107813331022
19.3643662 ,Left ,60,5175400138144 ,47,6155486698031 ,77,2215761659789
19.3787255 ,Left ,60,5251417184877 ,47,5960263841406 ,77,2346894579158
19.4093225 ,Left ,60,5556068263507 ,47,5900069936101 ,77,2304360121087
19.4243177 ,Left ,60,564198945748 ,47,5780360299371 ,77,2297568395501
19.4389112 ,Left ,60,5792852725774 ,47,5861790069211 ,77,2272331837654
19.4619066 ,Left ,60,5731259981023 ,47,6102881141708 ,77,2220813504006
19.4840742 ,Left ,60,5590023233204 ,47,6235363215731 ,77,2210739958244
19.4984654 ,Left ,60,5562679721434 ,47,6336968648564 ,77,2261170981136
19.5217139 ,Left ,60,5391682967075 ,47,6569783056731 ,77,2395073444822
19.5445463 ,Left ,60,5187954638008 ,47,6994137453482 ,77,24423125325
19.5654831 ,Left ,60,4962246880944 ,47,7437855320804 ,77,2450534047672
19.5819504 ,Left ,60,4733996560511 ,47,7886603927662 ,77,2432278111344
19.6042925 ,Left ,60,4474168325434 ,47,819313578165 ,77,2424725312375
19.6251562 ,Left ,60,4107324123435 ,47,8412640392934 ,77,2300953501636
19.6417737 ,Left ,60,3709113527154 ,47,8756401084573 ,77,2131043553267
19.6648546 ,Left ,60,3434915422736 ,47,8955757753703 ,77,1964351607548
19.6859281 ,Left ,60,3436901029751 ,47,876611732508 ,77,1660261746623
19.702113 ,Left ,60,2980504298651 ,47,8326328377371 ,77,161988299038
19.7247188 ,Left ,60,2987341703593 ,47,7309931179704 ,77,2092049238239
19.7454178 ,Left ,60,2836545659839 ,47,7642597833596 ,77,2225839635791
19.7617704 ,Left ,60,2640737613157 ,47,8611946193454 ,77,2324404666175
19.7843146 ,Left ,60,2684115280269 ,47,9528819856242 ,77,244842869723
19.8050969 ,Left ,60,2839434073595 ,48,0033059769264 ,77,2412628553341
19.8217958 ,Left ,60,2881025134855 ,48,0336972137397 ,77,215328661705
19.8444062 ,Left ,60,2916238384178 ,48,0223380671821 ,77,1785113429801
19.865445 ,Left ,60,3365443821876 ,47,9841248219272 ,77,1474508441476
19.8818317 ,Left ,60,3692637979478 ,47,9171346059636 ,77,1212881894112
19.9047403 ,Left ,60,3939671039101 ,47,8340158215154 ,77,1070301923675
19.909689 ,Left ,60,4319901611337 ,47,749835279383 ,77,0677360779013
19.932082 ,Left ,60,4306128500726 ,47,6816211041029 ,77,0077377296767
19.9478641 ,Left ,60,4534327778482 ,47,6535467903994 ,76,969259971768
19.9703101 ,Left ,60,4668603499703 ,47,6088025427386 ,76,9904238623743
19.9925077 ,Left ,60,5016686031044 ,47,6540891269668 ,76,9977259377998
20.0072303 ,Left ,60,4882069880724 ,47,7320565333397 ,77,0076533874466
20.0326908 ,Left ,60,5070743799042 ,47,7882197724788 ,77,0257632824126
20.0522514 ,Left ,60,4876342713474 ,47,8208632236924 ,77,0284199589527
20.0673618 ,Left ,60,4526084925399 ,47,805842299192 ,77,0129940037561
20.0895638 ,Left ,60,420187994792 ,47,7692761516839 ,76,9924805713739
20.1121365 ,Left ,60,4000501414863 ,47,7252026739427 ,76,9867697777541
20.127178 ,Left ,60,393152242784 ,47,72810733796 ,77,0047905897491
20.1498652 ,Left ,60,4032610700993 ,47,740825099232 ,77,0208109761665
20.1721231 ,Left ,60,3863124571132 ,47,8168449472324 ,77,0359197489537
20.1871437 ,Left ,60,3694522363547 ,47,9255524105177 ,77,0534769015691
20.209701 ,Left ,60,3828764779414 ,47,9982772340795 ,77,0642925863417
20.2320133 ,Left ,60,3663141587863 ,48,022468920783 ,77,0655218701469
20.2473185 ,Left ,60,3557184915004 ,47,9821489749355 ,77,067016585698
20.269602 ,Left ,60,3310889300145 ,47,9187566431918 ,77,0673653074299
20.2923428 ,Left ,60,3024112466439 ,47,8478729986323 ,77,0520430973271
20.3074039 ,Left ,60,269408150893 ,47,7867685870754 ,77,047768032306
20.329919 ,Left ,60,2446035346533 ,47,7368509402589 ,77,0591847484895
20.3521733 ,Left ,60,2347045173004 ,47,6963318097343 ,77,0836673387879
20.3674585 ,Left ,60,2323179509072 ,47,6343859421922 ,77,1086760277622
20.3899724 ,Left ,60,2567028496115 ,47,5492621248165 ,77,1301327423635
20.4123008 ,Left ,60,2295176745336 ,47,5099378992567 ,77,1469255946448
20.4274461 ,Left ,60,2051139551419 ,47,5251534164113 ,77,1466319840141
20.4499329 ,Left ,60,2224806279798 ,47,5575935938955 ,77,1337050202776
20.4724183 ,Left ,60,2164337169269 ,47,6055234655482 ,77,1638911883884
20.4873574 ,Left ,60,213611861074 ,47,6937746682353 ,77,1882888814279
20.509845 ,Left ,60,2317552253988 ,47,8016624746941 ,77,1865717185051
20.5321944 ,Left ,60,2603842281577 ,47,876194536948 ,77,1677357366355
20.5488526 ,Left ,60,2963901091027 ,47,8925372906266 ,77,1613506365545
20.5698137 ,Left ,60,3063917693257 ,47,8661767359101 ,77,1475425273336
20.5923506 ,Left ,60,3355710732987 ,47,8206819978753 ,77,1322525329008
20.6084594 ,Left ,60,356824558003 ,47,7814696872306 ,77,1095019678541
20.6301997 ,Left ,60,367912892019 ,47,7384231559371 ,77,1084183784048
20.6525081 ,Left ,60,3643871269325 ,47,6808084051835 ,77,1337066521633
20.6689599 ,Left ,60,3564373981128 ,47,6019713061949 ,77,1714960869817
20.6895833 ,Left ,60,3504137904791 ,47,493025848384 ,77,1934653845776
20.7119902 ,Left ,60,3714399819724 ,47,3762236347921 ,77,1966831560287
20.7286691 ,Left ,60,3812806309179 ,47,2896813184334 ,77,2170413720493
20.7501408 ,Left ,60,3896916680653 ,47,3442759741115 ,77,2076430537452
20.7725905 ,Left ,60,3958781230408 ,47,4580295584453 ,77,1893729348938
20.7889865 ,Left ,60,3834362223316 ,47,4822573786486 ,77,2146172845561
20.8098644 ,Left ,60,4172542769092 ,47,4501818463881 ,77,2139283604859
20.8323256 ,Left ,60,4479336591731 ,47,398336505985 ,77,2039161042962
20.8486811 ,Left ,60,460714143371 ,47,3299299136388 ,77,1874184153611
20.8696819 ,Left ,60,4747071182624 ,47,2456983840284 ,77,1704584231058
20.892147 ,Left ,60,4865406506198 ,47,1490385013099 ,77,1505397148108
20.9103312 ,Left ,60,5083793713902 ,47,0535874417417 ,77,14664837726
20.9312008 ,Left ,60,5161505463966 ,47,0206660442009 ,77,1473009093309
20.9520414 ,Left ,60,538487867482 ,47,0921116401169 ,77,1527042003559
20.9700605 ,Left ,60,5788777234212 ,47,2602866424406 ,77,1490655762784
20.9897771 ,Left ,60,54546743929 ,47,4177128023369 ,77,175469389097
21.0119995 ,Left ,60,5732696045412 ,47,5568050179454 ,77,2336588230618
21.0298915 ,Left ,60,5498350879572 ,47,6843941341752 ,77,2537675889949
21.0497031 ,Left ,60,497661901395 ,47,7784738445794 ,77,2545529289593
21.0721524 ,Left ,60,4531024687871 ,47,8602713305627 ,77,2524337961887
21.0903667 ,Left ,60,4218076070625 ,47,9333154951743 ,77,2426606217052
21.109573 ,Left ,60,3853693753602 ,47,9830347568999 ,77,2402461361685
21.1276464 ,Left ,60,3560101040811 ,48,0134957564972 ,77,2390448121326
21.1499343 ,Left ,60,3245502965362 ,48,0004648586887 ,77,2381402659082
21.1696475 ,Left ,60,3147066790705 ,47,937003127865 ,77,2364835721291
21.1874469 ,Left ,60,3287890572686 ,47,8473752812788 ,77,2432502658407
21.2098995 ,Left ,60,340390413607 ,47,7661790304881 ,77,2516046370303
21.2301377 ,Left ,60,3638264793689 ,47,6977010104161 ,77,2505946910034
21.2479195 ,Left ,60,3988452049441 ,47,6302582457821 ,77,2415032954564
21.2705674 ,Left ,60,4169369347035 ,47,5498772405478 ,77,2458949806283
21.2900657 ,Left ,60,4460369243989 ,47,4756203882113 ,77,2517586333739
21.3123865 ,Left ,60,4702243054121 ,47,4311989788717 ,77,2455395716011
21.330368 ,Left ,60,5040369068777 ,47,4136684475618 ,77,232310846381
21.3499091 ,Left ,60,5169430596623 ,47,3993519168483 ,77,2232639950596
21.3678554 ,Left ,60,5355190740612 ,47,391854041181 ,77,2272428998489
21.3900936 ,Left ,60,5440057274131 ,47,4187767936734 ,77,2271729765347
21.4096803 ,Left ,60,5404760852739 ,47,4614338512878 ,77,2237501897713
21.4278506 ,Left ,60,5341135915239 ,47,5166073109253 ,77,216971483865
21.4501518 ,Left ,60,5276813130809 ,47,5613189696226 ,77,2072830833245
21.4699452 ,Left ,60,5031622567724 ,47,5914564866063 ,77,2035983897045
21.48834 ,Left ,60,4688131347597 ,47,6350789717911 ,77,1912989966943
21.5100948 ,Left ,60,4245557496061 ,47,674144667367 ,77,1743143927486
21.5311952 ,Left ,60,3810989925423 ,47,7077414515653 ,77,1689386328646
21.5478705 ,Left ,60,3615891644854 ,47,7135366463067 ,77,1575725099015
21.5701322 ,Left ,60,3024100253107 ,47,6735216476135 ,77,146952141772
21.5912611 ,Left ,60,2521789802496 ,47,6328598223252 ,77,1466258491553
21.6122738 ,Left ,60,2343795951465 ,47,5956766229363 ,77,1446914894072
21.6301669 ,Left ,60,2006850200736 ,47,5974581618958 ,77,1535938165834
21.6512045 ,Left ,60,219225129061 ,47,6458498464269 ,77,1779016284583
21.6678704 ,Left ,60,2532176834692 ,47,7160306655189 ,77,1714213358763
21.6901416 ,Left ,60,2758356154917 ,47,7657128142853 ,77,1433021773904
21.7112017 ,Left ,60,2974568458168 ,47,7929081004161 ,77,1033473121954
21.7279124 ,Left ,60,3121807436207 ,47,7758530908467 ,77,0905005580961
21.749945 ,Left ,60,327527908667 ,47,7435475264874 ,77,0742679450786
21.7711994 ,Left ,60,3656600129188 ,47,6818473787248 ,77,0540251882197
21.7860872 ,Left ,60,3642876999028 ,47,6026146545074 ,77,0428569763957
21.8091618 ,Left ,60,3921350708627 ,47,5326243975495 ,77,0493798517753
21.8304458 ,Left ,60,375063382671 ,47,5045137180243 ,77,0464939332698
21.8468754 ,Left ,60,3569033838399 ,47,545075495796 ,77,0350282517868
21.8692959 ,Left ,60,3617890246107 ,47,6102535746035 ,77,0377886247108
21.8916929 ,Left ,60,3547762659589 ,47,6582075106822 ,77,0445944719495
21.9129348 ,Left ,60,338698220796 ,47,6718155762941 ,77,0558227008896
21.9293592 ,Left ,60,3051653327457 ,47,6932726758307 ,77,0443040747219
21.9522644 ,Left ,60,283370545321 ,47,6703216330675 ,77,0280791496648
21.9670066 ,Left ,60,2630781544736 ,47,6223747085286 ,77,0158650978248
21.9893783 ,Left ,60,2624069985637 ,47,5769440931203 ,77,0262550347235
22.0118948 ,Left ,60,2687348001472 ,47,5405199061554 ,77,0672628213365
22.0261837 ,Left ,60,2912733686127 ,47,5912269009247 ,77,0966392336006
22.0493484 ,Left ,60,2868798631411 ,47,7058626534387 ,77,1024337767034
22.0716954 ,Left ,60,2960560970354 ,47,8195964325192 ,77,1031322754719
22.0861193 ,Left ,60,2990354529635 ,47,8949155694427 ,77,1020734786341
22.1093481 ,Left ,60,2631215132557 ,47,9326777387794 ,77,0941374573108
22.1317178 ,Left ,60,2406956927319 ,47,9372123977086 ,77,0876372480608
22.1462373 ,Left ,60,2259253134621 ,47,895458902798 ,77,0815029879881
22.1692602 ,Left ,60,2199682131825 ,47,8374617792828 ,77,0611763169307
22.1919141 ,Left ,60,199554328174 ,47,7938898746264 ,77,0332521041223
22.2089698 ,Left ,60,1835466517944 ,47,7557398994425 ,76,999329548833
22.2290985 ,Left ,60,1558031236343 ,47,6824677139336 ,76,9945938659607
22.2515935 ,Left ,60,1874378586851 ,47,5852939629041 ,77,0117913318002
22.2662508 ,Left ,60,2119286426839 ,47,542628696199 ,77,0209856731376
22.2892699 ,Left ,60,2324950203002 ,47,6164807075779 ,77,0111922624284
22.3116095 ,Left ,60,2633053560673 ,47,7568073904887 ,77,0056921379222
22.3332638 ,Left ,60,2904436271558 ,47,8802735865378 ,77,0187862874917
22.3490651 ,Left ,60,3151736661111 ,47,9373468085504 ,77,0511346997766
22.3722459 ,Left ,60,3639267516469 ,47,9397671350555 ,77,064883082899
22.3931673 ,Left ,60,371941125007 ,47,9222518071817 ,77,0628496691631
22.4092196 ,Left ,60,3981608992557 ,47,8997462691434 ,77,0459798785978
22.4317244 ,Left ,60,4210618840375 ,47,8524379218351 ,77,0469593915112
22.4529007 ,Left ,60,423582874945 ,47,7678759789024 ,77,067072278615
22.4694586 ,Left ,60,4164993693794 ,47,6671019856564 ,77,1049985729186
22.4917736 ,Left ,60,4136185280437 ,47,5915540063903 ,77,1262399002463
22.5126925 ,Left ,60,4119007015099 ,47,5122183860523 ,77,1245086671321
22.5286556 ,Left ,60,4069493765581 ,47,4315376562175 ,77,1478475603523
22.5517925 ,Left ,60,4194508475507 ,47,4365368251474 ,77,1688712533204
22.5728645 ,Left ,60,4404436900035 ,47,5358833431615 ,77,1786730835717
22.588752 ,Left ,60,4432354743184 ,47,5744151511377 ,77,1893057769467
22.6123563 ,Left ,60,4537244759917 ,47,5212638382403 ,77,1920868098148
22.6332735 ,Left ,60,4535130961056 ,47,4655048204973 ,77,1808055914941
22.6499899 ,Left ,60,4486474482844 ,47,3861628807834 ,77,1589136781263
22.6720185 ,Left ,60,4427342250655 ,47,3155318641369 ,77,1421333222516
22.6932563 ,Left ,60,4179272177013 ,47,298184191013 ,77,1269701900643
22.7098634 ,Left ,60,4427908790943 ,47,2401932214906 ,77,1199631041084
22.7320429 ,Left ,60,469750273029 ,47,110128081321 ,77,1677277035508
22.7532023 ,Left ,60,5114743563239 ,47,092507284514 ,77,1895151638068
22.769124 ,Left ,60,5689127217582 ,47,2377485291683 ,77,1790119993922
22.7918218 ,Left ,60,5919471510789 ,47,3979900211731 ,77,1691525224111
22.8143649 ,Left ,60,6141583865664 ,47,54332665628 ,77,1889893781827
22.8285585 ,Left ,60,6066978916971 ,47,6851158438463 ,77,2277043772203
22.8516857 ,Left ,60,5609759077202 ,47,7751467007566 ,77,2333010873305
22.8743164 ,Left ,60,513773713508 ,47,8217504360733 ,77,2298897899001
22.8884366 ,Left ,60,4927995110015 ,47,8455072964839 ,77,2295244891499
22.9115514 ,Left ,60,442823371093 ,47,848574035737 ,77,2333357769137
22.9421207 ,Left ,60,3930440931721 ,47,8295966787517 ,77,2564543059353
22.9485854 ,Left ,60,3761392017805 ,47,7918246668454 ,77,2697276870785
22.9718461 ,Left ,60,372622597076 ,47,7343007291914 ,77,2856929137576
22.9944334 ,Left ,60,3698332857617 ,47,6755164248342 ,77,2886042325437
23.0084903 ,Left ,60,3820396114147 ,47,6202020609593 ,77,2754823806115
23.0318421 ,Left ,60,3933611291772 ,47,5765478402994 ,77,2772484671171
23.0540863 ,Left ,60,4084468579544 ,47,5381716478555 ,77,2916102149275
23.0691998 ,Left ,60,4327102937299 ,47,5113974071373 ,77,3025921577898
23.0918425 ,Left ,60,434516409592 ,47,4919764649562 ,77,3078615294187
23.1145023 ,Left ,60,4484123325717 ,47,4794898782227 ,77,3153763354311
23.1286898 ,Left ,60,4595727956634 ,47,4778208391059 ,77,3158276943919
23.1518692 ,Left ,60,4662208044867 ,47,4843395277757 ,77,3127888794084
23.1742817 ,Left ,60,4630425382139 ,47,4846009340873 ,77,3121624056621
23.1886369 ,Left ,60,4523647966472 ,47,4925107633839 ,77,3009184785376
23.2193163 ,Left ,60,4357518679915 ,47,5013111494371 ,77,2882223464214
23.2342711 ,Left ,60,4371266943828 ,47,5135374123347 ,77,2785024649979
23.2486313 ,Left ,60,4387630196245 ,47,517328496702 ,77,2799214971704
23.2718412 ,Left ,60,4292899823139 ,47,5424930878589 ,77,2804996747515
23.2944005 ,Left ,60,4165210581102 ,47,5835579208478 ,77,2835961844498
23.3233473 ,Left ,60,3971136189282 ,47,6352563051096 ,77,2779589406501
23.3322402 ,Left ,60,3631170816519 ,47,6792021653361 ,77,2747498192443
23.354712 ,Left ,60,3265723414118 ,47,7107246964417 ,77,26829062969
23.3759126 ,Left ,60,2861694601686 ,47,7403321852131 ,77,2564983161106
23.3920191 ,Left ,60,2503172832523 ,47,7577616922951 ,77,2423407273036
23.4143646 ,Left ,60,2179942628739 ,47,7482910127556 ,77,2360533054132
23.4353887 ,Left ,60,1572475806999 ,47,7341763855888 ,77,248157945332
23.4519896 ,Left ,60,1192770075288 ,47,6840155402864 ,77,2818596983783
23.4743015 ,Left ,60,1023027268706 ,47,7126949499912 ,77,3059567044674
23.4956433 ,Left ,60,1004778837672 ,47,7839630291737 ,77,3328066716544
23.5119062 ,Left ,60,1102362006506 ,47,8714704454941 ,77,3362539125012
23.5344227 ,Left ,60,1229294656942 ,47,9190038578394 ,77,3334415917177
23.5553703 ,Left ,60,1348035160501 ,47,9221043435334 ,77,2993701271494
23.5718859 ,Left ,60,1528215036065 ,47,9012375586632 ,77,2612171756406
23.5946431 ,Left ,60,1821361586583 ,47,8660958501404 ,77,2196637886706
23.615373 ,Left ,60,1986192127025 ,47,7856033148953 ,77,1911816920751
23.6379594 ,Left ,60,2287852093767 ,47,6828054451743 ,77,1646936716227
23.6541652 ,Left ,60,2351741494765 ,47,5938055725302 ,77,1435848701699
23.6751838 ,Left ,60,2551801992086 ,47,5161476843517 ,77,1340918571088
23.6916719 ,Left ,60,2927160421348 ,47,5253143736779 ,77,1481928875952
23.7145648 ,Left ,60,3215059629206 ,47,5965901257317 ,77,1623276324077
23.7355055 ,Left ,60,3211303802123 ,47,6829369179813 ,77,1815485052887
23.7519108 ,Left ,60,3207902665776 ,47,7561789696927 ,77,197277277237
23.7749075 ,Left ,60,3034960325919 ,47,7884534930176 ,77,1875727782099
23.7969525 ,Left ,60,2792230212085 ,47,7855022570245 ,77,1527276701987
23.8113567 ,Left ,60,2708816043764 ,47,715449459615 ,77,1383545187533
23.834502 ,Left ,60,2715901701885 ,47,6633748369067 ,77,1577258919727
23.8569627 ,Left ,60,2871112755584 ,47,6490103083872 ,77,1877410142952
23.8718887 ,Left ,60,3055884500045 ,47,7152373923804 ,77,2071154187974
23.8944183 ,Left ,60,3017224725362 ,47,8201672862761 ,77,2274529678594
23.9168904 ,Left ,60,3044621600506 ,47,9158932460084 ,77,240662246222
23.9312348 ,Left ,60,2767052632953 ,47,9570474035441 ,77,2553791293743
23.9546562 ,Left ,60,2379346241164 ,48,0073448180358 ,77,2627001647227
23.9767505 ,Left ,60,1948698207994 ,48,0169449893084 ,77,2637186940543
23.9910652 ,Left ,60,1442066581633 ,47,9747430655697 ,77,2684485095608
24.0143579 ,Left ,60,1108935981848 ,47,9046534473515 ,77,2582448954767
24.0368586 ,Left ,60,0637968278381 ,47,8241263170738 ,77,2221578008384
24.0575441 ,Left ,59,9934078689683 ,47,735124771571 ,77,2035304022578
24.0741746 ,Left ,59,9823869894725 ,47,6227976489142 ,77,2044400225154
24.0970244 ,Left ,60,0200893378228 ,47,5454902302694 ,77,2000726604346
24.1180226 ,Left ,60,0615683854318 ,47,5291499062909 ,77,2189062371559
24.1342983 ,Left ,60,1403943089653 ,47,5869711977069 ,77,2154237079383
24.1571012 ,Left ,60,2023071971886 ,47,70808401722 ,77,191711335571
24.1778574 ,Left ,60,2480467485675 ,47,815847209364 ,77,1863462500731
24.1942197 ,Left ,60,2928269052897 ,47,8729602942975 ,77,1902010324104
24.2171233 ,Left ,60,3246396504142 ,47,874227225335 ,77,1946688120594
24.2377789 ,Left ,60,3783535324074 ,47,8456817818167 ,77,1846980652917
24.2543537 ,Left ,60,4261230694195 ,47,8203373807583 ,77,1648739630297
24.2769593 ,Left ,60,4437698251135 ,47,818219740457 ,77,1283430325435
24.2981492 ,Left ,60,4566574156618 ,47,8194968410524 ,77,0948585127894
24.314506 ,Left ,60,4591905349808 ,47,7962915939768 ,77,086023467383
24.3369253 ,Left ,60,4561723000851 ,47,7405293510825 ,77,0959813079429
24.3578556 ,Left ,60,4615213331054 ,47,6509524319851 ,77,1128381481327
24.3742532 ,Left ,60,4894633447195 ,47,5820676510216 ,77,1254858893985
24.3966821 ,Left ,60,4721893446526 ,47,5254782113495 ,77,134000503872
24.4181854 ,Left ,60,4364850484211 ,47,4564594894343 ,77,1603829572211
24.4344048 ,Left ,60,4790335282815 ,47,4040952067679 ,77,1992814897704
24.4569544 ,Left ,60,4795238397532 ,47,5050832449639 ,77,1897252091268
24.4779208 ,Left ,60,4743279129918 ,47,625895962448 ,77,1616258820848
24.4936712 ,Left ,60,4568948652041 ,47,657605616756 ,77,1639409405382
24.5167398 ,Left ,60,466176791513 ,47,6493837503228 ,77,1424873497158
24.5384694 ,Left ,60,4428794315436 ,47,5996135280061 ,77,128314293204
24.5539289 ,Left ,60,428503529848 ,47,5518353624002 ,77,1144641068716
24.5772149 ,Left ,60,4047462340759 ,47,555339320929 ,77,0980601637671
24.598645 ,Left ,60,4250117011328 ,47,51062624028 ,77,0703889743212
24.6139688 ,Left ,60,4486375760109 ,47,3682654355529 ,77,1220623966954
24.6371656 ,Left ,60,4818357140654 ,47,3073836503376 ,77,1624744827678
24.6583287 ,Left ,60,5457657683615 ,47,4073940650329 ,77,1631708339977
24.6737907 ,Left ,60,5865940709489 ,47,5417800010439 ,77,1598305717069
24.6968947 ,Left ,60,6258195071172 ,47,6677937247185 ,77,1900540719087
24.719373 ,Left ,60,6262942224037 ,47,7811237546084 ,77,2243488206318
24.7337122 ,Left ,60,592001144963 ,47,8582266915749 ,77,2502564136968
24.7569096 ,Left ,60,5675464386537 ,47,9129791874196 ,77,2668087608676
24.7793548 ,Left ,60,5349335435696 ,47,9405104431017 ,77,2761586063291
24.7941895 ,Left ,60,4888630432764 ,47,93705418974 ,77,2948610885062
24.8173228 ,Left ,60,4514941363871 ,47,9319004200769 ,77,2975319044717
24.8393799 ,Left ,60,4185770626824 ,47,9163563504713 ,77,3014088478711
24.8534971 ,Left ,60,4110649124789 ,47,879356787669 ,77,3015824754442
24.8770129 ,Left ,60,4133301001698 ,47,8320659951456 ,77,2991763173435
24.8994166 ,Left ,60,4225125162752 ,47,7834604856223 ,77,2929507863092
24.9138025 ,Left ,60,454884563042 ,47,7488516847395 ,77,2877714348949
24.9369788 ,Left ,60,4761441028892 ,47,7277661523078 ,77,2795572039468
24.9595213 ,Left ,60,4897562482374 ,47,6874031836148 ,77,2865485274309
24.9738479 ,Left ,60,5165699900385 ,47,63244603479 ,77,2963456979427
24.996932 ,Left ,60,5248527709401 ,47,5968607206161 ,77,2995801840588
25.0195798 ,Left ,60,5299555860698 ,47,6005157220611 ,77,2922961671778
25.0338889 ,Left ,60,541166168959 ,47,6169669901004 ,77,2782390049212
25.0569446 ,Left ,60,555877137745 ,47,6395582561077 ,77,2726634970916
25.079228 ,Left ,60,554267038198 ,47,6383812317762 ,77,2719618527531
25.100469 ,Left ,60,5600368461878 ,47,6537828342162 ,77,2646668523686
25.1168375 ,Left ,60,5515206388934 ,47,6795753827165 ,77,2464611781467
25.1391375 ,Left ,60,5377995844494 ,47,7130283942983 ,77,2343865820123
25.153404 ,Left ,60,5255242113604 ,47,7516783581818 ,77,2182828245654
25.1768325 ,Left ,60,4888691099987 ,47,7713235677187 ,77,2142878152746
25.1991428 ,Left ,60,4681613875229 ,47,7848494497508 ,77,1922037050439
25.2205226 ,Left ,60,418843349605 ,47,797747087946 ,77,163418189597
25.2368592 ,Left ,60,3670142829253 ,47,8184165314596 ,77,1481125569972
25.2669143 ,Left ,60,3236015740928 ,47,8008945886508 ,77,1458694872924
25.2801935 ,Left ,60,2709446009928 ,47,727912426201 ,77,1739433167479
25.2968283 ,Left ,60,2465270903361 ,47,6526681849497 ,77,1884765765276
25.3193086 ,Left ,60,2213790293583 ,47,6718191720889 ,77,1913891031589
25.3404896 ,Left ,60,2334935963348 ,47,7333426329797 ,77,2079069953502
25.3567643 ,Left ,60,2424911593299 ,47,8182309925064 ,77,2202200026004
25.3794702 ,Left ,60,2687262209187 ,47,894583969802 ,77,2068807845409
25.4007517 ,Left ,60,2900071357207 ,47,9413638785742 ,77,1655574891276
25.4170479 ,Left ,60,3063481389785 ,47,9391882461063 ,77,1253137807033
25.439423 ,Left ,60,3275672154154 ,47,9197529139428 ,77,0824513606
25.4606753 ,Left ,60,3708448924086 ,47,866215144666 ,77,0406842260551
25.476925 ,Left ,60,4104351861018 ,47,7829788942657 ,76,9930365197947
25.4993402 ,Left ,60,422892092444 ,47,6842946620246 ,76,9642144243764
25.5203389 ,Left ,60,432991604792 ,47,6323413586382 ,76,950924874792
25.5369437 ,Left ,60,4285873924696 ,47,6154174739119 ,76,9674445639814
25.5594822 ,Left ,60,4422721367643 ,47,6465799667587 ,76,9890599161961
25.5806214 ,Left ,60,4537712749127 ,47,7071687091173 ,77,008837179329
25.5961665 ,Left ,60,447014430209 ,47,7553101694475 ,77,0355334976779
25.6193672 ,Left ,60,4102975280948 ,47,8056598525668 ,77,0408640709607
25.6406527 ,Left ,60,4022906450973 ,47,7869521414995 ,77,0427033663858
25.6474589 ,Left ,60,3699060075683 ,47,7227989546719 ,77,0309388478058
25.6621792 ,Left ,60,3708217871442 ,47,6309118533711 ,77,0522041496213
25.684529 ,Left ,60,3541430332576 ,47,5993494170821 ,77,0933747972892
25.7070447 ,Left ,60,3945249230608 ,47,6550491183017 ,77,1496452661532
25.7221542 ,Left ,60,4148681717245 ,47,7682837456917 ,77,1666520731193
25.745209 ,Left ,60,4428357784215 ,47,8581892375064 ,77,1901737327973
25.7676972 ,Left ,60,4264008525518 ,47,9487594724057 ,77,1933073308428
25.7825419 ,Left ,60,3969955261161 ,47,9757648232107 ,77,1848773169185
25.8047753 ,Left ,60,3853835788915 ,47,9399820204231 ,77,1777211291918
25.8274487 ,Left ,60,36412052712 ,47,8516282491225 ,77,1694422758747
25.8422537 ,Left ,60,3519160939458 ,47,7342353230363 ,77,1631950533136
25.8648665 ,Left ,60,298849615925 ,47,5999812671752 ,77,149682774385
25.8873805 ,Left ,60,2331446622738 ,47,50050052661 ,77,1521954037914
25.903572 ,Left ,60,2495105694136 ,47,4360316578207 ,77,1539103388055
25.9261217 ,Left ,60,2709328194978 ,47,4391415490861 ,77,1903478895571
25.9471893 ,Left ,60,2913824046726 ,47,5044400058282 ,77,2101543848098
25.9637505 ,Left ,60,3255617798174 ,47,6147187990759 ,77,2102597315877
25.9848356 ,Left ,60,3692622349967 ,47,713395625181 ,77,2114389703241
26.0070943 ,Left ,60,3958127329017 ,47,7556333054781 ,77,2121006208675
26.0238813 ,Left ,60,4227421870649 ,47,7490598549074 ,77,1994632164429
26.0447822 ,Left ,60,4655372718237 ,47,7105134588183 ,77,1809391281067
26.0670978 ,Left ,60,483735695052 ,47,7008986611046 ,77,1524825050586
26.0821865 ,Left ,60,4939132424303 ,47,6943817535998 ,77,1278006413966
26.1046498 ,Left ,60,4968444615431 ,47,6558042303224 ,77,1249082827577
26.1366991 ,Left ,60,4833280745984 ,47,5777948978779 ,77,1516028070694
26.1426569 ,Left ,60,4945749878551 ,47,4708312010766 ,77,1885804449421
26.1651329 ,Left ,60,5489134174182 ,47,3734692352006 ,77,1938380241077
26.1876731 ,Left ,60,5583497320808 ,47,254948705824 ,77,2159178405798
26.2037423 ,Left ,60,5832091491485 ,47,0981435427885 ,77,2820787298675
26.2248691 ,Left ,60,5585100423893 ,47,1652860512313 ,77,2975327494063
26.2474612 ,Left ,60,5114076926096 ,47,342079464179 ,77,2812682169098
26.2638601 ,Left ,60,494077487143 ,47,4625948920509 ,77,3165041762644
26.2848778 ,Left ,60,4812152854814 ,47,4891522001481 ,77,3614184193342
26.3074508 ,Left ,60,484692380053 ,47,4959302058715 ,77,3577572681337
26.3238645 ,Left ,60,4614230377011 ,47,4768408254807 ,77,3448273817084
26.344878 ,Left ,60,4578384784725 ,47,4661929870417 ,77,3122035518009
26.3673784 ,Left ,60,5033627308142 ,47,4145461125681 ,77,297249329721
26.3838044 ,Left ,60,518773617515 ,47,3585657526048 ,77,2850951993937
26.404939 ,Left ,60,531343696801 ,47,3067172016054 ,77,2687121021594
26.4274238 ,Left ,60,5692975827973 ,47,2439950225864 ,77,2489372225534
26.4437904 ,Left ,60,569950817497 ,47,1695183725193 ,77,2566946057037
26.4649154 ,Left ,60,5615767403528 ,47,1387525465903 ,77,3016552619568
26.4874631 ,Left ,60,5673968017079 ,47,245902905637 ,77,3272247976555
26.5040122 ,Left ,60,6090069955251 ,47,4402658525513 ,77,3095334582366
26.5248104 ,Left ,60,6138729790828 ,47,5796020550613 ,77,3150804507233
26.5504068 ,Left ,60,5999560991669 ,47,6974467281634 ,77,3287586257334
26.5638006 ,Left ,60,5639814941402 ,47,7915133678601 ,77,3487428763627
26.5849551 ,Left ,60,5180847456242 ,47,8441585567578 ,77,357105113313
26.6074314 ,Left ,60,4947111143444 ,47,8575856629479 ,77,3661395658577
26.6253112 ,Left ,60,4627006208547 ,47,8616531499115 ,77,372368531964
26.6445406 ,Left ,60,4071031509409 ,47,8610225502639 ,77,3729425169987
26.6670738 ,Left ,60,3898321680679 ,47,855798853474 ,77,3685804512768
26.6856736 ,Left ,60,3750311426058 ,47,8272528681305 ,77,3660946919908
26.7051384 ,Left ,60,3724659572409 ,47,7850594692279 ,77,3704965399892
26.7276896 ,Left ,60,3575811217137 ,47,7512863411694 ,77,3666250758047
26.7455792 ,Left ,60,3675761654125 ,47,7274957667236 ,77,353519967829
26.7648914 ,Left ,60,3874398872731 ,47,6960178474175 ,77,338531259273
26.7874657 ,Left ,60,4082159574566 ,47,6632438197791 ,77,3210346027854
26.8051079 ,Left ,60,4146724677666 ,47,6384386625207 ,77,3104027689229
26.8245792 ,Left ,60,4125455615997 ,47,6171744539717 ,77,3102536834121
26.8473483 ,Left ,60,4271224468797 ,47,5886341309989 ,77,3079136484736
26.8650634 ,Left ,60,4427293702738 ,47,5600594746202 ,77,2986666702056
26.884514 ,Left ,60,456106891375 ,47,5254995762425 ,77,2939635300512
26.9027127 ,Left ,60,4700850293456 ,47,5119491287522 ,77,2858065752468
26.9252539 ,Left ,60,4842405067666 ,47,5167793252433 ,77,272157555343
26.9451576 ,Left ,60,5170078476193 ,47,519332497111 ,77,264032929887
26.9630954 ,Left ,60,5317723909953 ,47,5082732085885 ,77,2590891155591
26.9855667 ,Left ,60,5318012836668 ,47,5108840968524 ,77,2598334500649
27.0053112 ,Left ,60,5209962900214 ,47,5274201177296 ,77,2573292241607
27.0229511 ,Left ,60,5053995221653 ,47,5499516397814 ,77,2586094618993
27.0453315 ,Left ,60,4909287209727 ,47,5717231037552 ,77,2756978242292
27.0652654 ,Left ,60,4530597066626 ,47,6002739223428 ,77,305962421477
27.0829345 ,Left ,60,4196452679636 ,47,6257075816268 ,77,321353370992
27.1052625 ,Left ,60,3831042395953 ,47,6567127792393 ,77,3269116825275
27.1248287 ,Left ,60,3463174493648 ,47,6839015663691 ,77,3254377943284
27.1424437 ,Left ,60,312996973515 ,47,6696972727811 ,77,333689080111
27.164981 ,Left ,60,2784397783681 ,47,6150051771692 ,77,3340995052375
27.1846397 ,Left ,60,2268003299657 ,47,5625077786394 ,77,3237508119038
27.2071702 ,Left ,60,2239594823942 ,47,5393679258112 ,77,3590178185998
27.2251299 ,Left ,60,2242670663304 ,47,5991480350535 ,77,3745681275044
27.2459967 ,Left ,60,2405820846865 ,47,710608354046 ,77,3721189630413
27.262653 ,Left ,60,2838457698514 ,47,808862443049 ,77,3510047491694
27.2850795 ,Left ,60,3205410442006 ,47,8700661273672 ,77,3239580666217
27.3062208 ,Left ,60,3262737007996 ,47,8612064655385 ,77,2846573525466
27.3226049 ,Left ,60,3350337315911 ,47,8277318797515 ,77,2434292572926
27.3454185 ,Left ,60,3535848806795 ,47,7761772456636 ,77,1973620465119
27.366282 ,Left ,60,3505202616663 ,47,7064775799397 ,77,1484131568108
27.3828832 ,Left ,60,3444202514477 ,47,6368664397423 ,77,1189494675215
27.4051082 ,Left ,60,3582772073271 ,47,5859438915973 ,77,0940799654421
27.4259218 ,Left ,60,3695286563183 ,47,537635190407 ,77,0917255726476
27.4423467 ,Left ,60,3870190136291 ,47,5710328946742 ,77,0867947351244
27.4651996 ,Left ,60,3898456315172 ,47,65287006464 ,77,0930989664056
27.4859894 ,Left ,60,3892295867523 ,47,728703691537 ,77,109658706988
27.5025129 ,Left ,60,3875132030868 ,47,7915521605493 ,77,1188884204586
27.5247082 ,Left ,60,3620127222318 ,47,8111565883616 ,77,1190903701915
27.5473719 ,Left ,60,3205799286516 ,47,8105515724351 ,77,1021664838156
27.5612989 ,Left ,60,3052246766386 ,47,7683618259776 ,77,1056050537713
27.584302 ,Left ,60,3023612338641 ,47,7251500811626 ,77,1315837847062
27.6072024 ,Left ,60,315698221008 ,47,7410487365377 ,77,1660221786085
27.6213539 ,Left ,60,3179475867413 ,47,8092534230445 ,77,1876733162195
27.6443038 ,Left ,60,3181967668546 ,47,8740799418583 ,77,2146931225495
27.6669587 ,Left ,60,3051227931282 ,47,918952070778 ,77,2318863732362
27.6812227 ,Left ,60,2752149306319 ,47,9200488035806 ,77,2543235672982
27.704638 ,Left ,60,2490149020561 ,47,9126226397951 ,77,279147744836
27.7271943 ,Left ,60,2257072956453 ,47,8591886467736 ,77,3094413555904
27.7412437 ,Left ,60,2179511378034 ,47,7920231793697 ,77,3180128394375
27.7643639 ,Left ,60,1825155958632 ,47,7235170569036 ,77,3057403621503
27.7869513 ,Left ,60,1330823266855 ,47,6585658163786 ,77,2763814805656
27.8012395 ,Left ,60,0956732588968 ,47,5498471208428 ,77,2826530322343
27.8242025 ,Left ,60,1341325273115 ,47,4575365123811 ,77,2948969791754
27.8467758 ,Left ,60,1423087041488 ,47,4690874376963 ,77,3193960053078
27.8677643 ,Left ,60,1715855429219 ,47,5507795076125 ,77,3357649375063
27.884332 ,Left ,60,2331814177194 ,47,6698369121297 ,77,3363919979834
27.9072931 ,Left ,60,2717758074597 ,47,7591354031625 ,77,343400481835
27.9283077 ,Left ,60,3078780385946 ,47,8148941132457 ,77,3534406613244
27.9447503 ,Left ,60,3327384984253 ,47,8505319629797 ,77,3613405867608
27.9673106 ,Left ,60,3912417608758 ,47,8703861894114 ,77,3412144815418
27.9817171 ,Left ,60,4001182186682 ,47,8826501958457 ,77,3153278959837
28.0048121 ,Left ,60,4135155292423 ,47,8656733527109 ,77,298617048091
28.0272223 ,Left ,60,3854128266601 ,47,7855467991303 ,77,3101976434166
28.0482132 ,Left ,60,3955529794918 ,47,6491932531387 ,77,3323529484837
28.064504 ,Left ,60,405903306608 ,47,5272179950803 ,77,3531777977733
28.0870153 ,Left ,60,4008818084918 ,47,4630793856376 ,77,3382624574867
28.108054 ,Left ,60,4065381385253 ,47,4105857425383 ,77,3036943104478
28.1243928 ,Left ,60,38886635028 ,47,3624316057248 ,77,3123675254669
28.1475423 ,Left ,60,3789666729224 ,47,3862602403204 ,77,3570760975033
28.1684296 ,Left ,60,369040770492 ,47,5003713449987 ,77,3866002258451
28.184564 ,Left ,60,3646335518724 ,47,6033916086729 ,77,3816780030429
28.2127665 ,Left ,60,3517851485938 ,47,6191999035184 ,77,3851727516358
28.2279765 ,Left ,60,3648634184383 ,47,6007016292031 ,77,3422914892429
28.2444015 ,Left ,60,3725738171188 ,47,5487400055444 ,77,2830398783367
28.2668814 ,Left ,60,4034647545728 ,47,489863016583 ,77,229383298879
28.2880646 ,Left ,60,3775742792655 ,47,4518315320825 ,77,1951045177205
28.3037543 ,Left ,60,4321811683151 ,47,3881697894658 ,77,1610233151572
28.3269751 ,Left ,60,4589378484392 ,47,2711150217372 ,77,1815527408742
28.3480017 ,Left ,60,4834057540934 ,47,1457057911937 ,77,2459616560389
28.3637445 ,Left ,60,5332777909228 ,47,1556934207221 ,77,2739897836056
28.387158 ,Left ,60,5780683217037 ,47,30867587363 ,77,2652621372107
28.4080944 ,Left ,60,5827576631682 ,47,4804835550456 ,77,2654887383259
28.4237619 ,Left ,60,5640539905156 ,47,6297812571851 ,77,3021591986847
28.4472567 ,Left ,60,5086308343225 ,47,7413553836398 ,77,3583929217886
28.4681834 ,Left ,60,4416992747531 ,47,8235808586613 ,77,4038524209393
28.4904935 ,Left ,60,4095940915472 ,47,8926113396571 ,77,4243649161347
28.507042 ,Left ,60,3658415768698 ,47,9457091683564 ,77,4268876026879
28.5293692 ,Left ,60,315464489387 ,47,9845465486686 ,77,4206329360099
28.5441882 ,Left ,60,265372109263 ,47,9928193016105 ,77,4061291768994
28.5667625 ,Left ,60,2201046829871 ,47,9797066466528 ,77,3938319856232
28.5894253 ,Left ,60,2137489994483 ,47,9409448744288 ,77,3849951818771
28.6038618 ,Left ,60,229135458968 ,47,8713082025546 ,77,3752910799052
28.6344216 ,Left ,60,2562567796113 ,47,7876901877396 ,77,3620196526683
28.6494166 ,Left ,60,274554653371 ,47,7309923992003 ,77,3436762054286
28.6640916 ,Left ,60,3074085190891 ,47,6941534678495 ,77,3282004014477
28.6869133 ,Left ,60,3543626274822 ,47,6516002782158 ,77,3068019961259
28.7097202 ,Left ,60,3933873420537 ,47,5888550857301 ,77,313027922293
28.7239264 ,Left ,60,4245427151388 ,47,5489012856034 ,77,3226785910965
28.7468884 ,Left ,60,4353302475775 ,47,5419014493685 ,77,3310492806356
28.7693647 ,Left ,60,4588552550091 ,47,5440180112868 ,77,3357296100114
28.7837723 ,Left ,60,476679314206 ,47,5359704741801 ,77,3493605376425
28.8071571 ,Left ,60,4820928381879 ,47,5449986929313 ,77,3634135646514
28.8294198 ,Left ,60,4723137039419 ,47,5691586412582 ,77,3762981683192
28.8437543 ,Left ,60,4650537329317 ,47,6054350738058 ,77,3832657985526
28.8669773 ,Left ,60,4538641841064 ,47,6329485508246 ,77,3797392199804
28.8891835 ,Left ,60,4106950428578 ,47,6488791538314 ,77,3795238007415
28.903448 ,Left ,60,3545781444602 ,47,6942326788647 ,77,3731809867547
28.9269916 ,Left ,60,2930966719333 ,47,7391046221759 ,77,3615391323923
28.9492248 ,Left ,60,2778471212558 ,47,7403009213342 ,77,3501490864701
28.9634304 ,Left ,60,2338554683332 ,47,6908085774174 ,77,3328861110237
28.9870518 ,Left ,60,1900271922003 ,47,6525682040122 ,77,3252992248823
29.0094115 ,Left ,60,1580343205136 ,47,6255871903981 ,77,3337654355575
29.0302516 ,Left ,60,1384031806074 ,47,6632852945687 ,77,3471882765547
29.046954 ,Left ,60,1413103076609 ,47,7446871218874 ,77,3719755875097
29.0694581 ,Left ,60,1654828708202 ,47,8433233355899 ,77,3695464791722
29.0905239 ,Left ,60,1909742356148 ,47,9144144573743 ,77,3413149096391
29.1069364 ,Left ,60,2076524236428 ,47,9552190274431 ,77,3059924669105
29.1294609 ,Left ,60,2091399331948 ,47,9303698052535 ,77,271143207628
29.1504113 ,Left ,60,2178133434862 ,47,8814615980368 ,77,2253184330743
29.1672434 ,Left ,60,2491322985418 ,47,7882729343648 ,77,1788804834322
29.1898738 ,Left ,60,2582844172481 ,47,6865681172286 ,77,1530046715745
29.2106805 ,Left ,60,2953085664086 ,47,6268506919223 ,77,1524188201989
29.2269632 ,Left ,60,3117787017021 ,47,6338322346735 ,77,1787587827794
29.2571212 ,Left ,60,3316888965498 ,47,7302170830599 ,77,1845878000656
29.2706963 ,Left ,60,3518070717822 ,47,8265488299645 ,77,1908418866244
29.2871662 ,Left ,60,3497489528426 ,47,8863165295387 ,77,2089390942626
29.3095299 ,Left ,60,3082318040069 ,47,9097736895335 ,77,2053320679258
29.3304979 ,Left ,60,2806303271672 ,47,8951764702456 ,77,19215226882
29.3470098 ,Left ,60,259205615795 ,47,8563002446246 ,77,1458421003751
29.3694056 ,Left ,60,2494404398145 ,47,7776040187587 ,77,1282552552124
29.3911383 ,Left ,60,2306867067414 ,47,7422735231386 ,77,1166240005816
29.4072538 ,Left ,60,2324274654856 ,47,7429312489496 ,77,1398637092479
29.4303062 ,Left ,60,257702895889 ,47,780380876003 ,77,1641046660665
29.4524922 ,Left ,60,25921582318 ,47,8556974980099 ,77,177732215379
29.4672826 ,Left ,60,263927738898 ,47,9269584704151 ,77,1758464824267
29.4893655 ,Left ,60,2359613890423 ,47,9585048720044 ,77,1846661029186
29.512054 ,Left ,60,1908902977768 ,47,9785861792291 ,77,2011818728105
29.5272299 ,Left ,60,1609926560484 ,47,9710203394696 ,77,2149257327514
29.5493743 ,Left ,60,1402500134109 ,47,9082803529186 ,77,2267202663026
29.5718228 ,Left ,60,1474873234509 ,47,8454105994245 ,77,2163641964915
29.5931707 ,Left ,60,1068836082997 ,47,7430203668451 ,77,2090247974135
29.6094125 ,Left ,60,0690667441035 ,47,6596650605886 ,77,2119202102512
29.6316818 ,Left ,60,084341764173 ,47,6096464918835 ,77,2197529305181
29.6533025 ,Left ,60,1202509952163 ,47,5852634936484 ,77,2604795917899
29.6698419 ,Left ,60,175023786239 ,47,6284525604445 ,77,2851705179118
29.6923318 ,Left ,60,2265928855462 ,47,7265094587258 ,77,2813727070877
29.7132531 ,Left ,60,2908932174737 ,47,8101647867424 ,77,2692540732694
29.7294059 ,Left ,60,3463267122796 ,47,8625551288886 ,77,2625560778737
29.7519593 ,Left ,60,3933083108965 ,47,862389882262 ,77,2493955018921
29.7730014 ,Left ,60,4443413664607 ,47,8204612706704 ,77,2389606987526
29.7894583 ,Left ,60,4819516971552 ,47,7663781867315 ,77,2301471527293
29.8119098 ,Left ,60,5079134262845 ,47,7149756026036 ,77,2154802801927
29.8259767 ,Left ,60,5136737810242 ,47,6568243843351 ,77,1922944861121
29.849264 ,Left ,60,5225098045045 ,47,6009056469194 ,77,179931087003
29.8795102 ,Left ,60,5563065500151 ,47,5159084472336 ,77,1882253230186
29.8932766 ,Left ,60,5883036648788 ,47,4139807501348 ,77,2206553414324
29.9097682 ,Left ,60,6113687100358 ,47,3393387455265 ,77,2479200405713
29.9323109 ,Left ,60,6102528839209 ,47,2985709838788 ,77,2600290431368
29.9532322 ,Left ,60,6220483947596 ,47,2731098277453 ,77,2670160521459
29.9694815 ,Left ,60,6085648096458 ,47,2713712344633 ,77,2718868437708
29.9923531 ,Left ,60,6014303546667 ,47,276608696772 ,77,2511527461768
30.0135694 ,Left ,60,5739223795719 ,47,3047575259904 ,77,256522758594
30.0296973 ,Left ,60,541953818389 ,47,4183919317477 ,77,2621921500114
30.0522854 ,Left ,60,5117724594992 ,47,5425194894967 ,77,2547722709592
30.0732761 ,Left ,60,4664498397827 ,47,5785125340306 ,77,2559086405799
30.0902522 ,Left ,60,4551380683526 ,47,5495598432111 ,77,2649763792422
30.112024 ,Left ,60,446256769703 ,47,4965306373722 ,77,2576351698247
30.1329563 ,Left ,60,4648831334685 ,47,4161860655732 ,77,2528338439512
30.1491192 ,Left ,60,480033512089 ,47,3453188956081 ,77,2428591928625
30.1717215 ,Left ,60,4806688255375 ,47,2919080559142 ,77,2456849800613
30.1927534 ,Left ,60,4910672718486 ,47,2391954646299 ,77,2461353491881
30.2094359 ,Left ,60,50070049694 ,47,1626549652962 ,77,2590018923784
30.2319888 ,Left ,60,4893584519613 ,47,0893109660363 ,77,2763984595457
30.2535344 ,Left ,60,4880133748966 ,47,0451807527663 ,77,3111260739123
30.2700913 ,Left ,60,5050196511246 ,47,0934678692324 ,77,3313067521806
30.2918867 ,Left ,60,5134353812303 ,47,2362168158886 ,77,33700500717
30.3130054 ,Left ,60,536558170047 ,47,3767531561072 ,77,3245951923376
30.3287695 ,Left ,60,498217847721 ,47,4717867752243 ,77,3560284648159
30.3519437 ,Left ,60,4628830340474 ,47,5600592346464 ,77,3897861198482
30.3731137 ,Left ,60,4210530337118 ,47,6227868565806 ,77,4148748810973
30.3887922 ,Left ,60,3924201828052 ,47,67042591251 ,77,4150051771079
30.4118904 ,Left ,60,3609064787743 ,47,6901390357475 ,77,3872909321308
30.4344335 ,Left ,60,334403634655 ,47,6953661929787 ,77,3669563720107
30.4493915 ,Left ,60,3159249180747 ,47,6898961206497 ,77,3498269903922
30.4718021 ,Left ,60,3110874274451 ,47,6701725252759 ,77,3459978198029
30.4941503 ,Left ,60,3184370884098 ,47,6417284692832 ,77,3413330757699
30.5087604 ,Left ,60,3220055539412 ,47,5925561878215 ,77,3395555628189
30.5314686 ,Left ,60,33584118918 ,47,5212259079671 ,77,3391471792193
30.5547599 ,Left ,60,3601489954773 ,47,4739013271472 ,77,3441237528779
30.5690898 ,Left ,60,3752088025591 ,47,4552690693392 ,77,3474575797424
30.5922552 ,Left ,60,405307056717 ,47,4490480468184 ,77,3523804858915
30.6148511 ,Left ,60,4325149152984 ,47,4399389781745 ,77,3586482108662
30.628757 ,Left ,60,4399662353991 ,47,4296665663508 ,77,3685617542269
30.6520374 ,Left ,60,4420100564133 ,47,4215944220336 ,77,3739251929011
30.6744561 ,Left ,60,4491866884875 ,47,4171490203904 ,77,371911553209
30.6888531 ,Left ,60,4491866884875 ,47,4171490203904 ,77,371911553209
30.7119649 ,Left ,60,4470970380395 ,47,4027958696485 ,77,3769858772768
30.7344188 ,Left ,60,4448474552628 ,47,3829425082008 ,77,3714211577977
30.7490428 ,Left ,60,4398807961888 ,47,3663499590085 ,77,3657694682936
30.7720884 ,Left ,60,4399103044686 ,47,3689649902618 ,77,3664961853617
30.7947462 ,Left ,60,4414260207678 ,47,3718446636125 ,77,3707870196008
30.8171786 ,Left ,60,4405881354426 ,47,3635114772819 ,77,378227913893
30.8320674 ,Left ,60,4398383631135 ,47,353471156172 ,77,3820529777174
30.8546898 ,Left ,60,4283901659206 ,47,3384904546601 ,77,3909126081804
30.8690608 ,Left ,60,4281804784799 ,47,3297353195011 ,77,3916392911988
30.8923873 ,Left ,60,4197826978122 ,47,3383520384571 ,77,3850295102873
30.9221483 ,Left ,60,4212577797527 ,47,3462562284704 ,77,3708449659889
30.9354417 ,Left ,60,4219480914018 ,47,351062874585 ,77,365565775237
30.9523774 ,Left ,60,4235519521501 ,47,3522360612913 ,77,366233597163
30.9747961 ,Left ,60,4211946279506 ,47,3505813071166 ,77,3751867789658
30.9957844 ,Left ,60,4297729727915 ,47,3481071780616 ,77,380346350969
31.0121532 ,Left ,60,4313777102862 ,47,3492795596773 ,77,3810145123049
31.0346067 ,Left ,60,4310781817015 ,47,3498093511603 ,77,3783345899525
31.0558057 ,Left ,60,4389828871772 ,47,3623391512222 ,77,3775577448735
31.0719913 ,Left ,60,4422861513098 ,47,3725284440397 ,77,381079986841
31.0945037 ,Left ,60,4384131273911 ,47,3871655590925 ,77,3866250721299
31.1156554 ,Left ,60,4345813515427 ,47,4146766080841 ,77,3759068894328
31.1320577 ,Left ,60,4347112391578 ,47,4387094354355 ,77,33980222104
31.154745 ,Left ,60,4073591701996 ,47,4475806584789 ,77,313670649542
31.1757448 ,Left ,60,376619069114 ,47,4841949555024 ,77,2873891951711
31.1916852 ,Left ,60,3381728968053 ,47,5169671842307 ,77,2505280773466
31.2146368 ,Left ,60,3074481475261 ,47,5438581636081 ,77,2185529342233
31.2355764 ,Left ,60,3025896965393 ,47,5478577607314 ,77,1989383278081
31.251942 ,Left ,60,2487575124606 ,47,543721956868 ,77,1967494974489
31.2743861 ,Left ,60,1635266072191 ,47,529434960907 ,77,2244668233092
31.2953722 ,Left ,60,1336527046516 ,47,5078413953212 ,77,271243557052
31.3120494 ,Left ,60,1140765706982 ,47,5620869936484 ,77,2753170549776
31.3344173 ,Left ,60,0894739180599 ,47,6625617609756 ,77,2766544866089
31.3569434 ,Left ,60,0894548859732 ,47,78568701086 ,77,2818467485833
31.3714546 ,Left ,60,0836791260135 ,47,8511519684431 ,77,287134886352
31.3943529 ,Left ,60,1098769718023 ,47,8842091731119 ,77,2590118633505
31.3999683 ,Left ,60,1315971787236 ,47,8539116171294 ,77,2261366090157
31.4223024 ,Left ,60,1494354482236 ,47,8086704242174 ,77,1949053386994
31.4373473 ,Left ,60,1665047783325 ,47,7062276316648 ,77,1767247389923
31.4597645 ,Left ,60,202991488417 ,47,5613889211182 ,77,1705346647146
31.4821481 ,Left ,60,2322816020079 ,47,4641087765111 ,77,1912307237339
31.4985433 ,Left ,60,2839102222701 ,47,4152637155754 ,77,2271786148857
31.5197777 ,Left ,60,3203703692159 ,47,4978648767142 ,77,233917267986
31.5420266 ,Left ,60,3657488207366 ,47,6592842222922 ,77,2347502846561
31.5587179 ,Left ,60,3964412278523 ,47,8190812372735 ,77,2353856018557
31.5797658 ,Left ,60,370882451438 ,47,931359164155 ,77,2318121686793
31.6021351 ,Left ,60,3597924413552 ,47,9733452033611 ,77,2068220195694
31.6185803 ,Left ,60,2991015914588 ,47,8964345520099 ,77,2049330761456
31.6396721 ,Left ,60,291799072582 ,47,7194307365085 ,77,249171086797
31.6621032 ,Left ,60,292348909352 ,47,6096216664192 ,77,276237538995
31.6786065 ,Left ,60,3165760739192 ,47,640062417079 ,77,2916008030208
31.6999194 ,Left ,60,354583108558 ,47,7472622484059 ,77,3029647660011
31.7227362 ,Left ,60,3743659336142 ,47,8455576794497 ,77,3290370595019
31.7390016 ,Left ,60,40460848253 ,47,9089996925469 ,77,3526401394061
31.7601659 ,Left ,60,3837224426286 ,47,9353435455101 ,77,3623834731183
31.7825272 ,Left ,60,3827516259928 ,47,9638354253394 ,77,3565648201523
31.7975828 ,Left ,60,3523629891588 ,47,9842267871683 ,77,3297636597205
31.819929 ,Left ,60,3097394010028 ,47,9814621010865 ,77,2985946126553
31.8423286 ,Left ,60,2941242375983 ,47,954918918651 ,77,2572177533251
31.8576014 ,Left ,60,231541099998 ,47,8936703912883 ,77,2142440559711
31.8798783 ,Left ,60,2529603666425 ,47,7385918159258 ,77,1995692852284
31.9023794 ,Left ,60,2706691891272 ,47,5729702193916 ,77,2405474991246
31.9245562 ,Left ,60,2762448117842 ,47,5203692321622 ,77,2671010495816
31.9396441 ,Left ,60,2742109794394 ,47,6250022597513 ,77,2544509234635
31.9623026 ,Left ,60,3180252767461 ,47,7674169550811 ,77,2378630720067
31.978528 ,Left ,60,3429672337888 ,47,8643238874598 ,77,2364023287348
32.0001694 ,Left ,60,3598301212033 ,47,9158834385084 ,77,2428359567133
32.0227015 ,Left ,60,3804756970595 ,47,9175944764181 ,77,2312607502319
32.0388598 ,Left ,60,4008941190249 ,47,8970484557019 ,77,219098380789
32.0597444 ,Left ,60,4039317621278 ,47,8930774048769 ,77,2033817184578
32.0821337 ,Left ,60,3874143747677 ,47,8814553768595 ,77,2134663350198
32.1005176 ,Left ,60,3762695572938 ,47,8244572775297 ,77,2334736453925
32.1201839 ,Left ,60,3756895562735 ,47,7158493909495 ,77,2717367037289
32.142658 ,Left ,60,3568765554927 ,47,615349597363 ,77,2850428646604
32.1590242 ,Left ,60,3424274644438 ,47,5133755960583 ,77,2768714026303
32.1794679 ,Left ,60,3390165479513 ,47,4517800023443 ,77,2572545284974
32.2050324 ,Left ,60,3565699923966 ,47,4670491652404 ,77,2668381619883
32.2185033 ,Left ,60,3672932515451 ,47,6115690683828 ,77,2807952791655
32.2396614 ,Left ,60,3626859808628 ,47,7288560738564 ,77,2945128093589
32.2619807 ,Left ,60,3737782444273 ,47,7170551667475 ,77,3011764782004
32.2802769 ,Left ,60,385236662313 ,47,6889357198843 ,77,2781428246895
32.3075685 ,Left ,60,3986731705756 ,47,6310694092489 ,77,2479876817532
32.3223053 ,Left ,60,410964821791 ,47,5349484202455 ,77,2108648880113
32.3402704 ,Left ,60,4130976958825 ,47,4314188369488 ,77,1979827898788
32.3597849 ,Left ,60,4092804477452 ,47,4048925623292 ,77,1705365119216
32.3824076 ,Left ,60,4585922708941 ,47,3425318536822 ,77,1348283705076
32.3999196 ,Left ,60,4928926685866 ,47,1697499347027 ,77,2287533047895
32.4195364 ,Left ,60,5199335639075 ,47,1601142911078 ,77,2774964264631
32.4420313 ,Left ,60,5394649348039 ,47,3237229075961 ,77,2629349114853
32.4602827 ,Left ,60,5567665048662 ,47,4966003933284 ,77,2479817667002
32.4811638 ,Left ,60,5915507029771 ,47,6337542981303 ,77,2831713781304
32.5025937 ,Left ,60,5532584688037 ,47,7375700295479 ,77,3306237458307
32.5203282 ,Left ,60,4701756796462 ,47,8086384609518 ,77,3766162359411
32.5399353 ,Left ,60,4244946391509 ,47,8611233028442 ,77,4050577105334
32.5621143 ,Left ,60,3745662327955 ,47,9030294261053 ,77,43803250927
32.5801557 ,Left ,60,3243251189903 ,47,9019483279747 ,77,4562928898844
32.5999645 ,Left ,60,2805555152156 ,47,8813390886389 ,77,4560693194827
32.6220287 ,Left ,60,2471955342265 ,47,8485539309417 ,77,4521464614716
32.6401405 ,Left ,60,2267012563949 ,47,8143730313633 ,77,4430524053954
32.6596599 ,Left ,60,2201160835593 ,47,7856888069101 ,77,4268883901144
32.6822064 ,Left ,60,2359261459686 ,47,7606329324639 ,77,396742782998
32.7000392 ,Left ,60,2570383487316 ,47,7180778613157 ,77,3758965719126
32.7195686 ,Left ,60,2839727439247 ,47,6768399835085 ,77,368178599299
32.7421287 ,Left ,60,3034860371614 ,47,6562130123546 ,77,3629003462663
32.7602892 ,Left ,60,3325204854712 ,47,6423394444819 ,77,3525447662671
32.7799403 ,Left ,60,3593159084802 ,47,6149731575466 ,77,3536924852599
32.8023868 ,Left ,60,366475402532 ,47,5649593839977 ,77,3658944889385
32.8203434 ,Left ,60,3616911176626 ,47,539949978135 ,77,3713594463032
32.839704 ,Left ,60,3616911176626 ,47,539949978135 ,77,3713594463032
32.8576105 ,Left ,60,3748950192105 ,47,5424370443596 ,77,37301228829
32.8801588 ,Left ,60,3805924907172 ,47,5515977690208 ,77,3776292838497
32.9014597 ,Left ,60,371126690527 ,47,5683406393289 ,77,3880386601248
32.9178433 ,Left ,60,3692219449637 ,47,5928903661097 ,77,3936297125111
32.9402875 ,Left ,60,3699763736621 ,47,6287173178781 ,77,3867724423296
32.9612231 ,Left ,60,3580633395371 ,47,6537250520805 ,77,380014740616
32.977918 ,Left ,60,3379866006251 ,47,6815551871486 ,77,3678581628437
33.0004072 ,Left ,60,298322543725 ,47,7143652765601 ,77,347159529479
33.0212369 ,Left ,60,2647249227631 ,47,7410416692703 ,77,317110268012
33.0379478 ,Left ,60,2508867030494 ,47,7557976278169 ,77,2811768597271
33.0602138 ,Left ,60,2263435313846 ,47,7406372770879 ,77,2597182585024
33.0812215 ,Left ,60,1919497612162 ,47,6841362254712 ,77,2565653404604
33.0977478 ,Left ,60,1522266637893 ,47,6454274773292 ,77,2628394584824
33.1203908 ,Left ,60,1412187848538 ,47,6160741712701 ,77,2748747435368
33.1426938 ,Left ,60,1758685229637 ,47,643685112208 ,77,2828230411571
33.1574947 ,Left ,60,1661892017772 ,47,7417695954554 ,77,2788753379196
33.1801334 ,Left ,60,1970307303603 ,47,8565864793766 ,77,270074425178
33.2010137 ,Left ,60,2413259725665 ,47,9360581803673 ,77,2413215859442
33.2180825 ,Left ,60,2587880704347 ,47,9423881846081 ,77,2134511486104
33.2405064 ,Left ,60,2684833557308 ,47,9156656400396 ,77,1904967663176
33.2631112 ,Left ,60,2791044633246 ,47,8596244497358 ,77,1657209317167
33.2834279 ,Left ,60,2595699620735 ,47,7772726832947 ,77,1511309551738
33.2998067 ,Left ,60,2786303436848 ,47,679855115132 ,77,1603223080864
33.322024 ,Left ,60,3076315555082 ,47,6249098073176 ,77,1777292714285
33.3430844 ,Left ,60,330864619114 ,47,6355349540269 ,77,1818706104265
33.3594403 ,Left ,60,3507340270148 ,47,7110824695049 ,77,1724918065121
33.3819809 ,Left ,60,34794630159 ,47,7876143957361 ,77,1789323214793
33.3962364 ,Left ,60,3336699813247 ,47,8557978961619 ,77,1793474036322
33.4191337 ,Left ,60,3119668033482 ,47,898532123047 ,77,1486104110428
33.4417455 ,Left ,60,2870646633602 ,47,8960097699625 ,77,1203694359572
33.4560809 ,Left ,60,3178196738557 ,47,8374105550397 ,77,1564524409475
33.4793711 ,Left ,60,3274595102077 ,47,8223139775829 ,77,2197699284117
33.5017905 ,Left ,60,351112590234 ,47,9346262755923 ,77,2673517815313
33.5230557 ,Left ,60,3808003796506 ,48,0795063871941 ,77,323619337122
33.5394059 ,Left ,60,3673554186198 ,48,2087348530856 ,77,3800789246646
33.5617009 ,Left ,60,3515496079158 ,48,2773226804074 ,77,4097090521284
33.5828575 ,Left ,60,2950184527087 ,48,3139569002363 ,77,4012190524282
33.5994807 ,Left ,60,2616298189716 ,48,3017830720242 ,77,3734725338538
33.6281495 ,Left ,60,2198502576567 ,48,2540089447721 ,77,3295582145905
33.6363332 ,Left ,60,1833458686587 ,48,1957597091761 ,77,2697805424015
