timestamp,event,roll,pitch,yaw
0.0679111 ,Left ,62,5583136933657 ,45,9431100668274 ,83,3274989552303
0.0827861 ,Left ,62,5218877214123 ,45,9272983839955 ,83,3236411048714
0.1052544 ,Left ,62,4875056181708 ,45,9070971717416 ,83,3209680142832
0.1278973 ,Left ,62,4575603747052 ,45,8918463913305 ,83,3255563560686
0.1503449 ,Left ,62,4479932172925 ,45,8735963503354 ,83,3051270284237
0.1654263 ,Left ,62,4191046888936 ,45,8352975215314 ,83,2901533292605
0.1878011 ,Left ,62,4357108751106 ,45,8154257064888 ,83,2859910480376
0.2103903 ,Left ,62,4435897403174 ,45,8007123340283 ,83,2750070165552
0.2254355 ,Left ,62,4524410619745 ,45,7823821964959 ,83,2760717180536
0.2478352 ,Left ,62,4613653768723 ,45,7739647151246 ,83,2850810418509
0.2779302 ,Left ,62,4682983790096 ,45,7707226365769 ,83,2979701352516
0.2929346 ,Left ,62,4805992218338 ,45,7697592688467 ,83,3053414741718
0.3301526 ,Left ,62,5034832678854 ,45,7408078009308 ,83,329430441296
0.3453681 ,Left ,62,5331789582726 ,45,7354970745082 ,83,3614929576567
0.3680708 ,Left ,62,5620153712115 ,45,7418359525576 ,83,4093282932277
0.3905242 ,Left ,62,5929682889969 ,45,7583131608734 ,83,4526529320473
0.4053664 ,Left ,62,5969375977404 ,45,7736426290119 ,83,5011824107156
0.4276995 ,Left ,62,6050000855292 ,45,792501038898 ,83,5528197954942
0.4504997 ,Left ,62,6148392907376 ,45,8134936655368 ,83,6078017395565
0.465384 ,Left ,62,6025562774 ,45,8445389339207 ,83,6654749030974
0.487857 ,Left ,62,5584652222281 ,45,8768253222038 ,83,714757979133
0.5102719 ,Left ,62,5171825265049 ,45,8927544311931 ,83,7576789210716
0.5254191 ,Left ,62,4973049869326 ,45,8847837189674 ,83,8006532943535
0.5479441 ,Left ,62,4915758764486 ,45,8632959937718 ,83,8461173237534
0.5711046 ,Left ,62,4975990147983 ,45,8436729998687 ,83,8894364991585
0.5858442 ,Left ,62,5082613130308 ,45,8166200453635 ,83,9250820011087
0.608452 ,Left ,62,5419373829585 ,45,7802936365569 ,83,9564935461579
0.6309512 ,Left ,62,6057435328929 ,45,7430667104603 ,83,984094503805
0.6460594 ,Left ,62,6489785343823 ,45,7122188112531 ,84,0130583971078
0.6684969 ,Left ,62,694415477183 ,45,6967367490264 ,84,0368306560646
0.6906594 ,Left ,62,724392374689 ,45,6908930429037 ,84,0674412430926
0.7056344 ,Left ,62,7647441424603 ,45,6877020601043 ,84,0910821640745
0.7283474 ,Left ,62,8123841822551 ,45,6814729227755 ,84,1052671746702
0.7508084 ,Left ,62,8548384075254 ,45,6720803036099 ,84,1139631268643
0.7656379 ,Left ,62,8794644279149 ,45,6731069752575 ,84,1245955442634
0.7882238 ,Left ,62,8752074982326 ,45,6561052990815 ,84,124013932748
0.8107916 ,Left ,62,8814242668557 ,45,6349587320333 ,84,1286630742064
0.8258139 ,Left ,62,886530471954 ,45,624486164214 ,84,1367635680466
0.8481333 ,Left ,62,9011297250755 ,45,6249469546766 ,84,141819849553
0.8708837 ,Left ,62,9170098638034 ,45,623031815836 ,84,141444070638
0.893241 ,Left ,62,9241256050932 ,45,6209292033608 ,84,143068513379
0.9083181 ,Left ,62,9407664071689 ,45,6165472868077 ,84,1297556097658
0.9306528 ,Left ,62,9532026833972 ,45,605337604585 ,84,0951909953445
0.9458188 ,Left ,62,9405826842149 ,45,5826826790654 ,84,0366541005314
0.9683478 ,Left ,62,9110063774066 ,45,5678421273199 ,83,9673023225761
0.9907828 ,Left ,62,8841681886202 ,45,5712499079794 ,83,8855473243039
1.0053315 ,Left ,62,8621637390812 ,45,5946933542642 ,83,8106064657406
1.0278924 ,Left ,62,8606994383854 ,45,6365070064297 ,83,7420678907271
1.0579576 ,Left ,62,821211451182 ,45,6508085282642 ,83,6733536132668
1.080465 ,Left ,62,7760536833909 ,45,6462471438798 ,83,6135316458003
1.0958148 ,Left ,62,7333098791087 ,45,6495661852576 ,83,5483105498883
1.1111153 ,Left ,62,6872072041311 ,45,6647044664774 ,83,4869810346425
1.1335713 ,Left ,62,6457132307389 ,45,6864418135474 ,83,4347859972147
1.1484454 ,Left ,62,6340013960293 ,45,7159331931154 ,83,3908963870765
1.1784345 ,Left ,62,623190000641 ,45,7400980927238 ,83,3491683498474
1.2005246 ,Left ,62,6018786489424 ,45,7503253157175 ,83,3161897597957
1.2229984 ,Left ,62,5750311710475 ,45,7528363560088 ,83,2968062908761
1.2603634 ,Left ,62,5459937353784 ,45,7490518058624 ,83,2698620422926
1.2753647 ,Left ,62,5336822968903 ,45,7417363596184 ,83,2644842519197
1.2902675 ,Left ,62,5307226958946 ,45,7422768644313 ,83,2583149713929
1.3129218 ,Left ,62,5341109335995 ,45,7417963613109 ,83,2504432139844
1.3276531 ,Left ,62,5188737064632 ,45,7358132232829 ,83,2438965293375
1.3504009 ,Left ,62,497783174464 ,45,7333233359134 ,83,2399740480576
1.3805796 ,Left ,62,4781886405556 ,45,7303111768261 ,83,232540754265
1.3960231 ,Left ,62,4667099643811 ,45,7311770625585 ,83,2268372326417
1.4177279 ,Left ,62,4492034228219 ,45,7331980271184 ,83,2152431445897
1.4327848 ,Left ,62,4353401367677 ,45,7307171277074 ,83,2080346279698
1.447772 ,Left ,62,4261175235756 ,45,7242595762218 ,83,1974034080519
1.4702913 ,Left ,62,4124332936316 ,45,7176894914893 ,83,1874289190762
1.4931801 ,Left ,62,4055720628787 ,45,7125871232911 ,83,1766364501541
1.5081709 ,Left ,62,4061065906116 ,45,7128721513993 ,83,154416941831
1.5303703 ,Left ,62,3973667540587 ,45,7052391359568 ,83,133101553211
1.5529524 ,Left ,62,3882117589196 ,45,6979000539821 ,83,1175646702742
1.5679633 ,Left ,62,3946114775904 ,45,6935469527187 ,83,0960370288695
1.5904221 ,Left ,62,3626898376939 ,45,6727219140025 ,83,0683002745848
1.612949 ,Left ,62,3542923105263 ,45,657277804639 ,83,0327275337439
1.6278336 ,Left ,62,3694095155386 ,45,6472877057959 ,82,9892664044759
1.6511694 ,Left ,62,3173835274993 ,45,6214906880362 ,82,9425018966227
1.6733936 ,Left ,62,2111013784679 ,45,6092730354325 ,82,9086788409448
1.6881902 ,Left ,62,1117251912796 ,45,656381742656 ,82,8907031690123
1.7105287 ,Left ,62,0834006757043 ,45,6962215354622 ,82,9453848835599
1.7327455 ,Left ,62,0974974274067 ,45,7260392350887 ,83,0324572064101
1.7479083 ,Left ,62,1078097866673 ,45,7509111036792 ,83,0663027864228
1.7703549 ,Left ,62,1121659814061 ,45,7654486827648 ,83,0297282273829
1.7930334 ,Left ,62,125578948316 ,45,7621903990844 ,82,977984090018
1.8080405 ,Left ,62,0762968831583 ,45,7610109317538 ,82,9444903839278
1.8306238 ,Left ,62,0822252489002 ,45,7695746799277 ,82,9131876068567
1.8529054 ,Left ,62,1211028106707 ,45,7859368041478 ,82,8758548965559
1.8678944 ,Left ,62,1324751582915 ,45,7925592686138 ,82,8444713417953
1.8902667 ,Left ,62,1390348451691 ,45,7862513282086 ,82,8133949073267
1.9131363 ,Left ,62,126805313444 ,45,7451428329703 ,82,7937739918932
1.928116 ,Left ,62,1341438423209 ,45,6709068716246 ,82,7843336745894
1.950619 ,Left ,62,114718837036 ,45,6052316108402 ,82,7801894046111
1.9731253 ,Left ,62,0483303046801 ,45,5576048273346 ,82,7723443782412
1.987921 ,Left ,62,0255296027892 ,45,5336434751939 ,82,75146158601
2.0109272 ,Left ,62,0174702200905 ,45,5423200477855 ,82,7578698211468
2.0332942 ,Left ,62,0584661318676 ,45,5719223872539 ,82,7851031737135
2.0558352 ,Left ,62,152178940724 ,45,5491505000285 ,82,789994712224
2.0706974 ,Left ,62,1112853666989 ,45,5080981882875 ,82,7905317277386
2.0936877 ,Left ,62,1274643531616 ,45,5277914423435 ,82,7581038669809
2.1154993 ,Left ,62,1196767408665 ,45,570760557973 ,82,7303576963017
2.1304098 ,Left ,62,1087992554431 ,45,620126579831 ,82,7010993442097
2.1532705 ,Left ,62,0824185952952 ,45,657842130507 ,82,6882308380884
2.1759591 ,Left ,62,0086389941455 ,45,6369742273858 ,82,6703284182603
2.1911586 ,Left ,61,9828806826652 ,45,6379725866843 ,82,7323495670132
2.21353 ,Left ,61,9596472331006 ,45,6772848706881 ,82,7747087398653
2.2359709 ,Left ,61,9669182285306 ,45,7442814589188 ,82,760967914938
2.2508493 ,Left ,61,9708375459294 ,45,7892865216757 ,82,7309214144562
2.2731905 ,Left ,61,9660803328564 ,45,7993863646765 ,82,7071592796135
2.2957633 ,Left ,62,0042231773136 ,45,8096673429702 ,82,6954619494507
2.3108345 ,Left ,62,0069406220339 ,45,806235268116 ,82,6795248992319
2.3329595 ,Left ,62,0039664051163 ,45,7950537558435 ,82,6617928144504
2.3553621 ,Left ,62,0189984710723 ,45,7716553885256 ,82,6505886288212
2.3629888 ,Left ,62,0401990719332 ,45,7374423889182 ,82,6441364155833
2.3854498 ,Left ,62,0410890971831 ,45,682716662873 ,82,6335860344089
2.4228597 ,Left ,62,1022434252982 ,45,5909927354453 ,82,5752381461152
2.44597 ,Left ,62,1388050897955 ,45,5594797736059 ,82,5239919551186
2.49062 ,Left ,62,1832009893784 ,45,4943139925048 ,82,4477213802896
2.542876 ,Left ,62,2029525849155 ,45,4364184076953 ,82,3757919961767
2.5654238 ,Left ,62,2107005739469 ,45,4433190835874 ,82,3684339393818
2.602927 ,Left ,62,2158051501397 ,45,5148862161348 ,82,3323268693923
2.6250272 ,Left ,62,1903389443113 ,45,5537434720699 ,82,3022059089144
2.663038 ,Left ,62,1085410879629 ,45,65025078267 ,82,2544788312189
2.6854715 ,Left ,62,0510566230713 ,45,692784486146 ,82,2492297565074
2.7232592 ,Left ,61,9424141099063 ,45,7766400135705 ,82,2767036822925
2.7461145 ,Left ,61,9037018308111 ,45,8192153099738 ,82,2886488052627
2.7829365 ,Left ,61,8668478237393 ,45,892906260403 ,82,2704864319912
2.8056726 ,Left ,61,8619402424799 ,45,9206082164984 ,82,2867343694417
2.84328 ,Left ,61,8226062216854 ,45,8750864023995 ,82,372732265762
2.8656618 ,Left ,61,7811704489528 ,45,8302725519642 ,82,3892533916929
2.9032842 ,Left ,61,7607116789427 ,45,7328566545808 ,82,3688146431247
2.9258116 ,Left ,61,7945668857631 ,45,6725103015484 ,82,355466401704
2.9629882 ,Left ,61,8547071217476 ,45,4863972317907 ,82,3664963732928
2.9855916 ,Left ,61,8858380401221 ,45,3994289321838 ,82,3823826319481
3.0233057 ,Left ,62,0036424302824 ,45,3320287758931 ,82,4214242687879
3.045852 ,Left ,62,0587938745404 ,45,353984150665 ,82,4283762681086
3.0829969 ,Left ,62,1081823603303 ,45,4628365240357 ,82,4268761726996
3.1058012 ,Left ,62,0987406221533 ,45,5044037598026 ,82,4325640715283
3.1430324 ,Left ,62,0160007855558 ,45,5768733016161 ,82,465407169574
3.1654796 ,Left ,61,9830867838352 ,45,6141389481506 ,82,481572031881
3.2030994 ,Left ,61,9065483387985 ,45,6805312070661 ,82,4954316564501
3.2254002 ,Left ,61,8690891800127 ,45,7105229955 ,82,4775313885254
3.2628637 ,Left ,61,8549272192854 ,45,7915950311422 ,82,4055977973151
3.2926178 ,Left ,61,7882746300122 ,45,7983765443706 ,82,366080527652
3.3232292 ,Left ,61,7632659596311 ,45,8995468814978 ,82,3065232953564
3.3459574 ,Left ,61,7752746771578 ,45,96667728242 ,82,2862398392024
3.3826968 ,Left ,61,8618434348917 ,45,9698902866859 ,82,2445816000222
3.4053448 ,Left ,61,8723966642096 ,45,993387245346 ,82,2069402943169
3.4503156 ,Left ,61,8542980148013 ,46,0353037940507 ,82,1386362337085
3.4729363 ,Left ,61,8606734088843 ,46,049381409651 ,82,1306628233824
3.525631 ,Left ,61,7449605378593 ,46,2133185199193 ,82,0571031708992
3.5628731 ,Left ,61,6547549274085 ,46,3783236794166 ,81,9693135217703
3.5852634 ,Left ,61,5914282468283 ,46,4264259793085 ,81,9213570299792
3.6235916 ,Left ,61,3735575114162 ,46,4946919420755 ,81,8461194642043
3.6459786 ,Left ,61,3172290223255 ,46,4941973743388 ,81,7928947526523
3.6828356 ,Left ,61,1367762097876 ,46,3943228002986 ,81,7195077611641
3.7053095 ,Left ,61,0850956282893 ,46,3864949407121 ,81,7147819375767
3.7428001 ,Left ,61,1194634123043 ,46,3625867258333 ,81,8663821364653
3.7655067 ,Left ,61,1932446845741 ,46,3376532154152 ,81,9310533614593
3.8029692 ,Left ,61,3422274366647 ,46,2574878889295 ,81,9338124572821
3.8253083 ,Left ,61,4475407514331 ,46,2128752307579 ,81,9314159683333
3.8629903 ,Left ,61,6322946802961 ,46,0813022985021 ,82,0087312546472
3.8855267 ,Left ,61,7192189091708 ,46,010058742536 ,82,0601205661654
3.9228372 ,Left ,61,8430481359905 ,45,8932366531782 ,82,1290124788108
3.9455567 ,Left ,61,8903879906827 ,45,8681843259299 ,82,1912766941537
3.9829149 ,Left ,61,9955411793177 ,45,8328172540112 ,82,2553705879439
4.0128931 ,Left ,62,0372298324448 ,45,8124866656199 ,82,2514413407737
4.0500806 ,Left ,62,0341372489435 ,45,8144264760054 ,82,2161426656875
4.0652888 ,Left ,62,023394179504 ,45,8339787107264 ,82,1917888695479
4.1028053 ,Left ,62,0156398227227 ,45,859478642962 ,82,1149261695544
4.1254106 ,Left ,62,0223431739701 ,45,8642185757026 ,82,088893600855
4.1629592 ,Left ,61,9736692516971 ,45,8638530538536 ,82,0556295103727
4.1851688 ,Left ,61,9470964649198 ,45,8548355274759 ,82,034103932629
4.215434 ,Left ,61,9351646671705 ,45,8372750077172 ,81,9861235866617
4.2379642 ,Left ,61,9111214378552 ,45,8167713314786 ,81,9645204898612
4.2605539 ,Left ,61,9049344954597 ,45,8024352511981 ,81,9491837260321
4.2755904 ,Left ,61,8942219910442 ,45,7918613681593 ,81,9377072522147
4.2982201 ,Left ,61,8856295081126 ,45,7867852780874 ,81,929191010347
4.3204436 ,Left ,61,8762757245022 ,45,7956947431113 ,81,9076466077193
4.3428698 ,Left ,61,868422609259 ,45,8293658957043 ,81,8678884318483
4.3652273 ,Left ,61,836710191989 ,45,8765796069968 ,81,8535323336602
4.3955635 ,Left ,61,7610812121866 ,46,0443412508004 ,81,8940861519605
4.4180879 ,Left ,61,7998692028178 ,46,1342407677801 ,81,8798748957827
4.4407235 ,Left ,61,8252063078301 ,46,1588443884199 ,81,8595293491857
4.4558451 ,Left ,61,8651226412346 ,46,1290011119813 ,81,8522601318496
4.4780638 ,Left ,61,8914025294077 ,46,0802772025496 ,81,8534143012162
4.500524 ,Left ,61,9309216227483 ,46,0208770291942 ,81,8405790928149
4.5157886 ,Left ,61,9544450412066 ,45,9560145284403 ,81,8299771898012
4.5382852 ,Left ,61,9863688903712 ,45,9020462147475 ,81,8171994128975
4.5605883 ,Left ,61,9836042009152 ,45,8655318101768 ,81,8046955195776
4.5758124 ,Left ,61,976270147486 ,45,8542484397877 ,81,7935990972369
4.5980621 ,Left ,61,9764024310342 ,45,8713485663485 ,81,7809703770833
4.6206225 ,Left ,61,9927805262927 ,45,9125939751406 ,81,7806578639962
4.635558 ,Left ,61,991258511561 ,45,9529597054746 ,81,7891085043931
4.6580093 ,Left ,61,9887055311009 ,45,9890866716518 ,81,8085575060106
4.680595 ,Left ,61,9575510397501 ,46,0009799554358 ,81,8246854617462
4.6956246 ,Left ,61,9353919536037 ,46,0108295287558 ,81,8481957745578
4.7179671 ,Left ,61,9142501935723 ,46,0206509840748 ,81,8736974105404
4.7406769 ,Left ,61,8930029371678 ,46,0283502534768 ,81,9056351799095
4.7556243 ,Left ,61,8936741442764 ,46,029436523691 ,81,9355180993318
4.7778543 ,Left ,61,9197317544445 ,46,0169587568969 ,81,967323378845
4.8005672 ,Left ,61,9339911940977 ,45,9855188160838 ,82,0036367029323
4.8156168 ,Left ,61,9479286117959 ,45,966429235574 ,82,0329289134227
4.8381545 ,Left ,61,9589734466307 ,45,9623536518447 ,82,0581059907188
4.8604217 ,Left ,61,9849962334138 ,45,9759559656077 ,82,0801372499943
4.8831158 ,Left ,62,0124706102635 ,45,9868075144611 ,82,1052437633857
4.8981814 ,Left ,62,0332812724572 ,45,9979366656899 ,82,132781767481
4.9206071 ,Left ,62,0478559573912 ,46,0257404111264 ,82,1605968226621
4.9431225 ,Left ,62,0510877327196 ,46,0628989056859 ,82,1861446991717
4.9578353 ,Left ,62,0486883164473 ,46,1035527270915 ,82,2062544064578
4.9804029 ,Left ,62,038063203273 ,46,13245956736 ,82,2236939833325
5.0028214 ,Left ,62,0220522551622 ,46,1504357000534 ,82,241147715411
5.0178151 ,Left ,62,0083683035583 ,46,1698263560627 ,82,2585404498594
5.0405137 ,Left ,61,9895525080681 ,46,1890382539947 ,82,2748547082564
5.06303 ,Left ,61,9737089892839 ,46,2040968047802 ,82,2859284064037
5.0780423 ,Left ,61,9569170942299 ,46,2002767805712 ,82,2982772675723
5.1006409 ,Left ,61,9412127596967 ,46,1850564609154 ,82,3163268272668
5.1230157 ,Left ,61,9314384893614 ,46,1602621751131 ,82,3354612112722
5.1385864 ,Left ,61,9297680386369 ,46,1375183895639 ,82,3552006219474
5.1606706 ,Left ,61,9348688298706 ,46,1165487360565 ,82,3661369640152
5.1829833 ,Left ,61,9497086802694 ,46,0908544321541 ,82,3777768968989
5.1980894 ,Left ,61,961787605708 ,46,0601508250879 ,82,3918861460546
5.2206708 ,Left ,61,9676834810715 ,46,0430980309131 ,82,4078107769046
5.2506381 ,Left ,61,966603351099 ,46,0397911808822 ,82,4237669552219
5.2656133 ,Left ,61,9602860529499 ,46,0416077739157 ,82,4302660286489
5.2879769 ,Left ,61,9501719577343 ,46,038546891918 ,82,4371436548162
5.3028468 ,Left ,61,9360978579985 ,46,039782738887 ,82,4472003661338
5.317751 ,Left ,61,9214943724066 ,46,0447244149603 ,82,4527904594588
5.3404758 ,Left ,61,9069631480697 ,46,052762860317 ,82,4567390188416
5.3629901 ,Left ,61,9105948497844 ,46,0607601610602 ,82,4543800440517
5.3779857 ,Left ,61,9087260853904 ,46,0598679258329 ,82,4537505297015
5.4005552 ,Left ,61,91016501958 ,46,0582437684187 ,82,4535254585835
5.4228266 ,Left ,61,9097422009486 ,46,0577452235554 ,82,4542587529985
5.4380517 ,Left ,61,9097422009486 ,46,0577452235554 ,82,4542587529985
5.4604442 ,Left ,61,9189358389675 ,46,0567037217264 ,82,4504797870082
5.4829973 ,Left ,61,9357743936728 ,46,0540933476004 ,82,4496100792896
5.4980519 ,Left ,61,9416121223419 ,46,0547234140837 ,82,4502482807331
5.5204832 ,Left ,61,9578132954473 ,46,0556710094667 ,82,4529669941705
5.5430677 ,Left ,61,9680417092329 ,46,0545210987238 ,82,4512964258958
5.5581148 ,Left ,61,9806159012353 ,46,0454473067409 ,82,4547707763028
5.5880368 ,Left ,61,9923496668594 ,46,0353647275677 ,82,4597121263467
5.6102804 ,Left ,61,9970245210531 ,46,0222195758962 ,82,4613855815218
5.6253701 ,Left ,61,9939248605702 ,46,0044645334211 ,82,4634236619723
5.640297 ,Left ,62,0087399325786 ,45,992365361203 ,82,4566227967993
5.6703009 ,Left ,62,007770754407 ,45,9778232915403 ,82,4447805218039
5.6852856 ,Left ,61,9974721288525 ,45,9705388446286 ,82,4331175150201
5.7077429 ,Left ,61,9970659396717 ,45,97440420617 ,82,4205946530863
5.72296 ,Left ,61,9985293709465 ,45,9791600353406 ,82,4087091793252
5.7379197 ,Left ,62,0003983152712 ,45,9800522023169 ,82,4093410213559
5.7604252 ,Left ,62,0143849090087 ,45,9807008981892 ,82,4089155280814
5.7828431 ,Left ,62,0143397126925 ,45,9658870813027 ,82,4072227059644
5.8053615 ,Left ,62,0095917424525 ,45,9537956497516 ,82,4123599665166
5.8202174 ,Left ,62,0156277251729 ,45,9472734377138 ,82,4117775502652
5.8435401 ,Left ,62,0206519580353 ,45,9408605742021 ,82,4091041846413
5.8662274 ,Left ,62,019344984061 ,45,9322230851597 ,82,4097732100543
5.8804623 ,Left ,62,0208499095848 ,45,933702378773 ,82,4078985876757
5.9033955 ,Left ,62,0285122493032 ,45,9321249136994 ,82,4108001680872
5.9257297 ,Left ,62,0462394646923 ,45,9365662479802 ,82,4132152081467
5.9406191 ,Left ,62,0547873323409 ,45,94311827695 ,82,4161951584803
5.9631059 ,Left ,62,0664099064756 ,45,9549969244589 ,82,4240429304747
5.9855813 ,Left ,62,0747778675063 ,45,9686945704315 ,82,4282663810611
6.000668 ,Left ,62,0830371630533 ,45,980202957054 ,82,4389666808172
6.0233842 ,Left ,62,0927004381808 ,45,9930000920886 ,82,4558813930053
6.0456964 ,Left ,62,1071171603065 ,46,0083381790493 ,82,4810448240927
6.0682109 ,Left ,62,1271314942249 ,46,0281078377749 ,82,5178651068899
6.0906129 ,Left ,62,1530336232923 ,46,0482009233068 ,82,5635436492505
6.1204957 ,Left ,62,2023562768937 ,46,0855290546013 ,82,680420026159
6.1427668 ,Left ,62,2185194419271 ,46,1122718575764 ,82,7411111235623
6.1655528 ,Left ,62,2289044648255 ,46,1540027971205 ,82,7923949194023
6.1804811 ,Left ,62,2257806097665 ,46,2022556497842 ,82,8314986621865
6.2029441 ,Left ,62,210349988752 ,46,2526066364589 ,82,8658145595469
6.2259909 ,Left ,62,1833316563619 ,46,2959416765456 ,82,894001789426
6.2408342 ,Left ,62,1520762613668 ,46,3188436813966 ,82,9156902337426
6.2634745 ,Left ,62,118877397481 ,46,3104000357935 ,82,9299075448299
6.2860707 ,Left ,62,1011776495579 ,46,2717966854385 ,82,9549195628219
6.3006032 ,Left ,62,1251399719134 ,46,2411473896543 ,82,973350843665
6.3231205 ,Left ,62,1609552100699 ,46,2103167116872 ,82,9822670091173
6.345469 ,Left ,62,1994041210613 ,46,1795925122942 ,82,994834824
6.3603859 ,Left ,62,2461412992497 ,46,1355247163209 ,83,0006254615843
6.3829551 ,Left ,62,2764411531031 ,46,0868578735167 ,83,0001291118569
6.4055277 ,Left ,62,3218788208219 ,46,0420455199388 ,82,9832131679319
6.4205225 ,Left ,62,330018133207 ,45,9723410526533 ,82,9632565763109
6.44275 ,Left ,62,323996070783 ,45,8856968941685 ,82,9321119773214
6.4726972 ,Left ,62,3318273936486 ,45,822569645227 ,82,8689616416968
6.4878069 ,Left ,62,2975227438519 ,45,776355421007 ,82,7829443379685
6.5111593 ,Left ,62,2266561145653 ,45,7337437762983 ,82,6759635604181
6.526119 ,Left ,62,1894488473367 ,45,6871436906119 ,82,5518372423775
6.5486473 ,Left ,62,1571286920461 ,45,6273124507641 ,82,4353070533147
6.5632037 ,Left ,62,1074671423941 ,45,5501673277594 ,82,3227278962785
6.5855206 ,Left ,62,048820226354 ,45,4610377312073 ,82,2201549746435
6.6081289 ,Left ,61,9982340545816 ,45,3758013388602 ,82,1338893556957
6.6230367 ,Left ,61,9495889377987 ,45,3221895285396 ,82,0640898896632
6.6454337 ,Left ,61,9207335045509 ,45,3081395951031 ,82,0122928094579
6.6682037 ,Left ,61,9206100871772 ,45,3168478767823 ,81,9840378856835
6.6831749 ,Left ,61,9309540132836 ,45,3336521834302 ,81,9916186587237
6.7056392 ,Left ,61,9475187866123 ,45,3673564120072 ,82,0151779848998
6.7281877 ,Left ,61,9392913056663 ,45,4003399418092 ,82,0349379802015
6.7431039 ,Left ,61,9309913779295 ,45,4339680612335 ,82,0439923511898
6.7656793 ,Left ,61,9130623891677 ,45,4570011353126 ,82,0437146409448
6.7880663 ,Left ,61,8994852453753 ,45,4765015502829 ,82,0215409522147
6.8106794 ,Left ,61,8859329758159 ,45,4970745421614 ,81,9628403243751
6.8331855 ,Left ,61,8732338214141 ,45,5108194014038 ,81,869265428805
6.8631736 ,Left ,61,8464997150958 ,45,518876320562 ,81,6397701183871
6.885692 ,Left ,61,8301895495757 ,45,5039159166293 ,81,5116380815638
6.9083537 ,Left ,61,7978886451531 ,45,4828737740367 ,81,3946299623772
6.9232222 ,Left ,61,7845085536694 ,45,4609276293604 ,81,2924402889335
6.94566 ,Left ,61,7767473437656 ,45,4277576280255 ,81,220762153148
6.9682077 ,Left ,61,7758893588032 ,45,3891113207456 ,81,1724744061442
6.9830562 ,Left ,61,7940493113492 ,45,3523733784957 ,81,1489998624693
7.0055717 ,Left ,61,8221257991509 ,45,3215105928772 ,81,1445526630227
7.0281338 ,Left ,61,8437875216739 ,45,2880401873688 ,81,1612520206908
7.0432185 ,Left ,61,8560713531612 ,45,2570952968788 ,81,1932273899454
7.0656873 ,Left ,61,8530508120095 ,45,238813592889 ,81,238733254635
7.0881686 ,Left ,61,8719059651482 ,45,2328234948845 ,81,2807116839164
7.1030691 ,Left ,61,8580957093576 ,45,2110421018446 ,81,341411993489
7.1253761 ,Left ,61,8495917247102 ,45,2007291181355 ,81,4188737782384
7.1480169 ,Left ,61,8499389113044 ,45,2003918358918 ,81,4989823280364
7.1629315 ,Left ,61,8444297940327 ,45,2047749658038 ,81,5858931568124
7.1860525 ,Left ,61,8377407758995 ,45,2082769035534 ,81,6644685625882
7.2082883 ,Left ,61,8399550731035 ,45,2168152501116 ,81,7183241067494
7.2227669 ,Left ,61,8394909281159 ,45,2242112217691 ,81,7445596949266
7.2454446 ,Left ,61,8219964347402 ,45,2340680093149 ,81,7542501661653
7.267817 ,Left ,61,8105041571393 ,45,251067369953 ,81,752590895716
7.2828146 ,Left ,61,8105041571393 ,45,251067369953 ,81,752590895716
7.3054466 ,Left ,61,803317638329 ,45,2677328634134 ,81,7605493368082
7.3278528 ,Left ,61,8202391905641 ,45,3023067059045 ,81,7750099259569
7.3429277 ,Left ,61,8191003585696 ,45,3328593137693 ,81,8005226184776
7.3654482 ,Left ,61,8067661703324 ,45,3658281189723 ,81,8382310397405
7.387812 ,Left ,61,7987276075299 ,45,4078263595346 ,81,8801518614613
7.4031025 ,Left ,61,7988783000741 ,45,4592815121534 ,81,9154768887794
7.4254786 ,Left ,61,793073285124 ,45,5177985530444 ,81,9410312182737
7.4479169 ,Left ,61,7687209474402 ,45,5745892864054 ,81,9690075837548
7.4629526 ,Left ,61,7508467490151 ,45,6280977242711 ,81,9864400988784
7.4856995 ,Left ,61,7257405748684 ,45,6775049587704 ,81,9861080658021
7.5082412 ,Left ,61,6825405827362 ,45,6992826015614 ,81,9646859266908
7.5229248 ,Left ,61,6391707823256 ,45,6896654788527 ,81,9441514491944
7.5457452 ,Left ,61,5631028183197 ,45,6608524306152 ,81,9552906264034
7.568276 ,Left ,61,506105967182 ,45,6994226263298 ,81,9603553107913
7.5829599 ,Left ,61,4397989971781 ,45,7337705840345 ,81,900298240743
7.6056901 ,Left ,61,3957978268972 ,45,7366578768003 ,81,8782742780749
7.6281713 ,Left ,61,4120383138517 ,45,7646056761457 ,81,8693569194596
7.64324 ,Left ,61,4220095107866 ,45,8011523109647 ,81,8706529003648
7.6654596 ,Left ,61,4484767067117 ,45,8388574157661 ,81,884170814534
7.6878172 ,Left ,61,5272020885351 ,45,8870994405161 ,81,9086115001752
7.7104722 ,Left ,61,534896018413 ,45,8964754857835 ,81,9100428616665
7.7255994 ,Left ,61,5864655068019 ,45,8773674132561 ,81,8821386685269
7.747984 ,Left ,61,585955019972 ,45,8436770503337 ,81,8483905182898
7.7704603 ,Left ,61,6112991256629 ,45,8130543946343 ,81,8140568562872
7.7854485 ,Left ,61,64937324863 ,45,7834088786523 ,81,7849504693808
7.8080757 ,Left ,61,705917065921 ,45,7677954930631 ,81,7721132807417
7.8306756 ,Left ,61,7399939986876 ,45,7470478676897 ,81,7563282226859
7.8456923 ,Left ,61,7616807197616 ,45,7052728467193 ,81,7419173226414
7.8682466 ,Left ,61,7178196484848 ,45,681041761436 ,81,7331673600351
7.8906903 ,Left ,61,7033614542419 ,45,7189044034181 ,81,7494953434621
7.905685 ,Left ,61,8183980046343 ,45,7992323316559 ,81,7434610076998
7.9282282 ,Left ,61,8804409804893 ,45,817677198117 ,81,6992484434414
7.9506238 ,Left ,61,8748425133274 ,45,8082219534848 ,81,6936016963024
7.9656223 ,Left ,61,8479556802257 ,45,8211079947143 ,81,6906147311117
7.9955659 ,Left ,61,7988571797827 ,45,8313358450654 ,81,6853546073778
8.0178941 ,Left ,61,782626892305 ,45,8535167810399 ,81,6817930388203
8.0405536 ,Left ,61,69124842492 ,45,8269851971806 ,81,6686669721407
8.0554618 ,Left ,61,7292845395459 ,45,7998052243621 ,81,6818622219718
8.0853283 ,Left ,61,6745679332488 ,45,866273750996 ,81,7089464941244
8.1077634 ,Left ,61,7171285613822 ,45,955015914334 ,81,7322752259519
8.1456225 ,Left ,61,7740978957454 ,46,1068110216724 ,81,8762425845247
8.1604167 ,Left ,61,8093474710714 ,46,2163525238635 ,81,9937192708101
8.183038 ,Left ,61,8540110597893 ,46,2959478916699 ,82,1074978206562
8.1982289 ,Left ,61,8879542242891 ,46,3398486873742 ,82,2301840904793
8.2204039 ,Left ,61,8842329116921 ,46,3642609483532 ,82,3193694498013
8.2430417 ,Left ,61,8412455868893 ,46,3759764393781 ,82,3610241195924
8.2582808 ,Left ,61,774179165628 ,46,3591226157108 ,82,3611621293995
8.280668 ,Left ,61,7321054428876 ,46,3223703873397 ,82,3588652153811
8.3181679 ,Left ,61,7154267252053 ,46,1960889223759 ,82,3104068573359
8.3405725 ,Left ,61,7230222321627 ,46,0993216698153 ,82,2769909336895
8.3778574 ,Left ,61,7845433435837 ,45,9204058292607 ,82,1756504788826
8.4003182 ,Left ,61,8065684520118 ,45,856912009346 ,82,1182194987924
8.4452272 ,Left ,61,894398147279 ,45,8642167352155 ,82,0345491642858
8.4978086 ,Left ,61,9295678746001 ,45,9761669871745 ,81,9605485701753
8.5207906 ,Left ,61,8856459949235 ,45,9847591033007 ,81,9391758151142
8.558013 ,Left ,61,7907074126425 ,46,0284032397214 ,81,9200871803594
8.5808651 ,Left ,61,7370258467472 ,46,072321629287 ,81,9217011069842
8.6180361 ,Left ,61,6446452397461 ,46,1421844672017 ,81,895881613747
8.6408893 ,Left ,61,6127622558815 ,46,1896518581677 ,81,8948371295527
8.6782322 ,Left ,61,5169954104387 ,46,2736327341131 ,81,9052449006734
8.7005985 ,Left ,61,5403801972218 ,46,3711200609965 ,81,9086772967235
8.7381542 ,Left ,61,6328275818545 ,46,510831556686 ,81,9042097448371
8.7604227 ,Left ,61,6688223444177 ,46,5551105215568 ,81,8987382733667
8.7979062 ,Left ,61,6154101806428 ,46,5896721293341 ,81,8955166474888
8.820768 ,Left ,61,5774841062402 ,46,6037144711136 ,81,8585008114941
8.8579539 ,Left ,61,4603186120312 ,46,6897287871546 ,81,7850913625687
8.8802097 ,Left ,61,4301431801267 ,46,7198914855411 ,81,7513392748894
8.9260849 ,Left ,61,3301570219978 ,46,7499449979339 ,81,6922270625808
8.9483111 ,Left ,61,2858376426145 ,46,7745694023758 ,81,6385996533179
8.9779875 ,Left ,61,2083100284161 ,46,801576671005 ,81,5335066013713
9.0003957 ,Left ,61,1751223658463 ,46,7991472546984 ,81,4978199654985
9.0379982 ,Left ,61,1220515874837 ,46,7451897825643 ,81,3882450272032
9.0606019 ,Left ,61,0732927836722 ,46,6580673561189 ,81,3701737065154
9.1054405 ,Left ,61,0198485155722 ,46,6267799092254 ,81,4289064731468
9.1278246 ,Left ,61,0761599286708 ,46,6286806800157 ,81,5165626066601
9.1582691 ,Left ,61,1982158674449 ,46,4755994900219 ,81,6530744421451
9.1804817 ,Left ,61,2815947219973 ,46,430359476664 ,81,662661183107
9.218396 ,Left ,61,3662485910247 ,46,3718441087289 ,81,6922373499238
9.2483067 ,Left ,61,4350903240912 ,46,3387582066449 ,81,7473984115358
9.2857516 ,Left ,61,4843023661833 ,46,3404520126176 ,81,8233227504235
9.3008014 ,Left ,61,5365040535751 ,46,3662712517617 ,81,8597346758533
9.3380485 ,Left ,61,5398344398504 ,46,3302003575357 ,81,9485033128589
9.3607959 ,Left ,61,5175004266369 ,46,3204835311764 ,81,9685901778951
9.398377 ,Left ,61,4734015106253 ,46,3159122944188 ,81,9788471939221
9.4206426 ,Left ,61,4704866307278 ,46,3242260064803 ,81,9709939101582
9.4579859 ,Left ,61,463617805702 ,46,3434118092662 ,81,9205307558771
9.4802028 ,Left ,61,4661102582554 ,46,3432939264768 ,81,8848591699352
9.5181 ,Left ,61,4534616199753 ,46,3320005867807 ,81,7893445647702
9.5403667 ,Left ,61,4409014152958 ,46,327807854403 ,81,736530906553
9.5777784 ,Left ,61,4101880840536 ,46,302065001329 ,81,6250772404565
9.6002654 ,Left ,61,3924679608133 ,46,2719274938449 ,81,5867416477953
9.6461739 ,Left ,61,3156828794551 ,46,2502851414116 ,81,490574466887
9.6682756 ,Left ,61,3257726692412 ,46,2563649765701 ,81,5255032769777
9.720681 ,Left ,61,4351023435741 ,46,3553605098924 ,81,6524142223657
9.7580801 ,Left ,61,4591479447636 ,46,3621416231341 ,81,6458823625881
9.7805486 ,Left ,61,457448429985 ,46,3433221793953 ,81,6452540870249
9.8179662 ,Left ,61,4277693593044 ,46,2919081832245 ,81,6770589700131
9.8478242 ,Left ,61,4369383436354 ,46,2696600711723 ,81,7012222693609
9.8854408 ,Left ,61,4951273326932 ,46,241951137021 ,81,7665498414722
9.9004533 ,Left ,61,5314845198282 ,46,2301937411719 ,81,8105890442079
9.9378821 ,Left ,61,6074506481426 ,46,21280958515 ,81,9085953357191
9.9529637 ,Left ,61,6351076810701 ,46,200973144335 ,81,9752550105579
9.9753475 ,Left ,61,6673166236097 ,46,1979229282751 ,82,0465396408212
9.9904422 ,Left ,61,6971485898575 ,46,1973351537244 ,82,1209685804043
10.0130759 ,Left ,61,7250381091463 ,46,2037832983188 ,82,200935114195
10.0355501 ,Left ,61,7349693277557 ,46,2141529886951 ,82,2822338815587
10.0506415 ,Left ,61,7640568595943 ,46,2251976285022 ,82,372379665613
10.0729461 ,Left ,61,7995043685738 ,46,2554793390635 ,82,4683318205899
10.095443 ,Left ,61,822008247386 ,46,2903268687249 ,82,5723354641975
10.1105777 ,Left ,61,820518126974 ,46,3159556655465 ,82,6765425172661
10.132981 ,Left ,61,8137975682844 ,46,3388751229949 ,82,779112445754
10.1555353 ,Left ,61,8064369035148 ,46,3700981278959 ,82,8777634768105
10.1705972 ,Left ,61,796506192537 ,46,3944872022358 ,82,9693610676771
10.1927401 ,Left ,61,7953229206871 ,46,4092065883989 ,83,0439794763534
10.2154263 ,Left ,61,797353723838 ,46,4089635052104 ,83,1085671926367
10.230248 ,Left ,61,8115824218007 ,46,4131589431192 ,83,1801007584431
10.2530333 ,Left ,61,8337523535863 ,46,4247716304516 ,83,2495486805547
10.275607 ,Left ,61,8627163674765 ,46,447354528641 ,83,318918987945
10.2904246 ,Left ,61,9108903264121 ,46,4617827808028 ,83,3692506443179
10.3129204 ,Left ,61,9497776979448 ,46,4546680551883 ,83,4089724521052
10.3354496 ,Left ,61,9815237651999 ,46,4371010046772 ,83,4383503182556
10.3504424 ,Left ,62,0198942822365 ,46,422159452678 ,83,4555925626332
10.3730822 ,Left ,62,0487649374991 ,46,4121085562854 ,83,4579226833709
10.3954155 ,Left ,62,0664366480229 ,46,3932990213211 ,83,4462923042219
10.4104431 ,Left ,62,1023265069123 ,46,3656464850495 ,83,4309930438123
10.432766 ,Left ,62,1388756673366 ,46,318667889478 ,83,3929956227578
10.4555368 ,Left ,62,1699895455983 ,46,261983494146 ,83,3378039022387
10.4705693 ,Left ,62,1925164474689 ,46,2166532811151 ,83,2796388958814
10.4931898 ,Left ,62,197179145928 ,46,1779647994692 ,83,2242087890457
10.5161148 ,Left ,62,1998592363465 ,46,1239908589128 ,83,1878167552484
10.5308644 ,Left ,62,224696348558 ,46,0630772228546 ,83,1629160571328
10.5527586 ,Left ,62,215558487221 ,45,9936130224083 ,83,1151663964918
10.5753119 ,Left ,62,1655371743387 ,45,9107110454231 ,83,0318230877056
10.5979056 ,Left ,62,0974986115941 ,45,8174028731518 ,82,940039840523
10.6127368 ,Left ,62,0576627532074 ,45,7599146547307 ,82,8467138644877
10.6354855 ,Left ,62,0081582741833 ,45,6731212549728 ,82,7074060619031
10.6579318 ,Left ,61,8922615650126 ,45,5786297174715 ,82,5891648678576
10.6730946 ,Left ,61,8100870697462 ,45,5227764010275 ,82,4866977439465
10.6954078 ,Left ,61,7623232229606 ,45,4719708084823 ,82,4131142408935
10.7179442 ,Left ,61,7637447296888 ,45,4381863711357 ,82,3593165107094
10.733025 ,Left ,61,7745045573127 ,45,4043369927127 ,82,3063912989082
10.7556145 ,Left ,61,7800757606234 ,45,3848472015975 ,82,2801791070078
10.7779858 ,Left ,61,8161051913241 ,45,4064659676673 ,82,2701680335643
10.7934828 ,Left ,61,8400220546293 ,45,4456215440104 ,82,2721096125069
10.8161038 ,Left ,61,853768199227 ,45,5044885855455 ,82,2987577758688
10.8386501 ,Left ,61,8737371796737 ,45,5886753940621 ,82,3213887172657
10.8534248 ,Left ,61,8613630720313 ,45,674898682334 ,82,333881905807
10.8754583 ,Left ,61,8311847627729 ,45,7485018976794 ,82,3366362017966
10.898014 ,Left ,61,7837021966044 ,45,8165347011588 ,82,3324803600478
10.9131344 ,Left ,61,7357647716054 ,45,8911836264265 ,82,3301799320356
10.935453 ,Left ,61,724804436704 ,45,9596489004844 ,82,3109512259295
10.9585241 ,Left ,61,6630078011142 ,45,9938478590643 ,82,2725985178629
10.973574 ,Left ,61,5936335103602 ,46,0082968046394 ,82,2333830196891
10.995862 ,Left ,61,5578091255514 ,46,0431234778967 ,82,2166676755746
11.0182088 ,Left ,61,529006263768 ,46,1047293696598 ,82,1761047653567
11.0335303 ,Left ,61,4796983346679 ,46,1529662867163 ,82,1304617472566
11.0560765 ,Left ,61,5186152861102 ,46,2025181520819 ,82,1525096682879
11.0785331 ,Left ,61,6294914998442 ,46,229959162303 ,82,2114272003854
11.0933405 ,Left ,61,6601622062984 ,46,2254486935788 ,82,2431584353646
11.1154566 ,Left ,61,6568757319286 ,46,2365621838404 ,82,2180743773416
11.1382939 ,Left ,61,6784978841411 ,46,2671076502114 ,82,1468637909069
11.1605508 ,Left ,61,6919587625748 ,46,2859490837078 ,82,0653749291797
11.1755684 ,Left ,61,7317527987838 ,46,2768315878335 ,82,0015068858348
11.2055362 ,Left ,61,7493428929864 ,46,2339875085151 ,81,9530324074809
11.2204669 ,Left ,61,7814479074838 ,46,1649324695869 ,81,9094004390532
11.2429343 ,Left ,61,8228510287926 ,46,0648937544021 ,81,8590859097342
11.2579019 ,Left ,61,8243195718786 ,45,9945410995114 ,81,832020907095
11.2803708 ,Left ,61,809434512051 ,45,9108878407665 ,81,7739677870924
11.2954661 ,Left ,61,7945712824931 ,45,8499085487467 ,81,7415252979877
11.3254987 ,Left ,61,7832036889433 ,45,8062032123698 ,81,701652912615
11.3475698 ,Left ,61,7798320788539 ,45,776480514109 ,81,665660626947
11.3629752 ,Left ,61,7671450687094 ,45,724691397584 ,81,6065137982721
11.3853594 ,Left ,61,7036473307871 ,45,7079354424561 ,81,6257073116433
11.4004618 ,Left ,61,711066901397 ,45,8015497859084 ,81,6816981787397
11.4226642 ,Left ,61,7450984456215 ,45,8927377520321 ,81,7635054221521
11.4378956 ,Left ,61,7862173519357 ,45,9928520622618 ,81,8125649818637
11.4604442 ,Left ,61,7631251640582 ,46,0460303607878 ,81,8115262574616
11.4754108 ,Left ,61,7258238120682 ,46,0711457306358 ,81,8144249955692
11.497702 ,Left ,61,6596540011313 ,46,1180334417911 ,81,7978248399059
11.5203092 ,Left ,61,5942826681976 ,46,1393297444653 ,81,7571172925072
11.5355132 ,Left ,61,5608582017684 ,46,0787589687563 ,81,7948001047525
11.5579349 ,Left ,61,5202520100147 ,46,0004669968806 ,81,9264534334563
11.5804703 ,Left ,61,5298301723274 ,45,9797668572481 ,82,0458484385791
11.5957353 ,Left ,61,5663996633368 ,46,0575520914001 ,82,0966678288145
11.6181962 ,Left ,61,5882767131198 ,46,1128275331257 ,82,0680339036597
11.6403813 ,Left ,61,6503718674337 ,46,1372445074798 ,82,0768434546926
11.6555644 ,Left ,61,7116983244088 ,46,1674141362487 ,82,1221490019992
11.6786752 ,Left ,61,7553323003406 ,46,220451122798 ,82,1577189565088
11.7010891 ,Left ,61,7828262496669 ,46,2752284620948 ,82,1969496222659
11.715975 ,Left ,61,7954661915476 ,46,2893378426633 ,82,2396044148032
11.7383848 ,Left ,61,7562100504204 ,46,2392176242991 ,82,3067013496052
11.7604082 ,Left ,61,7671140833304 ,46,1939145816783 ,82,3646468650722
11.7761518 ,Left ,61,6796081655821 ,46,1311006663463 ,82,3762120406243
11.7987882 ,Left ,61,6577074283997 ,46,0855098599387 ,82,3592328948676
11.8206873 ,Left ,61,6593484245059 ,46,0555650830292 ,82,3203102412735
11.8353422 ,Left ,61,6556181356031 ,46,0356552009874 ,82,2796253587653
11.8578148 ,Left ,61,6721703573174 ,46,0418289718411 ,82,2265149162587
11.8805827 ,Left ,61,6843285054264 ,46,0466848526859 ,82,1775023580688
11.8953232 ,Left ,61,693437263639 ,46,0464425079771 ,82,1470052281461
11.9179672 ,Left ,61,7025717361816 ,46,0513666562835 ,82,1163695858565
11.9403848 ,Left ,61,708193238651 ,46,0665832909008 ,82,0951230735698
11.9552405 ,Left ,61,7027583418602 ,46,0921677365389 ,82,0686062303423
11.9778687 ,Left ,61,6753994844583 ,46,116786046893 ,82,0437337244287
12.0005794 ,Left ,61,67584787633 ,46,1331189104767 ,82,041484936546
12.0155312 ,Left ,61,6408392739145 ,46,1239715536466 ,82,0683408438833
12.0378974 ,Left ,61,6150085113917 ,46,1235599102251 ,82,1013981207952
12.060391 ,Left ,61,5905061226034 ,46,1297805879578 ,82,1322185556151
12.0753982 ,Left ,61,5673888378388 ,46,1347611914992 ,82,2022347103972
12.097904 ,Left ,61,5880880715468 ,46,1540590981989 ,82,2933464504577
12.1206952 ,Left ,61,6118995456926 ,46,1686089020165 ,82,356216768405
12.1356024 ,Left ,61,6341758217905 ,46,1708256012367 ,82,3586859056232
12.1581117 ,Left ,61,5904612130139 ,46,1722266430552 ,82,3126319934704
12.1808001 ,Left ,61,5401318733169 ,46,1556391722225 ,82,2135797634989
12.1953182 ,Left ,61,4594517614543 ,46,1218192243445 ,82,1095521181094
12.2177116 ,Left ,61,3918181184749 ,46,1261376170968 ,82,0205850953974
12.240414 ,Left ,61,3283778614529 ,46,168626240305 ,81,9217048765099
12.2630008 ,Left ,61,2440182144197 ,46,1745450413771 ,81,8065777637332
12.2783425 ,Left ,61,1777654664038 ,46,1795502726055 ,81,7381361155045
12.3002573 ,Left ,61,1318294674646 ,46,2053793710489 ,81,7012786040226
12.3228006 ,Left ,61,1674824683756 ,46,2245459283885 ,81,6597388715337
12.3377411 ,Left ,61,1583320702363 ,46,2028287357277 ,81,6101455731821
12.3604449 ,Left ,61,1013014807404 ,46,2099469822972 ,81,5776878068639
12.3827557 ,Left ,61,0661969780541 ,46,2767757576242 ,81,5363252428938
12.3977544 ,Left ,61,056757858117 ,46,3631417609468 ,81,4920867978582
12.4277849 ,Left ,61,0723253796844 ,46,4068775536205 ,81,5417855195986
12.4507808 ,Left ,61,1435369579457 ,46,4571357988135 ,81,6176260879504
12.4652321 ,Left ,61,1790565304689 ,46,5102916643156 ,81,642086404395
12.4810497 ,Left ,61,1995058687369 ,46,5287637762904 ,81,6234503813929
12.5029155 ,Left ,61,2158132009877 ,46,5121591594549 ,81,6026070876849
12.5179178 ,Left ,61,2577155368867 ,46,5042582958129 ,81,6142878522465
12.5403057 ,Left ,61,2736048654537 ,46,5023964259674 ,81,6446266938722
12.5630281 ,Left ,61,2797679346391 ,46,5302672774846 ,81,6495837832642
12.5780473 ,Left ,61,2644909644414 ,46,5568129501405 ,81,6483201515366
12.6003406 ,Left ,61,2794377441956 ,46,5832893048353 ,81,6424124225865
12.630442 ,Left ,61,2933989481872 ,46,5958472615747 ,81,6218565626709
12.6457313 ,Left ,61,2594615496134 ,46,6003977923117 ,81,5957842205143
12.6830088 ,Left ,61,1287418208696 ,46,662647039482 ,81,4723080456769
12.6975621 ,Left ,61,0870953820471 ,46,6657598128596 ,81,365510985708
12.7204524 ,Left ,61,0152002731449 ,46,6395903380439 ,81,2555626001604
12.7429132 ,Left ,60,9419099677106 ,46,6186019497632 ,81,1571008932008
12.7579656 ,Left ,60,8849734352789 ,46,606642391007 ,81,0620296572211
12.7801682 ,Left ,60,8000723658348 ,46,5696924173759 ,81,0058383887622
12.8028053 ,Left ,60,758363795333 ,46,5345620237805 ,80,969615549259
12.818503 ,Left ,60,7278991864518 ,46,5144085443088 ,80,951563704302
12.8410371 ,Left ,60,7087372385568 ,46,5267595853897 ,80,981486246848
12.8633764 ,Left ,60,7795813884599 ,46,5853927834513 ,81,0475388644673
12.8778442 ,Left ,60,8261140458748 ,46,6299551915954 ,81,1232357341403
12.9004932 ,Left ,60,8965397684563 ,46,6162313257242 ,81,1519511080113
12.9229703 ,Left ,60,9688424802032 ,46,5605953744975 ,81,1607219560957
12.9455894 ,Left ,61,0549246580868 ,46,521767144261 ,81,1595574860426
12.9679901 ,Left ,61,0812002868237 ,46,4822257184127 ,81,1681950397826
12.9981753 ,Left ,61,2081008889325 ,46,380022956198 ,81,2247229224701
13.0281124 ,Left ,61,2639556516948 ,46,3365394371935 ,81,2746203421263
13.0503981 ,Left ,61,3325868595238 ,46,3307146092232 ,81,3285260378465
13.0653304 ,Left ,61,4570532098377 ,46,3440618658564 ,81,3759910874363
13.080563 ,Left ,61,5481129479512 ,46,3226544649404 ,81,4153577289081
13.1028263 ,Left ,61,6103585173316 ,46,2829831085458 ,81,453613768486
13.1335603 ,Left ,61,6430370585803 ,46,2563746096269 ,81,4806640626864
13.1487188 ,Left ,61,6336921291198 ,46,2326596354743 ,81,4962483578551
13.1711939 ,Left ,61,6325367681478 ,46,2178388491285 ,81,5082360319103
13.1857387 ,Left ,61,6488583493111 ,46,2167394206666 ,81,5197730421963
13.2004708 ,Left ,61,6722689171329 ,46,2220774123515 ,81,5249547271412
13.2230665 ,Left ,61,6648378014043 ,46,216200619576 ,81,5287710696197
13.2381868 ,Left ,61,6594615956292 ,46,2081815262157 ,81,5271148925726
13.2604702 ,Left ,61,6534677747023 ,46,1992414963045 ,81,5188981939957
13.2829545 ,Left ,61,6541827664512 ,46,1818155508407 ,81,5182246695314
13.2980541 ,Left ,61,6576943663095 ,46,1587562184017 ,81,5163505933333
13.320642 ,Left ,61,6439610877161 ,46,1382652681404 ,81,5129250094072
13.35014 ,Left ,61,6182305090207 ,46,1355387650926 ,81,5029392299336
13.3655952 ,Left ,61,5688516609933 ,46,1469197052375 ,81,4743461890203
13.3877853 ,Left ,61,5360630248436 ,46,1795711482932 ,81,4438764782125
13.4029596 ,Left ,61,5300282423116 ,46,2349019761866 ,81,4364229192284
13.4255837 ,Left ,61,5366820783309 ,46,3056971298513 ,81,4796263676384
13.4405609 ,Left ,61,5535703572001 ,46,390384338095 ,81,5230037981959
13.4629772 ,Left ,61,5595090700325 ,46,4580125035485 ,81,5488817871951
13.4854018 ,Left ,61,5794747631594 ,46,4894574910037 ,81,5623148144056
13.5005672 ,Left ,61,5895471189815 ,46,4855387216191 ,81,562244142767
13.5227785 ,Left ,61,6058109468326 ,46,480889778349 ,81,5605613002286
13.545428 ,Left ,61,6025149653971 ,46,4636618868618 ,81,56777508199
13.5604919 ,Left ,61,6027016653411 ,46,4289617361042 ,81,572153880456
13.5829689 ,Left ,61,6320513723668 ,46,3886573262195 ,81,5788281603294
13.605546 ,Left ,61,6818572473498 ,46,3515849243936 ,81,5992849901519
13.6205807 ,Left ,61,7266190626936 ,46,3227617855417 ,81,6239316412631
13.6427177 ,Left ,61,7799988606998 ,46,2924661132684 ,81,6534260946461
13.6656425 ,Left ,61,8466172364001 ,46,2582894872484 ,81,6959491668557
13.6805724 ,Left ,61,9028290626358 ,46,2135847604151 ,81,742159910166
13.702914 ,Left ,61,9562875625792 ,46,1732722461876 ,81,7928538193755
13.7255315 ,Left ,61,9947317561163 ,46,1580436488139 ,81,8404627933148
13.7405786 ,Left ,62,0028194900765 ,46,1435207808476 ,81,8919354830856
13.7627159 ,Left ,62,0219032797716 ,46,1299122915841 ,81,9451817678295
13.7854173 ,Left ,62,0612783398345 ,46,1193470415818 ,81,9948551766266
13.8005273 ,Left ,62,086360317174 ,46,1148049265213 ,82,0542689751865
13.8230362 ,Left ,62,0931983979366 ,46,1121797129779 ,82,1132564179693
13.8378425 ,Left ,62,1037222404868 ,46,1206298221186 ,82,1685101006479
13.8527671 ,Left ,62,1171264501758 ,46,1172221735226 ,82,2180655544349
13.8756028 ,Left ,62,1236867445722 ,46,10243008691 ,82,2663228500012
13.897996 ,Left ,62,1216708577152 ,46,0987569534701 ,82,3198083814419
13.9139555 ,Left ,62,1273558541051 ,46,1039162211528 ,82,3679225996989
13.9360914 ,Left ,62,1313241415112 ,46,1063333916985 ,82,4058077148772
13.9586378 ,Left ,62,1462109028926 ,46,0980338158702 ,82,4336958873037
13.9735891 ,Left ,62,171475015222 ,46,0887280023548 ,82,4519554295929
13.9954551 ,Left ,62,1907604806767 ,46,0850357377028 ,82,4659728541602
14.0328866 ,Left ,62,2155616606834 ,46,0534781979747 ,82,4735025563656
14.0553556 ,Left ,62,2170549276261 ,46,028804734493 ,82,4734218074653
14.0932064 ,Left ,62,1957753021638 ,45,9875776103405 ,82,4603859399576
14.1161082 ,Left ,62,1906802148479 ,45,9856331885399 ,82,449649537076
14.1531197 ,Left ,62,1820217476638 ,45,9009249487963 ,82,3814668289499
14.1756338 ,Left ,62,1528065233506 ,45,8535326120604 ,82,3025205745487
14.1981078 ,Left ,62,0828360830257 ,45,8353126208433 ,82,1854127449259
14.2128035 ,Left ,61,9783847403608 ,45,8249281750865 ,82,0412660490692
14.2352768 ,Left ,61,8911673392039 ,45,8153425709601 ,81,8823995264978
14.2578225 ,Left ,61,8186168970029 ,45,7943900355272 ,81,7180670626476
14.2805896 ,Left ,61,7572531936678 ,45,7680192923581 ,81,5475101141897
14.3028256 ,Left ,61,6890091405018 ,45,71373042563 ,81,3900351637606
14.3329458 ,Left ,61,5965690384382 ,45,6028040528256 ,81,111277222443
14.3553372 ,Left ,61,5615546115979 ,45,5735861003876 ,81,0005826206427
14.3779415 ,Left ,61,5602958502302 ,45,5565400270327 ,80,9128273393235
14.3928487 ,Left ,61,5657345197055 ,45,5501953328212 ,80,865825319116
14.4229934 ,Left ,61,5922355655826 ,45,5600991087294 ,80,8553888875514
14.4455169 ,Left ,61,6187737631092 ,45,5731493049642 ,80,8701660722153
14.4604043 ,Left ,61,6553525209997 ,45,5854364783301 ,80,9003924626493
14.4756611 ,Left ,61,6877661321003 ,45,5891115749224 ,80,9413004805626
14.5129257 ,Left ,61,7106099743813 ,45,5884873840217 ,81,0364123849304
14.535614 ,Left ,61,7187632831745 ,45,582042387418 ,81,0839225198344
14.5733742 ,Left ,61,7476193624303 ,45,5903843455368 ,81,1523828824139
14.5958057 ,Left ,61,7520384899507 ,45,6090487385621 ,81,1953733064513
14.6330349 ,Left ,61,770430400164 ,45,6783919494651 ,81,3409689159529
14.6553606 ,Left ,61,7670739231646 ,45,7229322372725 ,81,4353747853431
14.6936529 ,Left ,61,7716265613103 ,45,8222125854105 ,81,619147011998
14.7154725 ,Left ,61,7710708752722 ,45,8717147785762 ,81,7000880338249
14.7612308 ,Left ,61,7117285975746 ,45,95874737187 ,81,8085781122277
14.783175 ,Left ,61,7053717094929 ,45,9982904873254 ,81,8261197306292
14.8354699 ,Left ,61,5691742730308 ,45,9964382270261 ,81,8449621754105
14.8736272 ,Left ,61,4404985603861 ,45,9380342842058 ,81,8540178518022
14.8958772 ,Left ,61,3890464687002 ,45,9447724103315 ,81,8377556558687
14.9336446 ,Left ,61,2798679789833 ,46,0405208586053 ,81,7815623037487
14.955775 ,Left ,61,2852630085728 ,46,086472886892 ,81,8015832618805
15.0007988 ,Left ,61,2574369483985 ,46,2359030335828 ,81,816730533306
15.0229742 ,Left ,61,2563471580668 ,46,2868898946826 ,81,797687317249
15.0536558 ,Left ,61,2027236549848 ,46,2367327031357 ,81,7779707296225
15.0756095 ,Left ,61,1616762323086 ,46,2243459764237 ,81,7600309120282
15.1130597 ,Left ,61,1937098434111 ,46,2561248813237 ,81,7371397161433
15.1356514 ,Left ,61,2508889243756 ,46,2708719980069 ,81,7465538371611
15.1730733 ,Left ,61,3212956826655 ,46,3295439562398 ,81,7642473750857
15.1955157 ,Left ,61,3755710247892 ,46,3824453967281 ,81,7513824915785
15.2332772 ,Left ,61,4260862602538 ,46,4019016758519 ,81,7484282383454
15.2554993 ,Left ,61,4321290614442 ,46,4200455543546 ,81,7514439738926
15.2932468 ,Left ,61,3825135414871 ,46,4833875963069 ,81,7937099954082
15.3157368 ,Left ,61,3861891368726 ,46,5159508554394 ,81,8110422034619
15.3530704 ,Left ,61,4349286265878 ,46,5287936547207 ,81,8499509899147
15.3757629 ,Left ,61,4295748266313 ,46,5295921086546 ,81,8693204447711
15.4136262 ,Left ,61,4121630768815 ,46,5375382702508 ,81,8910108296851
15.4359542 ,Left ,61,4363402708488 ,46,5359604753982 ,81,886621532045
15.4729513 ,Left ,61,4619051223894 ,46,4838305876206 ,81,8999927993546
15.4954616 ,Left ,61,4596836661495 ,46,4763113914496 ,81,9114251187053
15.5407833 ,Left ,61,4879873304655 ,46,4561603592445 ,81,9172876098843
15.5631744 ,Left ,61,4981690849733 ,46,4189396794325 ,81,9258825653754
15.6158051 ,Left ,61,5296490026626 ,46,4021713090663 ,81,9431086511444
15.6532192 ,Left ,61,5502936436676 ,46,3843390594976 ,81,9587493589743
15.6758149 ,Left ,61,5841179907695 ,46,3760981609119 ,81,9613423344904
15.7055569 ,Left ,61,6118108742827 ,46,3452888946852 ,81,9347233232297
15.7280656 ,Left ,61,6411849757084 ,46,3204997333419 ,81,9243965709102
15.7503939 ,Left ,61,6664211744714 ,46,2954355685119 ,81,9069212354137
15.7655405 ,Left ,61,6895773863206 ,46,2755621094873 ,81,893210362511
15.7954827 ,Left ,61,7076650638224 ,46,2692392259183 ,81,875463471877
15.8180114 ,Left ,61,7302481894993 ,46,2653756642417 ,81,8505555145432
15.8330051 ,Left ,61,7504440788249 ,46,250463308091 ,81,8155974380456
15.8480987 ,Left ,61,7912316577672 ,46,2292788422664 ,81,8155940549897
15.8706131 ,Left ,61,7148264597686 ,46,1967485943647 ,81,8267926537284
15.8861941 ,Left ,61,6871641662723 ,46,2413821727099 ,81,8267524251517
15.9235729 ,Left ,61,6844787498378 ,46,3355629023432 ,81,8077858915629
15.9461043 ,Left ,61,6900067074093 ,46,3992510378041 ,81,7876701642711
15.9611979 ,Left ,61,7470037297688 ,46,4356447797778 ,81,7839971664132
15.9759461 ,Left ,61,6996153212149 ,46,4308335733926 ,81,8115751260578
15.9906615 ,Left ,61,6787129769963 ,46,425852599409 ,81,8587014236985
16.0054068 ,Left ,61,6633826843808 ,46,4343264407669 ,81,9225542589657
16.0356107 ,Left ,61,6461329897223 ,46,4438648654784 ,82,00322131378
16.0576436 ,Left ,61,6537849819101 ,46,457268685146 ,82,0868799903558
16.0730746 ,Left ,61,6645718227705 ,46,4674137489892 ,82,1623821768408
16.0881637 ,Left ,61,6786408649216 ,46,4682680802498 ,82,2172704000542
16.1105406 ,Left ,61,6687405509802 ,46,4517203150167 ,82,2502197375218
16.1256463 ,Left ,61,6448687719923 ,46,4239559360079 ,82,252838080186
16.1481963 ,Left ,61,6332399090519 ,46,4088818689734 ,82,2387056853103
16.1707074 ,Left ,61,6245614714031 ,46,3978599718973 ,82,2014907175232
16.1857839 ,Left ,61,6031974278653 ,46,3849520941211 ,82,1620439785548
16.2153519 ,Left ,61,6087191232641 ,46,367551932665 ,82,1153563902781
16.2378932 ,Left ,61,6088853959488 ,46,3361141383837 ,82,0704854599789
16.2680124 ,Left ,61,6385856278861 ,46,3038494088803 ,82,003927696868
16.2905232 ,Left ,61,6402100515595 ,46,3095221800599 ,81,9811408981205
16.3130212 ,Left ,61,6834072704701 ,46,324431993756 ,81,9607197587882
16.3280221 ,Left ,61,7109731393786 ,46,3355275821616 ,81,9386640707588
16.3586386 ,Left ,61,7001955337318 ,46,3407836321861 ,81,9176968250244
16.3808646 ,Left ,61,685652389562 ,46,3400267382956 ,81,9003277192611
16.3956995 ,Left ,61,6515539018629 ,46,3447400467907 ,81,884251245419
16.4105235 ,Left ,61,6228973145001 ,46,3435586753483 ,81,8648847275662
16.4329646 ,Left ,61,584350235959 ,46,3340552014119 ,81,8605326825044
16.4481368 ,Left ,61,5735202423895 ,46,3309481040241 ,81,8574403201401
16.4702703 ,Left ,61,5855519758758 ,46,3360981835369 ,81,8402094475438
16.493 ,Left ,61,5337963913384 ,46,3235637001515 ,81,8112943305139
16.5079865 ,Left ,61,4651157266103 ,46,3121152634647 ,81,8024574903804
16.5303998 ,Left ,61,378266956499 ,46,2876125270184 ,81,8076664911237
16.552952 ,Left ,61,3343203255475 ,46,2777853263841 ,81,8263785717959
16.5682155 ,Left ,61,3094831301265 ,46,2920671047931 ,81,8214044636581
16.5907172 ,Left ,61,2259637208339 ,46,2831588718952 ,81,8155292242166
16.6131303 ,Left ,61,18219319852 ,46,3049772509246 ,81,8311222190901
16.6280077 ,Left ,61,1872999670429 ,46,3707559648388 ,81,8428176338346
16.6505381 ,Left ,61,1933039838649 ,46,4378182821886 ,81,8350486103524
16.6730332 ,Left ,61,1991558433644 ,46,5011556383918 ,81,8141069210047
16.6881115 ,Left ,61,1573903428241 ,46,5629482573146 ,81,8099032115253
16.7104742 ,Left ,61,1443323971315 ,46,6163067812097 ,81,791377436574
16.7330247 ,Left ,61,1010329618239 ,46,663882174749 ,81,7549768218849
16.7480214 ,Left ,61,0823113088102 ,46,7002137995349 ,81,6802591401889
16.7705806 ,Left ,61,0903222076952 ,46,7121474856883 ,81,5735652748518
16.79305 ,Left ,61,0683139211739 ,46,6985041251136 ,81,4713900715205
16.8155965 ,Left ,61,0072929986642 ,46,6986776511349 ,81,3835270137278
16.830423 ,Left ,60,9512681628578 ,46,7276267030716 ,81,3113010229171
16.8529034 ,Left ,60,9242474236994 ,46,7586363990459 ,81,234059686915
16.8679569 ,Left ,60,9219658769519 ,46,7689393142248 ,81,1683366476956
16.8905266 ,Left ,60,8987031514545 ,46,728482004844 ,81,1150568453524
16.920389 ,Left ,60,8740757093852 ,46,6650331550415 ,81,0663860422281
16.9354846 ,Left ,60,8462942682997 ,46,6403019636571 ,81,0180404231292
16.9579562 ,Left ,60,8260924402849 ,46,6911337484072 ,80,965289071906
16.9878784 ,Left ,60,831728891244 ,46,7192562070319 ,80,9344242543639
17.0179449 ,Left ,60,8551868664309 ,46,7360217158147 ,80,9830651996612
17.0402674 ,Left ,60,8790293104701 ,46,7445785718579 ,81,0338239146601
17.0558974 ,Left ,60,9057957147549 ,46,7482906906087 ,81,0548337646463
17.0710564 ,Left ,60,9505654270579 ,46,7476265841545 ,81,0522700684586
17.0930138 ,Left ,60,9822627502169 ,46,726636934587 ,81,0459090676371
17.1080258 ,Left ,61,0458439543696 ,46,7185983901731 ,81,048973399347
17.1303994 ,Left ,61,0745502041721 ,46,7047160361095 ,81,0636583430673
17.1529619 ,Left ,61,1369020378884 ,46,69015586518 ,81,0766542422614
17.1755335 ,Left ,61,2087296860909 ,46,6617301311164 ,81,0958625486834
17.1906126 ,Left ,61,2803646486834 ,46,6209254319246 ,81,1123051562219
17.2133123 ,Left ,61,3329552575631 ,46,5661652740524 ,81,1331168112636
17.2358122 ,Left ,61,3905936017026 ,46,5234363505218 ,81,1585258634247
17.250785 ,Left ,61,4191446249366 ,46,4995879771184 ,81,186822266541
17.2729762 ,Left ,61,4332999525753 ,46,4923733982166 ,81,2313227955806
17.2956629 ,Left ,61,480524832701 ,46,5047321390283 ,81,2810584891804
17.31783 ,Left ,61,5284893120924 ,46,497991362104 ,81,3184648453637
17.3403304 ,Left ,61,548115939208 ,46,4695051890083 ,81,3586726433822
17.3628265 ,Left ,61,5699786271298 ,46,4454777831738 ,81,3972755412817
17.3780499 ,Left ,61,5838644988586 ,46,4277145464516 ,81,4406999166724
17.3930292 ,Left ,61,6150100414995 ,46,4200565023189 ,81,4784220563391
17.415355 ,Left ,61,6218330424738 ,46,3952868155503 ,81,5132625762145
17.4303541 ,Left ,61,6425830641208 ,46,3623305729925 ,81,5527963582651
17.4530274 ,Left ,61,6655984535493 ,46,3369295356787 ,81,5890051406507
17.4756035 ,Left ,61,6995899625909 ,46,3232741446585 ,81,6178725109646
17.49064 ,Left ,61,7186197494589 ,46,3081311116893 ,81,6460142025954
17.5133656 ,Left ,61,732402405215 ,46,2960847461241 ,81,6864297875163
17.5361717 ,Left ,61,7303020331916 ,46,2730135716292 ,81,7142423104607
17.5510112 ,Left ,61,7312797741449 ,46,24058390692 ,81,745184056955
17.5735152 ,Left ,61,7393509275269 ,46,2200680299837 ,81,7767779076727
17.5955381 ,Left ,61,7323152303511 ,46,1971320676008 ,81,8109114599271
17.6106112 ,Left ,61,7173162212634 ,46,175474868116 ,81,8581017249001
17.6331579 ,Left ,61,7698872246152 ,46,1685471190635 ,81,9081661771343
17.6555523 ,Left ,61,7768799790586 ,46,1564635114691 ,81,9592374249415
17.6705473 ,Left ,61,8101209536596 ,46,1452960562857 ,81,9928989390881
17.6932104 ,Left ,61,8585053291097 ,46,1352724487235 ,82,0273206482854
17.7156708 ,Left ,61,8674564762609 ,46,1257322188687 ,82,0575859316648
17.7305832 ,Left ,61,8710435623259 ,46,1159357808185 ,82,0866264068513
17.7528539 ,Left ,61,8816677888789 ,46,1186796140641 ,82,1057573862341
17.7755922 ,Left ,61,9117631203713 ,46,1332644121869 ,82,116431413015
17.7904369 ,Left ,61,9211572168446 ,46,1399601885696 ,82,1132212722589
17.8131649 ,Left ,61,9195322607735 ,46,1318990531932 ,82,1113483670316
17.8355905 ,Left ,61,9210242585977 ,46,1333875569537 ,82,1094762640771
17.8505808 ,Left ,61,9210242585977 ,46,1333875569537 ,82,1094762640771
17.873379 ,Left ,61,9396818439944 ,46,1402135371629 ,82,0993243684641
17.8955802 ,Left ,61,9519810639061 ,46,139273796986 ,82,0855334242444
17.910481 ,Left ,61,974438921013 ,46,1311213133539 ,82,0733590688233
17.9331946 ,Left ,62,0022479420172 ,46,1221141887665 ,82,0656889377017
17.9555734 ,Left ,62,0275149700358 ,46,1220998926763 ,82,0494913336772
17.9712228 ,Left ,62,0415119556978 ,46,1177198845874 ,82,025991229788
17.993585 ,Left ,62,0629326816177 ,46,1221320283276 ,82,0050230768052
18.0160822 ,Left ,62,07237778309 ,46,1363118092916 ,81,987247423336
18.0311627 ,Left ,62,0914233268166 ,46,1584797398917 ,81,9552535934472
18.0536642 ,Left ,62,0754730740207 ,46,1767227147265 ,81,9254537337134
18.075758 ,Left ,62,0537456819149 ,46,2078908583729 ,81,9003345583239
18.0981889 ,Left ,62,0345769666038 ,46,2332871033387 ,81,8739590878897
18.1132274 ,Left ,61,9903602883198 ,46,2586378514982 ,81,8557171904015
18.1356306 ,Left ,61,9632394221421 ,46,2934341316029 ,81,8325022580238
18.157851 ,Left ,61,9163903556245 ,46,3199095090944 ,81,8052935253712
18.1728031 ,Left ,61,8927418025008 ,46,3560271332801 ,81,7762344665019
18.1955558 ,Left ,61,8531861822378 ,46,3877462799037 ,81,7381772731604
18.2179649 ,Left ,61,7997983714152 ,46,4173014535552 ,81,7037475453399
18.2328066 ,Left ,61,7822493357869 ,46,4268723706608 ,81,6802442862378
18.2630757 ,Left ,61,7476886841028 ,46,4236559779688 ,81,6792563539039
18.2932416 ,Left ,61,7024584688661 ,46,4417691357187 ,81,6712618007841
18.3082313 ,Left ,61,650074827817 ,46,5090852743997 ,81,663738530792
18.3231374 ,Left ,61,6466093189855 ,46,5653393034339 ,81,6496294960742
18.338202 ,Left ,61,6844866979885 ,46,606807395452 ,81,6343002196408
18.3533233 ,Left ,61,7057896352893 ,46,6137213556663 ,81,6224657258916
18.3756644 ,Left ,61,7518755367258 ,46,6156102101115 ,81,6185990722633
18.3981519 ,Left ,61,8044795331826 ,46,607599168982 ,81,6104090566721
18.4132934 ,Left ,61,842596903927 ,46,5817812000653 ,81,6049988895654
18.4356463 ,Left ,61,8884917595986 ,46,5389573088251 ,81,5879132933604
18.4580983 ,Left ,61,9311755797556 ,46,5008584390994 ,81,5733606186684
18.473146 ,Left ,61,9259122735705 ,46,4675274091946 ,81,5625951328323
18.5032789 ,Left ,61,9420944732138 ,46,4432439600901 ,81,5415842934344
18.5260258 ,Left ,61,9653637066939 ,46,4212804738694 ,81,5192418613964
18.5405658 ,Left ,61,980465252549 ,46,4086642124263 ,81,5078175442585
18.5557974 ,Left ,61,9913489488141 ,46,4001288356346 ,81,5073518535911
18.5782768 ,Left ,61,9977590297904 ,46,392176169126 ,81,512301113479
18.5932611 ,Left ,61,9996663420516 ,46,3782474842298 ,81,5188184324378
18.6156979 ,Left ,62,0183418201849 ,46,358817018547 ,81,5112230961814
18.6381276 ,Left ,62,0127684754964 ,46,3228304901279 ,81,5074746058932
18.6532979 ,Left ,62,0224298439278 ,46,3000351253497 ,81,5083863060547
18.6756516 ,Left ,62,0248331903976 ,46,297325807088 ,81,513299498733
18.6980492 ,Left ,62,0458452699915 ,46,3020126040521 ,81,5234921712248
18.7131928 ,Left ,62,0996659893214 ,46,3065509099281 ,81,5333732037107
18.7358046 ,Left ,62,1190410212382 ,46,286775813372 ,81,5434168657933
18.7583733 ,Left ,62,1302436973809 ,46,265682050792 ,81,5575376448564
18.7730228 ,Left ,62,1333964221862 ,46,2585450602192 ,81,5771145382209
18.795549 ,Left ,62,1247539809967 ,46,2589888964395 ,81,5984474874692
18.8182961 ,Left ,62,1194017310807 ,46,2673567276933 ,81,6256433889936
18.8331943 ,Left ,62,1265811316845 ,46,2793825397856 ,81,6495640706561
18.8553406 ,Left ,62,1395541366855 ,46,2794085034827 ,81,6735528221246
18.8779857 ,Left ,62,1425125475282 ,46,2741082869852 ,81,7026129123066
18.8929161 ,Left ,62,1429519253398 ,46,2724858343913 ,81,7314575365312
18.9155516 ,Left ,62,1413842665376 ,46,2878060726925 ,81,7599936007825
18.938089 ,Left ,62,1443826375396 ,46,3110875697829 ,81,7885085144944
18.9530342 ,Left ,62,1633325787402 ,46,3352490392576 ,81,8127583466163
18.9755134 ,Left ,62,1821839286916 ,46,3486392429986 ,81,8380187377491
18.9981996 ,Left ,62,1867600011741 ,46,361696639286 ,81,8610331159659
19.0132305 ,Left ,62,1826665284082 ,46,3782956843897 ,81,8806529992336
19.0356061 ,Left ,62,1850868691037 ,46,402842102302 ,81,8962237050348
19.0578603 ,Left ,62,1970385515195 ,46,4204601160685 ,81,9036988092474
19.0805758 ,Left ,62,2042227992443 ,46,4332572787449 ,81,9093884839755
19.0954307 ,Left ,62,1995860355437 ,46,4420782579782 ,81,9129917504208
19.1181749 ,Left ,62,1920948320365 ,46,4531714639113 ,81,9122770692902
19.1406361 ,Left ,62,1860617565055 ,46,4626709767949 ,81,9113466303034
19.1554173 ,Left ,62,190632937301 ,46,4706122109534 ,81,911371802472
19.1778313 ,Left ,62,1920858129388 ,46,4690205347567 ,81,9111557425656
19.2081361 ,Left ,62,1916746755382 ,46,4685070674783 ,81,9118255489874
19.2227793 ,Left ,62,1931276973125 ,46,466915343787 ,81,9116094625171
19.2454495 ,Left ,62,2027311247351 ,46,468547182244 ,81,9089418785855
19.260486 ,Left ,62,217544829817 ,46,4735060425903 ,81,9058579705632
19.2753685 ,Left ,62,2262949315361 ,46,4710291478461 ,81,9061282130767
19.2978284 ,Left ,62,2372685716959 ,46,4728833324164 ,81,9127592114396
19.3204547 ,Left ,62,2463857107144 ,46,4738145391754 ,81,918700857048
19.3354468 ,Left ,62,2531551798005 ,46,4711297957999 ,81,9309634198462
19.3580501 ,Left ,62,2673811190052 ,46,4720994366724 ,81,9460211128974
19.3805073 ,Left ,62,2741620285836 ,46,4713843323762 ,81,959890837909
19.3956733 ,Left ,62,2775872005436 ,46,4642866235121 ,81,9716880739626
19.4181566 ,Left ,62,2814246548398 ,46,4596911115631 ,81,9844064320891
19.440604 ,Left ,62,2809409012361 ,46,4589758813659 ,81,9930236071376
19.4558482 ,Left ,62,2768862018999 ,46,4629869365058 ,82,0041234051529
19.4857135 ,Left ,62,2839544868547 ,46,4700865995364 ,82,0107827995325
19.5077748 ,Left ,62,2895630355084 ,46,4748062651328 ,82,0144735350533
19.5228096 ,Left ,62,2895630355084 ,46,4748062651328 ,82,0144735350533
19.5380045 ,Left ,62,2858262832536 ,46,4877475069558 ,82,0151629354352
19.5604797 ,Left ,62,2735504522677 ,46,4980625665504 ,82,0157741851306
19.5755235 ,Left ,62,2717048927119 ,46,5138978347101 ,82,0187636230802
19.5903918 ,Left ,62,2646245301612 ,46,5244437830856 ,82,0205481869789
19.6206828 ,Left ,62,2544116326228 ,46,5294449042463 ,82,0252417915711
19.6355535 ,Left ,62,2431676122107 ,46,5365602892618 ,82,0294775528848
19.6504737 ,Left ,62,2319124260111 ,46,5416922036776 ,82,0321121558535
19.6730252 ,Left ,62,2337795189208 ,46,5426046622703 ,82,0328096735318
19.6881746 ,Left ,62,2246322421194 ,46,5445983331952 ,82,0331920351657
19.710582 ,Left ,62,2212719989763 ,46,5422079372822 ,82,0342874637139
19.7329836 ,Left ,62,2141788309358 ,46,5379922199071 ,82,0339921157108
19.7481577 ,Left ,62,2118880380663 ,46,5345740470584 ,82,0323791216935
19.7705648 ,Left ,62,2133302081366 ,46,5329811274116 ,82,0321574324389
19.7931113 ,Left ,62,2166398594534 ,46,5351905106103 ,82,0390003672265
19.8080806 ,Left ,62,2238367311733 ,46,5310145832382 ,82,0490327448532
19.8303556 ,Left ,62,2306679967234 ,46,5302842811149 ,82,0629569870187
19.8530482 ,Left ,62,2503849269007 ,46,5302523385775 ,82,0826833732302
19.867861 ,Left ,62,2710798555971 ,46,5519368459068 ,82,1079843129581
19.8905229 ,Left ,62,2706313374675 ,46,5779427106514 ,82,1281335507896
19.9128066 ,Left ,62,2862203694309 ,46,6203365015002 ,82,1510901477822
19.928051 ,Left ,62,2832240151312 ,46,6651386263337 ,82,1786984295866
19.9504057 ,Left ,62,2742769018737 ,46,6923799282334 ,82,2097427734104
19.987835 ,Left ,62,2010930505869 ,46,7247875799599 ,82,2692431705677
20.0104435 ,Left ,62,1549900540716 ,46,7432023308355 ,82,2983115809277
20.0481443 ,Left ,62,0427211208315 ,46,7139458998131 ,82,3444987342669
20.0703601 ,Left ,62,0028495165378 ,46,6683788259973 ,82,3492195090868
20.1082809 ,Left ,61,9629267740362 ,46,5837202728781 ,82,3418601806403
20.1308456 ,Left ,61,9715411607413 ,46,5298653833654 ,82,3285332271978
20.1686382 ,Left ,62,015535932714 ,46,4133891161049 ,82,245298272878
20.1911437 ,Left ,62,0260324383068 ,46,3626014570274 ,82,1716441843829
20.2283917 ,Left ,62,0260040563939 ,46,2654117528223 ,81,9864532856832
20.2505403 ,Left ,62,036244492762 ,46,219155186453 ,81,8885828774135
20.2731195 ,Left ,62,0663092900847 ,46,1858779850534 ,81,7874585058676
20.2882432 ,Left ,62,0749998216579 ,46,1453562735914 ,81,69129768564
20.3105654 ,Left ,62,0602191514049 ,46,0921375417231 ,81,6122498185495
20.3480219 ,Left ,62,0568836132811 ,46,0474483363842 ,81,4800214341596
20.3707191 ,Left ,62,0351420376953 ,46,0363911669895 ,81,4158900959423
20.4081598 ,Left ,62,0200977406111 ,46,010738949324 ,81,280072739738
20.4306287 ,Left ,62,0097521668641 ,45,9869845798111 ,81,2032209638962
20.4680424 ,Left ,61,9299934127013 ,45,9565426810331 ,81,0802424815977
20.4904342 ,Left ,61,9287184602549 ,45,9558600389648 ,81,0466696626693
20.5280849 ,Left ,61,9226832051514 ,45,9542173543771 ,81,0145980705511
20.5507133 ,Left ,61,942277024458 ,45,9829748925802 ,81,0139518928108
20.5884092 ,Left ,61,9193075639521 ,45,9998176513716 ,81,062915027314
20.6107238 ,Left ,61,9327842872434 ,46,0246103878555 ,81,1114111911868
20.655786 ,Left ,61,8896118506077 ,46,0952650127179 ,81,2622505352271
20.678442 ,Left ,61,8771561832363 ,46,1336924858358 ,81,3374032779236
20.730602 ,Left ,61,7809101827607 ,46,1765160238565 ,81,5250205074796
20.7680112 ,Left ,61,612405507427 ,46,2188672513542 ,81,5634365435158
20.7905776 ,Left ,61,5172249390194 ,46,3007896643857 ,81,5635758436375
20.8280208 ,Left ,61,4048104182996 ,46,4103824517528 ,81,6121534365681
20.850424 ,Left ,61,408975509082 ,46,4553534198829 ,81,6655034916666
20.8881368 ,Left ,61,4957941236674 ,46,519525522014 ,81,7313851423309
20.9103085 ,Left ,61,5039041568284 ,46,4789123171529 ,81,7383492404703
20.9481919 ,Left ,61,5776125004352 ,46,4254479222103 ,81,7606745642026
20.9704226 ,Left ,61,5931790001708 ,46,4140258591735 ,81,7867184988102
21.0081557 ,Left ,61,7342746832985 ,46,3585173858976 ,81,8636942916587
21.0307304 ,Left ,61,7725509450021 ,46,3044145507632 ,81,8975356469244
21.0682426 ,Left ,61,8327828701001 ,46,1981982627081 ,81,9192184826636
21.0906898 ,Left ,61,8524077335384 ,46,1564767008115 ,81,9104825725113
21.1283708 ,Left ,61,8458746894162 ,46,0982907531259 ,81,8870916702322
21.1507461 ,Left ,61,8678519535026 ,46,0534322052375 ,81,8761299581369
21.1957427 ,Left ,61,8893255566719 ,45,9562236582993 ,81,8421459442325
21.2180965 ,Left ,61,909683471661 ,45,9079976257904 ,81,8218115221697
21.2702698 ,Left ,61,9764391156782 ,45,7815196516388 ,81,761879916621
21.3081408 ,Left ,61,9884925988241 ,45,7698392735833 ,81,7241028169595
21.3306964 ,Left ,61,9962744569768 ,45,7681936856132 ,81,7117183467847
21.3682044 ,Left ,61,9837973853408 ,45,7607728475546 ,81,694630052683
21.3908041 ,Left ,61,9747824749437 ,45,7617276367641 ,81,6905327071447
21.4355639 ,Left ,61,9635200472 ,45,7581263232039 ,81,6882080110282
21.4507165 ,Left ,61,9689870280006 ,45,7532609577155 ,81,6895638066722
21.4807828 ,Left ,61,9658611071817 ,45,7421775181552 ,81,6856455888153
21.503223 ,Left ,61,9639243888233 ,45,7377373774849 ,81,679495637317
21.5257405 ,Left ,61,9632812945142 ,45,7326580525571 ,81,6778533007864
21.5482743 ,Left ,61,9674622111515 ,45,7284319105859 ,81,674701996278
21.5706968 ,Left ,61,965951829684 ,45,7300436977889 ,81,6748968824864
21.6007801 ,Left ,61,9539471306027 ,45,7418601745183 ,81,6717269690806
21.6232829 ,Left ,61,9558018313663 ,45,7504362040486 ,81,6728781958832
21.6458121 ,Left ,61,9598530001962 ,45,7590664056154 ,81,6699899830998
21.6606061 ,Left ,61,9590181376191 ,45,7626089100543 ,81,6735729171026
21.6832671 ,Left ,61,9605259249138 ,45,7609981487343 ,81,6733778791591
21.7053848 ,Left ,61,9605259249138 ,45,7609981487343 ,81,6733778791591
21.7206096 ,Left ,61,9571871237987 ,45,7616804384886 ,81,6729451606612
21.7429269 ,Left ,61,9571871237987 ,45,7616804384886 ,81,6729451606612
21.7655784 ,Left ,61,9571871237987 ,45,7616804384886 ,81,6729451606612
21.7805556 ,Left ,61,9571871237987 ,45,7616804384886 ,81,6729451606612
21.8028496 ,Left ,61,9571871237987 ,45,7616804384886 ,81,6729451606612
21.8253874 ,Left ,61,9575370916622 ,45,7610731260206 ,81,6755100009659
21.8403611 ,Left ,61,9571871237987 ,45,7616804384886 ,81,6729451606612
21.8630219 ,Left ,61,9571871237987 ,45,7616804384886 ,81,6729451606612
21.8854734 ,Left ,61,9571871237987 ,45,7616804384886 ,81,6729451606612
21.9081381 ,Left ,61,9571871237987 ,45,7616804384886 ,81,6729451606612
21.9228697 ,Left ,61,9590192423201 ,45,7734017698675 ,81,6723619114324
21.9455726 ,Left ,61,9667656492557 ,45,7915317636383 ,81,6712817936339
21.968024 ,Left ,62,0003951796779 ,45,8269742701299 ,81,6741912665001
21.9828484 ,Left ,62,0381050308421 ,45,8565088920711 ,81,6548743303142
22.0056106 ,Left ,62,0244481167415 ,45,8608767713676 ,81,6393454417623
22.028129 ,Left ,61,9891432803434 ,45,8568670959577 ,81,6242275215068
22.0431204 ,Left ,61,9723696432153 ,45,8754350491229 ,81,623111566856
22.0656368 ,Left ,61,9588640001797 ,45,9169358435398 ,81,6215986415233
22.0882894 ,Left ,61,9504631934307 ,45,9607341719418 ,81,6226819465494
22.1030115 ,Left ,61,9407131438206 ,45,9867380841334 ,81,6198633948091
22.1257381 ,Left ,61,9355020246851 ,45,9982390670056 ,81,6144019876829
22.148312 ,Left ,61,9208023319415 ,46,0038916187822 ,81,61681192405
22.1632119 ,Left ,61,8955918634115 ,46,0231195677725 ,81,6292784835441
22.1853821 ,Left ,61,8415882091911 ,46,0513748520696 ,81,6141643170824
22.2079966 ,Left ,61,8316621756023 ,46,0457240317669 ,81,6043570536715
22.2229408 ,Left ,61,7930260233827 ,45,9542593776598 ,81,6454893574481
22.2453869 ,Left ,61,8698583421564 ,45,9461482269948 ,81,6904725817079
22.268088 ,Left ,61,8707147607855 ,46,0098665647148 ,81,6629178696033
22.2829302 ,Left ,61,8688335259324 ,46,0480762675464 ,81,6369829040103
22.3055648 ,Left ,61,9199988503577 ,46,0690781943389 ,81,638345379362
22.328083 ,Left ,61,9302936374084 ,46,1287469861044 ,81,6578174144027
22.3429501 ,Left ,61,9461501190223 ,46,1461741485028 ,81,6822857862741
22.3655454 ,Left ,61,9441270025765 ,46,103321967176 ,81,7546405082481
22.3880967 ,Left ,61,9282549271962 ,46,1381225873948 ,81,8003041283092
22.4029346 ,Left ,61,9112260917035 ,46,2465823123364 ,81,8071926740784
22.4254907 ,Left ,61,9291603858666 ,46,3354916529924 ,81,7818119156568
22.4478978 ,Left ,61,9611955283146 ,46,3853315716237 ,81,7687339394156
22.4630723 ,Left ,61,9194324271426 ,46,3917725122574 ,81,7646521977892
22.4855836 ,Left ,61,8849291501558 ,46,3698460203186 ,81,758589994098
22.5080833 ,Left ,61,8554124522868 ,46,3225735784723 ,81,7608134406031
22.5231443 ,Left ,61,8231097981747 ,46,2881524546756 ,81,7657243358645
22.5456825 ,Left ,61,8434999937781 ,46,26429860618 ,81,7669588674834
22.5682084 ,Left ,61,85781900971 ,46,2170564034824 ,81,7810293646264
22.5831248 ,Left ,61,9040095329869 ,46,1536762254717 ,81,7859746915046
22.605519 ,Left ,61,9074282440233 ,46,0739423672014 ,81,7755918549861
22.628114 ,Left ,61,8979088941466 ,46,0045580600095 ,81,7561631935741
22.6429911 ,Left ,61,8958789611627 ,45,9568619471296 ,81,7315602841505
22.665527 ,Left ,61,9013713956846 ,45,9215561545278 ,81,7148613135598
22.688278 ,Left ,61,9329010613031 ,45,9059763672864 ,81,7109115995824
22.7105767 ,Left ,61,9784582491685 ,45,9142581332343 ,81,716047008339
22.7263732 ,Left ,62,0007131020499 ,45,9362233457055 ,81,7226555146152
22.7487691 ,Left ,61,9845208414527 ,45,9705557474637 ,81,7299668282324
22.7636283 ,Left ,61,9770933801259 ,46,030189204747 ,81,731668832463
22.7856787 ,Left ,61,9401913774219 ,46,0752162815621 ,81,7301473607858
22.8083321 ,Left ,61,8688486562955 ,46,1112167084206 ,81,7464693777225
22.8307899 ,Left ,61,8150556713745 ,46,167961887499 ,81,7636642429921
22.8455177 ,Left ,61,7408663707628 ,46,2333071080481 ,81,7784468646366
22.8680893 ,Left ,61,7116401736594 ,46,3197781850213 ,81,7811202391042
22.8904853 ,Left ,61,6185110406564 ,46,3818806591363 ,81,7759502208531
22.9055417 ,Left ,61,5944436783841 ,46,4456612769615 ,81,7701367352752
22.9286794 ,Left ,61,5732304832108 ,46,4883373959528 ,81,7717106016591
22.9507757 ,Left ,61,5723745385274 ,46,4888272650206 ,81,8006715644001
22.9659598 ,Left ,61,573782104362 ,46,4402401643556 ,81,8276459053034
22.9883878 ,Left ,61,5711765050139 ,46,3709769060678 ,81,8151701561368
23.0108167 ,Left ,61,509399388427 ,46,2745678670332 ,81,7806363259503
23.025976 ,Left ,61,502232678349 ,46,215091646626 ,81,7433223859337
23.0485191 ,Left ,61,4883293318842 ,46,2054013367604 ,81,7053268983947
23.070785 ,Left ,61,4171696469275 ,46,2739121416457 ,81,6724336507961
23.0859681 ,Left ,61,4926843095938 ,46,383912475702 ,81,6596596371756
23.1085458 ,Left ,61,5391603271159 ,46,3806165551293 ,81,6808590607035
23.1310246 ,Left ,61,517809737648 ,46,3125087922874 ,81,7003204058502
23.1458319 ,Left ,61,4235793897872 ,46,2600311683064 ,81,7222032194022
23.1685791 ,Left ,61,3462384769877 ,46,2548451309687 ,81,724601806606
23.1908283 ,Left ,61,3475329237949 ,46,3276945732172 ,81,7064827532492
23.2060796 ,Left ,61,3846071622199 ,46,4241978720252 ,81,6839610293612
23.2283688 ,Left ,61,4373044066557 ,46,4737594766449 ,81,6878189888317
23.250798 ,Left ,61,4795350668656 ,46,4645374162153 ,81,695094449774
23.2658398 ,Left ,61,5048398730053 ,46,4202320344453 ,81,7069937087369
23.2880644 ,Left ,61,470529761509 ,46,3444781034024 ,81,7173115305073
23.3103772 ,Left ,61,5185068676339 ,46,2859610282751 ,81,7127923651364
23.3254346 ,Left ,61,5455876738249 ,46,2282003431283 ,81,7132420928944
23.3479687 ,Left ,61,576427122848 ,46,1836106509169 ,81,7033351976661
23.3778688 ,Left ,61,6288804063151 ,46,1556025346785 ,81,6830507843347
23.3930915 ,Left ,61,648015955563 ,46,1385784805847 ,81,6684399725397
23.4154676 ,Left ,61,6559243374018 ,46,1265570634987 ,81,6566929220395
23.4305219 ,Left ,61,6739558136221 ,46,1320377161552 ,81,6503155739884
23.4456328 ,Left ,61,6752700857663 ,46,1493921705499 ,81,6469350540996
23.467882 ,Left ,61,6644282389431 ,46,1763111636211 ,81,6546596128985
23.4903869 ,Left ,61,6503465551772 ,46,221817916332 ,81,654110557767
23.5056348 ,Left ,61,5927630194502 ,46,2628030832548 ,81,6552339536388
23.5279973 ,Left ,61,5361180107665 ,46,3067680390847 ,81,6565257274359
23.5507916 ,Left ,61,489800377668 ,46,3457119441586 ,81,6530365872074
23.5658425 ,Left ,61,4528995109238 ,46,3786922389679 ,81,6460750968769
23.5881043 ,Left ,61,42120402013 ,46,4129549255166 ,81,6370035348384
23.6106654 ,Left ,61,4003552741987 ,46,440688899572 ,81,6211002641236
23.6256793 ,Left ,61,3952218700191 ,46,4514928217582 ,81,6006244719583
23.6483239 ,Left ,61,3746632119151 ,46,4505198572358 ,81,5702652719636
23.6704112 ,Left ,61,3683242494603 ,46,4668042354154 ,81,5294816167567
23.6854589 ,Left ,61,3391054998095 ,46,4919190373862 ,81,4879162100287
23.7081837 ,Left ,61,3371001704851 ,46,534998261019 ,81,4438758272856
23.7306347 ,Left ,61,318863794673 ,46,5594680129469 ,81,3766833136554
23.7453581 ,Left ,61,3085832341858 ,46,5777114918303 ,81,2791852020855
23.7681159 ,Left ,61,2528707410484 ,46,5687957166553 ,81,1398477406922
23.7905601 ,Left ,61,1757449078575 ,46,5691352430569 ,81,0319605081781
23.8131829 ,Left ,61,1306688510633 ,46,5597727397991 ,80,9470058556713
23.8280327 ,Left ,61,1263769225212 ,46,5455966051415 ,80,9156278450021
23.8582679 ,Left ,61,0968873002147 ,46,5322553389633 ,80,8948236113085
23.8657461 ,Left ,61,0968873002147 ,46,5322553389633 ,80,8948236113085
23.8806118 ,Left ,61,0300031949409 ,46,5250545033394 ,80,8830526541356
23.8955688 ,Left ,61,0473333322018 ,46,5345729540332 ,80,8546390495935
23.9106705 ,Left ,61,0777371901182 ,46,5379032032525 ,80,8328213293422
23.9331531 ,Left ,61,1032381479583 ,46,5521399779466 ,80,8158388380745
23.9481972 ,Left ,61,1238531075704 ,46,5741488085925 ,80,8055014473327
23.9704765 ,Left ,61,1340622463158 ,46,5783763805094 ,80,7880768708368
23.9930921 ,Left ,61,1130771867732 ,46,5815389488803 ,80,7565220514338
24.008234 ,Left ,61,0759639396482 ,46,5861442538534 ,80,718447730395
24.0310531 ,Left ,61,0916738606098 ,46,5917942337464 ,80,7261931564594
24.0537846 ,Left ,61,0927517017327 ,46,6157549353693 ,80,7790462540416
24.0683912 ,Left ,61,1341924915976 ,46,6674029500268 ,80,8116707948896
24.0906884 ,Left ,61,1935582293059 ,46,6892234164463 ,80,8361907786047
24.1133253 ,Left ,61,2843221737669 ,46,6394579079849 ,80,8741817503718
24.1283329 ,Left ,61,396256820352 ,46,5557319089869 ,80,9315191218036
24.1506903 ,Left ,61,4855001514304 ,46,4498852708822 ,80,9929824309411
24.1732945 ,Left ,61,5606194554118 ,46,3284689011584 ,81,0561712398466
24.1883818 ,Left ,61,6298862861263 ,46,1848087809511 ,81,1015294859177
24.2107281 ,Left ,61,7077685447786 ,46,0376417387469 ,81,115488133366
24.2331787 ,Left ,61,7661538841123 ,45,9112181352615 ,81,1044172201986
24.2483378 ,Left ,61,7954415038041 ,45,8288314715171 ,81,0840387220132
24.2704723 ,Left ,61,7677032188582 ,45,741126994655 ,81,0287208154035
24.2929842 ,Left ,61,7252384150379 ,45,6273914221268 ,80,982861415936
24.3079039 ,Left ,61,7080787469828 ,45,557407460887 ,80,9676839014352
24.3303439 ,Left ,61,6626413472916 ,45,5320607551675 ,80,9713472693185
24.3529952 ,Left ,61,6065866478451 ,45,526183499374 ,80,9836655305183
24.3678912 ,Left ,61,5992719888448 ,45,548482556688 ,80,9904589204083
24.3982684 ,Left ,61,6218298406053 ,45,5942212212297 ,81,0010733120099
24.4205547 ,Left ,61,623788951494 ,45,6377285722991 ,81,0182975746942
24.4361844 ,Left ,61,6097787393493 ,45,6825506272875 ,81,0490034771238
24.4511249 ,Left ,61,6034565456204 ,45,7261715696626 ,81,0824099756376
24.4728668 ,Left ,61,595587092301 ,45,7611937040446 ,81,114725843444
24.4878372 ,Left ,61,571567894843 ,45,7954182276129 ,81,1494912636486
24.5103359 ,Left ,61,5443214826663 ,45,8298499794363 ,81,1766269778829
24.5329203 ,Left ,61,5144527158793 ,45,8664407385588 ,81,1995106400864
24.5479917 ,Left ,61,4889306974099 ,45,8956911180448 ,81,2210932630598
24.5705904 ,Left ,61,4625909516927 ,45,93168258864 ,81,2443951126598
24.5930699 ,Left ,61,4404076766487 ,45,9706144174134 ,81,2579105367709
24.6157326 ,Left ,61,4455701151093 ,46,0123714397301 ,81,2595819049585
24.6305621 ,Left ,61,4469601952408 ,46,0506720901013 ,81,2561069336247
24.6532365 ,Left ,61,4402404536456 ,46,1060225880818 ,81,2562290665844
24.6682808 ,Left ,61,4558171760231 ,46,1750915115408 ,81,2496246942465
24.690717 ,Left ,61,4688174946063 ,46,2349855303575 ,81,2252690436139
24.7132374 ,Left ,61,4241631569928 ,46,2772873702635 ,81,2132657187023
24.7280775 ,Left ,61,4202290948239 ,46,3349349311313 ,81,2028022136276
24.7508892 ,Left ,61,4483753415617 ,46,3959829863363 ,81,1897379052908
24.7733924 ,Left ,61,4454014862592 ,46,4368729774769 ,81,1936117524497
24.7957246 ,Left ,61,4290475389691 ,46,4560459511989 ,81,1894519242921
24.8106784 ,Left ,61,3926018410345 ,46,4510867122378 ,81,1709387832779
24.840412 ,Left ,61,3971830676992 ,46,3999313503461 ,81,1617671030962
24.8630406 ,Left ,61,4054503465728 ,46,3595836874116 ,81,1841487296232
24.8782235 ,Left ,61,355328048838 ,46,3674636735799 ,81,1963150412282
24.8931139 ,Left ,61,3257950466793 ,46,4373797441164 ,81,1926328894002
24.9154429 ,Left ,61,3637588567921 ,46,5231549130695 ,81,1784092317082
24.9305667 ,Left ,61,4352131627005 ,46,5848902211697 ,81,1869793544196
24.9530595 ,Left ,61,4877828831147 ,46,5914055438674 ,81,2006984794329
24.9754534 ,Left ,61,4917204820564 ,46,5536953215186 ,81,2219217887639
24.990524 ,Left ,61,5232710497024 ,46,5356823660388 ,81,2371403939415
25.0136636 ,Left ,61,5312981267128 ,46,5044512354304 ,81,2542486762135
25.036224 ,Left ,61,560088118427 ,46,4492043517608 ,81,2750318760419
25.0511825 ,Left ,61,6043475668829 ,46,371584095157 ,81,3076164882757
25.0737696 ,Left ,61,6424769718076 ,46,2944984116097 ,81,3419359583612
25.0957483 ,Left ,61,6619290606535 ,46,2244684607988 ,81,3732656561994
25.1105156 ,Left ,61,6804153070356 ,46,1589325583179 ,81,4129410967534
25.1331813 ,Left ,61,7072173470014 ,46,1089032383486 ,81,4528450204757
25.155672 ,Left ,61,7298300976605 ,46,0619192529801 ,81,4991748770164
25.1707356 ,Left ,61,7654697538919 ,46,031639353659 ,81,5592901118504
25.1929183 ,Left ,61,7867095932461 ,45,9992584056697 ,81,6135709712089
25.2154546 ,Left ,61,7964360775655 ,45,9727639772012 ,81,6755576099519
25.2305443 ,Left ,61,8255241397708 ,45,9530877381316 ,81,7372591268413
25.253104 ,Left ,61,8433300012399 ,45,9351750184988 ,81,8037156451361
25.2756857 ,Left ,61,8619986748887 ,45,921215128998 ,81,8752989127745
25.2906271 ,Left ,61,8787324806104 ,45,9092652766195 ,81,9446140582876
25.313233 ,Left ,61,881565828751 ,45,889782524298 ,82,0109390894471
25.3280889 ,Left ,61,8861234590512 ,45,8773563727539 ,82,0744693992413
25.3432897 ,Left ,61,8677652861397 ,45,8735153815198 ,82,124467774772
25.3655136 ,Left ,61,8428317020075 ,45,8766462188572 ,82,1806603818186
25.3878053 ,Left ,61,8322008499322 ,45,8849553160094 ,82,2151720088383
25.4030646 ,Left ,61,8024060249283 ,45,8806112702585 ,82,2457425918399
25.4257231 ,Left ,61,7849931150026 ,45,8752686999888 ,82,2623604426449
25.4481465 ,Left ,61,7698286413931 ,45,8785892162891 ,82,2720089693167
25.4630499 ,Left ,61,7368688606877 ,45,8844963326896 ,82,2806415778728
25.4856448 ,Left ,61,7349696958314 ,45,9004633892691 ,82,283125367862
25.50819 ,Left ,61,7313302810077 ,45,9145440293781 ,82,280225692193
25.5229817 ,Left ,61,7321629679355 ,45,9175564003143 ,82,2803293275396
25.5455268 ,Left ,61,7374280091329 ,45,9271205332994 ,82,2679843898975
25.5681968 ,Left ,61,7411502831361 ,45,9424517829608 ,82,2506953888607
25.5829846 ,Left ,61,7560297605357 ,45,961874672451 ,82,2252839269481
25.6055129 ,Left ,61,7607658023336 ,45,965497427933 ,82,1985651182275
25.6356312 ,Left ,61,772698669653 ,45,970313962989 ,82,1655177901568
25.650584 ,Left ,61,764677114182 ,45,9804233938617 ,82,1266294273295
25.66541 ,Left ,61,7630698585499 ,45,9942064791206 ,82,0882511783522
25.6882778 ,Left ,61,7673177254417 ,46,0097799008915 ,82,0472358026005
25.7028367 ,Left ,61,7730636297083 ,46,0078649422907 ,82,0076337203944
25.7259929 ,Left ,61,7595072803658 ,45,9919644880716 ,81,9752536542109
25.7478824 ,Left ,61,7605667940852 ,45,984035995974 ,81,9455008594105
25.7630715 ,Left ,61,7588398005759 ,45,9838529217339 ,81,9183766677366
25.7856335 ,Left ,61,7504360961011 ,45,9839756243949 ,81,8936521521829
25.8081743 ,Left ,61,7580433287562 ,45,9756429224161 ,81,8695208758368
25.8229266 ,Left ,61,7609469745786 ,45,9558034376479 ,81,8482225503932
25.8453816 ,Left ,61,7587342494518 ,45,9315168844379 ,81,8228179524986
25.8829067 ,Left ,61,7596613088879 ,45,8859511579472 ,81,7642475342031
25.9054566 ,Left ,61,7701580441557 ,45,8555675382169 ,81,7332961932078
25.9430376 ,Left ,61,7810485864315 ,45,7882777565032 ,81,6551729078854
25.9654804 ,Left ,61,7857000887961 ,45,757239819468 ,81,61409499956
26.0029105 ,Left ,61,8132893796082 ,45,6875477306191 ,81,5587548091816
26.0258478 ,Left ,61,8180026869857 ,45,666022564812 ,81,5452827263509
26.0631633 ,Left ,61,8263939563546 ,45,6872165484784 ,81,544180485104
26.0852709 ,Left ,61,8205302473769 ,45,7104203961233 ,81,5499580013909
26.1228797 ,Left ,61,7967050373795 ,45,7747241480834 ,81,5548725864007
26.1455085 ,Left ,61,782050669828 ,45,8106473728108 ,81,5521679406836
26.1828836 ,Left ,61,7534593316091 ,45,8801842697452 ,81,5551507383467
26.2055605 ,Left ,61,7382468794554 ,45,9200390543044 ,81,5632789848721
26.2434916 ,Left ,61,7049182349243 ,46,0147170980913 ,81,5833890170464
26.2659123 ,Left ,61,6848167401619 ,46,0557217709179 ,81,6023698051329
26.3029987 ,Left ,61,669252307936 ,46,1649997508216 ,81,6346033559365
26.3258065 ,Left ,61,6485408441651 ,46,2091224660458 ,81,6499679585093
26.3631181 ,Left ,61,6101933342988 ,46,294761645559 ,81,6699163857679
26.3855387 ,Left ,61,5964511962148 ,46,3309962157898 ,81,6745772133446
26.4230071 ,Left ,61,5583033816292 ,46,3671582353998 ,81,6718084025078
26.4455775 ,Left ,61,5142138602766 ,46,3596478500345 ,81,6653754568653
26.4836662 ,Left ,61,4327551712057 ,46,2906534939665 ,81,6662528873065
26.5060223 ,Left ,61,3621623163583 ,46,2423288583203 ,81,6889019014027
26.5431036 ,Left ,61,2698243592132 ,46,2843461765748 ,81,664660215776
26.5654751 ,Left ,61,2525201563836 ,46,322689304564 ,81,6628582463494
26.6031526 ,Left ,61,2815008860148 ,46,3937576732598 ,81,7489967302974
26.6256828 ,Left ,61,3311436641963 ,46,4215843346688 ,81,7752806066917
26.6634 ,Left ,61,400553946627 ,46,364179502612 ,81,7613605994051
26.68565 ,Left ,61,4305102063761 ,46,3364653876495 ,81,7704170249513
26.7232896 ,Left ,61,4779263994001 ,46,3058845310581 ,81,7161394927967
26.7457373 ,Left ,61,5256957541087 ,46,2999899161043 ,81,6656695863779
26.7831928 ,Left ,61,5640121003742 ,46,3527442393654 ,81,6063979292985
26.8055223 ,Left ,61,5953559301069 ,46,3863192013126 ,81,58670724146
26.8434398 ,Left ,61,6020770972969 ,46,3493238321199 ,81,6031389833877
26.8653145 ,Left ,61,549125702652 ,46,3027518892977 ,81,6131283795233
26.9036819 ,Left ,61,5703541335768 ,46,2727807289643 ,81,6609207925893
26.925933 ,Left ,61,5881649398646 ,46,3166182900706 ,81,6221706323543
26.9632018 ,Left ,61,6510904273692 ,46,3721407615864 ,81,5793231206533
26.9856044 ,Left ,61,6385570424491 ,46,3807785555061 ,81,5759699282323
27.023154 ,Left ,61,5427204595398 ,46,2917287866455 ,81,6191455016227
27.0456713 ,Left ,61,5575758361389 ,46,2804001141308 ,81,6686240878037
27.0830551 ,Left ,61,5677645135711 ,46,4107897715231 ,81,600913849834
27.1055823 ,Left ,61,5388638194715 ,46,4464737996764 ,81,5605762919257
27.1433712 ,Left ,61,484033046875 ,46,4752787248539 ,81,5306807063981
27.1655744 ,Left ,61,4398621430692 ,46,4817677679982 ,81,5110356124041
27.1808245 ,Left ,61,4039788457978 ,46,4920201417325 ,81,4959066093843
27.1958706 ,Left ,61,3818085791673 ,46,5180691709277 ,81,4742308659544
27.2184039 ,Left ,61,3402513752865 ,46,5445526753717 ,81,4360197268776
27.2404636 ,Left ,61,2868240094837 ,46,5895541721619 ,81,3959682992666
27.2562024 ,Left ,61,2549864301585 ,46,6240498991739 ,81,3510004559947
27.2788118 ,Left ,61,2070348429281 ,46,6444010758296 ,81,3264153359722
27.3008253 ,Left ,61,1725854944839 ,46,6607993903384 ,81,309344410752
27.3155537 ,Left ,61,1311425935633 ,46,6641383403168 ,81,2949034304511
27.3380977 ,Left ,61,0886578631295 ,46,6684748369587 ,81,2832435026237
27.3604963 ,Left ,61,0662898839226 ,46,6563435067667 ,81,2584865665846
27.375438 ,Left ,61,0572565726079 ,46,6268713646974 ,81,2517813961546
27.4056115 ,Left ,61,0623068340771 ,46,5830824975266 ,81,2633192817474
27.4279967 ,Left ,61,0069962404053 ,46,5589272713865 ,81,2937040084426
27.4431141 ,Left ,60,9736029028653 ,46,5809374439627 ,81,3111883969031
27.4579777 ,Left ,60,9897840419616 ,46,6162285355681 ,81,3653669020951
27.4804676 ,Left ,61,0615866454075 ,46,6881772761974 ,81,3896755095801
27.5029938 ,Left ,61,1432028581326 ,46,7489234271024 ,81,370138739845
27.5179779 ,Left ,61,1614051220268 ,46,7186286765253 ,81,3483207503941
27.5404701 ,Left ,61,2702417359691 ,46,6531233979171 ,81,3382770228869
27.5630665 ,Left ,61,3324929770585 ,46,5699977082473 ,81,3374351128848
27.5782551 ,Left ,61,3431312420535 ,46,479099856256 ,81,3540332359535
27.6007129 ,Left ,61,3828791348623 ,46,3888507059948 ,81,361631499861
27.6231891 ,Left ,61,4447751623062 ,46,3142822020564 ,81,3718626351493
27.6382838 ,Left ,61,4782561896525 ,46,2450380947475 ,81,3976055010463
27.6606518 ,Left ,61,5057460136379 ,46,2055072601994 ,81,4232336041903
27.6831886 ,Left ,61,5356322035233 ,46,2031060020828 ,81,4253967071882
27.6980618 ,Left ,61,5696415083294 ,46,2138042676926 ,81,4270394619477
27.7204788 ,Left ,61,6046138582796 ,46,2310841085971 ,81,4343898881964
27.743214 ,Left ,61,6168086016704 ,46,2470654979654 ,81,4492930875048
27.7580954 ,Left ,61,6106751729117 ,46,279392657096 ,81,4656869934744
27.7806065 ,Left ,61,579179146212 ,46,319684016489 ,81,463056151067
27.8030163 ,Left ,61,5386053826687 ,46,3510506173618 ,81,4621221320454
27.8180527 ,Left ,61,5016309697652 ,46,3735765335532 ,81,4636126727009
27.8484986 ,Left ,61,4599538519975 ,46,3917319882387 ,81,46108943228
27.8711383 ,Left ,61,4372221818999 ,46,4126934852674 ,81,4299908195701
27.8860257 ,Left ,61,3840863120425 ,46,4496728491442 ,81,3841197857554
27.9008345 ,Left ,61,3166141980744 ,46,5066329476628 ,81,3347705640972
27.9231844 ,Left ,61,2786435921988 ,46,5783534408586 ,81,2729511891173
27.9378841 ,Left ,61,2232551692575 ,46,6460987662978 ,81,2035248299076
27.9684713 ,Left ,61,1587146608594 ,46,6956917847294 ,81,1309840764998
27.9905152 ,Left ,61,0951249359362 ,46,7402004072027 ,81,0761020653026
28.0057629 ,Left ,61,0422853258493 ,46,7799727205678 ,81,0338520884996
28.0207234 ,Left ,60,9977151462569 ,46,7739635090138 ,80,9815727039983
28.0431512 ,Left ,60,9409467661128 ,46,7313420663188 ,80,9117497303921
28.058098 ,Left ,60,8507334967656 ,46,6870352555011 ,80,858269598746
28.0804499 ,Left ,60,8091739461831 ,46,674636737827 ,80,8410650723733
28.1032055 ,Left ,60,7465623638955 ,46,6618546412157 ,80,892963271687
28.118392 ,Left ,60,795694009311 ,46,7027757547395 ,80,9888839591138
28.140451 ,Left ,60,8656580303127 ,46,7891721192963 ,81,1401839465499
28.163069 ,Left ,60,9509665972153 ,46,8194243662791 ,81,2683030357714
28.1781471 ,Left ,61,0569285912748 ,46,7721436213835 ,81,3469810528253
28.2004367 ,Left ,61,1639857707077 ,46,7058661500878 ,81,3872100519569
28.2231125 ,Left ,61,257588322365 ,46,6381144329158 ,81,4359072452767
28.2379994 ,Left ,61,3364945068424 ,46,5496490516261 ,81,4949188380956
28.2605151 ,Left ,61,4218016681436 ,46,429505170064 ,81,5599804449535
28.2829499 ,Left ,61,5272920117017 ,46,2912299592605 ,81,589793463869
28.3056979 ,Left ,61,5900553351602 ,46,1675254939888 ,81,5921764289032
28.3205156 ,Left ,61,6339732426661 ,46,0939406482715 ,81,576895442691
28.3431724 ,Left ,61,6331715898273 ,46,0168897274946 ,81,5487118350979
28.3731206 ,Left ,61,6456764565898 ,45,9105956745359 ,81,5409282627803
28.3878657 ,Left ,61,6760609158722 ,45,7980919343029 ,81,5214687460019
28.4254205 ,Left ,61,6569892929277 ,45,6407125952466 ,81,4523647343974
28.4404172 ,Left ,61,6160147531227 ,45,6118573145029 ,81,4195119890005
28.4630392 ,Left ,61,5931559895885 ,45,5874690366908 ,81,38323233368
28.4857354 ,Left ,61,6046090015046 ,45,5712944277642 ,81,3567778100794
28.5006882 ,Left ,61,6221564473672 ,45,5841263599953 ,81,3334869592685
28.5229694 ,Left ,61,6372127826593 ,45,6135871253886 ,81,3021624045472
28.5456028 ,Left ,61,6361828770609 ,45,6448975501143 ,81,2741528297996
28.5604485 ,Left ,61,6445045612804 ,45,6754780976649 ,81,2597800794297
28.5828576 ,Left ,61,6457665728767 ,45,7118016587377 ,81,2547476970481
28.6055852 ,Left ,61,6260599135001 ,45,7593829179224 ,81,2459790994157
28.620378 ,Left ,61,5899916848559 ,45,8088991503135 ,81,2306115871659
28.6431398 ,Left ,61,5559017356724 ,45,8603546550964 ,81,2126764290116
28.6657196 ,Left ,61,5184061520607 ,45,9057105394883 ,81,2159677847767
28.6807759 ,Left ,61,500744708976 ,45,9526788903268 ,81,2213186886994
28.7034465 ,Left ,61,4684301292643 ,45,9851960250117 ,81,2259938887357
28.725937 ,Left ,61,4264120391492 ,46,0259587281867 ,81,2254227921744
28.7408915 ,Left ,61,3881870267227 ,46,0675664176594 ,81,2039639260911
28.7632468 ,Left ,61,3666543741828 ,46,0995685788505 ,81,1808726096584
28.7855374 ,Left ,61,3802799857382 ,46,1373346614793 ,81,1535365598047
28.8006009 ,Left ,61,3809802944026 ,46,15398911876 ,81,125611940438
28.8230476 ,Left ,61,4089911473367 ,46,1732547870489 ,81,0962101122842
28.845684 ,Left ,61,4119050876085 ,46,169350537059 ,81,0637063845144
28.8604988 ,Left ,61,4089797028252 ,46,1466511152649 ,81,0290194385934
28.8830883 ,Left ,61,4286389327622 ,46,1414408100799 ,80,9851684196109
28.9053744 ,Left ,61,4073960594071 ,46,1276704830613 ,80,9413219260694
28.9203214 ,Left ,61,4043622602771 ,46,1253864431877 ,80,9074777632946
28.9430317 ,Left ,61,364315206668 ,46,0867253474226 ,80,8697768972973
28.9655555 ,Left ,61,2831358500327 ,46,0257259708455 ,80,8682697983736
28.980438 ,Left ,61,2000524587925 ,46,0353135825715 ,80,8441785451855
29.0030094 ,Left ,61,1665884241323 ,46,1091614761186 ,80,837372517103
29.025586 ,Left ,61,200713652088 ,46,2404818208979 ,80,8666970542832
29.0406472 ,Left ,61,2686171533516 ,46,3835140038857 ,80,8956494833325
29.0631685 ,Left ,61,3057234397579 ,46,4599054482124 ,80,9219366399187
29.0856769 ,Left ,61,3478636135786 ,46,4840407188831 ,80,9425513963069
29.1007127 ,Left ,61,2751189589836 ,46,4715344526106 ,80,9626619543964
29.1230369 ,Left ,61,2851977085179 ,46,4571112397383 ,80,963650339228
29.1454558 ,Left ,61,2614823121379 ,46,4100809751855 ,80,9731716041485
29.1603739 ,Left ,61,2690200166267 ,46,3396107170835 ,80,9735960335023
29.1828932 ,Left ,61,292377390606 ,46,2713713430034 ,80,9662824048079
29.2056619 ,Left ,61,3095916000662 ,46,1964113752701 ,80,9500637178536
29.2205639 ,Left ,61,3375965883594 ,46,1168531340913 ,80,9463388991832
29.2434038 ,Left ,61,3947376229846 ,46,0585431869882 ,80,9612719721659
29.2659931 ,Left ,61,4746307439216 ,46,0027143115617 ,80,9731540254378
29.2808498 ,Left ,61,5302356862746 ,45,9385179845379 ,80,9853529732829
29.3033355 ,Left ,61,5788982207513 ,45,8830929897087 ,81,0049710113658
29.325632 ,Left ,61,6167590820552 ,45,8620304419707 ,81,0346363995219
29.3407081 ,Left ,61,629810673873 ,45,863408633211 ,81,0666816943876
29.3632813 ,Left ,61,6451242678606 ,45,8778411715587 ,81,1119124607584
29.3855227 ,Left ,61,6894453611244 ,45,8988325745887 ,81,1623122552246
29.4005246 ,Left ,61,7165022553368 ,45,8959649611607 ,81,2194536715159
29.4232493 ,Left ,61,7448081438019 ,45,8801215871393 ,81,2783927263811
29.4453893 ,Left ,61,7459738386821 ,45,8772570081432 ,81,332074166786
29.4603268 ,Left ,61,7403287168568 ,45,8894485558085 ,81,3820405275299
29.4829796 ,Left ,61,7526696440971 ,45,9051180629971 ,81,4320042945731
29.5054009 ,Left ,61,7631058123988 ,45,9100189394093 ,81,4873018781097
29.5282504 ,Left ,61,7932978294617 ,45,912244071935 ,81,5323051353688
29.5430771 ,Left ,61,8068076962966 ,45,9119706703367 ,81,5682779831783
29.5653711 ,Left ,61,8049150442837 ,45,9111504581397 ,81,6083400064032
29.5878999 ,Left ,61,8057263657527 ,45,9184774164793 ,81,6442874751267
29.6029233 ,Left ,61,8218463984631 ,45,9292934384997 ,81,6744799446772
29.6255419 ,Left ,61,8363834796175 ,45,9315818424999 ,81,6956504130257
29.6480843 ,Left ,61,8310796534661 ,45,9208704240364 ,81,7109463982859
29.6632583 ,Left ,61,8193156330433 ,45,910529100162 ,81,7206988670121
29.685519 ,Left ,61,8151398707391 ,45,9039890064637 ,81,7250566450779
29.7082545 ,Left ,61,810368327056 ,45,8934401124165 ,81,7245629635128
29.7230088 ,Left ,61,8130924840513 ,45,8835709959718 ,81,7283570261459
29.7458199 ,Left ,61,8285775498869 ,45,8743107113795 ,81,7223174921081
29.7682879 ,Left ,61,8287110361343 ,45,8573558647034 ,81,7270694336915
29.7830615 ,Left ,61,8357788880592 ,45,8544179153171 ,81,733751417525
29.8055972 ,Left ,61,8490705279645 ,45,8462011729013 ,81,7364847976839
29.8282371 ,Left ,61,8584549231034 ,45,8349526914849 ,81,7411397005757
29.8431543 ,Left ,61,8590215137828 ,45,8216028283539 ,81,7434992855529
29.8657042 ,Left ,61,8658483774779 ,45,8171892082422 ,81,7461458226092
29.8883335 ,Left ,61,8851857621746 ,45,8132938633813 ,81,7468678017922
29.9031783 ,Left ,61,8972646223634 ,45,8049871690696 ,81,7555851788458
29.9258189 ,Left ,61,9108807014323 ,45,7884926319398 ,81,7603752861678
29.9484004 ,Left ,61,9332526339108 ,45,7639971650434 ,81,7581973690655
29.9630845 ,Left ,61,9412879725712 ,45,7380574488346 ,81,7573228884501
29.9856717 ,Left ,61,9430171013328 ,45,7073114499209 ,81,7511557417418
30.0082989 ,Left ,61,9447791021036 ,45,6741279658982 ,81,7362570889889
30.0306263 ,Left ,61,9390819969367 ,45,6434290698871 ,81,715369599049
30.0528938 ,Left ,61,9293219199213 ,45,6197282209861 ,81,6806796594649
30.0831304 ,Left ,61,8986982076792 ,45,5771291715901 ,81,5815130221051
30.1053925 ,Left ,61,8809224324243 ,45,5461731921916 ,81,519520311068
30.1280382 ,Left ,61,8688369082426 ,45,5134383845956 ,81,4572376410872
30.1429422 ,Left ,61,8479729107094 ,45,4930507420452 ,81,4043275042091
30.1654733 ,Left ,61,8190041747084 ,45,4794683062246 ,81,3635646271726
30.1880108 ,Left ,61,8048310762536 ,45,4754430849344 ,81,3388276096997
30.2030084 ,Left ,61,7990002637491 ,45,4813556748937 ,81,3245589714529
30.2257017 ,Left ,61,7843157239713 ,45,5054328958722 ,81,3184584005094
30.2482189 ,Left ,61,7701011822075 ,45,5422576135085 ,81,3144110519374
30.2630012 ,Left ,61,7604400385533 ,45,5932975301318 ,81,3161223823335
30.2857282 ,Left ,61,7519160364093 ,45,6585938585387 ,81,3161236227956
30.3082901 ,Left ,61,7319907912467 ,45,7200269165114 ,81,3219076587482
30.3232189 ,Left ,61,7174994463822 ,45,7787463979188 ,81,3304647074002
30.3529071 ,Left ,61,7172192112428 ,45,8299596128652 ,81,3331555606146
30.3756815 ,Left ,61,6535230782847 ,45,861350414618 ,81,3539596610567
30.3904907 ,Left ,61,6264296485969 ,45,9121317690062 ,81,3868805228161
30.4054839 ,Left ,61,6211397778738 ,45,9792642548256 ,81,4196039732478
30.4281161 ,Left ,61,6211961923697 ,46,0390255239912 ,81,4529712289277
30.4505495 ,Left ,61,5942895670199 ,46,0786101635007 ,81,4877986062937
30.4656799 ,Left ,61,5968888382308 ,46,1198861595679 ,81,5100985825754
30.488171 ,Left ,61,5945325957767 ,46,1271316749557 ,81,5152926509991
30.5105152 ,Left ,61,5563391808838 ,46,1053792210022 ,81,5079711798104
30.5254714 ,Left ,61,4933251170231 ,46,1073858106255 ,81,490048106027
30.54816 ,Left ,61,4377158175954 ,46,1540139107863 ,81,4760838535748
30.5781191 ,Left ,61,372701166008 ,46,202128608545 ,81,4965517916743
30.5930651 ,Left ,61,3461018151991 ,46,2566516508644 ,81,507481727542
30.6156103 ,Left ,61,3283434090487 ,46,3201591215876 ,81,5322119244735
30.6454857 ,Left ,61,3178976554573 ,46,4292525492087 ,81,6151348962086
30.6682501 ,Left ,61,3513133785285 ,46,4359579424454 ,81,6530912684311
30.6906419 ,Left ,61,3256969855994 ,46,3922016029587 ,81,6852258324535
30.7054076 ,Left ,61,3214500953725 ,46,3494740949805 ,81,6825153833186
30.7279745 ,Left ,61,3173308470569 ,46,3188150528062 ,81,6571543897395
30.7502443 ,Left ,61,324274367372 ,46,2805643044192 ,81,6203142600776
30.7654444 ,Left ,61,3463059896257 ,46,2300436986218 ,81,5871001051892
30.7956558 ,Left ,61,4102378034924 ,46,1904005768225 ,81,536643597715
30.8182146 ,Left ,61,4752784526914 ,46,1391495640906 ,81,4925138804581
30.8336583 ,Left ,61,5194904097723 ,46,0569796632907 ,81,4722072719229
30.8557782 ,Left ,61,5555149427976 ,45,9832380577197 ,81,4659734144756
30.8705915 ,Left ,61,5876412209578 ,45,929538449285 ,81,4534693324041
30.8857668 ,Left ,61,6038376359494 ,45,9056126929844 ,81,4379055920973
30.908235 ,Left ,61,6184192928896 ,45,8939165649091 ,81,4213144535111
30.9307533 ,Left ,61,6559638597485 ,45,8739212059397 ,81,4028096445969
30.9455309 ,Left ,61,6983214601876 ,45,8436345818083 ,81,3768196192483
30.9682606 ,Left ,61,7368266904023 ,45,8129981500392 ,81,3438802979752
30.9907756 ,Left ,61,7510023579788 ,45,7814878281599 ,81,3143087627081
31.0054398 ,Left ,61,7683544395483 ,45,7494605761821 ,81,2929042077152
31.0279559 ,Left ,61,8096687846838 ,45,7253990807604 ,81,2693692243545
31.0581596 ,Left ,61,8566524152582 ,45,7131196584796 ,81,2449131484422
31.0657157 ,Left ,61,8739107699691 ,45,7107979461664 ,81,2287577992739
31.0888085 ,Left ,61,8633275317091 ,45,7291343827988 ,81,2156612398838
31.1038611 ,Left ,61,8771060673008 ,45,7637248017278 ,81,2003794551448
31.1183881 ,Left ,61,8804231977998 ,45,7836649320533 ,81,1938028396285
31.140603 ,Left ,61,8608333363781 ,45,7969265786865 ,81,1952037876027
31.1631053 ,Left ,61,8307317992213 ,45,8201797100319 ,81,1933730320461
31.1782158 ,Left ,61,7763278041166 ,45,8470439961415 ,81,1970766214773
31.2005604 ,Left ,61,7290039818532 ,45,8793838656087 ,81,1975059553635
31.2231311 ,Left ,61,6930251803592 ,45,9134373390004 ,81,1987256807591
31.2382307 ,Left ,61,6826635222897 ,45,9587111095368 ,81,1998270386939
31.2604526 ,Left ,61,6682561095187 ,45,9912606886414 ,81,191280589092
31.2831338 ,Left ,61,5897757749859 ,46,0078704507579 ,81,1936997107237
31.2982395 ,Left ,61,5885382753952 ,46,0396534171657 ,81,1810236496667
31.3282131 ,Left ,61,5363303820359 ,46,0632468560715 ,81,1727653898904
31.3508299 ,Left ,61,5205927070843 ,46,094148582895 ,81,1661730251402
31.3660202 ,Left ,61,4941922793909 ,46,1202761985789 ,81,1526579880129
31.3809713 ,Left ,61,4882483537763 ,46,1311152047725 ,81,1556964781826
31.4032065 ,Left ,61,4875088035938 ,46,1281033589462 ,81,1554995099306
31.4182541 ,Left ,61,4866745382286 ,46,1070946891624 ,81,1457789532664
31.4409201 ,Left ,61,4772744486608 ,46,0780705733898 ,81,1270041812728
31.4634401 ,Left ,61,4563997362571 ,46,0360225121174 ,81,1093771298712
31.47859 ,Left ,61,4611219130073 ,45,9877639796927 ,81,0892674005475
31.5008757 ,Left ,61,4557474732756 ,45,9346048895641 ,81,07211782528
31.5234949 ,Left ,61,4538277900999 ,45,8645139118 ,81,0576642028751
31.5383983 ,Left ,61,4624593292894 ,45,8007992979044 ,81,0443473797398
31.560645 ,Left ,61,4404555848401 ,45,7673170439194 ,81,0207638620132
31.5830684 ,Left ,61,4045638595746 ,45,7419643165384 ,80,982827112465
31.6058253 ,Left ,61,4015115163346 ,45,7374928039109 ,81,0001883665266
31.6280661 ,Left ,61,4537482334157 ,45,8024849960444 ,81,0372952642975
31.6583481 ,Left ,61,4899299697152 ,45,9735281245542 ,80,9991082092939
31.6808199 ,Left ,61,5374518735945 ,45,9901651797504 ,81,01201099127
31.7033522 ,Left ,61,5360193404379 ,46,0025429225604 ,81,0457222039765
31.718361 ,Left ,61,4865995486751 ,45,99793580868 ,81,0670728260242
31.7405724 ,Left ,61,4352221221272 ,45,9903373376805 ,81,0942824778923
31.7707669 ,Left ,61,3780137232785 ,45,986537507193 ,81,1312554018391
31.7857749 ,Left ,61,3686772433983 ,46,0257872808287 ,81,1626180684023
31.8455038 ,Left ,61,4041035141941 ,46,2079199008098 ,81,160012825414
31.8604776 ,Left ,61,4174355865045 ,46,1817231393843 ,81,180658659286
31.8981821 ,Left ,61,456894868253 ,46,1048425471804 ,81,1841094897564
31.920786 ,Left ,61,4671959605184 ,46,0667322467795 ,81,1687277348284
31.9581363 ,Left ,61,5314759716469 ,45,9779695203549 ,81,1686808813147
31.980811 ,Left ,61,5747201163757 ,45,9504217856659 ,81,1707211666607
32.0257733 ,Left ,61,6173359934277 ,45,9367288746536 ,81,1601140753928
32.1081834 ,Left ,61,5307300183349 ,46,060279859994 ,81,1961962075176
32.1679643 ,Left ,61,3047059164653 ,46,2141488401706 ,81,2274577258451
32.1985153 ,Left ,61,2167991122157 ,46,2807267878043 ,81,2563567032527
32.2209367 ,Left ,61,1678610025292 ,46,2835829204054 ,81,271090009819
32.2584124 ,Left ,61,0151892283594 ,46,194912724725 ,81,2919738402917
32.280744 ,Left ,60,9660598300725 ,46,1753582742379 ,81,3310626980614
32.3181842 ,Left ,60,969113278669 ,46,2293077532661 ,81,4622750707563
32.3404521 ,Left ,61,0054965774348 ,46,269969363919 ,81,5073957482761
32.3783188 ,Left ,61,1020468943409 ,46,2578780809834 ,81,5381636329047
32.4087603 ,Left ,61,1710523902552 ,46,2441129128569 ,81,5064742005731
32.4681052 ,Left ,61,3483756872874 ,46,0664435068623 ,81,4166438453721
32.4984013 ,Left ,61,4636528846405 ,45,9648758883321 ,81,3779357325252
32.5204019 ,Left ,61,4850557540832 ,45,9391557229197 ,81,3620427877934
32.5583482 ,Left ,61,5637983183764 ,45,9257730920751 ,81,3569913585076
32.5806232 ,Left ,61,581016708301 ,45,941129556955 ,81,3680070190458
32.6258169 ,Left ,61,5301831324884 ,45,9992661185935 ,81,3865192956836
32.648074 ,Left ,61,5113850213795 ,46,0402641754927 ,81,3915569189544
32.6782888 ,Left ,61,4622109239172 ,46,0937454262567 ,81,3940403366601
32.7006813 ,Left ,61,4320232110491 ,46,1247548784789 ,81,3906656536427
32.7456129 ,Left ,61,4106381304736 ,46,1876075463585 ,81,3772385456749
32.7680887 ,Left ,61,4060019067408 ,46,2050768536384 ,81,3780344733225
32.8208981 ,Left ,61,371148952389 ,46,230954561433 ,81,3557965431434
32.8581687 ,Left ,61,339596432774 ,46,2833861934342 ,81,2951535857155
32.8806619 ,Left ,61,3161722006999 ,46,3204734200486 ,81,2680003627846
32.9181687 ,Left ,61,2498091407004 ,46,450538339067 ,81,1828746005179
32.9333448 ,Left ,61,218855947012 ,46,5159971388369 ,81,1474287290233
32.9557569 ,Left ,61,1842246289566 ,46,5676852345284 ,81,1151491430805
32.9784654 ,Left ,61,1279018343878 ,46,6063475659665 ,81,0786578852625
33.0007001 ,Left ,61,0714019702463 ,46,6401661392541 ,81,0400682519275
33.0233742 ,Left ,61,0524878217415 ,46,6645736864137 ,80,9943353894887
33.0383248 ,Left ,61,0105560919249 ,46,6508377855741 ,80,9474265804794
33.053203 ,Left ,60,9343812812216 ,46,616881671835 ,80,917818125531
33.0757097 ,Left ,60,8610343379284 ,46,582876903295 ,80,8941441354297
33.0906934 ,Left ,60,7996871272618 ,46,5712063561834 ,80,8738630842776
33.1132346 ,Left ,60,7636595515573 ,46,5502046758736 ,80,8453342623005
33.1358665 ,Left ,60,7594826018348 ,46,5582203191602 ,80,8890601800519
33.1509092 ,Left ,60,7976979760591 ,46,604629306951 ,80,9413998784865
33.173413 ,Left ,60,8103266331946 ,46,6465229403385 ,80,9679112037987
33.1959522 ,Left ,60,8630537518871 ,46,6672993003414 ,81,0073203627871
33.2185361 ,Left ,60,9454558977097 ,46,6412076150238 ,81,0268300493746
33.23338 ,Left ,61,0248059192778 ,46,6010144256273 ,81,0342102037956
33.2557511 ,Left ,61,1201977157579 ,46,544090145419 ,81,0370548779712
33.278175 ,Left ,61,1751698495357 ,46,4629059712051 ,81,0487815308046
33.2929177 ,Left ,61,2351120755032 ,46,3512073299993 ,81,0773525098359
33.323086 ,Left ,61,3127811933747 ,46,2386058249623 ,81,1288004127604
33.345748 ,Left ,61,3754928382674 ,46,1447823136567 ,81,1703454876594
33.3606844 ,Left ,61,4452291057668 ,46,0606780930702 ,81,1935292277899
33.3756047 ,Left ,61,5315140299727 ,45,9933999789983 ,81,2123258421694
33.3982974 ,Left ,61,5546239652064 ,45,9044173098216 ,81,2453033033638
33.4130081 ,Left ,61,6106556819827 ,45,8201565027284 ,81,271475849962
33.4356596 ,Left ,61,6787838071945 ,45,7630779337599 ,81,2928186011827
33.4582853 ,Left ,61,6964245526803 ,45,7517756987248 ,81,3066245435485
33.4729775 ,Left ,61,7153250726704 ,45,7600151998882 ,81,3104859583604
33.4957644 ,Left ,61,7489307541522 ,45,7815609361262 ,81,3183156479778
33.5180525 ,Left ,61,7983128911659 ,45,8174691827944 ,81,3289109877688
33.5331563 ,Left ,61,8239893146091 ,45,8644000474531 ,81,3229136325655
33.5554337 ,Left ,61,8164072899422 ,45,9091313892277 ,81,3148332749326
33.5781921 ,Left ,61,7750558565192 ,45,9599527147249 ,81,3102728583225
33.5931509 ,Left ,61,7488914226735 ,46,0164522947156 ,81,3014523367642
33.6157208 ,Left ,61,7243941456329 ,46,0723688310846 ,81,2892989828737
33.6383614 ,Left ,61,6572694756592 ,46,1272818330439 ,81,2760682959302
33.6529763 ,Left ,61,5824655654532 ,46,2022472291909 ,81,2569294632092
33.675679 ,Left ,61,5142970628482 ,46,3018098383915 ,81,2212642656874
33.6981783 ,Left ,61,4585078795545 ,46,3717652283112 ,81,188721322939
33.7132304 ,Left ,61,4130750174314 ,46,3635631171266 ,81,1788109521247
33.7353846 ,Left ,61,3923016636114 ,46,3471885781153 ,81,1884155803864
33.7582135 ,Left ,61,3722387733335 ,46,3681061971204 ,81,1961117408719
33.7737601 ,Left ,61,3495662543846 ,46,448772694252 ,81,2141134235093
33.796014 ,Left ,61,3759635186848 ,46,5645975728392 ,81,2369965888335
33.8185123 ,Left ,61,4128903874488 ,46,6469226172678 ,81,2644537594817
33.8332704 ,Left ,61,4443353367681 ,46,6768292594265 ,81,2829988541462
33.8559372 ,Left ,61,4793033663943 ,46,6709211353608 ,81,2914148267399
33.8785268 ,Left ,61,4781679165637 ,46,6653641161839 ,81,2903367176835
33.8933644 ,Left ,61,4914397571465 ,46,6425939630053 ,81,2833868178257
33.9158416 ,Left ,61,5041774755023 ,46,607625011278 ,81,2812541292765
33.9384204 ,Left ,61,5234760989499 ,46,5459716973081 ,81,2870236023744
33.952971 ,Left ,61,5498222445152 ,46,4673578305322 ,81,2950166746675
33.9829805 ,Left ,61,5837996773468 ,46,3971376579137 ,81,3079626965434
34.0054611 ,Left ,61,6381316748373 ,46,3349624567561 ,81,3116180520679
34.0205275 ,Left ,61,6381992809234 ,46,2655839048361 ,81,3262687426236
34.0357678 ,Left ,61,6903006788396 ,46,2140429306921 ,81,3483897615138
34.058273 ,Left ,61,7423072450778 ,46,1648422320319 ,81,3870055713675
34.0731499 ,Left ,61,7725319236948 ,46,1356126737975 ,81,4250008795211
34.0957572 ,Left ,61,7909035690286 ,46,1148160469711 ,81,4616775333745
34.1186032 ,Left ,61,7899285698297 ,46,1028660672162 ,81,4973664601008
34.1334595 ,Left ,61,7952901967298 ,46,0946819241478 ,81,5337599953384
34.1560476 ,Left ,61,8075393379249 ,46,0863123630393 ,81,5679028595795
34.1785608 ,Left ,61,8203064392615 ,46,0860156434694 ,81,6020207642274
34.1934803 ,Left ,61,8128132414164 ,46,0753077461092 ,81,6290995037401
34.2158131 ,Left ,61,8003693008586 ,46,0581773530773 ,81,6586104069976
34.2383473 ,Left ,61,8098631492805 ,46,048806215865 ,81,6903346178288
34.2608386 ,Left ,61,8040341658692 ,46,0400290244541 ,81,7228511509941
34.2760119 ,Left ,61,7900102735444 ,46,0352029721975 ,81,7514546878738
34.2983774 ,Left ,61,7962252922818 ,46,0444635895477 ,81,7749428459787
34.3210355 ,Left ,61,7837935049338 ,46,0539821587421 ,81,7939830422031
34.3360401 ,Left ,61,7791303202269 ,46,0673625537229 ,81,8077284198027
34.3584776 ,Left ,61,7683614295165 ,46,0774143287735 ,81,8201523356134
34.3807466 ,Left ,61,7589544698581 ,46,0899731350364 ,81,8353769357856
34.3957753 ,Left ,61,7517009993765 ,46,096305879752 ,81,8500423128761
34.4187954 ,Left ,61,7395072165763 ,46,0993514945219 ,81,8574333385811
34.4404701 ,Left ,61,7296566164733 ,46,1048650359942 ,81,8615757986083
34.4554965 ,Left ,61,7173877853376 ,46,1151336510891 ,81,8622379044126
34.478202 ,Left ,61,7182811049907 ,46,1278392109271 ,81,8644182342482
34.5006722 ,Left ,61,7187083198945 ,46,1283191238197 ,81,8637459152946
34.5156801 ,Left ,61,7256465288199 ,46,1346545416298 ,81,865242052066
34.5382244 ,Left ,61,7269169405241 ,46,1443693378308 ,81,8613299622175
34.5604504 ,Left ,61,714335152933 ,46,1500465769104 ,81,8596501071133
34.5755123 ,Left ,61,7099269199316 ,46,1655515519944 ,81,8589628879344
34.5980235 ,Left ,61,7149416161858 ,46,1781708753181 ,81,8531227189888
34.6214326 ,Left ,61,7163994161638 ,46,1765646139725 ,81,8529219548507
34.6362924 ,Left ,61,7077251923973 ,46,1789891902058 ,81,85281270996
34.6588073 ,Left ,61,6947980304115 ,46,1852308983337 ,81,8485981189696
34.681134 ,Left ,61,6928037354882 ,46,1904556257355 ,81,8444556494353
34.6958832 ,Left ,61,6928037354882 ,46,1904556257355 ,81,8444556494353
34.7183062 ,Left ,61,6928037354882 ,46,1904556257355 ,81,8444556494353
34.7408132 ,Left ,61,7092291758078 ,46,1866999870966 ,81,8394967208828
34.7557743 ,Left ,61,7168207571231 ,46,1746248878407 ,81,835595853518
34.7781205 ,Left ,61,7364871166595 ,46,163618090394 ,81,827334930545
34.8008059 ,Left ,61,7605087865483 ,46,149852503003 ,81,8199760745304
34.8156247 ,Left ,61,783889658356 ,46,132087194937 ,81,8077371689632
34.8383197 ,Left ,61,8059023214669 ,46,113887421642 ,81,7941898006581
34.8605214 ,Left ,61,8219762201007 ,46,094499662032 ,81,7728904019873
34.8757076 ,Left ,61,8405520839394 ,46,0734844218531 ,81,7533545732824
34.8985769 ,Left ,61,8534364674008 ,46,0613676565516 ,81,7353735288403
34.9204218 ,Left ,61,8527566660743 ,46,0528667119971 ,81,7202622846423
34.9353909 ,Left ,61,8582812662522 ,46,0487801595352 ,81,703277827645
34.958802 ,Left ,61,8675678020128 ,46,0413853517632 ,81,6877947645245
34.9812341 ,Left ,61,8650135328684 ,46,0340043543188 ,81,6735501552546
34.9961539 ,Left ,61,8557429699791 ,46,0289494971378 ,81,6551781910352
35.0183796 ,Left ,61,8403038621896 ,46,0225689759711 ,81,6370080020615
35.0406963 ,Left ,61,8232566495597 ,46,0090635732492 ,81,6217074434947
35.0556328 ,Left ,61,8100843795397 ,45,9912468525598 ,81,6111888814278
35.0781527 ,Left ,61,7960694936923 ,45,9744954511968 ,81,5955736618874
35.1005185 ,Left ,61,7772813130725 ,45,9599919164527 ,81,579748668954
35.115453 ,Left ,61,7576004211919 ,45,9562398299986 ,81,5608374881447
35.1380223 ,Left ,61,744148429078 ,45,9614309700458 ,81,5422607491012
35.1607545 ,Left ,61,7327418238564 ,45,9721619855485 ,81,5265975233661
35.1832141 ,Left ,61,7189633587422 ,45,9977439605997 ,81,5166931135982
35.1982922 ,Left ,61,7022731583404 ,46,0290165552906 ,81,5158437995865
35.2209745 ,Left ,61,692245405486 ,46,0711738565871 ,81,5265593655223
35.2506837 ,Left ,61,6829871770676 ,46,1164139499523 ,81,5453216043474
35.2654988 ,Left ,61,6705923702198 ,46,1575166964148 ,81,5790045714611
35.3032642 ,Left ,61,6645494306231 ,46,2324125012754 ,81,6811491858814
35.3183874 ,Left ,61,6699475365447 ,46,2564074107844 ,81,7378447128728
35.3407498 ,Left ,61,6652943257016 ,46,2639863609363 ,81,7859258918534
35.3633901 ,Left ,61,6580684389636 ,46,2631127736249 ,81,8151182577602
35.3784016 ,Left ,61,6543609484135 ,46,2633057807129 ,81,8153466612012
35.4007376 ,Left ,61,6581457443037 ,46,2703437561753 ,81,8005369076108
35.4233263 ,Left ,61,6693712780013 ,46,2776736675132 ,81,7749723120734
35.4382138 ,Left ,61,668756400682 ,46,2808834199511 ,81,7555454885345
35.4607463 ,Left ,61,6755203697264 ,46,299567799203 ,81,7422456305299
35.4832893 ,Left ,61,701631884599 ,46,3230942225101 ,81,7272466666541
35.4982397 ,Left ,61,7012872372801 ,46,3191678536523 ,81,7066232364619
35.5208104 ,Left ,61,6756523554936 ,46,2977746258263 ,81,6915520872812
35.5433837 ,Left ,61,6791139827763 ,46,2885155322494 ,81,6788841873907
35.5583234 ,Left ,61,6605799087235 ,46,2928291674822 ,81,6695131163585
35.5809302 ,Left ,61,6392294683488 ,46,313113944979 ,81,6608891967404
35.6032958 ,Left ,61,6347500314875 ,46,3306209431121 ,81,6617708502251
35.6180265 ,Left ,61,628340438199 ,46,3482031822019 ,81,6666855499938
35.6404192 ,Left ,61,6397602073766 ,46,3605198226325 ,81,6665076322802
35.6631721 ,Left ,61,6289143273928 ,46,3594069050727 ,81,6649100914078
35.6780034 ,Left ,61,6162909143857 ,46,3552923252155 ,81,6611877539522
35.700552 ,Left ,61,5990857050676 ,46,3416956689982 ,81,6458355024166
35.7230612 ,Left ,61,5765980191685 ,46,3160241333937 ,81,6337731848291
35.7382517 ,Left ,61,5511802643672 ,46,2955058852187 ,81,6157569079216
35.7606202 ,Left ,61,5140610332987 ,46,2804804418724 ,81,6059762802175
35.7830996 ,Left ,61,4772812576438 ,46,2475892906213 ,81,629630735352
35.7981747 ,Left ,61,4480022624378 ,46,2210935912784 ,81,6312750075831
35.8206615 ,Left ,61,4494608885271 ,46,2231045283012 ,81,6444050912681
35.8429613 ,Left ,61,4427428502721 ,46,2708064099341 ,81,6343088407075
35.8579102 ,Left ,61,4610994762594 ,46,3171337414236 ,81,6294809863524
35.8803986 ,Left ,61,4965485108375 ,46,3668873693938 ,81,6562372674176
35.903132 ,Left ,61,5119311887427 ,46,401043368904 ,81,6842636481624
35.9182577 ,Left ,61,5090643366994 ,46,4225844628063 ,81,6997608216078
35.9403683 ,Left ,61,52938674059 ,46,4422148209965 ,81,6938553337909
35.9630726 ,Left ,61,5248418782577 ,46,4255733273885 ,81,6888564079779
35.9782116 ,Left ,61,5335778880919 ,46,3971617513927 ,81,6987318948249
36.0005052 ,Left ,61,5480056853022 ,46,3792450745898 ,81,7190182131487
36.0231982 ,Left ,61,5662802575081 ,46,3677596149738 ,81,7507986340629
36.0381331 ,Left ,61,6010391317772 ,46,3621844777869 ,81,7797538408906
36.0604894 ,Left ,61,6372447397363 ,46,3727994310313 ,81,8086648576338
36.0905047 ,Left ,61,7167992753438 ,46,3692008349474 ,81,8368933367761
36.1137614 ,Left ,61,7169185278573 ,46,3114221354441 ,81,8494178228608
36.1285924 ,Left ,61,7107329330977 ,46,270921006153 ,81,8359091141059
36.1436469 ,Left ,61,7108155359926 ,46,2768017223343 ,81,8014986910709
36.166115 ,Left ,61,6908064483139 ,46,3120787126835 ,81,7649231640572
36.1811303 ,Left ,61,6617883837924 ,46,3502335627342 ,81,7257671048015
36.2034143 ,Left ,61,6513253520042 ,46,3849889709554 ,81,684979275695
36.2258108 ,Left ,61,6519425158617 ,46,4095622085654 ,81,6574513182212
36.2404959 ,Left ,61,6420164297931 ,46,4334909122941 ,81,64345244179
36.2631728 ,Left ,61,558857172395 ,46,4564703907381 ,81,6094336209092
36.2856727 ,Left ,61,5710324163937 ,46,4871608943068 ,81,5852816053894
36.3006222 ,Left ,61,5888139333587 ,46,4549073317539 ,81,6087428684
36.323168 ,Left ,61,6560820520797 ,46,4738135667691 ,81,6252633794331
36.3457578 ,Left ,61,6532164462815 ,46,5123313037979 ,81,5796072145865
36.360701 ,Left ,61,6318908028276 ,46,5351365884773 ,81,5386456690411
36.3833706 ,Left ,61,612962729192 ,46,5536230795249 ,81,5239657953817
36.4055542 ,Left ,61,6132112697151 ,46,5740044866317 ,81,5250280030889
36.4207217 ,Left ,61,6036726621644 ,46,583990309288 ,81,539247723343
36.4432367 ,Left ,61,6110783701011 ,46,5586935639176 ,81,5687544873934
36.465618 ,Left ,61,5916824558294 ,46,5292098866819 ,81,6309871056688
36.4805992 ,Left ,61,5916450382738 ,46,5760364989317 ,81,6609880441708
36.5032732 ,Left ,61,5809771023768 ,46,6559545500229 ,81,65443211722
36.5256507 ,Left ,61,6163165510788 ,46,7051253391024 ,81,6262108829173
36.5407594 ,Left ,61,6440414946711 ,46,7062252845051 ,81,6052421620066
36.5632823 ,Left ,61,6155181472485 ,46,6787385726291 ,81,5952142615493
36.5861936 ,Left ,61,5841079713846 ,46,6365458422463 ,81,5932681994939
36.6013369 ,Left ,61,6030855023245 ,46,5956512894912 ,81,5819515695851
36.6231922 ,Left ,61,6057095192872 ,46,545611055151 ,81,5750269601603
36.6456768 ,Left ,61,6024686729361 ,46,5018971731655 ,81,576763124254
36.6605606 ,Left ,61,5985728694098 ,46,4703861158652 ,81,5873904191359
36.683047 ,Left ,61,6064707226864 ,46,4568382930031 ,81,5970805236126
36.7056751 ,Left ,61,6007753068813 ,46,4529527296045 ,81,6061430430215
36.720586 ,Left ,61,5931584033359 ,46,4700610725178 ,81,6019493308601
36.7431444 ,Left ,61,5255626279481 ,46,4704248924399 ,81,6210679243637
36.7658001 ,Left ,61,5210244205059 ,46,5440095150581 ,81,6388397926372
36.780478 ,Left ,61,4361152504789 ,46,614309489717 ,81,6204703056507
36.8033437 ,Left ,61,4283891426228 ,46,6802225234814 ,81,5987416681567
36.8187631 ,Left ,61,4366504296389 ,46,7267612165874 ,81,5892596727036
36.8336576 ,Left ,61,4287739232287 ,46,7493580444231 ,81,5667320011171
36.8560893 ,Left ,61,4469176779139 ,46,7506465026141 ,81,5343303171652
36.8782783 ,Left ,61,4610094105168 ,46,7348542526815 ,81,5071736918313
36.8934133 ,Left ,61,4380920502945 ,46,6856126441174 ,81,4954734532381
36.9153121 ,Left ,61,4699884275851 ,46,6555168500162 ,81,4761775751323
36.9382998 ,Left ,61,4960482735919 ,46,6287130646223 ,81,4671063707314
36.9531187 ,Left ,61,5325956238534 ,46,5898619283355 ,81,4520774666637
36.9753904 ,Left ,61,5656428725974 ,46,5399165557777 ,81,4485928050762
36.9979685 ,Left ,61,6138713307893 ,46,49051231102 ,81,449091034723
37.0130954 ,Left ,61,6616518606354 ,46,4563959833043 ,81,4489175397322
37.035493 ,Left ,61,6909442824198 ,46,4284825182214 ,81,4408876218436
37.0580893 ,Left ,61,6885287021765 ,46,4056066071017 ,81,4429936141648
37.0731883 ,Left ,61,6811195857684 ,46,3997168293352 ,81,4467121472055
37.0956039 ,Left ,61,7005434570623 ,46,3975502880024 ,81,4516018733927
37.1181401 ,Left ,61,7191356013277 ,46,3913109264561 ,81,4594527723726
37.1331925 ,Left ,61,7276043849153 ,46,3889603565893 ,81,4673852941176
37.1562475 ,Left ,61,7161086162945 ,46,3959002396081 ,81,479487607825
37.1856621 ,Left ,61,7150675832788 ,46,4162770409653 ,81,4864297343935
37.2005122 ,Left ,61,7263115353527 ,46,4296545285215 ,81,4910236886052
37.2230654 ,Left ,61,7202250924146 ,46,43491908831 ,81,5027796130946
37.2385531 ,Left ,61,7106600111734 ,46,4438612174017 ,81,5123678346731
37.2530376 ,Left ,61,6824602176371 ,46,4580347523269 ,81,5172359229812
