timestamp,event,roll,pitch,yaw
0.019934 ,Left ,57,9643391965522 ,49,6325996082474 ,64,8948231156168
0.0424377 ,Left ,57,9643391965522 ,49,6325996082474 ,64,8948231156168
0.0567888 ,Left ,57,964724551023 ,49,632797214598 ,64,8953296758316
0.0800038 ,Left ,57,964724551023 ,49,632797214598 ,64,8953296758316
0.1026606 ,Left ,57,9643391965522 ,49,6325996082474 ,64,8948231156168
0.1170789 ,Left ,57,9537646504836 ,49,6339091940576 ,64,8940940033975
0.1397899 ,Left ,57,9403600768958 ,49,6343936014038 ,64,8926731135732
0.1626223 ,Left ,57,9293816729291 ,49,6302218039703 ,64,8946423320198
0.1769522 ,Left ,57,9293816729291 ,49,6302218039703 ,64,8946423320198
0.2000843 ,Left ,57,9377176942059 ,49,6289206325775 ,64,8933139113248
0.2226397 ,Left ,57,9384832484791 ,49,6310369029666 ,64,8915195616963
0.2368269 ,Left ,57,9373945973388 ,49,6350796468796 ,64,8853743360338
0.260192 ,Left ,57,9323121545405 ,49,6384721460474 ,64,8836668384541
0.2827841 ,Left ,57,9260806446048 ,49,6395511428386 ,64,8832467014328
0.288458 ,Left ,57,9278662563159 ,49,6449776520815 ,64,8939046408138
0.3061875 ,Left ,57,9215117063506 ,49,6607635313239 ,64,9061016929026
0.3257582 ,Left ,57,9088329095755 ,49,6665082205811 ,64,9081578407326
0.3563828 ,Left ,57,8945934497599 ,49,645323041924 ,64,8967581587599
0.3644637 ,Left ,57,9112452355743 ,49,5790611631031 ,64,9022764642993
0.385547 ,Left ,57,8952755808517 ,49,5134008211224 ,64,89335813228
0.40807 ,Left ,57,8141330635902 ,49,4606471847236 ,64,8669410244814
0.430732 ,Left ,57,7193799667339 ,49,4181550636599 ,64,853099527486
0.4456785 ,Left ,57,5975761936917 ,49,3868997454337 ,64,8241654412515
0.4754636 ,Left ,57,4667301355757 ,49,3767148444247 ,64,7548165730071
0.4905206 ,Left ,57,3752707911978 ,49,369386864855 ,64,681386153195
0.5055646 ,Left ,57,3308919356151 ,49,3092679138581 ,64,5985064439289
0.5280898 ,Left ,57,29724529784 ,49,2796844060287 ,64,4619597825034
0.5507065 ,Left ,57,2688693050409 ,49,2873168118962 ,64,3053455976146
0.5655382 ,Left ,57,2091228653476 ,49,3081135191582 ,64,1940274043383
0.5880431 ,Left ,57,1107270094752 ,49,3489394875687 ,64,1653827591472
0.610656 ,Left ,57,1033890797141 ,49,3566248237026 ,64,1664054418448
0.6256489 ,Left ,57,1943521420385 ,49,3838147294837 ,64,1737917919951
0.6478431 ,Left ,57,1598834780791 ,49,4366668950847 ,64,1514939837249
0.6704797 ,Left ,57,0301261168169 ,49,5182573641757 ,64,1242185528985
0.6853646 ,Left ,56,997911646246 ,49,6072937740625 ,64,1095532040843
0.7081429 ,Left ,57,025419501131 ,49,6750290443687 ,64,1313990583755
0.7307899 ,Left ,57,0371435419035 ,49,7457987289944 ,64,1550067065013
0.7456745 ,Left ,56,9913298117338 ,49,8301356670198 ,64,1798246055373
0.7681903 ,Left ,56,9255813574953 ,49,9177513519818 ,64,2058807948536
0.7936902 ,Left ,56,8963045201164 ,50,0101564679866 ,64,2408794401417
0.805234 ,Left ,56,8857274481158 ,50,1054955314884 ,64,2914806135943
0.8277525 ,Left ,56,8544093229221 ,50,2029741725776 ,64,3801952658911
0.8503081 ,Left ,56,8224596781152 ,50,2927804685555 ,64,5093118474629
0.8653642 ,Left ,56,8300034607569 ,50,3542955112463 ,64,6723392009877
0.8877423 ,Left ,56,8366622921137 ,50,3822531759991 ,64,8504756863092
0.9104276 ,Left ,56,8290198996231 ,50,3817841768863 ,65,0273136923526
0.9256447 ,Left ,56,7926433589341 ,50,3826342825028 ,65,1634965670633
0.9481013 ,Left ,56,7285263853198 ,50,3863629224807 ,65,2616172399123
0.9706222 ,Left ,56,6522964326126 ,50,3892905750618 ,65,3201200725063
0.9857041 ,Left ,56,6118384901434 ,50,4278165310535 ,65,3547319496664
1.0079939 ,Left ,56,555811944199 ,50,4994261668162 ,65,3567391963283
1.0352353 ,Left ,56,4693190587001 ,50,5778749817248 ,65,3361424607321
1.0454509 ,Left ,56,5684237453253 ,50,7261942025043 ,65,3785381323048
1.0681549 ,Left ,56,7429392180779 ,50,9263949852984 ,65,42090349743
1.09073 ,Left ,56,7437722775171 ,51,071548210808 ,65,358428829883
1.1055894 ,Left ,56,7296358795062 ,51,0868635841534 ,65,2368365627908
1.127944 ,Left ,56,7333815417144 ,50,998763135489 ,65,1167322553344
1.1505389 ,Left ,56,7138853530597 ,50,9144437559265 ,65,0502374839355
1.1656702 ,Left ,56,6439588381713 ,50,8720651798155 ,64,991041143278
1.1894919 ,Left ,56,5320997301299 ,50,8298114143093 ,64,9135199394976
1.2061102 ,Left ,56,5509326706386 ,50,7554512783662 ,64,8710275764779
1.2256516 ,Left ,56,617018995593 ,50,6122842962113 ,64,8632863724673
1.2478077 ,Left ,56,6332716631632 ,50,4659719015596 ,64,895217125774
1.2657656 ,Left ,56,6349920020959 ,50,420561977602 ,64,9165850293427
1.2869993 ,Left ,56,5717799064168 ,50,4775374327788 ,64,8704350655924
1.3079379 ,Left ,56,6185633896895 ,50,5699930841647 ,64,7807165541844
1.3258954 ,Left ,56,7269086706598 ,50,5355378296113 ,64,7202855253768
1.3469893 ,Left ,56,7812856972949 ,50,3934990542741 ,64,6951053475741
1.3681887 ,Left ,56,7537150739558 ,50,2567906731663 ,64,681804937923
1.3859962 ,Left ,56,630728511417 ,50,2385766451726 ,64,6349898938027
1.4067823 ,Left ,56,4438304924282 ,50,2718189245528 ,64,5552338759168
1.4280076 ,Left ,56,443470535962 ,50,3713820650791 ,64,5093888469476
1.4458194 ,Left ,56,4047680808401 ,50,5370992245017 ,64,4607529176546
1.4669515 ,Left ,56,3723796357848 ,50,7182110276329 ,64,4404266030996
1.4879507 ,Left ,56,3537542911419 ,50,7979542453874 ,64,4531637538284
1.5057962 ,Left ,56,3257361530431 ,50,8245162040386 ,64,5125099233648
1.5268001 ,Left ,56,2827423652784 ,50,7919684673366 ,64,5620810660465
1.5480236 ,Left ,56,2678187438318 ,50,7541806914803 ,64,5761813834281
1.5659556 ,Left ,56,2166773972343 ,50,7707971170942 ,64,5760721047566
1.5881151 ,Left ,56,2257053835979 ,50,7980581331602 ,64,5582435042954
1.6077099 ,Left ,56,2606802364202 ,50,7802206820146 ,64,5742187965835
1.6257989 ,Left ,56,2282513876057 ,50,738639152189 ,64,5858747786354
1.6470851 ,Left ,56,1846147997581 ,50,7289964405561 ,64,5742448351143
1.6679346 ,Left ,56,183186624079 ,50,7638628208036 ,64,5462865291478
1.6860151 ,Left ,56,1758286199109 ,50,8297642741248 ,64,5435816608355
1.7083618 ,Left ,56,1757985305201 ,50,9666761036642 ,64,5459924829205
1.7279983 ,Left ,56,2333196959956 ,51,1457646705065 ,64,5411703757331
1.7459411 ,Left ,56,356240988987 ,51,2549149390624 ,64,5130303709958
1.7683249 ,Left ,56,44395924744 ,51,255376700535 ,64,4615112795475
1.7880552 ,Left ,56,5183194650562 ,51,2062417196465 ,64,3793719557821
1.8058852 ,Left ,56,6133680129562 ,51,0959349051752 ,64,2795323469015
1.8285604 ,Left ,56,6724192635653 ,50,9515458568765 ,64,175851862029
1.8481294 ,Left ,56,7245221583923 ,50,7744940435992 ,64,046033308815
1.8662619 ,Left ,56,7856404548198 ,50,5982292016618 ,63,9197454735577
1.8885604 ,Left ,56,8698804610601 ,50,4690186975292 ,63,7733148765752
1.9083489 ,Left ,56,9158475599121 ,50,3668690134594 ,63,6505440553204
1.9260758 ,Left ,56,9261056528352 ,50,3201326229679 ,63,6017467703947
1.9484638 ,Left ,56,928314689258 ,50,339323881754 ,63,5608344017098
1.9676965 ,Left ,56,8866187834357 ,50,3939468295366 ,63,4939250338223
1.9857114 ,Left ,56,8807797612273 ,50,4749425780437 ,63,4052244738293
2.0082466 ,Left ,56,8480845424668 ,50,5600725051194 ,63,3376597727418
2.0277294 ,Left ,56,8156574210447 ,50,6269151886235 ,63,3055498444777
2.0457584 ,Left ,56,7639939802081 ,50,6896001276892 ,63,2920015303565
2.067423 ,Left ,56,6614778157864 ,50,7536422100661 ,63,2641780747695
2.0877736 ,Left ,56,511086745522 ,50,8172732118986 ,63,2541389779314
2.1059183 ,Left ,56,4488728256265 ,50,8933175718605 ,63,2828227722661
2.128453 ,Left ,56,4454487996005 ,50,9342688428948 ,63,336555375406
2.1478753 ,Left ,56,4879929965606 ,50,9303552857639 ,63,4515220247497
2.1659432 ,Left ,56,4888016309146 ,50,8905506774456 ,63,5537346293437
2.1874876 ,Left ,56,4265251280897 ,50,8132090177052 ,63,5661873176217
2.2083743 ,Left ,56,3495798737104 ,50,789237529015 ,63,5410900310544
2.2251475 ,Left ,56,2246804062892 ,50,8139317562306 ,63,4887444324764
2.2474859 ,Left ,56,2456876504896 ,50,8867611316334 ,63,4219479387449
2.2686701 ,Left ,56,3617536182445 ,50,9109535549111 ,63,3216263891826
2.2850289 ,Left ,56,410918056553 ,50,8978087704561 ,63,1645922794646
2.3076434 ,Left ,56,4239519913487 ,50,8352024234712 ,62,9753717178694
2.3287345 ,Left ,56,4113492690061 ,50,7001757735726 ,62,8071301939184
2.3451329 ,Left ,56,4360363268237 ,50,5517169098781 ,62,6427327231261
2.3675266 ,Left ,56,4772350618198 ,50,401372590447 ,62,5253560929485
2.3886774 ,Left ,56,5431837108628 ,50,3110248624718 ,62,4868608382353
2.4049775 ,Left ,56,6220259162088 ,50,2995966596984 ,62,4873460557765
2.4275192 ,Left ,56,7563979706159 ,50,3248916092965 ,62,5232208173617
2.4562954 ,Left ,56,7569639855699 ,50,3936888397777 ,62,605214176635
2.4648221 ,Left ,56,6912601666951 ,50,5191482374029 ,62,6843051771218
2.4880609 ,Left ,56,6066216512039 ,50,6529674505647 ,62,7301705778533
2.5092234 ,Left ,56,5434224195742 ,50,7845874363583 ,62,7778941762516
2.5254226 ,Left ,56,5387845659147 ,50,891782635128 ,62,8243403148683
2.5481351 ,Left ,56,5603698460089 ,51,0040020352613 ,62,8691368930291
2.5689804 ,Left ,56,5685421730348 ,51,1063164904242 ,62,9596394905521
2.5845534 ,Left ,56,5363655269507 ,51,1771141329727 ,63,0231121968906
2.6075331 ,Left ,56,4919050863519 ,51,195234555694 ,63,0173884858426
2.6285847 ,Left ,56,4088151935994 ,51,2372805311887 ,63,0159579723533
2.6444093 ,Left ,56,3627622746802 ,51,3469315720178 ,62,9867623910347
2.6676782 ,Left ,56,4202381200634 ,51,504114008496 ,62,9324240547932
2.6899872 ,Left ,56,5842496808901 ,51,5814110880212 ,62,8927702765297
2.7044996 ,Left ,56,7477409603664 ,51,5705968876236 ,62,8636068803632
2.7274002 ,Left ,56,8389223263347 ,51,4682508081433 ,62,8480181537322
2.7502007 ,Left ,56,8201277729087 ,51,3613034775973 ,62,8137840193247
2.7645491 ,Left ,56,8012235010566 ,51,2559820355068 ,62,7714160834644
2.7875875 ,Left ,56,7789002154554 ,51,1907468760168 ,62,6994785824278
2.8099529 ,Left ,56,7549779315133 ,51,1426217799459 ,62,6554463915962
2.8245474 ,Left ,56,7746510996141 ,51,1326448598722 ,62,6749120946213
2.8476629 ,Left ,56,7867716300615 ,51,1755637397495 ,62,7272621431398
2.87047 ,Left ,56,7557703252053 ,51,2712286579308 ,62,8013782118743
2.8912625 ,Left ,56,6965660822982 ,51,3958702748082 ,62,8890275402821
2.907717 ,Left ,56,683822061529 ,51,4912244078596 ,62,9633788374285
2.9299968 ,Left ,56,7028718404619 ,51,5527385014418 ,63,029768293861
2.9512017 ,Left ,56,7709332850957 ,51,5946758126864 ,63,103551126219
2.9676368 ,Left ,56,8233726403013 ,51,6100229135651 ,63,2097095951097
2.9905971 ,Left ,56,8301000323721 ,51,6075917149827 ,63,3076242562869
3.0118275 ,Left ,56,7865062268604 ,51,5695933301855 ,63,4094257505875
3.0279776 ,Left ,56,7586833663851 ,51,5274495207586 ,63,3952851034291
3.050175 ,Left ,56,7602835247995 ,51,4737376667657 ,63,2877626484272
3.0715805 ,Left ,56,8406191279962 ,51,3851348649472 ,63,1717580205129
3.0878844 ,Left ,56,93270479059 ,51,2618621704018 ,63,0904582378559
3.1103478 ,Left ,56,9772240374544 ,51,1046585432746 ,63,0200150844287
3.1314327 ,Left ,57,0195125301154 ,50,9308531039194 ,62,91307617166
3.1478723 ,Left ,56,9640368172932 ,50,7559318304685 ,62,7941245967608
3.170315 ,Left ,56,8652063680725 ,50,6453075925075 ,62,7031976623056
3.1916013 ,Left ,56,8262362723614 ,50,5691935823935 ,62,7012085668186
3.2077142 ,Left ,56,8286014012401 ,50,5603015057184 ,62,7381452468889
3.2301691 ,Left ,56,812533052621 ,50,6089966268974 ,62,775359548014
3.2513266 ,Left ,56,8040116712208 ,50,6650130185553 ,62,7934242686944
3.2676921 ,Left ,56,8438425885748 ,50,7068998804518 ,62,8141040767669
3.2902385 ,Left ,56,8298724218577 ,50,7310725827048 ,62,8828392003173
3.3114591 ,Left ,56,7842255255824 ,50,7753076342209 ,62,9933610013254
3.3276352 ,Left ,56,7160086061923 ,50,8468435125047 ,63,1376375628687
3.3501826 ,Left ,56,6885137953868 ,50,9084843696039 ,63,2912790987177
3.371331 ,Left ,56,6692867404097 ,50,9250408871713 ,63,4792535712617
3.3869902 ,Left ,56,6697365605027 ,50,9205814380118 ,63,6738724420102
3.4101691 ,Left ,56,6643533608442 ,50,9272864368961 ,63,8298881940548
3.4313021 ,Left ,56,6260411930727 ,50,969540594413 ,63,9722487977286
3.4469617 ,Left ,56,5773555280978 ,51,003875377431 ,64,0455298913074
3.4701971 ,Left ,56,5975800396165 ,51,0404585245496 ,64,1157613666232
3.4940908 ,Left ,56,5907148793456 ,51,0987971044366 ,64,1498829828481
3.5070646 ,Left ,56,5265208826995 ,51,2000954936178 ,64,124633555664
3.5299939 ,Left ,56,5174778905881 ,51,3110991671197 ,64,0848635698465
3.5512814 ,Left ,56,625144988452 ,51,35981103855 ,64,0303107045175
3.5669736 ,Left ,56,6938242552384 ,51,332556007456 ,64,0050859484043
3.5901696 ,Left ,56,680875112029 ,51,2775210905411 ,63,9906298559736
3.6127115 ,Left ,56,6315289122207 ,51,2202487117843 ,63,9730218486978
3.6271412 ,Left ,56,5661777876032 ,51,152393586852 ,63,9551057100971
3.6503413 ,Left ,56,5632314363192 ,51,1141015620917 ,63,9547472794259
3.6727946 ,Left ,56,5099793229632 ,51,1664248626279 ,63,9593408344618
3.6874202 ,Left ,56,4784554562766 ,51,3082236033675 ,63,9389073420698
3.7097783 ,Left ,56,5686504300516 ,51,4197165541456 ,63,9089950726232
3.7327364 ,Left ,56,6847786273089 ,51,4170344287874 ,63,8746989024999
3.753805 ,Left ,56,7377927122008 ,51,3484364037497 ,63,8448567795438
3.7704107 ,Left ,56,6629330959921 ,51,2362243564972 ,63,8280493022411
3.7929624 ,Left ,56,5970764411435 ,51,1059651206385 ,63,8264684160245
3.8141191 ,Left ,56,5386823206316 ,50,9806764354675 ,63,7952378783136
3.8304043 ,Left ,56,5172280707744 ,50,8915327514447 ,63,7292823299894
3.852798 ,Left ,56,5657975787725 ,50,8210960656911 ,63,662992415067
3.8737743 ,Left ,56,6179635922115 ,50,763322899166 ,63,59345967889
3.8898703 ,Left ,56,6413531993267 ,50,7061601631881 ,63,553011098229
3.9125156 ,Left ,56,6396811010094 ,50,6223869383479 ,63,5495723607147
3.9269977 ,Left ,56,6635344578637 ,50,4977463730743 ,63,5510401648588
3.950183 ,Left ,56,6861959132448 ,50,3781649239906 ,63,5402313093887
3.9725333 ,Left ,56,6759440253053 ,50,2749158522933 ,63,5148432895956
3.9869917 ,Left ,56,6800663864231 ,50,1839643272839 ,63,4909426651566
4.0100461 ,Left ,56,6954785921306 ,50,0946641315169 ,63,4802267631465
4.0324205 ,Left ,56,7533778529821 ,50,0238981998912 ,63,4639145623403
4.0470762 ,Left ,56,7828465995562 ,49,9839120563004 ,63,4363570347068
4.0702817 ,Left ,56,7245325380788 ,49,976038834233 ,63,4114157110322
4.0927904 ,Left ,56,6721686214064 ,50,0067934294886 ,63,378452710339
4.1139488 ,Left ,56,6604061622882 ,50,0609414428743 ,63,3433102878164
4.1302421 ,Left ,56,6655568524416 ,50,1268087804579 ,63,3186368944452
4.1526885 ,Left ,56,6560537895176 ,50,1837141074881 ,63,3170192753565
4.1734494 ,Left ,56,605215714381 ,50,2292910910209 ,63,3217750667543
4.1899647 ,Left ,56,5730546740281 ,50,2883744994926 ,63,3242689511624
4.2126467 ,Left ,56,5250719497295 ,50,3483740970646 ,63,3363193196082
4.2412339 ,Left ,56,4890262418574 ,50,4105090427878 ,63,3677599503599
4.2501186 ,Left ,56,4715982399809 ,50,4674073326386 ,63,3929894272782
4.2726306 ,Left ,56,457797846887 ,50,50882369511 ,63,4135147323805
4.2940103 ,Left ,56,4261101070215 ,50,5463018308553 ,63,4265138721657
4.3102118 ,Left ,56,4036471238268 ,50,580277691672 ,63,4378215745286
4.3326054 ,Left ,56,4060979742402 ,50,6170230716646 ,63,4461542116897
4.3536401 ,Left ,56,3942474533462 ,50,6404276160225 ,63,4407592196006
4.3702092 ,Left ,56,380617352885 ,50,6724388654287 ,63,4416615373404
4.3924043 ,Left ,56,3598270122762 ,50,7626434871495 ,63,4521401571698
4.4140525 ,Left ,56,3184197926745 ,50,8575123558514 ,63,4525786010173
4.4294589 ,Left ,56,2762924920749 ,50,965305169871 ,63,4529441059668
4.4523793 ,Left ,56,2738225178644 ,51,1165638650672 ,63,4547070457614
4.4734884 ,Left ,56,325370428361 ,51,3002452324292 ,63,4576066472847
4.4892854 ,Left ,56,444311464018 ,51,4250727113168 ,63,4665451086083
4.5125069 ,Left ,56,5764216738396 ,51,4744331529764 ,63,4742724846897
4.5338228 ,Left ,56,5091861884896 ,51,4752488047002 ,63,5022673144309
4.54959 ,Left ,56,4273476928341 ,51,4475941841262 ,63,5518593956404
4.5727019 ,Left ,56,4459318765295 ,51,431218639455 ,63,6311535022482
4.5950331 ,Left ,56,4699316620093 ,51,4274724326708 ,63,7227847305046
4.6104707 ,Left ,56,4558697929702 ,51,3850409501657 ,63,7961876862028
4.6387671 ,Left ,56,5154994955915 ,51,3491318792941 ,63,8769092823239
4.6554446 ,Left ,56,514020632315 ,51,3841632242414 ,63,9041759189353
4.6697432 ,Left ,56,4758149897536 ,51,490574230815 ,63,8639996744738
4.6928566 ,Left ,56,5498655774031 ,51,5607814300772 ,63,8145525923496
4.7152383 ,Left ,56,6599391709474 ,51,5215195604586 ,63,7690889977403
4.7365257 ,Left ,56,7433732220271 ,51,4363838085852 ,63,7175080065479
4.7530063 ,Left ,56,7878829354772 ,51,3164132666823 ,63,6566315418573
4.7753143 ,Left ,56,833612434379 ,51,1759267535878 ,63,5428217463654
4.7963861 ,Left ,56,8218168719971 ,51,019144879634 ,63,4025908132997
4.8126901 ,Left ,56,8232372822447 ,50,8899858290694 ,63,2731478487718
4.8352511 ,Left ,56,8447108736835 ,50,7954236684711 ,63,1369723456562
4.8565075 ,Left ,56,8280707343196 ,50,7167529135777 ,62,9958707219382
4.872868 ,Left ,56,7838165058138 ,50,6752751056131 ,62,8799874291102
4.895154 ,Left ,56,8168888182898 ,50,6754288046408 ,62,7909197378854
4.9164879 ,Left ,56,8313350614057 ,50,6941161132473 ,62,7341857566989
4.9326784 ,Left ,56,7260037442408 ,50,7413924647527 ,62,7094072717796
4.9550789 ,Left ,56,6049490678774 ,50,8039624578551 ,62,7352716541874
4.9765065 ,Left ,56,5885537895704 ,50,865129326092 ,62,7769355379969
4.9927485 ,Left ,56,5799980759152 ,50,9304467483488 ,62,8138923211438
5.0152713 ,Left ,56,5391947052149 ,51,0371327537783 ,62,8434806086345
5.0294805 ,Left ,56,4869348314657 ,51,1281143666635 ,62,9026473544326
5.0526806 ,Left ,56,4756526339365 ,51,1877964439173 ,63,0005331256205
5.0751891 ,Left ,56,5642061642076 ,51,2333289433907 ,63,0974871960472
5.0964432 ,Left ,56,5653714490522 ,51,2343330086451 ,63,1692784832311
5.1127133 ,Left ,56,6314455977362 ,51,1595979172504 ,63,236354256023
5.1352187 ,Left ,56,7009159975293 ,51,0607731358517 ,63,210095348044
5.1564899 ,Left ,56,6228435073483 ,51,0327947153733 ,63,0489612656925
5.1726819 ,Left ,56,6152479077743 ,51,0463914789953 ,62,798824051887
5.1951743 ,Left ,56,6849417890654 ,50,9748437631855 ,62,578289220758
5.2162947 ,Left ,56,6937197756552 ,50,8894752574594 ,62,40814902907
5.2326403 ,Left ,56,7188669580869 ,50,8040999485236 ,62,2804263055276
5.2552617 ,Left ,56,7694971968716 ,50,7017463427798 ,62,1880509801859
5.2759443 ,Left ,56,8547233380398 ,50,5592044396527 ,62,1439599527048
5.2920178 ,Left ,56,8987959319941 ,50,4403541168537 ,62,1042355661313
5.3150047 ,Left ,56,8689625954338 ,50,3809982423435 ,62,1074258941625
5.3360241 ,Left ,56,8250058287653 ,50,3527923802429 ,62,169218708532
5.3533408 ,Left ,56,8205614251307 ,50,3590330099769 ,62,2495652589095
5.3754934 ,Left ,56,8463102680369 ,50,3683358794892 ,62,3186184229996
5.3967763 ,Left ,56,8059320370544 ,50,3919314281517 ,62,3755528730401
5.4121388 ,Left ,56,7269201537475 ,50,445332595531 ,62,3962284315006
5.4354205 ,Left ,56,6950130336369 ,50,5340490515046 ,62,395611480099
5.4564018 ,Left ,56,6768308989801 ,50,6125604355149 ,62,4043069912915
5.4734492 ,Left ,56,6533787490929 ,50,6732865188497 ,62,4496632627779
5.4955159 ,Left ,56,6083159067551 ,50,7554432058566 ,62,5080061076218
5.5179225 ,Left ,56,5410039529903 ,50,8417397786642 ,62,5602744670378
5.5322041 ,Left ,56,469596991898 ,50,9108090067808 ,62,6205396549905
5.5554143 ,Left ,56,4557492747444 ,50,979530206073 ,62,6748299477922
5.5779827 ,Left ,56,4540820167906 ,51,0509071863694 ,62,7117552648976
5.5988843 ,Left ,56,4062140462304 ,51,1048212707073 ,62,7476178061307
5.6152617 ,Left ,56,3377929063704 ,51,1478794534927 ,62,7745542235761
5.637777 ,Left ,56,3186505529944 ,51,1833775312744 ,62,7909114243273
5.6587838 ,Left ,56,3287593521667 ,51,1977730460685 ,62,805792599319
5.6752508 ,Left ,56,3117264428045 ,51,2007768924549 ,62,814793434521
5.6975897 ,Left ,56,2901297076351 ,51,1959176036494 ,62,8117280859703
5.7120547 ,Left ,56,2739253380998 ,51,1942253278369 ,62,8090533740869
5.7352624 ,Left ,56,2469040633263 ,51,1859075562428 ,62,8104826472525
5.757666 ,Left ,56,2217739548798 ,51,1794122170525 ,62,8211110463877
5.7720956 ,Left ,56,23021707526 ,51,1588824076546 ,62,8410167243733
5.7951957 ,Left ,56,2721411710033 ,51,1318376621553 ,62,8576476773576
5.8177383 ,Left ,56,3172472934311 ,51,1056624866076 ,62,8618794511889
5.832099 ,Left ,56,3413862617763 ,51,085724226569 ,62,8667513241869
5.8551941 ,Left ,56,3797845666896 ,51,0572411319878 ,62,8763010369256
5.8777244 ,Left ,56,4271621495627 ,51,0203699498599 ,62,8846136089278
5.8920546 ,Left ,56,4925518985343 ,50,9838308499068 ,62,8974594673508
5.9151665 ,Left ,56,5451820182569 ,50,9517486347601 ,62,9138387333782
5.9377845 ,Left ,56,5899033834169 ,50,9246947617613 ,62,9540357340175
5.951962 ,Left ,56,6256884762096 ,50,8972216979153 ,62,9930999811335
5.9752538 ,Left ,56,69195405641 ,50,880338448481 ,63,0125291837912
5.9977215 ,Left ,56,7496234197716 ,50,8697868184393 ,63,0277697144304
6.0187534 ,Left ,56,7741040366774 ,50,8656378357558 ,63,0491046746355
6.0352462 ,Left ,56,8197077415846 ,50,8718100879582 ,63,0628449660436
6.0577017 ,Left ,56,8530944079475 ,50,8688086189308 ,63,0813506175349
6.0786917 ,Left ,56,8894122572776 ,50,8625259889593 ,63,0996130229147
6.09527 ,Left ,56,9146242656389 ,50,8541109620625 ,63,1069394994131
6.1005768 ,Left ,56,9376164597282 ,50,8636065337549 ,63,118558736278
6.1233187 ,Left ,56,961169446727 ,50,8770936704744 ,63,1203646036869
6.1455217 ,Left ,56,9590829332699 ,50,8782091849741 ,63,1179317223694
6.1604031 ,Left ,56,9694397129497 ,50,8904475889703 ,63,1222583634842
6.1831088 ,Left ,56,9713239817495 ,50,9111021414407 ,63,1337646789153
6.2007783 ,Left ,56,9926798291085 ,50,9386319431465 ,63,1367155370745
6.2203525 ,Left ,57,013774016415 ,50,9564600864869 ,63,121752276802
6.2430841 ,Left ,56,9967907192991 ,50,9695691064231 ,63,1137802080194
6.2607709 ,Left ,56,9889922258906 ,51,0041428322675 ,63,1017400569525
6.2806987 ,Left ,56,9937942216675 ,51,0497753697736 ,63,0829723854734
6.3044443 ,Left ,56,992364603331 ,51,0745639030339 ,63,0712753668512
6.3208896 ,Left ,57,0089397050555 ,51,0750735343507 ,63,0646344540392
6.3404222 ,Left ,57,0403219993628 ,51,0636810173248 ,63,0771579002176
6.3628743 ,Left ,57,0764001173139 ,51,0212651698936 ,63,0996175631452
6.3808951 ,Left ,57,108366615559 ,50,9406614128314 ,63,1364934017569
6.4005593 ,Left ,57,1389744981395 ,50,8547954414733 ,63,1808724469027
6.4232193 ,Left ,57,1967110387287 ,50,7547360310219 ,63,1641182374918
6.4411965 ,Left ,57,2498183618474 ,50,6366627648486 ,63,1010932748218
6.4620443 ,Left ,57,1926306480505 ,50,5188219698607 ,63,07468440896
6.4832588 ,Left ,57,141240580909 ,50,435787069631 ,63,0578121959403
6.5010071 ,Left ,57,1551584193562 ,50,3938709152979 ,63,0150856954615
6.5206339 ,Left ,57,1522349628559 ,50,363634968565 ,63,009822929289
6.5432243 ,Left ,57,1062730855915 ,50,3881022895652 ,63,0277428908665
6.5609502 ,Left ,57,0646636436548 ,50,4705973249269 ,63,0509663110871
6.5805364 ,Left ,57,0432038379459 ,50,5658833423329 ,63,0858775598685
6.6030845 ,Left ,57,0341101718774 ,50,6505708433702 ,63,134794852731
6.6208758 ,Left ,56,983421604028 ,50,7255174761379 ,63,213487894847
6.640713 ,Left ,56,9522081923643 ,50,8185692200533 ,63,311478527657
6.6632206 ,Left ,56,945892221528 ,50,8887015039049 ,63,4405530465543
6.6856507 ,Left ,56,9178168846651 ,50,9226559090552 ,63,5774320124027
6.700623 ,Left ,56,8417153375594 ,50,9130526587997 ,63,7488711179744
6.7230779 ,Left ,56,8114906799878 ,50,9367673627822 ,63,9361264722022
6.7457398 ,Left ,56,8234324733929 ,50,9612800831252 ,64,1036546046454
6.7607549 ,Left ,56,8071872742603 ,50,9469553015111 ,64,2319668624639
6.7832945 ,Left ,56,7888101914439 ,50,9500699901648 ,64,3137603408648
6.8057563 ,Left ,56,741154245861 ,51,0167630799909 ,64,4041512878405
6.8207476 ,Left ,56,6051230759096 ,51,0943419307536 ,64,4672416334248
6.8430843 ,Left ,56,5486126664436 ,51,187246482762 ,64,5068865565302
6.8656273 ,Left ,56,5384512385729 ,51,2875056453977 ,64,5193631697082
6.8805753 ,Left ,56,5884048988881 ,51,4025338623063 ,64,4999896299882
6.9031581 ,Left ,56,693154786469 ,51,4488964779221 ,64,4713654895083
6.9257446 ,Left ,56,7506562033617 ,51,4139443618102 ,64,4409994848715
6.9419836 ,Left ,56,7222473120161 ,51,3146600092837 ,64,4021244841226
6.963252 ,Left ,56,6613587813877 ,51,2145002367178 ,64,3971669243151
6.9856566 ,Left ,56,5910735410247 ,51,125059218289 ,64,3666099019034
7.0005302 ,Left ,56,5116940160912 ,51,0511340494499 ,64,3394808055574
7.023045 ,Left ,56,5403146691395 ,51,0501404406522 ,64,3431883956979
7.045767 ,Left ,56,5786800777355 ,51,09522411535 ,64,301289480083
7.0619991 ,Left ,56,6409803314359 ,51,1590778706612 ,64,2406206884509
7.0831564 ,Left ,56,7144995700263 ,51,1602856076489 ,64,1806563116888
7.1053131 ,Left ,56,7594414244797 ,51,1032925407797 ,64,1166683290031
7.12176 ,Left ,56,8176177399927 ,50,9954217642694 ,64,0362088145945
7.1431486 ,Left ,56,8209011292375 ,50,8958373374812 ,63,921410229035
7.17379 ,Left ,56,7900399163934 ,50,7925119983178 ,63,8195553376087
7.1816812 ,Left ,56,7994323318916 ,50,720954088415 ,63,7410874059047
7.2029588 ,Left ,56,8277221381049 ,50,6698755028248 ,63,6828565952913
7.225648 ,Left ,56,8149299197981 ,50,6245730902836 ,63,6423241534297
7.2419518 ,Left ,56,7282224507481 ,50,5799555338847 ,63,6159677278058
7.2631509 ,Left ,56,6979093894216 ,50,5656815107964 ,63,580736851022
7.2808226 ,Left ,56,707656910421 ,50,5921085831319 ,63,5596253002825
7.3021576 ,Left ,56,7050741061769 ,50,6246876078495 ,63,5775639759405
7.3234035 ,Left ,56,6715012021251 ,50,6763626314405 ,63,6108378726619
7.3410646 ,Left ,56,6257474303017 ,50,7533406798454 ,63,6246501681605
7.362056 ,Left ,56,6183063527013 ,50,8591505441589 ,63,6278491644296
7.3832103 ,Left ,56,5900632859176 ,50,9793135065605 ,63,6380089154457
7.4008637 ,Left ,56,5567767991749 ,51,1082522433337 ,63,6603933612342
7.4235783 ,Left ,56,5231949757774 ,51,2456454376793 ,63,6977224429112
7.4431345 ,Left ,56,4764802598565 ,51,3653759692507 ,63,7443177728879
7.4610893 ,Left ,56,4345677516644 ,51,4526580266845 ,63,7908418538245
7.483422 ,Left ,56,4503929632368 ,51,492950563205 ,63,8916651746426
7.5028405 ,Left ,56,52486663049 ,51,4401621147558 ,64,0389144215816
7.5208329 ,Left ,56,5463034153388 ,51,3444109315235 ,64,1293106804767
7.5434538 ,Left ,56,4608720466938 ,51,2487585772599 ,64,1461725796608
7.5630874 ,Left ,56,3687164817292 ,51,1893883070605 ,64,1294073378396
7.5808813 ,Left ,56,3730198489743 ,51,1316872788087 ,64,0735811037994
7.6035199 ,Left ,56,41902458753 ,51,0449536814205 ,63,9885394027651
7.6232319 ,Left ,56,4227505037817 ,50,9452547110934 ,63,8906419645424
7.640948 ,Left ,56,3899100029079 ,50,8474354705137 ,63,7827406422953
7.6636651 ,Left ,56,377855919122 ,50,7711504246461 ,63,6493705052685
7.683241 ,Left ,56,3921113766095 ,50,8049259623793 ,63,5646589400874
7.7009755 ,Left ,56,3560212714462 ,50,8932723217497 ,63,5774761980344
7.7233541 ,Left ,56,296687899916 ,51,0498313425189 ,63,6057753922083
7.7430511 ,Left ,56,4331459237817 ,51,270888911502 ,63,6522666258838
7.7610025 ,Left ,56,6101142452638 ,51,4683364310399 ,63,7169612529489
7.7832583 ,Left ,56,7691671987186 ,51,6019634403269 ,63,7801415313696
7.8029824 ,Left ,56,8801272393418 ,51,6865419157618 ,63,788817111247
7.8209794 ,Left ,56,89522412148 ,51,7181555718075 ,63,7617676387899
7.8507744 ,Left ,56,9212693288175 ,51,6555768391013 ,63,7530351025369
7.8628383 ,Left ,56,8108001480347 ,51,4856133631717 ,63,7826000051702
7.8808662 ,Left ,56,7159143073292 ,51,3568482136019 ,63,8171991346954
7.9034283 ,Left ,56,678372672385 ,51,3110666847178 ,63,8121573959109
7.9229274 ,Left ,56,6201233800238 ,51,2902764468383 ,63,8082542323315
7.9408159 ,Left ,56,5973344197063 ,51,2619827891374 ,63,8028973476412
7.9633169 ,Left ,56,5801941686912 ,51,2389463961985 ,63,80419274057
7.9839081 ,Left ,56,6163403979603 ,51,2429142688555 ,63,879782389017
8.0064678 ,Left ,56,7278308577773 ,51,2770767653208 ,63,9053515239921
8.0224681 ,Left ,56,8001094465159 ,51,2493150055971 ,63,8758643279783
8.0434793 ,Left ,56,9270620228359 ,51,1450884388035 ,63,8209408464044
8.059585 ,Left ,56,9820988179333 ,51,0647133071572 ,63,7153502480695
8.0823728 ,Left ,56,9741751560653 ,50,9878402471946 ,63,5957193553757
8.1039281 ,Left ,56,9508266270461 ,50,9020543045868 ,63,5006404977865
8.1195368 ,Left ,56,9766558788969 ,50,829191586773 ,63,4500860372992
8.1425887 ,Left ,57,0410500333848 ,50,7796943864877 ,63,4137399142201
8.1638397 ,Left ,57,1056848341478 ,50,7746262979414 ,63,3747828411053
8.1794721 ,Left ,57,1559121138284 ,50,7982203168826 ,63,3258866963575
8.202608 ,Left ,57,1461072976794 ,50,7981002819234 ,63,2658730772639
8.2238376 ,Left ,57,1790519250994 ,50,7974210345087 ,63,202322794938
8.2400496 ,Left ,57,2153099694293 ,50,8103409959443 ,63,1513563291413
8.2627981 ,Left ,57,2094431042834 ,50,8649551124521 ,63,102985663421
8.2839123 ,Left ,57,13721584889 ,50,9521791373527 ,63,0673653679972
8.3000645 ,Left ,57,039418552282 ,51,0462802481315 ,63,0466960089664
8.3225731 ,Left ,57,0217752597665 ,51,1321496039021 ,63,0366593050797
8.3451098 ,Left ,56,9881319124568 ,51,1775002169884 ,63,0561101837552
8.3603382 ,Left ,56,9797666350019 ,51,2002309407852 ,63,0799878814825
8.3826908 ,Left ,56,9377097109805 ,51,2206386805152 ,63,0874649091056
8.4056813 ,Left ,56,8331945634 ,51,262818557638 ,63,1033015621669
8.4194951 ,Left ,56,7501969510769 ,51,3119175350813 ,63,1122188933179
8.442587 ,Left ,56,7438893896089 ,51,3382198505749 ,63,0914289826522
8.4652076 ,Left ,56,7405610662257 ,51,3403271158038 ,63,0762146251643
8.4865009 ,Left ,56,715512016703 ,51,3514909696738 ,63,0623650937724
8.5026604 ,Left ,56,6527228015585 ,51,3736908290125 ,63,0525072539603
8.5251363 ,Left ,56,6150573801694 ,51,4199056104468 ,63,0215447128404
8.5395891 ,Left ,56,5687622245148 ,51,457531133509 ,62,9719145436268
8.5631849 ,Left ,56,5409675474523 ,51,487994390041 ,62,9216565536718
8.5852674 ,Left ,56,5438888507907 ,51,5068404858073 ,62,8830672824464
8.59964 ,Left ,56,5253504968987 ,51,5074143738355 ,62,8871986435545
8.6226166 ,Left ,56,4886470462577 ,51,4867764796707 ,62,9054457603301
8.64518 ,Left ,56,471868565712 ,51,4551261184029 ,62,9154760963438
8.6595623 ,Left ,56,4422370059443 ,51,3647735042966 ,62,9085317141466
8.6825864 ,Left ,56,487017139812 ,51,2533712217603 ,62,9151930005855
8.7051009 ,Left ,56,4570581306233 ,51,1673858052081 ,62,922818809748
8.7264671 ,Left ,56,345505460007 ,51,0886286129181 ,62,8896754796573
8.7427354 ,Left ,56,3369095630829 ,51,112086592214 ,62,8765453441644
8.7652323 ,Left ,56,3449669065757 ,51,2107162912214 ,62,7698435375851
8.7864832 ,Left ,56,4571040519395 ,51,2661915244966 ,62,6521343478053
8.8027528 ,Left ,56,6213094128554 ,51,220197691227 ,62,561427501351
8.8252226 ,Left ,56,7010699973344 ,51,1350957154855 ,62,4901685824224
8.846209 ,Left ,56,7324704763751 ,51,0499295028212 ,62,4424832227568
8.8627015 ,Left ,56,7274046467419 ,50,9654219484406 ,62,4441618736318
8.8852655 ,Left ,56,7353332955765 ,50,9111978734914 ,62,4497157996204
8.906463 ,Left ,56,7421757250555 ,50,8798573468483 ,62,4734747185499
8.9227555 ,Left ,56,7159920365112 ,50,8741077041332 ,62,4905728449517
8.9451883 ,Left ,56,7055509528378 ,50,8887244255072 ,62,5141384103553
8.9665755 ,Left ,56,7268134003624 ,50,9158046908772 ,62,5614688265928
8.9826861 ,Left ,56,6968022031806 ,50,9492707637635 ,62,6062078909603
9.0051896 ,Left ,56,6957432665874 ,50,9864728844369 ,62,6273392136131
9.0264892 ,Left ,56,6887025045036 ,50,9981862964004 ,62,6700570378531
9.0426973 ,Left ,56,704562573653 ,51,0346140060594 ,62,725448943257
9.0653334 ,Left ,56,6973401601951 ,51,1136352324489 ,62,7577556017672
9.0865262 ,Left ,56,7150982504581 ,51,2483136022149 ,62,7629595292233
9.1020672 ,Left ,56,714732641744 ,51,3806864045182 ,62,8168864460956
9.1251696 ,Left ,56,7328164891644 ,51,4401952153298 ,62,8395106710009
9.1464217 ,Left ,56,7651647504733 ,51,5033671829892 ,62,8588606532741
9.1619955 ,Left ,56,7606737197248 ,51,6277145441079 ,62,8098980833786
9.1851954 ,Left ,56,8133903583657 ,51,7246231096063 ,62,7349559396672
9.2059447 ,Left ,56,8492695344151 ,51,6891912850343 ,62,6867632051063
9.221817 ,Left ,56,8863332463387 ,51,6158917711901 ,62,6400643040374
9.2451642 ,Left ,56,8473295054127 ,51,5596615228044 ,62,6103456022096
9.266465 ,Left ,56,8462648876091 ,51,4823156864943 ,62,5768489272426
9.2826085 ,Left ,56,8998376890316 ,51,3957110030985 ,62,5310917284488
9.3051757 ,Left ,56,9373943974971 ,51,3291889117588 ,62,5076545686931
9.3275261 ,Left ,56,9671764617935 ,51,3009389856133 ,62,5137017552937
9.342673 ,Left ,56,9553928597562 ,51,3055662911725 ,62,5561312499423
9.3650334 ,Left ,56,9028392570397 ,51,3196396115173 ,62,6016753529484
9.3952394 ,Left ,56,8765799193057 ,51,3669127279346 ,62,6566095381059
9.4025561 ,Left ,56,8887824727328 ,51,4286737342553 ,62,7248259422126
9.4251855 ,Left ,56,9457055112132 ,51,485169723147 ,62,7890739622471
9.4475027 ,Left ,56,9438474646132 ,51,5051147837057 ,62,8670490880139
9.4618975 ,Left ,56,9353205392417 ,51,510221784275 ,62,9579560747211
9.4851959 ,Left ,56,993389573757 ,51,5035649068033 ,63,0075615699863
9.5152198 ,Left ,57,0132392084062 ,51,4597070716105 ,63,0405962492011
9.5219839 ,Left ,56,9448183071571 ,51,406043123774 ,62,9987952646615
9.545254 ,Left ,56,9720633530918 ,51,3402928434004 ,62,9352315070742
9.5677781 ,Left ,57,0827809688781 ,51,2470423182985 ,62,9060254658777
9.5887874 ,Left ,57,1607930677889 ,51,1504623267961 ,62,8670476641483
9.6051646 ,Left ,57,1757928012319 ,51,0546587139907 ,62,7873655825766
9.6352066 ,Left ,57,068095074299 ,50,9692483464893 ,62,7381192449434
9.6486258 ,Left ,56,9502534464495 ,50,8958581218404 ,62,7018673850751
9.6652891 ,Left ,56,9275054865481 ,50,8593401922082 ,62,6951710144808
9.6875678 ,Left ,56,9651875568474 ,50,8711350694322 ,62,6980889766618
9.7086467 ,Left ,56,9547684790509 ,50,9201159462035 ,62,723485916119
9.7250883 ,Left ,56,9031237883654 ,50,9852107921522 ,62,7430334897214
9.7475986 ,Left ,56,8524412107661 ,51,046741571343 ,62,7656538304084
9.7687359 ,Left ,56,8689382359814 ,51,0949697529677 ,62,8159422658201
9.792493 ,Left ,56,8604009226115 ,51,1172940974573 ,62,8932422434773
9.8072798 ,Left ,56,8270099356087 ,51,1237979415247 ,62,9965829361946
9.8287316 ,Left ,56,7818834240066 ,51,1338217807722 ,63,1159437096778
9.8451418 ,Left ,56,7725108964917 ,51,155697003559 ,63,2672641987777
9.8674906 ,Left ,56,7910229776715 ,51,1907040675845 ,63,4342039964156
9.8887029 ,Left ,56,7841821435682 ,51,2200372560365 ,63,5746071238618
9.9127565 ,Left ,56,8060562467017 ,51,2224439158764 ,63,6784407356529
9.9274238 ,Left ,56,7833508443808 ,51,2039327610822 ,63,7668752349414
9.9486971 ,Left ,56,7669379455808 ,51,2448059341815 ,63,8879048827629
9.9650475 ,Left ,56,7297518956247 ,51,3034680944822 ,64,0012785032433
9.9876004 ,Left ,56,7303356046582 ,51,4059594359179 ,64,029803239664
10.0089729 ,Left ,56,7937411757829 ,51,5250807990434 ,64,0279286898447
10.0245277 ,Left ,56,8571661169731 ,51,6160168052001 ,64,00005720353
10.0477205 ,Left ,56,8818230471406 ,51,6340750835108 ,63,9756013552485
10.0688238 ,Left ,56,8570703606611 ,51,5820199157167 ,63,948060056615
10.0846712 ,Left ,56,7882064494327 ,51,476632884893 ,63,9256480799476
10.1077377 ,Left ,56,7112849977772 ,51,3467899554183 ,63,925765955069
10.1289694 ,Left ,56,7260172364722 ,51,242919026543 ,63,9145530961915
10.1445188 ,Left ,56,7244957333935 ,51,1886478460438 ,63,9150876905709
10.1676421 ,Left ,56,6880345135325 ,51,1428481388564 ,63,8865047242305
10.1888483 ,Left ,56,6497908176903 ,51,1151073301019 ,63,8462741567188
10.205212 ,Left ,56,6587436263143 ,51,1701345383076 ,63,8494263376447
10.227671 ,Left ,56,6184230200211 ,51,299247617073 ,63,812431936959
10.2501639 ,Left ,56,6302996827973 ,51,4253321358675 ,63,7555457225975
10.2645637 ,Left ,56,6827010167843 ,51,461876368501 ,63,727912500446
10.2873462 ,Left ,56,6804080719149 ,51,4374905141852 ,63,7459095268527
10.309896 ,Left ,56,6070175825108 ,51,3922688399801 ,63,7774480626387
10.3242684 ,Left ,56,5305756455468 ,51,3290905034063 ,63,7853178245499
10.3473829 ,Left ,56,4935870054861 ,51,2465884261974 ,63,750316601831
10.3698306 ,Left ,56,5337204688261 ,51,1435272169774 ,63,6915715830529
10.384204 ,Left ,56,5520317469337 ,51,0836428274325 ,63,6280040001818
10.4074 ,Left ,56,5339732145854 ,51,0824762679113 ,63,575654265864
10.4299237 ,Left ,56,5329040271509 ,51,117895236324 ,63,5421521117348
10.4442601 ,Left ,56,5274063801156 ,51,1678987376993 ,63,5570468542641
10.4673657 ,Left ,56,4992798766458 ,51,203139686768 ,63,5176480999996
10.4899639 ,Left ,56,5039952808779 ,51,258366042905 ,63,5261977558652
10.5112507 ,Left ,56,4517454851972 ,51,4187055587441 ,63,5421081772192
10.5274021 ,Left ,56,4799637331052 ,51,6418216154441 ,63,5360901825523
10.5501129 ,Left ,56,5956273032136 ,51,7494981855827 ,63,5277143629073
10.5710227 ,Left ,56,700886399827 ,51,7714465960518 ,63,524846567532
10.5877892 ,Left ,56,700531398424 ,51,7103210279016 ,63,5365445252946
10.610333 ,Left ,56,6108823832551 ,51,5904933370386 ,63,5692172342989
10.6313997 ,Left ,56,5211312480217 ,51,4902035869485 ,63,6158687765395
10.6477998 ,Left ,56,5202102613698 ,51,4332947139713 ,63,6421202433148
10.6702767 ,Left ,56,571190748229 ,51,3866636948839 ,63,6490581064553
10.6915341 ,Left ,56,5829907918116 ,51,3089535556003 ,63,6963155485884
10.7078108 ,Left ,56,5612615307652 ,51,2683176351197 ,63,7404787038354
10.7302979 ,Left ,56,5624707958832 ,51,2730885895865 ,63,7484962908045
10.7515468 ,Left ,56,6178843853082 ,51,2968414636424 ,63,7221802386978
10.7677529 ,Left ,56,6902627814715 ,51,3410004269939 ,63,6554167788499
10.7902519 ,Left ,56,7440464340811 ,51,3479070633815 ,63,5969091735176
10.8115048 ,Left ,56,8259163205255 ,51,2847574868074 ,63,5192414122001
10.8277191 ,Left ,56,8948718776107 ,51,2243679794519 ,63,4300140966702
10.8502701 ,Left ,56,9630742214629 ,51,1633751287374 ,63,3357829974261
10.8715554 ,Left ,57,0088790620812 ,51,0544861576456 ,63,2160049609142
10.8870856 ,Left ,57,0855288278114 ,50,9674428318123 ,63,0685871498792
10.9103307 ,Left ,57,1490827350345 ,50,8897650444436 ,62,9499628426002
10.9314448 ,Left ,57,1805670957915 ,50,8430947889676 ,62,8625016984398
10.9478751 ,Left ,57,1685580790357 ,50,8090891907753 ,62,7618705259908
10.9699838 ,Left ,57,133414901781 ,50,7972339181891 ,62,6556455391328
10.9909854 ,Left ,57,1265824339104 ,50,8309433746306 ,62,5527813519469
11.0069832 ,Left ,57,126485255743 ,50,9021239040415 ,62,4835108366764
11.0302668 ,Left ,57,0896720740102 ,50,9869977778885 ,62,4714704579587
11.0525212 ,Left ,57,0175726876407 ,51,080166223874 ,62,5275614111913
11.0667324 ,Left ,57,0138926706534 ,51,1620422955187 ,62,5981222979496
11.0899286 ,Left ,56,9208502296131 ,51,2285470340773 ,62,6406904811458
11.1109364 ,Left ,56,8138159622194 ,51,3201795818929 ,62,6739986427773
11.1267519 ,Left ,56,7264780628754 ,51,4404919301074 ,62,6967184891837
11.1501434 ,Left ,56,6744119300482 ,51,5425951818677 ,62,7177531343447
11.1786757 ,Left ,56,6569153422117 ,51,5951417970058 ,62,7534315018907
11.1867647 ,Left ,56,634409807373 ,51,5767101201795 ,62,8191297692708
11.210037 ,Left ,56,5681655628749 ,51,5508029821057 ,62,8728711248942
11.232414 ,Left ,56,5406976129791 ,51,5101071951718 ,62,8963789875709
11.2475399 ,Left ,56,4960451347415 ,51,4467549676732 ,62,8823213769943
11.2700326 ,Left ,56,4845830891313 ,51,3770314704881 ,62,862845108268
11.3000693 ,Left ,56,4315492003711 ,51,3444487747972 ,62,8445689252933
11.3069343 ,Left ,56,2944873948554 ,51,3993407187709 ,62,7978336788133
11.3299727 ,Left ,56,1516772339809 ,51,4932739289776 ,62,7893085467529
11.3526961 ,Left ,56,1561861905595 ,51,5820647228575 ,62,7766658575777
11.3737557 ,Left ,56,2391011202487 ,51,6093553373422 ,62,7466861061398
11.3902014 ,Left ,56,4119667713474 ,51,6214783503839 ,62,7018510056495
11.4128351 ,Left ,56,5822355544167 ,51,6155256092504 ,62,6014766956194
11.433873 ,Left ,56,6235047376508 ,51,5851946996312 ,62,4802473299993
11.4502458 ,Left ,56,592795980626 ,51,5155219139965 ,62,3576004888279
11.4726506 ,Left ,56,5506257917911 ,51,4023279204601 ,62,2811764272632
11.4939575 ,Left ,56,5332804301266 ,51,3133892497504 ,62,2654835893717
11.510227 ,Left ,56,5399560940764 ,51,28824468058 ,62,2821165559022
11.5326856 ,Left ,56,4983889700398 ,51,2909915793234 ,62,2990609522194
11.5538341 ,Left ,56,5556004293749 ,51,3045233174114 ,62,3537685198978
11.5775981 ,Left ,56,6421166424551 ,51,3255158277245 ,62,4101296454465
11.5928234 ,Left ,56,6362190756752 ,51,3731987896823 ,62,4571317534148
11.6140291 ,Left ,56,5926771929385 ,51,4632621272741 ,62,5060865514978
11.6302889 ,Left ,56,6450010068312 ,51,5621956532433 ,62,5206886096706
11.6527669 ,Left ,56,7124614257128 ,51,6025041740666 ,62,4967537712625
11.6738043 ,Left ,56,7928488241109 ,51,5834072745676 ,62,4390290945753
11.6899825 ,Left ,56,8604042375953 ,51,5222989880754 ,62,3693648909826
11.712388 ,Left ,56,8530958561528 ,51,4336636879654 ,62,3194934946209
11.7333771 ,Left ,56,8348858970261 ,51,3249645380506 ,62,2959058696741
11.749839 ,Left ,56,8348937150687 ,51,2658166947204 ,62,2693894068293
11.7723686 ,Left ,56,8467574112154 ,51,2572757384387 ,62,2560111385708
11.7934584 ,Left ,56,857991491677 ,51,3033874270958 ,62,2618652266749
11.8172718 ,Left ,56,8688872336944 ,51,3916612871776 ,62,2948355954698
11.8322559 ,Left ,56,8521363475659 ,51,4981247280482 ,62,3668751479557
11.8534375 ,Left ,56,8057387790414 ,51,5977568168282 ,62,4269442607298
11.8699054 ,Left ,56,8478993813204 ,51,6999987712763 ,62,4808408992037
11.8927065 ,Left ,56,8760563399791 ,51,7651548587539 ,62,5435461930813
11.8978731 ,Left ,56,8792035114116 ,51,7926086232484 ,62,6170831054839
11.9203336 ,Left ,56,8891057256967 ,51,7849861341049 ,62,7350766308301
11.9370813 ,Left ,56,929427455539 ,51,7661807132497 ,62,844112330666
11.9577992 ,Left ,56,9436086013932 ,51,7137341503766 ,62,9347096899529
11.9805779 ,Left ,56,8749752896429 ,51,6577532912696 ,62,9134791159749
11.9968391 ,Left ,56,90609267845 ,51,5833460217404 ,62,8613594462832
12.0179978 ,Left ,57,0340920323584 ,51,4780030424237 ,62,8258505853449
12.0406345 ,Left ,57,1438407170398 ,51,3617560912677 ,62,7675753020571
12.0554287 ,Left ,57,1694000771114 ,51,2362452896363 ,62,703478247032
12.0780513 ,Left ,57,1019947226783 ,51,1111917425793 ,62,6469789908899
12.1006463 ,Left ,57,0226713004006 ,51,0488161106478 ,62,6046644255541
12.1155468 ,Left ,56,9776310699302 ,51,026131663585 ,62,5960220223269
12.1380371 ,Left ,57,0080352809486 ,51,0329057024125 ,62,6271474598495
12.1604833 ,Left ,57,0020928595409 ,51,0713792076792 ,62,6720867793156
12.1754639 ,Left ,56,9822903041709 ,51,1176604626987 ,62,7169222464495
12.1981695 ,Left ,56,9633166309819 ,51,1504979938434 ,62,7439731320557
12.2207349 ,Left ,56,9245263194474 ,51,1445454814087 ,62,8302808369082
12.2357039 ,Left ,56,8757739948138 ,51,1394821438933 ,62,9542947219732
12.2580866 ,Left ,56,823846795773 ,51,1189233693639 ,63,0898669604943
12.2803689 ,Left ,56,8200118049659 ,51,0964216429488 ,63,2533399297893
12.2954014 ,Left ,56,8121873127279 ,51,0875423757851 ,63,4081978937949
12.318121 ,Left ,56,736894988508 ,51,1136059902957 ,63,5218509390035
12.3403776 ,Left ,56,6576155840952 ,51,1685109528732 ,63,6025464093488
12.3555566 ,Left ,56,700221336069 ,51,2447869032555 ,63,6734233168455
12.3781012 ,Left ,56,7410902016616 ,51,3335304724722 ,63,7325317001333
12.4006372 ,Left ,56,7013428700311 ,51,4547548366725 ,63,744241431634
12.4157587 ,Left ,56,696225905019 ,51,582039935927 ,63,7339282387871
12.4383257 ,Left ,56,748954448829 ,51,6268889495569 ,63,6979651954802
12.4609292 ,Left ,56,7785590672095 ,51,5707608510585 ,63,6478579386098
12.4757781 ,Left ,56,7555854745655 ,51,4715085572008 ,63,612334021367
12.4979653 ,Left ,56,7002805960622 ,51,3479985791791 ,63,5950814997584
12.5205985 ,Left ,56,6665479449072 ,51,2069124354905 ,63,5861865991204
12.535489 ,Left ,56,666752500162 ,51,0684873950961 ,63,576359158763
12.5579869 ,Left ,56,7005879433701 ,50,9421624106196 ,63,5629656575172
12.5805588 ,Left ,56,7502260753469 ,50,7610559026872 ,63,525940237561
12.5954327 ,Left ,56,7546848373848 ,50,5604237185209 ,63,4510430754184
12.6181712 ,Left ,56,7700841366302 ,50,4327209996727 ,63,4438753468373
12.6406813 ,Left ,56,8440286112625 ,50,3892564138992 ,63,4425844452718
12.6556795 ,Left ,56,8621198573324 ,50,3600633744842 ,63,4294197173476
12.6780352 ,Left ,56,8669924889983 ,50,3713521748656 ,63,447635931527
12.6959105 ,Left ,56,8748106400157 ,50,396412979634 ,63,4561142755598
12.7155584 ,Left ,56,8454592088189 ,50,3709239858406 ,63,4123962472607
12.7381069 ,Left ,56,8224283013215 ,50,3036785492807 ,63,3776594697959
12.7559558 ,Left ,56,8555312300191 ,50,2575734011779 ,63,4123998133163
12.7769922 ,Left ,56,8429779357738 ,50,2568618302325 ,63,4412935788196
12.7979261 ,Left ,56,803747558879 ,50,3002449312766 ,63,4421995597758
12.8161108 ,Left ,56,7679953166644 ,50,3514873287099 ,63,4410627720396
12.8369629 ,Left ,56,7806964414943 ,50,3662385953227 ,63,4369106645314
12.8581539 ,Left ,56,7739597372826 ,50,3368007672633 ,63,4363642837954
12.8759323 ,Left ,56,7917571878154 ,50,3085078879969 ,63,4382692313808
12.8970013 ,Left ,56,7571168001646 ,50,2861825529631 ,63,4319412087582
12.9181452 ,Left ,56,6716499183483 ,50,2729555585697 ,63,4400562726948
12.9361476 ,Left ,56,6536899191184 ,50,2729409711251 ,63,4357778851608
12.9569725 ,Left ,56,6507872032388 ,50,2771293561327 ,63,4319387317914
12.9781207 ,Left ,56,6319690033442 ,50,2804485545742 ,63,4459057152209
13.0020128 ,Left ,56,5981077361821 ,50,286166186323 ,63,4503342568776
13.0170807 ,Left ,56,5311180938874 ,50,292461435322 ,63,4272670733703
13.0380916 ,Left ,56,5010390715135 ,50,3137223580323 ,63,3789029648396
13.0559098 ,Left ,56,4758611541892 ,50,3803595081182 ,63,3511196740353
13.0786592 ,Left ,56,5374281052807 ,50,5058535441485 ,63,3391317219914
13.0980588 ,Left ,56,6089203836769 ,50,6353325433724 ,63,3054874934923
13.1236393 ,Left ,56,673625276693 ,50,6919169846376 ,63,2517511284827
13.1386871 ,Left ,56,7247680560372 ,50,6960700349483 ,63,228227453074
13.1580393 ,Left ,56,700900869023 ,50,6545054217519 ,63,2379229250579
13.1807275 ,Left ,56,6928406639373 ,50,6414178476093 ,63,2558935140635
13.1984915 ,Left ,56,6126532147021 ,50,6398972545115 ,63,2634261550375
13.2181375 ,Left ,56,5574000839219 ,50,6615324104901 ,63,244724406702
13.2436618 ,Left ,56,6260863032923 ,50,7066573831125 ,63,2712008569551
13.2584102 ,Left ,56,6508489113925 ,50,759314590165 ,63,3007466517467
13.277918 ,Left ,56,6755207463435 ,50,8155656715506 ,63,3141174428868
13.295934 ,Left ,56,7603290211663 ,50,8919986706761 ,63,3354765698111
13.3186508 ,Left ,56,7736671464503 ,50,9727379981797 ,63,3597910389198
13.3383285 ,Left ,56,7718752724967 ,51,0369457124571 ,63,4242295642823
13.3560007 ,Left ,56,7912850007448 ,51,089170604239 ,63,4908952273873
13.3787148 ,Left ,56,7428838197686 ,51,1512867126297 ,63,5510594062718
13.401137 ,Left ,56,6667351511074 ,51,2017475031231 ,63,5893047112711
13.420852 ,Left ,56,6901615325757 ,51,2574682006563 ,63,6204984296335
13.4386091 ,Left ,56,6880551619963 ,51,2937625490593 ,63,6091942451229
13.4579554 ,Left ,56,7077980104645 ,51,3415511682996 ,63,5448173287155
13.4806679 ,Left ,56,8133217547455 ,51,349442368782 ,63,4654024219379
13.4982662 ,Left ,56,9227823067138 ,51,2933242547223 ,63,3739624738736
13.5195319 ,Left ,56,9315001165796 ,51,2281280306112 ,63,3205166787232
13.5404925 ,Left ,56,929627200083 ,51,1368839440855 ,63,2573263532635
13.558695 ,Left ,57,028882629401 ,51,0244694044772 ,63,1725070199752
13.5782127 ,Left ,57,110615733767 ,50,9619116049647 ,63,0638834864102
13.6004737 ,Left ,57,1098154876171 ,50,907670774933 ,62,9727349085493
13.6183602 ,Left ,57,0629962244732 ,50,878534113676 ,62,8889008184698
13.6379563 ,Left ,57,0236181803085 ,50,8870021038213 ,62,8036892675869
13.6559922 ,Left ,57,0383346739823 ,50,9097067852191 ,62,7204828178851
13.678543 ,Left ,57,049840864326 ,50,9335618398378 ,62,6452557398743
13.6996858 ,Left ,56,9935040476504 ,50,9753432091936 ,62,620337058972
13.7159742 ,Left ,56,9318970804376 ,51,0366841638107 ,62,6249953023019
13.7384896 ,Left ,56,8902130027281 ,51,0999474618197 ,62,6107395697334
13.7594428 ,Left ,56,8679841404426 ,51,1507066461863 ,62,587585772186
13.7758057 ,Left ,56,8434787375359 ,51,1954730990015 ,62,5995010677363
13.7975596 ,Left ,56,8239470661751 ,51,2433319942414 ,62,6249089548744
13.818754 ,Left ,56,8064698653443 ,51,2676669403216 ,62,6584724294496
13.8350631 ,Left ,56,7949112166643 ,51,2511124056668 ,62,6897837162737
13.8577903 ,Left ,56,7886432880988 ,51,2149498955046 ,62,7108136074133
13.879075 ,Left ,56,7680150004314 ,51,206849050373 ,62,6952719239538
13.8953402 ,Left ,56,7173679990469 ,51,2332054872349 ,62,6477735092516
13.917664 ,Left ,56,6650086931245 ,51,2755823647616 ,62,6184052358788
13.9390763 ,Left ,56,61021878275 ,51,3280021841994 ,62,5867569931492
13.9546621 ,Left ,56,5588202083267 ,51,3713245532215 ,62,527880092202
13.9777906 ,Left ,56,5318971873537 ,51,4114380372177 ,62,4541814677148
14.000281 ,Left ,56,6295720303449 ,51,4263119759401 ,62,318399605947
14.0146784 ,Left ,56,708592096594 ,51,357398763486 ,62,1910066386939
14.0378682 ,Left ,56,7372353788166 ,51,2420940451952 ,62,0976427937685
14.0603393 ,Left ,56,7640982286202 ,51,1072712299991 ,62,0314294142621
14.0750226 ,Left ,56,7531779962512 ,50,9865670990493 ,61,9705852836622
14.0976002 ,Left ,56,7329788054372 ,50,8827628519375 ,61,9513140645633
14.1201457 ,Left ,56,7136590646055 ,50,8484543297751 ,61,9776481423897
14.1343518 ,Left ,56,7001923861075 ,50,8681340823953 ,62,0340631941733
14.1575337 ,Left ,56,7118487470682 ,50,9113080960424 ,62,1154659411922
14.1798111 ,Left ,56,724889148223 ,50,9528874961998 ,62,1927190345882
14.19424 ,Left ,56,7085256102803 ,51,004606928273 ,62,2558850474949
14.2174833 ,Left ,56,6647346123924 ,51,0824712760236 ,62,3195326727413
14.2399492 ,Left ,56,6342098266802 ,51,1672168492687 ,62,3777727885406
14.2542025 ,Left ,56,6606201530047 ,51,2533700322771 ,62,4219081061995
14.277489 ,Left ,56,6586276578236 ,51,3272797750076 ,62,4661936931537
14.300173 ,Left ,56,6613172924228 ,51,4158228485311 ,62,4957713047944
14.3147581 ,Left ,56,6660239345519 ,51,5186766998156 ,62,5113044959729
14.3380953 ,Left ,56,6348218035886 ,51,5906011897764 ,62,5302946707316
14.3605506 ,Left ,56,5741317950674 ,51,5983431821464 ,62,5491434264294
14.3815698 ,Left ,56,5582172776943 ,51,630169420527 ,62,5994845244717
14.3977586 ,Left ,56,4808924303558 ,51,7341345108482 ,62,5719837793382
14.4203079 ,Left ,56,5208683974027 ,51,8751764986484 ,62,4920822277689
14.4410552 ,Left ,56,6951750425722 ,51,9473754589877 ,62,4359152988448
14.4574792 ,Left ,56,8257658403885 ,51,9194934764467 ,62,3994699677826
14.4801493 ,Left ,56,8703565368426 ,51,8495581377048 ,62,378523050263
14.5008953 ,Left ,56,8611122402407 ,51,7800598259044 ,62,3538685306869
14.5177463 ,Left ,56,8305239811289 ,51,7032019928201 ,62,3036714542119
14.5402298 ,Left ,56,8093059889112 ,51,634677678258 ,62,2648202601532
14.5611707 ,Left ,56,86714936252 ,51,5879138312268 ,62,2661341462149
14.5776192 ,Left ,56,927827798109 ,51,580990904123 ,62,2770853502997
14.6001103 ,Left ,56,9335390364745 ,51,6248267703985 ,62,294849910322
14.6288301 ,Left ,56,9023962243458 ,51,6753571733792 ,62,3196751353159
14.637639 ,Left ,56,8945801087275 ,51,7086404367053 ,62,362867180271
14.6601825 ,Left ,56,9448240826764 ,51,7614257881384 ,62,3788518788364
14.6811027 ,Left ,56,9679447126932 ,51,7961565221603 ,62,4078209035356
14.6975039 ,Left ,56,9254924614169 ,51,8081491567079 ,62,4643205491841
14.7202503 ,Left ,56,8851102930449 ,51,7969491729705 ,62,5717319209668
14.7411047 ,Left ,56,9535945827695 ,51,7667986396284 ,62,6714154059311
14.7569966 ,Left ,57,0210188754879 ,51,711516691159 ,62,7647143844957
14.7801533 ,Left ,57,0196464225484 ,51,6761573931376 ,62,7577142633287
14.801075 ,Left ,57,0514111270211 ,51,6328484438987 ,62,7046005804662
14.8168494 ,Left ,57,1831570788296 ,51,543253425304 ,62,6756951604054
14.839965 ,Left ,57,25975657954 ,51,4072911845633 ,62,65480059287
14.8611131 ,Left ,57,3224693945408 ,51,2800121853665 ,62,6125207930455
14.8769575 ,Left ,57,2940584895383 ,51,1565670641624 ,62,5348255228347
14.9060989 ,Left ,57,1906683134666 ,51,053342915574 ,62,4550064173544
14.9212406 ,Left ,57,1207007375639 ,50,9804886046178 ,62,4137309981963
14.9373012 ,Left ,57,1023486436233 ,50,9538916512638 ,62,441721332963
14.9601605 ,Left ,57,0764400554425 ,50,9887213321471 ,62,4980660933169
14.9826777 ,Left ,57,0797969869202 ,51,041782808814 ,62,5177949154594
14.997049 ,Left ,57,0749382466691 ,51,0624367135245 ,62,5304802520913
15.0202086 ,Left ,57,0171144008512 ,51,07890685775 ,62,5960290310485
15.0427076 ,Left ,56,9738968338374 ,51,1280967726938 ,62,7164570437483
15.0571679 ,Left ,56,9451154267585 ,51,1795971159725 ,62,8389775402978
15.0802537 ,Left ,56,9082741090262 ,51,1987614804245 ,62,9705621668233
15.1026347 ,Left ,56,880076181829 ,51,2200083563082 ,63,1273782876046
15.1238359 ,Left ,56,9182305899107 ,51,2514593743529 ,63,2571459092906
15.1401655 ,Left ,56,9399891260748 ,51,2817420515044 ,63,3629825223981
15.1626243 ,Left ,56,8398820133241 ,51,3267754824212 ,63,4335450635935
15.1852514 ,Left ,56,7756324071666 ,51,3795229166144 ,63,4543871409791
15.200043 ,Left ,56,6809478197457 ,51,4433614689254 ,63,4538096341133
15.2226488 ,Left ,56,6140758880189 ,51,5368014431537 ,63,4159187623782
15.2435734 ,Left ,56,6304961820262 ,51,6381211560142 ,63,3746365952413
15.2601509 ,Left ,56,7314124280418 ,51,6919740259986 ,63,3196623403981
15.282579 ,Left ,56,7471189597912 ,51,6424995836885 ,63,2692083032221
15.3037032 ,Left ,56,7129819313455 ,51,5481565585496 ,63,2224380026038
15.3203228 ,Left ,56,6857660020826 ,51,4399075501178 ,63,1891610525405
15.3428139 ,Left ,56,6423458632351 ,51,3219463356297 ,63,1623662846701
15.3641782 ,Left ,56,6131216283069 ,51,2335533768816 ,63,1235260488572
15.3803141 ,Left ,56,6085807579947 ,51,1759800226206 ,63,1030383236676
15.4028512 ,Left ,56,6307949839396 ,51,1380387750602 ,63,1038353763583
15.4240836 ,Left ,56,6669507203891 ,51,103985882309 ,63,0986156442763
15.4403189 ,Left ,56,7101617375598 ,51,0758006641529 ,63,0936356617068
15.4629659 ,Left ,56,7170139255409 ,51,0675397078361 ,63,0750184715146
15.4838691 ,Left ,56,6934481486655 ,51,112180023848 ,63,0566450643659
15.5002818 ,Left ,56,656795521847 ,51,190789089896 ,63,0567557992959
15.5227983 ,Left ,56,6975624526702 ,51,2804813807627 ,63,0654095163559
15.5440104 ,Left ,56,751352491337 ,51,3673495258334 ,63,0362561385254
15.5601658 ,Left ,56,802957969396 ,51,3913284671862 ,63,0038504115738
15.5830051 ,Left ,56,7814419110904 ,51,3493979791073 ,62,9974872211402
15.6038727 ,Left ,56,7257747698861 ,51,2882144624095 ,62,9758659757909
15.6201823 ,Left ,56,6696668689609 ,51,2367287743825 ,62,9502508067901
15.6426764 ,Left ,56,613141166432 ,51,2106716948754 ,62,9176921781252
15.6639948 ,Left ,56,6020018490233 ,51,2314204955543 ,62,9121196960801
15.6801221 ,Left ,56,6269486603307 ,51,2561817524355 ,62,9211072826468
15.7026753 ,Left ,56,6181171548682 ,51,3228587522893 ,62,9437836144817
15.7240568 ,Left ,56,6159571821328 ,51,3909689841897 ,62,9784772053225
15.7402465 ,Left ,56,6705709314487 ,51,4489641112568 ,63,0184297379917
15.7627597 ,Left ,56,6430074947722 ,51,528522389887 ,63,0635155796272
15.7840614 ,Left ,56,5784729464637 ,51,5911865751968 ,63,1290284521374
15.8001841 ,Left ,56,5975177169408 ,51,6474246294363 ,63,192293841002
15.8228096 ,Left ,56,5653369525876 ,51,6699034865582 ,63,2883279656693
15.8437634 ,Left ,56,513049892464 ,51,7021304282626 ,63,3791358595921
15.8595429 ,Left ,56,6214595467831 ,51,7408458751169 ,63,4213996748313
15.8827102 ,Left ,56,6830083993744 ,51,7289426341129 ,63,434309135089
15.9052126 ,Left ,56,6286229021935 ,51,7341489445831 ,63,4032259009587
15.9265216 ,Left ,56,6337294378035 ,51,7530524064753 ,63,3500801690604
15.9427968 ,Left ,56,6622465077348 ,51,7163275895451 ,63,2458752487417
15.9652626 ,Left ,56,7125036219075 ,51,6732010965315 ,63,0854849288252
15.9795766 ,Left ,56,7710220807445 ,51,6225350420197 ,62,9587393631093
16.0030328 ,Left ,56,8524506733968 ,51,5026060675873 ,62,8535933308245
16.0253027 ,Left ,56,9060594695583 ,51,3760624913372 ,62,7338839208085
16.0396134 ,Left ,56,9084000247443 ,51,2997088871269 ,62,5935619851083
16.0627764 ,Left ,56,8489123855527 ,51,2700388342194 ,62,4649019676457
16.0852255 ,Left ,56,8633994776626 ,51,2670951157685 ,62,3545181106851
16.1063459 ,Left ,56,8396118332415 ,51,2468796021454 ,62,2675425944413
16.1226416 ,Left ,56,8070069577813 ,51,2357192262283 ,62,2157552071081
16.1453043 ,Left ,56,7572106852845 ,51,2412255347081 ,62,191825395849
16.1665024 ,Left ,56,6802688358448 ,51,2806814791385 ,62,1995618106725
16.1827055 ,Left ,56,6135748457502 ,51,3448512468146 ,62,2060466789304
16.20515 ,Left ,56,5473122378016 ,51,4131070909641 ,62,1871721746367
16.2193043 ,Left ,56,4832729051148 ,51,4714403196098 ,62,1495711919857
16.2426708 ,Left ,56,4524128048047 ,51,5084842550224 ,62,1407537484051
16.2651848 ,Left ,56,4780649934719 ,51,4978038542281 ,62,1909434599498
16.2796707 ,Left ,56,5134768284101 ,51,4648715362547 ,62,2563074877678
16.3028402 ,Left ,56,4671032763615 ,51,4614326708257 ,62,2711575189934
16.325445 ,Left ,56,4553286087467 ,51,4516995920609 ,62,2779146666855
16.3396253 ,Left ,56,4666096755949 ,51,4315067667056 ,62,2812444339768
16.3628753 ,Left ,56,4389469215902 ,51,4171615755469 ,62,2446608337692
16.385298 ,Left ,56,4786683232537 ,51,4144166304889 ,62,1636298302212
16.4066827 ,Left ,56,6050543995445 ,51,3957214783636 ,62,0264965874117
16.4228224 ,Left ,56,670494173406 ,51,3004614128419 ,61,9024627592359
16.4453398 ,Left ,56,6666617585195 ,51,1945883734294 ,61,8160059379123
16.4665684 ,Left ,56,6061525214283 ,51,1129778792639 ,61,7737214149239
16.4829022 ,Left ,56,5639943318419 ,51,0621631339434 ,61,7660042965412
16.5053524 ,Left ,56,5946363524459 ,51,0524418735277 ,61,7886280191921
16.534079 ,Left ,56,6562478381856 ,51,0677361618813 ,61,8287413888087
16.5429433 ,Left ,56,6855312428495 ,51,0886245717595 ,61,8814425018622
16.5650663 ,Left ,56,6632877882611 ,51,1231155949312 ,61,9359339840243
16.5866023 ,Left ,56,6184132270505 ,51,1639376319886 ,62,0121121235982
16.6029459 ,Left ,56,5780497952708 ,51,2120664352441 ,62,0990954552101
16.6253507 ,Left ,56,5635126244875 ,51,2443632277274 ,62,1703418176043
16.6466674 ,Left ,56,587831115645 ,51,262614789676 ,62,2372852103186
16.6628697 ,Left ,56,6054893383745 ,51,3107742243639 ,62,2869909769682
16.6851329 ,Left ,56,5884947306263 ,51,3793998432368 ,62,3002089062766
16.7066133 ,Left ,56,5353227299165 ,51,5009142359291 ,62,2929498891953
16.7221602 ,Left ,56,5074369513086 ,51,6578087312956 ,62,3312882488232
16.7454572 ,Left ,56,5544645963133 ,51,8186927331201 ,62,3853467399977
16.7665516 ,Left ,56,6927058145609 ,51,9193432117831 ,62,3971328437172
16.7820562 ,Left ,56,8660164055086 ,51,9169315949473 ,62,3749128940262
16.805296 ,Left ,56,916437374395 ,51,8531298229226 ,62,3325324659357
16.8264228 ,Left ,56,8231022912642 ,51,8160419340802 ,62,2824136813693
16.8416966 ,Left ,56,785997018677 ,51,7651864766296 ,62,2307197324698
16.8651254 ,Left ,56,8281803894542 ,51,682257971633 ,62,1825210541856
16.8881582 ,Left ,56,8775152762609 ,51,6011978112447 ,62,1466929303775
16.9026063 ,Left ,56,9401886424548 ,51,5482511580389 ,62,1384714353464
16.9248908 ,Left ,56,9784812078458 ,51,5343368042969 ,62,1636994844971
16.9475684 ,Left ,56,934399075399 ,51,5611683176022 ,62,2134313685068
16.9627123 ,Left ,56,861497899731 ,51,6131181635321 ,62,258382375077
16.9851969 ,Left ,56,8622772073446 ,51,6627380861223 ,62,3002590514803
17.0077891 ,Left ,56,9016912146229 ,51,6970114737882 ,62,3417922189726
17.0222111 ,Left ,56,9201018544455 ,51,6970885138011 ,62,3942048397057
17.0455019 ,Left ,56,9130539163938 ,51,648453959187 ,62,488608996744
17.0680491 ,Left ,56,9534304000369 ,51,5914024008631 ,62,5812247186968
17.0891325 ,Left ,56,971402707994 ,51,5038374325383 ,62,6683151826231
17.1054282 ,Left ,56,9846162818242 ,51,4397368086545 ,62,6674240561206
17.1282321 ,Left ,57,0595894553139 ,51,3483466728356 ,62,6040760001981
17.1488893 ,Left ,57,1835751865588 ,51,2226936696867 ,62,5469631290013
17.1652286 ,Left ,57,1985038088443 ,51,1070646388515 ,62,4736537140191
17.187947 ,Left ,57,0775766432394 ,51,0311836265182 ,62,3988115859883
17.2090726 ,Left ,56,9463546911314 ,50,9999075501097 ,62,3796880595132
17.2253275 ,Left ,56,9270858373243 ,51,0148682317795 ,62,4172217320369
17.2477296 ,Left ,56,9614178586854 ,51,0709160541553 ,62,4538097328488
17.269071 ,Left ,56,9744161253627 ,51,1434343667122 ,62,4855703044292
17.2852954 ,Left ,56,9160843351791 ,51,1875916798357 ,62,555287828523
17.3077359 ,Left ,56,8535350004138 ,51,2126491654791 ,62,6542381493546
17.3290315 ,Left ,56,8106411170755 ,51,2287778847761 ,62,7684558362362
17.3453812 ,Left ,56,7948617450285 ,51,2495929824472 ,62,8918723912634
17.3678198 ,Left ,56,7735514393958 ,51,2612701404421 ,63,0189409208312
17.3890338 ,Left ,56,8016127026744 ,51,286454440456 ,63,1930329386606
17.4053506 ,Left ,56,8639825328291 ,51,2934886744697 ,63,3400917211063
17.4277535 ,Left ,56,8741567425323 ,51,294999748397 ,63,4720066026649
17.4487366 ,Left ,56,8029849816747 ,51,3311432860167 ,63,5599433817446
17.4645711 ,Left ,56,7291838011403 ,51,3637660282663 ,63,5940659526466
17.487633 ,Left ,56,676072388658 ,51,4199897810435 ,63,6192900713031
17.5087016 ,Left ,56,7047830868911 ,51,4883065509509 ,63,5981836093108
17.5250284 ,Left ,56,7387029104885 ,51,552634605944 ,63,5374488333937
17.5476473 ,Left ,56,7860133198045 ,51,5777107430171 ,63,469884469009
17.5691016 ,Left ,56,7995788555756 ,51,5545709811136 ,63,4121136250418
17.5848754 ,Left ,56,7312483061769 ,51,4603321245028 ,63,3865623994975
17.6076584 ,Left ,56,6834109927394 ,51,354770515357 ,63,3724735989928
17.6287195 ,Left ,56,7102380620626 ,51,2822463458504 ,63,3486738180162
17.6445812 ,Left ,56,7612608697455 ,51,2285089752543 ,63,343457129789
17.6678331 ,Left ,56,7549297180309 ,51,1796436082663 ,63,3158143508054
17.6888224 ,Left ,56,6663454676001 ,51,2082236673857 ,63,3021841159812
17.7045783 ,Left ,56,6121424944254 ,51,3358792524448 ,63,2935261029691
17.7120237 ,Left ,56,6661414379312 ,51,4960191685151 ,63,2709664587808
17.7330478 ,Left ,56,7668124706384 ,51,5681399584683 ,63,2479956826673
17.7556181 ,Left ,56,8518985811289 ,51,5376674350989 ,63,227081564811
17.7720606 ,Left ,56,8396681456505 ,51,4475110719876 ,63,2125636507489
17.7932492 ,Left ,56,7969888900957 ,51,3501335637876 ,63,2033648117344
17.8156048 ,Left ,56,7426751396067 ,51,2798173220889 ,63,1792335721834
17.8395311 ,Left ,56,6761256853956 ,51,2833684321672 ,63,1541942247571
17.853061 ,Left ,56,6564642008577 ,51,3482196929551 ,63,1315826745102
17.875592 ,Left ,56,6228903168289 ,51,4340270667876 ,63,112278841815
17.8904985 ,Left ,56,6282739455381 ,51,5025695007839 ,63,1180673377332
17.9130548 ,Left ,56,6831335044596 ,51,5530837876442 ,63,1179538276792
17.9355153 ,Left ,56,6201823864719 ,51,5872655351254 ,63,1149130660224
17.9581171 ,Left ,56,5764084992934 ,51,5978209355314 ,63,1693837906957
17.9730404 ,Left ,56,531858332502 ,51,6302442809222 ,63,2398650177946
17.9956688 ,Left ,56,4650401430481 ,51,6706286779463 ,63,2956766193423
18.0103905 ,Left ,56,4695950577147 ,51,657025419253 ,63,3103679439418
18.0331325 ,Left ,56,5980072449405 ,51,5971370834913 ,63,3538703884208
18.055511 ,Left ,56,5400751348508 ,51,5692785132911 ,63,3242839052733
18.0719418 ,Left ,56,5365583448066 ,51,5996298564384 ,63,263675873473
18.0932462 ,Left ,56,6798124244765 ,51,5928077179609 ,63,167719661958
18.1171717 ,Left ,56,8257649912665 ,51,5197608287815 ,63,054698743742
18.132192 ,Left ,56,9102699469446 ,51,4463897764157 ,62,9799202531341
18.1534821 ,Left ,56,9437910326769 ,51,332637401094 ,62,9118937405417
18.1758614 ,Left ,57,0267565665219 ,51,2400632446274 ,62,8016520443509
18.192138 ,Left ,57,0580125363708 ,51,1745290407128 ,62,6802849254091
18.2134237 ,Left ,57,0426669907173 ,51,1579056897189 ,62,5513997438699
18.2372765 ,Left ,57,0408748694682 ,51,17724742522 ,62,4417643974931
18.2520447 ,Left ,57,059001819023 ,51,2178709768689 ,62,3679611851509
18.2743816 ,Left ,57,0623675913283 ,51,277194181286 ,62,2864335855983
18.2955671 ,Left ,57,0068530317453 ,51,3401488517733 ,62,2043188063567
18.311856 ,Left ,56,898051736462 ,51,3935623961898 ,62,1535850376202
18.3331233 ,Left ,56,8302958580181 ,51,4475517945491 ,62,1361530956279
18.355466 ,Left ,56,8078524354527 ,51,4942576078864 ,62,129109951955
18.3706918 ,Left ,56,7513481380561 ,51,5337120728191 ,62,1286701426741
18.3946219 ,Left ,56,6252337929871 ,51,5680323591982 ,62,1176486080851
18.4156874 ,Left ,56,5251691770713 ,51,5746839883056 ,62,1632079564218
18.4319364 ,Left ,56,5880013830345 ,51,5755781857931 ,62,2787789233427
18.4531281 ,Left ,56,6456737282151 ,51,5904609216444 ,62,3601497345331
18.4756586 ,Left ,56,5958085569903 ,51,6021357788929 ,62,3818791840808
18.4933119 ,Left ,56,4993131972759 ,51,5948011873607 ,62,3392978213981
18.5143136 ,Left ,56,4248522706121 ,51,5890176090907 ,62,311133014469
18.53534 ,Left ,56,375842817458 ,51,5897110791528 ,62,3092312654858
18.5516946 ,Left ,56,2945986834925 ,51,596226079897 ,62,2719288279461
18.5728569 ,Left ,56,3355987537246 ,51,6257181529188 ,62,1987634994701
18.5953004 ,Left ,56,4911249020519 ,51,635375165243 ,62,0724923565663
18.6118743 ,Left ,56,608092166919 ,51,5722461815122 ,61,9604530371792
18.6327695 ,Left ,56,6628421065605 ,51,47222201678 ,61,8385683965316
18.6553698 ,Left ,56,6127302388833 ,51,3332075145288 ,61,7601997374897
18.6733448 ,Left ,56,5488736556805 ,51,2229628094876 ,61,749078835884
18.6931551 ,Left ,56,560123983587 ,51,2002166706669 ,61,7769913461416
18.7156357 ,Left ,56,5656182392967 ,51,2098852547423 ,61,8266046813454
18.7320253 ,Left ,56,5713669465771 ,51,2602849741101 ,61,9194436958121
18.7531114 ,Left ,56,5897842143014 ,51,3236183888889 ,62,0187507309225
18.7754099 ,Left ,56,6071345413022 ,51,3687641868249 ,62,0953116954659
18.7935806 ,Left ,56,5662106274413 ,51,4675489163521 ,62,1442674880138
18.8133117 ,Left ,56,5074877893078 ,51,6063469291838 ,62,2044819700482
18.8356491 ,Left ,56,634864781758 ,51,736795113771 ,62,2731283232554
18.8536799 ,Left ,56,763649939771 ,51,8027326044045 ,62,2941866465847
18.8731574 ,Left ,56,8328796447193 ,51,81642685718 ,62,260341012346
18.8957207 ,Left ,56,8894117381379 ,51,7918942807979 ,62,2046576964299
18.9136927 ,Left ,56,9282148618971 ,51,7321264463349 ,62,12529637138
18.9332659 ,Left ,56,9241303617764 ,51,6618042815911 ,62,0117966242084
18.9555314 ,Left ,56,9075880660399 ,51,5775881225903 ,61,9061720441298
18.9736713 ,Left ,56,9136452005197 ,51,5323071504482 ,61,8323669213902
18.9929491 ,Left ,56,9900773968299 ,51,5112866805292 ,61,7821014413976
19.0155336 ,Left ,57,0394982285471 ,51,5352038554606 ,61,7625260779574
19.0336223 ,Left ,57,0252651529432 ,51,6110698733234 ,61,7961134511718
19.0529787 ,Left ,56,9520151393575 ,51,6958943980866 ,61,8533081377875
19.0708707 ,Left ,56,9288694053983 ,51,7806459526104 ,61,9154844448076
19.0935281 ,Left ,56,9557594960467 ,51,8643501359081 ,61,9714133813272
19.1133601 ,Left ,56,9820408308794 ,51,9250502842279 ,62,039469862497
19.13101 ,Left ,56,9681747601547 ,51,9434859581158 ,62,1251651185914
19.1536392 ,Left ,56,9498667291445 ,51,9236983289596 ,62,2288484127186
19.1732176 ,Left ,56,943311840506 ,51,8814105508758 ,62,3327344934316
19.191131 ,Left ,56,9152129047629 ,51,8061414811605 ,62,3554872741954
19.213804 ,Left ,56,9099933662443 ,51,7004304907617 ,62,2991384255403
19.2333912 ,Left ,56,9748253011564 ,51,5608323080574 ,62,2745915601241
19.2558474 ,Left ,57,0294594477594 ,51,4285491985485 ,62,3079814186818
19.2736957 ,Left ,57,0967525499747 ,51,3271412669533 ,62,2924417759494
19.2933534 ,Left ,57,1351666005901 ,51,2263712700377 ,62,2664068776213
19.3157123 ,Left ,57,0858941242605 ,51,1513063295786 ,62,2058213140087
19.3337792 ,Left ,57,0235686465021 ,51,087104387962 ,62,1758970244589
19.3547325 ,Left ,56,9685332448242 ,51,0517350177953 ,62,1931401648235
19.3758968 ,Left ,56,915853528057 ,51,0870071630972 ,62,2053731098764
19.3935858 ,Left ,56,9085155484473 ,51,147299277144 ,62,1698222620455
19.4147389 ,Left ,56,937762798486 ,51,1944745723038 ,62,113783499161
19.4311281 ,Left ,56,9578597805995 ,51,2214564398361 ,62,1013250702785
19.4536898 ,Left ,56,9200413865536 ,51,2531696044463 ,62,1231075857454
19.4746592 ,Left ,56,8562611907167 ,51,3111023796653 ,62,1413906294875
19.4911576 ,Left ,56,8184851048008 ,51,3900644471743 ,62,1444477004245
19.5136881 ,Left ,56,8222766593402 ,51,462346146267 ,62,1749025815889
19.5347197 ,Left ,56,8019212294031 ,51,5237674382266 ,62,2182868938512
19.5510765 ,Left ,56,7807593250503 ,51,601799206378 ,62,2808745371472
19.5737484 ,Left ,56,7515169045187 ,51,6657003781881 ,62,3561120550042
19.5940886 ,Left ,56,6795011391986 ,51,6865018482427 ,62,4668113561257
19.6165666 ,Left ,56,6646515565538 ,51,6735844471735 ,62,5987933541654
19.6327919 ,Left ,56,6767085129713 ,51,6677406912699 ,62,7624559556965
19.6541446 ,Left ,56,6064693546735 ,51,6714214799468 ,62,9081858773955
19.6765642 ,Left ,56,6029963277373 ,51,6871251617262 ,63,0619770481124
19.6928321 ,Left ,56,7114201863484 ,51,6844120319442 ,63,2218212955261
19.7153128 ,Left ,56,8148892543833 ,51,6240529238744 ,63,359418438274
19.7366117 ,Left ,56,8299375922227 ,51,5436754173307 ,63,4902105183096
19.752782 ,Left ,56,735114070489 ,51,4994042988781 ,63,5616406385361
19.7750998 ,Left ,56,6840763866611 ,51,5110769168714 ,63,5935458430053
19.796701 ,Left ,56,6985497627601 ,51,5505652883355 ,63,5965413460078
19.8129592 ,Left ,56,6950945479689 ,51,6076904019847 ,63,5703671875124
19.8353414 ,Left ,56,656446489085 ,51,6923420409667 ,63,5149341116813
19.8496098 ,Left ,56,68412992882 ,51,741643825337 ,63,4462468555931
19.8728748 ,Left ,56,7092862486392 ,51,6970256653665 ,63,3890453111939
19.9029094 ,Left ,56,6937821299665 ,51,5951501394486 ,63,3629336388365
19.9165697 ,Left ,56,6255724024865 ,51,4695265818091 ,63,3761441427529
19.9403018 ,Left ,56,6239649875543 ,51,3864874098063 ,63,4023403581749
19.955288 ,Left ,56,5705156727856 ,51,3250912643293 ,63,3897981960897
19.9766009 ,Left ,56,5148817172762 ,51,3523786560919 ,63,3515790129913
19.9928659 ,Left ,56,4778251216424 ,51,4492650084705 ,63,32952522093
20.0154196 ,Left ,56,4743691716 ,51,568476579019 ,63,306112264335
20.0366157 ,Left ,56,5250622159112 ,51,605693194134 ,63,26998086352
20.0528998 ,Left ,56,5960186211932 ,51,5586728080446 ,63,2493552710075
20.0753389 ,Left ,56,5809526115463 ,51,495956638158 ,63,2350205785652
20.0896288 ,Left ,56,5428139591532 ,51,4738529457917 ,63,2336615601549
20.1128722 ,Left ,56,5238898768967 ,51,4598708069089 ,63,1888867121848
20.1349189 ,Left ,56,5327712563402 ,51,487889344034 ,63,1467285816844
20.1495794 ,Left ,56,472879766391 ,51,5862534119541 ,63,1304743657778
20.172703 ,Left ,56,4380167387806 ,51,7243269394456 ,63,1351991388694
20.1955659 ,Left ,56,5154429873088 ,51,8132217036878 ,63,1712331373608
20.2168056 ,Left ,56,5480914744387 ,51,8891868351782 ,63,2046110256886
20.2330987 ,Left ,56,5150715405483 ,51,9353140372793 ,63,2343061318483
20.255573 ,Left ,56,493325611201 ,51,9415847376189 ,63,2862863314314
20.2767095 ,Left ,56,4859012920578 ,51,9372760924588 ,63,364170066204
20.2931728 ,Left ,56,500168445092 ,51,912104671797 ,63,4475509518379
20.3152877 ,Left ,56,5453124948193 ,51,8880214205489 ,63,4466145433913
20.3363093 ,Left ,56,5205793946114 ,51,9109157651326 ,63,4286897080747
20.3526035 ,Left ,56,5109195823147 ,51,9880514213535 ,63,3757528265332
20.3751937 ,Left ,56,6248271204089 ,52,0022824969928 ,63,3145653771308
20.3961508 ,Left ,56,731241818039 ,51,9101624620254 ,63,2094163840102
20.4126336 ,Left ,56,784832205845 ,51,7831786635905 ,63,0682951514414
20.4353536 ,Left ,56,7479474574025 ,51,6788392513981 ,62,9107453329005
20.4577239 ,Left ,56,7557562180947 ,51,5624750677429 ,62,7313475864731
20.4720556 ,Left ,56,8000978509037 ,51,4696687716755 ,62,5611372824764
20.4957978 ,Left ,56,8516496831048 ,51,4313036488511 ,62,3790631823856
20.5165209 ,Left ,56,8498398819955 ,51,4079697409032 ,62,2618408671405
20.5318417 ,Left ,56,7947046061911 ,51,4233828297956 ,62,1853035244822
20.5551494 ,Left ,56,7523131779921 ,51,4661594315081 ,62,1193054371611
20.5763398 ,Left ,56,6677354704744 ,51,4643760296037 ,62,0330494656703
20.5919781 ,Left ,56,6669105686025 ,51,4549982297377 ,61,9733826643745
20.6157908 ,Left ,56,6696848421609 ,51,4857225762091 ,61,9319317510655
20.6361225 ,Left ,56,6041615024564 ,51,5346366619525 ,61,8985608992864
20.6519426 ,Left ,56,4892174165055 ,51,5605010652885 ,61,867846007183
20.6751825 ,Left ,56,3947746873884 ,51,5590617160947 ,61,8302908282301
20.6979242 ,Left ,56,3713161478655 ,51,5436613588549 ,61,8110758156176
20.712163 ,Left ,56,4115170052652 ,51,5264811330946 ,61,831228406143
20.7353368 ,Left ,56,4035474021499 ,51,4958593290578 ,61,8639937622503
20.7579029 ,Left ,56,3479301881645 ,51,4327486957897 ,61,8580463393729
20.7734774 ,Left ,56,3234738419032 ,51,3798633327705 ,61,8477138822291
20.7952935 ,Left ,56,3392445927964 ,51,3937554721787 ,61,7402312949998
20.8177279 ,Left ,56,4372975275225 ,51,4278891369544 ,61,63485036149
20.8388143 ,Left ,56,5853278618652 ,51,3957369531881 ,61,5460463965253
20.8552633 ,Left ,56,6883970558511 ,51,3085599640618 ,61,503051049006
20.8777365 ,Left ,56,7202424063356 ,51,2165072375356 ,61,4455576316681
20.8987836 ,Left ,56,6730222566767 ,51,1236354382371 ,61,3997838704247
20.9152564 ,Left ,56,5922970184482 ,51,0652580955865 ,61,405327668366
20.9377041 ,Left ,56,5948867629297 ,51,0508380222879 ,61,4403650635851
20.95898 ,Left ,56,672828101396 ,51,0630447220947 ,61,4898495913117
20.9752092 ,Left ,56,6909000663308 ,51,0967722849606 ,61,5336440678743
20.9977193 ,Left ,56,6105723768397 ,51,1463352128956 ,61,6077493059748
21.0189468 ,Left ,56,5640090158146 ,51,216180664502 ,61,6665573152313
21.035253 ,Left ,56,5590420103357 ,51,2867625680758 ,61,6963889393043
21.0576802 ,Left ,56,554324408991 ,51,3182636339512 ,61,7304661354835
21.0720401 ,Left ,56,5697875326395 ,51,343186979436 ,61,7591952892278
21.0952978 ,Left ,56,5054769418135 ,51,3954824520109 ,61,7928075521494
21.1179638 ,Left ,56,3581160376396 ,51,488742695847 ,61,8460801249411
21.1389752 ,Left ,56,3010538905877 ,51,6077210331079 ,61,8754701443841
21.1552478 ,Left ,56,3546073880305 ,51,7507334201071 ,61,8951363181378
21.1776943 ,Left ,56,3945728470469 ,51,898927444206 ,61,9379151011996
21.1988151 ,Left ,56,3835786237866 ,52,0789773012336 ,61,9751850057528
21.2152703 ,Left ,56,4300634331216 ,52,2682817650929 ,61,9702760255
21.237741 ,Left ,56,539917781556 ,52,3594216746513 ,61,9595074130473
21.2585921 ,Left ,56,6702573503815 ,52,3441281587003 ,61,9486153415768
21.2752344 ,Left ,56,7427428658729 ,52,2579126196004 ,61,9285605940118
21.2976467 ,Left ,56,7089720979024 ,52,1626968005149 ,61,8622308213421
21.3260771 ,Left ,56,6621697030823 ,52,0749366108129 ,61,7704717624738
21.3349979 ,Left ,56,6802175700943 ,51,9614061612814 ,61,6785696416903
21.3577302 ,Left ,56,7540202054038 ,51,8327276916373 ,61,6139943877023
21.3788488 ,Left ,56,8397535456501 ,51,7273720458088 ,61,565037800322
21.3945247 ,Left ,56,8667361009084 ,51,6394345043413 ,61,5477028031331
21.4177547 ,Left ,56,8548609249382 ,51,5503107955406 ,61,5439636061836
21.4386021 ,Left ,56,8382790569083 ,51,4670893657442 ,61,5331556826853
21.454588 ,Left ,56,8195065554061 ,51,4016427191101 ,61,5193278660726
21.4776683 ,Left ,56,8227407578578 ,51,3623351003731 ,61,5299637941352
21.498842 ,Left ,56,849304489996 ,51,3289957839277 ,61,5403248745729
21.5152227 ,Left ,56,8450750792072 ,51,3074160783323 ,61,5577613106152
21.5378262 ,Left ,56,8303496793058 ,51,3066894633595 ,61,6113015348545
21.5585326 ,Left ,56,8055698760148 ,51,3367993519282 ,61,6766381525603
21.5752117 ,Left ,56,7550531060429 ,51,3906412839191 ,61,7486197854725
21.5976297 ,Left ,56,7260889172465 ,51,4462982108109 ,61,8152450267299
21.6201544 ,Left ,56,7261164252947 ,51,4859088459352 ,61,9072938124914
21.6347142 ,Left ,56,6971145707742 ,51,5239626845862 ,62,0232537805279
21.6575568 ,Left ,56,660871419894 ,51,5759985937988 ,62,1368900593627
21.6802467 ,Left ,56,6447171156684 ,51,6074604899709 ,62,2531065369705
21.7014615 ,Left ,56,6332711075371 ,51,6128163712868 ,62,3724763966435
21.7175555 ,Left ,56,5985870880072 ,51,5876315122505 ,62,5096387621811
21.740079 ,Left ,56,5469539133882 ,51,5853294812794 ,62,656532470798
21.7611227 ,Left ,56,5010883709894 ,51,5869842898445 ,62,8181122375188
21.7777087 ,Left ,56,4939034235326 ,51,564417160811 ,63,0250896351288
21.8002931 ,Left ,56,5659811845894 ,51,5543553241105 ,63,2031601912845
21.8213678 ,Left ,56,6412843263569 ,51,5183872346465 ,63,3460519515483
21.8438569 ,Left ,56,6458055661083 ,51,4218758319344 ,63,4284652605027
21.8602496 ,Left ,56,6141769603619 ,51,3812817799104 ,63,4277745434333
21.8815422 ,Left ,56,5945943642466 ,51,4021287642049 ,63,3890164194229
21.8978813 ,Left ,56,6653578119987 ,51,4891828912865 ,63,3645068162514
21.9202137 ,Left ,56,7204404061648 ,51,6152964008948 ,63,2892805416284
21.9415145 ,Left ,56,7529141165082 ,51,7282133408374 ,63,2080763631619
21.957798 ,Left ,56,7523131269435 ,51,7362114326776 ,63,1796789231563
21.9802875 ,Left ,56,7230086795286 ,51,6510856127253 ,63,1661373040482
22.0015421 ,Left ,56,6445759650631 ,51,5491329375304 ,63,133080343989
22.0177381 ,Left ,56,5908264277809 ,51,4147336595461 ,63,1142866918148
22.0402467 ,Left ,56,5808021506911 ,51,2615652630545 ,63,0953613141748
22.0612074 ,Left ,56,618094274938 ,51,1240651746915 ,63,103435182629
22.0777634 ,Left ,56,6280481254405 ,51,0499994985091 ,63,1162560092142
22.1002704 ,Left ,56,528025547559 ,51,0133537419001 ,63,1022758781999
22.1214398 ,Left ,56,4431038034056 ,51,0719047578901 ,63,0789685297796
22.137774 ,Left ,56,3995133499848 ,51,1661208384993 ,63,0705495089863
22.1602211 ,Left ,56,3785247988307 ,51,2667694132297 ,63,0658427904448
22.1810691 ,Left ,56,4344529022503 ,51,3158277352346 ,63,0472510799426
22.1975677 ,Left ,56,4833445570937 ,51,3346942680061 ,63,0106373197186
22.2199828 ,Left ,56,4233875409509 ,51,3504629771814 ,62,9934241297509
22.2413972 ,Left ,56,3439471372933 ,51,3203878123918 ,62,9979466448713
22.257709 ,Left ,56,3256335190869 ,51,1983883197493 ,63,0209767387816
22.2805226 ,Left ,56,3592744215735 ,51,0251985203967 ,63,0562387201841
22.3013577 ,Left ,56,3908134681894 ,50,8830089275397 ,63,0487824192219
22.3176242 ,Left ,56,4237948009047 ,50,8574739989598 ,62,9632814530669
22.3402481 ,Left ,56,4386994291763 ,50,8889323827193 ,62,9003445266303
22.3615316 ,Left ,56,4476488291694 ,50,9041664063145 ,62,8464948933447
22.3777089 ,Left ,56,4787069998494 ,51,0071330941206 ,62,8059510458978
22.4003248 ,Left ,56,4413117026269 ,51,1612208415386 ,62,8181347770355
22.4209963 ,Left ,56,3939365328877 ,51,3589314096357 ,62,8383383991224
22.4370877 ,Left ,56,4872036728611 ,51,5156045828215 ,62,8815210797056
22.4601998 ,Left ,56,5461259608498 ,51,6043462820468 ,62,9487596694906
22.4812164 ,Left ,56,6006590831839 ,51,6604765530618 ,63,0229749506884
22.4972367 ,Left ,56,5653514830388 ,51,7026467103193 ,63,1120561511365
22.520277 ,Left ,56,5085279647488 ,51,7302629815064 ,63,20098534585
22.5426318 ,Left ,56,58229798019 ,51,7364741067728 ,63,3019017681734
22.5570421 ,Left ,56,6079318350321 ,51,7010883287241 ,63,3946468640885
22.5800732 ,Left ,56,6087625121805 ,51,6797030462617 ,63,3923098234027
22.6028195 ,Left ,56,5852385412825 ,51,6957443740396 ,63,3598082504157
22.6170884 ,Left ,56,4853124951938 ,51,7431964350526 ,63,3281710624738
22.6402504 ,Left ,56,4854680894329 ,51,8103055723104 ,63,2698574356369
22.6630981 ,Left ,56,5488692680661 ,51,784962387561 ,63,1761727427245
22.6842347 ,Left ,56,6446375198692 ,51,6936772059437 ,63,0609891363371
22.7005441 ,Left ,56,7250205237661 ,51,6119733346576 ,62,9108034949204
22.7227989 ,Left ,56,7091867924625 ,51,5204370877352 ,62,7583483065229
22.7440347 ,Left ,56,7308481926452 ,51,3906272379345 ,62,5997890541958
22.7603093 ,Left ,56,7836493759082 ,51,2663452156143 ,62,4534079959102
22.7828018 ,Left ,56,8706578452319 ,51,216393067735 ,62,2731762592145
22.8038356 ,Left ,56,8897037088546 ,51,1798679842604 ,62,1191994165452
22.8202474 ,Left ,56,8991986469701 ,51,1595696202162 ,62,0214970866917
22.8426502 ,Left ,56,8877006056601 ,51,1674437092092 ,61,9538062089142
22.863702 ,Left ,56,8401225631002 ,51,2002381947624 ,61,8937355723761
22.8803101 ,Left ,56,7888071649678 ,51,2494263390265 ,61,8540751639532
22.9028096 ,Left ,56,7482082282999 ,51,3043761402977 ,61,8300841224468
22.9171922 ,Left ,56,6901874997142 ,51,369006272755 ,61,8417295788238
22.9402047 ,Left ,56,6164288844187 ,51,4475775140666 ,61,8353658473226
22.9625451 ,Left ,56,5757321547092 ,51,541886664696 ,61,8050118346255
22.9770663 ,Left ,56,5368930807177 ,51,6498023272529 ,61,7649973268336
23.0003043 ,Left ,56,4858374137134 ,51,7634731557804 ,61,7287635812185
23.0227664 ,Left ,56,3925692885732 ,51,8603926303954 ,61,7424007716971
23.04402 ,Left ,56,3437966833105 ,51,9271813323645 ,61,8418282909177
23.060356 ,Left ,56,3793241109759 ,51,9506829886514 ,61,9221494345819
23.0828306 ,Left ,56,4635185356127 ,51,905733026347 ,61,9554474081556
23.1111216 ,Left ,56,4363691693839 ,51,7457659423135 ,61,9495398883694
23.12003 ,Left ,56,3166615901892 ,51,6057253742825 ,61,9366050398645
23.1423277 ,Left ,56,306140489241 ,51,5531431226142 ,61,9533929144969
23.1638648 ,Left ,56,397648851012 ,51,5571723513899 ,61,9255486805615
23.1799534 ,Left ,56,5834676562843 ,51,5338067831024 ,61,8081982988666
23.2028276 ,Left ,56,7385780200839 ,51,4368430399611 ,61,6764737673952
23.2316657 ,Left ,56,7510223817085 ,51,3065513271065 ,61,5885935039027
23.2405381 ,Left ,56,7339239423376 ,51,2068783050402 ,61,5742247911684
23.2630942 ,Left ,56,7300524171265 ,51,1734991027588 ,61,5977684338319
23.2842879 ,Left ,56,7502075885459 ,51,1812411181453 ,61,6511622247203
23.2997658 ,Left ,56,7191631879644 ,51,1944717183578 ,61,7583633614507
23.3230468 ,Left ,56,7049111951413 ,51,2462019764121 ,61,8919782672904
23.3440836 ,Left ,56,7187409584228 ,51,3107900490992 ,61,9831684730999
23.3595745 ,Left ,56,7261919130031 ,51,4137924551348 ,62,0333395564937
23.3825396 ,Left ,56,8198144382523 ,51,5377265262001 ,62,070377701538
23.4036296 ,Left ,56,974304048486 ,51,6111733301092 ,62,0600069779244
23.4194287 ,Left ,57,0428565619037 ,51,5881959123595 ,62,0212012532385
23.4425831 ,Left ,57,0091788851781 ,51,4862454182214 ,61,9833074759266
23.4640676 ,Left ,56,9098451999694 ,51,4086481807634 ,61,8875889378309
23.4799495 ,Left ,56,846076281679 ,51,370414638351 ,61,8255073877208
23.5091185 ,Left ,56,7600500709808 ,51,3670722126064 ,61,760824084756
23.5252929 ,Left ,56,7548595509873 ,51,4110788712681 ,61,7002377672695
23.5307946 ,Left ,56,7864060955419 ,51,5042008405767 ,61,64513421141
23.5471344 ,Left ,56,7527929078588 ,51,6019360282626 ,61,6147779797365
23.5681933 ,Left ,56,6652183669916 ,51,7033126679316 ,61,6141735612097
23.5907485 ,Left ,56,5878815053066 ,51,8039128065373 ,61,6289012345937
23.6072195 ,Left ,56,5708215922956 ,51,8900958632655 ,61,6591135874699
23.6282945 ,Left ,56,5681224626768 ,51,9790291518591 ,61,6919342551064
23.6504659 ,Left ,56,5448483864045 ,52,046900999773 ,61,7554498954752
23.6673789 ,Left ,56,5314093915711 ,52,1018406162912 ,61,8471172301135
23.6884465 ,Left ,56,5717646857254 ,52,1268881135611 ,61,9520252651002
23.7104229 ,Left ,56,6540294025256 ,52,0978151884534 ,62,068521261414
23.7270748 ,Left ,56,7332659322914 ,52,0635489874952 ,62,1789198783323
23.7480551 ,Left ,56,7184840386198 ,52,015429065815 ,62,2568006115702
23.7706861 ,Left ,56,6593906513602 ,51,9500009022993 ,62,3159935291597
23.7888706 ,Left ,56,6703946489356 ,51,8304489325712 ,62,3087259930029
23.8085303 ,Left ,56,8145950655761 ,51,6516205566267 ,62,31271760227
23.8308039 ,Left ,56,9848630622869 ,51,4486755981122 ,62,3282293499413
23.847209 ,Left ,57,0885202402202 ,51,2489634017072 ,62,2978225518797
23.8683712 ,Left ,57,119537109754 ,51,0744523024801 ,62,2301153615676
23.8907757 ,Left ,56,9854638193124 ,50,9164800534744 ,62,1699048774074
23.9071133 ,Left ,56,8716869575305 ,50,8304389612879 ,62,0983511884691
23.9281957 ,Left ,56,8330370599936 ,50,7951345661222 ,62,0920094240839
23.9508981 ,Left ,56,8273278648974 ,50,8044995979061 ,62,140574867385
23.9672086 ,Left ,56,8703023703188 ,50,8685936696188 ,62,1753693190386
23.9882586 ,Left ,56,8737138069101 ,50,9141917140741 ,62,175187337849
24.0109193 ,Left ,56,8277790031222 ,50,9489265079458 ,62,2098982083483
24.0288112 ,Left ,56,7544529441318 ,51,0175376822193 ,62,291967246033
24.0483113 ,Left ,56,7025588786422 ,51,100901105084 ,62,4096203405075
24.0707906 ,Left ,56,676092557299 ,51,1531082429813 ,62,5385112638319
24.0871718 ,Left ,56,6343379478706 ,51,1235597143605 ,62,6851201266505
24.1081783 ,Left ,56,6158720732899 ,51,1147141041157 ,62,8598934877596
24.130844 ,Left ,56,6344732076384 ,51,1762853685808 ,63,0006841015988
24.1471557 ,Left ,56,5852819333509 ,51,2185623046772 ,63,12717036806
24.1679902 ,Left ,56,6015922337747 ,51,2860123554949 ,63,1706865336526
24.1906054 ,Left ,56,697899682115 ,51,3442988297953 ,63,1947843255437
24.2070835 ,Left ,56,6301643296345 ,51,445466621092 ,63,2067153371612
24.2279524 ,Left ,56,524583624293 ,51,5798587011125 ,63,1965744439372
24.2505786 ,Left ,56,5683857392309 ,51,6515361481487 ,63,1568080096378
24.267096 ,Left ,56,64271850768 ,51,6488560839817 ,63,0957415826161
24.2880532 ,Left ,56,6704669661581 ,51,6204924689194 ,63,0456566081142
24.3106075 ,Left ,56,6325053821474 ,51,5164817802007 ,63,0114837284451
24.3268805 ,Left ,56,5778639128805 ,51,3792560593569 ,62,9747075710335
24.3481318 ,Left ,56,5635802418716 ,51,2439274209191 ,62,9555333803148
24.3705404 ,Left ,56,5826215745563 ,51,1084482563181 ,62,9617313053588
24.3886033 ,Left ,56,6362405315975 ,51,0404199036613 ,62,9380217721323
24.4082317 ,Left ,56,6405980673978 ,50,999239934681 ,62,9079804155502
24.4304144 ,Left ,56,7903458578842 ,50,9030066071568 ,62,8869675177527
24.4483851 ,Left ,56,8633160910372 ,50,7806946217805 ,62,8568809782951
24.4680296 ,Left ,56,8355014440724 ,50,7105180125154 ,62,8031614738738
24.4907172 ,Left ,56,8647505897459 ,50,7182391596549 ,62,7285413699454
24.5087084 ,Left ,56,9154929709618 ,50,7416977830075 ,62,6708359882694
24.5281943 ,Left ,56,9779065285707 ,50,7487619647617 ,62,699274168374
24.5504393 ,Left ,56,9683759877539 ,50,7290163828572 ,62,7277847037965
24.5684155 ,Left ,56,9435158778355 ,50,7123166468436 ,62,7232808994907
24.5880472 ,Left ,56,9232103263121 ,50,6914663120844 ,62,7181894584536
24.6181175 ,Left ,56,9236571135109 ,50,6567302036146 ,62,7383401800118
24.628458 ,Left ,56,94092006551 ,50,6123697368012 ,62,7713511506935
24.6480927 ,Left ,56,9520439736451 ,50,540629348616 ,62,7796171744007
24.6707216 ,Left ,56,8997504034392 ,50,4622900974639 ,62,7843593084064
24.6884239 ,Left ,56,8441504963222 ,50,3899450937934 ,62,7965541983364
24.7082655 ,Left ,56,8435850893673 ,50,3381321233311 ,62,8173113225475
24.7302092 ,Left ,56,8260229577846 ,50,3301943106959 ,62,848138493924
24.7483334 ,Left ,56,7992210040985 ,50,3522677736753 ,62,8506553323302
24.7679805 ,Left ,56,7918126710371 ,50,368593978016 ,62,8380699640055
24.7905982 ,Left ,56,8257268958022 ,50,3850369309944 ,62,8259585439631
24.8084943 ,Left ,56,8042160907927 ,50,4515928856101 ,62,8214569082372
24.8280877 ,Left ,56,6649979207966 ,50,5773214430785 ,62,8318667423444
24.8507169 ,Left ,56,5989550354349 ,50,772494920069 ,62,8394734308053
24.8686589 ,Left ,56,6396108556347 ,50,9516133306952 ,62,8215300313612
24.8881032 ,Left ,56,7496769669744 ,51,0534163586121 ,62,7979860331896
24.9106231 ,Left ,56,8372922798296 ,51,0954671862062 ,62,8032463676847
24.9286476 ,Left ,56,8255883424517 ,51,0947214527627 ,62,8319430055517
24.9480025 ,Left ,56,8059549025313 ,51,0833827727013 ,62,8525062100746
24.9705429 ,Left ,56,7630733433343 ,51,0580701736962 ,62,8546360554171
24.9885965 ,Left ,56,7090512535881 ,51,0629650961771 ,62,85508941883
25.0082723 ,Left ,56,6824196070584 ,51,0766193118391 ,62,8873794484432
25.0262051 ,Left ,56,6751490082318 ,51,0894748806227 ,62,9235283277362
25.0485145 ,Left ,56,6437444400713 ,51,1001697365383 ,62,9612985942811
25.0695676 ,Left ,56,5826035413758 ,51,0945734711974 ,63,0103561901697
25.0907679 ,Left ,56,5335425983849 ,51,0858932400375 ,63,0628029000731
25.1086276 ,Left ,56,5425550815597 ,51,0950316794845 ,63,0854053168273
25.1295867 ,Left ,56,6538276441603 ,51,1191653955808 ,63,061525032494
25.1461966 ,Left ,56,6377145217006 ,51,1481527789045 ,63,0380240380277
25.1746035 ,Left ,56,5737032048262 ,51,2334722620463 ,63,0534677883353
25.1895847 ,Left ,56,6002505232441 ,51,3538687743884 ,63,047717135113
25.2107525 ,Left ,56,709300715587 ,51,3963602326058 ,62,9814638862682
25.2287221 ,Left ,56,8767151690002 ,51,3594609002802 ,62,8876861249054
25.2498014 ,Left ,57,0256744716099 ,51,3423111177843 ,62,7531545611315
25.2708338 ,Left ,57,0376279666015 ,51,278474459991 ,62,6295959885841
25.2886987 ,Left ,57,0366357175693 ,51,1409575021845 ,62,5100342393142
25.3096952 ,Left ,57,0844078746323 ,51,0025101859071 ,62,3776113716382
25.3307375 ,Left ,57,1489328028429 ,50,9252741716687 ,62,2171523262696
25.3485469 ,Left ,57,2129747060888 ,50,8477744961405 ,62,1204818871011
25.3697336 ,Left ,57,2341969162547 ,50,776950492735 ,62,0523412061004
25.3906196 ,Left ,57,2067638137272 ,50,7572831495271 ,61,9759066312149
25.4085554 ,Left ,57,1710638175894 ,50,7966396821313 ,61,9001059478684
25.4300546 ,Left ,57,1347682709274 ,50,8491493647853 ,61,8123299719832
25.451009 ,Left ,57,1314184276157 ,50,9330486936129 ,61,7380981339057
25.4677529 ,Left ,57,1058477676508 ,51,0295048161691 ,61,7241304530027
25.4902503 ,Left ,57,0178933383886 ,51,1315460493232 ,61,741625857013
25.5115358 ,Left ,56,8857289754519 ,51,2414145323609 ,61,7854975565467
25.5278313 ,Left ,56,7752059593321 ,51,3415248688186 ,61,8268666050567
25.550359 ,Left ,56,6976328621056 ,51,4336161820738 ,61,8811140990483
25.5714134 ,Left ,56,6605365942455 ,51,4938207341642 ,61,9516049878021
25.5878359 ,Left ,56,612876339492 ,51,5247490329924 ,62,044383750112
25.6101316 ,Left ,56,5545729810129 ,51,5201530991411 ,62,1185801073289
25.6312966 ,Left ,56,4583907018758 ,51,49102848504 ,62,1760949676164
25.6476312 ,Left ,56,3900538440712 ,51,4738812892005 ,62,1958417065556
25.6702699 ,Left ,56,4026305553281 ,51,4538477122945 ,62,2420390198874
25.6926139 ,Left ,56,3893723577579 ,51,4221081073552 ,62,3250248491585
25.7075563 ,Left ,56,3777251828268 ,51,4095234064974 ,62,3590476960243
25.7302588 ,Left ,56,2935991461649 ,51,4107214917443 ,62,3486188927704
25.7510946 ,Left ,56,1665501707312 ,51,428643255145 ,62,3304221351267
25.7677288 ,Left ,56,0914756806607 ,51,4461046015108 ,62,3032931108295
25.7902983 ,Left ,56,0489115006832 ,51,4371089113059 ,62,2814621214878
25.811535 ,Left ,56,0060604991097 ,51,4203546794942 ,62,2663176607189
25.8277549 ,Left ,55,9683922803448 ,51,3782833786557 ,62,2743743247205
25.8502597 ,Left ,55,9841890721522 ,51,3110638291223 ,62,354086558311
25.8646132 ,Left ,56,0359090293171 ,51,2636086511373 ,62,454526070646
25.8875275 ,Left ,56,0641900972906 ,51,2216282933909 ,62,5175208625944
25.9102358 ,Left ,56,1701820456228 ,51,1694470545066 ,62,532183287227
25.9311259 ,Left ,56,2418778884178 ,51,1230055162146 ,62,5437370540848
25.9476958 ,Left ,56,2554904598657 ,51,0635305596139 ,62,6009943715065
25.9705318 ,Left ,56,2463247597464 ,50,9712963460481 ,62,6189196074159
25.9917474 ,Left ,56,2762829521094 ,50,8473295473495 ,62,5491620750752
26.0080517 ,Left ,56,2688737104059 ,50,7161854092389 ,62,4736018995972
26.0305618 ,Left ,56,1729913379158 ,50,6066007564951 ,62,3985845849863
26.0517886 ,Left ,56,1632563428509 ,50,5392125736063 ,62,3217951970949
26.0677958 ,Left ,56,2182587896128 ,50,4929549754277 ,62,2686749111841
26.0903937 ,Left ,56,2685854505321 ,50,5109074976357 ,62,2709532003641
26.1115009 ,Left ,56,2226407455864 ,50,6251249109765 ,62,3067147657785
26.1270737 ,Left ,56,1857494568808 ,50,740898875399 ,62,2948999168046
26.1502681 ,Left ,56,2012375818156 ,50,8364843770567 ,62,3120530648082
26.1713481 ,Left ,56,2236523411861 ,50,9048948315297 ,62,2987418916946
26.1936663 ,Left ,56,3227636036995 ,50,9692321897031 ,62,2804618577806
26.2102129 ,Left ,56,4690178216336 ,50,9764807474005 ,62,2067894209531
26.2313793 ,Left ,56,5156153387973 ,50,9960451714774 ,62,0776856433311
26.2471005 ,Left ,56,4713506581841 ,51,0285053543296 ,61,9668650827733
26.2702586 ,Left ,56,4396711537673 ,50,9929976550547 ,61,9255842020677
26.2928729 ,Left ,56,4172904320437 ,50,9583951310001 ,61,9626109690763
26.3071196 ,Left ,56,4565948055599 ,50,9603859049631 ,62,0400335454635
26.3302743 ,Left ,56,4969743253838 ,50,9697930446106 ,62,1190689953382
26.3526234 ,Left ,56,5204964118394 ,50,9710400927718 ,62,1728500837081
26.3672272 ,Left ,56,4987737322209 ,50,9446700316936 ,62,1882983611216
26.3902666 ,Left ,56,4392302462479 ,50,9383892630716 ,62,1757626802668
26.4127935 ,Left ,56,3799691237964 ,50,9573868010456 ,62,1670759067654
26.4277064 ,Left ,56,3626318804564 ,50,9768280094062 ,62,1694770447425
26.4503075 ,Left ,56,3947605128113 ,50,9767062359848 ,62,1709752320792
26.4728032 ,Left ,56,4261307681151 ,50,9633255256136 ,62,1758942568593
26.4871801 ,Left ,56,4202549754935 ,50,9657668197387 ,62,1732144577142
26.5102747 ,Left ,56,387415432666 ,50,9761350302999 ,62,16551248067
26.5326906 ,Left ,56,377303766257 ,51,0239787734155 ,62,1490623458057
26.5471095 ,Left ,56,3418689049781 ,51,1022026687144 ,62,1384703116905
26.5706924 ,Left ,56,3610013026646 ,51,2016421413466 ,62,1386132398353
26.5930932 ,Left ,56,4033844814973 ,51,3213917245535 ,62,1551236822334
26.6146028 ,Left ,56,4363956330161 ,51,476985159027 ,62,1489389596762
26.6304027 ,Left ,56,5332607086658 ,51,5876806111669 ,62,1354070386029
26.6529783 ,Left ,56,6380923205607 ,51,595483479986 ,62,11472853661
26.6742584 ,Left ,56,6850466334478 ,51,5446474804642 ,62,0944662127377
26.6904925 ,Left ,56,6534159010949 ,51,5058972316091 ,62,0708689503663
26.7127231 ,Left ,56,6419009714384 ,51,4664785785606 ,62,0408451601499
26.7335791 ,Left ,56,7029956831493 ,51,4491421251768 ,62,0404541405752
26.7500237 ,Left ,56,7926026506527 ,51,5059335609124 ,62,0440761368682
26.7727393 ,Left ,56,8168874497333 ,51,5967561870538 ,62,0604141282114
26.7939027 ,Left ,56,7534164504374 ,51,7027581005854 ,62,1065159502499
26.8102534 ,Left ,56,6834796956506 ,51,8160822763582 ,62,1876741044835
26.8403441 ,Left ,56,6759624778291 ,51,8822921803206 ,62,2722641594389
26.854097 ,Left ,56,6905240092213 ,51,851860733949 ,62,3570769511156
26.8704227 ,Left ,56,7356379760387 ,51,7738409702503 ,62,4222540769062
26.8929071 ,Left ,56,8067434569636 ,51,6904252963528 ,62,4917944347389
26.9141473 ,Left ,56,8070368417305 ,51,5607902473373 ,62,5793843448996
26.930368 ,Left ,56,7146020499801 ,51,4438585826072 ,62,5498671207176
26.95299 ,Left ,56,6934490155953 ,51,3693296495887 ,62,4332586327778
26.9740729 ,Left ,56,8339406411973 ,51,2858844651171 ,62,363884288051
26.9901193 ,Left ,57,0307617929059 ,51,1753394871571 ,62,318039480539
27.0128274 ,Left ,57,1710275544951 ,51,0345914282345 ,62,2589671502965
27.0336203 ,Left ,57,1154026187749 ,50,8903573272023 ,62,2003339805628
27.0500971 ,Left ,56,9974158460145 ,50,799383862859 ,62,1499807970989
27.0725558 ,Left ,56,9736267841659 ,50,7593337032405 ,62,1401216954729
27.0935848 ,Left ,57,0453112276454 ,50,7658019397655 ,62,1802665028292
27.1094034 ,Left ,57,0199445795522 ,50,8043794418292 ,62,2159641474441
27.1324759 ,Left ,56,9771035257395 ,50,8451011321724 ,62,2569848957893
27.1535083 ,Left ,56,9147374018146 ,50,882587796353 ,62,3422597322958
27.1693043 ,Left ,56,8686959240857 ,50,9549230138239 ,62,4779706417128
27.1925062 ,Left ,56,816904363535 ,51,0448063251801 ,62,6062465879224
27.2135358 ,Left ,56,7947543724184 ,51,1201161474438 ,62,7581950223784
27.2295705 ,Left ,56,7774279748064 ,51,1476086250808 ,62,9502377384839
27.2526192 ,Left ,56,8080237564593 ,51,1558844978786 ,63,1246629801404
27.2751741 ,Left ,56,796102711553 ,51,2033124765832 ,63,2836617670086
27.2894399 ,Left ,56,6538622167282 ,51,2535502390724 ,63,3648300210339
27.3126321 ,Left ,56,6234748838379 ,51,3144952146194 ,63,3683671363376
27.3352964 ,Left ,56,6588823709678 ,51,3432990805015 ,63,3886506942614
27.349696 ,Left ,56,6809295892957 ,51,3853175763525 ,63,379356220994
27.3728241 ,Left ,56,6958310930407 ,51,4710201767151 ,63,331901584194
27.3957028 ,Left ,56,7094093415299 ,51,4985488684336 ,63,262526325778
27.4165518 ,Left ,56,7352080403802 ,51,4527299481937 ,63,1924490327652
27.432741 ,Left ,56,7057995265431 ,51,33316193871 ,63,1457889446065
27.4553111 ,Left ,56,6628992008632 ,51,214591571722 ,63,0890123295061
27.4761045 ,Left ,56,6844438491744 ,51,130408965008 ,63,0593636074502
27.4927298 ,Left ,56,7179063875073 ,51,0707773578572 ,63,0697391272058
27.5150516 ,Left ,56,7287414413116 ,51,0065862966515 ,63,1062061055005
27.5364254 ,Left ,56,7804727700857 ,50,94670263557 ,63,1615887398973
27.5529118 ,Left ,56,8241545970961 ,50,8576340766704 ,63,2049105151088
27.57539 ,Left ,56,807419381317 ,50,7701277807782 ,63,2440417596339
27.5966754 ,Left ,56,7845736775947 ,50,692507358214 ,63,3081392585604
27.6128743 ,Left ,56,7670913924676 ,50,6106495363214 ,63,3615521597782
27.6354224 ,Left ,56,7897789946191 ,50,5589073328825 ,63,3635966330261
27.6496485 ,Left ,56,7556716960424 ,50,5365468033483 ,63,3436814515885
27.6728643 ,Left ,56,6942694041525 ,50,5334492940337 ,63,3317036059106
27.6954253 ,Left ,56,6444364088788 ,50,5423670721471 ,63,3543938891804
27.7097267 ,Left ,56,6149891128263 ,50,5700821946471 ,63,3680434597101
27.7328391 ,Left ,56,5899408833538 ,50,6210479824602 ,63,3656668039345
27.7553356 ,Left ,56,5211540920409 ,50,6689428789663 ,63,3743513318504
27.7766817 ,Left ,56,447923159719 ,50,6987958337987 ,63,3553340757717
27.7928813 ,Left ,56,4200365434 ,50,718579355509 ,63,3174802503346
27.8152958 ,Left ,56,3782870792107 ,50,7272498317858 ,63,277792875131
27.83663 ,Left ,56,3267691805542 ,50,7380243666571 ,63,2588641706047
27.8530493 ,Left ,56,2906586072903 ,50,7579957906013 ,63,261481530329
27.8753478 ,Left ,56,2945581922305 ,50,7845585864513 ,63,3063060970936
27.8966916 ,Left ,56,2963788350664 ,50,7728368323673 ,63,3301470768678
27.9128847 ,Left ,56,3454661549188 ,50,7476870381907 ,63,3475615420501
27.9352387 ,Left ,56,3381132002877 ,50,7394397164272 ,63,3730643829004
27.9565997 ,Left ,56,2836657674631 ,50,7846438302167 ,63,4004300479622
27.9728389 ,Left ,56,1987167555157 ,50,8610685245211 ,63,4156056335893
27.9953799 ,Left ,56,1882247738136 ,50,9250383927862 ,63,3754809476067
28.0165569 ,Left ,56,2806527741306 ,50,9580646435433 ,63,3893324644221
28.0321298 ,Left ,56,358974803442 ,51,0074479606522 ,63,4048647027155
28.0553973 ,Left ,56,3674000447994 ,51,0886509581493 ,63,3690820434862
28.0766524 ,Left ,56,4269514137345 ,51,1411103883835 ,63,310039086105
28.092156 ,Left ,56,4895982802903 ,51,1323759521497 ,63,2709055971087
28.115328 ,Left ,56,4793356806706 ,51,1568471773316 ,63,2230736724307
28.1366829 ,Left ,56,4803297847221 ,51,1998500478751 ,63,165572039508
28.1527962 ,Left ,56,5083550583615 ,51,1897817857884 ,63,1323915731283
28.1754401 ,Left ,56,5937536600686 ,51,2057949337053 ,63,1190757249583
28.1978015 ,Left ,56,5856011184553 ,51,2527494798118 ,63,0960709581542
28.2129024 ,Left ,56,5602705398318 ,51,3258233035988 ,63,1006186732229
28.2354192 ,Left ,56,6322712982455 ,51,4087867499502 ,63,1207386164893
28.2579142 ,Left ,56,6881347432832 ,51,5059276052884 ,63,1489152035074
28.2722033 ,Left ,56,6686376077795 ,51,5732584543015 ,63,1810334800299
28.2954349 ,Left ,56,6768471598817 ,51,5969993123335 ,63,2547577387052
28.3179187 ,Left ,56,6526069152737 ,51,5859430907735 ,63,3918264911337
28.3321392 ,Left ,56,6563363052287 ,51,6098261326334 ,63,4626885866
28.3552642 ,Left ,56,7423151614275 ,51,6885993257432 ,63,461605915387
28.3779402 ,Left ,56,749560315508 ,51,740952761302 ,63,4362707769965
28.3987296 ,Left ,56,7454021100884 ,51,7960845608584 ,63,3857167178312
28.4150321 ,Left ,56,7942164937337 ,51,7818799052182 ,63,2789335029456
28.4377739 ,Left ,56,8299036329174 ,51,7221835107562 ,63,1035950372514
28.4585353 ,Left ,56,7999849671605 ,51,6303967435269 ,62,9561179413881
28.4750756 ,Left ,56,7929304959742 ,51,4679338013503 ,62,8132558525933
28.4974907 ,Left ,56,8740278247831 ,51,308142220111 ,62,631785557716
28.5191123 ,Left ,56,8734547858444 ,51,1985224577363 ,62,4384671281574
28.5355116 ,Left ,56,8004753578691 ,51,1362239074981 ,62,3375584690286
28.5578345 ,Left ,56,8174341079764 ,51,1226522185805 ,62,2768005739012
28.5789939 ,Left ,56,8338952509371 ,51,1281430163062 ,62,2369446463083
28.5952754 ,Left ,56,8166399910147 ,51,1321726666857 ,62,2399651903752
28.6179256 ,Left ,56,7429223822576 ,51,1616617083348 ,62,2720031265608
28.6321559 ,Left ,56,6858635230341 ,51,1990416486566 ,62,3078986832259
28.6553378 ,Left ,56,6295071263233 ,51,2411046904858 ,62,3510606903135
28.6778728 ,Left ,56,5388963907304 ,51,2810402767343 ,62,4001204499686
28.6990581 ,Left ,56,528670473585 ,51,3658125254844 ,62,4284259704751
28.7154134 ,Left ,56,5114268707556 ,51,4473192474176 ,62,4445156176704
28.7454103 ,Left ,56,4470887011818 ,51,5111636334453 ,62,45056756025
28.7592067 ,Left ,56,4325684926621 ,51,5442856516561 ,62,4301697407217
28.7754001 ,Left ,56,4489860170035 ,51,5168691588954 ,62,3815958891648
28.7979329 ,Left ,56,4679311755817 ,51,4409735568888 ,62,3435241545242
28.8191301 ,Left ,56,4441477588452 ,51,369035908665 ,62,3415065659237
28.8354466 ,Left ,56,3749075769852 ,51,3085740038913 ,62,3302111916107
28.8579219 ,Left ,56,2703425261229 ,51,230390873551 ,62,2811086161897
28.879108 ,Left ,56,2397535941432 ,51,1802298163133 ,62,213799028198
28.8953981 ,Left ,56,3317399606355 ,51,170554853331 ,62,1604329250584
28.9179968 ,Left ,56,4200640968756 ,51,1938709635943 ,62,06963920777
28.9391093 ,Left ,56,5185829509436 ,51,207227815385 ,61,9224682949298
28.9545891 ,Left ,56,6048174772748 ,51,1287929243309 ,61,8365275296545
28.9777391 ,Left ,56,6551274424631 ,51,0356471220275 ,61,7447379853547
28.9988191 ,Left ,56,7168195103345 ,50,9571600223718 ,61,6788417926228
29.0144805 ,Left ,56,71315176835 ,50,8800768174513 ,61,6465710833756
29.0377306 ,Left ,56,7153977407068 ,50,8437025328463 ,61,6215787213425
29.0589758 ,Left ,56,7803128870981 ,50,8489320548438 ,61,6130417780478
29.0745892 ,Left ,56,7939119563317 ,50,8830919424744 ,61,6177395480896
29.0977619 ,Left ,56,7778119854828 ,50,9413358867422 ,61,6333063294822
29.1190529 ,Left ,56,7767532295848 ,51,0072298115717 ,61,6590997582673
29.1352977 ,Left ,56,7466266081404 ,51,066303465367 ,61,6964514190632
29.1577654 ,Left ,56,6995838531947 ,51,1212275027529 ,61,7459661135754
29.1803899 ,Left ,56,6887125412021 ,51,1731778278079 ,61,8051253399245
29.1953715 ,Left ,56,6920571565231 ,51,2331636215805 ,61,8640486879532
29.2178044 ,Left ,56,6710139530987 ,51,2994144213356 ,61,9276863426076
29.2403727 ,Left ,56,6682401844419 ,51,3805447621172 ,62,0014132016771
29.2552881 ,Left ,56,6484116410543 ,51,434941827476 ,62,0580055703329
29.2778554 ,Left ,56,639153210244 ,51,4700516369341 ,62,0735009080278
29.3003387 ,Left ,56,6828896010094 ,51,513500590597 ,62,093428423868
29.3215167 ,Left ,56,7216266977851 ,51,58465426331 ,62,0703718389623
29.3378861 ,Left ,56,8066412039473 ,51,6409530288812 ,62,009825402293
29.3432138 ,Left ,56,8992532605291 ,51,5887628171045 ,61,9525771264876
29.3658579 ,Left ,56,905727912843 ,51,5243585386498 ,61,8763396751159
29.3838441 ,Left ,56,9032419003671 ,51,4706980440411 ,61,7948628951963
29.4033307 ,Left ,56,8740450859576 ,51,399175015877 ,61,738200790577
29.425706 ,Left ,56,8664538203341 ,51,3393624928274 ,61,6973988679672
29.4421476 ,Left ,56,9191181145833 ,51,3254698967735 ,61,6689962875919
29.4634014 ,Left ,56,9736615262646 ,51,3666439846722 ,61,7028373353827
29.4853234 ,Left ,56,9797402900163 ,51,4459240902042 ,61,7545290738541
29.5017727 ,Left ,56,946460591275 ,51,5558152442112 ,61,8016769349198
29.5231393 ,Left ,56,9259837501167 ,51,6476122783333 ,61,8659544541295
29.5455798 ,Left ,56,8889215329185 ,51,6766715583379 ,61,9612173854309
29.5607106 ,Left ,56,8969167621855 ,51,6965778561324 ,62,0208062762581
29.5828943 ,Left ,56,8929435428405 ,51,6692467394513 ,62,0881028517546
29.6055219 ,Left ,56,8667684291284 ,51,6276883195527 ,62,206922706807
29.6219699 ,Left ,56,786240342024 ,51,5630981221134 ,62,3132072980867
29.6433389 ,Left ,56,7501060538258 ,51,5047988992412 ,62,2882861030767
29.66584 ,Left ,56,8741353984722 ,51,413791026546 ,62,217210520266
29.681824 ,Left ,57,0262732748074 ,51,2970954741839 ,62,1772388260888
29.7031159 ,Left ,57,116316393945 ,51,1538667725806 ,62,1674260280003
29.725825 ,Left ,57,1913693798458 ,51,0135322102594 ,62,1298774715243
29.7420387 ,Left ,57,168389615291 ,50,8852970132198 ,62,0684324425393
29.7633143 ,Left ,57,06188431342 ,50,8021007593743 ,62,0106690371691
29.7857688 ,Left ,57,0233044223239 ,50,7682712640866 ,62,0173730011094
29.8021615 ,Left ,57,0235408685012 ,50,8043667375827 ,62,0794055364595
29.8233682 ,Left ,57,0315705833439 ,50,8775581410677 ,62,1337325928008
29.845846 ,Left ,57,0279947068755 ,50,9221436148055 ,62,1656648940369
29.8618693 ,Left ,56,9790825450437 ,50,9512949684612 ,62,249807621958
29.8830792 ,Left ,56,8961495547516 ,51,0071105187996 ,62,4009764971176
29.9056387 ,Left ,56,8622809988291 ,51,0488761236501 ,62,5591458680725
29.9218844 ,Left ,56,821942831766 ,51,0596043125041 ,62,7349766255654
29.94339 ,Left ,56,8430728956872 ,51,0839264157833 ,62,9220738674359
29.9658138 ,Left ,56,8567597738246 ,51,0937139913848 ,63,079513345753
29.982202 ,Left ,56,8092503077539 ,51,0903045112266 ,63,2418031052552
30.0034765 ,Left ,56,7024843841525 ,51,1247408670867 ,63,3356030191785
30.0260595 ,Left ,56,6614634925476 ,51,1522024098958 ,63,3754017874311
30.043739 ,Left ,56,6632873708675 ,51,1866370680056 ,63,3857877583663
30.0632428 ,Left ,56,7126797022719 ,51,2689554846236 ,63,3786879990234
30.085717 ,Left ,56,7421952566552 ,51,3763218454078 ,63,333900384294
30.1035597 ,Left ,56,7891347786897 ,51,4394630749538 ,63,2641458386553
30.123372 ,Left ,56,8298374595834 ,51,4151858108614 ,63,1992798536641
30.1458512 ,Left ,56,793552587724 ,51,3202953580223 ,63,150035220813
30.1710093 ,Left ,56,7251796629266 ,51,2363780248181 ,63,0954611111709
30.1831858 ,Left ,56,7487269004845 ,51,1654403824421 ,63,0520951226043
30.2058475 ,Left ,56,7621683226339 ,51,0530049352808 ,62,9867164936577
30.2235102 ,Left ,56,809586673962 ,50,8983072426792 ,62,9552781690427
30.2430644 ,Left ,56,8253938507494 ,50,7511510324749 ,62,9925485167201
30.2656422 ,Left ,56,8279010558123 ,50,6738728274303 ,63,0251336484696
30.2837435 ,Left ,56,8396395568236 ,50,6305751598468 ,63,0100422205167
30.3032786 ,Left ,56,8520857146518 ,50,5765855284722 ,63,0034868450046
30.3258357 ,Left ,56,8547916464293 ,50,5431223894704 ,63,0028460519659
30.3437998 ,Left ,56,8364365119277 ,50,5389450229897 ,62,989304661971
30.3631403 ,Left ,56,8005484677729 ,50,5399161553347 ,62,9745698509087
30.3854768 ,Left ,56,7786819402604 ,50,5311080521845 ,62,9679921639561
30.4035731 ,Left ,56,761949555049 ,50,5229825499492 ,62,946867012579
30.4230945 ,Left ,56,7448070264204 ,50,4943541770638 ,62,9021396278511
30.4458663 ,Left ,56,6935717927285 ,50,4518487650145 ,62,8569834473171
30.463786 ,Left ,56,6269038124714 ,50,4064051905199 ,62,838212261244
30.4833667 ,Left ,56,6055936324908 ,50,3736075849367 ,62,8310101381289
30.5059715 ,Left ,56,6355064427082 ,50,3186233928043 ,62,8264849653155
30.5235531 ,Left ,56,6719899311159 ,50,2868037739186 ,62,8317865801884
30.5430647 ,Left ,56,6200046375985 ,50,2533779862687 ,62,8198132247275
30.5656028 ,Left ,56,5998974371411 ,50,2628984587903 ,62,7722067610415
30.5838113 ,Left ,56,6189531153164 ,50,3162375696485 ,62,7358520155721
30.6034447 ,Left ,56,6658576770844 ,50,3815218032229 ,62,7117615781518
30.6261125 ,Left ,56,7377188386758 ,50,4139482953156 ,62,6700999973252
30.6440075 ,Left ,56,7716670573472 ,50,4005054979365 ,62,6362824175537
30.6637781 ,Left ,56,7834691304918 ,50,3555980771005 ,62,6210540217492
30.686324 ,Left ,56,7854905764003 ,50,313131242338 ,62,6250212794029
30.7039586 ,Left ,56,7546727140585 ,50,3181766137847 ,62,6617607420851
30.724492 ,Left ,56,6805162447563 ,50,3324077240324 ,62,7004141537761
30.7454244 ,Left ,56,7263341743215 ,50,3847537985315 ,62,6993732673066
30.7636107 ,Left ,56,7727720282237 ,50,4676125640041 ,62,7051153217713
30.7844756 ,Left ,56,7439991574956 ,50,601622279024 ,62,7101084311825
30.8056873 ,Left ,56,7208456759721 ,50,7362371145676 ,62,7224298150515
30.8237035 ,Left ,56,7852289449853 ,50,8422503856326 ,62,7386884606345
30.8448578 ,Left ,56,8148572553673 ,50,9571158308456 ,62,7727795213642
30.865836 ,Left ,56,774574033699 ,51,0535101233001 ,62,8419968890886
30.8834848 ,Left ,56,7335729929483 ,51,0937930334413 ,62,9430523752845
30.9045537 ,Left ,56,750415531883 ,51,118718669593 ,63,0412937285671
30.9255982 ,Left ,56,744252327245 ,51,1278971763374 ,63,1293014064234
30.9436714 ,Left ,56,7387384707897 ,51,1399607723489 ,63,178976562436
30.964481 ,Left ,56,7426032055988 ,51,1831149821086 ,63,1611552222393
30.9856682 ,Left ,56,7359417649377 ,51,1825259123732 ,63,1124703095208
31.003539 ,Left ,56,7451240705154 ,51,1888338231628 ,63,0287334809698
31.02444 ,Left ,56,795696682932 ,51,172131368936 ,62,9086125743806
31.0457909 ,Left ,56,8433247366988 ,51,1225946829482 ,62,8084743588998
31.0637378 ,Left ,56,8840380675189 ,51,028964148518 ,62,7162934355759
31.08622 ,Left ,56,9545435573051 ,50,8856661299709 ,62,5772286151661
31.1061094 ,Left ,57,0307961264226 ,50,736789694504 ,62,4012764590084
31.1238841 ,Left ,57,0832561762451 ,50,6052346774609 ,62,223821787741
31.1462755 ,Left ,57,1130681828179 ,50,5022833356721 ,62,1110947981701
31.1661485 ,Left ,57,1483196716987 ,50,4357251478356 ,62,0285019236037
31.1837687 ,Left ,57,1856278214668 ,50,4106594518568 ,61,9491565639069
31.2061068 ,Left ,57,2087605638959 ,50,3816124241329 ,61,8679644702463
31.225516 ,Left ,57,1829824977979 ,50,3717027918963 ,61,822161344296
31.2425064 ,Left ,57,1678529662723 ,50,4304023890973 ,61,8452184944518
31.2651168 ,Left ,57,1343581490174 ,50,5022809628971 ,61,8884110289988
31.2861561 ,Left ,57,0711574175456 ,50,5734644905816 ,61,8922171764163
31.3026689 ,Left ,57,0279778412866 ,50,6140263383991 ,61,8795588803532
31.3254084 ,Left ,57,0194380196539 ,50,6529358818088 ,61,8942716912276
31.3465424 ,Left ,57,0065510736242 ,50,7186458278706 ,61,9100629457454
31.3627196 ,Left ,56,9785388736311 ,50,7896721837995 ,61,9407496498972
31.3853137 ,Left ,56,9161960537961 ,50,8349069906984 ,62,0039817820643
31.3995032 ,Left ,56,8810317065219 ,50,8238421236293 ,62,0914205182067
31.4230242 ,Left ,56,9210801486166 ,50,7715425537352 ,62,1415586287328
31.445442 ,Left ,56,9133345038625 ,50,7207743744869 ,62,1418041218208
31.466278 ,Left ,56,776050514622 ,50,6933170759968 ,62,1226323199103
31.4827934 ,Left ,56,6939006884323 ,50,7289059879902 ,62,0984211815068
31.5051266 ,Left ,56,7193682881622 ,50,8267157326609 ,62,0309541634309
31.5261207 ,Left ,56,8198414992261 ,50,924964749046 ,61,9474623665832
31.5428638 ,Left ,57,0079831558793 ,50,973058881212 ,61,879807943405
31.5651867 ,Left ,57,1774283095191 ,50,9148818009363 ,61,8095037903137
31.586292 ,Left ,57,2493680253834 ,50,8446948988376 ,61,7113696618264
31.6027518 ,Left ,57,1777225013327 ,50,7637274841627 ,61,6391299392703
31.6250793 ,Left ,57,1717077491854 ,50,6849392776994 ,61,5899714925815
31.6464077 ,Left ,57,2462873111573 ,50,5958469202014 ,61,5935991407558
31.6626255 ,Left ,57,3044323093649 ,50,5516721784709 ,61,597895153084
31.6853745 ,Left ,57,3006765419012 ,50,544831290535 ,61,6066597163016
31.7064887 ,Left ,57,2879879602242 ,50,5611127383083 ,61,6302724780716
31.7227794 ,Left ,57,2892238635814 ,50,5747453913777 ,61,6721061505041
31.7452673 ,Left ,57,2793762024619 ,50,5854315367486 ,61,7187634782448
31.7665902 ,Left ,57,2876460003367 ,50,6289510071668 ,61,7576262432173
31.7827407 ,Left ,57,2927271578204 ,50,7113643297858 ,61,8014245653209
31.8053123 ,Left ,57,2526840731669 ,50,824790966145 ,61,8627978522509
31.8340851 ,Left ,57,2246599032303 ,50,939881101606 ,61,9257972169721
31.8422103 ,Left ,57,2482186274395 ,51,0341326235173 ,62,0027682381611
31.8714337 ,Left ,57,2703844197216 ,51,1203790967777 ,62,0717682434582
31.8866126 ,Left ,57,2737344394929 ,51,2093164461898 ,62,1326971671267
31.9021161 ,Left ,57,2546288021184 ,51,2778760755842 ,62,1983191930261
31.9253882 ,Left ,57,2516109729135 ,51,3203008315101 ,62,2686654772611
31.946613 ,Left ,57,2941096426866 ,51,3362030479372 ,62,3445440622262
31.9630913 ,Left ,57,3485835842999 ,51,3302759288126 ,62,4133601767354
31.9850239 ,Left ,57,3879471063784 ,51,316700619184 ,62,4602376529554
32.0075561 ,Left ,57,4024417132373 ,51,3038937999179 ,62,4938410799912
32.022549 ,Left ,57,4168162196564 ,51,2915388460072 ,62,5117992139347
32.0451633 ,Left ,57,4446345217017 ,51,2829919043987 ,62,5201736197137
32.0680481 ,Left ,57,4893676019658 ,51,2711208811647 ,62,5212420876324
32.0821811 ,Left ,57,510505449866 ,51,26012426946 ,62,5211844692772
32.1054237 ,Left ,57,519586499847 ,51,2545638012169 ,62,5102558273548
32.1278619 ,Left ,57,5215067885245 ,51,2500277309184 ,62,5071130637971
32.1421527 ,Left ,57,5638540312665 ,51,2483611803607 ,62,5061887246334
32.1653614 ,Left ,57,5980323506754 ,51,2480225431515 ,62,5044805229055
32.1878333 ,Left ,57,6286662854939 ,51,2586492661003 ,62,5069908356638
32.2022383 ,Left ,57,6468153170746 ,51,2721925845201 ,62,502510609508
32.2250707 ,Left ,57,6487358651787 ,51,3010928228322 ,62,5060126285443
32.2475903 ,Left ,57,658781614618 ,51,3466470298662 ,62,5171469661097
32.2700263 ,Left ,57,6583561589568 ,51,3938047530128 ,62,5402311982077
32.285323 ,Left ,57,6582767656161 ,51,4409939174073 ,62,580432848
32.307784 ,Left ,57,6550623766258 ,51,4856523082708 ,62,6197523505797
32.3219244 ,Left ,57,6304385970385 ,51,4913130198355 ,62,6696746041021
32.3454214 ,Left ,57,6388238435738 ,51,4856351581343 ,62,7278136343346
32.3677779 ,Left ,57,6609897594001 ,51,4581655857944 ,62,7972104623607
32.3903824 ,Left ,57,6663733897619 ,51,4245604114489 ,62,858549183567
32.4052726 ,Left ,57,6876489804185 ,51,3772585701374 ,62,8926376536814
32.4282302 ,Left ,57,7363997457937 ,51,2953796304863 ,62,9216487728255
32.4421583 ,Left ,57,8074723716384 ,51,2162059958953 ,62,9460488022452
32.4652819 ,Left ,57,8750667730619 ,51,157244876824 ,62,961621238926
32.48766 ,Left ,57,901751278276 ,51,0857843677751 ,62,9858804205058
32.5087238 ,Left ,57,9063582643675 ,50,9976323895351 ,62,9693477839099
32.5253124 ,Left ,57,9127657259761 ,50,9066639399683 ,62,9091964529866
32.5494298 ,Left ,57,8925222401318 ,50,8098919460317 ,62,8457918822629
32.5687665 ,Left ,57,8671388841802 ,50,7118925372369 ,62,7736766491967
32.5853051 ,Left ,57,8756190660408 ,50,6147451109468 ,62,6903900801402
32.6078051 ,Left ,57,880880422927 ,50,5177989149048 ,62,6075453373623
32.6288688 ,Left ,57,8601173567207 ,50,4405238693576 ,62,5418693280893
32.6451316 ,Left ,57,805514255762 ,50,3816328257007 ,62,509236902752
32.6677219 ,Left ,57,7457432544414 ,50,3391394484741 ,62,5004183916935
32.6889736 ,Left ,57,7030646822491 ,50,305920709101 ,62,5132569165468
32.7055921 ,Left ,57,6884867601376 ,50,2941501780034 ,62,5237901119811
32.7281567 ,Left ,57,6804072566605 ,50,2929785301389 ,62,5334134538592
32.7492116 ,Left ,57,6081485717035 ,50,3104490484301 ,62,5578114499336
32.7647636 ,Left ,57,4989668537144 ,50,3706212883871 ,62,5949285501045
32.7878496 ,Left ,57,3762832856375 ,50,4412389419513 ,62,6613022659892
32.8090205 ,Left ,57,3240036303965 ,50,5349270361144 ,62,7643590315587
32.8250341 ,Left ,57,272479010239 ,50,5886522167676 ,62,8841881499951
32.8475993 ,Left ,57,2077380167401 ,50,6074399622322 ,63,0389350809842
32.8703063 ,Left ,57,1802959774941 ,50,6683409117204 ,63,1828033154603
32.884558 ,Left ,57,1875048873462 ,50,7525605013329 ,63,2905195430949
32.9076442 ,Left ,57,1785623829 ,50,7994949935963 ,63,2941825207345
32.9302655 ,Left ,57,2749834753542 ,50,8658480326758 ,63,2878215985692
32.9450642 ,Left ,57,3237629536918 ,50,9241406531884 ,63,3433935643928
32.969041 ,Left ,57,4031908051696 ,50,9863168898269 ,63,4001704860203
32.9903455 ,Left ,57,5086100822277 ,51,0440097711848 ,63,4052247260004
33.0045392 ,Left ,57,5759332774829 ,51,0441366872658 ,63,3710855839322
33.0277719 ,Left ,57,6197486407901 ,50,9990164460867 ,63,3307461083462
33.0501406 ,Left ,57,5813077451963 ,50,9150836011891 ,63,3104813594549
33.0645835 ,Left ,57,5145239981423 ,50,8255932871526 ,63,2917922588113
33.0878366 ,Left ,57,4569835417973 ,50,7371099657311 ,63,2537100492938
33.1102787 ,Left ,57,4322126457545 ,50,652245048889 ,63,2205128598228
33.131374 ,Left ,57,40859355401 ,50,5739164541339 ,63,1874774102992
33.1477779 ,Left ,57,3434030605305 ,50,5181824861106 ,63,1751123160235
33.1703798 ,Left ,57,3358241566204 ,50,4890577787864 ,63,2019151879692
33.1914873 ,Left ,57,3482640502086 ,50,4564225846539 ,63,2261929676733
33.2078148 ,Left ,57,3431630667179 ,50,4279863985311 ,63,2164528883272
33.2300964 ,Left ,57,2821105642502 ,50,3770407094855 ,63,1842601295782
33.2511322 ,Left ,57,1849324503094 ,50,368241464795 ,63,1491591099124
33.2674537 ,Left ,57,1047369590215 ,50,4617517561029 ,63,1317585842823
33.2901551 ,Left ,57,1087375944537 ,50,6352104276259 ,63,0882584512818
33.3113908 ,Left ,57,1811322659822 ,50,7505641215523 ,63,0353282288037
33.327712 ,Left ,57,2994491227613 ,50,789100638406 ,62,996434303385
33.3503424 ,Left ,57,2663061498074 ,50,7540617411465 ,62,9924989261623
33.3712684 ,Left ,57,1563525238761 ,50,7195727625201 ,62,9967233675188
33.3878304 ,Left ,57,0871122186694 ,50,7114140643416 ,62,9908430510841
33.410296 ,Left ,57,1422379525837 ,50,7671365597793 ,62,9953624887819
33.4244309 ,Left ,57,2108727815814 ,50,8634605845659 ,62,9989597666354
33.4476548 ,Left ,57,192420275211 ,50,9849224471721 ,62,9978149211626
33.4702149 ,Left ,57,2079155984481 ,51,1023096468753 ,63,0198671893414
33.4912629 ,Left ,57,202209849613 ,51,2057121648413 ,63,05735060211
33.5079813 ,Left ,57,0936241457184 ,51,3068400926678 ,63,1080942895437
33.5303783 ,Left ,57,0240276603102 ,51,3431360460653 ,63,1613153034308
33.5516552 ,Left ,57,0881330916376 ,51,3316642496225 ,63,2522797730475
33.5677698 ,Left ,57,1088478021775 ,51,338286490633 ,63,346074229116
33.5903181 ,Left ,57,0905322198133 ,51,3661452991395 ,63,3433877617975
33.6115624 ,Left ,57,0547079512924 ,51,4046431727306 ,63,3197163906147
33.6271961 ,Left ,56,9873635020615 ,51,459404251027 ,63,2687867162274
33.6504066 ,Left ,57,0566621398323 ,51,5414817140185 ,63,1927954033806
