timestamp,event,roll,pitch,yaw
0.0099648 ,Left ,69,2447607635112 ,48,1320202380609 ,74,0894869054692
0.0477084 ,Left ,69,2322202171279 ,48,1256429925528 ,74,0843298661738
0.0700259 ,Left ,69,2259450004557 ,48,123936181263 ,74,0824856326649
0.1077549 ,Left ,69,223174347827 ,48,1201056280383 ,74,0782939832317
0.1301487 ,Left ,69,2206052381513 ,48,110871441766 ,74,0773066505273
0.1676329 ,Left ,69,2156806327539 ,48,1050638040995 ,74,0776746554392
0.1901544 ,Left ,69,2123940340117 ,48,0988171250035 ,74,0817750984074
0.2276342 ,Left ,69,2074761592428 ,48,0829189792627 ,74,0922608482759
0.2498392 ,Left ,69,2079864419034 ,48,0782070227343 ,74,0955390511547
0.2949971 ,Left ,69,1908511012357 ,48,0776555235586 ,74,1015589399541
0.3176119 ,Left ,69,1923062100463 ,48,0796506805967 ,74,1006189678582
0.3476003 ,Left ,69,1826172208063 ,48,0996962519382 ,74,0979461633762
0.3706606 ,Left ,69,1872804922913 ,48,1093389168563 ,74,0966541708168
0.385659 ,Left ,69,1833393006867 ,48,1177348072035 ,74,093430904082
0.4007706 ,Left ,69,1796468060535 ,48,1252596962553 ,74,0925740334009
0.4233255 ,Left ,69,1740574091577 ,48,1370570806285 ,74,0870802749648
0.4448535 ,Left ,69,1635764251814 ,48,1535112138434 ,74,0840329019021
0.4597956 ,Left ,69,1557050441175 ,48,173258715308 ,74,079055831398
0.4829709 ,Left ,69,1534068728939 ,48,1942537967009 ,74,0709402288839
0.5056485 ,Left ,69,1329680403921 ,48,2060307030654 ,74,0631334994615
0.5205711 ,Left ,69,1096984370318 ,48,2153632618783 ,74,0549016091282
0.5431307 ,Left ,69,0752141502358 ,48,2155923735296 ,74,0475231210672
0.5653012 ,Left ,69,0494072492138 ,48,2186213855966 ,74,0398134749502
0.5802945 ,Left ,69,0388003793361 ,48,21403118506 ,74,0071010234337
0.6027199 ,Left ,69,0336378944043 ,48,265552837432 ,74,0013511926381
0.6251283 ,Left ,68,9909014509286 ,48,3601385984149 ,74,0438685551401
0.6401593 ,Left ,69,0062273207636 ,48,5017291276598 ,74,1024688494642
0.6626519 ,Left ,69,023527998263 ,48,6349232401794 ,74,1539126115997
0.6850537 ,Left ,68,9970959953089 ,48,7508753078157 ,74,1602972990613
0.6999789 ,Left ,69,0205870046587 ,48,7838022100494 ,74,1267429216236
0.72268 ,Left ,69,0035400404242 ,48,764598694773 ,74,0905875668448
0.7451025 ,Left ,68,933731263081 ,48,7299574780757 ,74,0678573010223
0.7603325 ,Left ,68,8968164350211 ,48,6869128518663 ,74,0631473413139
0.7828188 ,Left ,68,8323969862901 ,48,6366424353513 ,74,0509793359064
0.8051151 ,Left ,68,8129368991524 ,48,5928873824682 ,74,016541814865
0.8201728 ,Left ,68,8507322385468 ,48,5428421777018 ,73,9582576019698
0.8425704 ,Left ,68,8850369094922 ,48,5244750232486 ,73,9399176027284
0.8648959 ,Left ,68,9308341721836 ,48,5546607841997 ,73,9413079578361
0.8800188 ,Left ,68,8739609520524 ,48,5825677015565 ,73,924872915487
0.9024573 ,Left ,68,8546879461051 ,48,5809304978591 ,73,8894674608757
0.9248723 ,Left ,68,8950276834283 ,48,5518378421762 ,73,864659515908
0.9398878 ,Left ,68,8603722543834 ,48,5007406553194 ,73,8575773576106
0.9624098 ,Left ,68,8271538831249 ,48,5063037293805 ,73,8604305911967
0.9850526 ,Left ,68,8228696409078 ,48,5157949666041 ,73,8380412694943
0.9999981 ,Left ,68,8669151531658 ,48,5261079927025 ,73,840987054984
1.022399 ,Left ,68,8903230931608 ,48,5957933573936 ,73,8935400385716
1.0450557 ,Left ,68,824037085329 ,48,7002605359957 ,73,9447913024835
1.0675851 ,Left ,68,7598938495179 ,48,7919887275274 ,73,9853955062317
1.0824666 ,Left ,68,7819921545085 ,48,8736187515976 ,73,9767042370166
1.1049662 ,Left ,68,7394376417466 ,48,9267509359145 ,73,9491873237647
1.1275351 ,Left ,68,6962330071289 ,48,9596297687337 ,73,9185556712276
1.1431119 ,Left ,68,6463196061401 ,48,9764871410113 ,73,8798984197932
1.1656755 ,Left ,68,5975807005176 ,48,9471064174753 ,73,838404704914
1.1807986 ,Left ,68,5811898724465 ,48,8933093168014 ,73,8070861165175
1.2034374 ,Left ,68,557209334243 ,48,9286913885286 ,73,815563621981
1.2256176 ,Left ,68,5094918207908 ,49,0364466212291 ,73,8178830872812
1.2405123 ,Left ,68,5778198380478 ,49,1212998590168 ,73,806231163751
1.2628862 ,Left ,68,645527983117 ,49,1588855355721 ,73,7965382585251
1.2850891 ,Left ,68,6624319131372 ,49,1571799897091 ,73,7954509894262
1.3078946 ,Left ,68,641269682516 ,49,1560023820011 ,73,7886913006139
1.3227605 ,Left ,68,6130271350203 ,49,1593685917111 ,73,7578398013876
1.3450138 ,Left ,68,6183419800368 ,49,1700597516481 ,73,7067502192272
1.3676431 ,Left ,68,6239765095433 ,49,1785137621355 ,73,6483980609783
1.382587 ,Left ,68,6325974678888 ,49,1939222213751 ,73,5958608428194
1.4049713 ,Left ,68,6089394801072 ,49,2065683423055 ,73,503522677602
1.4273847 ,Left ,68,5777876422506 ,49,1688469278629 ,73,3774980117236
1.442487 ,Left ,68,4784065646836 ,49,0872476044175 ,73,2649717640522
1.4651393 ,Left ,68,4043773306849 ,49,0447580256223 ,73,2343379097886
1.4877529 ,Left ,68,4411758343121 ,49,0628889909291 ,73,2823230872931
1.5025431 ,Left ,68,531281067677 ,49,1014681654257 ,73,3459669886616
1.5249504 ,Left ,68,5812758449965 ,49,1004548273708 ,73,3960402473152
1.5474282 ,Left ,68,5380073961671 ,49,0690219365722 ,73,4085462212819
1.562593 ,Left ,68,5671332459349 ,48,9649482213859 ,73,377527711241
1.5850362 ,Left ,68,5792878408651 ,48,7732714561935 ,73,3412955989807
1.60769 ,Left ,68,5975374380822 ,48,6663446994944 ,73,3606849587531
1.6226133 ,Left ,68,5180320382868 ,48,6049775061783 ,73,408555258171
1.6450552 ,Left ,68,5198345654416 ,48,5551629030293 ,73,4106467661145
1.6678955 ,Left ,68,6655114125118 ,48,4497767756241 ,73,406732324825
1.6827944 ,Left ,68,7287193482103 ,48,3631365102517 ,73,4323973787939
1.705172 ,Left ,68,6979850763717 ,48,3930830020982 ,73,4506722275493
1.7278057 ,Left ,68,6720734158072 ,48,4501581564333 ,73,4524114145405
1.7431642 ,Left ,68,7554500932912 ,48,5042365507229 ,73,4504328977989
1.7652681 ,Left ,68,8353015486275 ,48,5115339740246 ,73,4589656273469
1.7878925 ,Left ,68,9012887503893 ,48,5023808801998 ,73,4748024115974
1.8030459 ,Left ,68,8932945817754 ,48,4776619391921 ,73,4708348519528
1.8254425 ,Left ,68,9104741098568 ,48,4276961447299 ,73,454589180877
1.8479803 ,Left ,68,970787674626 ,48,3683696031809 ,73,4476895726054
1.862804 ,Left ,69,0213033352918 ,48,3142147145949 ,73,4548457781233
1.8853752 ,Left ,69,0635306457006 ,48,2718470159502 ,73,4684084783555
1.9077338 ,Left ,69,0897895858518 ,48,2373838548796 ,73,4875445928228
1.9228602 ,Left ,69,104528072608 ,48,2043758473942 ,73,5012295643131
1.9452318 ,Left ,69,1362753279613 ,48,1690883952498 ,73,5135153219365
1.9677593 ,Left ,69,1690414579612 ,48,1410238576925 ,73,5277131693919
1.9827307 ,Left ,69,2031309627691 ,48,120853620835 ,73,5439325314041
2.0051072 ,Left ,69,2297272649263 ,48,1080923913603 ,73,557871532202
2.0275564 ,Left ,69,247270896389 ,48,0904921808009 ,73,5635489466155
2.0424899 ,Left ,69,2535385515523 ,48,0751103791496 ,73,5638362900211
2.0649698 ,Left ,69,2520155210553 ,48,062845043563 ,73,5578678403452
2.0948283 ,Left ,69,2617777022807 ,48,0671233187704 ,73,5565203286702
2.1100603 ,Left ,69,2827399473681 ,48,077708200968 ,73,5529164324856
2.1325987 ,Left ,69,2895496748089 ,48,0864680049543 ,73,5457903291124
2.1629216 ,Left ,69,2721227614809 ,48,0884328099393 ,73,5363463358635
2.1853756 ,Left ,69,2651981754119 ,48,0937819477707 ,73,5266992475227
2.2077897 ,Left ,69,2627193537647 ,48,0930287865953 ,73,5180650435597
2.2300419 ,Left ,69,2489857140626 ,48,0843904157583 ,73,5139536937221
2.2449405 ,Left ,69,2404352245281 ,48,0687624130005 ,73,5119872260189
2.2674676 ,Left ,69,2471234171541 ,48,055628054534 ,73,5101269997744
2.290143 ,Left ,69,253657687012 ,48,0449443567792 ,73,5036504160252
2.3051195 ,Left ,69,2567722187972 ,48,03943943755 ,73,4950056170464
2.3278735 ,Left ,69,2499213224522 ,48,0260121940423 ,73,4861488410788
2.3501396 ,Left ,69,2364861584779 ,48,0119532395691 ,73,4852537400223
2.3649339 ,Left ,69,2435009119668 ,48,0047302768596 ,73,4850786629167
2.3876584 ,Left ,69,2454931409451 ,48,002034527357 ,73,4873999630891
2.4100897 ,Left ,69,2310091596744 ,47,9934163473586 ,73,4868808343831
2.4249811 ,Left ,69,209520146385 ,47,992019530774 ,73,486553474756
2.4474321 ,Left ,69,1965980267064 ,47,9920001669572 ,73,4881520273185
2.4703633 ,Left ,69,1928720608679 ,47,9919910826964 ,73,4866689810932
2.4853029 ,Left ,69,1712515932221 ,47,9874750478318 ,73,4908938967703
2.5078685 ,Left ,69,1432495668023 ,47,9764483812033 ,73,5002089704048
2.5378343 ,Left ,69,1112032910865 ,47,9737656515532 ,73,5063723614611
2.5529774 ,Left ,69,0938719659915 ,47,9753569340716 ,73,5077907609723
2.5750089 ,Left ,69,0764615553922 ,47,9799004232581 ,73,5106702537712
2.5900766 ,Left ,69,0515854488465 ,47,9821129936459 ,73,5105514250332
2.6049077 ,Left ,69,0261581876153 ,47,9890375872935 ,73,5071490893608
2.6274798 ,Left ,68,9999053461902 ,47,9992244564149 ,73,4980284298407
2.6504924 ,Left ,68,9733534293553 ,48,0087272425986 ,73,4888156198492
2.665598 ,Left ,68,943795413712 ,48,0253418106097 ,73,4859500365202
2.688043 ,Left ,68,9247395212264 ,48,041665425689 ,73,478907772163
2.7103836 ,Left ,68,9180486164532 ,48,0544849594264 ,73,4639295990909
2.725205 ,Left ,68,887026267173 ,48,1227812592999 ,73,4697810461957
2.7478088 ,Left ,68,8011917576851 ,48,2069531749105 ,73,5141048705105
2.770326 ,Left ,68,7558986934909 ,48,2916712058443 ,73,5525141644289
2.785164 ,Left ,68,7681916113525 ,48,3300424998001 ,73,5873881936681
2.8078395 ,Left ,68,7380636005885 ,48,3822273443771 ,73,6230917755655
2.8303056 ,Left ,68,7179324291294 ,48,434535226429 ,73,6355169000408
2.8449901 ,Left ,68,7274675895359 ,48,4461441411752 ,73,595261662929
2.8678381 ,Left ,68,7082532358081 ,48,3689866098638 ,73,5292786586655
2.8901435 ,Left ,68,6687016134933 ,48,3062727072488 ,73,5376010605396
2.9051912 ,Left ,68,5710665513311 ,48,3433371443635 ,73,5584211707765
2.9278967 ,Left ,68,5424884886721 ,48,3258545355889 ,73,5078383702226
2.9503379 ,Left ,68,6209695715665 ,48,2754459530824 ,73,4681227752708
2.9651585 ,Left ,68,6280922630688 ,48,2379502212129 ,73,4359645452602
2.9876626 ,Left ,68,591447173219 ,48,2209378487709 ,73,404213793266
3.0099769 ,Left ,68,5511600524249 ,48,221036887974 ,73,3723257210694
3.0249856 ,Left ,68,5700878688568 ,48,2083904527533 ,73,3391832321639
3.0475019 ,Left ,68,6269779197049 ,48,2105617359855 ,73,3269239822218
3.0776505 ,Left ,68,5907373135321 ,48,2108068460443 ,73,3321945783369
3.0927426 ,Left ,68,540097312177 ,48,2501140898274 ,73,3583538581524
3.1150269 ,Left ,68,5320625925013 ,48,32033511154 ,73,3653258431389
3.1449791 ,Left ,68,4924505533473 ,48,478969917737 ,73,4209827468856
3.1676976 ,Left ,68,4371442163304 ,48,5554609349369 ,73,4412522889025
3.1902037 ,Left ,68,4086405051501 ,48,5921134716702 ,73,4351910778108
3.2127631 ,Left ,68,3679830611662 ,48,6076803321364 ,73,435095586555
3.2274529 ,Left ,68,3141286422143 ,48,6008311741707 ,73,4421270384665
3.2499075 ,Left ,68,2755569403256 ,48,6152775741322 ,73,4587268014825
3.2725047 ,Left ,68,2117511391178 ,48,5945653086694 ,73,458431889725
3.2877004 ,Left ,68,195888502554 ,48,5651805695178 ,73,460305432538
3.3101333 ,Left ,68,1790182993042 ,48,5682355852223 ,73,4655581924656
3.3326869 ,Left ,68,1597257014238 ,48,6603297708448 ,73,4707509936833
3.347759 ,Left ,68,1589171956164 ,48,7850712733254 ,73,4677191411331
3.3699747 ,Left ,68,195451299612 ,48,8767698090258 ,73,4590454854372
3.3927807 ,Left ,68,2542741340147 ,48,9066424701253 ,73,4533343426851
3.4078701 ,Left ,68,2785380807288 ,48,9022329585786 ,73,4415762621469
3.4302623 ,Left ,68,3111044836719 ,48,8986240330583 ,73,4422438111869
3.4528818 ,Left ,68,3056190231131 ,48,9198802477596 ,73,432964798875
3.4679734 ,Left ,68,2982785394214 ,48,9505315888085 ,73,4041445144273
3.4902187 ,Left ,68,3438648209307 ,48,9859875167309 ,73,3499811644291
3.5124291 ,Left ,68,3938299954539 ,49,011122077734 ,73,2860421481449
3.5277504 ,Left ,68,3896665016407 ,49,0187858519322 ,73,2380533847866
3.5576566 ,Left ,68,3378987770392 ,49,0256143386829 ,73,1973007694222
3.5801836 ,Left ,68,3228647649157 ,49,0193608693421 ,73,0959284247434
3.5952605 ,Left ,68,3204905781471 ,48,9563053796952 ,72,9920032808694
3.617626 ,Left ,68,2154694225671 ,48,9250709880752 ,72,9184013057321
3.6328593 ,Left ,68,2045321099887 ,48,8856446486229 ,72,8750003744593
3.6478204 ,Left ,68,2355827989364 ,48,8154343345895 ,72,8947362386901
3.6704271 ,Left ,68,3127795638138 ,48,8430543787358 ,72,9635016629019
3.692855 ,Left ,68,3700744109763 ,48,8730670415577 ,73,0140637008795
3.7078455 ,Left ,68,4084517835542 ,48,8620545484399 ,73,0379141794997
3.7304275 ,Left ,68,4146477578998 ,48,7816673453285 ,73,0281599791713
3.753002 ,Left ,68,4454661069612 ,48,6434209911315 ,73,0049089526188
3.7679449 ,Left ,68,438502815895 ,48,4733464897892 ,72,9960842634992
3.7903245 ,Left ,68,4282514581384 ,48,4045552528619 ,73,0174935188183
3.8130521 ,Left ,68,3992777110892 ,48,3397027657067 ,73,0279352618152
3.8278928 ,Left ,68,4706163284837 ,48,2831736118612 ,73,0087402083376
3.8502331 ,Left ,68,4800764052471 ,48,2080995137704 ,73,0345110640491
3.8728585 ,Left ,68,5050132132836 ,48,2168262288513 ,73,0787675442053
3.8952402 ,Left ,68,4548162211837 ,48,2818536122918 ,73,1054572145763
3.9104081 ,Left ,68,4505260488529 ,48,3378914456531 ,73,1022064934638
3.9328924 ,Left ,68,5051332047904 ,48,3623946672112 ,73,1032086662839
3.9480026 ,Left ,68,5134216762135 ,48,3633131787575 ,73,098972655758
3.9701703 ,Left ,68,5577079978061 ,48,3543847280948 ,73,0948815005803
3.9926178 ,Left ,68,5422600660298 ,48,3242426576531 ,73,0800601931891
4.0150125 ,Left ,68,5430688417496 ,48,2928661276906 ,73,067208404084
4.0301 ,Left ,68,5756427567635 ,48,2538493255456 ,73,0602243973362
4.0527702 ,Left ,68,5954433148329 ,48,21844657241 ,73,0586436959726
4.067633 ,Left ,68,6012017834698 ,48,1822250083855 ,73,0680917228092
4.0900097 ,Left ,68,6191474724021 ,48,156504929135 ,73,0837492203688
4.1129273 ,Left ,68,6343881346449 ,48,1231620550765 ,73,0939039450283
4.1353277 ,Left ,68,6663279686663 ,48,0951808860953 ,73,1030239003999
4.1505289 ,Left ,68,6942943834027 ,48,0789347066407 ,73,1209966908912
4.1729053 ,Left ,68,7069167351169 ,48,0756989190724 ,73,1426042724811
4.1948502 ,Left ,68,7293999442414 ,48,0640708525249 ,73,1606551719449
4.2098974 ,Left ,68,7463016586312 ,48,0580806333459 ,73,1658723156987
4.2325725 ,Left ,68,7294875155921 ,48,0259038096511 ,73,1626470730078
4.2550329 ,Left ,68,7286716745058 ,48,0057405555602 ,73,1648559439132
4.2625218 ,Left ,68,7204639717318 ,48,0063467428061 ,73,1714518787656
4.2848808 ,Left ,68,7305838846173 ,48,0179328231535 ,73,1775508356748
4.3227711 ,Left ,68,7186459725744 ,47,9992157312448 ,73,2041487491982
4.3448983 ,Left ,68,6907690497489 ,48,0007856545142 ,73,2159132365529
4.390076 ,Left ,68,6776461988751 ,48,0058770435573 ,73,225082682669
4.4125079 ,Left ,68,6571602655242 ,47,9906114627202 ,73,2301829330808
4.4424385 ,Left ,68,5448448776288 ,48,0318304009159 ,73,2726808096364
4.4650721 ,Left ,68,5221320470777 ,48,0439171832119 ,73,2772108311425
4.5027077 ,Left ,68,551694197486 ,48,1362349126224 ,73,3225897654963
4.5250929 ,Left ,68,5030067166691 ,48,2573743880498 ,73,3616650022521
4.5628638 ,Left ,68,6033147460931 ,48,4123588348084 ,73,3857724210473
4.5851354 ,Left ,68,5866554278473 ,48,3939134924882 ,73,3619567588533
4.6225829 ,Left ,68,4604000381121 ,48,2833751829936 ,73,3125871376382
4.6448248 ,Left ,68,4266036269097 ,48,2468354489835 ,73,2871066068995
4.682394 ,Left ,68,4821664044654 ,48,2090389175438 ,73,2553281789516
4.7051405 ,Left ,68,4618446226068 ,48,210200633438 ,73,2639261698262
4.7425463 ,Left ,68,4205594401121 ,48,2538017260561 ,73,2944039641751
4.7649165 ,Left ,68,4308080605167 ,48,275223497155 ,73,2904762167476
4.8025963 ,Left ,68,408725296492 ,48,2097247308484 ,73,2566726353611
4.8248696 ,Left ,68,3849950724485 ,48,2004637612054 ,73,2513457510859
4.8624849 ,Left ,68,3549929926552 ,48,3056052393044 ,73,3029864564561
4.8850293 ,Left ,68,3721665090646 ,48,4093989293979 ,73,35821583049
4.9224809 ,Left ,68,2977206875608 ,48,608999709869 ,73,4572082687152
4.9450047 ,Left ,68,2699073516948 ,48,6688275600504 ,73,4764940349111
4.9827431 ,Left ,68,1677190479358 ,48,72879786991 ,73,517583601737
5.0048407 ,Left ,68,1667173623491 ,48,7538017108553 ,73,5264265332668
5.0426237 ,Left ,68,0915007753711 ,48,7329619833272 ,73,5123729071362
5.0724845 ,Left ,68,1031097544542 ,48,7345706246773 ,73,5012190749617
5.1100738 ,Left ,68,0764282008143 ,48,9106656095384 ,73,4992543055051
5.1250823 ,Left ,68,1432430553699 ,48,9840716435948 ,73,4936142241891
5.1629532 ,Left ,68,2471426648397 ,48,9642510396425 ,73,4563204625626
5.1850044 ,Left ,68,2388528011605 ,48,9574749518905 ,73,4350529652737
5.2226119 ,Left ,68,233408430117 ,49,0049023545972 ,73,3663761300903
5.245043 ,Left ,68,2698833432376 ,49,0268861136227 ,73,3116737616655
5.2825689 ,Left ,68,3038339416361 ,48,990237698807 ,73,1872554816927
5.305111 ,Left ,68,2801989346821 ,48,9793776682865 ,73,1329953571499
5.3429396 ,Left ,68,2741704212181 ,48,9738389862536 ,72,930777164458
5.3653693 ,Left ,68,257089050426 ,48,9550366928864 ,72,8313442630176
5.4022969 ,Left ,68,1988206162967 ,49,0003309096343 ,72,7255614236665
5.424958 ,Left ,68,2130439694539 ,48,9644270286085 ,72,6701768428668
5.462863 ,Left ,68,2537949634763 ,48,9400199057691 ,72,7043987227209
5.4849285 ,Left ,68,2885159303119 ,48,9599463408882 ,72,7198663354474
5.5227481 ,Left ,68,3552047973704 ,48,8902145954272 ,72,7461837847789
5.5449398 ,Left ,68,352139566049 ,48,7517241034577 ,72,7230381860213
5.5899187 ,Left ,68,3797980728755 ,48,4743967127507 ,72,6545402780671
5.6125233 ,Left ,68,3520846035777 ,48,3822828891978 ,72,6674916512052
5.6424465 ,Left ,68,3866993132364 ,48,2994509650494 ,72,7354777488376
5.6649524 ,Left ,68,4742411759018 ,48,2607067094112 ,72,7603076677839
5.7025387 ,Left ,68,4246322787266 ,48,3419809540999 ,72,8103336340321
5.7249489 ,Left ,68,4559250679862 ,48,3750840677396 ,72,8096149660556
5.7635061 ,Left ,68,5090521242183 ,48,3524783272619 ,72,8082801384748
5.7849105 ,Left ,68,4642341130553 ,48,3311164495355 ,72,8184848033678
5.8226537 ,Left ,68,5003298929292 ,48,2819613166859 ,72,8226328662015
5.8529986 ,Left ,68,5240859706311 ,48,2438504632047 ,72,8210515674656
5.890011 ,Left ,68,5314483648141 ,48,1306452076995 ,72,8205808210745
5.9051714 ,Left ,68,5504817244939 ,48,0969868359203 ,72,8260613638746
5.9426961 ,Left ,68,6090371949368 ,48,0665844356127 ,72,8348548974679
5.9650214 ,Left ,68,6356014352494 ,48,0638601207661 ,72,8346815539423
6.0030293 ,Left ,68,6558988822556 ,48,0020007031335 ,72,8160875851391
6.0252672 ,Left ,68,6471255182171 ,47,9832800492563 ,72,8121397153251
6.0631675 ,Left ,68,6459136268596 ,47,9782782372019 ,72,8117109993055
6.0853743 ,Left ,68,6355477338486 ,47,9810574581793 ,72,830239513367
6.1304623 ,Left ,68,6025840404068 ,47,9715271101877 ,72,867996007597
6.1454477 ,Left ,68,5795036220708 ,47,9770331920929 ,72,8943950543815
6.1682144 ,Left ,68,5634994197026 ,47,9919889311609 ,72,9181007645317
6.1831934 ,Left ,68,5491044502542 ,47,9976526012933 ,72,9425939779842
6.1979883 ,Left ,68,5255726650174 ,47,9894038345435 ,72,9539697924139
6.2201819 ,Left ,68,4980231101076 ,47,9803920956748 ,72,959330384024
6.2351274 ,Left ,68,4772068337691 ,47,9807258532352 ,72,9678862523191
6.2575838 ,Left ,68,4679662627583 ,48,0037802274427 ,72,9737251301315
6.2802581 ,Left ,68,4440085202164 ,48,0397088761672 ,72,990177694676
6.2952218 ,Left ,68,4057307870945 ,48,0705021884814 ,73,0012078781133
6.3176546 ,Left ,68,3876417693485 ,48,1048036958762 ,73,0131170665432
6.3405572 ,Left ,68,3875023646766 ,48,1478967909818 ,73,0498479982564
6.3553575 ,Left ,68,3926305040011 ,48,2160336510699 ,73,1040157138103
6.3778082 ,Left ,68,4055601714118 ,48,2935115889909 ,73,1498324476576
6.4004942 ,Left ,68,4375889790857 ,48,3483789664892 ,73,1788684348101
6.4154174 ,Left ,68,4347123698842 ,48,3437066221498 ,73,1747916835847
6.4380629 ,Left ,68,406065536012 ,48,3135539600695 ,73,159467463012
6.4604276 ,Left ,68,3641236986159 ,48,2737856960987 ,73,1346712423397
6.4753762 ,Left ,68,3538387274159 ,48,2532850498858 ,73,0964494150496
6.4980783 ,Left ,68,3217637017758 ,48,2290587147297 ,73,0580943311443
6.5205526 ,Left ,68,2971475061982 ,48,2204064962986 ,73,0682552107043
6.535433 ,Left ,68,2230339819907 ,48,2582418917033 ,73,1002929943378
6.5579375 ,Left ,68,156718798402 ,48,3203265260355 ,73,1189126389635
6.5805092 ,Left ,68,1955929346904 ,48,3405697880453 ,73,1583726639888
6.5954215 ,Left ,68,1602914575662 ,48,4282310561237 ,73,2093902972327
6.6178369 ,Left ,68,1209765874252 ,48,5062317906539 ,73,2266486236327
6.640158 ,Left ,68,1504481050305 ,48,5220735342496 ,73,2078840506337
6.6549722 ,Left ,68,1288712255811 ,48,5160362572842 ,73,2017636193193
6.6776394 ,Left ,68,0687809515684 ,48,5152090075557 ,73,1976502891642
6.6999795 ,Left ,68,018820555564 ,48,5208095979242 ,73,1839113657777
6.7150336 ,Left ,67,976841433483 ,48,5377841293682 ,73,1842746679184
6.7377719 ,Left ,68,0219880560046 ,48,5961357238839 ,73,2312284302547
6.7602756 ,Left ,67,9986658149602 ,48,686653703679 ,73,2677296053471
6.7751172 ,Left ,67,9826973671044 ,48,7564422529007 ,73,2986370632576
6.7978135 ,Left ,68,0305089797792 ,48,7795671859603 ,73,3074511946675
6.8202369 ,Left ,67,9792184472417 ,48,7700758264637 ,73,3276331382509
6.8350835 ,Left ,67,9640514453442 ,48,793832487081 ,73,3367270172164
6.8578264 ,Left ,67,9747018068537 ,48,7745578291548 ,73,3242189524447
6.8802151 ,Left ,67,9514921018315 ,48,7275661654428 ,73,3056797504186
6.8950623 ,Left ,67,9184985761738 ,48,6927169422648 ,73,2912885191424
6.9176643 ,Left ,67,9232173093768 ,48,7104675927398 ,73,2702003319995
6.9400122 ,Left ,67,8780962653117 ,48,7864373718682 ,73,2480852075712
6.9700497 ,Left ,67,8901203313324 ,48,8576190828001 ,73,2286668506959
6.9850396 ,Left ,67,9358080302558 ,48,8771397495688 ,73,2054032672905
7.007738 ,Left ,67,9661291984457 ,48,8649022635223 ,73,1827207903754
7.0227678 ,Left ,67,9917587686706 ,48,8468120996449 ,73,160511910072
7.0376982 ,Left ,67,9928619444994 ,48,8337072339465 ,73,1373475535686
7.0599966 ,Left ,68,0322892923073 ,48,8379776790829 ,73,1105312879274
7.0826784 ,Left ,68,0510416994718 ,48,8459170816706 ,73,0851085922598
7.0978708 ,Left ,68,0805611024569 ,48,8534745663508 ,73,0580981261619
7.1207164 ,Left ,68,1149543051073 ,48,8595630947425 ,73,0241779764774
7.1431301 ,Left ,68,1328398005355 ,48,8586978498507 ,72,9830382087482
7.1582385 ,Left ,68,1152766179461 ,48,8689887911602 ,72,9454119278871
7.1802078 ,Left ,68,0840799307055 ,48,8768713287598 ,72,8742092362062
7.2029706 ,Left ,68,0533769885314 ,48,8590011258218 ,72,7932928559082
7.2178919 ,Left ,68,0214374096759 ,48,8369934521849 ,72,7445894516946
7.2403274 ,Left ,67,9833653661291 ,48,8285720540357 ,72,7037551040889
7.262953 ,Left ,68,0021449062697 ,48,7669712523731 ,72,6506331497727
7.277915 ,Left ,67,999930758256 ,48,6775797270482 ,72,6503225476113
7.3002457 ,Left ,68,0286691730168 ,48,7010417320647 ,72,6959774998291
7.3225051 ,Left ,68,0999993415533 ,48,7391777171056 ,72,7161682504573
7.3374713 ,Left ,68,1334205303607 ,48,7233746966325 ,72,7110610734925
7.3599733 ,Left ,68,1146628090479 ,48,6396234070117 ,72,6809250733838
7.3825051 ,Left ,68,0978890171537 ,48,4965287142606 ,72,6496850350311
7.3976136 ,Left ,68,0861085227208 ,48,3609376737476 ,72,6511730217269
7.4200318 ,Left ,68,1063008602502 ,48,3368866973902 ,72,6876657102798
7.4425323 ,Left ,68,0900166347188 ,48,3096303941728 ,72,7132207223791
7.4577369 ,Left ,68,1714686287015 ,48,2878453395111 ,72,7359466200885
7.480222 ,Left ,68,2038470848167 ,48,2497736071277 ,72,7640405335543
7.5027043 ,Left ,68,2025952710197 ,48,2625436644501 ,72,7835210350452
7.517752 ,Left ,68,1535544485343 ,48,2950240946245 ,72,7811964021715
7.5400474 ,Left ,68,1792193336946 ,48,3386939756531 ,72,7768634464063
7.562978 ,Left ,68,2304353242803 ,48,3343411145698 ,72,7728516521701
7.5778219 ,Left ,68,2847453281538 ,48,319663771301 ,72,7859281890692
7.6004146 ,Left ,68,2625020592441 ,48,2955480176278 ,72,8008119591809
7.6225208 ,Left ,68,2605865948839 ,48,2755717926128 ,72,8123881416648
7.6375274 ,Left ,68,2982327084142 ,48,2479125101793 ,72,808713871417
7.6600651 ,Left ,68,3278536792119 ,48,2312519933195 ,72,8077140112056
7.6826641 ,Left ,68,3439818394772 ,48,2033297231953 ,72,8053944399612
7.6977633 ,Left ,68,3726896490323 ,48,1807996358899 ,72,8063624877162
7.7202709 ,Left ,68,392435447193 ,48,1700297333472 ,72,8194107952455
7.7426114 ,Left ,68,4277513063045 ,48,1589853762205 ,72,8377202249448
7.7575476 ,Left ,68,4635718776064 ,48,1455824515576 ,72,854780425647
7.7802023 ,Left ,68,4630087976866 ,48,1082069174215 ,72,8663364995242
7.8027129 ,Left ,68,4646182365453 ,48,0317607369523 ,72,867377392045
7.8176747 ,Left ,68,4886802413478 ,47,9697535829508 ,72,8678054920144
7.8400035 ,Left ,68,510843097969 ,47,9413678246681 ,72,8775440015629
7.8628752 ,Left ,68,5416083403285 ,47,938522418781 ,72,8856306184928
7.8776668 ,Left ,68,561847645626 ,47,9225949315538 ,72,8831084179055
7.900018 ,Left ,68,5392529719599 ,47,8986256665628 ,72,8853539443681
7.9228137 ,Left ,68,5165384419236 ,47,8886530615152 ,72,8956971192525
7.9451836 ,Left ,68,5103451899569 ,47,8992107305535 ,72,9089531430732
7.9602844 ,Left ,68,5112507310902 ,47,9158573649067 ,72,932390945696
7.9825193 ,Left ,68,5003018267332 ,47,928542346247 ,72,9573530208699
8.0127821 ,Left ,68,4617733084936 ,47,9256324189558 ,72,9803468869517
8.0276377 ,Left ,68,4201470370834 ,47,9359253226977 ,73,0064560423804
8.0651681 ,Left ,68,37698121847 ,47,9681255259948 ,73,0420451158304
8.0801348 ,Left ,68,3628501770437 ,47,962224148312 ,73,0435761688961
8.1029402 ,Left ,68,3320376075723 ,47,939126781595 ,73,029342078527
8.1251239 ,Left ,68,316788642755 ,47,9297127794382 ,73,0283046186434
8.1401481 ,Left ,68,2928485864316 ,47,9915918526918 ,73,0757275686153
8.1628759 ,Left ,68,2222827513223 ,48,0699070550388 ,73,1092592693425
8.185144 ,Left ,68,2511079233201 ,48,1307396549188 ,73,1232719928363
8.2001747 ,Left ,68,2341385138077 ,48,1978378608494 ,73,1489498359019
8.2227092 ,Left ,68,2149398765746 ,48,2766606876884 ,73,1681755540255
8.2451835 ,Left ,68,2777112373418 ,48,3421755308869 ,73,1716645798903
8.2601766 ,Left ,68,2825936024324 ,48,3563648992312 ,73,1575006913491
8.2827331 ,Left ,68,2275023168921 ,48,2970176874902 ,73,1229554380877
8.3052028 ,Left ,68,1827815293029 ,48,2201510216072 ,73,0999285745901
8.3203109 ,Left ,68,1704871324726 ,48,1893465193457 ,73,1034996882203
8.3502252 ,Left ,68,108545570093 ,48,1766623679979 ,73,0981041800991
8.372539 ,Left ,68,1658692833681 ,48,1506041062936 ,73,0681168221221
8.3877528 ,Left ,68,2261947197698 ,48,112059784313 ,73,0471247729864
8.4100811 ,Left ,68,2252718310212 ,48,0995560410774 ,73,0357931831973
8.4251076 ,Left ,68,1781790966378 ,48,1261184694951 ,73,0238507974564
8.4401055 ,Left ,68,1815556033256 ,48,1450141579082 ,73,005114566842
8.4627982 ,Left ,68,2133063480732 ,48,1308846091824 ,72,9913038135136
8.4849885 ,Left ,68,1783288030553 ,48,1680494064467 ,73,0085299221586
8.5002723 ,Left ,68,0887248409086 ,48,2450254955787 ,73,0494956333545
8.5227413 ,Left ,68,0702040488282 ,48,2975429153159 ,73,0717325862039
8.5452208 ,Left ,68,1145471287469 ,48,3589140488431 ,73,1135904042346
8.5603256 ,Left ,68,0597985326753 ,48,4364626761348 ,73,1571101786362
8.5827503 ,Left ,67,9997762036433 ,48,5248981534239 ,73,1950959016174
8.6052215 ,Left ,67,9870723499012 ,48,5743136698349 ,73,2023088517548
8.6203084 ,Left ,67,9783816528671 ,48,6044031534444 ,73,2190915861672
8.642769 ,Left ,67,8987925095759 ,48,614066678912 ,73,2430159533413
8.6650266 ,Left ,67,8624717941715 ,48,6325232431949 ,73,2507147494642
8.680286 ,Left ,67,8533667477212 ,48,6214145338378 ,73,2519759468288
8.702701 ,Left ,67,8046296313174 ,48,5911527748041 ,73,2646289359549
8.7250401 ,Left ,67,7330052870738 ,48,5760315353354 ,73,2620331778885
8.7400072 ,Left ,67,7397905796625 ,48,5664171553863 ,73,2560128753102
8.7626266 ,Left ,67,766674214896 ,48,6296577261705 ,73,2358248753061
8.785027 ,Left ,67,7834546791987 ,48,7411537502071 ,73,2172147895806
8.8000445 ,Left ,67,8392286461897 ,48,8113749848957 ,73,1924314181503
8.8225132 ,Left ,67,8980187826855 ,48,8286521936946 ,73,1742762782227
8.844935 ,Left ,67,9242022862083 ,48,8202213143219 ,73,1610036073099
8.8677834 ,Left ,67,9869051408654 ,48,8184776665634 ,73,1688470396592
8.8829604 ,Left ,67,9923205054581 ,48,8535180793627 ,73,1680622914337
8.9128025 ,Left ,68,017240267686 ,48,8804473143835 ,73,1290760789946
8.9352123 ,Left ,68,1022599596125 ,48,908340022874 ,73,0786679597259
8.9503019 ,Left ,68,1441342136207 ,48,9580592605366 ,73,028797155221
8.9649604 ,Left ,68,1120605595279 ,48,9826986554858 ,72,9702986765542
8.9875482 ,Left ,68,082688118142 ,48,9916100513812 ,72,8724246691527
9.0025474 ,Left ,68,061357632459 ,48,9414239145484 ,72,7556156430739
9.0249222 ,Left ,68,0313329671084 ,48,9098891091324 ,72,6796964553125
9.0477423 ,Left ,67,9823010692592 ,48,9306538120432 ,72,6172152493359
9.0630632 ,Left ,67,9628689671295 ,48,8971247944185 ,72,5155729879386
9.0853135 ,Left ,67,9799222800385 ,48,8232438888806 ,72,4604672211546
9.1151884 ,Left ,67,9900418911867 ,48,7657051701877 ,72,4731851732537
9.1304507 ,Left ,68,0628867816211 ,48,7638005016027 ,72,4973391976419
9.1530703 ,Left ,68,1427642513789 ,48,7532088925497 ,72,5134085849606
9.1680231 ,Left ,68,2062320480751 ,48,7339120860895 ,72,5348749466978
9.1831689 ,Left ,68,2032842207247 ,48,6663682609407 ,72,5378435789555
9.2054272 ,Left ,68,2170459576241 ,48,5851294332518 ,72,5349906702273
9.2279368 ,Left ,68,2913617876305 ,48,4991462713932 ,72,5417999057301
9.2429123 ,Left ,68,3396420717682 ,48,4088691985886 ,72,5642731771197
9.2654932 ,Left ,68,3582949920281 ,48,3281155236675 ,72,5989957626251
9.2879663 ,Left ,68,3713488875332 ,48,274320191406 ,72,6388209244808
9.3030216 ,Left ,68,3857281510755 ,48,232121563697 ,72,6866122040671
9.3254389 ,Left ,68,4096901037294 ,48,2062505216144 ,72,7268592509608
9.3479617 ,Left ,68,3820979203132 ,48,1798506127985 ,72,7471541080286
9.3630186 ,Left ,68,327606888789 ,48,1613776793981 ,72,7705808668106
9.3854718 ,Left ,68,2993702833353 ,48,1388292738868 ,72,7960454680347
9.4078805 ,Left ,68,331617132582 ,48,129607597357 ,72,842313622276
9.422889 ,Left ,68,3444652829131 ,48,1302200152899 ,72,8780061425164
9.4451855 ,Left ,68,3444516567447 ,48,1891315676498 ,72,8956915292201
9.4676519 ,Left ,68,3106012732764 ,48,2543341475236 ,72,9054371655695
9.4828748 ,Left ,68,3155108894081 ,48,3020564109302 ,72,9088051813966
9.50498 ,Left ,68,343423923481 ,48,3049326403867 ,72,9091747531306
9.5277172 ,Left ,68,3732758510986 ,48,2882176973429 ,72,902331173484
9.5429778 ,Left ,68,3446351766409 ,48,2622425767179 ,72,9028019449253
9.5651138 ,Left ,68,3292755906065 ,48,2205735509622 ,72,9065483229508
9.58771 ,Left ,68,3622848721538 ,48,1680868884861 ,72,9104938705749
9.602829 ,Left ,68,3911831943226 ,48,1163333593818 ,72,9165301035028
9.6250771 ,Left ,68,4007812673301 ,48,0853982787485 ,72,93733004977
9.6477267 ,Left ,68,4032475489727 ,48,0713479374852 ,72,9588385909944
9.6626731 ,Left ,68,4209781675997 ,48,0713970337635 ,72,9619125211309
9.6848959 ,Left ,68,4344725809478 ,48,0536370697614 ,72,9553735585627
9.7077594 ,Left ,68,4320106175228 ,48,0346460838524 ,72,9517649535504
9.7225525 ,Left ,68,4213901959192 ,48,0311312502243 ,72,9500185818141
9.7533814 ,Left ,68,4140676972366 ,48,0360392050744 ,72,9523782260054
9.775472 ,Left ,68,4105084329062 ,48,0470572236138 ,72,9575613091947
9.7907248 ,Left ,68,4041525057091 ,48,0524713766818 ,72,9670579567849
9.8056894 ,Left ,68,4001009531316 ,48,041869741511 ,72,9709817235287
9.8282874 ,Left ,68,3999212374208 ,48,0344314804218 ,72,9763089264358
9.8506195 ,Left ,68,4065720116527 ,48,0332791159903 ,72,9789008692149
9.8654289 ,Left ,68,4065720116527 ,48,0332791159903 ,72,9789008692149
9.8878879 ,Left ,68,4065343282449 ,48,0281456868053 ,72,969202336466
9.9103124 ,Left ,68,3942042178331 ,48,0123711682604 ,72,9594996794452
9.9251073 ,Left ,68,3962730762052 ,48,0112401164267 ,72,9595799998605
9.9476034 ,Left ,68,3947646876753 ,48,0115525191151 ,72,9559722456475
9.9702963 ,Left ,68,4010854596792 ,48,0195805502159 ,72,9484417788727
9.98502 ,Left ,68,3963928986079 ,48,0225405018284 ,72,9473581709484
10.0152242 ,Left ,68,3856318377809 ,48,0213836085868 ,72,9409916678881
10.0452474 ,Left ,68,3683066625149 ,48,0130648049465 ,72,9397737722156
10.097952 ,Left ,68,3529328309706 ,48,001919907425 ,72,959738399827
10.1200272 ,Left ,68,3368703125222 ,47,9941688958732 ,72,9597680259232
10.1576005 ,Left ,68,3353239290135 ,47,989128551544 ,72,9653245038479
10.1799545 ,Left ,68,3269722288759 ,47,9920314837459 ,72,962816548456
10.2175623 ,Left ,68,3227006800793 ,47,9965183099473 ,72,9535614689337
10.2402116 ,Left ,68,3239504179531 ,47,9970801978028 ,72,9547671619717
10.277976 ,Left ,68,3040808637954 ,48,0569656350493 ,72,964663517837
10.3004214 ,Left ,68,2837438179155 ,48,1252021420128 ,72,9831701396074
10.3379517 ,Left ,68,294600368722 ,48,207710361057 ,73,0179073421009
10.3604152 ,Left ,68,270860316563 ,48,2519604846376 ,73,0325783263111
10.3978604 ,Left ,68,3069686138316 ,48,3146603436396 ,73,0394240040302
10.4202032 ,Left ,68,3161016350202 ,48,2930020898396 ,73,0208878289909
10.4579449 ,Left ,68,2576037730751 ,48,1834228733264 ,72,9703244184699
10.4801589 ,Left ,68,2336282963065 ,48,1187577020052 ,72,9467703012849
10.5179356 ,Left ,68,1855985749167 ,48,0952148053588 ,72,9612941384451
10.5404075 ,Left ,68,2139432669029 ,48,0830383049072 ,72,9686663998703
10.5779269 ,Left ,68,267517405393 ,48,0739917040311 ,73,0006782605124
10.6001369 ,Left ,68,2154519744099 ,48,138647673798 ,73,0129982719802
10.6375306 ,Left ,68,1925292935205 ,48,2389483663272 ,73,0085353924797
10.6599704 ,Left ,68,1906707166398 ,48,2421787486368 ,73,0122671523945
10.6977071 ,Left ,68,1070002561657 ,48,2008100904333 ,73,0066309799918
10.7203259 ,Left ,68,136199124566 ,48,1967266448988 ,73,0261887700535
10.7579218 ,Left ,68,1225644616078 ,48,3568424731069 ,73,1137462293491
10.7801943 ,Left ,68,0655933020014 ,48,4931521291786 ,73,1631936037335
10.8178046 ,Left ,68,0115609465684 ,48,6308961310575 ,73,2187573022733
10.8403627 ,Left ,67,9360385573702 ,48,6794610716186 ,73,2393893482318
10.8775402 ,Left ,67,8953886411596 ,48,7017794990331 ,73,2624341481465
10.8999909 ,Left ,67,8221361421194 ,48,6863982436688 ,73,274475723372
10.9375789 ,Left ,67,7530913385541 ,48,6385959549063 ,73,2721965272494
10.9601606 ,Left ,67,7938514606612 ,48,6469961883067 ,73,2638643485674
10.997823 ,Left ,67,8324512794547 ,48,7867095915309 ,73,2270128805311
11.0201762 ,Left ,67,905187065066 ,48,7909888284289 ,73,2026605593651
11.0579195 ,Left ,67,9518877978474 ,48,75013415501 ,73,145963885728
11.080229 ,Left ,67,9526730272407 ,48,7714545120626 ,73,1122137552353
11.1179744 ,Left ,68,0203462312473 ,48,8261094690816 ,73,0434122082535
11.1402861 ,Left ,68,0561795659784 ,48,8453330828493 ,72,9963864552897
11.1778976 ,Left ,68,040544428355 ,48,8817544453124 ,72,89088559652
11.2079096 ,Left ,68,0213685661881 ,48,8838897503516 ,72,8327861603493
11.2451458 ,Left ,68,0150777111202 ,48,8179654138272 ,72,6269872659472
11.260407 ,Left ,67,9389342401294 ,48,8120766783561 ,72,5557861450406
11.2978718 ,Left ,67,8733291730552 ,48,7842787489151 ,72,4067578523748
11.3204322 ,Left ,67,8988406067798 ,48,7339944035317 ,72,3827790883963
11.3577334 ,Left ,67,9997333678116 ,48,775128345364 ,72,3855473709912
11.380349 ,Left ,68,0401277960144 ,48,774423079109 ,72,4117061052486
11.4180192 ,Left ,68,0310794796134 ,48,6310081286292 ,72,4058520226187
11.4403863 ,Left ,68,043388276989 ,48,4769651802912 ,72,4044247763266
11.4779225 ,Left ,68,0274630636108 ,48,3227744481563 ,72,4949498457514
11.5001795 ,Left ,68,0423186254199 ,48,2549101101022 ,72,5204810863682
11.5378676 ,Left ,68,1788937358676 ,48,1534909188634 ,72,587647880471
11.5604515 ,Left ,68,1716012991309 ,48,2126969477137 ,72,6106408437724
11.5977777 ,Left ,68,2112737625706 ,48,3118228194584 ,72,5974430661699
11.6202923 ,Left ,68,2364664357613 ,48,2871787426955 ,72,5829057998637
11.6576175 ,Left ,68,244873983383 ,48,2330452974456 ,72,5601060650215
11.680049 ,Left ,68,2624555857656 ,48,1939699892192 ,72,5420565611574
11.7176282 ,Left ,68,2889476459136 ,48,1236442276721 ,72,5375205490554
11.739873 ,Left ,68,2931907851574 ,48,0967300559843 ,72,5477992534732
11.7778569 ,Left ,68,3377095033352 ,48,0770372492536 ,72,5806909467297
11.800466 ,Left ,68,3471300819864 ,48,0345508506371 ,72,594570098953
11.8379352 ,Left ,68,3461100471721 ,47,9560901757561 ,72,617967761118
11.860399 ,Left ,68,3501684830874 ,47,9420140257163 ,72,6242229042604
11.8752827 ,Left ,68,3538881788011 ,47,9524766515395 ,72,638928117969
11.8902291 ,Left ,68,3661673479001 ,47,9691864314476 ,72,6529680032868
11.9128507 ,Left ,68,3566760953183 ,47,9659403238586 ,72,6711846509193
11.9352952 ,Left ,68,3437743188833 ,47,9617573917361 ,72,6903737040042
11.9578959 ,Left ,68,3217739840783 ,47,9702799651315 ,72,7133253593534
11.9802985 ,Left ,68,3088062880385 ,47,9921685842516 ,72,738763343765
12.0104376 ,Left ,68,2907912486087 ,48,0209677410797 ,72,766562251995
12.025322 ,Left ,68,2584049171788 ,48,0409086179407 ,72,7875763817942
12.0404728 ,Left ,68,2246060772221 ,48,0462349731721 ,72,805350584489
12.0703597 ,Left ,68,1671829026679 ,48,0665330677825 ,72,8325815416639
12.0929621 ,Left ,68,1349831556156 ,48,055925295841 ,72,8439448736232
12.1150066 ,Left ,68,1103208253941 ,48,0494814101401 ,72,8497789029987
12.1300484 ,Left ,68,0906440229102 ,48,0652961721011 ,72,8839587781772
12.1524475 ,Left ,68,0562413103728 ,48,1135142983321 ,72,9146012344927
12.1751184 ,Left ,68,084415193047 ,48,1051859759682 ,72,9337786314717
12.1902887 ,Left ,68,1520300035675 ,48,1015212487861 ,72,947578979436
12.2128455 ,Left ,68,1228425843041 ,48,1533902795946 ,72,9576151172012
12.2351963 ,Left ,68,1686254100967 ,48,230965396652 ,72,9650114165561
12.2502256 ,Left ,68,2464193663594 ,48,2675535105465 ,72,949266651033
12.2727802 ,Left ,68,2807874254723 ,48,2395928737369 ,72,9278899101167
12.2948599 ,Left ,68,2232333092921 ,48,1765340536619 ,72,9287264945446
12.3100901 ,Left ,68,1817566779254 ,48,1422156351825 ,72,9368811204188
12.3328499 ,Left ,68,1716503342063 ,48,1274854264949 ,72,9356136069261
12.3552329 ,Left ,68,1619118273606 ,48,1178051419198 ,72,9336707280395
12.3704977 ,Left ,68,1715868340559 ,48,0990052283222 ,72,9528583725355
12.3929729 ,Left ,68,127746647474 ,48,0867813007457 ,72,9928612726692
12.4152786 ,Left ,68,113410840245 ,48,0936283538799 ,73,0150466999794
12.4301118 ,Left ,68,1369960716459 ,48,1352411644027 ,73,0334175561256
12.4525181 ,Left ,68,0923573795506 ,48,2339532758402 ,73,0384170666137
12.4751151 ,Left ,68,0790419913627 ,48,2938237040598 ,73,0459472525414
12.4902335 ,Left ,68,0819141024695 ,48,2880391517607 ,73,0434735833896
12.5203766 ,Left ,68,0817431828287 ,48,2581851080697 ,73,038184127826
12.5426389 ,Left ,68,0445967223436 ,48,2337368410412 ,73,0448869534447
12.5578424 ,Left ,68,0090966116972 ,48,2300414108009 ,73,0622024892194
12.572778 ,Left ,67,9950882874529 ,48,2384560952936 ,73,0821389327911
12.5952604 ,Left ,68,0175763117658 ,48,2969375435711 ,73,1295857910456
12.61803 ,Left ,67,9754099232627 ,48,4047397402656 ,73,1822261667387
12.6328226 ,Left ,67,9164880643529 ,48,5006353640331 ,73,2217809499363
12.6552087 ,Left ,67,8975514373988 ,48,5580030562244 ,73,2396846412157
12.677852 ,Left ,67,9198951558353 ,48,6096621329131 ,73,248426199747
12.6929175 ,Left ,67,8542349995881 ,48,6226358546155 ,73,2462879167801
12.7151739 ,Left ,67,8536135065457 ,48,603852249255 ,73,2286208973228
12.7377723 ,Left ,67,8380135450544 ,48,5778712961936 ,73,2135935797196
12.7528432 ,Left ,67,7609206471442 ,48,5284012929209 ,73,2100108288279
12.7752395 ,Left ,67,6854497778122 ,48,5136781204656 ,73,1994174876117
12.8051818 ,Left ,67,69546629217 ,48,526191832021 ,73,196802068415
12.8203131 ,Left ,67,6982589246074 ,48,6148027632321 ,73,1969889916722
12.8429051 ,Left ,67,7323858758266 ,48,7483109384721 ,73,1976937065463
12.8577174 ,Left ,67,8116177926238 ,48,8131952687914 ,73,1971422566912
12.8726044 ,Left ,67,8536291320292 ,48,8208049052055 ,73,1926744920754
12.894999 ,Left ,67,8410766507427 ,48,788314241322 ,73,1758492649545
12.9176953 ,Left ,67,8527212106834 ,48,7734493795592 ,73,1696410001051
12.9324821 ,Left ,67,8371335285427 ,48,7893093962751 ,73,1369448355642
12.9550312 ,Left ,67,8569182057401 ,48,8123081974498 ,73,089026561702
12.9776659 ,Left ,67,8878470380943 ,48,8155299373006 ,73,0416093834801
12.9926251 ,Left ,67,8912774409451 ,48,8002268916957 ,72,990462595521
13.0151166 ,Left ,67,8901168807445 ,48,7819817905998 ,72,9413144930778
13.03774 ,Left ,67,8876007382391 ,48,7689443982217 ,72,8692972482216
13.0529679 ,Left ,67,892651710032 ,48,7389105490847 ,72,7791227485183
13.0749734 ,Left ,67,871130213474 ,48,7041342430928 ,72,6936185999658
13.097553 ,Left ,67,8416044902037 ,48,6991901043024 ,72,6259777424767
13.1125984 ,Left ,67,7921460085049 ,48,714938195185 ,72,5451915462063
13.1351465 ,Left ,67,7691329910183 ,48,7106133308936 ,72,4389772651217
13.1577129 ,Left ,67,7162870216847 ,48,6801464471189 ,72,4155953430299
13.172528 ,Left ,67,7528412596509 ,48,6420418780683 ,72,4296270445087
13.1951363 ,Left ,67,8003786798241 ,48,6328982708124 ,72,453967631578
13.2177596 ,Left ,67,8397058304012 ,48,6383938676305 ,72,4800749767223
13.2327901 ,Left ,67,9075389589301 ,48,5908703979932 ,72,4856342025163
13.2551607 ,Left ,67,9439734037721 ,48,5045437229704 ,72,46350226899
13.2857859 ,Left ,67,8959854882725 ,48,3602148940159 ,72,4301800303878
13.3080765 ,Left ,67,9051240064613 ,48,2260269424535 ,72,4128990537152
13.3234243 ,Left ,67,9221846656404 ,48,1789182936321 ,72,4583055619223
13.3382508 ,Left ,67,8546156383091 ,48,1714474580362 ,72,5046183038736
13.3607782 ,Left ,67,9115334758049 ,48,1449623427808 ,72,5199146206407
13.3757793 ,Left ,67,9289065312839 ,48,0739601683634 ,72,5491009581368
13.3977593 ,Left ,67,9272372696847 ,48,0816522574098 ,72,5774262720802
13.4128085 ,Left ,67,9257744335625 ,48,1162119142096 ,72,5848714045692
13.4351451 ,Left ,67,9611274722854 ,48,1660598594678 ,72,5766158214377
13.4577918 ,Left ,68,0115874747651 ,48,1843371395329 ,72,5780909638071
13.4727059 ,Left ,68,0346464227079 ,48,1771511550062 ,72,5794631352869
13.4950906 ,Left ,68,0893091206271 ,48,189598946927 ,72,592450604162
13.5174052 ,Left ,68,1133727512541 ,48,1791687110468 ,72,6077537667347
13.5400049 ,Left ,68,1585338389153 ,48,156490245442 ,72,6231243252857
13.5549932 ,Left ,68,2147863370308 ,48,1201568556474 ,72,6392130761432
13.577747 ,Left ,68,21991386801 ,48,0738629333399 ,72,6517277023229
13.6001597 ,Left ,68,2250420028519 ,48,0319779736811 ,72,6634889165232
13.6150427 ,Left ,68,2345030805194 ,48,008007049929 ,72,6788097600866
13.6377096 ,Left ,68,2473299456894 ,47,9954875182961 ,72,693647580581
13.6601482 ,Left ,68,248150707087 ,47,9765444950377 ,72,7205911413094
13.6753269 ,Left ,68,2572367136123 ,47,9697020564352 ,72,749674170989
13.6979608 ,Left ,68,2496826311956 ,47,9237947230492 ,72,7621432578659
13.7205254 ,Left ,68,2601031389905 ,47,8423920072749 ,72,7627271888766
13.7354092 ,Left ,68,2699925627595 ,47,7854979464972 ,72,7776583323328
13.7580216 ,Left ,68,2560272436471 ,47,773449981393 ,72,7953381027662
13.7806325 ,Left ,68,2809647984077 ,47,7924276266155 ,72,8064549192346
13.7954679 ,Left ,68,309620253692 ,47,8131137104854 ,72,8211771089507
13.8177707 ,Left ,68,302990975697 ,47,8237125253997 ,72,8402695978302
13.840232 ,Left ,68,2779373650279 ,47,8253712740745 ,72,8571899429842
13.855009 ,Left ,68,2725818108727 ,47,8298914770295 ,72,8701233584768
13.8775694 ,Left ,68,2713554882812 ,47,8537692145758 ,72,8901624193294
13.9078598 ,Left ,68,2532995419905 ,47,8804378510711 ,72,9097969407246
13.922903 ,Left ,68,2224614077622 ,47,9055723248076 ,72,9253600776738
13.9452037 ,Left ,68,1931458189491 ,47,9342672802948 ,72,9375916654599
13.9605142 ,Left ,68,1653994066796 ,47,9671130306821 ,72,952563687935
13.9754235 ,Left ,68,1646129337426 ,47,9978281824643 ,72,961189032328
13.9978691 ,Left ,68,1582089598475 ,48,001917277978 ,72,9541223738245
14.0203465 ,Left ,68,1501535627113 ,47,9987224593456 ,72,9444164452673
14.0353605 ,Left ,68,1496547494011 ,48,000966968336 ,72,9644978842747
14.0575282 ,Left ,68,13138679364 ,48,0466401251271 ,72,9931031060994
14.0800145 ,Left ,68,102855710425 ,48,0938476371719 ,73,0253354532921
14.0950491 ,Left ,68,1457155996083 ,48,1248845185722 ,73,0482933762214
14.1177177 ,Left ,68,1963132309953 ,48,1550860950937 ,73,0767104400931
14.1402629 ,Left ,68,199834340072 ,48,1806734738437 ,73,0947065309973
14.1550914 ,Left ,68,1982645526619 ,48,2078450908364 ,73,1009412574738
14.1777583 ,Left ,68,1806579329898 ,48,2175729805478 ,73,0878823076028
14.2001192 ,Left ,68,1507849088323 ,48,1785322822976 ,73,048061636696
14.2150477 ,Left ,68,1687035874169 ,48,125502331297 ,73,0187240014909
14.2376087 ,Left ,68,1264341509709 ,48,0974317209103 ,73,0274206831844
14.2602529 ,Left ,68,0632669187048 ,48,0728310908866 ,73,0335082854625
14.2751835 ,Left ,68,0505517634076 ,48,0107142647145 ,73,0088170855745
14.2980716 ,Left ,68,0281685917703 ,47,9157248439456 ,72,9780005659455
14.3205663 ,Left ,68,062220559853 ,47,9138739606336 ,72,9787176229752
14.3353701 ,Left ,67,9538520297404 ,47,9782288659909 ,72,9999794910454
14.3579132 ,Left ,67,8379285247399 ,48,0643155111912 ,73,0301806539232
14.3879635 ,Left ,67,8552192876506 ,48,1125597902207 ,73,067937381216
14.4102824 ,Left ,67,889043607915 ,48,1444488466372 ,73,1104034046019
14.4254367 ,Left ,67,9140586232143 ,48,1785100812419 ,73,1374803297559
14.4403353 ,Left ,67,9237244702803 ,48,1738733246224 ,73,1458479760041
14.4698321 ,Left ,67,9327398259467 ,48,1311101596173 ,73,1251686721578
14.4777715 ,Left ,67,9071713684737 ,48,0786237811318 ,73,1219500783188
14.5001083 ,Left ,67,8609294772093 ,48,1166081331553 ,73,1399937396165
14.5227347 ,Left ,67,8133131947506 ,48,1554531907148 ,73,1416136115609
14.5377843 ,Left ,67,8444818907669 ,48,2268230439738 ,73,1905969478838
14.5602451 ,Left ,67,7609664916577 ,48,3706571407303 ,73,2360537364675
14.5825403 ,Left ,67,7460347647404 ,48,4913874588318 ,73,2746473528203
14.5977321 ,Left ,67,7818019453269 ,48,5369326917661 ,73,2831016024557
14.6202845 ,Left ,67,7707298807605 ,48,5457351634979 ,73,289007079093
14.642609 ,Left ,67,6767720440568 ,48,5503520523377 ,73,2892426018508
14.6575631 ,Left ,67,6920062942002 ,48,5884706533258 ,73,2659530303894
14.6800709 ,Left ,67,7144066636265 ,48,5807506093042 ,73,2134259119154
14.7025488 ,Left ,67,6242352907107 ,48,5333585133129 ,73,1571627915718
14.717437 ,Left ,67,5689628475786 ,48,5108867825807 ,73,1248924473263
14.7475145 ,Left ,67,6079745506277 ,48,5248047862024 ,73,1033196770732
14.7700426 ,Left ,67,6156353892916 ,48,6003441834243 ,73,086267613922
14.7849394 ,Left ,67,6683802614819 ,48,7018627816954 ,73,0703895159429
14.8000722 ,Left ,67,7382580954376 ,48,7272497325041 ,73,0595486589982
14.8225961 ,Left ,67,7824751342681 ,48,7318308234052 ,73,0640215685429
14.8375715 ,Left ,67,8236530891742 ,48,7553955556569 ,73,0557091747984
14.867775 ,Left ,67,8099957501769 ,48,793521508392 ,73,0434154426481
14.8902255 ,Left ,67,7971318876722 ,48,8274051506449 ,73,0040322901924
14.9052213 ,Left ,67,8414275050684 ,48,8426501399007 ,72,9557367567159
14.920317 ,Left ,67,8686358211791 ,48,8412697775333 ,72,9034139756995
14.9427954 ,Left ,67,8715029354434 ,48,8335594427243 ,72,856489277244
14.957691 ,Left ,67,8369090180678 ,48,8397844217803 ,72,7738557476452
14.9800896 ,Left ,67,8311714471541 ,48,8095556367199 ,72,6567820921394
15.0026953 ,Left ,67,8022530431819 ,48,743684785635 ,72,5773108183993
15.0176541 ,Left ,67,7528183783266 ,48,7177745920863 ,72,5299510601637
15.0402293 ,Left ,67,7342330500394 ,48,667527171094 ,72,5156670453136
15.062874 ,Left ,67,7646854243052 ,48,6310694237646 ,72,5459234265174
15.0851342 ,Left ,67,9084160324988 ,48,660887289693 ,72,5964256089207
15.1001964 ,Left ,67,9919720959336 ,48,665397360327 ,72,6362450789831
15.1226837 ,Left ,68,0297593751026 ,48,641551902491 ,72,646951988988
15.1378036 ,Left ,68,0508330234424 ,48,5381544736448 ,72,6166756662334
15.1602117 ,Left ,68,0662965910384 ,48,3811520833398 ,72,5970924101759
15.182564 ,Left ,68,0978739158479 ,48,2427392500236 ,72,5946337731892
15.2052009 ,Left ,68,0876950120035 ,48,1450108149974 ,72,6271302598797
15.2199815 ,Left ,68,0546540162084 ,48,0673697635956 ,72,6486070801176
15.2427355 ,Left ,68,0979766690704 ,48,0270730895435 ,72,6524207607833
15.2651054 ,Left ,68,1237937198227 ,47,9805914896256 ,72,6564910954638
15.2802775 ,Left ,68,1722698095548 ,47,9819434869665 ,72,6626925190034
15.3028201 ,Left ,68,174392363008 ,47,9928239632399 ,72,6609837417588
15.3178164 ,Left ,68,161931277471 ,48,0260101625827 ,72,6682833621692
15.3400326 ,Left ,68,1944871781186 ,48,061918959395 ,72,6782929212281
15.362601 ,Left ,68,2276504587403 ,48,0552735862162 ,72,6916931997024
15.3778434 ,Left ,68,2658316664699 ,48,0237905943715 ,72,7075819875181
15.3998994 ,Left ,68,2755616757793 ,47,987233110664 ,72,7127259427567
15.4224708 ,Left ,68,2802598607164 ,47,9342721833023 ,72,7111265760567
15.4376743 ,Left ,68,3230741360561 ,47,8873512320844 ,72,7109647189019
15.4602431 ,Left ,68,3703351233111 ,47,8380116006974 ,72,7237985863847
15.482629 ,Left ,68,3961304777154 ,47,7979581611676 ,72,7411057255357
15.5050932 ,Left ,68,4151948001527 ,47,7596974580471 ,72,7663388825304
15.5203728 ,Left ,68,423450395203 ,47,7318189818216 ,72,7979663441192
15.5428772 ,Left ,68,4493620718704 ,47,7118159845145 ,72,8186657410549
15.5652463 ,Left ,68,4782243464458 ,47,705402774351 ,72,8357225812667
15.5803301 ,Left ,68,4818052041276 ,47,7181667595752 ,72,8458295928659
15.6028658 ,Left ,68,4941272408912 ,47,7325438537725 ,72,8516683920048
15.6250831 ,Left ,68,5077978090274 ,47,7468011040164 ,72,8482427561014
15.6402644 ,Left ,68,5206391864829 ,47,7566774428903 ,72,8446305380284
15.662535 ,Left ,68,503259809841 ,47,7588347930668 ,72,8440003057388
15.6852574 ,Left ,68,4912988969252 ,47,7598344682297 ,72,8508128711245
15.7004659 ,Left ,68,5043449317607 ,47,7650567790724 ,72,8609210987776
15.7231479 ,Left ,68,5053492109843 ,47,7692262142434 ,72,874026826236
15.7454465 ,Left ,68,4991924419325 ,47,7774046428187 ,72,8919203711854
15.7606305 ,Left ,68,4868479502712 ,47,7888676513386 ,72,9051492354076
15.775462 ,Left ,68,4978024788616 ,47,7996438595824 ,72,9143703011675
15.8130357 ,Left ,68,4856646442421 ,47,8357006337803 ,72,9301780704228
15.8354023 ,Left ,68,4684218117743 ,47,8504631530608 ,72,9338579366261
15.8731369 ,Left ,68,4577591096656 ,47,8885896571763 ,72,9486355069256
15.8952652 ,Left ,68,4519630583128 ,47,8998039258246 ,72,9620451660294
15.9330174 ,Left ,68,4429727783558 ,47,9045267752012 ,72,9985281132508
15.9552838 ,Left ,68,4481509359484 ,47,9288769618924 ,73,0165905710074
15.9930405 ,Left ,68,4941819139714 ,47,9724044797504 ,73,0492445390555
16.0155301 ,Left ,68,5002618708588 ,47,9899217665721 ,73,0565586231601
16.0531528 ,Left ,68,4950644428503 ,47,9988203489312 ,73,0687345194785
16.0753392 ,Left ,68,494466034916 ,47,9990574828499 ,73,0662039501317
16.112772 ,Left ,68,4992574627507 ,47,9930391151801 ,73,0613889247948
16.1353717 ,Left ,68,4591208141296 ,48,0188882636608 ,73,0884019559006
16.1731373 ,Left ,68,4197920330699 ,48,0727283601205 ,73,1490801415858
16.1954653 ,Left ,68,3833181688853 ,48,1347620182625 ,73,1773785146061
16.2331301 ,Left ,68,410225785539 ,48,2382334631943 ,73,2242399813584
16.2554331 ,Left ,68,3959039245503 ,48,2594691762269 ,73,2166972428815
16.2928323 ,Left ,68,3099591429193 ,48,2019314179293 ,73,1760213452978
16.3154597 ,Left ,68,2961278841169 ,48,1707683796368 ,73,1593002018232
16.3530467 ,Left ,68,2755351025095 ,48,10713103733 ,73,1182098171564
16.3755397 ,Left ,68,2612523129049 ,48,0618097689541 ,73,1055627299657
16.41274 ,Left ,68,2756276588191 ,48,0369758701499 ,73,1011572290708
16.4351053 ,Left ,68,2684592211192 ,48,0888968340763 ,73,1227240306401
16.4726579 ,Left ,68,2798284558296 ,48,2167866120005 ,73,1850608190764
16.4950983 ,Left ,68,245959668342 ,48,2428323087904 ,73,1863332950077
16.5326996 ,Left ,68,2314144784837 ,48,1937624441903 ,73,1510201961405
16.5550802 ,Left ,68,1946371639311 ,48,1523142823966 ,73,1258251185406
16.5925294 ,Left ,68,1863367892955 ,48,1193458092452 ,73,1107200421894
16.6151718 ,Left ,68,1676351419198 ,48,1157327002766 ,73,124007191505
16.6530709 ,Left ,68,1341146751068 ,48,2942612842224 ,73,2153641541353
16.6753406 ,Left ,68,1015275732072 ,48,3912807704057 ,73,2504850739928
16.7130572 ,Left ,68,0636336815275 ,48,4203474564503 ,73,2446755708969
16.735004 ,Left ,67,984503697323 ,48,4251370296009 ,73,2249730297192
16.7725047 ,Left ,67,977489661846 ,48,44626019038 ,73,1705591841506
16.7951041 ,Left ,67,9323677481936 ,48,453815840223 ,73,1385651307358
16.8325541 ,Left ,67,8254011896065 ,48,3937829837408 ,73,0902082429778
16.855339 ,Left ,67,9106851568505 ,48,384391313067 ,73,0692853313225
16.8928411 ,Left ,67,9054836342156 ,48,5077357086264 ,73,039750941102
16.9153527 ,Left ,67,9729063351713 ,48,523278153452 ,73,0341466447366
16.9528529 ,Left ,68,0184642293423 ,48,4872155445061 ,73,0303298788324
16.9752818 ,Left ,68,0036943768579 ,48,4760898496918 ,73,0091596727411
17.0130606 ,Left ,68,0440962213712 ,48,5065474156342 ,72,9389938525795
17.0352039 ,Left ,68,0597535073721 ,48,5360028932915 ,72,9206377511861
17.0727503 ,Left ,68,053995143709 ,48,5793606634786 ,72,8437852223867
17.09536 ,Left ,68,063608397038 ,48,5731635752329 ,72,7762320597695
17.1325404 ,Left ,68,0597553200162 ,48,5128749173047 ,72,6398497695386
17.1550056 ,Left ,68,0173548488086 ,48,4998430569028 ,72,5665540575499
17.1926708 ,Left ,67,9243275753682 ,48,4686599552687 ,72,4536562511549
17.2229057 ,Left ,67,8348911974141 ,48,4964443838389 ,72,4692321311484
17.2748776 ,Left ,67,9647907100254 ,48,4857521813256 ,72,6214628723369
17.3125334 ,Left ,68,04957802457 ,48,3270059004863 ,72,6117894366207
17.335108 ,Left ,68,0346614966767 ,48,2128852524341 ,72,575731976954
17.373163 ,Left ,68,070085551892 ,47,9860206684943 ,72,5346500602704
17.3949584 ,Left ,68,11088946821 ,47,9864568525818 ,72,5774985789043
17.4327051 ,Left ,68,0579256323372 ,48,0205956102108 ,72,6091895450731
17.455266 ,Left ,68,1627618861132 ,48,0022448827484 ,72,6100362685855
17.4928236 ,Left ,68,1640182504184 ,48,1192806100723 ,72,578168394058
17.5152148 ,Left ,68,1903195895081 ,48,1660604563242 ,72,5700995853252
17.5527899 ,Left ,68,2485591402302 ,48,1385109661413 ,72,5636853168678
17.5753581 ,Left ,68,2213541619783 ,48,1113939029869 ,72,5552850221249
17.6128156 ,Left ,68,259309605507 ,48,064067507579 ,72,5168105307506
17.6277595 ,Left ,68,2918754939984 ,48,0303155895062 ,72,493842659411
17.6502825 ,Left ,68,2980186963988 ,48,0167501941645 ,72,4852164238129
17.6650747 ,Left ,68,2922808040814 ,48,0057652955146 ,72,4854102219144
17.6878212 ,Left ,68,3061231149426 ,48,0028415252227 ,72,487008893311
17.710185 ,Left ,68,3270716065765 ,48,0102467329043 ,72,4902458543373
17.7250723 ,Left ,68,3452467060037 ,48,0251335249866 ,72,5081690804653
17.7478164 ,Left ,68,362377268288 ,48,0151944514309 ,72,508031162761
17.7701149 ,Left ,68,3879474445677 ,47,9658671563404 ,72,5094485096343
17.7851143 ,Left ,68,3860318562266 ,47,9123007772137 ,72,5259645892831
17.8077268 ,Left ,68,370401104331 ,47,885397863105 ,72,5459355392084
17.8304047 ,Left ,68,3807913811745 ,47,8739272741457 ,72,5664950870189
17.8452816 ,Left ,68,4104804058483 ,47,8779701503255 ,72,5933797280381
17.867795 ,Left ,68,4225188679529 ,47,875238343593 ,72,614387207023
17.8905109 ,Left ,68,4189982858655 ,47,8591079955267 ,72,6343399700083
17.9053497 ,Left ,68,4014466336919 ,47,8450431977391 ,72,6610211687939
17.9278911 ,Left ,68,381087946702 ,47,8538310819249 ,72,6877401305936
17.9504936 ,Left ,68,3715110046749 ,47,8692562169627 ,72,7116030347511
17.9653348 ,Left ,68,3563605394345 ,47,8811553243053 ,72,7304231548425
17.9880267 ,Left ,68,3279484788905 ,47,8838323214511 ,72,7520065707711
18.0103881 ,Left ,68,2866169521699 ,47,8828752325029 ,72,7657240260108
18.0252255 ,Left ,68,2467777221037 ,47,8860807323841 ,72,7822426603827
18.0477799 ,Left ,68,229650075709 ,47,9036301382975 ,72,8001684058188
18.0704061 ,Left ,68,2127277954946 ,47,9077307381847 ,72,8162590656147
18.0852911 ,Left ,68,2015172038192 ,47,9207071972906 ,72,8282245382605
18.1079331 ,Left ,68,1738443473143 ,47,964503506743 ,72,8625382954498
18.1305157 ,Left ,68,1578841492074 ,47,9998102366557 ,72,9141927302788
18.1453655 ,Left ,68,2044993468345 ,48,0323104001291 ,72,9678643727266
18.1679532 ,Left ,68,2121696656948 ,48,1175101896363 ,73,0175248653395
18.190153 ,Left ,68,13848984213 ,48,2202364583137 ,73,0640351574634
18.2125995 ,Left ,68,179730021387 ,48,3284487905884 ,73,0886027203235
18.2277786 ,Left ,68,2553003825194 ,48,3777565173819 ,73,0892901536316
18.2504089 ,Left ,68,2541371903248 ,48,345066492986 ,73,0812267377276
18.2730117 ,Left ,68,1669664880896 ,48,2595234542196 ,73,0710310442672
18.2878561 ,Left ,68,1272208175076 ,48,2079374564388 ,73,05701485878
18.3104382 ,Left ,68,116258318301 ,48,1880895067242 ,73,0390602556176
18.3327597 ,Left ,68,0961439440072 ,48,1667444521382 ,73,0184292126042
18.3475464 ,Left ,68,1570052876149 ,48,1156028954596 ,72,994186133025
18.3700991 ,Left ,68,155142697322 ,48,0702205098435 ,73,0000042948424
18.3926173 ,Left ,68,1490496401465 ,48,0742396887903 ,73,0058405422183
18.4075824 ,Left ,68,1470930641562 ,48,07685472877 ,73,0035021501005
18.4301045 ,Left ,68,1586816942514 ,48,0688837823251 ,72,9848483007531
18.4528955 ,Left ,68,2053249318753 ,48,0448292974974 ,72,9791402981087
18.4679133 ,Left ,68,1691676267718 ,48,0261380249787 ,72,9839600137088
18.4900497 ,Left ,68,1673671698507 ,48,0264143029149 ,72,9862859291738
18.5128186 ,Left ,68,1918260953214 ,48,0290857554567 ,72,9977520800223
18.5277229 ,Left ,68,1810793561161 ,48,0494029145223 ,73,0232539891114
18.550233 ,Left ,68,185755397805 ,48,1404918406381 ,73,0624841290827
18.572987 ,Left ,68,1386351776457 ,48,229943093772 ,73,1021759581299
18.5878976 ,Left ,68,0928152530074 ,48,2975760699618 ,73,1443310559082
18.6103844 ,Left ,68,0945887078004 ,48,366202431143 ,73,1589555446411
18.632897 ,Left ,68,0516813348605 ,48,410961535607 ,73,1598631597621
18.6478411 ,Left ,68,0567189004006 ,48,4317662644792 ,73,1590316072721
18.6702753 ,Left ,68,0277595215932 ,48,4419872849768 ,73,1654905818872
18.6925063 ,Left ,67,946895980369 ,48,40883058597 ,73,1695549996044
18.7076161 ,Left ,67,948352893944 ,48,3793282586973 ,73,1680252960748
18.7302766 ,Left ,67,9362354469691 ,48,3912724272441 ,73,1787377353632
18.7527771 ,Left ,67,9520552244447 ,48,4875123847027 ,73,2037598439975
18.7676363 ,Left ,67,9756629503351 ,48,5944218611746 ,73,2182803640521
18.7901905 ,Left ,68,0206314842344 ,48,6563089222539 ,73,2232294427504
18.8125809 ,Left ,68,0452441671552 ,48,6752529787836 ,73,2198136184715
18.8273739 ,Left ,68,0590406140284 ,48,6659955613549 ,73,2022864845904
18.8502381 ,Left ,68,0689031909007 ,48,6695107128681 ,73,1971409225621
18.8725952 ,Left ,68,0640333218545 ,48,6949820857615 ,73,163250311765
18.8875183 ,Left ,68,0918020445722 ,48,7162474254908 ,73,1215683983342
18.910284 ,Left ,68,1254366798115 ,48,7335610470206 ,73,0742105148738
18.9326477 ,Left ,68,1217285922272 ,48,7430916997332 ,73,0218772619004
18.9479908 ,Left ,68,1315031885211 ,48,7233291341158 ,72,9672407909365
18.9705905 ,Left ,68,1511698609957 ,48,6878504466176 ,72,9026113066041
18.9928389 ,Left ,68,1284251890726 ,48,6637616094121 ,72,8344774015679
19.0080642 ,Left ,68,0947595309313 ,48,6668217587138 ,72,7654591137717
19.0305596 ,Left ,68,0652667176483 ,48,6660322125599 ,72,6745443509296
19.0530967 ,Left ,68,0314809212689 ,48,6404213952561 ,72,6098705352812
19.0681292 ,Left ,68,0478143327962 ,48,615552294941 ,72,6158259891137
19.0904655 ,Left ,68,1447461476274 ,48,6633132212702 ,72,6457837977567
19.1128679 ,Left ,68,2049326200394 ,48,6755460549574 ,72,675333576663
19.1354302 ,Left ,68,2092023641257 ,48,6419654719544 ,72,6847477621049
19.1503736 ,Left ,68,2335499130273 ,48,5598438385842 ,72,6498616765841
19.1805504 ,Left ,68,2357325901482 ,48,420811607909 ,72,5928251145224
19.2030142 ,Left ,68,2500152026811 ,48,2987720174825 ,72,5470278041101
19.2180763 ,Left ,68,228991053553 ,48,2138122139607 ,72,5491465412841
19.2329901 ,Left ,68,1727265023752 ,48,1634667323735 ,72,5590471411258
19.2555031 ,Left ,68,1866527730676 ,48,1165282446196 ,72,5719132862619
19.2705054 ,Left ,68,290692831387 ,48,0916498909567 ,72,5879318733969
19.293114 ,Left ,68,3484995946095 ,48,0656297074219 ,72,5953831515019
19.3152568 ,Left ,68,3254360130442 ,48,0945235194976 ,72,5951216214738
19.3301257 ,Left ,68,3080584907071 ,48,1300712394209 ,72,5827558377504
19.3524971 ,Left ,68,3536473347338 ,48,1650355305731 ,72,5646853777188
19.3751618 ,Left ,68,3931839617303 ,48,1576504910898 ,72,5553308765696
19.3903217 ,Left ,68,437605626862 ,48,1725185306004 ,72,5558803559826
19.4128659 ,Left ,68,4135736111188 ,48,1613618024737 ,72,5459896712065
19.4351351 ,Left ,68,4374369795056 ,48,1385508441969 ,72,5315206423262
19.4577794 ,Left ,68,4683976032139 ,48,1010793632316 ,72,530341122124
19.4801459 ,Left ,68,4716684281345 ,48,0661711031954 ,72,5386460420839
19.5101109 ,Left ,68,4805827148176 ,48,0173749716426 ,72,5798644744866
19.5326838 ,Left ,68,481009449984 ,47,9900507412356 ,72,6072936347389
19.5552319 ,Left ,68,4737707633437 ,47,9684360037722 ,72,6347375950836
19.5700782 ,Left ,68,4811642124702 ,47,9467061753328 ,72,6663337511542
19.5926615 ,Left ,68,4973802921447 ,47,9275692289665 ,72,6854966846957
19.615243 ,Left ,68,518794433342 ,47,9174477247101 ,72,6937752940506
19.6302334 ,Left ,68,5153105669279 ,47,892464318193 ,72,698109130534
19.6527911 ,Left ,68,507614835907 ,47,8736159558336 ,72,6954314159657
19.6752752 ,Left ,68,5010373544687 ,47,8543765183804 ,72,7022573183806
19.6902914 ,Left ,68,5005107934412 ,47,8468576960665 ,72,7134357821649
19.7129212 ,Left ,68,5080848578909 ,47,8418000797611 ,72,7238992263076
19.7353209 ,Left ,68,5005858882007 ,47,8286949241102 ,72,7310467479537
19.7501976 ,Left ,68,5012433609131 ,47,8136132507291 ,72,7382946265575
19.7728085 ,Left ,68,4878014606811 ,47,8170807640392 ,72,7496839496709
19.7950471 ,Left ,68,4713013313429 ,47,8328026745375 ,72,7665189279336
19.8100743 ,Left ,68,4632391456699 ,47,8451167978436 ,72,7797794854186
19.8325527 ,Left ,68,4402609086476 ,47,8470334957862 ,72,7943909652974
19.8550528 ,Left ,68,4216314099841 ,47,8432128738819 ,72,8017055380033
19.8701372 ,Left ,68,3860104949221 ,47,8465819688123 ,72,8077420943433
19.892749 ,Left ,68,3641438518855 ,47,8559191157471 ,72,8181069575318
19.9151975 ,Left ,68,357647801752 ,47,861323850479 ,72,8275861831849
19.9303173 ,Left ,68,3522874188296 ,47,8591526289387 ,72,8331346491494
19.9527875 ,Left ,68,3485189006064 ,47,8515143248748 ,72,8326574608141
19.9753338 ,Left ,68,3354613037329 ,47,8634030163332 ,72,8304341832396
19.9904464 ,Left ,68,3472388117342 ,47,9172566003769 ,72,850258280338
20.0129225 ,Left ,68,3242536126756 ,47,9723879820559 ,72,8561355425086
20.0351818 ,Left ,68,3499517210972 ,47,9787959762536 ,72,8514717458222
20.0502237 ,Left ,68,3617341059693 ,48,0080316699253 ,72,8689325879302
20.0804899 ,Left ,68,328586613717 ,48,0638555811893 ,72,9084765530661
20.1026778 ,Left ,68,3437876726694 ,48,1491516634483 ,72,9599590794831
20.1179079 ,Left ,68,4052276537176 ,48,1971374294414 ,72,9844191453871
20.140505 ,Left ,68,4287363096654 ,48,1699160951051 ,72,9955378492112
20.1553122 ,Left ,68,4149743936819 ,48,1340029985858 ,73,0043394943421
20.1701985 ,Left ,68,3594643442751 ,48,0900366424217 ,73,0145793830976
20.1930681 ,Left ,68,3172656026277 ,48,0531442470232 ,72,9953679307171
20.2153623 ,Left ,68,3184135459722 ,47,9963857561604 ,72,9639801168081
20.2378958 ,Left ,68,3104833773007 ,47,9179856938339 ,72,9439763823414
20.253085 ,Left ,68,2931165037913 ,47,8417081667681 ,72,9393716260064
20.2752472 ,Left ,68,2625287466081 ,47,8100258021506 ,72,9521499496469
20.2979868 ,Left ,68,2249366490061 ,47,8490419499378 ,72,9565268008585
20.3129567 ,Left ,68,1604636535016 ,47,8835070317085 ,72,9599612559236
20.3353233 ,Left ,68,1692992952051 ,47,9349386317335 ,72,9956782758994
20.3577447 ,Left ,68,1459721527574 ,48,0149095445668 ,73,031982135465
20.3729937 ,Left ,68,1239362057998 ,48,085818478176 ,73,0667223061899
20.395321 ,Left ,68,1126464756277 ,48,101212048481 ,73,0800292197643
20.4179762 ,Left ,68,0935588909482 ,48,0461551613129 ,73,0623766739441
20.432778 ,Left ,68,038872310594 ,47,9903055823491 ,73,0638906850776
20.4552678 ,Left ,68,0237680113283 ,47,9861313582697 ,73,0726820515004
20.4778652 ,Left ,68,0495701059897 ,48,0093910209282 ,73,0710674745736
20.4928066 ,Left ,68,0354212155742 ,48,0447223627666 ,73,0946939691429
20.5153631 ,Left ,68,0274905414318 ,48,1613982119593 ,73,1390746910484
20.5378317 ,Left ,67,9621231819972 ,48,2932808118541 ,73,1873231632871
20.552471 ,Left ,67,9525030583594 ,48,3947859317423 ,73,23378247464
20.575123 ,Left ,67,9377042617786 ,48,4371896342198 ,73,2485135618542
20.59768 ,Left ,67,8462436788452 ,48,469819330996 ,73,2608231802993
20.6128031 ,Left ,67,8159150635909 ,48,4937593668264 ,73,2467517132248
20.6351397 ,Left ,67,8102944319464 ,48,5032741772865 ,73,2082249885677
20.6577593 ,Left ,67,7483389371733 ,48,46272023059 ,73,1767169126295
20.672877 ,Left ,67,6941617366581 ,48,3893186849622 ,73,1489529617652
20.695239 ,Left ,67,7423166663142 ,48,3770184395382 ,73,1287601488998
20.7178322 ,Left ,67,73479257906 ,48,4522980901196 ,73,1133841262073
20.7326734 ,Left ,67,7516821486228 ,48,5421789097006 ,73,1153309660701
20.7551173 ,Left ,67,8285139147761 ,48,5724411310356 ,73,1082120380698
20.7776243 ,Left ,67,8804986364186 ,48,5597410839075 ,73,1026205248813
20.7924836 ,Left ,67,9514421748082 ,48,5647028873829 ,73,0920222978023
20.8151765 ,Left ,67,9555967857605 ,48,5638051462633 ,73,0592649634946
20.8377298 ,Left ,67,9833259106715 ,48,5700773320545 ,73,0116668793918
20.8529371 ,Left ,67,9899075503643 ,48,5739598320011 ,72,9701181669777
20.8752417 ,Left ,67,9951105562066 ,48,5900911214009 ,72,9292921422189
20.8977229 ,Left ,68,0322978415008 ,48,6039365277055 ,72,88174390661
20.9200782 ,Left ,68,0203022761349 ,48,6056167318463 ,72,8078162839762
20.9426915 ,Left ,67,978631644688 ,48,5849008575152 ,72,7139731107832
20.9727275 ,Left ,67,9073860928162 ,48,5623085039964 ,72,5763823307327
20.9952055 ,Left ,67,8790846852231 ,48,5631992279497 ,72,5129346647915
21.0180253 ,Left ,67,8733774263183 ,48,5219078761155 ,72,466444606509
21.0331747 ,Left ,67,8570008620263 ,48,4581620628731 ,72,4851332044994
21.0555487 ,Left ,67,8942886934046 ,48,4796806055834 ,72,5292747181931
21.0781005 ,Left ,67,9379841422179 ,48,4821640581177 ,72,5622608414005
21.0931562 ,Left ,67,9871616596926 ,48,4664869972967 ,72,5747576927464
21.12294 ,Left ,67,9794008168321 ,48,4160491949371 ,72,5646292651597
21.1453187 ,Left ,67,9432673131708 ,48,3028981294125 ,72,5405892755511
21.1756835 ,Left ,67,9540005017681 ,48,1371812531142 ,72,555345682761
21.1975959 ,Left ,67,9249127373188 ,48,0812712231766 ,72,5668452842328
21.2203409 ,Left ,67,9618288684931 ,48,0219314044031 ,72,5590964414025
21.2350151 ,Left ,67,9982989028933 ,47,9626167772228 ,72,5758376123345
21.2577327 ,Left ,68,029562765405 ,47,978755810013 ,72,5981957681055
21.2805027 ,Left ,68,0102730912969 ,48,0302529748441 ,72,5978087807556
21.2955032 ,Left ,68,0310390072186 ,48,0672703733974 ,72,5956861913731
21.3254817 ,Left ,68,0612311696535 ,48,1073668981225 ,72,6067971037316
21.3479639 ,Left ,68,0900014563106 ,48,1268807575007 ,72,617891311144
21.3624786 ,Left ,68,0944453122626 ,48,1433202466891 ,72,6363763870245
21.3775791 ,Left ,68,0894502736757 ,48,1365026013308 ,72,6511293006506
21.4002695 ,Left ,68,1146212867057 ,48,1140141793795 ,72,6633468325118
21.4149977 ,Left ,68,1199002299568 ,48,0818338156526 ,72,6780360101843
21.437646 ,Left ,68,122255954156 ,48,0507915750112 ,72,691658182757
21.4604289 ,Left ,68,1257959869263 ,48,0241467029952 ,72,6996061111993
21.4750046 ,Left ,68,1240472554322 ,48,0161787136816 ,72,7096356207792
21.497706 ,Left ,68,1232425255015 ,48,014079797485 ,72,7176080572753
21.5205063 ,Left ,68,1283131167673 ,48,0035695160548 ,72,7265188271323
21.5278748 ,Left ,68,1450881351466 ,47,9911688348425 ,72,736902230524
21.5502175 ,Left ,68,1661617885726 ,47,9802582098696 ,72,7533850604847
21.5878733 ,Left ,68,2363050611875 ,47,8485503407993 ,72,7251532455536
21.610348 ,Left ,68,2450857547528 ,47,7603208290755 ,72,6892448094394
21.6479303 ,Left ,68,2191979305264 ,47,7618310373444 ,72,7180048518991
21.6704636 ,Left ,68,2344672672407 ,47,8210420552305 ,72,7552349440259
21.7077264 ,Left ,68,2177711000512 ,47,8807357519394 ,72,8278898512787
21.7299219 ,Left ,68,1760210324421 ,47,8769220858096 ,72,8522067069538
21.7675215 ,Left ,68,1456390224441 ,47,901105021611 ,72,8830432438263
21.7904247 ,Left ,68,1306098604327 ,47,9050088224257 ,72,8968659723801
21.8277623 ,Left ,68,0775029203095 ,47,8696186372995 ,72,9089964276287
21.8501031 ,Left ,68,0917137391459 ,47,8500684825191 ,72,9202303338149
21.8877697 ,Left ,68,1757106736033 ,47,8334550897045 ,72,912121050028
21.9101701 ,Left ,68,1790136301326 ,47,8328927992503 ,72,9133812252054
21.9553757 ,Left ,68,2178936970131 ,47,8578690226825 ,72,9099014177029
21.9778006 ,Left ,68,2674394439066 ,47,8767934699485 ,72,8993616058614
22.0079144 ,Left ,68,2582142250021 ,47,8902398338434 ,72,8962937056134
22.0378231 ,Left ,68,2380524087252 ,47,8941726988404 ,72,9006716478642
22.0901228 ,Left ,68,2119195466587 ,47,8925973433172 ,72,8833212762447
22.1278096 ,Left ,68,1602727661732 ,47,947794049211 ,72,9444158828023
22.1504633 ,Left ,68,1524806695261 ,48,0169776144781 ,72,9793851720583
22.1877497 ,Left ,68,126317452049 ,48,1213861929858 ,73,0357210127987
22.2104533 ,Left ,68,1343542294926 ,48,1439097989583 ,73,0502169941082
22.2479045 ,Left ,68,1210775758913 ,48,1289973259103 ,73,0312480045761
22.2708734 ,Left ,68,0963750261232 ,48,0927057118614 ,73,0086022289399
22.3079856 ,Left ,68,054078441132 ,48,0541727808844 ,72,9794191223479
22.3302986 ,Left ,68,0497506920527 ,48,039188518596 ,72,9902996629499
22.35273 ,Left ,68,0669468922281 ,48,0430833230169 ,72,9921511831713
22.3675608 ,Left ,68,0300097096546 ,48,0515662458603 ,73,0230689811738
22.3900935 ,Left ,68,0360579323572 ,48,0729578318718 ,73,0420020647265
22.4277639 ,Left ,68,0104489580775 ,48,183485057942 ,73,0573625765628
22.4502254 ,Left ,68,0241512398818 ,48,216320039218 ,73,0713804777323
22.4876836 ,Left ,68,0317673438749 ,48,2277514654943 ,73,0852406353704
22.5101112 ,Left ,68,0099466011607 ,48,207494363533 ,73,0775030301941
22.5475162 ,Left ,68,0497317360711 ,48,1543970270897 ,73,053692144707
22.5701174 ,Left ,68,0457052341024 ,48,1326993899518 ,73,0452735777357
22.6077784 ,Left ,68,0508431945696 ,48,1242838977593 ,73,0392330283344
22.6304884 ,Left ,68,0634852619155 ,48,1191115219596 ,73,0359439333536
22.6678074 ,Left ,68,0646222692421 ,48,1100212884949 ,73,0283486160463
22.6903223 ,Left ,68,0646222692421 ,48,1100212884949 ,73,0283486160463
22.7280727 ,Left ,68,0749441656711 ,48,1314360070915 ,73,0369156650544
22.7502456 ,Left ,68,0728977814038 ,48,1325724671347 ,73,0368390018103
22.7880209 ,Left ,68,0770269091045 ,48,1393303742497 ,73,0397272774501
22.8105904 ,Left ,68,0791324131004 ,48,1516508679364 ,73,0416862631271
22.8478231 ,Left ,68,0915731393977 ,48,1607883219572 ,73,0378991576515
22.8708297 ,Left ,68,0814452093039 ,48,1505113442961 ,73,0358337704013
22.9083028 ,Left ,68,0542847463182 ,48,1379884908911 ,73,052897004116
22.9302467 ,Left ,68,0468599504427 ,48,1751056384963 ,73,0805601881913
22.9681851 ,Left ,67,9804551604014 ,48,1151818349932 ,73,0542001612841
22.9902637 ,Left ,67,9704654455328 ,48,11016029412 ,73,0618776916009
23.027765 ,Left ,67,9718399020433 ,48,2670525098432 ,73,0746072321617
23.0501483 ,Left ,68,0007402456175 ,48,3010876774534 ,73,0786635198168
23.087764 ,Left ,67,929944300003 ,48,3400435184751 ,73,0840593668765
23.1101636 ,Left ,67,9219341347778 ,48,3765609534834 ,73,0798550074546
23.1475743 ,Left ,67,9492973125473 ,48,3696327000058 ,73,0711001152682
23.1701753 ,Left ,67,8984950447767 ,48,3468996645721 ,73,0785048793714
23.2078244 ,Left ,67,8701805334208 ,48,3471036536233 ,73,0729131503923
23.2304019 ,Left ,67,8158082964498 ,48,3555953655604 ,73,0690599349055
23.2679659 ,Left ,67,824559580014 ,48,4430891815615 ,73,0657912675549
23.2904202 ,Left ,67,8719215756451 ,48,5023381209273 ,73,0568126820412
23.342821 ,Left ,67,9067470531419 ,48,5360776774729 ,73,0484259211859
23.3653521 ,Left ,67,921999559802 ,48,5364352835485 ,73,0408913310463
23.3877998 ,Left ,67,9436003973823 ,48,5549329787454 ,72,9972782901282
23.402965 ,Left ,67,959520365073 ,48,5760876106424 ,72,9805883620527
23.4253772 ,Left ,67,9683898694222 ,48,5992198499772 ,72,9648659887207
23.4404369 ,Left ,67,9987476303214 ,48,6149610733461 ,72,9369016674657
23.4630879 ,Left ,68,000212515489 ,48,6234645055989 ,72,8896322946928
23.4853694 ,Left ,67,9951420236689 ,48,6173035708651 ,72,8423864581419
23.5004635 ,Left ,68,0105440951159 ,48,6183510193865 ,72,7918711609948
23.5226995 ,Left ,68,0336507926411 ,48,6234020176848 ,72,7503363656527
23.5452541 ,Left ,68,0326735414053 ,48,6248880340347 ,72,7039209498486
23.5604505 ,Left ,68,016793584329 ,48,6009798542908 ,72,6343486484227
23.5830164 ,Left ,67,994676754714 ,48,5645981114671 ,72,5789415198524
23.6053798 ,Left ,67,9817445619498 ,48,561962024137 ,72,5458477310446
23.62048 ,Left ,67,9688766624778 ,48,5823796000933 ,72,5050517653514
23.6430679 ,Left ,67,9488638144496 ,48,590230881919 ,72,4344317142933
23.6653649 ,Left ,67,9242890720267 ,48,5862149259073 ,72,3858808651262
23.6804904 ,Left ,67,8873137331902 ,48,5797421109345 ,72,3909793333297
23.7030501 ,Left ,67,9093820299254 ,48,5781065480033 ,72,4194305036425
23.7253668 ,Left ,68,0096604306091 ,48,6186010968336 ,72,4641749674067
23.7479674 ,Left ,68,0439882247903 ,48,6307524741364 ,72,4987482654943
23.7628325 ,Left ,68,0457396904767 ,48,6155902654189 ,72,5151419654038
23.7852669 ,Left ,68,0500785456058 ,48,5686286055364 ,72,5041276282374
23.8077324 ,Left ,68,0604498826754 ,48,4633142365363 ,72,4792535554973
23.8228635 ,Left ,68,0935401367855 ,48,3508954636457 ,72,4551284099352
23.8454074 ,Left ,68,0967072518074 ,48,2207180530874 ,72,4554957647069
23.8678658 ,Left ,68,094772201779 ,48,1269168180106 ,72,5034708385708
23.8903023 ,Left ,68,0483969495445 ,48,0907451508319 ,72,5590656873392
23.9130097 ,Left ,68,0814568382203 ,48,0767116267994 ,72,5859937149458
23.9353581 ,Left ,68,1925234488848 ,48,0611762475515 ,72,5886023931391
23.9502202 ,Left ,68,1967060881194 ,48,1142917045051 ,72,5824250021357
23.9653797 ,Left ,68,1534589509425 ,48,1618736831409 ,72,5733802370265
23.9804744 ,Left ,68,1883448875083 ,48,1938981421538 ,72,5637013028045
24.0030512 ,Left ,68,2410079154651 ,48,181453719209 ,72,5578960271982
24.025258 ,Left ,68,2881611198493 ,48,14517772166 ,72,5563315144922
24.0478592 ,Left ,68,2838425797312 ,48,1108273758003 ,72,5551803333277
24.0631413 ,Left ,68,2885608152371 ,48,0781820578011 ,72,5440234808707
24.0853694 ,Left ,68,354447421297 ,48,0497086528926 ,72,5284368513961
24.1078007 ,Left ,68,4079570934457 ,48,0268562029731 ,72,5162511079455
24.1225751 ,Left ,68,4338831420944 ,48,0119590955997 ,72,5046210343885
24.1451898 ,Left ,68,4519189730024 ,47,9921799395614 ,72,4982778442908
24.1751793 ,Left ,68,4465235326617 ,47,9818093637467 ,72,4985833395718
24.1902075 ,Left ,68,4569711296247 ,47,9801144020098 ,72,509286615226
24.2129692 ,Left ,68,4664947817961 ,47,9845348340561 ,72,5203050219354
24.2278041 ,Left ,68,4699473229962 ,47,9718097245236 ,72,5360038072977
24.2429691 ,Left ,68,4636368604293 ,47,9538795322301 ,72,5532698506676
24.2652526 ,Left ,68,442288875572 ,47,9300360308424 ,72,5753854485332
24.2878993 ,Left ,68,4253293359478 ,47,8971690350129 ,72,6031909252381
24.3028533 ,Left ,68,4318126648914 ,47,8564792610897 ,72,6264725077999
24.3252798 ,Left ,68,4395052930155 ,47,8185654412166 ,72,6420229276572
24.3478956 ,Left ,68,4414526360376 ,47,7800296713832 ,72,6539905587155
24.3629216 ,Left ,68,4214871643894 ,47,763698948884 ,72,6662768581662
24.3853083 ,Left ,68,4179741048233 ,47,7573707744643 ,72,6763824131155
24.4079102 ,Left ,68,4287667211598 ,47,7480849971349 ,72,6821603047803
24.4230154 ,Left ,68,4302516036412 ,47,7292709312628 ,72,6845486340252
24.4529321 ,Left ,68,4188265095474 ,47,7175390788207 ,72,6940441450364
24.4752487 ,Left ,68,4038447193663 ,47,7218767004141 ,72,7079579521712
24.4903238 ,Left ,68,4073339164627 ,47,7346905299103 ,72,7179875525576
24.5053338 ,Left ,68,4071669485778 ,47,7376227362261 ,72,7194003159006
24.5278608 ,Left ,68,3896915633285 ,47,7387729334698 ,72,7271418630469
24.542974 ,Left ,68,3721732700164 ,47,7443584443164 ,72,7340533233062
24.5653007 ,Left ,68,3629518257205 ,47,7674243799529 ,72,7338526785632
24.5877399 ,Left ,68,3670299817914 ,47,7877180858894 ,72,7326517299763
24.6033843 ,Left ,68,3567853825292 ,47,7946845069071 ,72,7256148509517
24.6257617 ,Left ,68,3407150459407 ,47,8077020650055 ,72,7222981119433
24.6557773 ,Left ,68,3221047325281 ,47,8306481584203 ,72,7231307172856
24.6707669 ,Left ,68,3151597364834 ,47,8534933839278 ,72,7147292652836
24.6932033 ,Left ,68,3095181080367 ,47,8692004598892 ,72,7212969669585
24.7076149 ,Left ,68,294393615414 ,47,89532887146 ,72,729325387007
24.7300746 ,Left ,68,2497223610448 ,47,912689739244 ,72,7556359603332
24.752608 ,Left ,68,2564308214179 ,47,9508957162772 ,72,7918355990065
24.7826761 ,Left ,68,2722915593608 ,48,0868743457495 ,72,8421545288781
24.8054908 ,Left ,68,3035100252758 ,48,1281328396157 ,72,8457855966739
24.8281387 ,Left ,68,2977345449316 ,48,1328850576395 ,72,832981497499
24.8430261 ,Left ,68,2452203215617 ,48,0950620491706 ,72,813672349632
24.8654755 ,Left ,68,2010425697446 ,48,0380692946093 ,72,8040968874567
24.8879476 ,Left ,68,2032058513894 ,48,0370467261532 ,72,7854464424104
24.9104239 ,Left ,68,1673941135169 ,48,0091821115952 ,72,7688432575837
24.9330743 ,Left ,68,1644373380546 ,47,9961991766078 ,72,7785455614274
24.9554828 ,Left ,68,1945820018474 ,47,9988729391533 ,72,7830891487136
24.985475 ,Left ,68,14219124979 ,48,0377002006709 ,72,8081176433869
25.0080116 ,Left ,68,1515484855247 ,48,0772957398703 ,72,8151413814569
25.0306587 ,Left ,68,1365531575561 ,48,1087580503231 ,72,8199459545567
25.0454586 ,Left ,68,1241967652314 ,48,1048186240479 ,72,8145837763678
25.0753311 ,Left ,68,0810378765792 ,48,0923140797295 ,72,8195495652976
25.0974637 ,Left ,68,0572908509417 ,48,089414604256 ,72,8151471938118
25.1126811 ,Left ,68,055652274643 ,48,0829439432954 ,72,822961079465
25.1500621 ,Left ,68,0170131225501 ,48,1594724353429 ,72,8841578002504
25.1650851 ,Left ,68,0214481834519 ,48,2657117280504 ,72,9286147207259
25.1878016 ,Left ,67,9723603589301 ,48,3726909823815 ,72,9772698114527
25.2180049 ,Left ,67,9188476736075 ,48,4483716995376 ,73,0016825352368
25.2329418 ,Left ,67,9252573314633 ,48,4832152973606 ,73,0039610987019
25.2705849 ,Left ,67,8813410037683 ,48,4919867222407 ,72,9957015070923
25.285419 ,Left ,67,8413714539931 ,48,4852223418209 ,72,9901578481347
25.3081254 ,Left ,67,7663262063224 ,48,4652518294594 ,72,9641802436021
25.3306047 ,Left ,67,7418415365423 ,48,4314883885718 ,72,9312684708726
25.3454288 ,Left ,67,7734256707981 ,48,441955471891 ,72,9257991778846
25.3682098 ,Left ,67,744088634828 ,48,52000249829 ,72,9196069383947
25.3904034 ,Left ,67,787738183075 ,48,595768834595 ,72,9125905969613
25.4054804 ,Left ,67,8665109374682 ,48,6140781058582 ,72,9076806106668
25.4280672 ,Left ,67,9013031987617 ,48,5918776430894 ,72,9031196260471
25.4505095 ,Left ,67,9280109366277 ,48,5739788811622 ,72,8938052746435
25.4654725 ,Left ,67,9209311658768 ,48,5674679965219 ,72,8733473817496
25.495505 ,Left ,67,9432524395143 ,48,5764019177673 ,72,8468111705021
25.5179153 ,Left ,67,968562994498 ,48,5833984409609 ,72,8297259247655
25.533035 ,Left ,67,9910134121306 ,48,5886299388923 ,72,8101061429178
25.547891 ,Left ,68,0221949759693 ,48,5910300385636 ,72,7813042659391
25.5705093 ,Left ,68,0549985240229 ,48,6020696555988 ,72,7545825324096
25.5853108 ,Left ,68,0678017333272 ,48,6096377310289 ,72,7127018923382
25.607909 ,Left ,68,0669951304292 ,48,5939458051412 ,72,6466001492901
25.6305276 ,Left ,68,0391479015935 ,48,559295177921 ,72,5769765472504
25.6453782 ,Left ,67,9826390574106 ,48,5581296255141 ,72,535105132828
25.6679862 ,Left ,67,9386980881364 ,48,5719925188501 ,72,4868752719249
25.6905507 ,Left ,67,9237096943065 ,48,5448607831252 ,72,4349996694206
25.7052364 ,Left ,67,9467627714958 ,48,461500283843 ,72,4297851035863
25.7279991 ,Left ,67,8973079579958 ,48,4206478740182 ,72,4612452652864
25.7503359 ,Left ,67,9099658598082 ,48,4428166868553 ,72,5115954841182
25.7653155 ,Left ,67,9946381670465 ,48,4473226205736 ,72,5542678577288
25.7878814 ,Left ,68,0683392531165 ,48,4315424862346 ,72,5725235694762
25.8104172 ,Left ,68,0396762980591 ,48,3792139486057 ,72,5728217166215
25.8251283 ,Left ,68,0196233410691 ,48,307698505121 ,72,553875097963
25.848127 ,Left ,68,0844672306349 ,48,1866738620369 ,72,5318290710908
25.8702859 ,Left ,68,1343350119995 ,48,0746733026303 ,72,5261407667524
25.8927572 ,Left ,68,1375998665605 ,47,980306145786 ,72,5464932067544
25.9077465 ,Left ,68,0669574692433 ,47,9261166542521 ,72,5790763473885
25.9307427 ,Left ,68,0862078339841 ,47,9581209580699 ,72,5951642021103
25.9532504 ,Left ,68,1060784075026 ,47,9804573649528 ,72,5967651128999
25.9681366 ,Left ,68,1673531402486 ,48,026909020563 ,72,6149353475764
25.9907733 ,Left ,68,1492015755435 ,48,0781244831525 ,72,6241849979969
26.0132471 ,Left ,68,1377583270546 ,48,1282818564335 ,72,6360000487926
26.0279386 ,Left ,68,1801828789749 ,48,1553339295138 ,72,6366012770304
26.0505014 ,Left ,68,206274679431 ,48,1543816268815 ,72,6211585464177
26.0729039 ,Left ,68,2261265100824 ,48,1342933775467 ,72,6066566964107
26.0879632 ,Left ,68,2331678045596 ,48,0944394374879 ,72,5884492689236
26.1103131 ,Left ,68,2611990310197 ,48,0537726703555 ,72,568421440135
26.1325697 ,Left ,68,2974947476935 ,48,0073683625246 ,72,5553038537943
26.1475334 ,Left ,68,3141785754551 ,47,9771926637599 ,72,5576601733471
26.1702841 ,Left ,68,3367451849735 ,47,961155292279 ,72,5596732047999
26.1927053 ,Left ,68,3539697455606 ,47,9532406872405 ,72,5633442493093
26.2075932 ,Left ,68,3563076317862 ,47,9409049350318 ,72,5696590886695
26.2303353 ,Left ,68,3608186977674 ,47,9311764329338 ,72,5819813900017
26.2526214 ,Left ,68,3614299432466 ,47,9189427419285 ,72,6033775768597
26.2676093 ,Left ,68,3512543378086 ,47,9067319759327 ,72,634987146475
26.2901181 ,Left ,68,3485312096596 ,47,8852607623888 ,72,6650909179407
26.3125498 ,Left ,68,3335027531934 ,47,855982298265 ,72,6967982615861
26.3275658 ,Left ,68,3072824946433 ,47,8180204353586 ,72,7336192905393
26.3501733 ,Left ,68,3109462515685 ,47,7924900057107 ,72,7709609549916
26.3725901 ,Left ,68,3146186354384 ,47,7521112161903 ,72,7959499774853
26.3877564 ,Left ,68,3076949277996 ,47,7060663512196 ,72,8156705646084
26.4102952 ,Left ,68,2866251870977 ,47,6771418959659 ,72,841844931242
26.4334218 ,Left ,68,2814244789321 ,47,6665776945938 ,72,8681646373705
26.4481862 ,Left ,68,290933467985 ,47,6709494657057 ,72,8791097873609
26.4703587 ,Left ,68,2996233729884 ,47,6725397669464 ,72,874748858515
26.4929051 ,Left ,68,2992467099465 ,47,6741118264769 ,72,8655259949982
26.507738 ,Left ,68,2940206768833 ,47,6832261096574 ,72,8587875684113
26.5303678 ,Left ,68,3030848951228 ,47,6974608682854 ,72,8527094715492
26.5526774 ,Left ,68,2990797979069 ,47,7071488188447 ,72,8471544177933
26.5678959 ,Left ,68,2990797979069 ,47,7071488188447 ,72,8471544177933
26.5904265 ,Left ,68,3102748558809 ,47,7032285673883 ,72,8378293684383
26.6129876 ,Left ,68,3226545262712 ,47,704318252479 ,72,8288245769733
26.6352617 ,Left ,68,3248292590788 ,47,7085399310273 ,72,8197107138762
26.6501711 ,Left ,68,3265998837711 ,47,7165792798632 ,72,8095901572593
26.6729602 ,Left ,68,3236156918516 ,47,7216160046472 ,72,8015554021472
26.6877044 ,Left ,68,3273694874057 ,47,7270269929871 ,72,7937862329663
26.7102124 ,Left ,68,3369563428857 ,47,7263701313803 ,72,7823000327292
26.732607 ,Left ,68,343074902786 ,47,729210194223 ,72,7709654197182
26.7476256 ,Left ,68,3387831016524 ,47,7316153316028 ,72,7579496723452
26.7702129 ,Left ,68,3417290351856 ,47,732637771722 ,72,750029522699
26.7929539 ,Left ,68,335086004711 ,47,725585438411 ,72,7424363191409
26.815513 ,Left ,68,3446333159844 ,47,7190245881541 ,72,7340627751126
26.8304667 ,Left ,68,3505126495856 ,47,7112823234752 ,72,7282456922711
26.8531382 ,Left ,68,3584469948392 ,47,7079650359858 ,72,7176975779612
26.8754489 ,Left ,68,3512984098618 ,47,7032319224943 ,72,7113584522493
26.8906427 ,Left ,68,3512984098618 ,47,7032319224943 ,72,7113584522493
26.9132757 ,Left ,68,3446142542318 ,47,708759080512 ,72,7080012572152
26.9429365 ,Left ,68,3367748672465 ,47,7092768179346 ,72,7043192258147
26.9581263 ,Left ,68,3367748672465 ,47,7092768179346 ,72,7043192258147
26.9806126 ,Left ,68,335011227556 ,47,714886222519 ,72,6974821739476
27.0103575 ,Left ,68,316933352865 ,47,7408514518035 ,72,6879119826013
27.0328709 ,Left ,68,3079731221437 ,47,7624581091385 ,72,6840380991974
27.0553139 ,Left ,68,3100802247264 ,47,7831271317035 ,72,6723104844359
27.0704361 ,Left ,68,3052049968104 ,47,7928112395512 ,72,6658063618874
27.0928007 ,Left ,68,2838832486168 ,47,8050940746382 ,72,6658123857674
27.1152784 ,Left ,68,2646729168177 ,47,8162457070241 ,72,6659094819767
27.1302603 ,Left ,68,2658860526406 ,47,8168330965273 ,72,6670771443874
27.1527718 ,Left ,68,263536130227 ,47,8073875769526 ,72,6724755364783
27.1752686 ,Left ,68,2223892664228 ,47,7995810055066 ,72,6918515990541
27.1904751 ,Left ,68,214477414368 ,47,7931867096393 ,72,7123997191664
27.2204619 ,Left ,68,2196733751612 ,47,7809860518172 ,72,7492388931064
27.2427965 ,Left ,68,2135086385224 ,47,8003298646794 ,72,78632879556
27.2578076 ,Left ,68,2016178388355 ,47,8498796433237 ,72,8106101027158
27.2804923 ,Left ,68,2082836488892 ,47,8883322112881 ,72,8150830575883
27.2880888 ,Left ,68,2377969787671 ,47,8933836479743 ,72,8079738803285
27.3030222 ,Left ,68,2236825754071 ,47,8725097043556 ,72,7972234433187
27.3252521 ,Left ,68,1601606569575 ,47,8170412617651 ,72,7787936324516
27.3479342 ,Left ,68,1016955942397 ,47,7682474598962 ,72,7645896243711
27.3627099 ,Left ,68,0914788148689 ,47,7660478961488 ,72,7737189157751
27.3852948 ,Left ,68,0852627181303 ,47,8140191779529 ,72,7932074176871
27.4230001 ,Left ,68,0508872038614 ,47,9269778444362 ,72,8407781656217
27.4452259 ,Left ,68,018799025576 ,48,0127759494685 ,72,8569157288432
27.4828928 ,Left ,68,0302291525165 ,48,0661867525102 ,72,8821277826684
27.5052446 ,Left ,68,0168656159814 ,48,0212600434981 ,72,870224419532
27.5427782 ,Left ,67,9634400661731 ,47,9350663483326 ,72,8109415028127
27.5651309 ,Left ,67,9649416455647 ,47,930969783683 ,72,789891375031
27.6029729 ,Left ,67,9433976475731 ,47,9659308790343 ,72,8317601477431
27.6252642 ,Left ,67,9505878627231 ,48,0709499105286 ,72,8730097995569
27.6630096 ,Left ,67,9991872399969 ,48,2371680218279 ,72,9216621983867
27.6850648 ,Left ,67,9873789597795 ,48,2414163773363 ,72,9155053171381
27.7225698 ,Left ,67,9211157731612 ,48,2589755437908 ,72,9107401509226
27.7451651 ,Left ,67,9432173577175 ,48,2491908239059 ,72,8782668655697
27.7829803 ,Left ,67,8642090110247 ,48,1894252911223 ,72,8494359737839
27.8051335 ,Left ,67,8418637321778 ,48,2185445394169 ,72,8677846188265
27.8427891 ,Left ,67,8458487492407 ,48,2983872831239 ,72,845080219634
27.8653372 ,Left ,67,8156066388574 ,48,4094178781163 ,72,8369310094882
27.9030195 ,Left ,67,9033026239182 ,48,4937222036597 ,72,8168741518428
27.925366 ,Left ,67,9118090728759 ,48,4689341938717 ,72,7902501879934
27.9625891 ,Left ,67,9277225465653 ,48,401667544068 ,72,7078810555542
27.9849833 ,Left ,67,9584804355884 ,48,3815765387818 ,72,6487038378625
28.0229003 ,Left ,67,9923437819943 ,48,3378675998001 ,72,5362335394193
28.0528215 ,Left ,68,0156060111649 ,48,3260339897889 ,72,4970709519585
28.0904981 ,Left ,68,0946810254834 ,48,3178741519627 ,72,4509149564263
28.1052552 ,Left ,68,1041647919524 ,48,3008638291172 ,72,4236271706813
28.1424621 ,Left ,68,0960754365713 ,48,2275511293235 ,72,38094903008
28.1651796 ,Left ,68,1201118902287 ,48,2120729627857 ,72,3740006159875
28.202672 ,Left ,68,1370520809445 ,48,1917429516946 ,72,3606954164936
28.2255482 ,Left ,68,1152962333256 ,48,1689470626747 ,72,3424189160652
28.2703567 ,Left ,68,1040655899683 ,48,1988438074073 ,72,3266322149719
28.2931879 ,Left ,68,0965975403765 ,48,2431429814675 ,72,3312645981669
28.3305697 ,Left ,68,0747606468941 ,48,3104669420749 ,72,3056668223918
28.3531324 ,Left ,68,0483194849815 ,48,3261299768314 ,72,2954619514001
28.4055228 ,Left ,67,8788929334905 ,48,3939542541021 ,72,1697612647437
28.4432035 ,Left ,67,8541295015246 ,48,3744619596878 ,72,1769512848532
28.4654953 ,Left ,67,9492840854838 ,48,4274677135472 ,72,2186547274089
28.5032475 ,Left ,68,0832411356569 ,48,4388881606467 ,72,2703550085729
28.5329922 ,Left ,68,1428398327538 ,48,3923280720361 ,72,2685699361834
28.5705035 ,Left ,68,1718334258245 ,48,1827402729996 ,72,2449425714561
28.5853323 ,Left ,68,1759942102386 ,48,0548348900093 ,72,2467829139615
28.6226246 ,Left ,68,1911267967726 ,47,9701467857492 ,72,3623551130161
28.6451465 ,Left ,68,2400375466454 ,47,9268355290235 ,72,413483595782
28.6906341 ,Left ,68,3928449698986 ,47,8967793050163 ,72,4278732677354
28.7130357 ,Left ,68,3566534975283 ,47,9656122652371 ,72,4110771815783
28.7649997 ,Left ,68,4623350592678 ,48,0056473325002 ,72,3790564139353
28.802566 ,Left ,68,3929461371179 ,47,9414044157142 ,72,3669252763103
28.8253079 ,Left ,68,4226330736778 ,47,9111534993682 ,72,3568296173063
28.8627991 ,Left ,68,450574773676 ,47,8339444884406 ,72,3704671571675
28.885355 ,Left ,68,4368393921563 ,47,7969084182306 ,72,3978984127687
28.9228635 ,Left ,68,4751616055767 ,47,735394419814 ,72,4557007417548
28.9528287 ,Left ,68,4950336181523 ,47,7068103241944 ,72,4733121887982
29.0053195 ,Left ,68,5309407667506 ,47,6659614635433 ,72,504561550711
29.0430563 ,Left ,68,5451050131275 ,47,6732148108633 ,72,5262184500797
29.0652927 ,Left ,68,5419086495751 ,47,6711491535956 ,72,5423535456413
29.1029792 ,Left ,68,5268385545425 ,47,6946594107426 ,72,5619244306777
29.1253394 ,Left ,68,5158568168123 ,47,7125933469255 ,72,567318230035
29.1403267 ,Left ,68,4983074763766 ,47,7234770426544 ,72,5650848479251
29.1553221 ,Left ,68,4804358258788 ,47,7298514654705 ,72,5695496827857
29.1779312 ,Left ,68,4636673859987 ,47,7493830089802 ,72,5794668621563
29.2005131 ,Left ,68,4438720250165 ,47,776179161611 ,72,589559704048
29.2152911 ,Left ,68,4259037471625 ,47,7995698713524 ,72,5974904379621
29.2379666 ,Left ,68,4019928636096 ,47,8128780052658 ,72,6032641852439
29.2601568 ,Left ,68,3740465908734 ,47,8364073691735 ,72,6096280559654
29.2752289 ,Left ,68,3490779571886 ,47,8626549229012 ,72,6102182486242
29.2976266 ,Left ,68,330699100723 ,47,8840858290965 ,72,6074320737055
29.3199548 ,Left ,68,3008486941268 ,47,9043193627236 ,72,6145149791388
29.335263 ,Left ,68,2587096769737 ,47,92398655464 ,72,6365255771168
29.3578598 ,Left ,68,2275443308718 ,47,9435482014405 ,72,6611103185104
29.3802918 ,Left ,68,2308612535537 ,47,9876704858646 ,72,6868399846296
29.3952107 ,Left ,68,2472911831665 ,48,0415723483736 ,72,7218865117815
29.4179387 ,Left ,68,2554346209546 ,48,0952898098965 ,72,7590957543
29.4405157 ,Left ,68,2918707569313 ,48,1303808506555 ,72,7835991426959
29.4553295 ,Left ,68,3214921884546 ,48,1220167986675 ,72,7748801512803
29.4778416 ,Left ,68,2915453170437 ,48,0640879356401 ,72,7645239511426
29.5003473 ,Left ,68,241069093666 ,47,9908400059102 ,72,7573562662158
29.5152535 ,Left ,68,208232434224 ,47,9587533214319 ,72,7591973614793
29.5379205 ,Left ,68,163289186786 ,47,9479091973106 ,72,7643498529788
29.5605148 ,Left ,68,1553523608863 ,47,9193889710884 ,72,7590973424294
29.5752429 ,Left ,68,1523527226318 ,47,8870992866104 ,72,7573185651569
29.597998 ,Left ,68,125575003821 ,47,8867336895718 ,72,7684176400623
29.6204801 ,Left ,68,1598014154694 ,47,9208267961272 ,72,7780108534402
29.6353039 ,Left ,68,1333081385996 ,47,9600988612797 ,72,7722907030771
29.6579635 ,Left ,68,1213520689089 ,47,9814056782842 ,72,7567459250237
29.6805095 ,Left ,68,1531335076616 ,47,9689666954086 ,72,7464940189601
29.7031117 ,Left ,68,139134562345 ,47,9556198090405 ,72,7347961154081
29.7249709 ,Left ,68,1225357156307 ,47,9410247531837 ,72,7394896807536
29.747758 ,Left ,68,1341271608559 ,47,9443680149778 ,72,7505022599433
29.777626 ,Left ,68,1160392044498 ,48,0060462789077 ,72,8103444056189
29.8004759 ,Left ,68,0653995884113 ,48,0604815566642 ,72,8302601349883
29.8232776 ,Left ,68,0641755956416 ,48,1225580830983 ,72,8476304136033
29.8380791 ,Left ,68,0305743434594 ,48,1818816169373 ,72,8542058787627
29.8603609 ,Left ,68,0289335464959 ,48,2023405164483 ,72,8657603913145
29.8829811 ,Left ,68,0204974809939 ,48,1887830611414 ,72,8846587144241
29.8978251 ,Left ,67,9929157223943 ,48,1776778971676 ,72,9112237853595
29.9201929 ,Left ,67,9541149627591 ,48,1565641414095 ,72,9451591561766
29.9430507 ,Left ,67,8990237894006 ,48,2063062518868 ,72,9939881913271
29.9580849 ,Left ,67,8414960680092 ,48,2716252702384 ,73,0352215111124
29.9804446 ,Left ,67,8215082163408 ,48,3673139152504 ,73,0663462954751
30.0029913 ,Left ,67,8459733311138 ,48,4829786053193 ,73,075788782307
30.0177666 ,Left ,67,9449069249271 ,48,5275152731033 ,73,0694890730943
30.0405862 ,Left ,68,0060727663756 ,48,5207769662586 ,73,047134406511
30.06269 ,Left ,67,9888638455994 ,48,4800753779074 ,73,0040354760437
30.0775134 ,Left ,67,9761579483021 ,48,4677332350852 ,72,9583069452187
30.1002045 ,Left ,67,9793165295894 ,48,4408376013688 ,72,9123736047725
30.1225836 ,Left ,67,9916004097167 ,48,4319097302402 ,72,8785233414905
30.1376689 ,Left ,67,9986439553601 ,48,429085909708 ,72,8425219518101
30.1605572 ,Left ,68,0157525535653 ,48,4403992443651 ,72,8018925469979
30.1830495 ,Left ,68,0322523508089 ,48,4517782702716 ,72,7544173282064
30.1978959 ,Left ,68,0364242569439 ,48,4606606121031 ,72,6807152125227
30.2202712 ,Left ,68,0324926216895 ,48,455082428165 ,72,5909216650585
30.2430239 ,Left ,68,0099577920345 ,48,4604954888631 ,72,5199261433303
30.257718 ,Left ,67,9719378403382 ,48,4818236100361 ,72,4827270715037
30.2801554 ,Left ,67,9714098641744 ,48,4914021099008 ,72,4476282870679
30.303234 ,Left ,67,9788837237955 ,48,4201248539375 ,72,4146520693341
30.3183817 ,Left ,67,9688570629916 ,48,352955078715 ,72,4335937828987
30.3480096 ,Left ,68,0091902518209 ,48,3627384689292 ,72,4724421561844
30.3702435 ,Left ,68,0569853391485 ,48,3734666293012 ,72,506096449118
30.3851604 ,Left ,68,0946820016777 ,48,3850114743862 ,72,5358851868777
30.4076922 ,Left ,68,0990020833011 ,48,3432404528685 ,72,5590605259678
30.4230301 ,Left ,68,1176181320616 ,48,2733005811698 ,72,5762825092937
30.4379436 ,Left ,68,1294124705478 ,48,1857159275287 ,72,5727243631723
30.4606764 ,Left ,68,1450093402389 ,48,0894129321064 ,72,5596574720491
30.4832089 ,Left ,68,1659169722175 ,47,9729353935187 ,72,5528080420164
30.5051212 ,Left ,68,1838590170052 ,47,9089758900573 ,72,5766493949025
30.5201788 ,Left ,68,145454653615 ,47,9043054873663 ,72,614816417396
30.5426597 ,Left ,68,1404775030699 ,47,914757125553 ,72,6186871251322
30.5652466 ,Left ,68,189769091411 ,47,8631543703228 ,72,6151295903592
30.5803658 ,Left ,68,2383230468301 ,47,8988981624755 ,72,6137217670366
30.6030463 ,Left ,68,1912637837081 ,47,9584436562842 ,72,6141636613727
30.6253847 ,Left ,68,2345472301599 ,48,0084153109964 ,72,6159392613351
30.6405349 ,Left ,68,2870977347532 ,48,0346022311761 ,72,6077117000385
30.6626685 ,Left ,68,3278900338675 ,48,0403151408624 ,72,6036583557129
30.6851396 ,Left ,68,3324573744533 ,48,0144570862948 ,72,5870966825166
30.7001625 ,Left ,68,3457493225358 ,47,9902741455981 ,72,5663500161581
30.7225401 ,Left ,68,3673343927518 ,47,9536644320695 ,72,5451899662296
30.7525678 ,Left ,68,3921539892102 ,47,9314909505069 ,72,5250055370315
30.7676692 ,Left ,68,409989299977 ,47,9223619563104 ,72,5064281426757
30.7903857 ,Left ,68,4284968501423 ,47,924844889658 ,72,5014380141213
30.8204234 ,Left ,68,4251770316886 ,47,889491191929 ,72,5096341293396
30.8428203 ,Left ,68,4200835810217 ,47,872158659383 ,72,5281594485065
30.8652748 ,Left ,68,4284290235314 ,47,849756024091 ,72,550360654211
30.8802171 ,Left ,68,4829426861203 ,47,8323188963312 ,72,5674118768301
30.9029647 ,Left ,68,4936965504201 ,47,7771500637807 ,72,5610136815681
30.9252136 ,Left ,68,5002432066419 ,47,7151066772882 ,72,5576820799261
30.940145 ,Left ,68,4925377241043 ,47,689311180788 ,72,5664959144127
30.9626652 ,Left ,68,4768022801111 ,47,69809729171 ,72,5897464152874
30.9851979 ,Left ,68,4840943970066 ,47,7219331285068 ,72,614611600457
31.0001729 ,Left ,68,5021252314861 ,47,7427560075038 ,72,6337793120282
31.0226513 ,Left ,68,4960133924011 ,47,7278097589596 ,72,6467963032865
31.0451829 ,Left ,68,4764673068814 ,47,725954544301 ,72,6740964414013
31.0600668 ,Left ,68,4440059818361 ,47,7432435206175 ,72,7067270008382
31.08259 ,Left ,68,42909310744 ,47,7720105820214 ,72,7359416174679
31.1050646 ,Left ,68,4104564862507 ,47,7910976626584 ,72,7608795258829
31.1201059 ,Left ,68,3773967885322 ,47,7937551804941 ,72,7800701934718
31.1426006 ,Left ,68,3327876334228 ,47,7910076249264 ,72,7972551253407
31.1651022 ,Left ,68,2928007121217 ,47,7986629728959 ,72,8129983772638
31.1800765 ,Left ,68,274631060793 ,47,8075076499576 ,72,8187630925871
31.2026573 ,Left ,68,2516845307174 ,47,7985099667443 ,72,814192161333
31.2250325 ,Left ,68,234923201461 ,47,7670119395543 ,72,8027429261206
31.2403174 ,Left ,68,2250640537415 ,47,7468072126948 ,72,8237700264902
31.2626135 ,Left ,68,1767673237266 ,47,7939257930349 ,72,856429238717
31.2851031 ,Left ,68,1171827211863 ,47,8295886594621 ,72,8858961328466
31.3001575 ,Left ,68,1759098151254 ,47,7916345351047 ,72,8961510347652
31.3226067 ,Left ,68,2207083500955 ,47,7993306663588 ,72,8952691901454
31.3453445 ,Left ,68,21081777582 ,47,8754964160581 ,72,8977088358515
31.360568 ,Left ,68,2772993516053 ,47,964034008968 ,72,8903911699204
31.3907562 ,Left ,68,3189717378015 ,47,9918282830695 ,72,8687288596265
31.4130251 ,Left ,68,2972085130594 ,47,9372996930231 ,72,8496351061509
31.4282662 ,Left ,68,2220482158596 ,47,8613554402901 ,72,8375301278694
31.4433871 ,Left ,68,1909442084139 ,47,7993185744014 ,72,8125790807808
31.465292 ,Left ,68,1700030512114 ,47,7601836997224 ,72,7939208780669
31.4804903 ,Left ,68,1426113359136 ,47,7533937308677 ,72,7952620641828
31.5027962 ,Left ,68,1263030900228 ,47,7388793039535 ,72,7814067444514
31.5252754 ,Left ,68,1632952143668 ,47,7241157114704 ,72,772162416697
31.5403637 ,Left ,68,1875366167163 ,47,7411401318365 ,72,7723393692306
31.5628168 ,Left ,68,1618185621684 ,47,8071127134493 ,72,7736732127124
31.5851468 ,Left ,68,1326221070529 ,47,8311382871213 ,72,7636458066793
31.6077997 ,Left ,68,1620947432168 ,47,8333592204517 ,72,7421720517725
31.622863 ,Left ,68,1286001982701 ,47,8312218302197 ,72,7237842538699
31.6451615 ,Left ,68,0767972478594 ,47,8266991655731 ,72,7107388559195
31.6753416 ,Left ,68,1159811533019 ,47,8413542771333 ,72,7135958775011
31.6902417 ,Left ,68,0540811007818 ,47,8914109980178 ,72,7446537977801
31.7277737 ,Left ,68,0201743161307 ,48,1200160692342 ,72,8647710748967
31.7429554 ,Left ,67,9146516552096 ,48,2615288626933 ,72,9059481754979
31.7654602 ,Left ,67,8799594789083 ,48,3338445122822 ,72,9249969740276
31.7880949 ,Left ,67,8670827449763 ,48,3943194395521 ,72,9324910276782
31.8031619 ,Left ,67,8463896321427 ,48,4268751255576 ,72,9288303535756
31.8255144 ,Left ,67,7634695262609 ,48,4173250169325 ,72,9243071299454
31.8479047 ,Left ,67,7429665101838 ,48,4012011914297 ,72,9110074907113
31.8630605 ,Left ,67,7589016810316 ,48,398419374679 ,72,9044987179363
31.8854508 ,Left ,67,7210434507621 ,48,3712334899635 ,72,9193963056078
31.9081177 ,Left ,67,7150196599239 ,48,3468588905736 ,72,9179326676187
31.9232145 ,Left ,67,7350238696553 ,48,3412877722746 ,72,9242500701726
31.9453689 ,Left ,67,729968036837 ,48,4170452092835 ,72,9324377283433
31.9678753 ,Left ,67,7121408414034 ,48,5330181682064 ,72,9390149467934
31.9829965 ,Left ,67,7815181095894 ,48,5888457717992 ,72,9364588366421
32.0053635 ,Left ,67,8549675784735 ,48,5795262670158 ,72,9249174305368
32.0278226 ,Left ,67,8815182552559 ,48,544274923187 ,72,8958441116301
32.0430733 ,Left ,67,902287210744 ,48,5300984130045 ,72,8632713310807
32.0653356 ,Left ,67,9374181695936 ,48,5210230136276 ,72,8070790065663
32.0878787 ,Left ,67,971693093703 ,48,5182040469634 ,72,7571791758589
32.1032834 ,Left ,67,9818064084386 ,48,5253298570706 ,72,7104120459821
32.1257866 ,Left ,68,0008732724935 ,48,5445690441755 ,72,6542989152278
32.1482848 ,Left ,68,0157670007578 ,48,5471764585395 ,72,5822058058666
32.163089 ,Left ,68,0259802993592 ,48,5499680406426 ,72,517958514165
32.1856072 ,Left ,68,0462188481969 ,48,551914524687 ,72,4636972429172
32.2081237 ,Left ,68,0616002528921 ,48,552567515385 ,72,4193717051714
32.2232056 ,Left ,68,0653723070782 ,48,5638177670588 ,72,3720286466348
32.245558 ,Left ,68,0578597390614 ,48,5574643915455 ,72,3182626057142
32.2681524 ,Left ,68,0490357922529 ,48,5534241154517 ,72,2832527451977
32.2833038 ,Left ,68,045453431304 ,48,5576824056768 ,72,2626501370361
32.3055431 ,Left ,68,0413657871085 ,48,5590128694325 ,72,2522175243984
32.3282113 ,Left ,68,0066369536913 ,48,554169737499 ,72,2345530125125
32.3429934 ,Left ,67,9789779623041 ,48,5521155184372 ,72,2195390407007
32.3655157 ,Left ,67,9683781043958 ,48,5731478596027 ,72,2306048181901
32.3880607 ,Left ,67,9359080493769 ,48,6047414563529 ,72,261177162743
32.4030454 ,Left ,68,0029633259125 ,48,6526786842678 ,72,3026726231012
32.4253669 ,Left ,68,0247407169378 ,48,678729525755 ,72,3329205931535
32.4478373 ,Left ,68,0058871236385 ,48,6747659453967 ,72,3514415801029
32.4631087 ,Left ,68,0282269420357 ,48,6484354830663 ,72,3470727112232
32.4854522 ,Left ,68,0449808386074 ,48,5489234054743 ,72,3251698535424
32.5079927 ,Left ,68,0650562451605 ,48,425185290438 ,72,29967092522
32.530426 ,Left ,68,0926813253441 ,48,2691190073537 ,72,2923575506037
32.5453853 ,Left ,68,1106433947231 ,48,1957638862764 ,72,3379695350105
32.567811 ,Left ,68,0750481051823 ,48,2053352054139 ,72,4008057301391
32.5905384 ,Left ,68,0874514220622 ,48,1959528104262 ,72,4354017355794
32.6053742 ,Left ,68,115328790725 ,48,1291956554783 ,72,4590285478514
32.6279407 ,Left ,68,1530533416714 ,48,0854706611219 ,72,4763141682856
32.6504525 ,Left ,68,1131966911867 ,48,1115287275049 ,72,4846445906455
32.6654277 ,Left ,68,137694918501 ,48,151884621321 ,72,4841570238158
32.6879918 ,Left ,68,2150361487923 ,48,1678499397534 ,72,4923593978217
32.7105503 ,Left ,68,2356486625752 ,48,1363011781638 ,72,5051819144609
32.7251297 ,Left ,68,2651463787567 ,48,111637279653 ,72,5175221421607
32.7476175 ,Left ,68,2568261505028 ,48,0689871134033 ,72,515748978397
32.7703159 ,Left ,68,302260549733 ,48,0309363572555 ,72,5126195210491
32.7852367 ,Left ,68,3606396319967 ,47,9744108460851 ,72,5102174557551
32.8079904 ,Left ,68,3822610085922 ,47,9308494773026 ,72,5130768945233
32.8305508 ,Left ,68,3946846124443 ,47,8999215118749 ,72,5196739412692
32.8532298 ,Left ,68,4272020464779 ,47,8807977247973 ,72,5277073558119
32.8754747 ,Left ,68,4679458036605 ,47,865658874579 ,72,5328038925623
32.9054548 ,Left ,68,5109831617392 ,47,8286851093808 ,72,5285695580185
32.9281917 ,Left ,68,5322100617591 ,47,8136691540914 ,72,5203077881879
32.9506447 ,Left ,68,536402570857 ,47,8130961134136 ,72,522585360615
32.9654019 ,Left ,68,5240080469253 ,47,8355504295152 ,72,5363900369069
32.9880029 ,Left ,68,5258321059994 ,47,8558120165149 ,72,5563138707706
33.0107083 ,Left ,68,5229388786971 ,47,8730271767264 ,72,5782432555077
33.0179159 ,Left ,68,5019209941129 ,47,867729468706 ,72,5958482319114
33.0482187 ,Left ,68,4949376382798 ,47,8544844565798 ,72,6098492379927
33.0706402 ,Left ,68,4778404650983 ,47,8419252632261 ,72,628329071334
33.0855459 ,Left ,68,4601667189857 ,47,8361297022661 ,72,6472936111477
33.1004962 ,Left ,68,4518113231678 ,47,8334045818184 ,72,6667239749549
33.1230734 ,Left ,68,4419084323424 ,47,8289479523349 ,72,6787628888705
33.1380362 ,Left ,68,4444759301491 ,47,8282635539998 ,72,6918276460119
33.1605017 ,Left ,68,4307423568307 ,47,8370467186455 ,72,6999906071035
33.1829224 ,Left ,68,4384626058768 ,47,8514702869007 ,72,7033915544841
33.1976158 ,Left ,68,4501544884864 ,47,8617670643264 ,72,6903487502922
33.2200992 ,Left ,68,451765313031 ,47,8602031246499 ,72,6774644034279
33.2503788 ,Left ,68,4426175690636 ,47,8766051521478 ,72,6699931865232
33.2652744 ,Left ,68,4441730182963 ,47,9040578837383 ,72,6589064807528
33.2877746 ,Left ,68,4539213531697 ,47,9251247412009 ,72,6487446847547
33.3027835 ,Left ,68,4499860855896 ,47,9368498225292 ,72,6471265630166
33.3178561 ,Left ,68,4292924545487 ,47,9438724923987 ,72,6443676499116
33.3399861 ,Left ,68,3919402959943 ,47,9680288078837 ,72,6620500568894
33.3625776 ,Left ,68,3706662515329 ,48,0061842007699 ,72,6810514946017
33.3777887 ,Left ,68,3984134619906 ,48,0261877359318 ,72,7077896455193
33.4001751 ,Left ,68,4024280509757 ,48,0631726120039 ,72,7521856612874
33.4375425 ,Left ,68,3896171297499 ,48,1919937040511 ,72,8382028469161
33.4602735 ,Left ,68,4302336808315 ,48,2197740732883 ,72,8453347004979
33.4978992 ,Left ,68,3613098098312 ,48,1026025484797 ,72,8219673598701
33.5205438 ,Left ,68,3167360301866 ,48,0515569268986 ,72,8148385299768
33.5576122 ,Left ,68,2679438294582 ,48,0170227877762 ,72,7842100438434
33.5801557 ,Left ,68,2269467154691 ,47,983321289883 ,72,7612074770111
33.6177038 ,Left ,68,2924152748566 ,47,9438869611124 ,72,7680282204488
33.6403604 ,Left ,68,2936241102594 ,47,9869366652754 ,72,7728190737723
33.6779528 ,Left ,68,302611757199 ,47,9647453685381 ,72,7474615748272
33.7001585 ,Left ,68,2706981333046 ,47,9527062214506 ,72,7363984611315
33.7377011 ,Left ,68,2619887897904 ,47,9390754814247 ,72,7424400070369
33.76051 ,Left ,68,2489093847836 ,47,9522695599814 ,72,7567036653675
33.7977406 ,Left ,68,2000647146197 ,48,0387850159936 ,72,8322537051139
33.8210056 ,Left ,68,1385246735435 ,48,1173237842346 ,72,8707089755894
33.8582193 ,Left ,68,0981238894122 ,48,2359504500611 ,72,9062947530234
33.8807607 ,Left ,68,0297312458513 ,48,2681092614533 ,72,921968671468
33.9180673 ,Left ,67,9728100396604 ,48,2746608551036 ,72,9659423324496
33.940669 ,Left ,67,9087730209121 ,48,2382328666448 ,72,977136367034
33.9781183 ,Left ,67,9118440460896 ,48,2651742189975 ,72,9564968507278
34.0004956 ,Left ,67,8829060104556 ,48,363468031755 ,72,9476660265523
34.0380405 ,Left ,67,9814510396651 ,48,4584468031456 ,72,9299732707366
34.0605607 ,Left ,68,0044695902917 ,48,4501424294073 ,72,9151723969435
34.0979847 ,Left ,68,0660728579193 ,48,494418296992 ,72,8575714173732
34.1204918 ,Left ,68,0726090761213 ,48,5246952225613 ,72,8014180965548
34.1654378 ,Left ,68,1191632045559 ,48,5671816530536 ,72,6947877872502
34.1875899 ,Left ,68,0982945839386 ,48,5935867682986 ,72,6410084664876
34.2404331 ,Left ,68,0120340406165 ,48,5583438286473 ,72,3853885235997
34.2779046 ,Left ,67,9376949830685 ,48,5017999963421 ,72,3134127818771
34.3005115 ,Left ,67,9370933814364 ,48,4685181896956 ,72,3365318333804
34.3379134 ,Left ,68,0821108668222 ,48,4890592328235 ,72,4000013115943
34.3605147 ,Left ,68,1123702056981 ,48,48158560568 ,72,4169392005653
34.398077 ,Left ,68,1097962884603 ,48,2896294760062 ,72,397767723157
34.4205584 ,Left ,68,1188622047964 ,48,1510984777285 ,72,3923656422956
34.4580452 ,Left ,68,1343718755592 ,47,9289738304385 ,72,4315082253863
34.4801196 ,Left ,68,0856356662868 ,47,8996549992781 ,72,4588855054271
34.5177965 ,Left ,68,1665684518764 ,47,8467148062425 ,72,4385418074053
34.5400788 ,Left ,68,2045518975072 ,47,8880813445696 ,72,4323011384651
34.5778713 ,Left ,68,2124747127122 ,47,9678470876194 ,72,4658154647402
34.6003968 ,Left ,68,2522827985689 ,48,0005460138946 ,72,4838816607196
34.6451477 ,Left ,68,2962444822056 ,47,9989723824224 ,72,5049733174764
34.6676777 ,Left ,68,2660353931255 ,47,9514825610532 ,72,4988459047052
34.7276076 ,Left ,68,3152282230886 ,47,8556529829497 ,72,4741722578773
34.780606 ,Left ,68,3671208832631 ,47,803490104174 ,72,5191712043467
34.8180586 ,Left ,68,3964024910836 ,47,7531370614277 ,72,560265186024
34.8329254 ,Left ,68,4030358609441 ,47,7319186504983 ,72,5765849396065
34.8778092 ,Left ,68,3958189959927 ,47,7081090595782 ,72,5961940732827
34.8929241 ,Left ,68,3869371970879 ,47,7054906044561 ,72,6087810127735
34.9231121 ,Left ,68,3708012130246 ,47,7085275896272 ,72,6282427768507
34.9382453 ,Left ,68,3453586760324 ,47,7248381180077 ,72,6574896505356
34.9605972 ,Left ,68,3248001286165 ,47,7501210615917 ,72,6816023241614
34.9757682 ,Left ,68,3012764304959 ,47,7663662110203 ,72,695741895906
34.9979988 ,Left ,68,2648027310503 ,47,7845046050694 ,72,7133369077357
35.0204344 ,Left ,68,2192417551568 ,47,8028072306996 ,72,7304368387592
35.0503058 ,Left ,68,1562077748426 ,47,8230592175098 ,72,7357972956223
35.0728768 ,Left ,68,1101775067233 ,47,8191802305905 ,72,7390869265505
35.0952404 ,Left ,68,0623860286947 ,47,8311010637443 ,72,7631496377199
35.1103386 ,Left ,68,0731313514198 ,47,8443862997937 ,72,7802000661173
35.1327585 ,Left ,68,0939884308131 ,47,8909354756448 ,72,7993549654523
35.1552098 ,Left ,68,0722345925888 ,47,9735557265034 ,72,8225549805988
35.1702986 ,Left ,68,1139901174466 ,48,0407057343995 ,72,8528887739401
35.1928002 ,Left ,68,2004024782717 ,48,0699532848915 ,72,8609152569957
35.2152264 ,Left ,68,2336382818948 ,48,0527115172441 ,72,8551780364092
35.2301464 ,Left ,68,1540158159153 ,47,9752782729995 ,72,8367276503631
35.2529944 ,Left ,68,0915728567939 ,47,8919781531697 ,72,8367845825699
35.2752589 ,Left ,68,0680725471067 ,47,8808358895335 ,72,8531922577482
35.2900875 ,Left ,68,0555954066897 ,47,8874026738774 ,72,8671116115026
35.3125768 ,Left ,68,1021542833202 ,47,8544547795681 ,72,8644471567072
35.3429411 ,Left ,68,0957331131545 ,47,8241397230853 ,72,8780865491666
35.3653529 ,Left ,68,0693177248889 ,47,8522855850817 ,72,8974830225719
35.3805318 ,Left ,68,0352981596354 ,47,9003645817751 ,72,8930147449789
35.4178113 ,Left ,68,0695011914763 ,47,9277054443282 ,72,8634964678155
35.4327631 ,Left ,68,039235211013 ,47,9221323293491 ,72,8636605731
35.4551116 ,Left ,68,0140707493645 ,47,9045813195996 ,72,8563497230457
35.4853458 ,Left ,68,0156553179799 ,47,9057786586001 ,72,85767060724
35.5002667 ,Left ,67,9840213518547 ,47,9139424946539 ,72,8689310935523
35.5377593 ,Left ,68,0021422684832 ,48,0395166249011 ,72,9091478407531
35.5527037 ,Left ,67,9432556226687 ,48,1389081940335 ,72,9416174307705
35.5751904 ,Left ,67,8955770662151 ,48,2059211516732 ,72,9634356610731
35.5980212 ,Left ,67,907580707328 ,48,2645174198414 ,72,9608497252412
35.6128678 ,Left ,67,8656412155095 ,48,2922669386245 ,72,949279358346
35.6353286 ,Left ,67,8513133718424 ,48,2990766080804 ,72,9338485930618
35.6579914 ,Left ,67,831061512675 ,48,301536684953 ,72,9276034024078
35.6729497 ,Left ,67,7255822201073 ,48,2905077608231 ,72,9179564108037
35.6953654 ,Left ,67,6641847729858 ,48,2771585542033 ,72,9006048030332
35.7180965 ,Left ,67,6723664517296 ,48,2782606772197 ,72,9148561200641
35.7330222 ,Left ,67,6698297415542 ,48,3453421377792 ,72,9248687437645
35.7553653 ,Left ,67,6955421897357 ,48,4330464893099 ,72,924040228236
35.7777686 ,Left ,67,7743544810862 ,48,4640619232792 ,72,9082883334424
35.7927934 ,Left ,67,825535810794 ,48,4569086040952 ,72,8923233728866
35.8154344 ,Left ,67,8410132308078 ,48,4376788783866 ,72,8697247310324
35.8380396 ,Left ,67,8960916748544 ,48,4443658614195 ,72,8615706905871
35.8527221 ,Left ,67,88124006585 ,48,4690059104078 ,72,8403198456997
35.8751591 ,Left ,67,8753551875311 ,48,497480525449 ,72,8171891702699
35.89766 ,Left ,67,9066839381255 ,48,5220693660023 ,72,788496799965
35.9126152 ,Left ,67,9361346714055 ,48,5343426284796 ,72,7519863927413
35.9353045 ,Left ,67,935532553188 ,48,5252188646783 ,72,717784153196
35.9578847 ,Left ,67,9014108440808 ,48,51836720769 ,72,6683639545347
35.9729655 ,Left ,67,8867507671104 ,48,5013839550638 ,72,5822348266524
35.995259 ,Left ,67,8759203695992 ,48,4688493729451 ,72,4920791377213
36.0249983 ,Left ,67,8310904380708 ,48,4316583076013 ,72,4159324486268
36.0408242 ,Left ,67,761994677446 ,48,4158019183365 ,72,409392666656
36.0633609 ,Left ,67,7353041694999 ,48,4470600221227 ,72,4458745644842
36.0927775 ,Left ,67,8591612270206 ,48,5153653825967 ,72,5047899416276
36.11505 ,Left ,67,9103400353442 ,48,4956901725919 ,72,4973430247685
36.1378771 ,Left ,67,9366041586618 ,48,4154631189783 ,72,4682040672557
36.1528748 ,Left ,67,9614941283529 ,48,3205970884358 ,72,4417628137229
36.1752344 ,Left ,67,976347151782 ,48,1841425899174 ,72,4011990184246
36.1980408 ,Left ,68,0115522278658 ,48,0499585955638 ,72,377971557173
36.2205309 ,Left ,67,9992396149173 ,47,9646991004013 ,72,4021915879429
36.2354014 ,Left ,67,9256540251863 ,47,9151391426138 ,72,4204996645451
36.2579535 ,Left ,67,9323138943666 ,47,8613367735845 ,72,4170001374388
36.2803293 ,Left ,67,9933345513679 ,47,8396785227222 ,72,4182732652821
36.2953011 ,Left ,67,9671181875054 ,47,7950998398538 ,72,4414143431716
36.3177632 ,Left ,67,9950830169374 ,47,8163323731998 ,72,4554398148634
36.3404317 ,Left ,68,0291901990613 ,47,8268101217451 ,72,4624491878862
36.3552615 ,Left ,68,0309962158326 ,47,878775933359 ,72,4855336451413
36.3777081 ,Left ,68,0293473001756 ,47,9110084143511 ,72,5102320091536
36.400251 ,Left ,68,0747994391045 ,47,9301309850318 ,72,5378101399966
36.4152242 ,Left ,68,1365517768759 ,47,9386363797856 ,72,5583036832064
36.4379405 ,Left ,68,168718020352 ,47,9360020955541 ,72,5636113300948
36.4604531 ,Left ,68,1945652993734 ,47,9133382457206 ,72,5655977685442
36.4750837 ,Left ,68,1931339957252 ,47,8874596187199 ,72,574608273887
36.4977899 ,Left ,68,2322227492092 ,47,8741033923673 ,72,5737352569586
36.5203574 ,Left ,68,2563769873205 ,47,8390713819291 ,72,5738050866119
36.5353458 ,Left ,68,2537509417939 ,47,8164227501506 ,72,5747914545708
36.5577952 ,Left ,68,2574358351009 ,47,7980042548141 ,72,5750601530143
36.5802368 ,Left ,68,2586910592712 ,47,78657198116 ,72,5780607239255
36.5957735 ,Left ,68,2633336553922 ,47,7842665658384 ,72,5851184602436
36.61821 ,Left ,68,2677288419506 ,47,7828398765895 ,72,5897682387498
36.6408362 ,Left ,68,2729048109773 ,47,778205377576 ,72,5955900064986
36.655209 ,Left ,68,2606924220467 ,47,7741135119845 ,72,6031182555306
36.6777952 ,Left ,68,2476725218107 ,47,7738000089347 ,72,6155426883525
36.7002177 ,Left ,68,2501606263036 ,47,7667178173723 ,72,6255980824146
36.715175 ,Left ,68,2345786675569 ,47,7496679539202 ,72,6360152875901
36.7376139 ,Left ,68,2256019106533 ,47,7315478873596 ,72,6489618925173
36.7600843 ,Left ,68,221492899978 ,47,7140877891598 ,72,6645054171665
36.7751977 ,Left ,68,2242741047998 ,47,7017108506889 ,72,6778630243402
36.7977899 ,Left ,68,2395198048265 ,47,6925030854701 ,72,6860395919151
36.8202078 ,Left ,68,2430441030761 ,47,6846088978332 ,72,6867399603816
36.8352116 ,Left ,68,245499728408 ,47,6737562093388 ,72,6909560451212
36.8578593 ,Left ,68,2484059554987 ,47,6731713023004 ,72,6981107876093
36.8804833 ,Left ,68,2664801376292 ,47,6754908955618 ,72,6987386179467
36.8951856 ,Left ,68,2811209523483 ,47,6807283454412 ,72,6934593341867
36.9176125 ,Left ,68,2783002244924 ,47,6909809055363 ,72,6890896292499
36.9401513 ,Left ,68,2865562046744 ,47,7046025945182 ,72,6887883912838
36.9552307 ,Left ,68,3032864382725 ,47,7168807230527 ,72,688682194003
36.9777075 ,Left ,68,3231703568883 ,47,7315428559935 ,72,6912647004525
37.0080782 ,Left ,68,335506483796 ,47,7349338252402 ,72,6904642550833
37.0232371 ,Left ,68,3427395148448 ,47,7450365204154 ,72,6876522301251
37.0454505 ,Left ,68,3360910326767 ,47,7685000231611 ,72,6793892431626
37.0754442 ,Left ,68,34767787651 ,47,8175896239423 ,72,6578886171574
37.0981234 ,Left ,68,3453244748404 ,47,8217807199159 ,72,646420423589
37.1206577 ,Left ,68,3221392492681 ,47,8037771875647 ,72,6493485588529
37.1351867 ,Left ,68,2961235675694 ,47,8031479496354 ,72,6741679745717
37.1576383 ,Left ,68,2971877361871 ,47,8242109424956 ,72,7161746591307
37.1801354 ,Left ,68,3085833143842 ,47,8655629120402 ,72,7315247241206
37.1953228 ,Left ,68,3076860877016 ,47,8580690972188 ,72,7486542780781
37.2178852 ,Left ,68,2871712835884 ,47,8789478569596 ,72,7795547669742
37.240319 ,Left ,68,2352608281186 ,47,9712875330642 ,72,8156557227065
37.262631 ,Left ,68,2702127755837 ,48,0924317247584 ,72,8412485446458
37.2778582 ,Left ,68,3259720395289 ,48,1506202232366 ,72,8457757890518
37.3002196 ,Left ,68,3093186145875 ,48,1659533802318 ,72,8495869393696
37.3230478 ,Left ,68,2442318853381 ,48,1517843390191 ,72,8578157862165
37.3378741 ,Left ,68,2025318164521 ,48,117457886289 ,72,8531065544995
37.3606594 ,Left ,68,1948799732823 ,48,0679987154378 ,72,834831920976
37.3832569 ,Left ,68,1784785194522 ,47,9967542529517 ,72,8176237733364
37.3981654 ,Left ,68,1600413339413 ,47,9125166680404 ,72,7986047718434
37.427949 ,Left ,68,1437198834449 ,47,8295012850763 ,72,7624950695449
37.45062 ,Left ,68,1395658602288 ,47,7406964506803 ,72,7350401423489
37.4654793 ,Left ,68,1693288348096 ,47,6854334329331 ,72,7168009384079
37.4806251 ,Left ,68,2016833564836 ,47,6841047059175 ,72,719701239775
37.5029767 ,Left ,68,1744191495595 ,47,7420170677139 ,72,7380332726049
37.5182086 ,Left ,68,0474376399407 ,47,7977636098572 ,72,751883199708
37.5403469 ,Left ,68,0630668786733 ,47,8384405409821 ,72,7646792440347
37.5701747 ,Left ,68,0442285609162 ,47,9302105120981 ,72,7976526725938
37.5852965 ,Left ,68,0444181062821 ,48,0347498007491 ,72,8388505444786
37.6077182 ,Left ,68,0688775587136 ,48,0935151290312 ,72,8741686197801
37.623356 ,Left ,68,0488425184478 ,48,0833354838196 ,72,8893969944827
37.6377361 ,Left ,68,0436534530015 ,48,0393738402136 ,72,872959843409
37.6604051 ,Left ,68,0020198576213 ,47,9900542076519 ,72,8566252149526
37.6828166 ,Left ,67,9955112642635 ,47,9694600847626 ,72,8285377656196
37.6978481 ,Left ,67,9887499096611 ,47,9444518374939 ,72,8072653863851
37.7204835 ,Left ,68,0026782355429 ,47,8951012265603 ,72,7938115919427
37.7431117 ,Left ,68,0071753064031 ,47,8951531435119 ,72,7962192893825
37.7579436 ,Left ,68,039593020614 ,47,9720391389876 ,72,8111472130959
37.7805069 ,Left ,68,0382688677499 ,48,0610764942302 ,72,8260361386984
37.8029021 ,Left ,67,9996893644634 ,48,143510675456 ,72,8465807204083
37.8178958 ,Left ,68,0187733737516 ,48,1949503041236 ,72,8463858118499
37.8404463 ,Left ,67,9951772606784 ,48,2301103758607 ,72,8334674655117
37.8629083 ,Left ,67,9753400749279 ,48,2354520837917 ,72,8168255936401
