timestamp,event,roll,pitch,yaw
0.0189887 ,Left ,58,7070881049594 ,46,0828589845275 ,21,6500839471818
0.0462778 ,Left ,58,6936159324437 ,46,0643838882784 ,21,6609811522584
0.061256 ,Left ,58,6939672921745 ,46,0464005471375 ,21,6747823525254
0.0791809 ,Left ,58,7213130154549 ,46,02536789976 ,21,684601337382
0.0988442 ,Left ,58,7452700983877 ,46,0104066196027 ,21,6922877144131
0.1214601 ,Left ,58,7627779109901 ,46,0083550715519 ,21,6929669886847
0.1393498 ,Left ,58,7626473013473 ,46,008927210558 ,21,692669024473
0.1589762 ,Left ,58,7458655476821 ,46,0077028707251 ,21,6910831545036
0.1829687 ,Left ,58,7464612989349 ,46,0049990041468 ,21,6898782781626
0.1994806 ,Left ,58,7478129152381 ,46,0105954908188 ,21,6854704794445
0.2278741 ,Left ,58,7507531567882 ,46,0183609918602 ,21,6783146888463
0.2489851 ,Left ,58,7518969030785 ,46,0272278645395 ,21,6806597035709
0.2592974 ,Left ,58,7354485671422 ,46,0362726054704 ,21,6857639071509
0.2805969 ,Left ,58,7110386566906 ,46,0533556321482 ,21,6795285667139
0.301513 ,Left ,58,6903358115155 ,46,0864631063186 ,21,6628244688823
0.3237122 ,Left ,58,6867709506585 ,46,1400515603084 ,21,6365470152935
0.3404185 ,Left ,58,708133928964 ,46,1870245615248 ,21,5653274872847
0.361658 ,Left ,58,7388447270213 ,46,2420701737368 ,21,4714619596392
0.3922842 ,Left ,58,7672223097112 ,46,3314948709155 ,21,3578510555969
0.4064825 ,Left ,58,791437064406 ,46,4350921506601 ,21,2350845853664
0.4215269 ,Left ,58,7909668431203 ,46,537893852247 ,21,0907390746394
0.4440058 ,Left ,58,7842122385482 ,46,6445803052671 ,20,9201796084012
0.4604491 ,Left ,58,792106033788 ,46,7488896409218 ,20,7146161037312
0.4817054 ,Left ,58,820771221606 ,46,8574079764328 ,20,472047831871
0.5040776 ,Left ,58,8528057844463 ,46,9680266619284 ,20,2067293800062
0.52061 ,Left ,58,8636870618633 ,47,0858032720323 ,19,9296974560619
0.5416554 ,Left ,58,8548090639606 ,47,2048529432534 ,19,6379784214895
0.5718573 ,Left ,58,8482752548694 ,47,3201572534068 ,19,3347577415099
0.5894428 ,Left ,58,8630034641401 ,47,440446167572 ,19,0187498037881
0.6015767 ,Left ,58,9013939082288 ,47,5613381672934 ,18,7002664839419
0.6241072 ,Left ,58,9319276346356 ,47,679122823518 ,18,3921405624369
0.641842 ,Left ,58,9466783274575 ,47,7924358879564 ,18,0916012906699
0.6615212 ,Left ,58,9464489303703 ,47,8988151457881 ,17,7968023483248
0.6839127 ,Left ,58,9502812017671 ,47,9994399559715 ,17,5085201934989
0.70189 ,Left ,58,9796761972513 ,48,0854497586254 ,17,2371953367891
0.7213091 ,Left ,59,0243668342447 ,48,1756210489628 ,16,9820178542391
0.7438907 ,Left ,59,0505213630819 ,48,2650360838602 ,16,7638555200882
0.7618594 ,Left ,59,0759004390135 ,48,3254398226734 ,16,5869901378668
0.7815565 ,Left ,59,1013830892853 ,48,3564855445941 ,16,4505078655151
0.8038633 ,Left ,59,1449382274444 ,48,3599351035566 ,16,3261858271191
0.8219872 ,Left ,59,1984370215104 ,48,3459355115803 ,16,2028995143671
0.8415403 ,Left ,59,2437660263401 ,48,3166158727073 ,16,0870483389469
0.8637579 ,Left ,59,2680879640201 ,48,2785789077344 ,15,9852333617228
0.88185 ,Left ,59,2972014972231 ,48,2324754515513 ,15,901030225257
0.9014727 ,Left ,59,3429720675188 ,48,17768971393 ,15,8365861369705
0.923742 ,Left ,59,3880795368192 ,48,1070494711967 ,15,8016368873995
0.9479645 ,Left ,59,4296310380294 ,48,0269639890723 ,15,8013202872558
0.9615424 ,Left ,59,4615170134265 ,47,9472047953552 ,15,8154754868766
0.9838917 ,Left ,59,4757022197936 ,47,8731981514935 ,15,8548571638786
1.0016082 ,Left ,59,4973640855957 ,47,8049398799155 ,15,9190680237295
1.02121 ,Left ,59,5177081078813 ,47,7503658803045 ,16,0111112076488
1.0437498 ,Left ,59,5412825652619 ,47,7060976247866 ,16,1077270947359
1.0618053 ,Left ,59,5873330406142 ,47,6613023981552 ,16,1942814073645
1.08158 ,Left ,59,635646582191 ,47,6184628794247 ,16,2707930962078
1.1042821 ,Left ,59,6671269472994 ,47,5880253635048 ,16,3258723768269
1.1220424 ,Left ,59,7053767672715 ,47,5688740569856 ,16,3558427614655
1.1445954 ,Left ,59,728171030733 ,47,5587063732314 ,16,3803864209683
1.1643621 ,Left ,59,7335083284604 ,47,5620821942659 ,16,3876675342464
1.1820993 ,Left ,59,7492941476319 ,47,571336788793 ,16,3745941003657
1.2037308 ,Left ,59,7747300145434 ,47,5663396387046 ,16,3546894813894
1.2240928 ,Left ,59,7977672330105 ,47,5615494614209 ,16,3235565138632
1.241827 ,Left ,59,8033508503178 ,47,5565344385294 ,16,2897141052851
1.2628814 ,Left ,59,8049606321646 ,47,5473328742645 ,16,2609009653274
1.284106 ,Left ,59,814774573583 ,47,5337668526373 ,16,2444160239559
1.3020001 ,Left ,59,825708664888 ,47,5134814729094 ,16,2251327532051
1.32273 ,Left ,59,8308538601424 ,47,4925447422662 ,16,1974757230077
1.3437866 ,Left ,59,830217725085 ,47,4661217686314 ,16,1694518004111
1.3619176 ,Left ,59,83107556974 ,47,4366425435449 ,16,1474704664751
1.3829219 ,Left ,59,8296653029373 ,47,4121714480556 ,16,1214459616889
1.4040698 ,Left ,59,8434205948204 ,47,3894872324556 ,16,0915914082329
1.4216974 ,Left ,59,8544185960643 ,47,3716761220449 ,16,059913695431
1.442929 ,Left ,59,8758662801791 ,47,3512130557991 ,16,0251957055147
1.4638379 ,Left ,59,8995312647492 ,47,3318000654353 ,15,9846428208239
1.482051 ,Left ,59,8774277766679 ,47,312036508653 ,15,9336542790707
1.5025716 ,Left ,59,8202316436701 ,47,2927851642639 ,15,9184973386178
1.5238616 ,Left ,59,7826980558865 ,47,2832976350412 ,15,8945924772523
1.5418924 ,Left ,59,804977317073 ,47,3011437470722 ,15,880270177392
1.564217 ,Left ,59,8610001067731 ,47,3207805460429 ,15,8586710861135
1.5836993 ,Left ,59,8401828981254 ,47,3066856835148 ,15,8410915526313
1.6017649 ,Left ,59,8897228019274 ,47,2926873472421 ,15,8153925516729
1.6242413 ,Left ,59,9130185932111 ,47,273621639662 ,15,7945296211167
1.6437898 ,Left ,59,8967163707267 ,47,2609545095421 ,15,7662175731067
1.6622195 ,Left ,59,8610709991479 ,47,2516072965997 ,15,7395703485895
1.6846183 ,Left ,59,7994004332924 ,47,2528001552112 ,15,7302634651215
1.7038601 ,Left ,59,774549674658 ,47,2729603632061 ,15,699244107118
1.7217738 ,Left ,59,7675202536264 ,47,275153688837 ,15,6593384098225
1.7441681 ,Left ,59,7653079262422 ,47,2686109830974 ,15,6422425979959
1.7637939 ,Left ,59,7111201861158 ,47,2287140206135 ,15,6405782716827
1.7818884 ,Left ,59,7137919071568 ,47,2371872771734 ,15,6440588071184
1.8045052 ,Left ,59,7262780060698 ,47,276174759999 ,15,6117581105546
1.8241991 ,Left ,59,7399366644784 ,47,2955882458324 ,15,5675242288503
1.8417354 ,Left ,59,7425568848658 ,47,3028428024657 ,15,5561669520543
1.8640202 ,Left ,59,6865325415481 ,47,335934352029 ,15,5566458918012
1.8837483 ,Left ,59,6042065335694 ,47,3780776077156 ,15,5714867058493
1.9019214 ,Left ,59,5800834723423 ,47,4090016934471 ,15,5997348369019
1.9242016 ,Left ,59,6410307695505 ,47,4129366534495 ,15,6292488392855
1.9439147 ,Left ,59,6182543508803 ,47,425428548608 ,15,6163735810638
1.9619432 ,Left ,59,5758215082917 ,47,4620394149536 ,15,5849893001329
1.9846396 ,Left ,59,5274497326811 ,47,4806214081596 ,15,5431250095745
2.0057253 ,Left ,59,4997468020754 ,47,4957040075896 ,15,4839847614794
2.0221917 ,Left ,59,4597448412749 ,47,5005701597517 ,15,4203360992521
2.0443891 ,Left ,59,4302366449186 ,47,5247971730226 ,15,3626224209221
2.0642671 ,Left ,59,4152836709708 ,47,5310832210508 ,15,3150528817001
2.0819155 ,Left ,59,4021631386117 ,47,5098421025579 ,15,2848414843743
2.1043997 ,Left ,59,3982586493673 ,47,4860037749204 ,15,2752118899341
2.1270549 ,Left ,59,3985745943071 ,47,4812356207196 ,15,2746289274738
2.1419856 ,Left ,59,3970836165965 ,47,4701362213673 ,15,2699718950387
2.1704406 ,Left ,59,4033565313952 ,47,4656567459831 ,15,2598939985747
2.1852337 ,Left ,59,4255806043867 ,47,459741207916 ,15,2556244881539
2.202198 ,Left ,59,4601242349455 ,47,4595817066424 ,15,2476209042101
2.224742 ,Left ,59,4943606762315 ,47,4611737051873 ,15,2367520431806
2.2457129 ,Left ,59,5172614826326 ,47,4603142333356 ,15,2286774015985
2.2622395 ,Left ,59,5274841472153 ,47,4499573457406 ,15,2239782417828
2.2845587 ,Left ,59,5254661443454 ,47,4324594918054 ,15,218322756304
2.3055775 ,Left ,59,5279832834859 ,47,4055667342475 ,15,213407759476
2.3219234 ,Left ,59,5553223739185 ,47,3874040271954 ,15,2041012676418
2.3445365 ,Left ,59,6001294695158 ,47,3805649018867 ,15,1936258090974
2.3649778 ,Left ,59,6264484276026 ,47,3789804794075 ,15,1839185301795
2.3812256 ,Left ,59,6340472485003 ,47,3667304606135 ,15,1815369939486
2.4036348 ,Left ,59,621067998769 ,47,3513192286035 ,15,1742880974752
2.4319855 ,Left ,59,614345446697 ,47,3350914422888 ,15,1593571065688
2.4483363 ,Left ,59,6282849837899 ,47,3152328309936 ,15,1366882491981
2.4635652 ,Left ,59,6505570161173 ,47,2889859859106 ,15,113455764178
2.4859569 ,Left ,59,6522742190285 ,47,2625483921879 ,15,0888347429476
2.5071092 ,Left ,59,6309535836973 ,47,2453654184961 ,15,0735213096726
2.5235725 ,Left ,59,5932621693258 ,47,2145911649818 ,15,0505508567613
2.5461024 ,Left ,59,5810375745804 ,47,1865070711257 ,15,0073046311061
2.5601569 ,Left ,59,5888812966102 ,47,193433195412 ,15,0084359595709
2.583587 ,Left ,59,6167444032519 ,47,1829676151415 ,15,0082689698799
2.6061585 ,Left ,59,6677093657906 ,47,1891246819872 ,14,9978889480418
2.6203384 ,Left ,59,5995114900371 ,47,1885639697337 ,14,9610514670878
2.6435993 ,Left ,59,5592575234872 ,47,1904454435355 ,14,8997448007036
2.6665537 ,Left ,59,5233800528573 ,47,1860317468558 ,14,8825254945449
2.6808567 ,Left ,59,5010752388361 ,47,2043218356817 ,14,8704482413633
2.7039377 ,Left ,59,4855129439544 ,47,247147720896 ,14,8485136075072
2.7265032 ,Left ,59,4613652744519 ,47,2536358691682 ,14,8204347760831
2.7408321 ,Left ,59,3653066332578 ,47,2309887149513 ,14,8295022443821
2.7636005 ,Left ,59,3523417598093 ,47,1875127602657 ,14,844586168107
2.7859925 ,Left ,59,3723651569623 ,47,1875238421765 ,14,8663166825147
2.8003253 ,Left ,59,3502877342142 ,47,2005021040357 ,14,887932742797
2.8237421 ,Left ,59,4041372566329 ,47,1836707473506 ,14,9208162190457
2.8460164 ,Left ,59,498588951961 ,47,1217684940812 ,14,9424426978641
2.8605327 ,Left ,59,5209987349527 ,47,0649679633762 ,14,9612628496427
2.8835999 ,Left ,59,4642696001348 ,47,0856566276017 ,15,0076935939674
2.906118 ,Left ,59,4641015508332 ,47,1459418748753 ,15,0487205628719
2.9271948 ,Left ,59,5201358374585 ,47,1824436051704 ,15,0592385450694
2.9436598 ,Left ,59,5404123852225 ,47,1541254761099 ,15,0836317393351
2.9659782 ,Left ,59,5537592540221 ,47,1021807739675 ,15,1402672236841
2.9870621 ,Left ,59,5287509915328 ,47,1075429595381 ,15,1831542036367
3.0039091 ,Left ,59,5244733161833 ,47,1355047783126 ,15,1870597422727
3.02603 ,Left ,59,5831204860145 ,47,1495812673681 ,15,1929023769676
3.0471767 ,Left ,59,6347260696452 ,47,1566777700922 ,15,2094810936483
3.0636397 ,Left ,59,6431165358651 ,47,1644716844663 ,15,2140530216673
3.0858793 ,Left ,59,6608835148185 ,47,1662729442958 ,15,2202964526106
3.1071775 ,Left ,59,6739778502125 ,47,1617288795872 ,15,2388988833339
3.1232685 ,Left ,59,6901189385537 ,47,1487865188592 ,15,2568126692181
3.1459903 ,Left ,59,7088315126353 ,47,1188084487267 ,15,2751160068639
3.1672617 ,Left ,59,6916439332748 ,47,0917028498794 ,15,2805130407961
3.1835334 ,Left ,59,6496112852564 ,47,0785737411293 ,15,279824569972
3.2060976 ,Left ,59,6361274606691 ,47,0660681768299 ,15,2782519370353
3.2285402 ,Left ,59,6569587544989 ,47,061767239799 ,15,2712657483142
3.2436207 ,Left ,59,6784574100724 ,47,0688285995459 ,15,2637868494411
3.266076 ,Left ,59,6896821193381 ,47,0771351430348 ,15,2612223869094
3.2871746 ,Left ,59,6956215200298 ,47,0928123671881 ,15,2652577136352
3.3036121 ,Left ,59,6941860185207 ,47,1080687430508 ,15,2691887168889
3.3264675 ,Left ,59,6918710242809 ,47,1216842327287 ,15,2727658060423
3.3474061 ,Left ,59,6976972161372 ,47,1324391321446 ,15,2782845378913
3.3638456 ,Left ,59,6981278146068 ,47,1386807154113 ,15,2727440453456
3.386091 ,Left ,59,6971387799712 ,47,1376424108309 ,15,2714578828111
3.4085969 ,Left ,59,692865789398 ,47,146050456284 ,15,2793177930356
3.43112 ,Left ,59,6907795883835 ,47,1592551734065 ,15,2903649323858
3.4460932 ,Left ,59,7028309928469 ,47,1674522375471 ,15,2996830690615
3.4686528 ,Left ,59,713610483824 ,47,1732761832957 ,15,3117547090294
3.4835279 ,Left ,59,7018128166913 ,47,1801382860169 ,15,330065092913
3.5060107 ,Left ,59,6992083010464 ,47,1906856236984 ,15,3491560442567
3.5286109 ,Left ,59,6981123996327 ,47,1946743989616 ,15,3719265599625
3.5434899 ,Left ,59,6963945030353 ,47,2013427576535 ,15,3937647001995
3.5659024 ,Left ,59,6924352139735 ,47,2093465173985 ,15,4090294228399
3.5886277 ,Left ,59,6724726696576 ,47,1975608381848 ,15,4086224083642
3.6028412 ,Left ,59,6506859018222 ,47,1739886687083 ,15,4065348030704
3.6332259 ,Left ,59,6373823032316 ,47,1658620916052 ,15,4043942266969
3.6485751 ,Left ,59,5917801593165 ,47,1671652471142 ,15,4133393554147
3.6627787 ,Left ,59,5949761452601 ,47,1684895881504 ,15,3928508231198
3.6858824 ,Left ,59,6390611890093 ,47,184350986639 ,15,4017736418173
3.708557 ,Left ,59,6262424300609 ,47,1799001253251 ,15,4394973778356
3.7228763 ,Left ,59,6329399534762 ,47,2125430528219 ,15,4659563462423
3.7460357 ,Left ,59,619270622373 ,47,2488458473071 ,15,4746376389055
3.7686394 ,Left ,59,6344731872536 ,47,279542469697 ,15,4669893701517
3.7828516 ,Left ,59,7062446469394 ,47,2843357024706 ,15,4589779011836
3.8060956 ,Left ,59,7021020990692 ,47,2897639783115 ,15,4632993708576
3.8360932 ,Left ,59,6686149009407 ,47,304603059934 ,15,4724116496533
3.8428304 ,Left ,59,6407088861267 ,47,311832855475 ,15,4889983701812
3.8732771 ,Left ,59,6491566740591 ,47,3140194875798 ,15,4960073221966
3.8883578 ,Left ,59,6729539767851 ,47,313480593015 ,15,4986088778845
3.9095304 ,Left ,59,6762392706175 ,47,3084408159133 ,15,5144680349987
3.925814 ,Left ,59,6755612232153 ,47,2826768586446 ,15,523927854584
3.9483859 ,Left ,59,6705233511217 ,47,2442686459764 ,15,4981510348504
3.969481 ,Left ,59,6115775857305 ,47,1990251600914 ,15,4673938138386
3.9859928 ,Left ,59,5498043835541 ,47,1856704938961 ,15,4450950401134
4.0085271 ,Left ,59,5305833710283 ,47,2089392351664 ,15,4417350566321
4.0294716 ,Left ,59,5573645007278 ,47,2133652897162 ,15,4263902227961
4.0459733 ,Left ,59,6256600391435 ,47,2359650793531 ,15,4050317410584
4.0684355 ,Left ,59,6222460420615 ,47,2303052170284 ,15,4260942927819
4.0895708 ,Left ,59,5533160978821 ,47,2271545824477 ,15,4646281983859
4.1059664 ,Left ,59,50811017068 ,47,3006123573039 ,15,4883953947053
4.1284822 ,Left ,59,526664066861 ,47,3712314449691 ,15,4974704830474
4.1497117 ,Left ,59,5653720082362 ,47,3623621145726 ,15,4816203990724
4.1661508 ,Left ,59,608225580061 ,47,3416483573323 ,15,4809963344131
4.1959765 ,Left ,59,5385134720955 ,47,3606136379587 ,15,4580354722361
4.2094322 ,Left ,59,4756778076637 ,47,4301663601391 ,15,4544095273389
4.2259053 ,Left ,59,4282003131926 ,47,4305917835587 ,15,4685941457746
4.2483075 ,Left ,59,4419493473886 ,47,3680110507502 ,15,4829220542742
4.271061 ,Left ,59,4740175399307 ,47,31407794783 ,15,5034432710399
4.2859858 ,Left ,59,466121067218 ,47,32353960657 ,15,4883253521391
4.308447 ,Left ,59,4397016324298 ,47,3436489891317 ,15,4649267951296
4.3312079 ,Left ,59,5304778597913 ,47,3483219354111 ,15,4593856104933
4.3460843 ,Left ,59,5884923091268 ,47,3316201476257 ,15,4501255723054
4.3687329 ,Left ,59,6199303867692 ,47,3241533749352 ,15,4224732717057
4.3915167 ,Left ,59,5818761197921 ,47,3218702758071 ,15,3967720812951
4.4060994 ,Left ,59,5218485856489 ,47,3414038821983 ,15,3689675183536
4.4286422 ,Left ,59,5203005452358 ,47,3664642899822 ,15,3387080367506
4.4511174 ,Left ,59,563886655229 ,47,3873670069844 ,15,3154768064802
4.4660941 ,Left ,59,5988408596923 ,47,4085494980782 ,15,2982700390041
4.4886188 ,Left ,59,5924858597717 ,47,4108787082717 ,15,2878264169379
4.5111075 ,Left ,59,5543127090432 ,47,4001181850356 ,15,2865502152457
4.525437 ,Left ,59,5064710949855 ,47,3616063649581 ,15,2825211467672
4.5561213 ,Left ,59,4731870409266 ,47,3259357220275 ,15,2598210914844
4.5712264 ,Left ,59,4170493421015 ,47,2855854109217 ,15,2146176007795
4.585225 ,Left ,59,3875028397438 ,47,2700717507999 ,15,1746976800132
4.6086045 ,Left ,59,3957132628967 ,47,2968998827692 ,15,1620519299555
4.6310614 ,Left ,59,4221950554827 ,47,3089845513896 ,15,1915623430575
4.6453711 ,Left ,59,4314414594021 ,47,321484060671 ,15,1999387899607
4.6688856 ,Left ,59,3728380621843 ,47,3117378251927 ,15,1685876518825
4.691006 ,Left ,59,3648413644748 ,47,2948779184732 ,15,1041014137701
4.7053266 ,Left ,59,3564806387221 ,47,2850277008333 ,15,0608121155222
4.7299135 ,Left ,59,3102155274219 ,47,2886608779617 ,15,0028148191721
4.7510787 ,Left ,59,2771488881639 ,47,2996050303023 ,14,9412782493528
4.7654167 ,Left ,59,2399652727653 ,47,2829326782275 ,14,8886762238551
4.7883971 ,Left ,59,1964371395849 ,47,240782865604 ,14,8545427743479
4.8109098 ,Left ,59,1504655528417 ,47,1709476147702 ,14,8793344901763
4.8318545 ,Left ,59,1802367011284 ,47,1413956760783 ,14,9684730296135
4.8483628 ,Left ,59,2390502402133 ,47,1385511539915 ,15,0373323242254
4.8709665 ,Left ,59,3389350838559 ,47,1018150760911 ,15,0290863021953
4.8920404 ,Left ,59,4193594691835 ,47,0206370790463 ,15,0233481687486
4.9086489 ,Left ,59,3884944445644 ,47,0758752644029 ,15,0609148446799
4.9311164 ,Left ,59,3771235122278 ,47,1812200599848 ,15,0871413630508
4.9517412 ,Left ,59,4139513675489 ,47,2651126520325 ,15,0884796847978
4.9685191 ,Left ,59,4483426956417 ,47,2651268535911 ,15,1467828102599
4.9910925 ,Left ,59,5121932650555 ,47,2117151485301 ,15,2342213528097
5.0119733 ,Left ,59,5125506876316 ,47,1892164674166 ,15,265712694746
5.0285106 ,Left ,59,5025070108232 ,47,1790266230607 ,15,232926937982
5.050831 ,Left ,59,4969941607515 ,47,1461671118542 ,15,2182523420639
5.0719779 ,Left ,59,5262126175934 ,47,1350951076594 ,15,2184036618817
5.0960885 ,Left ,59,5988930044134 ,47,1447375883821 ,15,221607293471
5.1111849 ,Left ,59,6617815380213 ,47,165597747252 ,15,2331386650394
5.1321768 ,Left ,59,7123331290726 ,47,1929104514436 ,15,2585683233871
5.1485821 ,Left ,59,7524237955812 ,47,1975049530773 ,15,2932228148273
5.1708423 ,Left ,59,7753281618858 ,47,1828177606511 ,15,3182975920493
5.1951771 ,Left ,59,75578888605 ,47,1653888254949 ,15,3408925732956
5.2085174 ,Left ,59,7388803841457 ,47,1550915270555 ,15,3623810693875
5.2310818 ,Left ,59,7403376950668 ,47,1444108747668 ,15,3899882207947
5.2521061 ,Left ,59,7566161980699 ,47,1315034468294 ,15,4142870957133
5.2685747 ,Left ,59,7718046480793 ,47,1258715255076 ,15,4317919095403
5.2910906 ,Left ,59,768678883041 ,47,1269722883092 ,15,4463908886835
5.3138234 ,Left ,59,7641419760485 ,47,1292941868861 ,15,466270836143
5.3280463 ,Left ,59,7715328293286 ,47,140144444836 ,15,4879200102086
5.3509873 ,Left ,59,7902051327606 ,47,1506996874827 ,15,5059411028089
5.3736175 ,Left ,59,8032014074787 ,47,1647408516454 ,15,5236376822493
5.3883637 ,Left ,59,7998357450759 ,47,1753826610676 ,15,5308714151906
5.411127 ,Left ,59,7777583018134 ,47,1804419791247 ,15,5440194828857
5.4334877 ,Left ,59,7649656880768 ,47,1928709444018 ,15,5669373326997
5.4478944 ,Left ,59,776363203908 ,47,2158769914506 ,15,5939603595853
5.4710046 ,Left ,59,7983347136931 ,47,2327254290255 ,15,6154556818419
5.5014075 ,Left ,59,8128526060399 ,47,2454829075576 ,15,6278339356702
5.5082337 ,Left ,59,7995182229729 ,47,2503136713555 ,15,6348271621186
5.5312787 ,Left ,59,7794582810379 ,47,2507745733438 ,15,6379392739821
5.5536947 ,Left ,59,7758745794215 ,47,2480010613603 ,15,6456208085925
5.5680479 ,Left ,59,7819144735047 ,47,249546780174 ,15,650961849324
5.5911925 ,Left ,59,7827201188453 ,47,2517738884868 ,15,6503931360906
5.6136458 ,Left ,59,7753355688947 ,47,2471116081313 ,15,6421931707913
5.6278681 ,Left ,59,7611624844669 ,47,2394201053423 ,15,63483793161
5.6510884 ,Left ,59,7511201573819 ,47,2353819050872 ,15,6232229488357
5.673623 ,Left ,59,7566979798295 ,47,2342382995779 ,15,6112166336528
5.6878377 ,Left ,59,7647254310902 ,47,2336636621616 ,15,6008075721178
5.711474 ,Left ,59,7499587741453 ,47,2286388907932 ,15,5925058855569
5.7340172 ,Left ,59,7285429625511 ,47,2096425244381 ,15,5710110705303
5.7482717 ,Left ,59,6854830468928 ,47,1797944767006 ,15,5413156706417
5.7784068 ,Left ,59,5858607173642 ,47,1596050871517 ,15,5158201728719
5.7934212 ,Left ,59,5561109640301 ,47,1070763707164 ,15,536449252552
5.8152084 ,Left ,59,5805213631195 ,47,0639665288203 ,15,5625440259086
5.8314322 ,Left ,59,6384928599105 ,47,0863265349474 ,15,5497791760537
5.8535997 ,Left ,59,6068022149372 ,47,1231997191618 ,15,5335506470648
5.8745754 ,Left ,59,6083794049855 ,47,1564628023347 ,15,5540089892662
5.8908521 ,Left ,59,6891010988181 ,47,1646079549714 ,15,5654094606781
5.913609 ,Left ,59,768815150853 ,47,1563956850519 ,15,5619422548143
5.9346158 ,Left ,59,7417889263707 ,47,1359877268067 ,15,5583082534614
5.951133 ,Left ,59,6893434859532 ,47,1354400555391 ,15,5511883915209
5.9736616 ,Left ,59,5722007318622 ,47,1574048488571 ,15,5621329465771
5.9944186 ,Left ,59,5066062471842 ,47,1785075290387 ,15,5468405397025
6.0109107 ,Left ,59,4944903922755 ,47,206182866172 ,15,5386044140492
6.0333341 ,Left ,59,5152410379663 ,47,1435394316527 ,15,5875084072149
6.0545488 ,Left ,59,570554567928 ,47,1081598897878 ,15,6269127273196
6.0707637 ,Left ,59,5606716588185 ,47,1186533012377 ,15,6129008450643
6.0936023 ,Left ,59,5334994051675 ,47,135442345545 ,15,5756855868975
6.1145174 ,Left ,59,5294238706843 ,47,1706570213157 ,15,5844153514305
6.1312239 ,Left ,59,4641215380527 ,47,2355717621911 ,15,5616166053217
6.1538443 ,Left ,59,44507230531 ,47,3090863209958 ,15,5499141775725
6.1751766 ,Left ,59,4278498047932 ,47,3323386141478 ,15,5699049160886
6.1914014 ,Left ,59,4498255583528 ,47,3323513622488 ,15,5809874148304
6.2139123 ,Left ,59,434340078044 ,47,3476112863286 ,15,5811634653609
6.2361689 ,Left ,59,3027878078468 ,47,3866814093289 ,15,5853124404287
6.2505196 ,Left ,59,2543207273906 ,47,4381097349364 ,15,5866733795189
6.2736098 ,Left ,59,2872391116544 ,47,4725387865209 ,15,5727904278752
6.2962027 ,Left ,59,3469739072667 ,47,4957587562651 ,15,5549565023189
6.3105205 ,Left ,59,3465001012597 ,47,4982997342967 ,15,5350834746963
6.3336328 ,Left ,59,338476932488 ,47,5129429643256 ,15,510747317522
6.3561395 ,Left ,59,3471961756739 ,47,5262285004888 ,15,4776900744837
6.3712052 ,Left ,59,3190789720566 ,47,5154771467745 ,15,4346138989875
6.3935627 ,Left ,59,2737552204551 ,47,4777215292561 ,15,3970583634572
6.4162847 ,Left ,59,2511705076235 ,47,4459408717619 ,15,3726458433492
6.4305288 ,Left ,59,2638967766294 ,47,4128955574589 ,15,3628243839078
6.4536927 ,Left ,59,2954506909337 ,47,3882191893965 ,15,3581371014954
6.4761609 ,Left ,59,332796868253 ,47,3663943208852 ,15,356955040789
6.4987058 ,Left ,59,3487193722248 ,47,3389922868529 ,15,3447813645635
6.513673 ,Left ,59,3579794182485 ,47,3084903777739 ,15,3333211167419
6.5358154 ,Left ,59,3662067443437 ,47,3036518369097 ,15,3213910487355
6.5501304 ,Left ,59,37847366424 ,47,3154358753239 ,15,3141940423974
6.5735965 ,Left ,59,3919794927388 ,47,3279448661438 ,15,3157705289139
6.6124748 ,Left ,59,4208380782079 ,47,340256295671 ,15,3071536200486
6.6171457 ,Left ,59,4220690450111 ,47,3340860499945 ,15,3034553036083
6.6336704 ,Left ,59,4158903829911 ,47,3250402829716 ,15,3054953799423
6.6561297 ,Left ,59,4032983900812 ,47,3180262155651 ,15,3132934760644
6.6706647 ,Left ,59,4186428622202 ,47,3054611613484 ,15,3262079822909
6.6937894 ,Left ,59,4405280558989 ,47,2872321701975 ,15,330834940079
6.7162543 ,Left ,59,465221947675 ,47,2587568726146 ,15,3295469860378
6.7375808 ,Left ,59,4702908564823 ,47,2403627234977 ,15,3280771366415
6.7537508 ,Left ,59,4584967720211 ,47,240252932461 ,15,3271876302983
6.776233 ,Left ,59,4622547910196 ,47,2486995932473 ,15,3235379601226
6.7973 ,Left ,59,4992807294498 ,47,2435741730385 ,15,3193591257158
6.8136803 ,Left ,59,5170151572718 ,47,2330143764902 ,15,3156480432541
6.83617 ,Left ,59,5170151572718 ,47,2330143764902 ,15,3156480432541
6.8574441 ,Left ,59,5170151572718 ,47,2330143764902 ,15,3156480432541
6.8737381 ,Left ,59,5210853181441 ,47,2281686055969 ,15,3104080648033
6.8962579 ,Left ,59,5209479555562 ,47,2194347745023 ,15,3028795889199
6.9174264 ,Left ,59,5216500043217 ,47,1983272073765 ,15,297182569688
6.9336551 ,Left ,59,5146722573514 ,47,1900989036153 ,15,2929434597101
6.9562454 ,Left ,59,481312724642 ,47,1981573854438 ,15,296045183593
6.9775 ,Left ,59,4710917845301 ,47,1915605774607 ,15,2657996016344
6.9932003 ,Left ,59,432962381657 ,47,2038472083172 ,15,2631288095151
7.0159443 ,Left ,59,4424442956834 ,47,2121250674768 ,15,2699270681027
7.0369536 ,Left ,59,4793653445128 ,47,2285234267331 ,15,2757892982154
7.0540247 ,Left ,59,4867777105129 ,47,2421850908745 ,15,2584761163226
7.0759297 ,Left ,59,422867786399 ,47,2716633088794 ,15,233229531783
7.0972257 ,Left ,59,3931307479739 ,47,3255336474952 ,15,2217383114566
7.1135663 ,Left ,59,3784411122997 ,47,3639272161494 ,15,2055486934792
7.1361373 ,Left ,59,3962897597683 ,47,363770202204 ,15,1647349402292
7.1647829 ,Left ,59,3643460664063 ,47,3368447197488 ,15,1347274963401
7.1729636 ,Left ,59,2332862582296 ,47,3319083045934 ,15,1222148407782
7.1958057 ,Left ,59,0980976531812 ,47,3309820139022 ,15,1175525346902
7.2185954 ,Left ,59,0631184299268 ,47,322937380794 ,15,1703912040955
7.2329211 ,Left ,59,1937616968771 ,47,3384030275946 ,15,2656553623839
7.2559911 ,Left ,59,2490162019057 ,47,3321954985559 ,15,3034417193205
7.278478 ,Left ,59,3393010677347 ,47,2925458552787 ,15,2835209000642
7.2929187 ,Left ,59,3565030399485 ,47,2185757464017 ,15,2606960959112
7.3164606 ,Left ,59,2920369557435 ,47,2353996026273 ,15,2871238977687
7.3391027 ,Left ,59,2745876593434 ,47,2756830587882 ,15,3089569179409
7.3533712 ,Left ,59,327625151845 ,47,3064076742461 ,15,2809491331791
7.3761469 ,Left ,59,3480586521059 ,47,3186750223128 ,15,2858520361408
7.3986183 ,Left ,59,267982196945 ,47,268260048789 ,15,3347350640757
7.4130533 ,Left ,59,3377373106611 ,47,2308238909287 ,15,3997872045642
7.4360789 ,Left ,59,4054395552328 ,47,2320385731241 ,15,4207384055181
7.458529 ,Left ,59,4531386416595 ,47,2693890271157 ,15,4022173532873
7.4727836 ,Left ,59,5031658262524 ,47,2856115215381 ,15,4018180643704
7.4960892 ,Left ,59,5075659223874 ,47,2943913699676 ,15,4025507013383
7.5183156 ,Left ,59,5420101679572 ,47,2982700916517 ,15,3958473046983
7.5326742 ,Left ,59,5759651321907 ,47,3003283145719 ,15,4028130962144
7.5561191 ,Left ,59,5826444365524 ,47,3108080871101 ,15,4135543341836
7.5786599 ,Left ,59,5836460125743 ,47,3200398593468 ,15,4319601034416
7.5927438 ,Left ,59,5970044513899 ,47,3203510254523 ,15,4490260385715
7.6157676 ,Left ,59,6202154797132 ,47,3125066053731 ,15,4678075924667
7.6385899 ,Left ,59,6271871220661 ,47,2988392716077 ,15,4883674078769
7.652942 ,Left ,59,6316507418756 ,47,2859480710805 ,15,5119920784055
7.6759636 ,Left ,59,6265562658578 ,47,2734239191016 ,15,5298402985916
7.6985422 ,Left ,59,6178980088006 ,47,2719866716024 ,15,5473490420228
7.7197957 ,Left ,59,620890908277 ,47,2747516351988 ,15,5672533330087
7.7361395 ,Left ,59,6417533207552 ,47,2808273798889 ,15,5818990283656
7.7585671 ,Left ,59,6590552306319 ,47,285867092343 ,15,5927708085902
7.7797783 ,Left ,59,6590552306319 ,47,285867092343 ,15,5927708085902
7.7961283 ,Left ,59,6590552306319 ,47,285867092343 ,15,5927708085902
7.8187143 ,Left ,59,6613433743575 ,47,2845212466195 ,15,5992997230048
7.8396167 ,Left ,59,6728179364807 ,47,2837794287708 ,15,6032196487066
7.8561042 ,Left ,59,680935382505 ,47,2808373674144 ,15,605193382364
7.8786299 ,Left ,59,6823386140259 ,47,2826024951522 ,15,6033324281178
7.8997763 ,Left ,59,678690243007 ,47,2834373362291 ,15,6134994169944
7.9161223 ,Left ,59,6716528517075 ,47,2773327625373 ,15,6297780791938
7.9386201 ,Left ,59,6727879342418 ,47,2669223702182 ,15,6433036077979
7.9597062 ,Left ,59,6841499114764 ,47,2558995888425 ,15,6576825712475
7.9761699 ,Left ,59,686825657525 ,47,2535161036307 ,15,6725204318161
7.9990339 ,Left ,59,6961386650478 ,47,2517487312054 ,15,6822270165883
8.0194415 ,Left ,59,7004033058352 ,47,2464594091366 ,15,6844362863836
8.0358449 ,Left ,59,6969491051403 ,47,2387578590743 ,15,6849163488887
8.0660978 ,Left ,59,682891504993 ,47,2439239983427 ,15,6866230842571
8.0796639 ,Left ,59,6813640110818 ,47,2449909211006 ,15,6853425941145
8.0961115 ,Left ,59,6943003691876 ,47,2484941149247 ,15,6815683164138
8.118469 ,Left ,59,7028665332787 ,47,2426704715063 ,15,6779416445227
8.1411496 ,Left ,59,6930898619819 ,47,2381938444019 ,15,673755929181
8.1559313 ,Left ,59,6786725973211 ,47,2382698090155 ,15,67045611997
8.1786975 ,Left ,59,6786725973211 ,47,2382698090155 ,15,67045611997
8.2008797 ,Left ,59,6812260020231 ,47,2399900112811 ,15,66153963165
8.2160924 ,Left ,59,6755769815994 ,47,2391550147963 ,15,6530899454353
8.238426 ,Left ,59,6600587728879 ,47,234417203339 ,15,6395384482406
8.2613034 ,Left ,59,620430456162 ,47,2099910359515 ,15,6217421857265
8.2756745 ,Left ,59,557696348438 ,47,20293937562 ,15,6172604484296
8.2984334 ,Left ,59,572598737874 ,47,2203226931807 ,15,635548937912
8.3211932 ,Left ,59,5794520977129 ,47,2345347065593 ,15,6551857597449
8.3436004 ,Left ,59,5877500335658 ,47,2499819264091 ,15,6637575519142
8.3585136 ,Left ,59,5438348017232 ,47,2661112088038 ,15,6542965592375
8.3811723 ,Left ,59,5509020731939 ,47,2638318549699 ,15,6436262518824
8.3955132 ,Left ,59,6198136628163 ,47,2643060480375 ,15,6176557536264
8.4186586 ,Left ,59,6541425816453 ,47,2544177717722 ,15,5860185700546
8.4414628 ,Left ,59,6010935769622 ,47,2315604798162 ,15,565156512887
8.4558154 ,Left ,59,5671721864472 ,47,2260914231923 ,15,5558435698283
8.4788874 ,Left ,59,569545211385 ,47,2120613639793 ,15,5598699262903
8.5011528 ,Left ,59,5935238648674 ,47,1951821974039 ,15,5574106611932
8.5155769 ,Left ,59,646589966484 ,47,1904402641166 ,15,5461194666586
8.5389848 ,Left ,59,6325376280426 ,47,1735513474308 ,15,5386585495946
8.5611348 ,Left ,59,5980560325478 ,47,1654355738894 ,15,5374481316544
8.5753429 ,Left ,59,5746238700849 ,47,1650029093246 ,15,5432896948357
8.5986203 ,Left ,59,5747270774466 ,47,1644097542115 ,15,5442044543983
8.621189 ,Left ,59,5954120187329 ,47,1690482584613 ,15,5374210902991
8.6421051 ,Left ,59,6106035504347 ,47,1821063097632 ,15,5287504842232
8.6586765 ,Left ,59,5872541293168 ,47,1850875954839 ,15,5116313934734
8.6810912 ,Left ,59,5694425262146 ,47,1834391010158 ,15,5054260123634
8.7021834 ,Left ,59,5520497179936 ,47,1863047032722 ,15,5051423888466
8.7184626 ,Left ,59,54999894293 ,47,1963359346116 ,15,506089495748
8.7409125 ,Left ,59,5763004426067 ,47,2066124404305 ,15,4997532870275
8.7619953 ,Left ,59,5894299314476 ,47,1930883533634 ,15,4853074046677
8.7861787 ,Left ,59,5651685343843 ,47,1621474628552 ,15,4691893284382
8.8010235 ,Left ,59,52912343057 ,47,1341307650159 ,15,4556702374848
8.822252 ,Left ,59,4749423216859 ,47,132776497096 ,15,4671795912343
8.8386678 ,Left ,59,4424450432096 ,47,1371583867507 ,15,4731265479381
8.8611456 ,Left ,59,4689055316551 ,47,1240450868272 ,15,44275408531
8.8819133 ,Left ,59,489393748022 ,47,0808025074108 ,15,4503747023091
8.8992231 ,Left ,59,4758223002709 ,47,0429539505274 ,15,4627030111979
8.9211849 ,Left ,59,4370201335944 ,47,0620203201541 ,15,4684026706577
8.9419298 ,Left ,59,4120901410125 ,47,0986846968148 ,15,4805363989109
8.9583725 ,Left ,59,439576041683 ,47,1066432968781 ,15,4795042699319
8.9808931 ,Left ,59,5327036266601 ,47,0976386796789 ,15,4698209272004
9.0019928 ,Left ,59,4628945380025 ,47,122313358083 ,15,4703447779613
9.0184537 ,Left ,59,3857242776316 ,47,2006269982027 ,15,4713761962042
9.0408993 ,Left ,59,3186816798578 ,47,226681881473 ,15,4886824856465
9.0620068 ,Left ,59,3538714114025 ,47,2523450411666 ,15,5292226584648
9.078628 ,Left ,59,3906007159806 ,47,2760290309124 ,15,5552315632838
9.1009315 ,Left ,59,3894480494463 ,47,3111552513594 ,15,5473047721553
9.1236619 ,Left ,59,3771366909528 ,47,3209253629584 ,15,5314079556066
9.1386619 ,Left ,59,4196677162707 ,47,318158767847 ,15,5244401210853
9.1609515 ,Left ,59,4189395621961 ,47,3018370635905 ,15,5077272105359
9.1895637 ,Left ,59,4126387514441 ,47,296701610461 ,15,4858217004252
9.1983437 ,Left ,59,4140521466056 ,47,2879716742091 ,15,4690882091517
9.2211397 ,Left ,59,419815928562 ,47,279496502359 ,15,4521540767314
9.2437593 ,Left ,59,4443621949448 ,47,2738161105961 ,15,4427892629471
9.2585409 ,Left ,59,4679192970334 ,47,2670920633163 ,15,4321411753838
9.2810767 ,Left ,59,4670885581047 ,47,2610374359336 ,15,4237035426213
9.303377 ,Left ,59,4579032030953 ,47,2535277792729 ,15,413842021609
9.3178242 ,Left ,59,454977310249 ,47,2459425098272 ,15,4019493509331
9.341153 ,Left ,59,4623840024687 ,47,2303780579017 ,15,3896395172447
9.363573 ,Left ,59,4699115829754 ,47,2288293640302 ,15,3757752383902
9.3779744 ,Left ,59,4593271416366 ,47,2363524956925 ,15,3630759070812
9.4012683 ,Left ,59,4507860338429 ,47,2437629295982 ,15,3550942775678
9.4236898 ,Left ,59,4703957755306 ,47,2474496230488 ,15,3471227625163
9.4379228 ,Left ,59,4787665116395 ,47,2420594115386 ,15,3360693303756
9.4611438 ,Left ,59,4851269313862 ,47,237587569867 ,15,3259029582586
9.4836635 ,Left ,59,4811216947385 ,47,2440992716301 ,15,3195864525063
9.4980582 ,Left ,59,4712948234748 ,47,2491518365235 ,15,3143796076967
9.521081 ,Left ,59,4806158724739 ,47,2547386676709 ,15,310228091557
9.5436122 ,Left ,59,4977536819363 ,47,2523567169586 ,15,3031140449498
9.5580107 ,Left ,59,5002685728898 ,47,2400286549638 ,15,2956422511007
9.5811602 ,Left ,59,493533481237 ,47,2361164102953 ,15,2908025806973
9.6035125 ,Left ,59,4799531733397 ,47,2327091757032 ,15,2892461380209
9.624818 ,Left ,59,4779346467822 ,47,2336217651364 ,15,2901388792363
9.6411123 ,Left ,59,494324491422 ,47,2383464958906 ,15,2901982141338
9.6636868 ,Left ,59,494324491422 ,47,2383464958906 ,15,2901982141338
9.684953 ,Left ,59,494324491422 ,47,2383464958906 ,15,2901982141338
9.7011321 ,Left ,59,4934326855514 ,47,2367040342582 ,15,2898615144385
9.72368 ,Left ,59,4931653825904 ,47,2439237575824 ,15,2948757054744
9.7449372 ,Left ,59,5043967746469 ,47,2530233179469 ,15,2979514340956
9.7610816 ,Left ,59,5043967746469 ,47,2530233179469 ,15,2979514340956
9.783641 ,Left ,59,5002349176563 ,47,2546269681012 ,15,2931796039749
9.805012 ,Left ,59,4904551271146 ,47,2535943424418 ,15,2913996066515
9.8211644 ,Left ,59,4904551271146 ,47,2535943424418 ,15,2913996066515
9.8437411 ,Left ,59,5013609155075 ,47,252072645719 ,15,2919503652873
9.864956 ,Left ,59,517483015277 ,47,251667601935 ,15,2869957809203
9.8810938 ,Left ,59,517483015277 ,47,251667601935 ,15,2869957809203
9.9033162 ,Left ,59,511434594482 ,47,2505753590068 ,15,2806096108186
9.9246994 ,Left ,59,5047348376941 ,47,243640984238 ,15,2723150983547
9.9410766 ,Left ,59,5144088277632 ,47,2321138205189 ,15,2574844012292
9.9636434 ,Left ,59,5307577145824 ,47,2212756246582 ,15,2374519450869
9.9848662 ,Left ,59,5353368814394 ,47,2009820483642 ,15,2099158636603
9.9916988 ,Left ,59,5309548951657 ,47,1911898313053 ,15,1865941414637
10.0064929 ,Left ,59,5015674690627 ,47,1963201564915 ,15,165334108175
10.0288629 ,Left ,59,4887540359213 ,47,207265769921 ,15,133451629028
10.0516727 ,Left ,59,4690973408415 ,47,2036056182902 ,15,0836859124467
10.0663271 ,Left ,59,4415071417555 ,47,2074447271786 ,15,088122034469
10.091628 ,Left ,59,465836653648 ,47,1873154538411 ,15,0832384472653
10.1116254 ,Left ,59,4758166024214 ,47,1917017448577 ,15,0617907527677
10.1263321 ,Left ,59,4047055063804 ,47,2133505983789 ,15,0236968893408
10.1487627 ,Left ,59,3599983957133 ,47,2399318651482 ,14,9957877940243
10.1716167 ,Left ,59,4168162243579 ,47,2543722733128 ,14,9780870103864
10.186305 ,Left ,59,4174997809853 ,47,2530667708217 ,14,9607854715691
10.2166649 ,Left ,59,3747121880647 ,47,2433242626031 ,14,9426321266327
10.2317536 ,Left ,59,3178291921626 ,47,2246490946263 ,14,919914202526
10.24626 ,Left ,59,2505805331844 ,47,2148997987265 ,14,920187632876
10.2689639 ,Left ,59,2183815358452 ,47,1935176291162 ,14,9401356769835
10.2915562 ,Left ,59,2748939061896 ,47,2036634265314 ,14,9887555392186
10.306328 ,Left ,59,2833923605152 ,47,2097383833028 ,15,0371930146865
10.3290822 ,Left ,59,2965857251641 ,47,1925341702506 ,15,0470306704237
10.3517109 ,Left ,59,3575587776172 ,47,1534757325041 ,15,0664987963893
10.3664258 ,Left ,59,3277911956818 ,47,1237012993411 ,15,0880518660576
10.3890626 ,Left ,59,352585678788 ,47,1418673839331 ,15,1147717890338
10.4116672 ,Left ,59,3878035018724 ,47,1669312684988 ,15,1451573137448
10.4280055 ,Left ,59,3807903919067 ,47,1990555109747 ,15,1478718773402
10.4492794 ,Left ,59,3556035252458 ,47,2052757797086 ,15,1754864238292
10.4716663 ,Left ,59,3608624599741 ,47,1863932392647 ,15,2554972242138
10.4863945 ,Left ,59,4275028600175 ,47,1862597727281 ,15,3092403936081
10.5088608 ,Left ,59,4784562202617 ,47,2122198398933 ,15,3110256121537
10.5316708 ,Left ,59,513370678171 ,47,2317263860649 ,15,3052661941852
10.5480245 ,Left ,59,5180104029294 ,47,2456490291276 ,15,3110261031539
10.5693115 ,Left ,59,5400612443162 ,47,2615076716851 ,15,3090511607846
10.5919239 ,Left ,59,5726564340784 ,47,2751155413508 ,15,3107227951967
10.6081154 ,Left ,59,5922034881034 ,47,2947619363213 ,15,315266532406
10.6288079 ,Left ,59,6095314226968 ,47,3079054980207 ,15,3281576713843
10.6593767 ,Left ,59,6152165878235 ,47,3035269633536 ,15,3457099003317
10.6679343 ,Left ,59,6190286252979 ,47,2865691864675 ,15,355989347951
10.6890977 ,Left ,59,6094768786328 ,47,2705688975352 ,15,3641339616929
10.7116613 ,Left ,59,6060551231627 ,47,2611250561901 ,15,3761662939744
10.7294461 ,Left ,59,6097936195114 ,47,2532646556744 ,15,3864733625154
10.7489732 ,Left ,59,6199015297901 ,47,2447518486691 ,15,3956442614849
10.7730193 ,Left ,59,6277389311409 ,47,2405543759545 ,15,401673006061
10.7880211 ,Left ,59,6328172783008 ,47,2405478751868 ,15,4067426992781
10.8087859 ,Left ,59,6315820112845 ,47,2466988382137 ,15,4104929582316
10.8316659 ,Left ,59,631633062382 ,47,2552088154405 ,15,4114735871277
10.8483313 ,Left ,59,6423489793979 ,47,2578240735824 ,15,4135506587984
10.8696378 ,Left ,59,6424287750571 ,47,252505011424 ,15,4225446370674
10.8917693 ,Left ,59,6404832141521 ,47,251105713554 ,15,4358739735602
10.9080182 ,Left ,59,6466566977901 ,47,2468091029767 ,15,4511857819253
10.9292669 ,Left ,59,6624066201497 ,47,2438766889428 ,15,4607549650353
10.9517811 ,Left ,59,6765608169691 ,47,2463527552576 ,15,4771626845526
10.9694352 ,Left ,59,6715634195403 ,47,2569236426794 ,15,4936082848559
10.9892631 ,Left ,59,673443572177 ,47,2669583548091 ,15,5067258701401
11.011715 ,Left ,59,6840621097199 ,47,2683852106989 ,15,5193407518475
11.0368491 ,Left ,59,6923544230281 ,47,2686316828844 ,15,5312578939882
11.0519279 ,Left ,59,7011189984213 ,47,2660109564575 ,15,5375744334131
11.0717611 ,Left ,59,7062513761063 ,47,2586154488569 ,15,5310899649653
11.0894538 ,Left ,59,7032762137818 ,47,2420497809309 ,15,5191539098253
11.1091028 ,Left ,59,7132627556033 ,47,2221749640758 ,15,5011257129236
11.13297 ,Left ,59,6893216245374 ,47,1958323582755 ,15,4909350224987
11.1494003 ,Left ,59,6344371240692 ,47,1714284412328 ,15,4833972070897
11.1688162 ,Left ,59,6018857378516 ,47,1415031784494 ,15,4702468319028
11.191558 ,Left ,59,602959424025 ,47,087357735854 ,15,4807059662082
11.2093149 ,Left ,59,5894456828592 ,47,0673169821313 ,15,5005626827646
11.2289223 ,Left ,59,5647608885313 ,47,1014677038762 ,15,4998735370062
11.2515439 ,Left ,59,5917914380619 ,47,1430230212971 ,15,4816074977296
11.2693515 ,Left ,59,6440219319759 ,47,1551750332693 ,15,4765787446455
11.2890678 ,Left ,59,7026653180274 ,47,1445037912304 ,15,4545648471804
11.3112649 ,Left ,59,6892520412788 ,47,1294520877279 ,15,4333899701907
11.329786 ,Left ,59,6235240254161 ,47,1181379492 ,15,4196531346093
11.3491887 ,Left ,59,5982796760201 ,47,1359815799871 ,15,4020003340629
11.37152 ,Left ,59,5966429402107 ,47,1484339109266 ,15,3883641759526
11.3894657 ,Left ,59,5738592099298 ,47,1522118999735 ,15,3746237990244
11.4103404 ,Left ,59,5100455338227 ,47,1631442710379 ,15,3838566257437
11.4316398 ,Left ,59,4790834417657 ,47,1479624793818 ,15,3844596385644
11.4495215 ,Left ,59,4952795776706 ,47,1438023960378 ,15,4099870280684
11.4693436 ,Left ,59,529075868257 ,47,1494759440212 ,15,4193403029175
11.4917367 ,Left ,59,5099744275581 ,47,1360772774823 ,15,4092782095985
11.5094241 ,Left ,59,5155478171156 ,47,1331950978133 ,15,4087362419184
11.5287857 ,Left ,59,4369726913508 ,47,1577711573985 ,15,4086015828012
11.5515527 ,Left ,59,3971922865386 ,47,22999759914 ,15,4202402345018
11.5693147 ,Left ,59,3559685658533 ,47,2694260938588 ,15,443417978191
11.5902581 ,Left ,59,4017434481709 ,47,2767977462353 ,15,5082932967704
11.6113756 ,Left ,59,4327344943709 ,47,2703449351293 ,15,5307918990878
11.6297252 ,Left ,59,4192703267488 ,47,2697510289537 ,15,5071697139294
11.6508066 ,Left ,59,3845479830426 ,47,2572379098393 ,15,4734202712271
11.6719649 ,Left ,59,3864803981059 ,47,2455745152145 ,15,4510889434983
11.6895706 ,Left ,59,385805036102 ,47,2275809262659 ,15,4128167895406
11.7104728 ,Left ,59,3908615504972 ,47,2061230122363 ,15,374922232773
11.7317443 ,Left ,59,3831394789606 ,47,1972899637066 ,15,3597699372137
11.7496529 ,Left ,59,4142615395175 ,47,2028186998995 ,15,3270837395389
11.7704951 ,Left ,59,4519631075584 ,47,1988943621196 ,15,2998013966268
11.7917946 ,Left ,59,4781699602088 ,47,188453995037 ,15,2825134917407
11.8141951 ,Left ,59,4868472636373 ,47,1882107974989 ,15,2764382041547
11.8304994 ,Left ,59,4796770075146 ,47,1803299464845 ,15,2646911260429
11.8516284 ,Left ,59,4697529302779 ,47,1672762120393 ,15,2453605556958
11.8737961 ,Left ,59,463747101148 ,47,1568214029652 ,15,2323661193814
11.8903664 ,Left ,59,4842180710381 ,47,1449631899916 ,15,2161076737328
11.9115862 ,Left ,59,5084713836712 ,47,1300046178903 ,15,2020691654061
11.9338339 ,Left ,59,5148892199083 ,47,1200564899033 ,15,1942938446479
11.9518431 ,Left ,59,4985128101509 ,47,1152807338451 ,15,1942768684705
11.9714361 ,Left ,59,4965802125992 ,47,1155991177112 ,15,1961285510124
11.9937746 ,Left ,59,5046839280475 ,47,1127820852036 ,15,19813826635
12.0118174 ,Left ,59,5240637928108 ,47,1185185264267 ,15,2041559014124
12.0316373 ,Left ,59,5275204611312 ,47,1289324602933 ,15,2146248943992
12.0539884 ,Left ,59,5241584071679 ,47,1445223504085 ,15,2203127368976
12.0719495 ,Left ,59,5112291515148 ,47,1609484586791 ,15,2192303535783
12.091786 ,Left ,59,5087507289249 ,47,1664215014117 ,15,2141974788034
12.1142025 ,Left ,59,5075725350799 ,47,1657299195274 ,15,2053942297771
12.1319001 ,Left ,59,5097590749888 ,47,1612117325217 ,15,2019657168875
12.1589033 ,Left ,59,5173428811157 ,47,1542121162618 ,15,1904848604846
12.1740782 ,Left ,59,5207173637444 ,47,1386245520659 ,15,1847981314549
12.1922276 ,Left ,59,5161859584076 ,47,124664913432 ,15,1789956099558
12.2115055 ,Left ,59,5156181788165 ,47,1103007254537 ,15,1760477208456
12.236778 ,Left ,59,5277391728051 ,47,0977452715152 ,15,1742687507182
12.251741 ,Left ,59,537303816263 ,47,0936784102217 ,15,1709527984869
12.2714192 ,Left ,59,5474778720307 ,47,0954593059571 ,15,1695717762067
12.2939359 ,Left ,59,5619251882572 ,47,0973244500378 ,15,1613620641137
12.3119155 ,Left ,59,5655010176074 ,47,0921603571721 ,15,1516353618879
12.331501 ,Left ,59,5561311947436 ,47,0885569089144 ,15,1367270229287
12.3540682 ,Left ,59,5449258982531 ,47,082243817805 ,15,1201623855919
12.3717558 ,Left ,59,5380913586068 ,47,0762355245248 ,15,103318951762
12.3917405 ,Left ,59,5312496529313 ,47,0647135648901 ,15,0889375213698
12.4141817 ,Left ,59,5044519649919 ,47,0555241921153 ,15,0651511029917
12.4364606 ,Left ,59,4731150792062 ,47,0389674952241 ,15,0310880450385
12.4516651 ,Left ,59,4257056055285 ,47,0324831160576 ,14,9848363725063
12.4740321 ,Left ,59,3931499253269 ,47,0446623049587 ,14,9747626129714
12.4917204 ,Left ,59,4271174658614 ,47,0652684397006 ,14,9872451276627
12.5191764 ,Left ,59,4583100977422 ,47,0809641148352 ,14,9845473221152
12.5341951 ,Left ,59,4293544181146 ,47,1013841462417 ,14,9641959321044
12.5518738 ,Left ,59,3547947795505 ,47,1361481465926 ,14,9444017989364
12.5728883 ,Left ,59,3628634764 ,47,1739872230217 ,14,9267194348503
12.6017369 ,Left ,59,3801420051683 ,47,2019202508036 ,14,9180338892405
12.6118726 ,Left ,59,3815497193137 ,47,2168314149211 ,14,8985312103608
12.6329517 ,Left ,59,3515634819244 ,47,2192910016563 ,14,8775406622391
12.6541774 ,Left ,59,2493879642569 ,47,2186402881862 ,14,878388358431
12.6718503 ,Left ,59,1865817723637 ,47,2009825301138 ,14,8945647665999
12.6927837 ,Left ,59,2265575777881 ,47,218806699813 ,14,9532183658965
12.7152695 ,Left ,59,2791381719615 ,47,2191803421655 ,15,0096451752161
12.7318022 ,Left ,59,3326188998608 ,47,1888346297729 ,15,0290676010124
12.7529943 ,Left ,59,3835699137063 ,47,1251647976044 ,15,0437047170348
12.7741892 ,Left ,59,3388327103662 ,47,0700288761306 ,15,056367002829
12.7981804 ,Left ,59,3422721990479 ,47,044255700665 ,15,08594806598
12.8129331 ,Left ,59,416742508485 ,47,0629193645487 ,15,1262017696987
12.8339899 ,Left ,59,4264195922237 ,47,1148403471189 ,15,1310723788015
12.8518314 ,Left ,59,3927330002845 ,47,1321670937915 ,15,1266539762795
12.8803765 ,Left ,59,4190635507711 ,47,0939690186462 ,15,1766453195893
12.8940624 ,Left ,59,493483523546 ,47,0774190533909 ,15,2261898499298
12.9119415 ,Left ,59,5233115373435 ,47,1087447457351 ,15,2263148921424
12.9342821 ,Left ,59,5335489818442 ,47,1463140157041 ,15,2070359620008
12.9538726 ,Left ,59,539703452656 ,47,1554055485686 ,15,2049984506588
12.971794 ,Left ,59,5504360519809 ,47,1682987454678 ,15,1965262486752
12.9948184 ,Left ,59,5889416872506 ,47,1821826831924 ,15,1819851568
13.0147036 ,Left ,59,6181328076298 ,47,190448575277 ,15,1716175007848
13.0321767 ,Left ,59,6304433072652 ,47,2055455461577 ,15,1744687546179
13.0544196 ,Left ,59,6425279782927 ,47,2225259556735 ,15,1914260849873
13.077098 ,Left ,59,6600732753599 ,47,2262191715281 ,15,2117994873201
13.0917186 ,Left ,59,6680968992976 ,47,2161509406807 ,15,2278004822014
13.1141303 ,Left ,59,6607637140374 ,47,2048971418597 ,15,2391341247639
13.133856 ,Left ,59,6496089103425 ,47,1997846517194 ,15,2517124830993
13.156437 ,Left ,59,6466064493196 ,47,1965433383435 ,15,2582095300131
13.1745646 ,Left ,59,6677533002896 ,47,1975651740969 ,15,2629176241287
13.1939745 ,Left ,59,6862190934315 ,47,201376118673 ,15,2620043895775
13.2118093 ,Left ,59,6981691247577 ,47,2101850409111 ,15,270397945855
13.2345979 ,Left ,59,7039880385241 ,47,2239253329652 ,15,2793833237175
13.2538579 ,Left ,59,7104835275088 ,47,2357672772714 ,15,2948818200601
13.2723072 ,Left ,59,7193417615252 ,47,2448901640648 ,15,3122773316344
13.2943816 ,Left ,59,7166268901583 ,47,2505086732644 ,15,3328608257398
13.3141037 ,Left ,59,7107169084373 ,47,25030969909 ,15,3489673113549
13.3318729 ,Left ,59,7023432862812 ,47,2410177350296 ,15,3624568087329
13.3547041 ,Left ,59,6957306212575 ,47,2264971830696 ,15,3756157347759
13.3740818 ,Left ,59,6922144951237 ,47,2029950164664 ,15,3890481736681
13.391945 ,Left ,59,6917615620204 ,47,1773999416315 ,15,4049860709186
13.4145739 ,Left ,59,6911376309311 ,47,1423241451244 ,15,4077252970347
13.4355147 ,Left ,59,6501832343572 ,47,1013470094893 ,15,4195303783044
13.4522046 ,Left ,59,6053712201519 ,47,0733472498367 ,15,4451351128829
13.4747017 ,Left ,59,575151134409 ,47,0443469153292 ,15,4656495686595
13.495168 ,Left ,59,6362016715945 ,47,0132444827733 ,15,4837308235063
13.5118546 ,Left ,59,6777838677429 ,47,0204653396119 ,15,4888793570445
13.5344655 ,Left ,59,6054624247482 ,47,0618949863639 ,15,4969754112962
13.5547419 ,Left ,59,5972988970895 ,47,0968315195773 ,15,5266980848099
13.5719081 ,Left ,59,6600480545314 ,47,1078308689058 ,15,5400211657546
13.5946394 ,Left ,59,7389594966346 ,47,1113199457508 ,15,5291283815896
13.6153808 ,Left ,59,709499286449 ,47,1415398159987 ,15,5285356816084
13.6373366 ,Left ,59,5981739505136 ,47,1855593110464 ,15,5326241202578
13.6537812 ,Left ,59,5359553145153 ,47,2402689436621 ,15,5121632928858
13.6750348 ,Left ,59,5250226302454 ,47,247516311029 ,15,4762466267277
13.7004414 ,Left ,59,5221261308817 ,47,2031977078289 ,15,4906793193837
13.7140083 ,Left ,59,5246054611892 ,47,1470946868391 ,15,5299563247066
13.7352772 ,Left ,59,5013283530943 ,47,1369600035979 ,15,5366518876369
13.7515041 ,Left ,59,4671512310196 ,47,1384518435269 ,15,51557433754
13.7736113 ,Left ,59,5260351667154 ,47,1536194911 ,15,5098354517491
13.7948138 ,Left ,59,4741223261586 ,47,1847389869226 ,15,5083546926463
13.8110961 ,Left ,59,4238454604215 ,47,2583469236567 ,15,493949089886
13.8334899 ,Left ,59,4171978198555 ,47,2638000815396 ,15,495658448116
13.8561395 ,Left ,59,4408650479223 ,47,2340624052936 ,15,5362630772367
13.8705361 ,Left ,59,4523855087161 ,47,2007913957557 ,15,5492570664553
13.9011291 ,Left ,59,4157067062008 ,47,1939756896041 ,15,5084090614257
13.9159282 ,Left ,59,4086648052289 ,47,1965512876058 ,15,4597478461263
13.9302732 ,Left ,59,3990268527018 ,47,1889155746718 ,15,4190689190477
13.9536138 ,Left ,59,4323645329964 ,47,1876751342118 ,15,3624191275611
13.9761806 ,Left ,59,4360317499727 ,47,1896175758619 ,15,3056841064468
13.9905882 ,Left ,59,4193395402503 ,47,2056682655374 ,15,2525028975521
14.013699 ,Left ,59,3690456851851 ,47,2206354012712 ,15,2212637549939
14.0363048 ,Left ,59,3439924469877 ,47,2507643418023 ,15,2196324269078
14.0506315 ,Left ,59,3730297323285 ,47,2359096996293 ,15,2441943572579
14.0737307 ,Left ,59,4153612380608 ,47,1642885442877 ,15,2607809300192
14.1037106 ,Left ,59,444269486689 ,47,0820401230763 ,15,2563513788434
14.1106937 ,Left ,59,3724566708215 ,47,0345212277722 ,15,2378576276824
14.1337801 ,Left ,59,29725592914 ,47,0308587455862 ,15,2144137248373
14.1562415 ,Left ,59,3348579935665 ,47,0344939567384 ,15,1985500869637
14.1706519 ,Left ,59,436533680599 ,47,0203598578738 ,15,1787217371252
14.1937388 ,Left ,59,487618494504 ,47,0083707649474 ,15,1606094590145
14.2164486 ,Left ,59,4612827887409 ,47,0089289068083 ,15,1479470064934
14.2305697 ,Left ,59,3953480551554 ,47,0450725268976 ,15,1451755819566
14.2536685 ,Left ,59,3247849833374 ,47,0689189435315 ,15,1334585063671
14.2759707 ,Left ,59,3267352748692 ,47,11090075759 ,15,1335874702568
14.2902988 ,Left ,59,369113682727 ,47,0988513349161 ,15,1294627337772
14.3136124 ,Left ,59,371242650746 ,47,0940603008412 ,15,1194626121232
14.3361388 ,Left ,59,3147897879674 ,47,090100952265 ,15,0999779750308
14.3569678 ,Left ,59,2695417339325 ,47,1007608977867 ,15,0809524637259
14.3809402 ,Left ,59,3354639092015 ,47,1100394684518 ,15,0564312482822
14.3961838 ,Left ,59,3886860379071 ,47,1213911858159 ,15,0397305678528
14.4174386 ,Left ,59,3448360092686 ,47,1307416809333 ,15,0154079109264
14.4334327 ,Left ,59,2771517202308 ,47,1467556898677 ,14,9941877089936
14.4562142 ,Left ,59,2572978407429 ,47,1617416515873 ,14,960241690438
14.4773056 ,Left ,59,2756837954102 ,47,1718928802521 ,14,9149619206709
14.4935695 ,Left ,59,2357393600866 ,47,1745304381104 ,14,8825444126664
14.5159641 ,Left ,59,1267243933153 ,47,1833892301191 ,14,88641714444
14.5444564 ,Left ,59,1017421205848 ,47,1719886592023 ,14,9131679716941
14.553616 ,Left ,59,1408217061539 ,47,1895085660876 ,14,95323437711
14.5761836 ,Left ,59,183313494151 ,47,1985837462806 ,15,0068934412028
14.5972519 ,Left ,59,2640984180166 ,47,1587811489222 ,15,0181420994451
14.6137476 ,Left ,59,3346690881648 ,47,0814321716359 ,15,0096935774301
14.6433893 ,Left ,59,3051605169001 ,47,0498623244036 ,15,0095364220508
14.6590501 ,Left ,59,2818592200299 ,47,0688608049563 ,15,0424860563035
14.6740488 ,Left ,59,314198348528 ,47,0855602714621 ,15,0552556946751
14.6965498 ,Left ,59,3305520139232 ,47,1013968064945 ,15,0502930358603
14.7173581 ,Left ,59,3429654019788 ,47,0926200325846 ,15,0490150864276
14.7336429 ,Left ,59,3637151695826 ,47,1040966534872 ,15,0765461389308
14.7561376 ,Left ,59,3462007749341 ,47,1303656168385 ,15,0982767761202
14.7786931 ,Left ,59,3771476718008 ,47,1543068298769 ,15,1128547623613
14.7936979 ,Left ,59,4373358448413 ,47,1491187595572 ,15,1135472650999
14.8161865 ,Left ,59,4305958074873 ,47,1349984448718 ,15,1193003556726
14.8386657 ,Left ,59,3908016983086 ,47,1324877060282 ,15,1285028601618
14.853702 ,Left ,59,4349137738981 ,47,1363684672016 ,15,1416825436967
14.8762361 ,Left ,59,4927732994089 ,47,1369896526275 ,15,1607524092938
14.8984357 ,Left ,59,511955608662 ,47,1441092269958 ,15,1818665202874
14.9128766 ,Left ,59,5326000642146 ,47,1485010342818 ,15,2157900692345
14.9365735 ,Left ,59,5551727045959 ,47,1470165959358 ,15,2502921254283
14.9584272 ,Left ,59,5612149397925 ,47,1443542330351 ,15,2872717716465
14.9729115 ,Left ,59,5780031901601 ,47,1490283786429 ,15,3182061912647
14.9962368 ,Left ,59,602380760434 ,47,1474636895206 ,15,3432405016975
15.0186299 ,Left ,59,6260011021215 ,47,1444140081381 ,15,374444581126
15.0327928 ,Left ,59,6419863591583 ,47,1473184747379 ,15,4049230684775
15.0562447 ,Left ,59,6440320379617 ,47,1516538460993 ,15,4345615481526
15.0787028 ,Left ,59,6565334496107 ,47,1534738044744 ,15,4611878430881
15.0999341 ,Left ,59,670642974099 ,47,1559555052678 ,15,4775699555529
15.1161271 ,Left ,59,6656263875682 ,47,157426538221 ,15,4939803984514
15.1386504 ,Left ,59,6560516895596 ,47,1598420974987 ,15,5087822563284
15.1527915 ,Left ,59,6438524299305 ,47,1529851680846 ,15,5144454733541
15.1763456 ,Left ,59,6444804132147 ,47,1503000898164 ,15,5153768970463
15.2147888 ,Left ,59,6408146858656 ,47,1558727227852 ,15,5175327009792
15.2196073 ,Left ,59,6115225334906 ,47,144111155231 ,15,5188803726137
15.2359702 ,Left ,59,5906906296285 ,47,1148328727013 ,15,5056310628917
15.2584977 ,Left ,59,5701909861342 ,47,0951602617788 ,15,5222787672501
15.2795424 ,Left ,59,5530501528429 ,47,0847265873602 ,15,5204053672319
15.2962117 ,Left ,59,5370093493511 ,47,0785508260236 ,15,5297452242682
15.3186069 ,Left ,59,5128476131728 ,47,1051224575001 ,15,5314141449593
15.3395744 ,Left ,59,5199897973969 ,47,1692601835853 ,15,5318174311498
15.3561484 ,Left ,59,4674100744527 ,47,2135973402743 ,15,5340409194976
15.3784962 ,Left ,59,4301972826057 ,47,2703412044236 ,15,5282492275174
15.3995882 ,Left ,59,4319271821629 ,47,2970880485728 ,15,5198341861866
15.4160756 ,Left ,59,4428830776827 ,47,3175234293401 ,15,5293759623508
15.4386967 ,Left ,59,4408020902948 ,47,3295032011214 ,15,5441857170104
15.4597408 ,Left ,59,4360820225784 ,47,3086942788408 ,15,559010679826
15.4762378 ,Left ,59,4849236683441 ,47,2906129523502 ,15,5533557471552
15.4986553 ,Left ,59,4861113275568 ,47,2662376975023 ,15,5496714581577
15.5197086 ,Left ,59,4250107844596 ,47,299603346001 ,15,5370515903164
15.5361805 ,Left ,59,3946349856764 ,47,3563310989914 ,15,5267502015473
15.5584879 ,Left ,59,3566096139367 ,47,383258396049 ,15,5146295952233
15.5796429 ,Left ,59,3862380286446 ,47,3999290221557 ,15,5448431964848
15.5962615 ,Left ,59,4172517478781 ,47,4102560048214 ,15,5525166484337
15.6186233 ,Left ,59,4152904531047 ,47,4249630931325 ,15,5452125934188
15.6400879 ,Left ,59,3983287906364 ,47,4191062621483 ,15,51622337318
15.6563382 ,Left ,59,4104568354367 ,47,4073929834978 ,15,4853118326958
15.6787115 ,Left ,59,3812675100506 ,47,3731944280068 ,15,4520358872944
15.701263 ,Left ,59,3764637133804 ,47,3465491505998 ,15,4109606308852
15.71586 ,Left ,59,3598933798263 ,47,3333129970375 ,15,376928124742
15.7392438 ,Left ,59,3704654811019 ,47,3482701099139 ,15,3228944674757
15.7687553 ,Left ,59,3715183896831 ,47,3480480174967 ,15,2495204797418
15.7762192 ,Left ,59,3575534542723 ,47,3437530059151 ,15,1846598727001
15.7983608 ,Left ,59,3039207405418 ,47,3461317723649 ,15,1617261473725
15.8208715 ,Left ,59,2630936423718 ,47,362958919285 ,15,1565526552554
15.8361345 ,Left ,59,2966164362016 ,47,3905262941369 ,15,1762523254257
15.8585255 ,Left ,59,289964104731 ,47,4005479463385 ,15,1697047987717
15.8811682 ,Left ,59,2483696814228 ,47,3872410420036 ,15,1417546593725
15.8956655 ,Left ,59,2397022601635 ,47,355384727893 ,15,1087667780111
15.9187505 ,Left ,59,2290524288155 ,47,3228454890032 ,15,0882253278153
15.9412598 ,Left ,59,193231182887 ,47,3184186996804 ,15,0707201358001
15.9555645 ,Left ,59,2320952310139 ,47,308429147219 ,15,0399605784777
15.9787802 ,Left ,59,2359032849559 ,47,2333210209796 ,15,0221985709982
16.0011878 ,Left ,59,1807696864234 ,47,1762531874047 ,14,9974282678327
16.0155566 ,Left ,59,14757495469 ,47,164509155864 ,15,0043563617566
16.0387923 ,Left ,59,1234877817117 ,47,1910880504962 ,15,0365854525575
16.061181 ,Left ,59,1848361545482 ,47,2143775411615 ,15,0585169319238
16.0823479 ,Left ,59,3048561007195 ,47,1994327282363 ,15,0868803982405
16.0987675 ,Left ,59,3613504985232 ,47,17126543521 ,15,0939893685604
16.1212576 ,Left ,59,3450724437354 ,47,1458029242197 ,15,0753075280515
16.1421522 ,Left ,59,3106861291007 ,47,1346777213164 ,15,055274951181
16.1586062 ,Left ,59,3235356784577 ,47,1472112205118 ,15,0590344654857
16.1812008 ,Left ,59,3488654392819 ,47,1731778757619 ,15,068523579141
16.2022886 ,Left ,59,3836271646241 ,47,2083183128695 ,15,0904776596627
16.2185962 ,Left ,59,4065075801463 ,47,2435299933535 ,15,103965544437
16.2411906 ,Left ,59,4165655171171 ,47,2555110520148 ,15,1252791934673
16.2624269 ,Left ,59,4032398459771 ,47,235479783276 ,15,1453164025154
16.2786787 ,Left ,59,4085433067622 ,47,2066293006061 ,15,162029415405
16.3009421 ,Left ,59,4045060620881 ,47,1688647663154 ,15,172836501378
16.321966 ,Left ,59,3987122151061 ,47,1418111021124 ,15,181419533769
16.3386823 ,Left ,59,4089504684758 ,47,1289910405763 ,15,1825479309582
16.3616989 ,Left ,59,4315379011083 ,47,1282701146449 ,15,1830012321707
16.3819882 ,Left ,59,4556339448995 ,47,1342127243092 ,15,1800844343273
16.3986933 ,Left ,59,47674290386 ,47,1259925474155 ,15,1782471875918
16.4213174 ,Left ,59,4932464413297 ,47,1216694056153 ,15,1782202369661
16.4423498 ,Left ,59,4932464413297 ,47,1216694056153 ,15,1782202369661
16.4587597 ,Left ,59,4899968888631 ,47,1281534352182 ,15,1838495888747
16.4811668 ,Left ,59,4966527607197 ,47,1406154363081 ,15,1896970740987
16.5025909 ,Left ,59,4904463436973 ,47,1516276966515 ,15,1868268794206
16.5191236 ,Left ,59,4904463436973 ,47,1516276966515 ,15,1868268794206
16.5414432 ,Left ,59,4890426981047 ,47,1583837568349 ,15,1896445116412
16.5622893 ,Left ,59,4971130265215 ,47,1640875716023 ,15,1926697320526
16.5787694 ,Left ,59,4962301968396 ,47,1624419399354 ,15,1923284392838
16.6013431 ,Left ,59,4991991257646 ,47,1579115351039 ,15,2008194491154
16.6221698 ,Left ,59,4884693729728 ,47,1450288698383 ,15,2093008442416
16.6387315 ,Left ,59,4807802251536 ,47,1377914983861 ,15,2156944740852
16.6689505 ,Left ,59,4702235143036 ,47,1353195288315 ,15,2201643187563
16.6836414 ,Left ,59,4706577372135 ,47,1415207741164 ,15,2145683810884
16.6987711 ,Left ,59,4756686759685 ,47,1523380671371 ,15,2081458941914
16.7211643 ,Left ,59,4765518794648 ,47,1539836463587 ,15,2084862926589
16.7436614 ,Left ,59,4765518794648 ,47,1539836463587 ,15,2084862926589
16.7586007 ,Left ,59,4723436157655 ,47,1594160326869 ,15,2128053605042
16.7809437 ,Left ,59,4635551732666 ,47,1594086825689 ,15,2123314313862
16.8036537 ,Left ,59,4541846403647 ,47,1598743896574 ,15,213068875089
16.8247507 ,Left ,59,4541846403647 ,47,1598743896574 ,15,213068875089
16.8413499 ,Left ,59,4541846403647 ,47,1598743896574 ,15,213068875089
16.8633749 ,Left ,59,4541846403647 ,47,1598743896574 ,15,213068875089
16.8778059 ,Left ,59,4479769449191 ,47,156872734791 ,15,2116762459561
16.9012421 ,Left ,59,4369377999726 ,47,1534574162202 ,15,2126824684196
16.9235499 ,Left ,59,4369377999726 ,47,1534574162202 ,15,2126824684196
16.937828 ,Left ,59,4369377999726 ,47,1534574162202 ,15,2126824684196
16.9612377 ,Left ,59,4319129356557 ,47,1533896941374 ,15,207564016252
16.9838046 ,Left ,59,4248005037368 ,47,1572596504779 ,15,2068090579427
16.9977795 ,Left ,59,4227791372128 ,47,1581699981916 ,15,2077016384553
17.0209045 ,Left ,59,4248005037368 ,47,1572596504779 ,15,2068090579427
17.0437142 ,Left ,59,4256834176253 ,47,1589062222287 ,15,2071478425985
17.0580015 ,Left ,59,4174579597596 ,47,1568115221878 ,15,2066451199786
17.0813695 ,Left ,59,407935352436 ,47,1608912251311 ,15,209890292234
17.1037669 ,Left ,59,407935352436 ,47,1608912251311 ,15,209890292234
17.1245621 ,Left ,59,407935352436 ,47,1608912251311 ,15,209890292234
17.1467802 ,Left ,59,407935352436 ,47,1608912251311 ,15,209890292234
17.1635271 ,Left ,59,4008924901283 ,47,1617276746815 ,15,2056569128693
17.1845186 ,Left ,59,4008924901283 ,47,1617276746815 ,15,2056569128693
17.2009239 ,Left ,59,4008924901283 ,47,1617276746815 ,15,2056569128693
17.2240167 ,Left ,59,4013788526252 ,47,1618414177132 ,15,203492670223
17.2451915 ,Left ,59,4013788526252 ,47,1618414177132 ,15,203492670223
17.261559 ,Left ,59,3993586598436 ,47,1627515976718 ,15,204383120195
17.2836873 ,Left ,59,3993586598436 ,47,1627515976718 ,15,204383120195
17.3048255 ,Left ,59,3993586598436 ,47,1627515976718 ,15,204383120195
17.3210953 ,Left ,59,3973386153165 ,47,1636617682516 ,15,2052734594386
17.3434799 ,Left ,59,3973386153165 ,47,1636617682516 ,15,2052734594386
17.364562 ,Left ,59,3993586598436 ,47,1627515976718 ,15,204383120195
17.3811611 ,Left ,59,3900000022255 ,47,1632116241646 ,15,2051033760963
17.4035902 ,Left ,59,3900000022255 ,47,1632116241646 ,15,2051033760963
17.4244011 ,Left ,59,396361555601 ,47,1626000221528 ,15,2039844460531
17.4411762 ,Left ,59,3983816450984 ,47,1616899611227 ,15,2030939975241
17.4636928 ,Left ,59,3983816450984 ,47,1616899611227 ,15,2030939975241
17.4845042 ,Left ,59,396361555601 ,47,1626000221528 ,15,2039844460531
17.5008795 ,Left ,59,3954790790595 ,47,1609529168697 ,15,2036464207707
17.5241412 ,Left ,59,3954790790595 ,47,1609529168697 ,15,2036464207707
17.5450473 ,Left ,59,3955733739266 ,47,1603675665671 ,15,2045975434317
17.5611792 ,Left ,59,396059651281 ,47,1604810703668 ,15,2024333006835
17.5836818 ,Left ,59,396059651281 ,47,1604810703668 ,15,2024333006835
17.6060963 ,Left ,59,3955733739266 ,47,1603675665671 ,15,2045975434317
17.621131 ,Left ,59,3914683836474 ,47,1652223142599 ,15,2098451710846
17.6434298 ,Left ,59,381069729557 ,47,1676564556133 ,15,2127404326394
17.6661652 ,Left ,59,3843072294449 ,47,1729619843248 ,15,2181545869124
17.6811576 ,Left ,59,3843072294449 ,47,1729619843248 ,15,2181545869124
17.7117298 ,Left ,59,3822886683764 ,47,173872652282 ,15,2190435408854
17.7265471 ,Left ,59,3843072294449 ,47,1729619843248 ,15,2181545869124
17.7408884 ,Left ,59,3760409170629 ,47,1653803915035 ,15,2201477376921
17.7637375 ,Left ,59,3703313207805 ,47,1633244013782 ,15,2222020893138
17.7935336 ,Left ,59,3683131154196 ,47,1642355299546 ,15,2230910691205
17.8005615 ,Left ,59,3683131154196 ,47,1642355299546 ,15,2230910691205
17.823547 ,Left ,59,3802248625007 ,47,1692965686323 ,15,2224353878523
17.8461183 ,Left ,59,3831272777997 ,47,170032459023 ,15,2218829404132
17.8746822 ,Left ,59,372098576109 ,47,166618492823 ,15,2228752551149
17.8836 ,Left ,59,372098576109 ,47,166618492823 ,15,2228752551149
17.9060742 ,Left ,59,372098576109 ,47,166618492823 ,15,2228752551149
17.9205978 ,Left ,59,3700804449766 ,47,1675295874542 ,15,2237640751
17.9434929 ,Left ,59,3700804449766 ,47,1675295874542 ,15,2237640751
17.9660671 ,Left ,59,3631358164163 ,47,167778745262 ,15,2204731184289
17.9886921 ,Left ,59,3696335792238 ,47,1720656437175 ,15,217806529467
18.0036396 ,Left ,59,3696335792238 ,47,1720656437175 ,15,217806529467
18.0260933 ,Left ,59,3696335792238 ,47,1720656437175 ,15,217806529467
18.0405551 ,Left ,59,3663339776524 ,47,1697953555177 ,15,2158550926648
18.0697065 ,Left ,59,3663339776524 ,47,1697953555177 ,15,2158550926648
18.0861728 ,Left ,59,3738719702213 ,47,1721093766752 ,15,2110131861495
18.1073544 ,Left ,59,3843120894069 ,47,1751627994116 ,15,2056186839515
18.1233022 ,Left ,59,3863310637114 ,47,1742528675426 ,15,2047301193994
18.153532 ,Left ,59,3768315324697 ,47,1689730785342 ,15,2013792430599
18.1672792 ,Left ,59,3768315324697 ,47,1689730785342 ,15,2013792430599
18.1835287 ,Left ,59,3739301458863 ,47,1682354925939 ,15,2019301397116
18.206139 ,Left ,59,3792474347416 ,47,1695971663791 ,15,2029928913079
18.2272282 ,Left ,59,3783648331202 ,47,1679497095222 ,15,2026555302169
18.2435643 ,Left ,59,3783648331202 ,47,1679497095222 ,15,2026555302169
18.2662615 ,Left ,59,3783648331202 ,47,1679497095222 ,15,2026555302169
18.2887658 ,Left ,59,3754633686527 ,47,1672122355359 ,15,2032067188474
18.3035494 ,Left ,59,3754633686527 ,47,1672122355359 ,15,2032067188474
18.3260777 ,Left ,59,3754633686527 ,47,1672122355359 ,15,2032067188474
18.3473538 ,Left ,59,3745809273177 ,47,1655647342736 ,15,2028693972602
18.3634065 ,Left ,59,3746749991427 ,47,1649806193913 ,15,2038207759203
18.3861692 ,Left ,59,3746749991427 ,47,1649806193913 ,15,2038207759203
18.4072549 ,Left ,59,3746749991427 ,47,1649806193913 ,15,2038207759203
18.4237265 ,Left ,59,3801524868791 ,47,1627214753715 ,15,2023676758154
18.4460662 ,Left ,59,382171869371 ,47,161811415593 ,15,2014784406354
18.4672315 ,Left ,59,3812896478092 ,47,160163934119 ,15,2011407877506
18.4835276 ,Left ,59,3812896478092 ,47,160163934119 ,15,2011407877506
18.5060543 ,Left ,59,3812896478092 ,47,160163934119 ,15,2011407877506
18.5285944 ,Left ,59,386211078917 ,47,159991267894 ,15,1996996374299
18.5437569 ,Left ,59,3866072697729 ,47,1615254912612 ,15,2022017487915
18.5662733 ,Left ,59,3857249962171 ,47,1598781249436 ,15,2018639649932
18.5888182 ,Left ,59,374929288291 ,47,1607753120214 ,15,2022574055942
18.6036404 ,Left ,59,374929288291 ,47,1607753120214 ,15,2022574055942
18.6264429 ,Left ,59,374929288291 ,47,1607753120214 ,15,2022574055942
18.6488665 ,Left ,59,374929288291 ,47,1607753120214 ,15,2022574055942
18.6637932 ,Left ,59,3720279825874 ,47,1600378986524 ,15,2028088609248
18.686233 ,Left ,59,3729102228115 ,47,1616855029693 ,15,2031461861403
18.7087977 ,Left ,59,3663195002099 ,47,1579791332154 ,15,2048633016221
18.7232697 ,Left ,59,3663195002099 ,47,1579791332154 ,15,2048633016221
18.7462579 ,Left ,59,3663195002099 ,47,1579791332154 ,15,2048633016221
18.7686827 ,Left ,59,3663195002099 ,47,1579791332154 ,15,2048633016221
18.7827481 ,Left ,59,3663195002099 ,47,1579791332154 ,15,2048633016221
18.8062065 ,Left ,59,3668051885216 ,47,1580916761238 ,15,2026981476769
18.828581 ,Left ,59,364786402666 ,47,1590020152482 ,15,2035865533132
18.8432501 ,Left ,59,364786402666 ,47,1590020152482 ,15,2035865533132
18.8661364 ,Left ,59,364786402666 ,47,1590020152482 ,15,2035865533132
18.8886399 ,Left ,59,3552958427445 ,47,1545584350163 ,15,205855038546
18.9030441 ,Left ,59,3557813744881 ,47,1546705002923 ,15,2036894595191
18.92605 ,Left ,59,3557813744881 ,47,1546705002923 ,15,2036894595191
18.948696 ,Left ,59,3537629790018 ,47,1555809952504 ,15,2045774585863
18.9629065 ,Left ,59,3528810331484 ,47,153933035857 ,15,2042406481514
18.9861052 ,Left ,59,3548994658492 ,47,15302252386 ,15,2033525691238
19.0086331 ,Left ,59,3448041973343 ,47,1567335604054 ,15,2021714598695
19.0296151 ,Left ,59,3448041973343 ,47,1567335604054 ,15,2021714598695
19.0462511 ,Left ,59,3448041973343 ,47,1567335604054 ,15,2021714598695
19.0687453 ,Left ,59,3459404938092 ,47,154175001993 ,15,2009475353802
19.0896334 ,Left ,59,3459404938092 ,47,154175001993 ,15,2009475353802
19.1062023 ,Left ,59,3459404938092 ,47,154175001993 ,15,2009475353802
19.1360081 ,Left ,59,3459404938092 ,47,154175001993 ,15,2009475353802
19.1495981 ,Left ,59,3430408000006 ,47,153437171902 ,15,201498228897
19.1661008 ,Left ,59,34505888145 ,47,1525267752792 ,15,2006108298706
19.1886045 ,Left ,59,34505888145 ,47,1525267752792 ,15,2006108298706
19.2097637 ,Left ,59,3431337042944 ,47,1528543022433 ,15,2024500818357
19.2262968 ,Left ,59,3431337042944 ,47,1528543022433 ,15,2024500818357
19.2484171 ,Left ,59,3431337042944 ,47,1528543022433 ,15,2024500818357
19.2695901 ,Left ,59,34111577845 ,47,1537648159801 ,15,2033373400041
19.2862176 ,Left ,59,3402340948679 ,47,1521165815857 ,15,2030008312006
19.3085381 ,Left ,59,3345280324748 ,47,1500585950509 ,15,2050541891623
19.3312691 ,Left ,59,3345280324748 ,47,1500585950509 ,15,2050541891623
19.3462348 ,Left ,59,3345280324748 ,47,1500585950509 ,15,2050541891623
19.368209 ,Left ,59,3345280324748 ,47,1500585950509 ,15,2050541891623
19.3897705 ,Left ,59,3350132056288 ,47,1501698225128 ,15,2028882005793
19.4061795 ,Left ,59,3350132056288 ,47,1501698225128 ,15,2028882005793
19.4286994 ,Left ,59,3329955587613 ,47,1510804845344 ,15,2037750829032
19.449424 ,Left ,59,3321139904606 ,47,1494320793406 ,15,2034388017403
19.4661888 ,Left ,59,3321139904606 ,47,1494320793406 ,15,2034388017403
19.4886445 ,Left ,59,3300964544969 ,47,1503427490024 ,15,2043256523011
19.5115129 ,Left ,59,3300964544969 ,47,1503427490024 ,15,2043256523011
19.5264404 ,Left ,59,3293074080528 ,47,1481120314316 ,15,2049411941696
19.5488165 ,Left ,59,3272899904487 ,47,1490228352772 ,15,2058279835485
19.571345 ,Left ,59,3324646716923 ,47,145485855595 ,15,2084510992631
19.5862918 ,Left ,59,3340432359173 ,47,1383972468279 ,15,2131895945164
19.6089746 ,Left ,59,3274995694067 ,47,1286262993264 ,15,2183670301078
19.6312101 ,Left ,59,3232766242151 ,47,1200652898982 ,15,2242090241302
19.6521087 ,Left ,59,3263837941371 ,47,1119533657196 ,15,2302210474352
19.6687203 ,Left ,59,3311135439861 ,47,1013880046047 ,15,2328325854881
19.6912427 ,Left ,59,3314595949859 ,47,0974408091903 ,15,2378394284421
19.7059248 ,Left ,59,3339147319754 ,47,0919952737719 ,15,2429010764688
19.7290403 ,Left ,59,3343503403364 ,47,0874628932916 ,15,2488539352117
19.7513127 ,Left ,59,3314493784484 ,47,086729923981 ,15,2494115737781
19.7655357 ,Left ,59,3396659614632 ,47,0888197986022 ,15,2499083274705
19.7888122 ,Left ,59,3388744946991 ,47,0865878637241 ,15,2505193944138
19.8186244 ,Left ,59,3388744946991 ,47,0865878637241 ,15,2505193944138
19.8254337 ,Left ,59,3388744946991 ,47,0865878637241 ,15,2505193944138
19.8487338 ,Left ,59,3368553803339 ,47,0875024478908 ,15,2514134201128
19.8717543 ,Left ,59,3368553803339 ,47,0875024478908 ,15,2514134201128
19.8859317 ,Left ,59,3376468775953 ,47,0897342384482 ,15,2508023034349
19.9087338 ,Left ,59,3373257286172 ,47,08515579157 ,15,2448345575571
19.9318936 ,Left ,59,3418377941707 ,47,0809814815851 ,15,2364646821037
19.9455549 ,Left ,59,3418377941707 ,47,0809814815851 ,15,2364646821037
19.9689919 ,Left ,59,3419280695682 ,47,0803964372629 ,15,2374132742175
19.9913576 ,Left ,59,3399081972773 ,47,0813104843495 ,15,2383076026792
20.0124559 ,Left ,59,3432544621734 ,47,0882255220533 ,15,2321350701392
20.0287858 ,Left ,59,3404018282752 ,47,0929785342929 ,15,2301923390411
20.0513638 ,Left ,59,3336935986702 ,47,0975424575235 ,15,2263094438708
20.0725594 ,Left ,59,3244812467502 ,47,1029092713581 ,15,2254813316809
20.0964551 ,Left ,59,3244812467502 ,47,1029092713581 ,15,2254813316809
20.1118449 ,Left ,59,3193983806678 ,47,1067132254285 ,15,2294391309273
20.1327884 ,Left ,59,3193983806678 ,47,1067132254285 ,15,2294391309273
20.1489818 ,Left ,59,3173803973577 ,47,1076262700943 ,15,2303295462305
20.1712658 ,Left ,59,3193983806678 ,47,1067132254285 ,15,2294391309273
20.1923398 ,Left ,59,3193983806678 ,47,1067132254285 ,15,2294391309273
20.2091703 ,Left ,59,3193983806678 ,47,1067132254285 ,15,2294391309273
20.2313488 ,Left ,59,3173803973577 ,47,1076262700943 ,15,2303295462305
20.2523771 ,Left ,59,3173803973577 ,47,1076262700943 ,15,2303295462305
20.2688314 ,Left ,59,3173803973577 ,47,1076262700943 ,15,2303295462305
20.2992836 ,Left ,59,3193983806678 ,47,1067132254285 ,15,2294391309273
20.3123287 ,Left ,59,3193983806678 ,47,1067132254285 ,15,2294391309273
20.3286754 ,Left ,59,3193983806678 ,47,1067132254285 ,15,2294391309273
20.3510186 ,Left ,59,3193983806678 ,47,1067132254285 ,15,2294391309273
20.3720865 ,Left ,59,3193983806678 ,47,1067132254285 ,15,2294391309273
20.3884382 ,Left ,59,3173803973577 ,47,1076262700943 ,15,2303295462305
20.411229 ,Left ,59,3178662548187 ,47,1077352609179 ,15,2281609664825
20.4335011 ,Left ,59,3178662548187 ,47,1077352609179 ,15,2281609664825
20.4487006 ,Left ,59,3178662548187 ,47,1077352609179 ,15,2281609664825
20.4712757 ,Left ,59,3178662548187 ,47,1077352609179 ,15,2281609664825
20.4937343 ,Left ,59,3158483587041 ,47,1086482948097 ,15,2290510181549
20.5088478 ,Left ,59,3158483587041 ,47,1086482948097 ,15,2290510181549
20.5313828 ,Left ,59,3167298742147 ,47,1102965058037 ,15,2293867597595
20.5539485 ,Left ,59,3158483587041 ,47,1086482948097 ,15,2290510181549
20.5762382 ,Left ,59,3158483587041 ,47,1086482948097 ,15,2290510181549
20.5973856 ,Left ,59,3158483587041 ,47,1086482948097 ,15,2290510181549
20.6137807 ,Left ,59,3158483587041 ,47,1086482948097 ,15,2290510181549
20.6347972 ,Left ,59,3158483587041 ,47,1086482948097 ,15,2290510181549
20.6516226 ,Left ,59,3158483587041 ,47,1086482948097 ,15,2290510181549
20.6734916 ,Left ,59,3158483587041 ,47,1086482948097 ,15,2290510181549
20.6877805 ,Left ,59,3158483587041 ,47,1086482948097 ,15,2290510181549
20.7111349 ,Left ,59,3158483587041 ,47,1086482948097 ,15,2290510181549
20.7338872 ,Left ,59,3149669406622 ,47,1070000524605 ,15,2287152564505
20.7480177 ,Left ,59,3130399135196 ,47,10733040272 ,15,2305547594219
20.7713084 ,Left ,59,3130399135196 ,47,10733040272 ,15,2305547594219
20.7937198 ,Left ,59,3144993120056 ,47,1093523840962 ,15,2352930339306
20.8148024 ,Left ,59,3106485955116 ,47,1108614548285 ,15,2445931466114
20.8386781 ,Left ,59,3045680872305 ,47,1105830798515 ,15,2541716551182
20.8537089 ,Left ,59,299136673161 ,47,1076366386962 ,15,264693440103
20.8682603 ,Left ,59,2973425692505 ,47,1021708870027 ,15,2765505183453
20.891259 ,Left ,59,2902367207571 ,47,0962011239745 ,15,2929714317572
20.9137325 ,Left ,59,2770176461645 ,47,0951892015833 ,15,3098792896352
20.9351377 ,Left ,59,2654867998925 ,47,0980623935077 ,15,326499198796
20.9511915 ,Left ,59,2592813093069 ,47,1022896510779 ,15,3441692128091
20.9737032 ,Left ,59,2523800079389 ,47,1037173392379 ,15,3633734951518
20.9949965 ,Left ,59,2469228868441 ,47,1047001045469 ,15,3829216982443
21.0111716 ,Left ,59,2443745766245 ,47,1064090358228 ,15,4018995085368
21.0411705 ,Left ,59,2453693904859 ,47,1061622351473 ,15,4212726853494
21.054748 ,Left ,59,2548169660167 ,47,1037477230216 ,15,4395835752624
21.0715403 ,Left ,59,2636408656038 ,47,1039987505408 ,15,4569106238643
21.0940427 ,Left ,59,2665695266346 ,47,1033856489045 ,15,4744335595243
21.1149773 ,Left ,59,2679783674952 ,47,1038061997182 ,15,490652383036
21.1312015 ,Left ,59,2737294155469 ,47,10447681006 ,15,5066693266478
21.1608994 ,Left ,59,2901233097645 ,47,1069281950839 ,15,5191475894825
21.1746139 ,Left ,59,3084419833823 ,47,1090164956399 ,15,5297957258074
21.191148 ,Left ,59,3125930340905 ,47,111280040379 ,15,5435750555051
21.2136564 ,Left ,59,3062812804614 ,47,1067247998038 ,15,5537038632497
21.2345967 ,Left ,59,3158540225985 ,47,1058326038364 ,15,5604207279893
21.2511899 ,Left ,59,3306719996918 ,47,1068177564493 ,15,5672625951281
21.2737229 ,Left ,59,3485943599703 ,47,1134075377283 ,15,5719620254032
21.27896 ,Left ,59,3654197341804 ,47,1225572197827 ,15,5778864434233
21.3045728 ,Left ,59,3760920839838 ,47,1372940969596 ,15,5833511083827
21.3167282 ,Left ,59,3875288676985 ,47,1495680115762 ,15,5963301270299
21.3395174 ,Left ,59,4052923451249 ,47,1603262376526 ,15,6025753483844
21.3620102 ,Left ,59,422158485496 ,47,1694398195495 ,15,6084928581649
21.3770319 ,Left ,59,4421322755214 ,47,1811285072413 ,15,6089021403981
21.3995504 ,Left ,59,451124192509 ,47,1889501448666 ,15,611246956294
21.430391 ,Left ,59,4530314161057 ,47,1886057673101 ,15,609433001156
21.4365169 ,Left ,59,4572292296963 ,47,1886279308585 ,15,6026961105495
21.4669845 ,Left ,59,4568992143593 ,47,1743971947084 ,15,597694393298
21.4848149 ,Left ,59,4529467498882 ,47,1536245521695 ,15,5913787000113
21.4971477 ,Left ,59,4445666156025 ,47,1301664950657 ,15,5809588815146
21.5192918 ,Left ,59,4020892041803 ,47,108938491207 ,15,5981382384114
21.541794 ,Left ,59,3633519517369 ,47,0815537381482 ,15,6141477972028
21.5567764 ,Left ,59,3767144952013 ,47,060060073745 ,15,6286400990609
21.5788343 ,Left ,59,3681003644705 ,47,0529196905546 ,15,6560607483625
21.6016387 ,Left ,59,3462363916809 ,47,0841315589269 ,15,6869858592409
21.6164695 ,Left ,59,324546639669 ,47,1034455726975 ,15,6982762122986
21.6389383 ,Left ,59,3338458510254 ,47,0959475415826 ,15,6851553863067
21.6614373 ,Left ,59,3800308913907 ,47,0835166275627 ,15,6668287594656
21.6764187 ,Left ,59,339686425291 ,47,0890349334188 ,15,6568008402482
21.6996077 ,Left ,59,2700190525049 ,47,1492090198709 ,15,6607675489585
21.722255 ,Left ,59,2008401518736 ,47,2120962865072 ,15,6750297945581
21.7371954 ,Left ,59,1338402528798 ,47,2153033210002 ,15,6344223352512
21.7591882 ,Left ,59,1679051204595 ,47,1679316372059 ,15,6308128364071
21.7815578 ,Left ,59,2024497037524 ,47,0948983561063 ,15,6625625819092
21.7966888 ,Left ,59,1409232108172 ,47,0953501790687 ,15,6809164640758
21.8189648 ,Left ,59,1024144114778 ,47,1285797724082 ,15,66015949135
21.8417301 ,Left ,59,1749834972588 ,47,1360698048857 ,15,6327899559534
21.8579742 ,Left ,59,2128464337002 ,47,1468318528277 ,15,6265283959587
21.8789975 ,Left ,59,1140144185499 ,47,1869438468429 ,15,5962995390631
21.9012782 ,Left ,59,0226840804588 ,47,2175796777769 ,15,5931211127747
21.9180309 ,Left ,59,0026411975477 ,47,2033917274738 ,15,6147461629181
21.9388545 ,Left ,59,0757024768651 ,47,1739532493793 ,15,6434296816954
21.9622336 ,Left ,59,0992001422758 ,47,1831102416889 ,15,6452513599712
21.9783747 ,Left ,59,099013849669 ,47,2219337844955 ,15,6249672998947
21.9992637 ,Left ,59,1308379732536 ,47,2377559932426 ,15,592823041411
22.0246087 ,Left ,59,1447938854986 ,47,2454668972743 ,15,5409976821796
22.0396432 ,Left ,59,1185259418772 ,47,2650753428428 ,15,4842766576749
22.0591412 ,Left ,59,0687979774322 ,47,279750646098 ,15,4335738736312
22.0814509 ,Left ,59,0381652386783 ,47,285693463102 ,15,3840891335791
22.0980224 ,Left ,59,0334382121025 ,47,2899830807753 ,15,3176239900944
22.1192907 ,Left ,59,0360632091976 ,47,2946886653643 ,15,2512980919784
22.1498859 ,Left ,58,9833519710828 ,47,2942845310815 ,15,1947970408616
22.1580579 ,Left ,58,9376289219719 ,47,2609429552058 ,15,1712617157565
22.179022 ,Left ,58,9682163676925 ,47,2498950177004 ,15,1628237477792
22.2017861 ,Left ,59,0067897819745 ,47,2623973458264 ,15,1238472879063
22.2180713 ,Left ,58,9576095837701 ,47,2685413018033 ,15,0608676873934
22.2392399 ,Left ,58,9530595541332 ,47,2730338920879 ,15,0272172787662
22.2617976 ,Left ,58,9649894714734 ,47,2816502039673 ,15,0023323445157
22.2779855 ,Left ,58,9142857816333 ,47,2893986860655 ,14,9777847358423
22.3016009 ,Left ,58,8628296706943 ,47,2903090263144 ,14,9620261668196
22.3221713 ,Left ,58,8977503609415 ,47,2948288306092 ,14,9333870483733
22.3397416 ,Left ,58,8307546061042 ,47,2682500598984 ,14,9161127972765
22.3595288 ,Left ,58,7938721578704 ,47,1969756085706 ,14,9524950259979
22.3816204 ,Left ,58,8484815779326 ,47,1417628949567 ,15,0622480082123
22.4014606 ,Left ,58,9017556200034 ,47,1165014601921 ,15,1549428570091
22.4192408 ,Left ,58,9693344727038 ,47,0837590309207 ,15,1653960121371
22.4416458 ,Left ,59,0776313354993 ,47,0081536148912 ,15,1570786967883
22.4597223 ,Left ,59,0935320485482 ,47,0151321907109 ,15,1713105493468
22.4790257 ,Left ,59,0076700288362 ,47,0994627806501 ,15,2048117145277
22.5090315 ,Left ,59,004845395003 ,47,1891670815673 ,15,2248560294029
22.5194913 ,Left ,59,0615192325948 ,47,2097246547782 ,15,2616312270386
22.5388309 ,Left ,59,0616543867083 ,47,1265911453378 ,15,2931023787882
22.5621767 ,Left ,59,0828319641076 ,47,0426574976338 ,15,3077416949165
22.5858844 ,Left ,59,0724819217378 ,47,0357110085484 ,15,3040585287417
22.5995704 ,Left ,59,1154425529742 ,47,0679796750252 ,15,2871732887436
22.6217529 ,Left ,59,2091092314922 ,47,0840871788542 ,15,2844947826888
22.6396527 ,Left ,59,2705240738325 ,47,1089878015908 ,15,2793649412065
22.6594965 ,Left ,59,3117145533389 ,47,1397501020247 ,15,2834456530364
22.6817046 ,Left ,59,3409449253611 ,47,1830815718439 ,15,2891221089211
22.6991567 ,Left ,59,3709225327066 ,47,2291953797444 ,15,2932512238721
22.7191114 ,Left ,59,3918863093479 ,47,2509126388556 ,15,3024994863346
22.7415238 ,Left ,59,3971856078125 ,47,2552906637552 ,15,3070005550817
22.7595014 ,Left ,59,3819042501995 ,47,2472095940662 ,15,3228697359733
22.7789099 ,Left ,59,3567738766525 ,47,2356679547001 ,15,342864951337
22.802186 ,Left ,59,34089198511 ,47,224232610293 ,15,3612136355697
22.8199166 ,Left ,59,3524711694648 ,47,211759343759 ,15,3786774513959
22.8397772 ,Left ,59,3879248642847 ,47,2015572555438 ,15,3994899063837
22.8619981 ,Left ,59,40841986415 ,47,1823214561957 ,15,4217445252317
22.879448 ,Left ,59,4313662583526 ,47,1606155396476 ,15,4421369213424
22.8991248 ,Left ,59,4499454137865 ,47,1446966136686 ,15,4592857567669
22.9218041 ,Left ,59,4563622169704 ,47,1357015979234 ,15,4739895648017
22.939695 ,Left ,59,4562417492776 ,47,1293557803019 ,15,493585103916
22.9605408 ,Left ,59,4650853446562 ,47,1209382931916 ,15,5098757908987
22.9816128 ,Left ,59,4781945843481 ,47,1034313453218 ,15,5193484501971
22.9995462 ,Left ,59,4757902711242 ,47,0799249979023 ,15,5257387314141
23.0205245 ,Left ,59,455547507145 ,47,0492442506197 ,15,5283813721858
23.0417994 ,Left ,59,4307958348067 ,47,0332809901652 ,15,5213770196667
23.0591334 ,Left ,59,3608547689775 ,47,0001872338693 ,15,5306852607972
23.0802855 ,Left ,59,332530759114 ,46,9619289191802 ,15,5023961023373
23.1014471 ,Left ,59,3457130655395 ,46,9375476788199 ,15,4993911519914
23.1194702 ,Left ,59,310285514825 ,46,9423570754361 ,15,5284323668462
23.1472873 ,Left ,59,2506336088655 ,46,9854188973746 ,15,5389842137206
23.1621727 ,Left ,59,2455478040067 ,47,0273292128726 ,15,5314002310944
23.1797706 ,Left ,59,2722087206099 ,47,031335766621 ,15,5095114194422
23.2003434 ,Left ,59,3447268795984 ,47,0230847200813 ,15,4713411368721
23.2214607 ,Left ,59,2811177870889 ,47,0363816706903 ,15,4679644398796
23.2522149 ,Left ,59,1772298432555 ,47,0839174972237 ,15,4755221534064
23.262317 ,Left ,59,0579716805948 ,47,1128862472322 ,15,49586339319
23.281875 ,Left ,59,0100136710098 ,47,1188905429736 ,15,5361471806129
23.3041806 ,Left ,59,132527067577 ,47,1681863360436 ,15,5941821236732
23.322099 ,Left ,59,2045152042984 ,47,1847332048755 ,15,5953410055785
23.3415152 ,Left ,59,2395616171788 ,47,1524626675777 ,15,5669360032518
23.3642894 ,Left ,59,2628319465974 ,47,132933186341 ,15,5399127334778
23.3818345 ,Left ,59,1833937821785 ,47,1978748299393 ,15,5381735605704
23.4016061 ,Left ,59,0180151045438 ,47,2071193281851 ,15,5371719349332
23.4269796 ,Left ,59,015004549902 ,47,2096740759852 ,15,507161110313
23.4423459 ,Left ,59,0632753272319 ,47,181350040626 ,15,5062255798126
23.4621352 ,Left ,59,0909540902943 ,47,201210156511 ,15,4897246546759
23.4844288 ,Left ,59,0944126282983 ,47,2132193396034 ,15,4479478207941
23.5021062 ,Left ,59,1032313662994 ,47,1907115207185 ,15,4066560777151
23.5291444 ,Left ,59,1536427142035 ,47,1692071722317 ,15,3489652182342
23.5444197 ,Left ,59,1993378455069 ,47,1578438164447 ,15,2752250044167
23.562315 ,Left ,59,1674956847532 ,47,1374177545688 ,15,2001461051317
23.5819214 ,Left ,59,09278630187 ,47,135702321081 ,15,1291875704573
23.6214909 ,Left ,59,060577423103 ,47,1510714466488 ,15,0877874810737
23.6238966 ,Left ,59,0778091381603 ,47,1574523244579 ,15,0473512980957
23.6416818 ,Left ,59,0867814889503 ,47,1372379327246 ,15,0606632358323
23.6640299 ,Left ,59,0788527603891 ,47,0724785894272 ,15,0711901206391
23.6819632 ,Left ,59,0556240683676 ,47,029406668738 ,15,0751404336012
23.7018684 ,Left ,59,0168425273034 ,47,0033748431403 ,15,0665932057229
23.7242563 ,Left ,59,0211031989522 ,47,0056488043659 ,15,0395640767211
23.741915 ,Left ,59,0754432964104 ,47,0275813100159 ,15,0287118383489
23.7617874 ,Left ,59,105619537798 ,47,0531315377506 ,15,0196608824997
23.7841325 ,Left ,59,0394137040702 ,47,0923815129627 ,15,0203831944372
23.8023889 ,Left ,58,9403448241186 ,47,1078997114143 ,15,0167098086594
23.8244121 ,Left ,58,9285179882807 ,47,1256197174337 ,15,0230601790149
23.8443492 ,Left ,58,9337419318549 ,47,1190265227011 ,15,040388834392
23.8619923 ,Left ,58,915196731687 ,47,1532313544025 ,15,0355373441441
23.882971 ,Left ,58,9128922361204 ,47,1739942105068 ,15,0168985866638
23.904146 ,Left ,58,9202507498174 ,47,1730617377997 ,14,9944382220664
23.9218856 ,Left ,58,9778909134761 ,47,1565226897055 ,14,9726820762781
23.9431801 ,Left ,58,9866659504975 ,47,1522866121648 ,14,9575544030114
23.9642011 ,Left ,58,9798492569398 ,47,163315726213 ,14,9489794941845
23.9818652 ,Left ,58,9783181990539 ,47,1643111958567 ,14,9476807662111
24.0030699 ,Left ,59,0115828542793 ,47,1670015103418 ,14,9409180641253
24.0240061 ,Left ,59,0644796527829 ,47,1624145887913 ,14,938932849788
24.0418148 ,Left ,59,1024575992895 ,47,1417798879821 ,14,9345653676869
24.0628163 ,Left ,59,0996982234316 ,47,1181653141686 ,14,9291976167966
24.0839602 ,Left ,59,0833467295764 ,47,1000339497706 ,14,9221155484408
24.1018407 ,Left ,59,0904290238516 ,47,0816028229907 ,14,9113738617589
24.1229158 ,Left ,59,121161480548 ,47,06013800194 ,14,9000041858451
24.1439238 ,Left ,59,1596231466447 ,47,0462567299722 ,14,8886922603587
24.161915 ,Left ,59,1881220463347 ,47,0354095829149 ,14,8770575246085
24.1829838 ,Left ,59,1969172078165 ,47,0346437059791 ,14,8719220535017
24.204011 ,Left ,59,2115389357722 ,47,0466671854957 ,14,8672261051394
24.2217897 ,Left ,59,2310594040875 ,47,0530864177201 ,14,8636692259786
24.2445259 ,Left ,59,2396695713728 ,47,0562647878149 ,14,8676824723443
24.2640762 ,Left ,59,2379448087938 ,47,0611944889181 ,14,8755721233716
24.2820266 ,Left ,59,2318637894033 ,47,0721330285088 ,14,8867785069156
24.3043885 ,Left ,59,2231201544587 ,47,0857424918052 ,14,8923197484468
24.3239228 ,Left ,59,2190861124724 ,47,0957880121922 ,14,9026293707012
24.3418512 ,Left ,59,2173860423664 ,47,1007220727197 ,14,9104985412092
24.3720195 ,Left ,59,2122477101326 ,47,0990207459701 ,14,9169937823668
24.384031 ,Left ,59,1982709405929 ,47,0977930207566 ,14,9220103841405
24.4018359 ,Left ,59,1842968574241 ,47,0965688954961 ,14,9270223384356
24.4243009 ,Left ,59,1842968574241 ,47,0965688954961 ,14,9270223384356
24.4442315 ,Left ,59,190634346354 ,47,0905412238432 ,14,9284596954952
24.4620547 ,Left ,59,1994723073815 ,47,0900680312924 ,14,9299375687145
24.4846155 ,Left ,59,2003331570655 ,47,0917269673514 ,14,9302795884921
24.5041965 ,Left ,59,1990129455479 ,47,0890865464001 ,14,9264698480439
24.5219575 ,Left ,59,1996895713129 ,47,086430246509 ,14,927397768827
24.5490834 ,Left ,59,2025718073434 ,47,0871910755233 ,14,9268655233248
24.5641122 ,Left ,59,2024887926848 ,47,0877696821453 ,14,9258840763598
24.581792 ,Left ,59,2033492772297 ,47,0894286625056 ,14,9262263922941
24.604538 ,Left ,59,2018120520891 ,47,0904259406785 ,14,924956499689
24.6238341 ,Left ,59,2050124224301 ,47,0924434943638 ,14,9203176633132
24.6464831 ,Left ,59,2052633633339 ,47,0997507169169 ,14,9126781226456
24.6653331 ,Left ,59,2015626668672 ,47,1019185278728 ,14,9047039980834
24.6842079 ,Left ,59,1995409976114 ,47,1028152253667 ,14,9055764029551
24.7019381 ,Left ,59,1995409976114 ,47,1028152253667 ,14,9055764029551
24.7291665 ,Left ,59,2013385974092 ,47,1027702520552 ,14,8961416868453
24.7442275 ,Left ,59,2013385974092 ,47,1027702520552 ,14,8961416868453
24.7619428 ,Left ,59,2013385974092 ,47,1027702520552 ,14,8961416868453
24.7843525 ,Left ,59,1918777388404 ,47,1034056636971 ,14,8892215299306
24.8056049 ,Left ,59,1922923599215 ,47,1067621753801 ,14,8724279610649
24.821992 ,Left ,59,1643559330875 ,47,1529897471805 ,14,8709611367754
24.8445304 ,Left ,59,0669975322452 ,47,1838284303402 ,14,8511688850727
24.8653127 ,Left ,58,9965505795682 ,47,2097371790464 ,14,809149023643
24.8823683 ,Left ,58,9642558539651 ,47,2105782278284 ,14,8034654950219
24.9048452 ,Left ,58,9437871403013 ,47,227860137635 ,14,8167997714087
24.9262683 ,Left ,58,9126918574416 ,47,2783843745939 ,14,8567008721028
24.9411339 ,Left ,58,9695880075283 ,47,29912680782 ,14,900561324247
24.9636519 ,Left ,59,0366154599168 ,47,2684427369811 ,14,9287781348638
24.9846715 ,Left ,59,0311194835593 ,47,1986069913187 ,14,9371887339994
25.0008758 ,Left ,58,9728893062816 ,47,1703116090334 ,14,9657481817807
25.0235886 ,Left ,58,9729651630078 ,47,1926861764804 ,15,0210699506829
25.0448359 ,Left ,58,9685793234389 ,47,2157923379595 ,15,0260157224617
25.0612713 ,Left ,58,9801706759676 ,47,2166255030673 ,15,0260938768284
25.0896678 ,Left ,59,0094822101895 ,47,1824127667863 ,15,0543298514557
25.1062282 ,Left ,59,0107112710957 ,47,1938321168614 ,15,0999191171426
25.1212375 ,Left ,59,0159935792835 ,47,2105929196186 ,15,1219601580049
25.1438091 ,Left ,59,0847713808384 ,47,2157795736993 ,15,1377689539245
25.166209 ,Left ,59,1506370533056 ,47,2054594377588 ,15,1729006304349
25.180983 ,Left ,59,1440884902979 ,47,2009141216444 ,15,2097662668141
25.2034916 ,Left ,59,1932472035166 ,47,1910104801921 ,15,2545323155106
25.226269 ,Left ,59,2649143802267 ,47,1892589874063 ,15,2996969998271
25.2412703 ,Left ,59,2982899538909 ,47,1856647119095 ,15,329323639703
25.2636454 ,Left ,59,3118114617148 ,47,1676662146949 ,15,3540570268041
25.2863096 ,Left ,59,331930559844 ,47,1409093828757 ,15,3670428234823
25.3005681 ,Left ,59,3326470085754 ,47,1145275060264 ,15,3704966385137
25.3237211 ,Left ,59,3320658592855 ,47,0995646677554 ,15,3686025956825
25.3461986 ,Left ,59,3340809953764 ,47,0986443033048 ,15,3677062033846
25.3603843 ,Left ,59,3340809953764 ,47,0986443033048 ,15,3677062033846
25.3839081 ,Left ,59,350001889983 ,47,0993594465044 ,15,3608623689515
25.4060841 ,Left ,59,3706123555715 ,47,1040921923948 ,15,3541131390043
25.4203394 ,Left ,59,3885685474575 ,47,1124253534197 ,15,3473133633956
25.4435615 ,Left ,59,3953233239887 ,47,1124852709593 ,15,3430778720678
25.4663412 ,Left ,59,3954770523243 ,47,1173906531806 ,15,3415314144152
25.4810657 ,Left ,59,3921882815603 ,47,1244900075379 ,15,3461647742503
25.5037052 ,Left ,59,3985488823474 ,47,1216328802764 ,15,3575289409816
25.5262444 ,Left ,59,4071641519153 ,47,113645637688 ,15,3664195275811
25.5405038 ,Left ,59,4035970929815 ,47,1048540713062 ,15,3775585091664
25.5637359 ,Left ,59,3839059236328 ,47,096527777512 ,15,3936887756303
25.5862527 ,Left ,59,3685161406372 ,47,0915225715623 ,15,4130258451292
25.6005347 ,Left ,59,3767918010204 ,47,0861047606184 ,15,4349957395853
25.6239257 ,Left ,59,3940467796376 ,47,0794370331233 ,15,4592882225596
25.6462913 ,Left ,59,3985049804228 ,47,0777106816559 ,15,4780660464045
25.6673008 ,Left ,59,3921475581502 ,47,076152666037 ,15,4916226626473
25.6842071 ,Left ,59,3800462842809 ,47,0786702257177 ,15,5038561561558
25.7067162 ,Left ,59,3708640402937 ,47,0819057735353 ,15,5155057903515
25.7273836 ,Left ,59,3776096651661 ,47,0857898859145 ,15,5203145032235
25.7510649 ,Left ,59,3946254330682 ,47,0907573190665 ,15,5246777728615
25.7659501 ,Left ,59,40603136763 ,47,0900948021942 ,15,5286271582467
25.7873123 ,Left ,59,4022308440772 ,47,0816657769738 ,15,5322580628787
25.803768 ,Left ,59,4098018766364 ,47,0778340625461 ,15,5308183124692
25.8264553 ,Left ,59,4151823423904 ,47,0700227246204 ,15,5318260161392
25.8473039 ,Left ,59,4318617150272 ,47,0613128271894 ,15,5302080451259
25.8698093 ,Left ,59,4496514541145 ,47,0561262960648 ,15,5239577306492
25.8862748 ,Left ,59,4565381231107 ,47,0525452167701 ,15,5172174279549
25.9072192 ,Left ,59,4508155883488 ,47,046696986275 ,15,510253986932
25.923847 ,Left ,59,4441473095256 ,47,0483218971222 ,15,5030008508101
25.9463149 ,Left ,59,435632859521 ,47,055780186341 ,15,495120390006
25.9672443 ,Left ,59,4367765672564 ,47,0678267277952 ,15,4914578733228
25.9895922 ,Left ,59,4399375327121 ,47,0789459298305 ,15,4868835140319
26.0060337 ,Left ,59,4418077827733 ,47,0877213243837 ,15,4850865262582
26.0347771 ,Left ,59,4408596310022 ,47,0951948689606 ,15,4847873441398
26.0438067 ,Left ,59,4348647407585 ,47,1026525737889 ,15,4794168224119
26.0662619 ,Left ,59,4311801661799 ,47,1104748159767 ,15,4691005354748
26.0887524 ,Left ,59,431767790547 ,47,1130598503354 ,15,4610302119079
26.1037839 ,Left ,59,4269450091167 ,47,1088349272532 ,15,4543863967906
26.1261082 ,Left ,59,4130749522832 ,47,1003475666744 ,15,4478685154158
26.1487669 ,Left ,59,3996911423037 ,47,0988721948005 ,15,44139327385
26.1637384 ,Left ,59,3888162281274 ,47,0965802300689 ,15,4318241824269
26.1863633 ,Left ,59,3877177934658 ,47,0952847028693 ,15,4240065056637
26.2089257 ,Left ,59,3836423715052 ,47,087777158904 ,15,4192339385539
26.2231834 ,Left ,59,3794768654449 ,47,0808541253377 ,15,4135301145576
26.2464041 ,Left ,59,3678297319425 ,47,0771467213854 ,15,4101814141351
26.2688938 ,Left ,59,3679230230813 ,47,0765608066342 ,15,4111121584702
26.283289 ,Left ,59,3721293084409 ,47,0804517941322 ,15,4133895305251
26.3125303 ,Left ,59,379176885409 ,47,079568612629 ,15,4175735921011
26.3285461 ,Left ,59,3834790869385 ,47,082871059461 ,15,420780302208
26.3434395 ,Left ,59,3815565503572 ,47,0832080145361 ,15,4226124487632
26.3666821 ,Left ,59,3840731649937 ,47,0832264662254 ,15,4251545405556
26.3890983 ,Left ,59,3811362614187 ,47,0863707932686 ,15,4347786196164
26.4029722 ,Left ,59,3844159066878 ,47,0916489473051 ,15,4401452630929
26.4261735 ,Left ,59,3950133705833 ,47,0887943538097 ,15,4447019849912
26.4487587 ,Left ,59,4073088340964 ,47,0898038189275 ,15,4489898081048
26.462938 ,Left ,59,4064134528401 ,47,0881635376151 ,15,4486580334944
26.4862025 ,Left ,59,4094022696305 ,47,0921449220685 ,15,458060104523
26.5092285 ,Left ,59,4306532512483 ,47,0949321193131 ,15,468096853477
26.5236986 ,Left ,59,4557774761775 ,47,0978442667566 ,15,4800849968811
26.5465499 ,Left ,59,4658123454881 ,47,0885296551669 ,15,4836253983899
26.5686956 ,Left ,59,457420843476 ,47,0763258606887 ,15,4937139366285
26.5911125 ,Left ,59,4496870900394 ,47,0691510149605 ,15,500081365646
26.6061341 ,Left ,59,4544503196975 ,47,0640243088498 ,15,5001246753583
26.6287556 ,Left ,59,4696016219817 ,47,0624651993382 ,15,4938285041101
26.6497906 ,Left ,59,4425244796166 ,47,0522019878987 ,15,4883774586637
26.6723106 ,Left ,59,3559621502884 ,47,0238645806797 ,15,4902224176987
26.6888764 ,Left ,59,3369575400931 ,46,9999439874597 ,15,4982466652107
26.7098825 ,Left ,59,3820598936471 ,46,9966402325957 ,15,5272915185448
26.7262244 ,Left ,59,382297870349 ,46,9747841220155 ,15,5247202318996
26.7489821 ,Left ,59,3925794691175 ,46,9833565277331 ,15,5028095803689
26.7698104 ,Left ,59,3154869734787 ,47,0043879815072 ,15,4932057965138
26.7861323 ,Left ,59,3515236209172 ,47,0241913910492 ,15,4895178410421
26.8088424 ,Left ,59,4857979278685 ,47,0266826146433 ,15,4867096643375
26.8297798 ,Left ,59,5093398508761 ,47,0288299581276 ,15,4693101114768
26.8462324 ,Left ,59,4858101374135 ,47,0450138894127 ,15,4538322877889
26.8686792 ,Left ,59,3956268658655 ,47,0569006647246 ,15,4505400769962
26.8897598 ,Left ,59,2827583202346 ,47,0691870800584 ,15,4561525837527
26.9062656 ,Left ,59,2267665978212 ,47,0838172799839 ,15,4420852781121
26.9284625 ,Left ,59,260683097017 ,47,0564467086911 ,15,4616035686362
26.9496329 ,Left ,59,3002047859785 ,47,0024076846966 ,15,4829410796045
26.9662805 ,Left ,59,2890985216485 ,47,020615475862 ,15,4939638747411
26.9890761 ,Left ,59,2394829400408 ,47,0655859229693 ,15,4953978765058
27.0101869 ,Left ,59,2530002136045 ,47,0780495867055 ,15,4969113089422
27.0338504 ,Left ,59,3591690419608 ,47,0619789443419 ,15,4931651296031
27.0487328 ,Left ,59,3612931661518 ,47,0811476715556 ,15,4873285532664
27.0713099 ,Left ,59,260655567043 ,47,1538678446678 ,15,4887704103743
27.0853213 ,Left ,59,1848246684913 ,47,214001590907 ,15,5007383100801
27.1087557 ,Left ,59,1747745809781 ,47,2414119916706 ,15,5232298825326
27.1312297 ,Left ,59,1874177317182 ,47,2696267113291 ,15,5677881804877
27.1453311 ,Left ,59,1817614546888 ,47,3258803962892 ,15,5716661517642
27.1687751 ,Left ,59,208043468355 ,47,3490809171678 ,15,5743919415428
27.1915151 ,Left ,59,2060972102332 ,47,3312381819369 ,15,576382466912
27.2126022 ,Left ,59,2430989971792 ,47,3133619876777 ,15,5767866025204
27.2293334 ,Left ,59,2225258695117 ,47,2921631280602 ,15,5720313797653
27.2513981 ,Left ,59,1884212209126 ,47,2767324032757 ,15,5655860238366
27.2655759 ,Left ,59,1648454612302 ,47,2636315858919 ,15,5547452882685
27.2889662 ,Left ,59,1708181350213 ,47,2577817062263 ,15,5487642590559
27.3113395 ,Left ,59,2226415670934 ,47,2508158606111 ,15,5388233481742
27.3253029 ,Left ,59,245563688235 ,47,2430261989702 ,15,52491869943
27.3487509 ,Left ,59,2357524962752 ,47,2350958545722 ,15,5107192686131
27.3709062 ,Left ,59,236622877482 ,47,2237411105551 ,15,5020966280858
27.3856522 ,Left ,59,2465424413229 ,47,2135769892114 ,15,4900017210348
27.4086212 ,Left ,59,2578583486236 ,47,2051784708975 ,15,4760196801641
27.4312978 ,Left ,59,2591283991819 ,47,2005696697542 ,15,4608212777802
27.4456887 ,Left ,59,2643474833028 ,47,2053868176042 ,15,4313373776288
27.4689067 ,Left ,59,2659648819888 ,47,2096858777062 ,15,3970836446284
27.4912624 ,Left ,59,2719585120582 ,47,204310996719 ,15,3570119498285
27.5054208 ,Left ,59,2840253419603 ,47,1961963403075 ,15,3142424290174
27.5286323 ,Left ,59,2702857321875 ,47,1849746050216 ,15,2701297265929
27.5512893 ,Left ,59,272491346532 ,47,1808460182475 ,15,2326183818914
27.572326 ,Left ,59,2761330958849 ,47,1817975628817 ,15,2032612325494
27.5887999 ,Left ,59,2730886671659 ,47,1762922199383 ,15,1646073463459
27.6110596 ,Left ,59,2703481726503 ,47,1665611424635 ,15,1243587711919
27.6321342 ,Left ,59,2425045136611 ,47,1706870204354 ,15,0965550479956
27.6488088 ,Left ,59,2134019597576 ,47,18641757159 ,15,0698701482955
27.6711162 ,Left ,59,1014018561951 ,47,1771524974407 ,15,0526752714305
27.6922421 ,Left ,59,0506372591323 ,47,187187168294 ,15,0159276368181
27.7089876 ,Left ,59,0506222127252 ,47,1977740202787 ,15,004171667422
27.7313279 ,Left ,59,0738227189805 ,47,182515400742 ,15,0129659909981
27.7524762 ,Left ,59,074435474309 ,47,1566876508846 ,15,0015020500706
27.7687878 ,Left ,59,0534011003118 ,47,1468273939221 ,14,963303407933
27.7912133 ,Left ,59,089272028287 ,47,1534000573065 ,14,9271366094608
27.8122136 ,Left ,59,1385811799027 ,47,1619015424134 ,14,9118806672248
27.8284915 ,Left ,59,1535654912659 ,47,1717624038551 ,14,8929897012525
27.8512608 ,Left ,59,1485622803075 ,47,1821942476176 ,14,876039746241
27.8722197 ,Left ,59,1275694197673 ,47,1876950093407 ,14,8730839398677
27.8886066 ,Left ,59,1337168525586 ,47,1899044937693 ,14,8689158948
27.9113255 ,Left ,59,1498882865724 ,47,1866112662996 ,14,8605653468198
27.9338496 ,Left ,59,122952222141 ,47,1744379146843 ,14,8587886692083
27.9486835 ,Left ,59,0739677010301 ,47,1642627600479 ,14,8587992047659
27.9713884 ,Left ,59,049474628843 ,47,148995961999 ,14,8419131192216
27.9938808 ,Left ,59,0553464742104 ,47,1391566561352 ,14,8288314823937
28.0088974 ,Left ,59,014057751719 ,47,1352437174473 ,14,8167338409387
28.0310172 ,Left ,58,951037045019 ,47,1488145972837 ,14,8071029090263
28.059622 ,Left ,58,9441806830537 ,47,1505030220306 ,14,840755062317
28.0688102 ,Left ,58,99681830686 ,47,1764516026058 ,14,8962850342164
28.0913906 ,Left ,59,0406313875212 ,47,2000421499555 ,14,9314956101914
28.1138521 ,Left ,59,1164870027978 ,47,2012744698962 ,14,9492428176312
28.1280177 ,Left ,59,1612019193299 ,47,1734907487476 ,14,9624597617155
28.1510185 ,Left ,59,1534127845375 ,47,1424772017724 ,14,9736906903779
28.1741965 ,Left ,59,1360984755196 ,47,1234534629204 ,14,9900022129802
28.1884131 ,Left ,59,182478629672 ,47,1074342096033 ,15,004633267666
28.211726 ,Left ,59,2344597782394 ,47,0973682203903 ,15,0262134169232
28.2338508 ,Left ,59,2670245401179 ,47,0964730338899 ,15,0380528946556
28.2481183 ,Left ,59,2905600787397 ,47,0996935638147 ,15,0509375860038
28.2713043 ,Left ,59,2866011989453 ,47,1097275745439 ,15,0612281109418
28.293784 ,Left ,59,2851311525693 ,47,1305032661278 ,15,0624544327255
28.3080535 ,Left ,59,2736407767328 ,47,1488771410385 ,15,0659440146288
28.3310618 ,Left ,59,2396797672585 ,47,1538667601559 ,15,0704097359442
28.3535547 ,Left ,59,2225705444402 ,47,1722933440048 ,15,0632699861805
28.3680756 ,Left ,59,2080002227468 ,47,1995968871037 ,15,0661966311262
28.3912079 ,Left ,59,1573214070244 ,47,2255034895506 ,15,0818436921203
28.4137737 ,Left ,59,1876936796458 ,47,2644005252973 ,15,1130455145546
28.4278811 ,Left ,59,2294872593844 ,47,2878882907951 ,15,1443712862362
28.4512965 ,Left ,59,2582025591372 ,47,2863359979564 ,15,1374133431412
28.4735686 ,Left ,59,2613423635434 ,47,2828766049459 ,15,1353420907524
28.4946418 ,Left ,59,2253657518259 ,47,2715110740812 ,15,1321050191904
28.5111311 ,Left ,59,2431647483582 ,47,2613254511046 ,15,1351951564072
28.5336055 ,Left ,59,2837248345827 ,47,243258414219 ,15,1443110013309
28.554677 ,Left ,59,3053784541817 ,47,2293959653598 ,15,1506107996266
28.5711297 ,Left ,59,3091759181193 ,47,2283026118428 ,15,1811427897834
28.5935603 ,Left ,59,3213440007866 ,47,2341971251764 ,15,2106110818935
28.6146068 ,Left ,59,3522546192213 ,47,2399649711291 ,15,2442916088364
28.6312311 ,Left ,59,3872330854341 ,47,2353078643208 ,15,2752106741834
28.6536834 ,Left ,59,4118989799716 ,47,2299971175457 ,15,3054929227471
28.6747241 ,Left ,59,4172995339049 ,47,2268987270308 ,15,3315370498803
28.698523 ,Left ,59,4079787572124 ,47,2328830259028 ,15,3628382443401
28.7212123 ,Left ,59,4153109489163 ,47,2470624947483 ,15,3879370404884
28.7346349 ,Left ,59,4333785448639 ,47,2578022880978 ,15,4083068670004
28.7511566 ,Left ,59,4435362633749 ,47,2517849625032 ,15,4219221077382
28.7736361 ,Left ,59,4380137494534 ,47,2477509223259 ,15,4429721076855
28.7946736 ,Left ,59,4385348233353 ,47,2538982694953 ,15,4703547793002
28.811292 ,Left ,59,4545962648122 ,47,2630225918963 ,15,4974452528212
28.8338464 ,Left ,59,4718861412817 ,47,2659423563495 ,15,5208155311508
28.854797 ,Left ,59,4856676696094 ,47,2617058993422 ,15,5437670224314
28.8711374 ,Left ,59,4887466167749 ,47,2548681812252 ,15,5645974586319
28.8936488 ,Left ,59,4842508987852 ,47,2579408244337 ,15,5834449209619
28.9163381 ,Left ,59,4897029449809 ,47,2569617977311 ,15,5968722719396
28.930961 ,Left ,59,5091420046111 ,47,2478318143313 ,15,605320620168
28.953922 ,Left ,59,5225166758136 ,47,2332751507863 ,15,5993556481183
28.976305 ,Left ,59,5067978891906 ,47,2180182286899 ,15,5897341717163
28.9914482 ,Left ,59,4590199500587 ,47,2079523328019 ,15,5828783199592
29.013562 ,Left ,59,3810220397404 ,47,18342837998 ,15,5874677677772
29.0366883 ,Left ,59,37707027512 ,47,1626390607056 ,15,5811929889938
29.0516435 ,Left ,59,4337652792957 ,47,1311994644631 ,15,581362192191
29.0741833 ,Left ,59,4010782583422 ,47,0949310340674 ,15,5878676199852
29.0966204 ,Left ,59,3466558635496 ,47,1008050281212 ,15,5976710198809
29.1107023 ,Left ,59,3307154458248 ,47,1358468319512 ,15,6215343417921
29.1335443 ,Left ,59,4220264331064 ,47,162290363885 ,15,6224255490657
29.1562466 ,Left ,59,553044609862 ,47,1568423694892 ,15,5940810709049
29.1704267 ,Left ,59,532906256232 ,47,1489323337561 ,15,5633071808658
29.1936731 ,Left ,59,424923280167 ,47,1686057321068 ,15,5536247522682
29.2162157 ,Left ,59,4023746061809 ,47,2283417421107 ,15,53574371273
29.2303928 ,Left ,59,3455768188355 ,47,2541512804729 ,15,5047965693225
29.2542432 ,Left ,59,2776276108887 ,47,2571513691244 ,15,4523076346304
29.2762962 ,Left ,59,2363066776605 ,47,2260509675082 ,15,449167712408
29.2905956 ,Left ,59,2161298190497 ,47,1666228302436 ,15,496628390948
29.3138831 ,Left ,59,2477047253081 ,47,1708355701432 ,15,5129524316512
29.3363571 ,Left ,59,2690818131663 ,47,1905502363641 ,15,4816875725193
29.3506063 ,Left ,59,3039089158111 ,47,1806112324691 ,15,4480170528566
29.3738768 ,Left ,59,3272615973998 ,47,1956896316275 ,15,4398222058797
29.3959315 ,Left ,59,2476624168896 ,47,2650240727702 ,15,4299220854489
29.417267 ,Left ,59,1257941369891 ,47,3016080038378 ,15,4246070618222
29.44698 ,Left ,59,1572977493975 ,47,3135151160413 ,15,4525950089966
29.4562767 ,Left ,59,2123681503096 ,47,317977019616 ,15,4710878360988
29.4772722 ,Left ,59,2092970294485 ,47,3427991737335 ,15,4499046511114
29.4937938 ,Left ,59,1754399229925 ,47,3609787732191 ,15,4299056514836
29.51628 ,Left ,59,171204304318 ,47,3646658755241 ,15,4125955768545
29.537373 ,Left ,59,1684306640425 ,47,3488668830046 ,15,363746847386
29.5538346 ,Left ,59,1775591386915 ,47,32870942409 ,15,3077383947039
29.5765777 ,Left ,59,1594354590962 ,47,316478635732 ,15,2647255246245
29.5976282 ,Left ,59,1427605482875 ,47,3213628193407 ,15,2227839402632
29.6138002 ,Left ,59,1489332835934 ,47,3176478030263 ,15,1775730075223
29.6438382 ,Left ,59,1536835784951 ,47,300399415566 ,15,1336420467834
29.6573111 ,Left ,59,1325036561026 ,47,2810995696548 ,15,0966466705671
29.6738053 ,Left ,59,0992921412923 ,47,2574316933405 ,15,0516632806224
29.6960944 ,Left ,59,0355829355802 ,47,2380411926565 ,15,0016913170016
29.7172404 ,Left ,58,9896228409552 ,47,2305662399197 ,14,9473800878093
29.7338525 ,Left ,58,9667567369537 ,47,2469577675933 ,14,9343055842576
29.756076 ,Left ,59,0058585011666 ,47,2126579352298 ,14,9418387166945
29.7773063 ,Left ,59,042608335523 ,47,2025573557162 ,14,9407264373368
29.7938365 ,Left ,58,9931527329924 ,47,2189548083107 ,14,9166084389529
29.8162811 ,Left ,58,9378144896735 ,47,244448974536 ,14,8920983411644
29.8375917 ,Left ,59,0196131261947 ,47,2641611425989 ,14,8734635780043
29.8537803 ,Left ,59,0789439477337 ,47,2740415086334 ,14,8581818013899
29.876266 ,Left ,59,0198110683771 ,47,2730940629785 ,14,8464393394024
29.8985667 ,Left ,58,9617762235083 ,47,2726240069335 ,14,8369201922746
29.9135629 ,Left ,58,9299505439703 ,47,2547214553539 ,14,832396699573
29.9360925 ,Left ,58,9396022649866 ,47,224410209369 ,14,8135007577134
29.9588 ,Left ,58,9388609789872 ,47,1832040811592 ,14,7904093201681
29.9797603 ,Left ,58,8878734260779 ,47,1409427666589 ,14,7743173330182
29.9960692 ,Left ,58,8058125554842 ,47,1257737676486 ,14,7935593180983
30.0185408 ,Left ,58,7944159937607 ,47,1175086730953 ,14,8306951678334
30.0335869 ,Left ,58,8354291152058 ,47,1729935488423 ,14,884208429253
30.0567206 ,Left ,58,901474043717 ,47,1954486218084 ,14,9147332923888
30.0863513 ,Left ,59,0143444009561 ,47,1797992953407 ,14,9332520415333
30.0933463 ,Left ,59,0651410602215 ,47,1437106839838 ,14,9542190197969
30.1162168 ,Left ,59,0174836241111 ,47,1114231450562 ,14,9648905141767
30.1386596 ,Left ,59,0221896082246 ,47,0677268535886 ,14,9659983569637
30.1597841 ,Left ,59,08836901101 ,47,0319888454329 ,14,9753567217506
30.1822656 ,Left ,59,1140716792011 ,47,0551759084417 ,14,9791976377249
30.1993809 ,Left ,59,1069159144647 ,47,1070803493914 ,14,9841509208983
30.2131509 ,Left ,59,1118175360904 ,47,1461744630781 ,14,9809483464014
30.2363117 ,Left ,59,1102287116874 ,47,1344906621645 ,15,0040333288641
30.2585904 ,Left ,59,1433316464027 ,47,0988427739216 ,15,0454858152178
30.2729621 ,Left ,59,1635835148801 ,47,1141265373361 ,15,0614603584159
30.2962875 ,Left ,59,1706607264002 ,47,1550982750353 ,15,0684675269738
30.3188334 ,Left ,59,2171349627857 ,47,1498775940482 ,15,0779732071825
30.3331421 ,Left ,59,2897191428855 ,47,1129174717049 ,15,0792751448407
30.356138 ,Left ,59,2844456295341 ,47,0807634321371 ,15,0702638285333
30.3791704 ,Left ,59,2748861460836 ,47,0705200305763 ,15,0684627247291
30.4001044 ,Left ,59,3205866612174 ,47,0635890879563 ,15,0773443699635
30.4162425 ,Left ,59,3542545986968 ,47,0718615239946 ,15,0988913181941
30.4387028 ,Left ,59,3723468804391 ,47,0868611305293 ,15,1263480492101
30.4596355 ,Left ,59,4002446789633 ,47,1020705704182 ,15,1499339696215
30.4769581 ,Left ,59,4193602247521 ,47,1092725715228 ,15,1710790369802
30.4988052 ,Left ,59,4231979956339 ,47,1096900796847 ,15,1899782556258
30.5198266 ,Left ,59,3979623497157 ,47,1214003473139 ,15,2152026635031
30.5362391 ,Left ,59,3892154683088 ,47,1373197685828 ,15,2413773898742
30.5587567 ,Left ,59,3986523370016 ,47,1527641661731 ,15,2672801727671
30.5798127 ,Left ,59,4062590248283 ,47,1654837680847 ,15,2915473276034
30.5961895 ,Left ,59,4107680570529 ,47,1662380038186 ,15,3147766793296
30.6189961 ,Left ,59,4134275773398 ,47,1728045229953 ,15,3373338156964
30.6396573 ,Left ,59,4115700837678 ,47,1802603175252 ,15,3582178681521
30.6561273 ,Left ,59,4102456020748 ,47,1848012643642 ,15,3734816595188
30.6785666 ,Left ,59,4169514314529 ,47,1955915897305 ,15,3907887717322
30.7000898 ,Left ,59,4270934460069 ,47,2041823742605 ,15,4019212307156
30.7165584 ,Left ,59,4325915419403 ,47,199657468033 ,15,4129423458702
30.7387834 ,Left ,59,4372919352312 ,47,1929022609608 ,15,4245542253734
30.7599002 ,Left ,59,4315072921118 ,47,1892304399933 ,15,4381338892902
30.7762275 ,Left ,59,4238677809628 ,47,1875455241718 ,15,4420188994818
30.7986838 ,Left ,59,4257590795046 ,47,1726097139092 ,15,4426638458724
30.8212477 ,Left ,59,4371066652281 ,47,1411613879428 ,15,4300616595795
30.8367836 ,Left ,59,4182192733402 ,47,1003967613796 ,15,4199245883952
30.8589003 ,Left ,59,3594535005564 ,47,0641187592106 ,15,4146656097306
30.8810106 ,Left ,59,2361672823808 ,47,0625939098839 ,15,4370629236566
30.9037855 ,Left ,59,1753879846082 ,47,0733730610497 ,15,455880874402
30.9186054 ,Left ,59,2605957888323 ,47,0909919843588 ,15,4805584300151
30.9409783 ,Left ,59,3249272262982 ,47,1083362753306 ,15,5058978436016
30.9552878 ,Left ,59,3341954834532 ,47,1389932288194 ,15,5141503437148
30.9847045 ,Left ,59,3586085240853 ,47,1589499616958 ,15,5162110456434
31.0010969 ,Left ,59,3986323829906 ,47,1614510278824 ,15,4974617588768
31.0156 ,Left ,59,4142152428217 ,47,163051856199 ,15,4822551188449
31.0387327 ,Left ,59,410876694414 ,47,1569694939962 ,15,4712731744238
31.0616273 ,Left ,59,3319060195207 ,47,1713977194997 ,15,4835751652807
31.082689 ,Left ,59,2014340196692 ,47,1640752818909 ,15,474788791616
31.0995583 ,Left ,59,1945414556899 ,47,1602474355288 ,15,429425096546
31.1214281 ,Left ,59,2318319628591 ,47,1367560758542 ,15,4395537620725
31.1427404 ,Left ,59,2440798445564 ,47,1386945754589 ,15,4597720278048
31.1589358 ,Left ,59,245485012394 ,47,1412897403168 ,15,463541062393
31.1813032 ,Left ,59,2696398777834 ,47,1309868449231 ,15,448262751685
31.1962383 ,Left ,59,2985769502838 ,47,1379531200974 ,15,4486188184688
31.2188074 ,Left ,59,2350029931269 ,47,2000328761778 ,15,4545870894286
31.2412518 ,Left ,59,1641615375604 ,47,2643831944442 ,15,4464810922866
31.263737 ,Left ,59,2010868175631 ,47,2860795861746 ,15,4763345833002
31.2787425 ,Left ,59,2302091860263 ,47,2744040938531 ,15,5108883698984
31.3084795 ,Left ,59,2236228322883 ,47,2814380609358 ,15,5010078031645
31.322586 ,Left ,59,183456637529 ,47,2790957913476 ,15,4789919544539
31.3392571 ,Left ,59,1975448072287 ,47,2826403988815 ,15,4519815332962
31.3614679 ,Left ,59,2385214120237 ,47,2811142500703 ,15,4173955974085
31.390389 ,Left ,59,2454527037563 ,47,2752944854158 ,15,3636994566872
31.3992255 ,Left ,59,2469984538491 ,47,2787232368448 ,15,3237537252092
31.4215042 ,Left ,59,2059699694799 ,47,2981778146318 ,15,2986139133195
31.4424452 ,Left ,59,1554074863007 ,47,3213729227909 ,15,269859476705
31.4587545 ,Left ,59,1623251057748 ,47,3354214395246 ,15,2374004907288
31.481274 ,Left ,59,1673382795527 ,47,3228042338898 ,15,1994774257779
31.5025009 ,Left ,59,1558427670627 ,47,2955881255199 ,15,164526983722
31.5187035 ,Left ,59,1202807514462 ,47,2690556664486 ,15,1381498773235
31.5414164 ,Left ,59,0917542241703 ,47,2477183006784 ,15,1125539236314
31.5697376 ,Left ,59,0738057456525 ,47,2342659899543 ,15,0799830146591
31.5850626 ,Left ,59,0703067937953 ,47,2195147284816 ,15,0358816137518
31.6015184 ,Left ,59,0443617538736 ,47,1969884959485 ,14,9825051242551
31.6223959 ,Left ,58,9749460991119 ,47,199741775421 ,14,9553870706493
31.6387797 ,Left ,58,8985324394737 ,47,2104927263786 ,14,9428673840577
31.6675731 ,Left ,58,9293937502015 ,47,1985341247284 ,14,9363149564553
31.6824113 ,Left ,58,9763457116339 ,47,1955388349552 ,14,9390279118774
31.6985204 ,Left ,58,9889193779032 ,47,1940752990811 ,14,9303243388133
31.7212654 ,Left ,58,9729951196545 ,47,1954454902422 ,14,9167906573269
31.7437642 ,Left ,59,0086375908493 ,47,198835105517 ,14,9116946498324
31.758438 ,Left ,59,0299549200636 ,47,1966030782374 ,14,897930700484
31.7816298 ,Left ,59,0393630768841 ,47,1931638742473 ,14,8938385325731
31.8042175 ,Left ,59,0515251515763 ,47,1935783346117 ,14,8927232612504
31.8188454 ,Left ,59,0633330682136 ,47,1908100497773 ,14,8902489844172
31.848678 ,Left ,59,0603687144294 ,47,1842618463163 ,14,8867552619678
31.8642386 ,Left ,59,058327332882 ,47,1823148307534 ,14,8765188445969
31.8790033 ,Left ,59,0255834778333 ,47,1788302615571 ,14,857360496523
31.901303 ,Left ,58,9667475777749 ,47,1921434335563 ,14,834252010128
31.924435 ,Left ,58,9007923795753 ,47,207675709168 ,14,8035717151347
31.9446293 ,Left ,58,8564909035376 ,47,2111846836643 ,14,7601211179889
31.9613069 ,Left ,58,8329087197994 ,47,1895509654853 ,14,7339555324708
31.983648 ,Left ,58,8082791085862 ,47,1790792671446 ,14,7499677344042
31.998008 ,Left ,58,7581912944731 ,47,2143934365252 ,14,7835166524042
32.0210963 ,Left ,58,7815430001515 ,47,2387352263225 ,14,8304828437596
32.0441686 ,Left ,58,8997493845276 ,47,2122439243543 ,14,8666031247653
32.0647727 ,Left ,58,9707431296005 ,47,1710419490076 ,14,8856061057554
32.0813435 ,Left ,58,9484909731121 ,47,1246433365006 ,14,8915795238756
32.1037739 ,Left ,58,9541839734046 ,47,1018573972895 ,14,8964474836953
32.1249809 ,Left ,58,9653576863866 ,47,1327232226886 ,14,9149090206089
32.1412968 ,Left ,58,9515119048347 ,47,1924815341187 ,14,9255384006601
32.1638226 ,Left ,58,9324141185038 ,47,2203043906328 ,14,9683854732898
32.1786211 ,Left ,58,9665851935852 ,47,1841230763391 ,15,0565937988704
32.201257 ,Left ,59,0649239893979 ,47,1415474086468 ,15,122934061676
32.22383 ,Left ,59,0781549288852 ,47,143272007393 ,15,1296383412411
32.2381325 ,Left ,59,1000893330635 ,47,1468017250825 ,15,1177077190242
32.2613212 ,Left ,59,1190982708366 ,47,1335101619316 ,15,1205544813477
32.2898675 ,Left ,59,128016162474 ,47,1184097902462 ,15,1246618927654
32.3061237 ,Left ,59,1697452770156 ,47,1087777801523 ,15,1274388230467
32.3212384 ,Left ,59,2032180683578 ,47,1034077134045 ,15,143137515611
32.3438163 ,Left ,59,2227396697133 ,47,111739855242 ,15,1678138044379
32.3722756 ,Left ,59,244807116131 ,47,1234215189725 ,15,2050748551558
32.3812791 ,Left ,59,2658685717217 ,47,1336978258265 ,15,2344325305944
32.4037855 ,Left ,59,2739499995128 ,47,1329081160807 ,15,26469777266
32.42485 ,Left ,59,2876521600952 ,47,1338739185561 ,15,2863167318918
32.4413028 ,Left ,59,2816911048612 ,47,1338752443727 ,15,3024424078687
32.4637487 ,Left ,59,2696957284934 ,47,1443167530606 ,15,3165172611554
32.4845942 ,Left ,59,2641233047843 ,47,1720331150573 ,15,3369296123489
32.5012497 ,Left ,59,2787759230854 ,47,2076695673188 ,15,3627964169495
32.5236077 ,Left ,59,3014479286926 ,47,2401721541025 ,15,3841681596582
32.5448378 ,Left ,59,3113591639102 ,47,2659966346848 ,15,4058332171982
32.551498 ,Left ,59,3055375877127 ,47,2836272139905 ,15,4227111419822
32.5666096 ,Left ,59,2927599052997 ,47,2969055373737 ,15,4443884449551
32.5892781 ,Left ,59,2850136785134 ,47,3063674945601 ,15,4621501303163
32.6113063 ,Left ,59,2987345642165 ,47,3099684398913 ,15,470311776716
32.6265168 ,Left ,59,314990428046 ,47,296168631222 ,15,4639882517736
32.649787 ,Left ,59,3050146800849 ,47,2742493364466 ,15,4513987933745
32.6721039 ,Left ,59,279839002032 ,47,235986268108 ,15,4375330068457
32.6867832 ,Left ,59,2270848663272 ,47,1990763470909 ,15,4169899429458
32.7091686 ,Left ,59,1796534617619 ,47,1454891094408 ,15,3901163811036
32.7316275 ,Left ,59,1427106503651 ,47,0722209567073 ,15,3585988150776
32.7464862 ,Left ,59,1616060498925 ,46,9890930266799 ,15,3596290523212
32.7692207 ,Left ,59,1463009491719 ,46,9339807070167 ,15,3731366462893
32.7915537 ,Left ,59,1168677750898 ,46,9411037433202 ,15,3659234943382
32.8067042 ,Left ,59,1443281004982 ,46,9738835295769 ,15,3517604987524
32.8290301 ,Left ,59,20915517396 ,46,986635817522 ,15,357535927133
32.8516972 ,Left ,59,2544068724601 ,46,9923590513444 ,15,3612799094327
32.8666384 ,Left ,59,2535219388115 ,46,9907127745939 ,15,360947996748
32.8891044 ,Left ,59,2258987159381 ,46,9835062477629 ,15,3535049690686
32.9115872 ,Left ,59,1932331209455 ,46,9740557272804 ,15,3534505620684
32.926588 ,Left ,59,1452908015193 ,46,9758259858301 ,15,3586655784839
32.9488343 ,Left ,59,062695084027 ,46,9739064731906 ,15,3489027071743
32.9716052 ,Left ,58,9725194805525 ,46,9656608526332 ,15,3510205771716
32.9869972 ,Left ,58,9821380553769 ,46,9758503779412 ,15,3527746041109
33.0109036 ,Left ,58,9817351596984 ,47,0034470295046 ,15,3450381119222
33.0319291 ,Left ,58,9999264658302 ,47,0129844971604 ,15,3341925301565
33.0545445 ,Left ,59,0604163071183 ,47,0005654413946 ,15,3205337407334
33.0695383 ,Left ,59,0359925934208 ,47,0189079619103 ,15,3056877102749
33.0917148 ,Left ,58,9397800791266 ,47,0652040261578 ,15,2965502642697
33.1067355 ,Left ,58,7852935170446 ,47,0678999446816 ,15,2879268248569
33.1293014 ,Left ,58,8163856119056 ,47,0868499152715 ,15,2953185938222
33.1545383 ,Left ,58,8544845268624 ,47,1270330395966 ,15,3233248683714
33.1680132 ,Left ,58,8852081549312 ,47,1800168566696 ,15,3182908266611
33.1893156 ,Left ,58,9141276496073 ,47,1820514991387 ,15,3117693526879
33.211855 ,Left ,58,9544906604247 ,47,1734158135393 ,15,2935678078524
33.2280926 ,Left ,58,9485627214722 ,47,1607878431757 ,15,2590431352505
33.2524119 ,Left ,58,9529119726008 ,47,154797748433 ,15,2216141683014
33.2713277 ,Left ,58,9769017913474 ,47,1434099979308 ,15,1763793461166
33.288021 ,Left ,58,9716150609013 ,47,1249016566191 ,15,125127864988
33.3095344 ,Left ,58,9418289889105 ,47,1264080466512 ,15,0803184316143
33.3316985 ,Left ,58,9207358149685 ,47,1186529395883 ,15,0219350251415
33.348282 ,Left ,58,8935519790209 ,47,0782968297576 ,14,9771468886975
33.3691921 ,Left ,58,8942328808863 ,47,0596625905882 ,14,9362481125926
33.3996607 ,Left ,58,8649811762502 ,47,0716904913882 ,14,9259210122251
33.4078568 ,Left ,58,8417849282185 ,47,0624969246361 ,14,9229615771507
33.429014 ,Left ,58,8633452849481 ,47,0565338086015 ,14,9066769165388
33.4520124 ,Left ,58,8744798814477 ,47,0585776149802 ,14,8829384424787
33.4685919 ,Left ,58,8995316164454 ,47,0807321960259 ,14,8509226085204
33.4890269 ,Left ,58,8877966315904 ,47,0914680659366 ,14,8370597719205
33.5116 ,Left ,58,8841511870759 ,47,1011491474973 ,14,8060494405574
33.5280713 ,Left ,58,8704043091632 ,47,1127471233836 ,14,7929941931051
33.5490577 ,Left ,58,8431633657713 ,47,1099258991727 ,14,7758130896717
33.5717067 ,Left ,58,8539483471758 ,47,0837369613895 ,14,7433790970491
33.5881255 ,Left ,58,8594344348225 ,47,0595654813712 ,14,7199083361537
33.6091807 ,Left ,58,7864302725119 ,47,0418978398966 ,14,7113185872211
33.6316962 ,Left ,58,6724223175753 ,47,0375197810912 ,14,7205698307523
33.6497214 ,Left ,58,7054947227723 ,47,0412284280947 ,14,7530998094195
33.6690372 ,Left ,58,7611770036148 ,47,0813387052023 ,14,7958295235796
33.693084 ,Left ,58,8420826023239 ,47,0992922852723 ,14,8102190877438
