timestamp,event,roll,pitch,yaw
0.0168872 ,Left ,43.0541262967102 ,45.2465616280985 ,87.5105503437483
0.0332938 ,Left ,43.0796354115501 ,45.3124163454928 ,87.4679235628628
0.0569923 ,Left ,43.0660763846679 ,45.3496507166402 ,87.3756304497786
0.0768982 ,Left ,43.0198665681813 ,45.3445571746658 ,87.2790441549386
0.0932196 ,Left ,42.9731867113299 ,45.2884790512514 ,87.2069661671489
0.1157986 ,Left ,42.9520520601298 ,45.2015646147966 ,87.1640628517145
0.1368423 ,Left ,42.9685029707999 ,45.1168971098587 ,87.1581345309535
0.1527006 ,Left ,43.023893025155 ,45.0685845520461 ,87.1812517492202
0.176016 ,Left ,43.1250843053096 ,45.0885766611041 ,87.2117807147123
0.1982748 ,Left ,43.2679696656124 ,45.1616866841987 ,87.1952253141209
0.2133557 ,Left ,43.3821408537051 ,45.2547214758018 ,87.1101274125888
0.2358334 ,Left ,43.3949971626412 ,45.3343418625736 ,87.0239674357156
0.2594371 ,Left ,43.3255292829807 ,45.3537221512412 ,86.974421424192
0.2725751 ,Left ,43.2348851409917 ,45.3059766746914 ,86.9597636650139
0.2957404 ,Left ,43.1736661616779 ,45.2319172689182 ,86.9654418054811
0.3183073 ,Left ,43.1361997778309 ,45.161891991429 ,86.9861528400613
0.3325928 ,Left ,43.1125209571251 ,45.1093613348093 ,87.0362084030518
0.3557883 ,Left ,43.1093069094608 ,45.0983635246117 ,87.124688045093
0.378347 ,Left ,43.1615056133219 ,45.1249614432973 ,87.2198996338851
0.3927228 ,Left ,43.2538238602548 ,45.1650947760887 ,87.2610282971919
0.4158065 ,Left ,43.3688569792115 ,45.2153384109581 ,87.1857924039913
0.438247 ,Left ,43.4051633466208 ,45.2705708993749 ,87.065698537457
0.452594 ,Left ,43.3245570662517 ,45.2834001536611 ,86.9875042427697
0.4758508 ,Left ,43.211810128734 ,45.220624842213 ,86.9625966948048
0.4983017 ,Left ,43.1213659403143 ,45.1291313497546 ,86.9773177069786
0.5193603 ,Left ,43.0663930226195 ,45.0427498328552 ,87.0223726945564
0.5358271 ,Left ,43.0144567446532 ,44.9770416467255 ,87.1016889883802
0.5583117 ,Left ,42.9829448691287 ,44.9570937768073 ,87.2258330957937
0.5794558 ,Left ,42.9996874733928 ,44.9663949922724 ,87.3526162739763
0.5958383 ,Left ,43.0410699451023 ,44.96096229351 ,87.4332456293834
0.6182477 ,Left ,43.0777640541766 ,44.9198353275073 ,87.451092864528
0.6393575 ,Left ,43.1051880054235 ,44.8529185975489 ,87.3993601318932
0.6557864 ,Left ,43.1395580277602 ,44.7745026226777 ,87.2883843321297
0.6782118 ,Left ,43.1750764561989 ,44.6989269226467 ,87.149456056185
0.6994892 ,Left ,43.1544508098599 ,44.6559912642882 ,87.0319654042666
0.7157658 ,Left ,43.0404206643031 ,44.643384217244 ,87.0129051803566
0.7383265 ,Left ,42.8906087211304 ,44.6562717133987 ,87.123284515667
0.7601316 ,Left ,42.824948884681 ,44.721712439869 ,87.2771329298049
0.7759439 ,Left ,42.8271240410414 ,44.7894288209611 ,87.408782072403
0.7982971 ,Left ,42.8540522372177 ,44.8085551372571 ,87.4557762487057
0.8194241 ,Left ,42.8457516817361 ,44.7846893263039 ,87.3873703494257
0.8358314 ,Left ,42.8281070705721 ,44.7532077811143 ,87.2473865108167
0.8583728 ,Left ,42.8140696654678 ,44.7105529098327 ,87.0814779025211
0.8795362 ,Left ,42.748272338292 ,44.6211106685935 ,86.9640663947283
0.8959002 ,Left ,42.6016567263855 ,44.4619693110594 ,86.951363718351
0.9184182 ,Left ,42.4056897376076 ,44.2731350850705 ,87.0163953644955
0.9395721 ,Left ,42.2741794776043 ,44.1032837046656 ,87.0924673380712
0.9558348 ,Left ,42.3030384155564 ,43.9000176807857 ,87.0526375151549
0.9782973 ,Left ,42.4500409268574 ,43.6339131906646 ,86.8279519463105
0.9836812 ,Left ,42.4959879743043 ,43.3817006631325 ,86.5435838846686
1.0061933 ,Left ,42.3420524692999 ,43.157498147374 ,86.3291496681513
1.021158 ,Left ,42.1398884413115 ,42.9441495558955 ,86.1952121962148
1.0437408 ,Left ,41.9346407126243 ,42.7814333903145 ,86.1364999429781
1.0661778 ,Left ,41.782751385446 ,42.6356809136693 ,86.1131858671399
1.0826553 ,Left ,41.6729707737502 ,42.444610673843 ,86.1025961883963
1.103756 ,Left ,41.5637192955121 ,42.2584710675018 ,86.1403850838591
1.1272812 ,Left ,41.4766896772022 ,42.1666833032005 ,86.2060408438112
1.1424084 ,Left ,41.5229205468824 ,42.1686280288837 ,86.2289365642306
1.1637546 ,Left ,41.6718984481882 ,42.2261000289931 ,86.2082179096456
1.1862438 ,Left ,41.778403021816 ,42.3211330760628 ,86.1377727727484
1.201043 ,Left ,41.8813656966245 ,42.4359287083486 ,85.9852914084118
1.2235818 ,Left ,42.0763385753688 ,42.5336924337396 ,85.8628881095561
1.2461613 ,Left ,42.2867105879898 ,42.5917227514798 ,85.8372125313098
1.2612771 ,Left ,42.4534976999596 ,42.6355001636667 ,85.890866532128
1.2837449 ,Left ,42.5958523053948 ,42.6683391980569 ,85.9614492675627
1.3061895 ,Left ,42.6274668084945 ,42.708632752529 ,86.0187853401833
1.3212109 ,Left ,42.6898753934263 ,42.8099803396146 ,86.0828382290009
1.3437246 ,Left ,42.9033202122637 ,42.9663844246568 ,86.1414433700558
1.3661388 ,Left ,43.1251768532773 ,43.164387376333 ,86.2560708519956
1.3811672 ,Left ,43.2708072371613 ,43.3394967634804 ,86.3919050848105
1.4038675 ,Left ,43.2956135614883 ,43.5001161512215 ,86.5647368494338
1.4263948 ,Left ,43.2393693734651 ,43.6250149011572 ,86.730571103968
1.4411661 ,Left ,43.1539921025144 ,43.7033839439346 ,86.8512769151252
1.4636832 ,Left ,43.1061630108926 ,43.7466994982038 ,86.9474531951148
1.4862234 ,Left ,43.0508360594213 ,43.8006084425946 ,87.0549552051811
1.5012029 ,Left ,42.9342382416798 ,43.8422420567311 ,87.13444125004
1.5237133 ,Left ,42.8405086103628 ,43.8385269258341 ,87.2076618109698
1.5462179 ,Left ,42.8851688161088 ,43.8490947799943 ,87.3029478441487
1.5611961 ,Left ,42.9657727404973 ,43.925856133991 ,87.4353021972481
1.5837416 ,Left ,42.9798070450076 ,44.01192108336 ,87.5504746179689
1.6062141 ,Left ,43.0224566645817 ,44.0821305982975 ,87.6871240836143
1.6211618 ,Left ,43.0659700594946 ,44.1821737276793 ,87.8840355756114
1.6437243 ,Left ,43.1941249319315 ,44.285059446867 ,88.1114301646136
1.6661996 ,Left ,43.4991557746728 ,44.404426153416 ,88.3096421260782
1.6812576 ,Left ,43.6860899534073 ,44.5877427929028 ,88.4675105164246
1.703728 ,Left ,43.6904784192298 ,44.8770251164056 ,88.6764880426485
1.7263892 ,Left ,43.6381795499477 ,45.2358591489176 ,88.9298946208342
1.7425913 ,Left ,43.6524843093685 ,45.66411632328 ,89.2047771704291
1.7637549 ,Left ,43.6810962569777 ,46.094596721869 ,89.4905552927547
1.7862293 ,Left ,43.6333713465288 ,46.6000983313666 ,89.7011131661649
1.8026826 ,Left ,43.4867071740351 ,47.2115294560772 ,89.8838793604403
1.8237242 ,Left ,43.294154698986 ,47.8921055563506 ,90.054335958805
1.8462226 ,Left ,43.1690158377196 ,48.6072457352962 ,90.1814568727879
1.8701111 ,Left ,42.9935936373143 ,49.3534789311712 ,90.2484758378194
1.8912038 ,Left ,42.864441582409 ,50.1206854969214 ,90.2404657122625
1.9061781 ,Left ,42.7666734040558 ,50.8870136239359 ,90.1903242507366
1.9227005 ,Left ,42.6388512483665 ,51.62780513806 ,90.117176748599
1.9437744 ,Left ,42.5079610346507 ,52.3251529714594 ,90.0428765697042
1.9662314 ,Left ,42.4026731630225 ,53.0146955633407 ,89.9842024693781
1.9826197 ,Left ,42.2438375921823 ,53.6405412289871 ,89.9121401425635
2.003661 ,Left ,42.1741123804454 ,54.1689848227798 ,89.8929000609907
2.0262195 ,Left ,42.0501473022468 ,54.4779483936332 ,89.8892115065793
2.0426312 ,Left ,41.8913710297986 ,54.5915316781126 ,89.8919277599327
2.0637108 ,Left ,41.8985067729433 ,54.6362870041919 ,89.9195329632384
2.0861821 ,Left ,41.9428296081465 ,54.6147750029911 ,89.8588269959582
2.1041167 ,Left ,41.9529734884416 ,54.5391318084299 ,89.7637519132905
2.1237049 ,Left ,41.8796810896776 ,54.4311426203261 ,89.6661524752417
2.1462092 ,Left ,41.754901126724 ,54.375257566829 ,89.5161787304685
2.1715965 ,Left ,41.6280867901617 ,54.3828128153137 ,89.3266722131247
2.1837211 ,Left ,41.4561969625847 ,54.33894170062 ,89.162466709504
2.2061774 ,Left ,41.2154030447518 ,54.2187171203727 ,89.0277814259085
2.2241792 ,Left ,41.0575312939915 ,54.0460118751739 ,88.9185634139254
2.2437427 ,Left ,41.0718333193606 ,53.811127384724 ,88.8554064056635
2.266271 ,Left ,41.1120942590839 ,53.5787333933084 ,88.8277871176787
2.2841489 ,Left ,41.1387563082249 ,53.3764453633764 ,88.7885061916242
2.30373 ,Left ,41.1608095402676 ,53.2275865342647 ,88.7580792324106
2.326297 ,Left ,41.2460829034073 ,53.1574119793903 ,88.7448786530801
2.3440953 ,Left ,41.3348367645903 ,53.1384256295206 ,88.7563760853505
2.3636985 ,Left ,41.4329651115254 ,53.129301655948 ,88.8131828058678
2.3816566 ,Left ,41.5035582766323 ,53.0878890612633 ,88.8752349239188
2.4040371 ,Left ,41.506766742582 ,53.0427917641959 ,88.9092664681669
2.423689 ,Left ,41.516482083229 ,53.018845836835 ,88.9224436828784
2.4462317 ,Left ,41.5370411069599 ,52.9882699387228 ,88.9016819633645
2.4640603 ,Left ,41.5475318056007 ,52.9527475387687 ,88.8745010691264
2.4837494 ,Left ,41.5497466408004 ,52.9018677915789 ,88.8494611658884
2.5016364 ,Left ,41.5563814642377 ,52.8546058546996 ,88.8331171075444
2.5241648 ,Left ,41.5426762647829 ,52.819448638606 ,88.8149816248517
2.5441759 ,Left ,41.5571390528831 ,52.7822704054847 ,88.8022403240176
2.5615535 ,Left ,41.5597592068204 ,52.7475337473335 ,88.7895394218797
2.5840557 ,Left ,41.561696246974 ,52.7325028408117 ,88.7785006119201
2.6036993 ,Left ,41.5624444610578 ,52.7352413044721 ,88.7797339101716
2.6216299 ,Left ,41.550999915341 ,52.758815653711 ,88.8128035405513
2.6440398 ,Left ,41.4938861186244 ,52.80532379435 ,88.8440411859269
2.6665501 ,Left ,41.5024651251639 ,52.8544895597956 ,88.828636579239
2.6816188 ,Left ,41.4594774790377 ,52.8769595189854 ,88.7853400932256
2.7041119 ,Left ,41.3851658806399 ,52.9059037651112 ,88.7331545446517
2.7270318 ,Left ,41.2557949788252 ,52.9422123003533 ,88.6478749367781
2.7414542 ,Left ,41.1238311585893 ,52.9814713696578 ,88.5361363738826
2.7640707 ,Left ,41.0732937450735 ,53.0056905947259 ,88.4430391199915
2.7851996 ,Left ,41.0936961343965 ,53.0397622877153 ,88.366886750345
2.8001298 ,Left ,41.0931952606003 ,53.0575904964389 ,88.3164439785768
2.8241771 ,Left ,41.0994271707633 ,53.0915088741976 ,88.2851345512993
2.8445165 ,Left ,41.0405074748349 ,53.1143670043029 ,88.2335774336339
2.8669001 ,Left ,41.0176456415435 ,53.1332412195249 ,88.1930790029232
2.8832521 ,Left ,40.9968735456317 ,53.1611208183856 ,88.1503104011039
2.9044091 ,Left ,40.9913985134046 ,53.174242432156 ,88.0882746220715
2.9208201 ,Left ,40.9932885630714 ,53.1868256156708 ,88.048147952946
2.9442874 ,Left ,40.9492980893738 ,53.1818640407768 ,87.9969951237017
2.9642982 ,Left ,40.9339352827394 ,53.1462871086103 ,87.966795196652
2.9808045 ,Left ,40.9950488655651 ,53.0844016109775 ,87.9472478084506
3.003324 ,Left ,41.0268119870106 ,53.0688915887916 ,87.9439358814633
3.0258377 ,Left ,41.0584739203308 ,53.1011717272816 ,87.9110247002438
3.0408031 ,Left ,41.1157889508043 ,53.1370729950251 ,87.8978008317178
3.0632831 ,Left ,41.181603223297 ,53.1620525610349 ,87.8899542647563
3.0858464 ,Left ,41.1867686824355 ,53.2133476150946 ,87.8928632350664
3.1008264 ,Left ,41.143411025221 ,53.263506653026 ,87.8929541256894
3.1248931 ,Left ,41.1134869532049 ,53.3092175803452 ,87.872537536593
3.145711 ,Left ,41.0981099093159 ,53.352365220999 ,87.8463625376554
3.1608349 ,Left ,41.1201276613417 ,53.3538171990304 ,87.863501214648
3.1833144 ,Left ,41.1681607956779 ,53.3749259865154 ,87.8670664774916
3.2058308 ,Left ,41.2285326393068 ,53.382730986154 ,87.8515831773194
3.2201963 ,Left ,41.2723437485798 ,53.4039545826657 ,87.8439273933786
3.2433552 ,Left ,41.2499843522876 ,53.4319714707586 ,87.8755065043075
3.2657796 ,Left ,41.1866549309124 ,53.4567471275544 ,87.8834316350514
3.280165 ,Left ,41.1663012705109 ,53.4768277172154 ,87.8788329855027
3.3032478 ,Left ,41.1688393812987 ,53.4319889510726 ,87.8910391935609
3.3259517 ,Left ,41.1266293431763 ,53.4184015805639 ,87.8998622235784
3.3468525 ,Left ,41.0125395275709 ,53.4900512982366 ,87.9220008455337
3.3633059 ,Left ,40.9561976424175 ,53.6465954433092 ,87.9209247449461
3.3858068 ,Left ,40.9603323022739 ,53.7784313325715 ,87.8723841586713
3.4067982 ,Left ,41.0110985906726 ,53.8383281287739 ,87.8308558012497
3.4232982 ,Left ,41.0075550990331 ,53.8571638626695 ,87.8039832211742
3.4457793 ,Left ,40.8937541843463 ,53.8497156253344 ,87.7564225400433
3.4668591 ,Left ,40.8386473279846 ,53.8757310481514 ,87.6836399048906
3.4833265 ,Left ,40.8090559284866 ,53.9340641453879 ,87.6213563572798
3.5057415 ,Left ,40.7845814638346 ,53.9525238940745 ,87.579972091054
3.5269754 ,Left ,40.6757522067665 ,53.9392607534249 ,87.5312493514162
3.5432871 ,Left ,40.5542862813983 ,53.9162464151519 ,87.4909913801382
3.5658461 ,Left ,40.4688273048638 ,53.8960160670017 ,87.4439676738986
3.5868275 ,Left ,40.4784874972612 ,53.8996948556303 ,87.4093575210572
3.6033028 ,Left ,40.4479058836172 ,53.9376667471081 ,87.426948548704
3.6258163 ,Left ,40.4696505342515 ,54.011684017666 ,87.4711612181237
3.6469205 ,Left ,40.5157866648224 ,54.0868450069772 ,87.4755771729105
3.6632532 ,Left ,40.5497881352687 ,54.1473728308825 ,87.458609424994
3.6858745 ,Left ,40.5884985784846 ,54.0939738514384 ,87.4388892249232
3.70713 ,Left ,40.6010080743099 ,53.9337937475955 ,87.4019503202675
3.7233652 ,Left ,40.5472935456269 ,53.8423616706222 ,87.4161339921246
3.7458353 ,Left ,40.548237286618 ,53.8214512799619 ,87.4901782258125
3.766813 ,Left ,40.6134699603832 ,53.8380432380979 ,87.5361161418097
3.7832237 ,Left ,40.6862365933103 ,53.8374503813245 ,87.5392429999176
3.8132824 ,Left ,40.7609150700354 ,53.8212810979524 ,87.5842786814273
3.8266591 ,Left ,40.7381594357102 ,53.7998148724848 ,87.586772130029
3.8432336 ,Left ,40.7591224572372 ,53.8454203939384 ,87.567150802949
3.8658101 ,Left ,40.7951811234115 ,53.9434201832792 ,87.5363383957189
3.8868759 ,Left ,40.8082577434019 ,54.0191414906856 ,87.5048115730231
3.9033321 ,Left ,40.8204943073299 ,54.0181125583333 ,87.490842455537
3.925752 ,Left ,40.8336604377614 ,53.9528309500377 ,87.4879906833525
3.9468732 ,Left ,40.8886037018897 ,53.8855951665543 ,87.5208227215039
3.9632285 ,Left ,40.9570152551209 ,53.8449078284697 ,87.5767431633034
3.9857482 ,Left ,41.0451064875261 ,53.8063120714184 ,87.6382753875002
4.0083137 ,Left ,41.1406585849666 ,53.7833099936516 ,87.7070381021769
4.0225544 ,Left ,41.2378020517994 ,53.7525368094906 ,87.7696002796914
4.0458004 ,Left ,41.2944175287557 ,53.7287014372723 ,87.8134928818401
4.06832 ,Left ,41.3314100415128 ,53.72566070355 ,87.845555138406
4.0826874 ,Left ,41.3478530404397 ,53.7354000011279 ,87.8702912327105
4.1118044 ,Left ,41.3864418757368 ,53.7444351817086 ,87.8949587243598
4.1283697 ,Left ,41.4244063310299 ,53.760693826266 ,87.923160122077
4.1427195 ,Left ,41.4640773838044 ,53.7836042841382 ,87.9493538727565
4.1658065 ,Left ,41.4978914745083 ,53.8079676271184 ,87.9722805434018
4.1883647 ,Left ,41.5203059158273 ,53.8288171454877 ,87.998135587418
4.2026327 ,Left ,41.5359551707492 ,53.8509020579899 ,88.0215376673204
4.2258245 ,Left ,41.5278483131842 ,53.8781960493266 ,88.0378576538594
4.2482706 ,Left ,41.5420909947801 ,53.893605621061 ,88.0535718205153
4.2708215 ,Left ,41.5431852327515 ,53.8998717234729 ,88.060029116837
4.2872555 ,Left ,41.5331613095257 ,53.8945665129827 ,88.0722551183966
4.3083184 ,Left ,41.5056609035094 ,53.874197160038 ,88.0752385998233
4.3226887 ,Left ,41.4983103959266 ,53.8523997252728 ,88.0785522882329
4.3457342 ,Left ,41.4903321581622 ,53.8328172491411 ,88.0829144256763
4.3683176 ,Left ,41.4939531144973 ,53.8029339599348 ,88.091263096761
4.389405 ,Left ,41.4783946329302 ,53.7753350034939 ,88.0922351117767
4.4057159 ,Left ,41.4447466786263 ,53.7680584712495 ,88.084863117383
4.428215 ,Left ,41.4340279390157 ,53.7719024939854 ,88.0709163675665
4.4430017 ,Left ,41.39920821277 ,53.7993686905082 ,88.082135000541
4.4657249 ,Left ,41.3375097573635 ,53.8390042759609 ,88.1112469825796
4.4882929 ,Left ,41.3282409257508 ,53.8862207294417 ,88.1194587373198
4.5094901 ,Left ,41.3135651772581 ,53.9172273340068 ,88.085475892643
4.5258649 ,Left ,41.326654734627 ,53.9570400925582 ,88.0555467793312
4.5483269 ,Left ,41.2613089869499 ,53.9972789553086 ,88.0352790071136
4.5694444 ,Left ,41.1822842441439 ,54.0308899516679 ,88.0081154149163
4.585814 ,Left ,41.1364715966363 ,54.0474175329726 ,87.979891127838
4.6084428 ,Left ,41.0948204551333 ,54.0554475418554 ,87.9283974475726
4.6294849 ,Left ,41.0914803247041 ,54.0640796060145 ,87.9043190323614
4.6457856 ,Left ,41.0637084510321 ,54.0534095527974 ,87.930355911483
4.6683069 ,Left ,41.0312458703022 ,54.0163616248225 ,87.9551823436036
4.6893164 ,Left ,40.9626821572276 ,53.9998390663316 ,87.95399237104
4.7058342 ,Left ,40.929941322138 ,53.9699862691025 ,87.962841862142
4.7283073 ,Left ,40.9445389028119 ,53.9074854519708 ,87.9495181771553
4.7493803 ,Left ,40.9756186728104 ,53.8286825960628 ,87.8997333911776
4.7672546 ,Left ,40.9727520157543 ,53.7502108254395 ,87.8745975404852
4.7882977 ,Left ,40.9658394501841 ,53.704657902857 ,87.8808202656839
4.8104155 ,Left ,40.9478799084226 ,53.7347472321524 ,87.8765567632045
4.8257265 ,Left ,40.9645212433152 ,53.8131822186874 ,87.8624558158792
4.848322 ,Left ,41.051514249895 ,53.8754550335534 ,87.8851727142872
4.8694053 ,Left ,41.0849049412382 ,53.883636640735 ,87.92303822202
4.885877 ,Left ,41.0570072714395 ,53.8696342004096 ,87.9168878964599
4.9082207 ,Left ,41.026217604385 ,53.8807452150111 ,87.9176657831574
4.9294316 ,Left ,41.027328106995 ,53.8944176483407 ,87.8901143158152
4.945782 ,Left ,41.0218387461568 ,53.9532512888439 ,87.8746626577133
4.9682809 ,Left ,41.0190580821767 ,54.0141451695091 ,87.872724099758
4.9907713 ,Left ,41.0148608643795 ,54.0713388875394 ,87.8668020024322
5.0058441 ,Left ,41.0707222895376 ,54.1163817801103 ,87.8662407167891
5.0281876 ,Left ,41.0616392938707 ,54.1213112986342 ,87.8729110404638
5.0508568 ,Left ,41.0193425055879 ,54.126715748246 ,87.8952143582216
5.0656207 ,Left ,40.9956036845363 ,54.1140034598222 ,87.9249451436566
5.0884535 ,Left ,41.0171249824217 ,54.0890330796525 ,87.9362664517236
5.1108565 ,Left ,41.070880899404 ,54.043016766493 ,87.9502988831794
5.1253387 ,Left ,41.0957831855796 ,53.9906672520835 ,87.9535471300829
5.1482831 ,Left ,41.0401772566949 ,53.962576659862 ,87.931161699412
5.1707969 ,Left ,40.9658138003892 ,54.0724956971714 ,87.9272411643689
5.1851251 ,Left ,40.916013347134 ,54.2276719086955 ,87.8972135585301
5.2084091 ,Left ,40.920023735853 ,54.3529296664916 ,87.8725595109909
5.2308269 ,Left ,40.9659801336936 ,54.395239201002 ,87.8949620600633
5.251821 ,Left ,40.9869826538641 ,54.370866431174 ,87.9105667541561
5.2683547 ,Left ,40.9662471593834 ,54.3435294755279 ,87.9025678190519
5.2908175 ,Left ,40.972985869762 ,54.3125518330414 ,87.884380961407
5.3051276 ,Left ,40.9752209244489 ,54.274200468363 ,87.8517982877862
5.3282732 ,Left ,40.9773235473035 ,54.2579455583458 ,87.8648755138056
5.3583336 ,Left ,40.9683400664275 ,54.2479314753232 ,87.8738753580005
5.3651337 ,Left ,40.916001873433 ,54.2779714087144 ,87.8373518321032
5.3883151 ,Left ,40.8492419233931 ,54.3366276982605 ,87.8113332663027
5.4107245 ,Left ,40.7863093327966 ,54.4014113918127 ,87.7949640603483
5.4317986 ,Left ,40.7233433146604 ,54.4675823421319 ,87.7654357743076
5.4481605 ,Left ,40.6627345791161 ,54.4947567551062 ,87.7112541394172
5.4706777 ,Left ,40.6078527472787 ,54.4868144466518 ,87.6528218918108
5.4918548 ,Left ,40.5483546561272 ,54.5038993032014 ,87.638217247061
5.5082539 ,Left ,40.4930021856428 ,54.5645027463307 ,87.664215484809
5.5307773 ,Left ,40.4994048744868 ,54.6247832162663 ,87.696917212535
5.5517949 ,Left ,40.4946049898748 ,54.691384904025 ,87.6992868722893
5.5683063 ,Left ,40.3788678543818 ,54.7231240660216 ,87.679848837052
5.5907761 ,Left ,40.2521528340021 ,54.6910135032949 ,87.6746114194387
5.6119045 ,Left ,40.2148359036632 ,54.5893657612517 ,87.6765269580152
5.6281975 ,Left ,40.3098616400239 ,54.396340324528 ,87.6698115114147
5.6507113 ,Left ,40.3896032542419 ,54.1619452603953 ,87.6270188965511
5.6718607 ,Left ,40.3442066353179 ,53.9345513779864 ,87.5652001924633
5.6876416 ,Left ,40.3247426636587 ,53.7925821202683 ,87.5507307165232
5.7108428 ,Left ,40.3867998634323 ,53.7113950088587 ,87.5123632715595
5.73181 ,Left ,40.5152937817232 ,53.6727968013452 ,87.4689874402176
5.7483186 ,Left ,40.6120781368447 ,53.6729043585233 ,87.4727930932937
5.770536 ,Left ,40.5944660334432 ,53.6927417779693 ,87.480235178205
5.7994205 ,Left ,40.615367862387 ,53.7764439556733 ,87.5122324081083
5.8076848 ,Left ,40.7053486258722 ,53.8705790938237 ,87.5260219523882
5.830703 ,Left ,40.7932328649843 ,53.933690407271 ,87.5274204587782
5.851911 ,Left ,40.8884857489767 ,53.9419866674306 ,87.5589157225408
5.8681319 ,Left ,40.9353398708445 ,53.9121660387629 ,87.601677077978
5.8907962 ,Left ,40.9240953608126 ,53.8492582304733 ,87.6181876217478
5.9133282 ,Left ,40.9050469322152 ,53.8300741338608 ,87.6329474842791
5.9284266 ,Left ,40.9317714797134 ,53.840821128352 ,87.6536893762025
5.9507143 ,Left ,40.9674229617328 ,53.842529343431 ,87.6785153500279
5.9732951 ,Left ,41.0197749525002 ,53.8183890485443 ,87.7271742867995
5.9882958 ,Left ,41.0756337039997 ,53.7639508403854 ,87.7833194623822
6.0108929 ,Left ,41.1448871238146 ,53.7113658798992 ,87.8448755791711
6.0333205 ,Left ,41.2062628306853 ,53.6717140523562 ,87.8986149250314
6.0557175 ,Left ,41.2678393455654 ,53.6518803528014 ,87.9425657520614
6.0707804 ,Left ,41.3348298883709 ,53.6326276290415 ,87.9810921872142
6.0933547 ,Left ,41.3683141662896 ,53.6297226827333 ,88.0007010437823
6.1076162 ,Left ,41.3802577038183 ,53.651397775179 ,88.0177792423944
6.1308085 ,Left ,41.3912876024596 ,53.6791089794503 ,88.0337272283109
6.1532409 ,Left ,41.3861416504853 ,53.682263949334 ,88.0552337268137
6.1676195 ,Left ,41.3846321562578 ,53.6632769007991 ,88.0802257595878
6.1908189 ,Left ,41.4026170068078 ,53.6450454334556 ,88.1063543273315
6.2132175 ,Left ,41.4344885105547 ,53.626425657513 ,88.1468673409127
6.2276386 ,Left ,41.4625994733443 ,53.6038484783546 ,88.1855632698451
6.2508107 ,Left ,41.4743700463224 ,53.5939226557282 ,88.2098051926036
6.2732543 ,Left ,41.4773931865521 ,53.601632976957 ,88.2192486526097
6.2876469 ,Left ,41.4768833357025 ,53.6084921720783 ,88.2115563131889
6.3107641 ,Left ,41.4551994857576 ,53.6285722056105 ,88.1896368003099
6.3334962 ,Left ,41.4125887500487 ,53.6430572594493 ,88.1670680242701
6.3476733 ,Left ,41.3835243693303 ,53.6344871855757 ,88.1472107037315
6.370826 ,Left ,41.3660411002125 ,53.6151570760289 ,88.1202088529369
6.3933697 ,Left ,41.366135701405 ,53.6181567062084 ,88.1049019502171
6.4144666 ,Left ,41.3974985932289 ,53.6294117805476 ,88.1133862328029
6.4308333 ,Left ,41.4424251045252 ,53.6804950624532 ,88.0918842068809
6.4534226 ,Left ,41.4795586713468 ,53.7440655859137 ,88.0694689894321
6.4744426 ,Left ,41.438298432474 ,53.8298480084634 ,88.0374043355648
6.4907479 ,Left ,41.36210889451 ,53.9118685941757 ,88.0056758055291
6.5132528 ,Left ,41.3169137105259 ,53.9494049756581 ,88.0000558573553
6.5343642 ,Left ,41.2483406481911 ,53.933951999261 ,87.9749975407883
6.5507942 ,Left ,41.2129445641693 ,53.90849484126 ,87.9694094549708
6.573334 ,Left ,41.237793792814 ,53.8839994528998 ,87.9865590628491
6.5945101 ,Left ,41.2173177235486 ,53.8681329553922 ,88.0075187380455
6.6107301 ,Left ,41.1613758563477 ,53.8447399052371 ,88.0229199054112
6.6347302 ,Left ,41.1306242734206 ,53.8037266617127 ,88.0007766029632
6.6544094 ,Left ,41.1054072612595 ,53.7767272355628 ,87.9549854590017
6.6709068 ,Left ,41.0635505584743 ,53.751091306837 ,87.9040940851386
6.6933493 ,Left ,41.0073437191925 ,53.7286609631393 ,87.8524807116758
6.6987117 ,Left ,40.9746761220526 ,53.7294465558208 ,87.7968345394395
6.721213 ,Left ,40.9375276750225 ,53.7318672732979 ,87.7727754622237
6.7362279 ,Left ,40.9431577558816 ,53.7454969122512 ,87.7833786924032
6.7586653 ,Left ,40.9664315219637 ,53.7571298709392 ,87.7950381295656
6.7812192 ,Left ,41.0333229773957 ,53.7573225715965 ,87.8119556053326
6.7962941 ,Left ,41.0777879456196 ,53.75290352559 ,87.8079093192862
6.8201083 ,Left ,41.0843322828109 ,53.7334643902924 ,87.8094010181001
6.841224 ,Left ,41.0593596685372 ,53.7346740795095 ,87.7887503840857
6.8561604 ,Left ,41.0304987441565 ,53.7491676774344 ,87.7740038953859
6.8787551 ,Left ,40.9873255860226 ,53.7564321285076 ,87.7787691160996
6.9012247 ,Left ,40.9703550942364 ,53.7502683856389 ,87.7884953517659
6.9161764 ,Left ,40.9870758434353 ,53.7737121118809 ,87.8037864861102
6.9389317 ,Left ,41.0029460878525 ,53.8332935759665 ,87.8318846415584
6.9613459 ,Left ,41.0541019664102 ,53.9221517199996 ,87.8534080077488
6.9762004 ,Left ,41.072759222521 ,53.9976187956386 ,87.8419513297767
6.9987161 ,Left ,41.1013836945842 ,54.0337074662268 ,87.8366796004916
7.0212267 ,Left ,41.0588552777578 ,54.0353719207948 ,87.7979185759467
7.0361755 ,Left ,40.9794633817084 ,54.0444670732639 ,87.7364226908619
7.0586738 ,Left ,40.9590374581178 ,54.0484835902695 ,87.7110796580506
7.081218 ,Left ,40.9327194795882 ,53.998209358336 ,87.7011812882543
7.0962282 ,Left ,40.9466151231928 ,53.9399872609007 ,87.6977996502464
7.1187046 ,Left ,40.9696682772628 ,53.8769345785585 ,87.7242044772298
7.1412613 ,Left ,40.9979572639906 ,53.8444580394397 ,87.7212198726031
7.1562458 ,Left ,40.9774157488781 ,53.8407579931576 ,87.7285236421366
7.1787603 ,Left ,40.9724483723742 ,53.9133440944052 ,87.7316473191469
7.2101035 ,Left ,40.9733046724468 ,54.012122876507 ,87.7233107514283
7.216159 ,Left ,40.9655245784608 ,54.0940967107188 ,87.6954268149968
7.2386356 ,Left ,40.9302436060977 ,54.1263267293909 ,87.6890440110323
7.2612216 ,Left ,40.9322781721644 ,54.0780327050894 ,87.6990598733392
7.2761399 ,Left ,40.9227877659469 ,54.0047829311886 ,87.6977159940412
7.2987005 ,Left ,40.914782536021 ,53.9442262445058 ,87.7000209535402
7.3211429 ,Left ,40.9769323960414 ,53.8913111254595 ,87.7079622297794
7.33617 ,Left ,41.0470949074735 ,53.8350050113688 ,87.7166218080757
7.3661907 ,Left ,41.0997929672999 ,53.7918509328498 ,87.7048884855571
7.3811718 ,Left ,41.0984372957282 ,53.7932215498657 ,87.7033031565051
7.3961416 ,Left ,41.0889889144781 ,53.8123714584726 ,87.6776313235011
7.4201468 ,Left ,41.0941777659261 ,53.854967532502 ,87.6424320782272
7.4411816 ,Left ,41.1081460219408 ,53.898657615686 ,87.6350513773027
7.4576538 ,Left ,41.084745902 ,53.9446422446365 ,87.6495136069827
7.4787668 ,Left ,41.0191557677761 ,54.017030128264 ,87.6446743161185
7.4964972 ,Left ,40.933889278852 ,54.0884395569765 ,87.6013523957451
7.5175711 ,Left ,40.8782846731704 ,54.1300441647008 ,87.5459485012493
7.5386468 ,Left ,40.8361879328944 ,54.146991409221 ,87.4878363012078
7.5611872 ,Left ,40.7280646061673 ,54.2027928592569 ,87.407594258912
7.5781496 ,Left ,40.581344132044 ,54.2646851637252 ,87.3032458156844
7.5987532 ,Left ,40.4793472448594 ,54.3052950920872 ,87.2086828070734
7.6211699 ,Left ,40.4051216842109 ,54.313718057602 ,87.1243580346166
7.6376553 ,Left ,40.3585123501821 ,54.3010066774019 ,87.0843586354039
7.6586708 ,Left ,40.3374884136903 ,54.3206640840206 ,87.1218609758888
7.6811677 ,Left ,40.3505822397857 ,54.3466663529429 ,87.17595598989
7.6976308 ,Left ,40.4266560534047 ,54.3645443472135 ,87.2276133108065
7.7186841 ,Left ,40.5538353688673 ,54.3193843566749 ,87.2663049710392
7.7427412 ,Left ,40.6474355150173 ,54.2078267193128 ,87.2721114535472
7.7612963 ,Left ,40.6771776651621 ,54.0495632663473 ,87.2346642873223
7.7787637 ,Left ,40.6771294038959 ,53.8955178860331 ,87.2149455392952
7.8011842 ,Left ,40.690850967556 ,53.7974567082833 ,87.2514595304536
7.8191158 ,Left ,40.7305884064257 ,53.7137613220772 ,87.3214605476759
7.838681 ,Left ,40.7939395421862 ,53.6318141878396 ,87.3611911702532
7.8612056 ,Left ,40.9181456134185 ,53.5604143375348 ,87.3924403254177
7.8790533 ,Left ,41.0379690845344 ,53.5152647221233 ,87.4277323356882
7.8987385 ,Left ,41.1197296093874 ,53.4866754423751 ,87.4451978897415
7.9212207 ,Left ,41.1932658064334 ,53.4991618521485 ,87.4704191359068
7.9389946 ,Left ,41.2308567617688 ,53.5588620032674 ,87.4539739137084
7.966227 ,Left ,41.2421951818145 ,53.6495662518882 ,87.4228776886011
7.9777272 ,Left ,41.2706369451758 ,53.731945299498 ,87.4507087127381
7.999573 ,Left ,41.310625705146 ,53.7659771176833 ,87.5011829067019
8.0186184 ,Left ,41.3621093562924 ,53.7511410629217 ,87.5533121826524
8.0366079 ,Left ,41.4030629373864 ,53.7103854966972 ,87.597555555522
8.0610634 ,Left ,41.4881777517019 ,53.695289354802 ,87.641093334623
8.0786622 ,Left ,41.5954281540987 ,53.6945555823548 ,87.6726751585083
8.0965677 ,Left ,41.692486780474 ,53.6652414280039 ,87.6732121082801
8.1191005 ,Left ,41.7203342048567 ,53.6441639038803 ,87.6401070861825
8.1387507 ,Left ,41.6314551421628 ,53.6507551960491 ,87.5645330050988
8.1565946 ,Left ,41.5596528355413 ,53.6843930098697 ,87.4825231236286
8.1790223 ,Left ,41.5274403887346 ,53.6963852762716 ,87.4236229802571
8.2015654 ,Left ,41.587354957747 ,53.6475076886595 ,87.4189751817381
8.216592 ,Left ,41.5668520572227 ,53.6031995299894 ,87.445067779211
8.2391254 ,Left ,41.5403111885698 ,53.5588587198707 ,87.5006672775056
8.2601502 ,Left ,41.550718438975 ,53.533565195101 ,87.55681644749
8.2811293 ,Left ,41.5839194024808 ,53.5341901558377 ,87.6005954331248
8.2991273 ,Left ,41.5983022865618 ,53.5349689028406 ,87.6381350835344
8.3186588 ,Left ,41.6142776191982 ,53.5352070508869 ,87.6708430823817
8.3365911 ,Left ,41.5946442741162 ,53.5334622308895 ,87.7058806266705
8.3589432 ,Left ,41.5784763799333 ,53.5165001060445 ,87.7458314447712
8.3787014 ,Left ,41.5414613271186 ,53.4961257624988 ,87.7950714463921
8.3964807 ,Left ,41.5198251473687 ,53.4658635286804 ,87.8334557751148
8.4190431 ,Left ,41.5466836621443 ,53.4351955673261 ,87.8576733565765
8.4400895 ,Left ,41.5926771999266 ,53.4164843486352 ,87.8835003929688
8.4566377 ,Left ,41.6054167389163 ,53.4052069894684 ,87.9000467812537
8.4836825 ,Left ,41.5935199538429 ,53.4161374875941 ,87.9092001486075
8.5001768 ,Left ,41.5758376421343 ,53.4492279264131 ,87.8998424412371
8.5166322 ,Left ,41.5561775616072 ,53.4866945152455 ,87.8931842953348
8.5383199 ,Left ,41.5418729043442 ,53.5133453926463 ,87.8980393567009
8.559523 ,Left ,41.5163617399024 ,53.5249564714481 ,87.9130300607759
8.5757592 ,Left ,41.5108237267105 ,53.5279355708145 ,87.9442253559503
8.5982804 ,Left ,41.525606237522 ,53.521487314169 ,87.9785639547298
8.6191902 ,Left ,41.5575197461408 ,53.5147811477981 ,88.0129910925523
8.63582 ,Left ,41.5775966383283 ,53.517543970595 ,88.0311212769694
8.6582685 ,Left ,41.5733073306171 ,53.5161926252985 ,88.0414417402408
8.6793829 ,Left ,41.5687863558929 ,53.5163085684745 ,88.0397023317333
8.6958192 ,Left ,41.5415472088843 ,53.5347923893409 ,88.0200036273883
8.7183131 ,Left ,41.508152348619 ,53.5573619934259 ,87.9992723099575
8.7407818 ,Left ,41.465612955405 ,53.5800753599441 ,87.9939309419008
8.7557813 ,Left ,41.4389497822399 ,53.5825123022916 ,88.0178700718301
8.7782169 ,Left ,41.4358982454189 ,53.5747626276316 ,88.0463124197982
8.8068118 ,Left ,41.4451803213751 ,53.5710874018216 ,88.0820153759122
8.8159511 ,Left ,41.4651188933575 ,53.566170375177 ,88.124151993121
8.8382963 ,Left ,41.4810373068771 ,53.55610765235 ,88.159891093389
8.8610897 ,Left ,41.4769654397353 ,53.5497737856691 ,88.1769775091993
8.8751484 ,Left ,41.4740518425659 ,53.550935845443 ,88.1769437122915
8.8982351 ,Left ,41.4693529466417 ,53.5583364185362 ,88.1688481501906
8.9208291 ,Left ,41.4463329674555 ,53.5601919132215 ,88.1654524383485
8.9351766 ,Left ,41.4287942023845 ,53.5451858012027 ,88.1755233743667
8.9582962 ,Left ,41.4294197027275 ,53.5115173807881 ,88.1907920487447
8.9808286 ,Left ,41.4303232547269 ,53.4657400161914 ,88.2097395340999
8.9950502 ,Left ,41.4448263027101 ,53.4201932433561 ,88.2276600793551
9.0182317 ,Left ,41.4504561882693 ,53.3845909257145 ,88.2358290350823
9.0408071 ,Left ,41.433932556613 ,53.3563504071034 ,88.2346783528701
9.0551243 ,Left ,41.4043505653943 ,53.3343728131828 ,88.2243675462533
9.0843473 ,Left ,41.3558869483549 ,53.3056289898363 ,88.2052910529314
9.1082964 ,Left ,41.3182568330255 ,53.2718268765768 ,88.1949205570953
9.1150819 ,Left ,41.2797338996214 ,53.2390065315696 ,88.1811060761236
9.1383048 ,Left ,41.2479095780427 ,53.1934131005682 ,88.1771322629148
9.1607872 ,Left ,41.2245058792406 ,53.1559348060297 ,88.1848655223137
9.1750242 ,Left ,41.2341055836127 ,53.1348333265514 ,88.2010504330567
9.1982892 ,Left ,41.2464710943816 ,53.1275328935515 ,88.2245666702187
9.2211726 ,Left ,41.2403524956238 ,53.1219857696213 ,88.2467391596957
9.24337 ,Left ,41.1944260456498 ,53.1362600468618 ,88.2827509105483
9.2582901 ,Left ,41.1378154027533 ,53.1701435684446 ,88.3064701912171
9.2806871 ,Left ,41.0490791117677 ,53.2031091750136 ,88.2846175120116
9.30187 ,Left ,40.9725734626666 ,53.2097042056929 ,88.2629904244746
9.3182724 ,Left ,40.9643042824458 ,53.1694822199053 ,88.2554321749145
9.3408061 ,Left ,40.9341876523998 ,53.1074986338823 ,88.2368917638346
9.3621694 ,Left ,40.9417862171002 ,53.0648112771873 ,88.231686967493
9.3857808 ,Left ,40.9625506570879 ,53.028326694812 ,88.2404621735648
9.4007953 ,Left ,40.9546447804526 ,52.9856706834554 ,88.2400253876117
9.421875 ,Left ,40.9340749218642 ,52.9443837608618 ,88.2371096370182
9.4383379 ,Left ,40.8987838575401 ,52.9040525789989 ,88.2246847980176
9.4608869 ,Left ,40.8710455344701 ,52.873489254104 ,88.1971664642248
9.4817957 ,Left ,40.859459472911 ,52.8450789801061 ,88.1891036092615
9.4982975 ,Left ,40.8296994396432 ,52.8351850492079 ,88.1929208594484
9.520821 ,Left ,40.7678910791849 ,52.866001093185 ,88.2196480648929
9.5418317 ,Left ,40.7486874001466 ,52.8824509421903 ,88.2413657783707
9.5583261 ,Left ,40.7682015065431 ,52.9142271180759 ,88.2511842829789
9.5807128 ,Left ,40.759248345148 ,52.9427083535588 ,88.2460545223744
9.6018141 ,Left ,40.7215477033834 ,52.9811033830115 ,88.2343562935117
9.6183175 ,Left ,40.7084851189401 ,53.0206246753153 ,88.2180514566832
9.6407659 ,Left ,40.7285481953205 ,53.0490972209005 ,88.2145834149567
9.6618968 ,Left ,40.7440479014394 ,53.0725719336921 ,88.2318885957477
9.6782229 ,Left ,40.7252156299544 ,53.07927964868 ,88.2579117981939
9.7007569 ,Left ,40.7116787469787 ,53.0717096154516 ,88.2810818230428
9.7232769 ,Left ,40.7248384487386 ,53.0395125236308 ,88.299953901615
9.7382954 ,Left ,40.7555656334529 ,52.9981188733244 ,88.3350769125853
9.7608146 ,Left ,40.7944747244471 ,52.9625821800403 ,88.3811656319162
9.7833893 ,Left ,40.831007369162 ,52.923972405806 ,88.4105316939809
9.8043191 ,Left ,40.8654279438151 ,52.8976053302667 ,88.4223938632101
9.8207288 ,Left ,40.8903892905739 ,52.8969928244622 ,88.4279610467019
9.8432861 ,Left ,40.8973949394515 ,52.9131586469155 ,88.4297677709651
9.8575284 ,Left ,40.9093891422793 ,52.9306420029454 ,88.4298151949679
9.8807726 ,Left ,40.940292478131 ,52.9208203374559 ,88.4341286822356
9.9032897 ,Left ,40.9355507816394 ,52.8927836523732 ,88.4510623541096
9.9181149 ,Left ,40.9264694119338 ,52.8923177876959 ,88.4784942481887
9.9408036 ,Left ,40.9395224159419 ,52.9145043680112 ,88.5121274356325
9.9632572 ,Left ,40.9669209995775 ,52.9380408388524 ,88.54852468228
9.9777145 ,Left ,40.9984884782263 ,52.9579967053023 ,88.5741931223507
10.0007998 ,Left ,41.00769652681 ,52.9918525411219 ,88.590911721795
10.0232952 ,Left ,40.9852390116679 ,53.0398209848007 ,88.6034027491867
10.0376972 ,Left ,40.9323058051473 ,53.0993247809693 ,88.6080836888453
10.0608551 ,Left ,40.8974548994962 ,53.1604173315343 ,88.6195683452057
10.0832831 ,Left ,40.9007675648976 ,53.2067756343123 ,88.6414433503763
10.0975687 ,Left ,40.9115195390659 ,53.2385735564002 ,88.6735048726422
10.1209248 ,Left ,40.9041800155211 ,53.2762728483696 ,88.718755615794
10.1433121 ,Left ,40.8962237905543 ,53.3171017603553 ,88.7683608014886
10.1576252 ,Left ,40.9044624435042 ,53.3426257919131 ,88.8053163606951
10.1807966 ,Left ,40.9358739075241 ,53.363874992963 ,88.829476141409
10.2032823 ,Left ,40.9456720754143 ,53.3794117923367 ,88.8429575241248
10.224316 ,Left ,40.9327819995409 ,53.3988074530021 ,88.8500208668756
10.2407815 ,Left ,40.9212707025761 ,53.4091212476779 ,88.8541314934219
10.2631715 ,Left ,40.9260841150515 ,53.4061832287868 ,88.8533538511142
10.2844628 ,Left ,40.9518860778602 ,53.3833130310717 ,88.8499533376621
10.3008645 ,Left ,40.9797762481572 ,53.3480784495548 ,88.8466333676719
10.323247 ,Left ,41.0179076681094 ,53.3131512652825 ,88.839423060245
10.3445999 ,Left ,41.0478467040251 ,53.2856931867172 ,88.8291992629015
10.360842 ,Left ,41.0689666214411 ,53.2599882842233 ,88.8203372603162
10.3893101 ,Left ,41.0860228300065 ,53.2360414994318 ,88.8064691400098
10.404354 ,Left ,41.1056093790765 ,53.2134189066825 ,88.785691090129
10.4271105 ,Left ,41.1208411708279 ,53.1991949252077 ,88.7693431298874
10.4433344 ,Left ,41.1199811800802 ,53.1822089827155 ,88.7638804569023
10.4718367 ,Left ,41.1183362985134 ,53.1632667580576 ,88.7604309444202
10.4807364 ,Left ,41.127948984544 ,53.1457381862437 ,88.7645214910115
10.5032387 ,Left ,41.159924295759 ,53.1459498214283 ,88.7651170160408
10.5242693 ,Left ,41.2012163976915 ,53.1750848051933 ,88.7900665252273
10.5407557 ,Left ,41.2106137201489 ,53.2227376072621 ,88.7929456388748
10.563228 ,Left ,41.1997709896131 ,53.2695927835981 ,88.7676828228766
10.5843379 ,Left ,41.1800491612575 ,53.306356825383 ,88.7226930344917
10.6009084 ,Left ,41.1168777674089 ,53.3524305800159 ,88.6697562336419
10.6232836 ,Left ,41.0019567270228 ,53.3980790769908 ,88.5992102989114
10.6460168 ,Left ,40.9365610430008 ,53.4310526676765 ,88.5156348585129
10.66104 ,Left ,40.8954661452753 ,53.4408620890212 ,88.4551073399292
10.6832994 ,Left ,40.8576847396861 ,53.4171414230194 ,88.4232467893505
10.7058086 ,Left ,40.8565471298461 ,53.4025525822671 ,88.4109875197701
10.7207914 ,Left ,40.8497340873257 ,53.4240913118905 ,88.4183309187819
10.7493471 ,Left ,40.8373037827187 ,53.4515646913768 ,88.4134451217764
10.7732908 ,Left ,40.831414052801 ,53.4988056018573 ,88.4162601921082
10.780059 ,Left ,40.8124431581051 ,53.5453695142245 ,88.4084572364931
10.8032672 ,Left ,40.8203094114963 ,53.6129309884868 ,88.4198722374586
10.8258395 ,Left ,40.7973419073617 ,53.6656669815609 ,88.4154123131686
10.8399497 ,Left ,40.7664444671178 ,53.6795498477331 ,88.3997021910788
10.8631509 ,Left ,40.7866520675491 ,53.6380278478014 ,88.3742182622572
10.8857211 ,Left ,40.808993328306 ,53.5715872970445 ,88.3519143878472
10.9000506 ,Left ,40.8235628871584 ,53.488490789404 ,88.3439979875995
10.92329 ,Left ,40.8455543818236 ,53.3942496100232 ,88.3253627456341
10.9458693 ,Left ,40.8491972999708 ,53.3290024948642 ,88.2986302223364
10.9603306 ,Left ,40.853748161556 ,53.3288521799787 ,88.3002637008215
10.9832875 ,Left ,40.8386862664473 ,53.3763289163357 ,88.2996743920286
11.0057719 ,Left ,40.8664776134547 ,53.4620770017656 ,88.3108898923192
11.0268865 ,Left ,40.8739411403868 ,53.5237050173296 ,88.3339517598077
11.0522125 ,Left ,40.8423753525439 ,53.5441541721425 ,88.3453916995428
11.0657571 ,Left ,40.8355609002698 ,53.5474487511463 ,88.341723408755
11.0800165 ,Left ,40.8974566864859 ,53.5295193130904 ,88.3239664374983
11.1032736 ,Left ,40.9144650537942 ,53.4857838824761 ,88.3106211317642
11.1258229 ,Left ,40.8584469486435 ,53.43753879931 ,88.2867626543508
11.1468411 ,Left ,40.8173772551627 ,53.4191643851452 ,88.2638888234828
11.1631629 ,Left ,40.8346745524196 ,53.41448609725 ,88.2645881088704
11.1857709 ,Left ,40.8718748296392 ,53.3995477272831 ,88.2577732162459
11.2070191 ,Left ,40.867184723039 ,53.3963233844079 ,88.2603710024984
11.2232776 ,Left ,40.8294660932751 ,53.4063883074387 ,88.27474050157
11.2471995 ,Left ,40.8144773916744 ,53.4161383371468 ,88.2819684164274
11.2669068 ,Left ,40.8286465162324 ,53.4509896301253 ,88.3031380392861
11.2832298 ,Left ,40.8143295877443 ,53.5063930735665 ,88.3233208000158
11.3058044 ,Left ,40.7714343007374 ,53.5765199104361 ,88.3368749822791
11.3268147 ,Left ,40.7457610636071 ,53.6456855235962 ,88.313911120554
11.3432458 ,Left ,40.7480972540708 ,53.68139216982 ,88.2857803646014
11.3657687 ,Left ,40.7244115775683 ,53.6691555495415 ,88.2539092844348
11.386926 ,Left ,40.7212584679046 ,53.6218949255312 ,88.2385869639091
11.4032919 ,Left ,40.6982107548146 ,53.5605507840737 ,88.222243259218
11.4258035 ,Left ,40.7039776794023 ,53.4826267637454 ,88.2215962549846
11.4468988 ,Left ,40.7385213403514 ,53.388731558495 ,88.2302994979743
11.4631348 ,Left ,40.8065386095463 ,53.2875611353791 ,88.2320543585514
11.4857958 ,Left ,40.8596585604392 ,53.2071194758318 ,88.2314414825152
11.5068312 ,Left ,40.9166869318018 ,53.1340981505271 ,88.2277426743378
11.52326 ,Left ,40.9533110362974 ,53.0850800200234 ,88.2341999615006
11.545759 ,Left ,40.9637298655901 ,53.0876531681436 ,88.238068798975
11.5682725 ,Left ,40.9909100645556 ,53.1297212122781 ,88.2346815299634
11.5832891 ,Left ,41.0061137196438 ,53.1916612965433 ,88.231175190628
11.6058182 ,Left ,40.9997176278719 ,53.2451976402763 ,88.2339527283192
11.6296627 ,Left ,40.9847387281479 ,53.2709811501075 ,88.2438548874358
11.6432265 ,Left ,40.9668494934593 ,53.2939891781508 ,88.2468393881535
11.6657748 ,Left ,40.9521016766943 ,53.312085351884 ,88.2521283372961
11.6882655 ,Left ,40.9298483446086 ,53.3130650948046 ,88.2527263254988
11.7026173 ,Left ,40.8867002150211 ,53.3233572866634 ,88.2415442334581
11.725784 ,Left ,40.8535639733212 ,53.3573568022288 ,88.2225307724049
11.748283 ,Left ,40.8219868073782 ,53.4019950172921 ,88.19104106637
11.7626116 ,Left ,40.7910153541544 ,53.457827278693 ,88.1588580315874
11.7857951 ,Left ,40.7467163885501 ,53.510693441898 ,88.1252798107153
11.8082833 ,Left ,40.6888144282667 ,53.5917444581407 ,88.1076264177299
11.822632 ,Left ,40.6015265677961 ,53.6548099877238 ,88.0785202152522
11.8456963 ,Left ,40.556911120358 ,53.6819197924387 ,88.048345345552
11.8682114 ,Left ,40.5263940803692 ,53.7075319367877 ,88.0100426068323
11.8830151 ,Left ,40.4699640500965 ,53.716928644056 ,87.9716342825124
11.9058007 ,Left ,40.4114549203635 ,53.7289025892013 ,87.9293053426427
11.9282948 ,Left ,40.3779275503243 ,53.751830822689 ,87.8854275615771
11.9426295 ,Left ,40.3631772908125 ,53.7780439784658 ,87.8530737624127
11.9658137 ,Left ,40.3348847770802 ,53.7907719826047 ,87.8308806482543
11.9882379 ,Left ,40.3052605360951 ,53.8037636424924 ,87.8115927605423
12.0026213 ,Left ,40.2907658427402 ,53.8410178614321 ,87.8196757147866
12.0258018 ,Left ,40.2769134742847 ,53.8834396549995 ,87.8293368594003
12.0482564 ,Left ,40.2658917287765 ,53.9373737077511 ,87.8360119611928
12.0693279 ,Left ,40.2344783920638 ,53.9667178130301 ,87.8377300551415
12.0857824 ,Left ,40.1887121489871 ,53.9934387420276 ,87.840667584035
12.1082827 ,Left ,40.2174485969399 ,53.9897488354258 ,87.854443362923
12.1291686 ,Left ,40.3488541670512 ,53.9320599761763 ,87.8699352680694
12.1457162 ,Left ,40.3841261663661 ,53.8640925473706 ,87.8860473571482
12.1682542 ,Left ,40.3821917331064 ,53.7719211583898 ,87.9043047552123
12.1893261 ,Left ,40.4464920892807 ,53.6564805376211 ,87.9365202859788
12.2058017 ,Left ,40.5454401575595 ,53.5749931263107 ,87.9802571670413
12.2282319 ,Left ,40.6228244227284 ,53.477403713787 ,88.0345998871666
12.2494411 ,Left ,40.6870546419717 ,53.3933396526089 ,88.0736282992095
12.2658073 ,Left ,40.7322881090547 ,53.3153376771955 ,88.1023910997092
12.288273 ,Left ,40.764905925709 ,53.213933200567 ,88.1181601079248
12.3093417 ,Left ,40.8092380897986 ,53.1522000859859 ,88.1248097785886
12.3257752 ,Left ,40.8490756151394 ,53.1408767788058 ,88.1357750425491
12.3482959 ,Left ,40.854125105712 ,53.1401648856909 ,88.1599376940945
12.369414 ,Left ,40.8660770003553 ,53.1611411392817 ,88.1729106458401
12.3859204 ,Left ,40.8661763994545 ,53.1653409032655 ,88.1719129138405
12.4080296 ,Left ,40.8600658939235 ,53.1694918975465 ,88.1709474908825
12.4150637 ,Left ,40.8475056737002 ,53.1804854980429 ,88.1542737655158
12.4361915 ,Left ,40.8886281488556 ,53.1606916616323 ,88.1564663342177
12.4511991 ,Left ,40.8982895671681 ,53.1315839722686 ,88.1669583777217
12.473623 ,Left ,40.9010879947643 ,53.1077926058641 ,88.1820754182795
12.4961805 ,Left ,40.8915269769031 ,53.0908284776806 ,88.1981956900094
12.5113199 ,Left ,40.9132992510357 ,53.0699638627874 ,88.19782004015
12.5336622 ,Left ,40.9397462936576 ,53.0563406875313 ,88.1846146963725
12.5561304 ,Left ,40.9558344193943 ,53.0756669061872 ,88.1854655216256
12.5711446 ,Left ,40.9445693588389 ,53.12254105712 ,88.1949122999878
12.5936152 ,Left ,40.9439955947862 ,53.182733960394 ,88.2066707075284
12.6161621 ,Left ,40.9425246267627 ,53.252894387401 ,88.2240987664527
12.6312462 ,Left ,40.9291320920408 ,53.3247827613626 ,88.2304739631232
12.6536924 ,Left ,40.9466652090512 ,53.3899695110884 ,88.2360453544632
12.6761231 ,Left ,40.9549324738758 ,53.4481288412647 ,88.2357736030241
12.6925512 ,Left ,40.9512355762193 ,53.5006035175868 ,88.2387469702088
12.7136156 ,Left ,40.923316524892 ,53.5568280292966 ,88.2382747293362
12.7361498 ,Left ,40.9094778273283 ,53.6156365991388 ,88.2366583446878
12.7511293 ,Left ,40.9187379068706 ,53.6654445826033 ,88.2277055033329
12.7737171 ,Left ,40.9342981588705 ,53.698881324151 ,88.2240083292039
12.7962948 ,Left ,40.9351333803833 ,53.7124297654672 ,88.2238488347259
12.811134 ,Left ,40.9479386658768 ,53.712130062233 ,88.222067263279
12.8336729 ,Left ,40.9558219876098 ,53.7115289534839 ,88.2172520009795
12.8561551 ,Left ,40.9694780022033 ,53.7021022938055 ,88.2130717469672
12.873972 ,Left ,40.9735195824276 ,53.6849049397917 ,88.2093058797005
12.8937141 ,Left ,40.9734833952061 ,53.6580049897653 ,88.2079977685181
12.9162118 ,Left ,40.9800770625945 ,53.6123180998601 ,88.2016629249903
12.931157 ,Left ,40.9877432418612 ,53.5486857931875 ,88.1929100661492
12.9536169 ,Left ,40.9956589170048 ,53.4863637170749 ,88.1888256065846
12.9760849 ,Left ,41.0088759252009 ,53.4332479089091 ,88.1872017736458
12.9912024 ,Left ,41.0085553498395 ,53.3948562545586 ,88.1842933434586
13.013718 ,Left ,41.0177792314201 ,53.3670741463069 ,88.1923581159557
13.0361795 ,Left ,41.0323802565359 ,53.3534997355711 ,88.2051179740083
13.0511483 ,Left ,41.0528386210881 ,53.3802927070098 ,88.229700326293
13.0736839 ,Left ,41.0833330509373 ,53.4202951954143 ,88.2575186741632
13.0963376 ,Left ,41.0811943223137 ,53.4653290381089 ,88.2642114750508
13.1125402 ,Left ,41.1240188891199 ,53.5039237726144 ,88.2687553316258
13.1336988 ,Left ,41.0773309931291 ,53.5215829683512 ,88.265151627238
13.1561737 ,Left ,40.9715119428598 ,53.5428710096421 ,88.2458437026051
13.1726256 ,Left ,40.9088786629715 ,53.5866724417118 ,88.2104563614941
13.1936742 ,Left ,40.9056767202358 ,53.6190647998644 ,88.1591646719802
13.2161213 ,Left ,40.8893269306515 ,53.6133625451871 ,88.1336847260328
13.232578 ,Left ,40.8476436409156 ,53.6054849310054 ,88.1095998916412
13.2536924 ,Left ,40.8282147413973 ,53.6184888570211 ,88.0839139971901
13.2718893 ,Left ,40.7998042498813 ,53.6390747540738 ,88.0919208562934
13.2939787 ,Left ,40.7655704160802 ,53.6382343301982 ,88.1024060105113
13.3165992 ,Left ,40.7705192369365 ,53.6034590842669 ,88.0983978237754
13.3376179 ,Left ,40.7992600382267 ,53.557039620152 ,88.1017581778497
13.352628 ,Left ,40.7704505262833 ,53.5147799324861 ,88.1162254826427
13.3736364 ,Left ,40.7355791721978 ,53.5233677265216 ,88.1383473807645
13.3915732 ,Left ,40.7451660866181 ,53.5668806396047 ,88.1558375495032
13.4138459 ,Left ,40.7492467010695 ,53.6125292513032 ,88.1635268056494
13.4336738 ,Left ,40.7613695698681 ,53.6331599866157 ,88.1577923375149
13.451588 ,Left ,40.8009402278768 ,53.616863414583 ,88.1597152427864
13.4740321 ,Left ,40.8144772541076 ,53.5727337856101 ,88.1675034939506
13.4936522 ,Left ,40.8300136038873 ,53.5147675363042 ,88.1788609061
13.5115708 ,Left ,40.8358480653961 ,53.4538767606666 ,88.1665832165252
13.5342455 ,Left ,40.8267459763624 ,53.4235187745609 ,88.1474804178828
13.5536301 ,Left ,40.7929633200883 ,53.4462761459492 ,88.1457460574345
13.5715672 ,Left ,40.7697061097675 ,53.4936956960375 ,88.1388118578643
13.5940862 ,Left ,40.8057213614692 ,53.5787276761383 ,88.1599114316362
13.6166032 ,Left ,40.7959243495353 ,53.6180256233133 ,88.1711589044433
13.6376158 ,Left ,40.7829696039461 ,53.6328015913062 ,88.1691428111222
13.6540145 ,Left ,40.8048810253744 ,53.6112313190922 ,88.1406933257003
13.6737538 ,Left ,40.8253858040093 ,53.5544193435103 ,88.1238984525935
13.6915381 ,Left ,40.7993980304623 ,53.5055582577327 ,88.0999906805496
13.7139608 ,Left ,40.7640473631837 ,53.4819096923946 ,88.0925870491824
13.7336456 ,Left ,40.7699793212374 ,53.4527336486203 ,88.091626812463
13.7521387 ,Left ,40.8081359852494 ,53.4166775623581 ,88.0698361798231
13.7740645 ,Left ,40.8075288108203 ,53.395186756609 ,88.0734335782943
13.7936417 ,Left ,40.7859288764965 ,53.4169330373184 ,88.0593074499288
13.8115375 ,Left ,40.7265413005814 ,53.4426137549341 ,88.0538821217926
13.8340801 ,Left ,40.7370117388202 ,53.542734962234 ,88.0567826705552
13.8537304 ,Left ,40.7072393635865 ,53.6420117532288 ,88.0527401703467
13.8716122 ,Left ,40.6829880813019 ,53.7163004332064 ,88.0297368755523
13.8941408 ,Left ,40.683462305481 ,53.7465678054886 ,87.9911408530065
13.91502 ,Left ,40.7120468619371 ,53.7413742198961 ,87.9649468541858
13.9315934 ,Left ,40.6754614155949 ,53.7338125912655 ,87.9530607518701
13.9540946 ,Left ,40.6032617895504 ,53.7568752142227 ,87.9290928600164
13.9736239 ,Left ,40.5616011839395 ,53.7791014910622 ,87.8933037236946
13.9915794 ,Left ,40.6060264312016 ,53.7858755629199 ,87.8735243621621
14.0140348 ,Left ,40.629042619157 ,53.7906223806364 ,87.8590782544894
14.0351548 ,Left ,40.5586802816101 ,53.8072639741975 ,87.8510865938772
14.0515545 ,Left ,40.4871683251 ,53.8314647247109 ,87.8309372556513
14.081549 ,Left ,40.4617657355263 ,53.8598022207484 ,87.8125907955687
14.1025595 ,Left ,40.460441266269 ,53.9099300427095 ,87.8173663202896
14.1116114 ,Left ,40.4730971354461 ,53.9545186836632 ,87.8583525542445
14.1339939 ,Left ,40.4042300778074 ,53.9825650157478 ,87.8736982177156
14.1549596 ,Left ,40.3704472957751 ,54.0076631675565 ,87.8964765693299
14.1716366 ,Left ,40.4044224432366 ,53.9997548375849 ,87.9044833368583
14.1940956 ,Left ,40.515049467241 ,53.9365067057137 ,87.918896886446
14.2152571 ,Left ,40.5774752003074 ,53.8274104950982 ,87.9189764386258
14.2315529 ,Left ,40.568592798773 ,53.6686666374023 ,87.8884076031643
14.2540499 ,Left ,40.6027088676836 ,53.5752297075422 ,87.9010630903579
14.2743081 ,Left ,40.6526133082595 ,53.5020405948635 ,87.9426855001416
14.2969854 ,Left ,40.7052670375093 ,53.4568862894576 ,87.9851347077927
14.3131551 ,Left ,40.771925253961 ,53.4277431791397 ,88.0265665070396
14.3343425 ,Left ,40.7967349550949 ,53.3988254107228 ,88.0426727952377
14.350787 ,Left ,40.8416945600819 ,53.370074038963 ,88.0650259267666
14.373295 ,Left ,40.8088836708186 ,53.3819178535609 ,88.0544801672904
14.3943051 ,Left ,40.8210736528622 ,53.4118438532608 ,88.0499306383828
14.4167915 ,Left ,40.8526153756724 ,53.4152134228703 ,88.0438490816239
14.4332969 ,Left ,40.8856652533371 ,53.3914377566559 ,88.0508155838613
14.4557571 ,Left ,40.89338524623 ,53.3276710063973 ,88.0504266873376
14.4707488 ,Left ,40.9004117446235 ,53.271204875462 ,88.0533653636718
14.4932893 ,Left ,40.9307298278908 ,53.2376808554797 ,88.0690540550826
14.5157664 ,Left ,40.9793458193565 ,53.214356596862 ,88.0896218200166
14.5303866 ,Left ,41.0250974112866 ,53.207587615898 ,88.1187066118577
14.553272 ,Left ,41.0536060429135 ,53.2053386812269 ,88.1471597935217
14.5757269 ,Left ,41.0687531718519 ,53.2016075437311 ,88.1716790007135
14.590062 ,Left ,41.085427014465 ,53.1849032358732 ,88.186347210157
14.6132236 ,Left ,41.1087756121201 ,53.1681681282268 ,88.1912115275937
14.6357902 ,Left ,41.1199391824242 ,53.1566335359536 ,88.1905152633962
14.6582441 ,Left ,41.1262059865645 ,53.145613019414 ,88.1901284671725
14.6730914 ,Left ,41.1398757522455 ,53.1435751860317 ,88.1885048280826
14.6964924 ,Left ,41.1560572649525 ,53.1568589886415 ,88.1915355532484
14.7099882 ,Left ,41.1756260126638 ,53.1728343839466 ,88.1916993275801
14.7332021 ,Left ,41.191151478081 ,53.1922377648531 ,88.2026827031555
14.7558114 ,Left ,41.2012787281011 ,53.2127619129949 ,88.20846765974
14.7701007 ,Left ,41.2069452672616 ,53.2384504204494 ,88.2149499710916
14.7932917 ,Left ,41.2031878829915 ,53.2589725291211 ,88.2144939926379
14.8156665 ,Left ,41.1896023831837 ,53.2716139299576 ,88.2053750207482
14.8300473 ,Left ,41.1914229086408 ,53.2713291541501 ,88.192626828698
14.853215 ,Left ,41.1836425460465 ,53.2746732474356 ,88.1729851022994
14.875818 ,Left ,41.1612361334824 ,53.2818224702255 ,88.1545956358655
14.8901555 ,Left ,41.1624940018656 ,53.2918703864201 ,88.1488137827897
14.9134727 ,Left ,41.194909327585 ,53.3199832861345 ,88.152279933711
14.9357124 ,Left ,41.212120378892 ,53.3708337949516 ,88.1811608916763
14.9569074 ,Left ,41.1951472413611 ,53.4382106320348 ,88.2113377948009
14.9733136 ,Left ,41.1789756745439 ,53.4973757584503 ,88.2424532923013
14.9958878 ,Left ,41.17629044932 ,53.5323916308137 ,88.2544465105523
15.0168184 ,Left ,41.1540701426151 ,53.5478577726606 ,88.2510874826877
15.0332709 ,Left ,41.1208278288728 ,53.5487784445501 ,88.2404572679411
15.0558054 ,Left ,41.1029382754108 ,53.5430590934898 ,88.2165242926904
15.0768152 ,Left ,41.0782275341977 ,53.5394814528834 ,88.1935432632607
15.0932277 ,Left ,41.0481721039322 ,53.5278165697405 ,88.1635471612187
15.1156742 ,Left ,41.0109301734752 ,53.5027690475021 ,88.1527401110999
15.1369033 ,Left ,40.9865958985262 ,53.4711269124399 ,88.1499594083613
15.1533285 ,Left ,40.9331926544956 ,53.4643790853445 ,88.1475347894511
15.1756871 ,Left ,40.8876920408297 ,53.4790616428734 ,88.1656466516185
15.1969 ,Left ,40.845057838069 ,53.5161649156368 ,88.1891398508139
15.2133004 ,Left ,40.8366073591668 ,53.5688025248901 ,88.1903107952499
15.2359311 ,Left ,40.7989798784434 ,53.6061503290001 ,88.1898461551674
15.2568728 ,Left ,40.7382838476287 ,53.6319361668836 ,88.1681000779101
15.2732854 ,Left ,40.6846605340415 ,53.6569965190771 ,88.1421179916831
15.2958088 ,Left ,40.6424142188993 ,53.6697201049398 ,88.1043868998581
15.3168464 ,Left ,40.6465526373208 ,53.6393721860031 ,88.0847273178804
15.3332443 ,Left ,40.6253076455633 ,53.5713905008819 ,88.0755226642018
15.3557873 ,Left ,40.642678257508 ,53.5010691337653 ,88.0885608362185
15.3783849 ,Left ,40.7001029399193 ,53.3992373474834 ,88.086369195219
15.3932267 ,Left ,40.7008081996005 ,53.362840009444 ,88.0989542512797
15.4157117 ,Left ,40.6763618319992 ,53.3937982697377 ,88.1155363748803
15.438152 ,Left ,40.6634468856653 ,53.4582640796505 ,88.1084014301269
15.4533271 ,Left ,40.7126125072557 ,53.5256934249294 ,88.1366042319457
15.4758242 ,Left ,40.7353528936259 ,53.5793007335499 ,88.1659685937307
15.4982493 ,Left ,40.695634085555 ,53.6462736276846 ,88.1625395934303
15.5127004 ,Left ,40.6724227636815 ,53.6853135606067 ,88.1397733079503
15.5358005 ,Left ,40.7088664383626 ,53.6682023324753 ,88.1259330471401
15.5581686 ,Left ,40.721342684036 ,53.615039629888 ,88.1006537334308
15.572484 ,Left ,40.6894769329809 ,53.5504359762083 ,88.0506233332735
15.5957422 ,Left ,40.6730463241086 ,53.5249640074666 ,88.0100261372588
15.6182417 ,Left ,40.6939851003511 ,53.4923873264596 ,87.992191475743
15.6325372 ,Left ,40.7200454555722 ,53.4845985951613 ,87.9681259381466
15.655641 ,Left ,40.7479293647603 ,53.4747730189307 ,87.959123687381
15.6782956 ,Left ,40.7555246174593 ,53.5197597270908 ,87.9502868927161
15.6926028 ,Left ,40.7323003678492 ,53.6049916060537 ,87.9514661200948
15.7159268 ,Left ,40.7350551551642 ,53.7322335095671 ,87.9832069971216
15.7379849 ,Left ,40.7462127280333 ,53.847915987637 ,87.9925186386103
15.7668326 ,Left ,40.7368673540563 ,53.9231296734613 ,88.0037187864998
15.7757787 ,Left ,40.7216804599745 ,53.9214185705043 ,88.0011413293738
15.7982029 ,Left ,40.6855391699265 ,53.8835867832458 ,87.9744012729454
15.8193099 ,Left ,40.6468556544354 ,53.8504599217953 ,87.9527001293357
15.8357889 ,Left ,40.6280125491663 ,53.8056194210505 ,87.9270917006331
15.8582576 ,Left ,40.6275436350179 ,53.7483889246121 ,87.8878244886962
15.8794222 ,Left ,40.5896659236986 ,53.707849047169 ,87.8632859539386
15.8956987 ,Left ,40.5339283054349 ,53.7002552623274 ,87.8533981999161
15.91823 ,Left ,40.5018647052471 ,53.70193193145 ,87.8116710879572
15.9393201 ,Left ,40.5165317042067 ,53.7146820312563 ,87.779783463466
15.9557697 ,Left ,40.5197383925216 ,53.729278318248 ,87.7627312578946
15.978231 ,Left ,40.4911377045328 ,53.7621014836031 ,87.7577681411169
15.9994282 ,Left ,40.4832371077216 ,53.8156384857968 ,87.7679076409705
16.0157349 ,Left ,40.5033520372537 ,53.8833129343478 ,87.7836215884767
16.0382477 ,Left ,40.5373837017472 ,53.9251438308085 ,87.7837451899045
16.0593384 ,Left ,40.4953032771651 ,53.9370851949576 ,87.7861055024811
16.0757141 ,Left ,40.4563536802232 ,53.9229096998657 ,87.7787016478994
16.0982775 ,Left ,40.4536178832404 ,53.8700405492983 ,87.7523514759892
16.1208784 ,Left ,40.5052555880762 ,53.7609638658224 ,87.7419220508479
16.1358231 ,Left ,40.5145887220143 ,53.605537378932 ,87.7000158193363
16.1582717 ,Left ,40.4930375434074 ,53.4309504577729 ,87.66371270427
16.1807407 ,Left ,40.5179200984193 ,53.3556627095819 ,87.7149571036807
16.1958162 ,Left ,40.5790116034445 ,53.3075858969412 ,87.7578890389355
16.2182638 ,Left ,40.6789698984966 ,53.2801792622227 ,87.7643770213628
16.2393065 ,Left ,40.7940396403599 ,53.2714132180167 ,87.7860217933114
16.2551271 ,Left ,40.8458323749909 ,53.2446236846458 ,87.8218652757281
16.2782277 ,Left ,40.8327115652927 ,53.2269033928095 ,87.8154436855393
16.3012553 ,Left ,40.8125363045793 ,53.2598336250419 ,87.7658987969597
16.3150535 ,Left ,40.8377764846992 ,53.2827973391638 ,87.7314661243481
16.3382522 ,Left ,40.87633682711 ,53.2506277872631 ,87.7224935240922
16.3607575 ,Left ,40.8670766091016 ,53.2009265668558 ,87.7418493043918
16.3757976 ,Left ,40.8454551610075 ,53.1415671531209 ,87.767579385127
16.3981769 ,Left ,40.8707486052153 ,53.0538459588166 ,87.7777652779541
16.4206753 ,Left ,40.9078280036463 ,52.9977841307592 ,87.7896453438954
16.4350578 ,Left ,40.9382346472995 ,52.9574058471362 ,87.8117748221688
16.4582459 ,Left ,40.9547538578387 ,52.9528187223674 ,87.829838276713
16.4807278 ,Left ,40.9679758103076 ,52.9714677511124 ,87.8484383505327
16.4951649 ,Left ,40.9830832995413 ,52.9897835426765 ,87.8544102896166
16.518223 ,Left ,40.9924391072052 ,52.9981666765554 ,87.8647044104429
16.5407589 ,Left ,40.9929284597953 ,53.0037891794399 ,87.8773230194414
16.5550777 ,Left ,40.9934191827863 ,53.0094125446686 ,87.889948273675
16.5782234 ,Left ,41.0009829229828 ,53.0141856831197 ,87.9061420383324
16.6007549 ,Left ,41.012836489957 ,53.0143614785514 ,87.9327287603559
16.6150405 ,Left ,41.0374932636096 ,53.0071981159105 ,87.9638379996946
16.6382439 ,Left ,41.0726218592806 ,52.9979199349197 ,87.9887393980305
16.6607585 ,Left ,41.1299610772469 ,52.9970354614766 ,88.0142359271478
16.6750721 ,Left ,41.179020325235 ,52.9944302605584 ,88.0277735148183
16.6982292 ,Left ,41.2104753878679 ,53.0019345264464 ,88.0375050577968
16.720754 ,Left ,41.2217680788888 ,53.0180513367323 ,88.0411406923498
16.7350569 ,Left ,41.2359589198784 ,53.0452377224408 ,88.0406281038441
16.7582166 ,Left ,41.2438093930769 ,53.0753208530554 ,88.0346309380563
16.7807696 ,Left ,41.2513479458851 ,53.0896958658285 ,88.0279100686045
16.8022211 ,Left ,41.2507767070955 ,53.0911107871573 ,88.0256324800284
16.8182482 ,Left ,41.2303038438347 ,53.0870889368237 ,88.0223029613625
16.8407972 ,Left ,41.2086460632662 ,53.0772235593488 ,88.0238428934415
16.8617724 ,Left ,41.2084014040087 ,53.069599227636 ,88.0290139364129
16.8782283 ,Left ,41.2107496462518 ,53.0634877840547 ,88.0364673561669
16.9006768 ,Left ,41.2217411843746 ,53.0638947966826 ,88.0394118234871
16.9217774 ,Left ,41.2242802631391 ,53.0631268021571 ,88.0413668601226
16.9382317 ,Left ,41.2753658993561 ,53.0870268220716 ,88.043576457867
16.9607067 ,Left ,41.2926768404289 ,53.1296081615804 ,88.0472573860601
16.9818877 ,Left ,41.2942517076408 ,53.1787729398001 ,88.047736895809
16.9981373 ,Left ,41.2938514051254 ,53.2089412197575 ,88.0454512826671
17.0219265 ,Left ,41.2843660427143 ,53.2198326333607 ,88.0412603590777
17.0416945 ,Left ,41.2421624132444 ,53.2181773141425 ,88.0350997044318
17.0581667 ,Left ,41.1791789820696 ,53.2090526897934 ,87.9942852539304
17.0807055 ,Left ,41.1549241214895 ,53.1904200406061 ,87.9644429001143
17.1018117 ,Left ,41.1473173415045 ,53.1662082210523 ,87.9496394035222
17.1182413 ,Left ,41.0928913330455 ,53.1612520575985 ,87.9491738581407
17.1407986 ,Left ,41.0425996788072 ,53.182949445449 ,87.9781057726628
17.1618033 ,Left ,40.9995347920471 ,53.2376160796721 ,87.9862817329563
17.1781728 ,Left ,40.9724013136115 ,53.3259894662431 ,87.972699235793
17.2007743 ,Left ,40.9246078012145 ,53.4411802946588 ,88.007071249878
17.2219129 ,Left ,40.8523274037051 ,53.5650283726881 ,88.0138538361645
17.2376981 ,Left ,40.7930600772741 ,53.6819781467057 ,87.999701417959
17.2607561 ,Left ,40.7650166615878 ,53.750623991708 ,87.9686224162971
17.2832131 ,Left ,40.6918820521198 ,53.7472933692568 ,87.9385840634282
17.2978676 ,Left ,40.6371891610596 ,53.6922502583085 ,87.9160003007158
17.3207481 ,Left ,40.6077227756313 ,53.5824760510382 ,87.8876503955205
17.3432813 ,Left ,40.6128351668321 ,53.4542394663491 ,87.8508694025154
17.3576204 ,Left ,40.6319264622722 ,53.343491599465 ,87.8012702653285
17.3806973 ,Left ,40.627881057974 ,53.2907952013171 ,87.7595325514348
17.4110865 ,Left ,40.6688718840297 ,53.2862978601031 ,87.7597932175215
17.4175432 ,Left ,40.7124599626413 ,53.3081554793854 ,87.7718525040997
17.4407323 ,Left ,40.6943957150045 ,53.3683839009441 ,87.7981107199046
17.4633424 ,Left ,40.7151528948498 ,53.4370573270648 ,87.8179369820693
17.4776226 ,Left ,40.7654074532089 ,53.4765102044243 ,87.8200248103352
17.5008445 ,Left ,40.7663942434265 ,53.4747285634704 ,87.8203474376987
17.5232837 ,Left ,40.717121903299 ,53.4387852275555 ,87.8130934012426
17.5376311 ,Left ,40.644748937821 ,53.3983160441052 ,87.7709019143166
17.5607772 ,Left ,40.6180580206727 ,53.3804841272042 ,87.7329972756605
17.5832481 ,Left ,40.6449824067526 ,53.3724074267491 ,87.7314475396431
17.5975943 ,Left ,40.6796359672253 ,53.3608894188596 ,87.7481208626684
17.6207252 ,Left ,40.6978400977387 ,53.3435693177324 ,87.7664323695438
17.6432677 ,Left ,40.6939465150957 ,53.3166164667124 ,87.7542708700682
17.6576528 ,Left ,40.7103781246854 ,53.2976107807412 ,87.7430466074628
17.6807542 ,Left ,40.7263915918754 ,53.2861240054109 ,87.7440923367426
17.7107407 ,Left ,40.721202280394 ,53.280235957396 ,87.7376337047497
17.7175273 ,Left ,40.7237700351136 ,53.2753070269946 ,87.7406084696611
17.7407309 ,Left ,40.7323006101255 ,53.2641652902572 ,87.7367672530946
17.7632946 ,Left ,40.7273725698278 ,53.2522410542724 ,87.7323656984483
17.7843548 ,Left ,40.7161398298822 ,53.2416178738032 ,87.7081207236179
17.8007606 ,Left ,40.7151239964806 ,53.2492625553353 ,87.6791979247742
17.8232841 ,Left ,40.7045226459569 ,53.2571882383672 ,87.6567892400758
17.844293 ,Left ,40.6620227549642 ,53.2659711820008 ,87.6416324813253
17.8607674 ,Left ,40.6643213916578 ,53.2429364736082 ,87.6440967044562
17.8907588 ,Left ,40.6633747339199 ,53.2281148441424 ,87.640052223968
17.9045265 ,Left ,40.6526071261494 ,53.2532281404457 ,87.6323899534421
17.9207706 ,Left ,40.6012981795326 ,53.3092486049704 ,87.6397026879711
17.9432635 ,Left ,40.6014778693845 ,53.3939511427498 ,87.6300178485769
17.964306 ,Left ,40.6035298135214 ,53.4633880971042 ,87.627395913781
17.9814791 ,Left ,40.5757059242226 ,53.5022130169244 ,87.6195644398089
18.0092978 ,Left ,40.5423484735175 ,53.5293601957709 ,87.6094198694415
18.0242706 ,Left ,40.499121323151 ,53.5393855312894 ,87.5741527705644
18.0407712 ,Left ,40.5047015947889 ,53.5363878345847 ,87.5463293186611
18.0632979 ,Left ,40.5181245722255 ,53.5047404636638 ,87.5259892527229
18.0843929 ,Left ,40.5135051432563 ,53.4678918599892 ,87.5121873081559
18.1007474 ,Left ,40.4754168367881 ,53.4223728637753 ,87.5059847169651
18.1061049 ,Left ,40.4444756952372 ,53.3903276525706 ,87.4896754945712
18.1285762 ,Left ,40.473760562378 ,53.3617526495285 ,87.4664146308097
18.1513081 ,Left ,40.5028481197338 ,53.339658164477 ,87.4674066135523
18.1660776 ,Left ,40.4883638787556 ,53.3693168378064 ,87.5070315590131
18.1887077 ,Left ,40.4689299054764 ,53.4099997274342 ,87.5110302907302
18.2111539 ,Left ,40.4910406244892 ,53.445379380266 ,87.5023610121624
18.2261109 ,Left ,40.5048665243771 ,53.478152807775 ,87.5126795762528
18.2486382 ,Left ,40.4676798310234 ,53.5146362827465 ,87.5432630195205
18.2710737 ,Left ,40.4397481417358 ,53.5429010398025 ,87.5714415966469
18.286154 ,Left ,40.4147249515273 ,53.5412573025139 ,87.6009582143857
18.3086463 ,Left ,40.3957928717761 ,53.5176086277478 ,87.6233147646201
18.3312837 ,Left ,40.4125655525924 ,53.4749055352341 ,87.632650238
18.3461383 ,Left ,40.4990232727019 ,53.3629546161184 ,87.6353579991546
18.3686492 ,Left ,40.5249147913019 ,53.1889172009973 ,87.608445227002
18.4000392 ,Left ,40.4761444902268 ,53.0237188972024 ,87.596052402515
18.4061573 ,Left ,40.4656385085585 ,52.9352245543272 ,87.6222021815648
18.4286257 ,Left ,40.5107823649846 ,52.8628678875414 ,87.6447669427176
18.4511387 ,Left ,40.5492225190054 ,52.8240717229626 ,87.644311133313
18.4661518 ,Left ,40.6031234369523 ,52.7939592418291 ,87.6536852173988
18.4886364 ,Left ,40.6055946508688 ,52.7798450401771 ,87.6555429203502
18.5198933 ,Left ,40.590387653904 ,52.793219078385 ,87.6526366461836
18.5260781 ,Left ,40.5293756924868 ,52.860271712223 ,87.6334653982278
18.5486536 ,Left ,40.5212150170726 ,52.9301246705215 ,87.614873826971
18.5711055 ,Left ,40.5913099633029 ,52.9520873439004 ,87.620783731881
18.5861119 ,Left ,40.6040252201825 ,52.9298553308185 ,87.6359233609954
18.6086163 ,Left ,40.5486428203203 ,52.8905669594655 ,87.643772666909
18.6317268 ,Left ,40.5190676865864 ,52.8358702578323 ,87.6484777055811
18.6463323 ,Left ,40.5590126877745 ,52.7939298567663 ,87.650668017493
18.6685745 ,Left ,40.6219894001976 ,52.7412922345037 ,87.6541496477565
18.6910831 ,Left ,40.6430959727297 ,52.7039839241215 ,87.6587875040632
18.7061616 ,Left ,40.6540875932618 ,52.6829764727535 ,87.6557772433169
18.7286371 ,Left ,40.6749692200385 ,52.6771822950508 ,87.6539097121604
18.7511 ,Left ,40.7163988685424 ,52.6768860525101 ,87.6427182556137
18.7660776 ,Left ,40.7506562393216 ,52.6792965534196 ,87.6435698226213
18.7886048 ,Left ,40.7686248091596 ,52.6903271225402 ,87.658815487773
18.8111128 ,Left ,40.7860915485391 ,52.7006523072256 ,87.6805641604206
18.8274723 ,Left ,40.8209907424292 ,52.7078815095147 ,87.7072650625274
18.8488033 ,Left ,40.8495616358925 ,52.7238802343526 ,87.7430411292933
18.8710581 ,Left ,40.8659308130863 ,52.7479629836175 ,87.7770114106877
18.8875974 ,Left ,40.8936621309787 ,52.7648254092112 ,87.8093692401176
18.9086123 ,Left ,40.9344200833547 ,52.7665219851487 ,87.8327373008685
18.9315483 ,Left ,40.946201179545 ,52.7628348744137 ,87.8523855253875
18.9476525 ,Left ,40.9616980362539 ,52.7591928167748 ,87.866784883675
18.9686179 ,Left ,40.9660071206422 ,52.7507061231979 ,87.8703796037993
18.9910704 ,Left ,40.9762736237149 ,52.7410732988045 ,87.8693695560645
19.0074997 ,Left ,40.9767060471981 ,52.7294844153362 ,87.8581488935163
19.0286193 ,Left ,40.9796528820852 ,52.712144797882 ,87.8466328848932
19.0465453 ,Left ,41.002236826427 ,52.7048969755028 ,87.8366784783698
19.0676422 ,Left ,41.0399710523313 ,52.723263144256 ,87.8349994806505
19.0886767 ,Left ,41.0406210556178 ,52.7648103602479 ,87.8495269366351
19.1065288 ,Left ,41.049225429358 ,52.802791455372 ,87.855646081943
19.1290426 ,Left ,41.0706422335857 ,52.8276962950437 ,87.8607660830256
19.1486592 ,Left ,41.0569087292925 ,52.8303925928339 ,87.8657631667757
19.1665133 ,Left ,40.9942944564044 ,52.8266852647601 ,87.85765423919
19.1890374 ,Left ,40.9781224593155 ,52.8194316530454 ,87.8361703103289
19.2086636 ,Left ,40.9906206534927 ,52.8139729509892 ,87.8137543102776
19.2265333 ,Left ,40.9928971674471 ,52.815079601541 ,87.8146704245487
19.2489268 ,Left ,40.9688500208985 ,52.8273893222848 ,87.8206827074666
19.2699309 ,Left ,40.9547926621942 ,52.848189980402 ,87.8361840009902
19.2864115 ,Left ,40.9253144337726 ,52.8502518303326 ,87.844592500238
19.3090417 ,Left ,40.9153055174582 ,52.8236171860991 ,87.8248929517127
19.3285662 ,Left ,40.9006595228834 ,52.8050007590553 ,87.8003633878412
19.3526389 ,Left ,40.8784374325167 ,52.7854725367695 ,87.7665904016512
19.3765839 ,Left ,40.8804593658087 ,52.7597167305288 ,87.724575549903
19.3885913 ,Left ,40.8777802678573 ,52.7429296349848 ,87.7067383043379
19.4065492 ,Left ,40.8529948652393 ,52.724887828144 ,87.6744498671966
19.4290457 ,Left ,40.839692307581 ,52.7560243586001 ,87.6858053271669
19.4492825 ,Left ,40.8607394400822 ,52.8307253587784 ,87.711254669335
19.4665418 ,Left ,40.888523584535 ,52.9154210236868 ,87.7484560770862
19.489029 ,Left ,40.9220324852898 ,52.9803489490485 ,87.7699124221818
19.5085782 ,Left ,40.9324683722138 ,53.0232831030142 ,87.7747610430262
19.5265349 ,Left ,40.9537780221342 ,53.0352319893085 ,87.7551354173895
19.548941 ,Left ,40.9805314726194 ,53.029937395486 ,87.7291853011737
19.5686353 ,Left ,40.9963212442658 ,52.9888263720842 ,87.7182897645247
19.5865177 ,Left ,40.9842945588801 ,52.9500102730883 ,87.6972890232458
19.6090072 ,Left ,40.9850697112373 ,52.9331808249595 ,87.6650669859746
19.6288297 ,Left ,40.9899363694158 ,52.9278771031413 ,87.6456872850669
19.6465693 ,Left ,41.0060632441643 ,52.9366978840197 ,87.6384497044965
19.6690425 ,Left ,41.0226040708876 ,52.9739950034247 ,87.637795148421
19.6885542 ,Left ,41.0161457858716 ,53.0349827220341 ,87.6604727811887
19.7064749 ,Left ,41.0351860070097 ,53.0827572116019 ,87.6712210603893
19.7290161 ,Left ,41.0624802486535 ,53.1358918468293 ,87.6731004242872
19.7500794 ,Left ,41.1015107860411 ,53.174572460329 ,87.6612886269249
19.7664874 ,Left ,41.0866967344902 ,53.2010752993467 ,87.6567736562107
19.7890335 ,Left ,41.0187051832148 ,53.2022775136278 ,87.6151522038162
19.8100355 ,Left ,41.0023113963806 ,53.2148558879092 ,87.5930732727794
19.8265207 ,Left ,41.024770788169 ,53.188679919536 ,87.5871150973445
19.8505978 ,Left ,41.0404558461085 ,53.1513981098843 ,87.5739434005688
19.87005 ,Left ,41.0316781582902 ,53.1362087768703 ,87.571324523472
19.8864816 ,Left ,40.9810548768626 ,53.1593836429837 ,87.5557503820299
19.9089297 ,Left ,40.9914532523783 ,53.2427714355007 ,87.5614155632586
19.9300466 ,Left ,41.0369238041946 ,53.3431947915999 ,87.5811026450018
19.9465317 ,Left ,41.0324966574788 ,53.4262021042594 ,87.6082303089013
19.9682261 ,Left ,40.9745956129025 ,53.4882911876581 ,87.6156203215207
19.9892713 ,Left ,40.9366715660474 ,53.498231376796 ,87.5798688832516
20.0057121 ,Left ,40.9598456659515 ,53.4887183336447 ,87.550720707493
20.0282038 ,Left ,40.9312339354298 ,53.4590905721069 ,87.5299866405796
20.0492421 ,Left ,40.8771357629915 ,53.4294528928016 ,87.5130695366714
20.0717165 ,Left ,40.8440730555318 ,53.3874273875224 ,87.4860954564711
20.0882022 ,Left ,40.8473220925209 ,53.3419052430241 ,87.4691650292528
20.1107033 ,Left ,40.8156270171504 ,53.3338397646006 ,87.4858347168764
20.1257132 ,Left ,40.7939070608018 ,53.3484165029609 ,87.4970456681171
20.1481654 ,Left ,40.796239043907 ,53.3453163632976 ,87.4989266839262
20.170773 ,Left ,40.787558307629 ,53.3653974176284 ,87.5117934955121
20.1857547 ,Left ,40.7594137997039 ,53.4125166625244 ,87.5460184058584
20.2082412 ,Left ,40.7659023178707 ,53.4834700575931 ,87.5862057220518
20.2308182 ,Left ,40.7201401567644 ,53.521984182537 ,87.6214223684211
20.2451 ,Left ,40.6856972926115 ,53.5203587990493 ,87.6572130854664
20.2682093 ,Left ,40.6762643022402 ,53.4853086475683 ,87.682337650077
20.2907489 ,Left ,40.7478838576198 ,53.3652657065879 ,87.691325167139
20.3050961 ,Left ,40.7392976839789 ,53.1823864753521 ,87.6694322586713
20.3282624 ,Left ,40.6824340802176 ,53.0213690892586 ,87.6485598077523
20.3507848 ,Left ,40.6625675704181 ,52.9286527810107 ,87.6719559462921
20.3717805 ,Left ,40.6693686830161 ,52.8633697521396 ,87.6843632866985
20.388144 ,Left ,40.7322420066736 ,52.8261391541748 ,87.6791987359925
20.410765 ,Left ,40.7352609882376 ,52.8074922080359 ,87.6966063904132
20.4250811 ,Left ,40.7071149926265 ,52.8040727316408 ,87.7243416856718
20.448332 ,Left ,40.6535081704075 ,52.8519530435628 ,87.7307886637398
20.4706521 ,Left ,40.679461182366 ,52.9047199998431 ,87.7329678296853
20.4856002 ,Left ,40.7061177616253 ,52.8902061162592 ,87.7487161832451
20.5082863 ,Left ,40.680994571275 ,52.8426897409312 ,87.7813595295608
20.5308128 ,Left ,40.5975197991943 ,52.7744841087787 ,87.8027480310102
20.5450962 ,Left ,40.5469798394264 ,52.6873478431541 ,87.8225214774956
20.5682256 ,Left ,40.5528503365866 ,52.6220124274866 ,87.8432049941747
20.5908168 ,Left ,40.5746753375897 ,52.557700487116 ,87.8615270368855
20.6117609 ,Left ,40.5764811692216 ,52.5149622295154 ,87.8889137983728
20.6282158 ,Left ,40.5552978624104 ,52.5006786819544 ,87.9142877416665
20.6507094 ,Left ,40.5517460623234 ,52.5093468064107 ,87.9264786366448
20.6718494 ,Left ,40.565666401758 ,52.5168712114399 ,87.9346066514434
20.6881881 ,Left ,40.5617538919419 ,52.5180267288049 ,87.952221901454
20.710701 ,Left ,40.5302736406459 ,52.5283927620096 ,87.9684804719043
20.7320693 ,Left ,40.5046030261662 ,52.544429811034 ,87.9811605902665
20.7482923 ,Left ,40.5026795158759 ,52.5462760599464 ,87.9983930751082
20.7706803 ,Left ,40.5017895358659 ,52.5455319589839 ,88.012759996043
20.7921092 ,Left ,40.4886547292454 ,52.5506594631141 ,88.0250452924466
20.8082019 ,Left ,40.4764818504405 ,52.5642609920295 ,88.0344730709409
20.8308024 ,Left ,40.4671311667916 ,52.577591424719 ,88.047076565998
20.8518186 ,Left ,40.4622856345268 ,52.5854418712628 ,88.0499280898911
20.8681423 ,Left ,40.4613544542425 ,52.5872033373501 ,88.0495749649098
20.8907095 ,Left ,40.4642012222957 ,52.5787089647352 ,88.0471238775658
20.9117558 ,Left ,40.4509549339919 ,52.5763390886368 ,88.0404475915887
20.9282296 ,Left ,40.4396038750197 ,52.5799250445168 ,88.0130243270961
20.9505961 ,Left ,40.4342983879583 ,52.577747862728 ,88.0044670372139
20.971749 ,Left ,40.4280121312906 ,52.5669467800342 ,87.9822319251077
20.9882164 ,Left ,40.4481856241976 ,52.5687956147762 ,87.9698246240543
21.0107615 ,Left ,40.450783082628 ,52.556831007771 ,87.9551652335073
21.0411702 ,Left ,40.444127159894 ,52.551758677724 ,87.946104177077
21.0483946 ,Left ,40.4535043509284 ,52.5384567338208 ,87.9335496044492
21.0706882 ,Left ,40.5117189982423 ,52.5365770024749 ,87.935358877914
21.0932066 ,Left ,40.5563017011298 ,52.5664031531002 ,87.950397636784
21.1082257 ,Left ,40.5926121234317 ,52.6352871168873 ,87.9820720654272
21.1307099 ,Left ,40.6178842040581 ,52.6966666030199 ,88.0180817390465
21.1531918 ,Left ,40.6693387474915 ,52.7508044680113 ,88.0408863327055
21.1681841 ,Left ,40.6923898587437 ,52.7875680966496 ,88.0716676136274
21.1907682 ,Left ,40.6742002814932 ,52.8032015629527 ,88.0890241306198
21.2132772 ,Left ,40.6064596440035 ,52.8128975123139 ,88.0621646389905
21.2275732 ,Left ,40.5808733444692 ,52.8346120179042 ,88.0221682274879
21.2506177 ,Left ,40.5661448997327 ,52.8349319077135 ,87.9866251441774
21.2734867 ,Left ,40.5552965842205 ,52.8202780438646 ,87.9559156827297
21.2956394 ,Left ,40.5497370365002 ,52.8086084141793 ,87.9370977361422
21.3106162 ,Left ,40.5241534995964 ,52.8264676875388 ,87.9239058353487
21.3329503 ,Left ,40.4912087960657 ,52.8438324176934 ,87.902732167964
21.3478062 ,Left ,40.4768458713074 ,52.8940798640984 ,87.8869098422939
21.3707336 ,Left ,40.5012404027831 ,52.9381837846304 ,87.8926109815002
21.393201 ,Left ,40.5262666185454 ,53.0087127875034 ,87.8966379129033
21.4075312 ,Left ,40.5164003710385 ,53.1036862819722 ,87.9158905689041
21.4307101 ,Left ,40.5080749845852 ,53.1997641880274 ,87.9369285907118
21.4532193 ,Left ,40.4940023887015 ,53.278266794003 ,87.9336077406571
21.4675057 ,Left ,40.4831441739478 ,53.3292615463055 ,87.9062435416689
21.4906805 ,Left ,40.5014113823846 ,53.356505385487 ,87.8744862853256
21.5132276 ,Left ,40.5279201924553 ,53.3417597519164 ,87.849141988448
21.5342691 ,Left ,40.5591424729082 ,53.303121973623 ,87.8361033188789
21.5507112 ,Left ,40.6085136023221 ,53.2392103067984 ,87.8278242825573
21.5732393 ,Left ,40.6576721260626 ,53.1981987252559 ,87.8133801281651
21.6017927 ,Left ,40.7001564078978 ,53.1812381643749 ,87.8149368390973
21.6107926 ,Left ,40.7286152148839 ,53.1716207655447 ,87.7882644860625
21.6332737 ,Left ,40.759823653517 ,53.1902744744459 ,87.7889354519092
21.6542962 ,Left ,40.7888357811285 ,53.2829696113252 ,87.7866395909693
21.6706988 ,Left ,40.7857631086393 ,53.3928470670279 ,87.7770141933057
21.6932283 ,Left ,40.8337716731635 ,53.4985363497498 ,87.7797833417588
21.714404 ,Left ,40.879066263491 ,53.5706674196269 ,87.7510490064618
21.7306995 ,Left ,40.9326609912356 ,53.6100983105763 ,87.7298410926803
21.7532236 ,Left ,40.9420503216196 ,53.6172214832925 ,87.6994921555112
21.7742415 ,Left ,40.9055667518804 ,53.616193531694 ,87.6525766454932
21.7907481 ,Left ,40.9160016019953 ,53.6451130097422 ,87.6006120821021
21.8132242 ,Left ,40.9485721038509 ,53.6392900055413 ,87.5719590293897
21.8342648 ,Left ,40.9786039290384 ,53.6184786332272 ,87.5405968846333
21.8507022 ,Left ,40.9685502131296 ,53.5998111766476 ,87.5260516496529
21.8732071 ,Left ,40.9902569409948 ,53.5990364515065 ,87.4979960048545
21.8942713 ,Left ,41.0311806137292 ,53.6385735178468 ,87.4672366192455
21.9107107 ,Left ,41.0439788836824 ,53.7171965557157 ,87.4575395366349
21.9331718 ,Left ,41.0199133960731 ,53.8140071488758 ,87.4524269695231
21.9542536 ,Left ,41.0506038250386 ,53.9280743291496 ,87.4489101873535
21.9700314 ,Left ,41.0699292398152 ,54.0188625187566 ,87.4696049634699
21.9932085 ,Left ,41.0458433990156 ,54.0851220181711 ,87.4664984969679
22.0157269 ,Left ,41.0236032766771 ,54.1357597065538 ,87.4511548407931
22.030048 ,Left ,41.0697642396031 ,54.1494877526875 ,87.434229341602
22.053125 ,Left ,41.0916848384188 ,54.1233531677742 ,87.411703559754
22.0757684 ,Left ,41.071379749415 ,54.0999791667345 ,87.3934514724656
22.0907691 ,Left ,41.0471520031961 ,54.0743882155432 ,87.372487620392
22.1132171 ,Left ,41.0553939068359 ,54.0427261702094 ,87.3486655465576
22.1356947 ,Left ,41.0766227095169 ,54.0158537923707 ,87.3237112965599
22.1505342 ,Left ,41.0968812741003 ,53.9904906183174 ,87.3158991347444
22.1732408 ,Left ,41.0975047516631 ,53.9832374385728 ,87.3222134687203
22.1956875 ,Left ,41.0789067716176 ,54.0057763796519 ,87.3152739872849
22.2100891 ,Left ,41.0782157150537 ,54.0419018006431 ,87.2889964149109
22.233102 ,Left ,41.0827283585617 ,54.0665899228755 ,87.2814721664994
22.255793 ,Left ,41.0523151302091 ,54.090318472803 ,87.2895421621511
22.2700106 ,Left ,41.0060049432584 ,54.1387121649747 ,87.3136275266248
22.2931447 ,Left ,40.9857008427435 ,54.1934170325522 ,87.3494606605469
22.3158371 ,Left ,40.9847369747514 ,54.227643766932 ,87.3905463255148
22.3300664 ,Left ,40.9497257108396 ,54.2350869365932 ,87.4121194413867
22.3532231 ,Left ,40.8729092981422 ,54.2160258149211 ,87.4090963591941
22.3757729 ,Left ,40.8636367859387 ,54.1407064022852 ,87.4194323474153
22.3967487 ,Left ,40.9568266973733 ,54.0142712971517 ,87.4448818220669
22.4132273 ,Left ,40.9701457976874 ,53.8493451902079 ,87.4374125693753
22.4357453 ,Left ,40.9745159727907 ,53.6962116384247 ,87.4452986927357
22.4567267 ,Left ,40.9942340107628 ,53.6249818817931 ,87.5336871393647
22.4732828 ,Left ,41.0286411369333 ,53.5891435586826 ,87.579031297849
22.4956572 ,Left ,41.0676074917908 ,53.5626695094995 ,87.573885532629
22.5167535 ,Left ,41.1079600937201 ,53.51325983646 ,87.6000000663344
22.5331964 ,Left ,41.0705869753206 ,53.467067574027 ,87.6243946200327
22.5557662 ,Left ,41.0160987442568 ,53.4659859483478 ,87.6412484745108
22.5767499 ,Left ,40.9955136754323 ,53.4976521747844 ,87.656982442376
22.5932157 ,Left ,41.0118211105784 ,53.511891194566 ,87.6802886196507
22.6156924 ,Left ,41.0079116126097 ,53.4781177033092 ,87.702723951624
22.6367731 ,Left ,40.9678863974779 ,53.4068982155469 ,87.7277402577826
22.6532095 ,Left ,40.940048682426 ,53.2970476997741 ,87.7397632462672
22.6757591 ,Left ,40.9303849466314 ,53.2218648205194 ,87.7557303603195
22.6968181 ,Left ,40.9146255075149 ,53.1478653268922 ,87.776403020738
22.7131583 ,Left ,40.9154272552429 ,53.0843546035072 ,87.7958548765857
22.7356707 ,Left ,40.9272804064104 ,53.0370754311583 ,87.8187823123687
22.7568557 ,Left ,40.9267603003528 ,53.0060945454308 ,87.8455681124878
22.7731834 ,Left ,40.9124418257297 ,52.9851854819728 ,87.8798912235821
22.7957286 ,Left ,40.9233413923321 ,52.9645462529739 ,87.9211984659587
22.8168096 ,Left ,40.9255048642793 ,52.9393196390984 ,87.965896333863
22.8331502 ,Left ,40.9170425856435 ,52.9103879194445 ,88.0114077604732
22.8557632 ,Left ,40.9119111950626 ,52.8860799755231 ,88.0526812649746
22.8767502 ,Left ,40.9242883041221 ,52.8587532848242 ,88.0911975769186
22.893282 ,Left ,40.9402625491179 ,52.8243062807969 ,88.1310514235907
22.9180369 ,Left ,40.9322815523248 ,52.8008071875392 ,88.1705189984233
22.9381721 ,Left ,40.9102073510629 ,52.7789473753364 ,88.210544973006
22.9606888 ,Left ,40.8816245509382 ,52.7558612437749 ,88.2462254534361
22.9756924 ,Left ,40.8703258040561 ,52.7202622295386 ,88.2687352527856
22.9983429 ,Left ,40.8508784843208 ,52.6800718816523 ,88.2849810350591
23.0132248 ,Left ,40.8251507003451 ,52.6399039499874 ,88.3014777356596
23.0359496 ,Left ,40.7758527063776 ,52.6000000717658 ,88.3098098793533
23.0582297 ,Left ,40.7346541593791 ,52.5668411780132 ,88.3157701892695
23.0725219 ,Left ,40.7017136225989 ,52.5422102982486 ,88.3178181797758
23.0958347 ,Left ,40.6751897433131 ,52.5299352343996 ,88.3243711321447
23.1180939 ,Left ,40.6388174653279 ,52.5160799005014 ,88.3300454498727
23.1325157 ,Left ,40.6140611698396 ,52.5002996576965 ,88.3373993726581
23.1557399 ,Left ,40.5976335800182 ,52.4843258688467 ,88.3409702254862
23.1782217 ,Left ,40.5843536365208 ,52.4681751726115 ,88.3398472031962
23.1925638 ,Left ,40.5987046926382 ,52.4609249017668 ,88.3425170395187
23.2154863 ,Left ,40.6541655911963 ,52.4714957003602 ,88.339767551846
23.2382047 ,Left ,40.6634320969904 ,52.4953330952393 ,88.3340684489216
23.2607037 ,Left ,40.6652379808382 ,52.5262814486793 ,88.3322730555399
23.2755103 ,Left ,40.6240898357156 ,52.5485831089053 ,88.3555903199201
23.2983361 ,Left ,40.533073535766 ,52.587002063088 ,88.4220525940629
23.3193371 ,Left ,40.4184012960868 ,52.6281546150976 ,88.4716344960701
23.3357594 ,Left ,40.3190542770381 ,52.6707621120917 ,88.4512851577009
23.358252 ,Left ,40.3022809760311 ,52.6997058524225 ,88.4342691745486
23.379228 ,Left ,40.2434416648873 ,52.6796365856596 ,88.4144917149696
23.3957574 ,Left ,40.1920219516576 ,52.6388561529202 ,88.3907126246594
23.418119 ,Left ,40.1573897886407 ,52.600622124155 ,88.3477155735778
23.4393228 ,Left ,40.092289432368 ,52.5551687115404 ,88.3180217638537
23.455762 ,Left ,40.0641261024719 ,52.4832224753238 ,88.2589612713457
23.4782155 ,Left ,40.0353939904343 ,52.4005317209255 ,88.1876705874055
23.4994803 ,Left ,40.0129723985308 ,52.3265808309699 ,88.1311652234204
23.5157856 ,Left ,39.9624119330057 ,52.3208988696478 ,88.1153995661196
23.5387308 ,Left ,39.9260256905507 ,52.3848355643284 ,88.1439901684559
23.5592158 ,Left ,39.9291087901839 ,52.4766859075692 ,88.1498161745398
23.5757094 ,Left ,39.9722282801094 ,52.5536066255754 ,88.1756782168088
23.5982799 ,Left ,39.9671162738386 ,52.5845407829837 ,88.1813795989496
23.6192019 ,Left ,39.915992995101 ,52.5972322516032 ,88.160071022257
23.6358958 ,Left ,39.8717680980353 ,52.5836388619467 ,88.1168730654584
23.6582028 ,Left ,39.8541539621906 ,52.5258027736724 ,88.0649217280377
23.6792794 ,Left ,39.8752858876433 ,52.462373810581 ,88.0279774594088
23.6957299 ,Left ,39.8993510616045 ,52.3877339148657 ,87.9944615821837
23.7182134 ,Left ,39.8893662524591 ,52.3371277758695 ,87.9722110054818
23.7390369 ,Left ,39.9069278916734 ,52.3214739199033 ,87.9500371975502
23.7556359 ,Left ,39.9496621811813 ,52.3396628116601 ,87.9271217654913
23.7782672 ,Left ,39.9502746833967 ,52.3866154836568 ,87.9194864403518
23.7993946 ,Left ,39.9418315446874 ,52.4609091802648 ,87.9252626782241
23.8160951 ,Left ,39.9311720757713 ,52.5254283375787 ,87.9307248234488
23.8211026 ,Left ,39.9678080425866 ,52.5865036256972 ,87.924677907746
23.8435447 ,Left ,40.007567352628 ,52.6114352521877 ,87.9056863198751
23.8660842 ,Left ,40.0517013129514 ,52.6042011665444 ,87.869821079417
23.8811522 ,Left ,40.0486031980925 ,52.5860694777603 ,87.8197199993792
23.9036195 ,Left ,40.0214228118343 ,52.5874977392615 ,87.77624227527
23.9261228 ,Left ,40.0306223572352 ,52.5768944255521 ,87.735824627058
23.9410632 ,Left ,40.0584333961433 ,52.5581891671988 ,87.7271676333539
23.9636014 ,Left ,40.0666552885789 ,52.5354156247391 ,87.7301300121462
23.9860913 ,Left ,40.0836039521899 ,52.5665401107614 ,87.7073711209213
24.0011798 ,Left ,40.0634076232661 ,52.6587958591461 ,87.7054297745423
24.023632 ,Left ,40.0521218882936 ,52.8087570499989 ,87.6973652864606
24.0460676 ,Left ,40.0822520527192 ,52.9926827621032 ,87.697135399289
24.0610972 ,Left ,40.1020038703131 ,53.1236378609859 ,87.6898057034239
24.0835794 ,Left ,40.0753396391641 ,53.1733070372404 ,87.6555759502833
24.1061407 ,Left ,40.0691915197663 ,53.1785412542841 ,87.6191483239901
24.1210709 ,Left ,40.1060760268627 ,53.165829599982 ,87.5563271438605
24.1435784 ,Left ,40.1227756764747 ,53.1499420922577 ,87.4933916869078
24.1662096 ,Left ,40.1252034188497 ,53.1524454818922 ,87.4512205126267
24.1810898 ,Left ,40.1193594507786 ,53.1691557211808 ,87.3910029035853
24.2036512 ,Left ,40.1626412090928 ,53.1821829698542 ,87.328979711161
24.2262065 ,Left ,40.2417396045608 ,53.1936911759881 ,87.2663798172748
24.2411466 ,Left ,40.2794491887203 ,53.2256511640496 ,87.2054976806338
24.2635903 ,Left ,40.2880561446269 ,53.2840662502945 ,87.1592784303241
24.2860134 ,Left ,40.3274391674612 ,53.3396358564931 ,87.1065670149645
24.3010652 ,Left ,40.3893983990293 ,53.3898383628312 ,87.0664457523184
24.3235297 ,Left ,40.426770058553 ,53.4136081703814 ,87.0314403866817
24.3461399 ,Left ,40.4410888278109 ,53.4556797428267 ,87.0149105199511
24.3611136 ,Left ,40.4639022263962 ,53.5129618489578 ,87.0085127339482
24.3837573 ,Left ,40.487970249033 ,53.5789536871796 ,86.9987520410968
24.4061317 ,Left ,40.4956278712013 ,53.6510430590603 ,86.9856282937493
24.4210211 ,Left ,40.5329386913658 ,53.7092990967557 ,86.9775837354834
24.4435922 ,Left ,40.5258338229084 ,53.7503865549338 ,86.9636253324511
24.4661798 ,Left ,40.5365908807737 ,53.7807894227871 ,86.9591184461738
24.4825507 ,Left ,40.6225060057133 ,53.7602004641622 ,86.9466547965505
24.5037227 ,Left ,40.7492952170385 ,53.6934422666983 ,86.9355900695165
24.5261164 ,Left ,40.814469284335 ,53.5833035088525 ,86.9041101681696
24.542563 ,Left ,40.8427605323705 ,53.4919232248984 ,86.8986864191395
24.5635868 ,Left ,40.8908724469658 ,53.4661860952369 ,86.9693211992349
24.5860823 ,Left ,40.9488275216823 ,53.4335062340713 ,86.9871889779937
24.6025407 ,Left ,41.0322479245328 ,53.447007675064 ,86.9862747837016
24.6236579 ,Left ,41.1057090561406 ,53.4380563309073 ,86.9927025911843
24.6461066 ,Left ,41.1429657534413 ,53.4286607265441 ,86.9932135218163
24.6625816 ,Left ,41.1523727079863 ,53.4626731609968 ,86.9973470839356
24.6836623 ,Left ,41.1636286789643 ,53.5402314451139 ,86.9926307428101
24.7061364 ,Left ,41.2088897152537 ,53.619811147173 ,86.966630189039
24.7285902 ,Left ,41.2560328301319 ,53.6632004157064 ,86.9548283641811
24.7436057 ,Left ,41.2696995424201 ,53.6617021534384 ,86.9535022579254
24.7667373 ,Left ,41.2717253230932 ,53.6215733476697 ,86.9606065499501
24.7825968 ,Left ,41.2938968133122 ,53.6006500359891 ,86.9764954984858
24.8036799 ,Left ,41.3372926330303 ,53.5729262068205 ,86.9936249950177
24.8215018 ,Left ,41.3843086212514 ,53.544876493269 ,87.0025237640389
24.8439775 ,Left ,41.4228126214462 ,53.5379298246882 ,87.0114776210621
24.8636067 ,Left ,41.4540602923612 ,53.5476515593758 ,87.0176958529145
24.8860764 ,Left ,41.5020867833609 ,53.5586563656432 ,87.0196793411243
24.9040031 ,Left ,41.5294780749798 ,53.5699274397759 ,87.0299817176106
24.9235704 ,Left ,41.5536461097465 ,53.5885732182426 ,87.0492396357852
24.9418439 ,Left ,41.5542444113186 ,53.6061688258904 ,87.066800902616
24.9639816 ,Left ,41.5688698085768 ,53.6162263928029 ,87.0850837499467
24.9865395 ,Left ,41.5940752019272 ,53.6126593501226 ,87.10338207698
25.008942 ,Left ,41.6086600794599 ,53.6124598815935 ,87.1263574114205
25.0239836 ,Left ,41.6075668214907 ,53.6057589749039 ,87.15796179428
25.0436281 ,Left ,41.6013291948216 ,53.5969686945416 ,87.1895801387617
25.0615186 ,Left ,41.6206371356891 ,53.5855498108964 ,87.223510008583
25.0839312 ,Left ,41.6370451420747 ,53.5629331689519 ,87.2523368220275
25.1035854 ,Left ,41.6328323738031 ,53.5268588554247 ,87.2776367225019
25.1216367 ,Left ,41.6320101557906 ,53.4952627580619 ,87.2970135954064
25.1438998 ,Left ,41.6479500286671 ,53.4629419139614 ,87.3229526007152
25.1671105 ,Left ,41.6521718818927 ,53.4344761755658 ,87.3565619542534
25.1816284 ,Left ,41.6350016032552 ,53.4177687683053 ,87.3913433284082
25.2086661 ,Left ,41.6635877454035 ,53.3875245626282 ,87.4235473250318
25.2235596 ,Left ,41.7372288006264 ,53.3557039397249 ,87.4787980021171
25.2414873 ,Left ,41.7434638857496 ,53.3886178823944 ,87.5654137859283
25.2640277 ,Left ,41.7122200167908 ,53.4571393559452 ,87.688098951324
25.2837583 ,Left ,41.688823606653 ,53.5285226781293 ,87.7505883852618
25.3090056 ,Left ,41.7043053650979 ,53.5564261300356 ,87.8092344293976
25.3239965 ,Left ,41.6671228352168 ,53.5108940786434 ,87.8555599729111
25.3435935 ,Left ,41.5585044380499 ,53.4480783313456 ,87.846507006923
25.3615395 ,Left ,41.5169533648571 ,53.404001300295 ,87.8476302392422
25.3840799 ,Left ,41.4898196488414 ,53.3402208370773 ,87.8358284940477
25.4035459 ,Left ,41.4561114311229 ,53.2800657508595 ,87.8407484327701
25.4215064 ,Left ,41.3878778416526 ,53.2406073258097 ,87.8480909009922
25.4440407 ,Left ,41.2929774151615 ,53.210949520344 ,87.8916358178372
25.4649777 ,Left ,41.2162603509523 ,53.1943304627833 ,87.9052773716201
25.4861242 ,Left ,41.2052027571102 ,53.1807563893386 ,87.8940449274524
25.5040356 ,Left ,41.2125430051459 ,53.1641547376257 ,87.8871768456774
25.525059 ,Left ,41.1427592441559 ,53.1537223027159 ,87.9151298378904
25.5414949 ,Left ,41.0175908249661 ,53.178612756112 ,87.945214463604
25.5641734 ,Left ,40.9436756999594 ,53.2438068344963 ,87.9702385492558
25.5849606 ,Left ,40.9338744094699 ,53.3160617280368 ,88.0159187117437
25.6014687 ,Left ,40.8797499971073 ,53.3477745908074 ,88.0360328578302
25.6239006 ,Left ,40.8043797059566 ,53.3593849135315 ,88.0509049747812
25.6449639 ,Left ,40.7348309021698 ,53.3379645952214 ,88.0581388723473
25.6615273 ,Left ,40.7252518866003 ,53.2479522025243 ,88.0498146772765
25.6835784 ,Left ,40.7033943358551 ,53.1314861539195 ,88.042398136613
25.7042451 ,Left ,40.6537944708761 ,53.0141177073761 ,88.0368020794172
25.7343276 ,Left ,40.6071247714169 ,52.927519601357 ,88.034603979083
25.7431513 ,Left ,40.6038007681094 ,52.8873191835552 ,88.0216860846328
25.7657803 ,Left ,40.5719285966042 ,52.8572593485915 ,88.0280736215066
25.780683 ,Left ,40.5589064526908 ,52.908463078511 ,88.0465577395883
25.8031341 ,Left ,40.5002313075487 ,52.9555669375782 ,88.0871971822011
25.8257694 ,Left ,40.489318267856 ,52.9996768381729 ,88.1332766652467
25.8407203 ,Left ,40.4784752258827 ,52.9865662617259 ,88.1484425623303
25.8632011 ,Left ,40.4921047601456 ,52.9436032350651 ,88.1595008653177
25.8856857 ,Left ,40.4515451563461 ,52.8820152706734 ,88.1426953181613
25.9006365 ,Left ,40.3897529296038 ,52.8526547719812 ,88.1425380178384
25.9231639 ,Left ,40.3783446181239 ,52.805214068211 ,88.1385088667721
25.9457081 ,Left ,40.3657814320719 ,52.7499725729427 ,88.1240368309581
25.9601996 ,Left ,40.3172617688515 ,52.7068993675203 ,88.129020172731
25.9831538 ,Left ,40.3091481047327 ,52.7119596217646 ,88.1104890964794
26.0057064 ,Left ,40.2872875643296 ,52.7303856843387 ,88.1256099928451
26.0200347 ,Left ,40.2525766789234 ,52.8114092894515 ,88.1509495910302
26.0432237 ,Left ,40.1960755388585 ,52.9126159747745 ,88.1654817305409
26.065954 ,Left ,40.184786603242 ,52.975421820623 ,88.1740720023512
26.0800351 ,Left ,40.1485170066038 ,52.9731170576402 ,88.1809938243093
26.1031967 ,Left ,40.0813931065805 ,52.9412947543052 ,88.1707266526993
26.125723 ,Left ,40.0074348991939 ,52.882142331261 ,88.1596030887563
26.1400763 ,Left ,40.0024696221775 ,52.8102585988322 ,88.1484074734361
26.1631962 ,Left ,40.0126197633087 ,52.7381571348648 ,88.1479313390075
26.1856898 ,Left ,40.0032381531109 ,52.6936245657401 ,88.1520244516577
26.1999769 ,Left ,39.971705677498 ,52.6793451465611 ,88.1803782094743
26.2231983 ,Left ,39.9672963725406 ,52.6684447960533 ,88.2016341057759
26.253221 ,Left ,39.9727329597553 ,52.6568885329498 ,88.2159886206795
26.2667356 ,Left ,39.9875973595091 ,52.6261554607134 ,88.2065249950592
26.2907208 ,Left ,39.9656482517583 ,52.6121257692873 ,88.208705478595
26.3132266 ,Left ,39.9550784438384 ,52.6205683884524 ,88.2051868785156
26.3267433 ,Left ,39.9547044350269 ,52.6394395033452 ,88.2092920738827
26.3432107 ,Left ,39.9571610860938 ,52.6719349834694 ,88.2333552354424
26.3657234 ,Left ,39.9024353998463 ,52.7155976363591 ,88.2524347126998
26.3867959 ,Left ,39.9083749072582 ,52.7483659812708 ,88.2731069305193
26.403164 ,Left ,39.9524037371197 ,52.712330936952 ,88.2778189560622
26.4256983 ,Left ,40.0176287413547 ,52.6008841180533 ,88.2791695860608
26.4467617 ,Left ,39.9769275060467 ,52.4433056135524 ,88.2542184224386
26.4632191 ,Left ,39.9377309727341 ,52.3545592149615 ,88.2575106821232
26.4932387 ,Left ,39.9490974405294 ,52.2965067390302 ,88.2646919564726
26.5067278 ,Left ,39.993296088781 ,52.2519080558205 ,88.2391729447814
26.523205 ,Left ,40.0336038163184 ,52.1909292575838 ,88.2080556535399
26.5457748 ,Left ,40.0641395032302 ,52.1344805224015 ,88.1887444902195
26.566772 ,Left ,40.0770984597962 ,52.1363215352342 ,88.1937859297951
26.5907469 ,Left ,40.061502615502 ,52.2072204886857 ,88.1835619032114
26.6133336 ,Left ,40.115708956833 ,52.3000170665166 ,88.1522746925925
26.626833 ,Left ,40.2187025119689 ,52.3538889161848 ,88.1379580609432
26.6425359 ,Left ,40.2553746571763 ,52.3773960136836 ,88.1416093612854
26.6657207 ,Left ,40.2129709552438 ,52.3691305932296 ,88.1291021233522
26.6868014 ,Left ,40.1945977062893 ,52.3769448942991 ,88.1184869723759
26.7025499 ,Left ,40.2642516064346 ,52.3852417459395 ,88.1037491576142
26.7257085 ,Left ,40.3571190387016 ,52.3827468777538 ,88.0824860856307
26.7482823 ,Left ,40.398847577225 ,52.4042337776314 ,88.0644504675556
26.7631838 ,Left ,40.4270935009533 ,52.4303065055968 ,88.0410276646846
26.7856114 ,Left ,40.4700300531715 ,52.4654931207853 ,88.0145988899335
26.8081093 ,Left ,40.5247305033289 ,52.505153125242 ,87.980047920316
26.823242 ,Left ,40.5649775841854 ,52.5404843519424 ,87.948906363446
26.8457302 ,Left ,40.5934257872228 ,52.5674684244539 ,87.919444414278
26.8681792 ,Left ,40.6267961838923 ,52.5961886461881 ,87.8973709966739
26.8825347 ,Left ,40.6639312387911 ,52.6150383757509 ,87.8823498560596
26.9056737 ,Left ,40.683191963784 ,52.6283080095495 ,87.879972968973
26.9282225 ,Left ,40.6935417859157 ,52.6391644192695 ,87.8892198312482
26.9425734 ,Left ,40.7312548865241 ,52.655112196455 ,87.9035993810881
26.9657127 ,Left ,40.7935137612878 ,52.6732561650912 ,87.9165443507035
26.9907502 ,Left ,40.8668171414595 ,52.6910010131985 ,87.929130147241
27.0024112 ,Left ,40.9069087778856 ,52.7242697685882 ,87.9393467226411
27.0256027 ,Left ,40.9315131928061 ,52.7693260040785 ,87.9410416428694
27.0481297 ,Left ,40.9722711135998 ,52.817842613993 ,87.9241429463802
27.0624073 ,Left ,41.0238687402578 ,52.856872250196 ,87.9057798480436
27.0855967 ,Left ,41.0542702655016 ,52.8909983336364 ,87.881990032468
27.1081767 ,Left ,41.0763549904803 ,52.9202033247463 ,87.8596744120844
27.1229495 ,Left ,41.1182017893769 ,52.9476981196891 ,87.8357373081271
27.1456885 ,Left ,41.1741725469547 ,52.9750781175416 ,87.8161047895797
27.1681674 ,Left ,41.2272149199 ,53.0240336992529 ,87.8074308549231
27.1825435 ,Left ,41.2454134258296 ,53.0687229259068 ,87.7992238297086
27.2056594 ,Left ,41.270896752754 ,53.0986579761744 ,87.7645059023294
27.2280624 ,Left ,41.2873314403296 ,53.1020347217335 ,87.7254530403937
27.249838 ,Left ,41.2836001758764 ,53.0883706382332 ,87.7024477723802
27.2656269 ,Left ,41.2331429447822 ,53.0834128888972 ,87.6889762039508
27.288115 ,Left ,41.1978601857435 ,53.0684281291524 ,87.6742566088791
27.3092409 ,Left ,41.2741284262266 ,53.0240873135305 ,87.689801275595
27.3257029 ,Left ,41.3437765246902 ,52.9863881108925 ,87.7065510176222
27.3481351 ,Left ,41.344524938743 ,52.9488170903183 ,87.7506530756154
27.3692878 ,Left ,41.3516143736499 ,52.9221485700701 ,87.8022131473641
27.3856961 ,Left ,41.3256932997561 ,52.9066128021078 ,87.824163635512
27.4082424 ,Left ,41.335307065935 ,52.9153321434753 ,87.8358358630514
27.4290297 ,Left ,41.3477439499447 ,52.9415881363468 ,87.8336900352855
27.4456907 ,Left ,41.3710394198716 ,52.964105940461 ,87.8354715284742
27.4681379 ,Left ,41.3635904457636 ,52.9855971788712 ,87.8356387648556
27.4892123 ,Left ,41.3262695722831 ,53.0053844337518 ,87.8392090023413
27.5056964 ,Left ,41.2672166605948 ,53.0575457996768 ,87.8280345217997
27.5281769 ,Left ,41.2753444925362 ,53.1257963307409 ,87.8414780171121
27.5491864 ,Left ,41.3094544234857 ,53.1917854474202 ,87.8782404263077
27.5656937 ,Left ,41.29016576985 ,53.2511830175814 ,87.8978765879853
27.5882748 ,Left ,41.264903887726 ,53.3057564756757 ,87.8884893075727
27.6092013 ,Left ,41.2952398652223 ,53.332624083737 ,87.8702829469707
27.6257122 ,Left ,41.3338153507874 ,53.3216745098118 ,87.8657137045429
27.6481618 ,Left ,41.3013449534381 ,53.2728380783028 ,87.8420730591175
27.6767693 ,Left ,41.2734944105359 ,53.2291892709804 ,87.8241305908305
27.685588 ,Left ,41.2628735143195 ,53.2264396154697 ,87.8110780557017
27.7081708 ,Left ,41.246624110983 ,53.2248218036531 ,87.8115652653685
27.7306978 ,Left ,41.2148913810077 ,53.2370795927848 ,87.8111362760008
27.7457762 ,Left ,41.2197812406132 ,53.2536014950811 ,87.8258871341276
27.7682007 ,Left ,41.2177175208627 ,53.2773225100861 ,87.8627357173465
27.7906955 ,Left ,41.2109921051807 ,53.327787862232 ,87.8712645592303
27.8050693 ,Left ,41.2432784825269 ,53.3641926220406 ,87.8619233726868
27.8281994 ,Left ,41.2916346597907 ,53.3550722721888 ,87.8588478471683
27.8516497 ,Left ,41.2419881210403 ,53.3527875697965 ,87.8442534567122
27.865205 ,Left ,41.1554139070022 ,53.3637769999978 ,87.8141738876462
27.8881767 ,Left ,41.1538340749474 ,53.3561229120333 ,87.7943416911955
27.9108241 ,Left ,41.1655468370149 ,53.3365728152867 ,87.7780465304098
27.9250516 ,Left ,41.120099014913 ,53.3061585664537 ,87.7784320143895
27.955696 ,Left ,41.0916604797016 ,53.2777475878249 ,87.7699704891779
27.9707315 ,Left ,41.038408053762 ,53.2716654101723 ,87.7819818957067
27.9850513 ,Left ,40.9840001696394 ,53.3587313860911 ,87.7949111859438
28.0082505 ,Left ,40.9433457281255 ,53.4955052681788 ,87.8073927367664
28.0307351 ,Left ,40.947880322078 ,53.623355920662 ,87.8313075855215
28.0518469 ,Left ,40.9198494746544 ,53.7040929331767 ,87.839959961601
28.0681245 ,Left ,40.8624362788609 ,53.7406215299801 ,87.8396944994121
28.0907428 ,Left ,40.8177880458594 ,53.7428635297506 ,87.826244810224
28.111704 ,Left ,40.7916773771083 ,53.7417690410512 ,87.7985200729399
28.1282048 ,Left ,40.743258325551 ,53.7263049720468 ,87.7563806481664
28.1506618 ,Left ,40.700506444625 ,53.6931146237332 ,87.715751065068
28.1717362 ,Left ,40.6574886757446 ,53.6640383462598 ,87.6919110076841
28.1882142 ,Left ,40.6068933208788 ,53.6416332223138 ,87.6877052557793
28.2106942 ,Left ,40.5882629204317 ,53.6213974663948 ,87.680135564108
28.2317262 ,Left ,40.5678450872202 ,53.635422522033 ,87.7117974390846
28.2556019 ,Left ,40.5660315721712 ,53.7066757949934 ,87.7812036395289
28.2707237 ,Left ,40.5564002068665 ,53.776324885765 ,87.8301823559804
28.2917809 ,Left ,40.5322416595074 ,53.8165808810329 ,87.8471597020774
28.3082322 ,Left ,40.4993129878745 ,53.7977599710273 ,87.8475012755051
28.3307046 ,Left ,40.4287870394428 ,53.7412602123708 ,87.8426473772989
28.3517762 ,Left ,40.3510031059946 ,53.6663453881406 ,87.8462243300977
28.3680784 ,Left ,40.3053793556891 ,53.5498716669105 ,87.809858235732
28.3907237 ,Left ,40.2684276957415 ,53.4537118619333 ,87.7711638889246
28.4118077 ,Left ,40.2178290997472 ,53.3765498019721 ,87.7473711300879
28.4279871 ,Left ,40.1911429122896 ,53.3225586205309 ,87.7104958920755
28.4506158 ,Left ,40.1841364471582 ,53.2782130076644 ,87.721799382386
28.4718049 ,Left ,40.234211187323 ,53.2403007495268 ,87.7910359687377
28.4880494 ,Left ,40.2757990171583 ,53.2015954417266 ,87.8529370520274
28.5106582 ,Left ,40.3094759312926 ,53.1607166997442 ,87.877510554736
28.5317517 ,Left ,40.355390377021 ,53.086734617515 ,87.8947810376665
28.5481219 ,Left ,40.3889606339882 ,53.0081383535676 ,87.9357523158575
28.570628 ,Left ,40.3614782211351 ,52.9624819082046 ,87.9605217337237
28.591785 ,Left ,40.3322601496051 ,52.9836443220516 ,87.9954934064653
28.6082136 ,Left ,40.3225126765252 ,53.0295937090808 ,88.0294916280265
28.6306974 ,Left ,40.2897996254861 ,53.0419268610151 ,88.0530411434872
28.6532371 ,Left ,40.2616315153442 ,53.0070778705664 ,88.0767626687374
28.6680445 ,Left ,40.248295308178 ,52.9512285674026 ,88.1090066623899
28.6906667 ,Left ,40.1999507753451 ,52.8711252762793 ,88.1319510772519
28.7131682 ,Left ,40.163063616857 ,52.7920600712871 ,88.1513310723119
28.7275425 ,Left ,40.1561747914596 ,52.7167433969585 ,88.1685538118346
28.750716 ,Left ,40.1314923093652 ,52.6480195688064 ,88.1847278140807
28.7731553 ,Left ,40.1105606867706 ,52.6136375923703 ,88.2074129008097
28.7879611 ,Left ,40.0899118411425 ,52.59277609663 ,88.2224997567969
28.8107095 ,Left ,40.0795793026337 ,52.5809678741691 ,88.2328986123408
28.8337743 ,Left ,40.0494973538857 ,52.5677123079906 ,88.2402435166783
28.8475367 ,Left ,40.0379190488539 ,52.5544094078109 ,88.2546854158381
28.870602 ,Left ,40.0273741110664 ,52.5412584417388 ,88.2606410501772
28.8931831 ,Left ,40.0185381727869 ,52.5365312436942 ,88.2704369793578
28.907556 ,Left ,40.0029178981576 ,52.5216698842484 ,88.2917867937884
28.9307128 ,Left ,39.9684452502015 ,52.4948524073382 ,88.3184096553106
28.9607215 ,Left ,39.9724066496187 ,52.4653871459628 ,88.3409761888764
28.9675494 ,Left ,39.9685349808998 ,52.4306467572998 ,88.363047354852
28.9906566 ,Left ,39.9514059795897 ,52.4093721353586 ,88.3865714161246
29.0131216 ,Left ,39.9326739294795 ,52.3982232342848 ,88.4085207000102
29.0275458 ,Left ,39.9458569304963 ,52.388655316347 ,88.434591603679
29.0507153 ,Left ,39.9373762248523 ,52.3826161638297 ,88.4467806071819
29.0731148 ,Left ,39.9335226546452 ,52.3852168017624 ,88.4525109783901
29.0875012 ,Left ,39.9422043169517 ,52.3849180717153 ,88.4632561850188
29.1107065 ,Left ,39.9576542968909 ,52.3745110172892 ,88.4764596048111
29.1333753 ,Left ,39.9556089439244 ,52.3758460033496 ,88.4906616735022
29.1543147 ,Left ,39.9527414290308 ,52.3816895386634 ,88.4987684702978
29.1706616 ,Left ,39.9600890894115 ,52.3812300065912 ,88.5033113803249
29.1931573 ,Left ,39.966344026322 ,52.366468960407 ,88.5056524596932
29.2141721 ,Left ,39.9606341035509 ,52.3399260522048 ,88.5124438103289
29.2306493 ,Left ,39.9528341665501 ,52.3124833255099 ,88.5257925968441
29.2606961 ,Left ,39.9426664894878 ,52.2756035916974 ,88.5327633501462
29.2742191 ,Left ,39.9552335507793 ,52.2535358320363 ,88.5398219934918
29.2906049 ,Left ,39.9904906726097 ,52.2534824108951 ,88.541862954095
29.3131744 ,Left ,40.0410856628005 ,52.2767787373943 ,88.55236960837
29.3417173 ,Left ,40.0400344843586 ,52.3209005475724 ,88.5682373505911
29.3508513 ,Left ,40.0680813262981 ,52.3883294729386 ,88.5835507112825
29.3731428 ,Left ,40.0301800443983 ,52.4618475541522 ,88.5937544193223
29.3941992 ,Left ,40.0190894262091 ,52.5201044842898 ,88.6096631145938
29.410651 ,Left ,40.0440807009162 ,52.5474090980705 ,88.6275130805643
29.4331004 ,Left ,40.0958991712425 ,52.520778986611 ,88.6475284889508
29.4542447 ,Left ,40.0552278674059 ,52.4696622313872 ,88.6570835881855
29.47079 ,Left ,39.9847930989499 ,52.3910237977109 ,88.6612308987354
29.493171 ,Left ,39.9465520995358 ,52.3383353507202 ,88.6700004792307
29.5141981 ,Left ,39.965193451877 ,52.3063902256489 ,88.6666236084386
29.5306925 ,Left ,40.0161780601227 ,52.2837250396147 ,88.6709194285367
29.536062 ,Left ,40.0429937593524 ,52.2719674161098 ,88.6886984708352
29.5586007 ,Left ,40.0430451582555 ,52.2766559389364 ,88.69681932507
29.5810598 ,Left ,40.0416010635052 ,52.2853870701202 ,88.7054934905714
29.5960927 ,Left ,40.068323843675 ,52.3093763340732 ,88.7029496396823
29.6215431 ,Left ,40.1139139031467 ,52.3308024338017 ,88.6917226847592
29.642521 ,Left ,40.1425107630397 ,52.3659841950174 ,88.6875025135906
29.6560668 ,Left ,40.1453451521157 ,52.4042445727396 ,88.6795194302666
29.6785936 ,Left ,40.1626915880317 ,52.4443229009514 ,88.6603039852622
29.7011192 ,Left ,40.2081781737936 ,52.4783843471492 ,88.6392414448313
29.7161075 ,Left ,40.2400871036253 ,52.5084043895057 ,88.6206126613408
29.7385708 ,Left ,40.2486801219522 ,52.5384634596503 ,88.5921924373366
29.7610753 ,Left ,40.2707067568402 ,52.5629685819225 ,88.5661241524261
29.7760536 ,Left ,40.3066793112145 ,52.5865985545111 ,88.5426298129159
29.7985656 ,Left ,40.3320856464633 ,52.6043457491876 ,88.5348025998522
29.8210553 ,Left ,40.3503752582284 ,52.626356937035 ,88.5273204044981
29.8359993 ,Left ,40.3712484698103 ,52.6525774995196 ,88.5238213299181
29.8615351 ,Left ,40.4136016843187 ,52.6822092997512 ,88.5131142272762
29.8841746 ,Left ,40.462872475252 ,52.70873046975 ,88.4981534963853
29.8961446 ,Left ,40.5178868132379 ,52.7388434101667 ,88.4886605338214
29.9186016 ,Left ,40.5533867599584 ,52.7747238345785 ,88.4692047698966
29.9410561 ,Left ,40.585831855154 ,52.8178885103334 ,88.44790161515
29.9560713 ,Left ,40.6232793898038 ,52.8615576777493 ,88.4216910778725
29.9785872 ,Left ,40.6706696455239 ,52.9023643347981 ,88.3958764918842
30.0011069 ,Left ,40.7017916610365 ,52.9393272388553 ,88.3689160316494
30.0160431 ,Left ,40.7366539837347 ,52.9734305827952 ,88.3424353412042
30.0385201 ,Left ,40.7838838275984 ,52.9997110012178 ,88.3192844787417
30.0610299 ,Left ,40.8352423142068 ,53.0286214683187 ,88.3001736244329
30.0775713 ,Left ,40.8680316865025 ,53.0462480859294 ,88.2885845199367
30.0985902 ,Left ,40.907738509001 ,53.056083987407 ,88.2797356104645
30.1211007 ,Left ,40.9506362007219 ,53.0621158680371 ,88.2686429746004
30.1374109 ,Left ,40.9468055730841 ,53.1267477298687 ,88.2767404876865
30.1614776 ,Left ,40.9481904285695 ,53.1783990977127 ,88.2698732678423
30.1811338 ,Left ,40.9931284398103 ,53.2365601811393 ,88.226711604516
30.1975181 ,Left ,41.0422736100789 ,53.2704203254896 ,88.220387571953
30.2215035 ,Left ,41.0193073099348 ,53.2709273689072 ,88.246524825541
30.2410985 ,Left ,40.8953799392621 ,53.2941124035784 ,88.2359329797367
30.2575133 ,Left ,40.875022957206 ,53.360061124633 ,88.2373327549831
30.2785614 ,Left ,40.949065890494 ,53.3947476648188 ,88.2078738505117
30.3013865 ,Left ,41.0299041498034 ,53.4078047006531 ,88.1963332737118
30.3176255 ,Left ,41.0166596558367 ,53.4214132790083 ,88.1727504559189
30.3385318 ,Left ,40.943629106342 ,53.4335539417793 ,88.168067562016
30.3610642 ,Left ,40.9049126104634 ,53.449328219372 ,88.1374479285691
30.3775189 ,Left ,40.8787056424682 ,53.4648383935911 ,88.0879160418091
30.3985396 ,Left ,40.8471771705819 ,53.4724865135588 ,88.0674631983231
30.4210876 ,Left ,40.7976980557069 ,53.4560520506547 ,88.039393965911
30.4376207 ,Left ,40.7670528486639 ,53.4305372496038 ,88.0271922697728
30.4586112 ,Left ,40.6804934555931 ,53.4005208577625 ,87.9830506156766
30.481067 ,Left ,40.7082694802697 ,53.3581272209122 ,87.9943421303963
30.4989964 ,Left ,40.7595853963023 ,53.3215912386089 ,88.0029835297118
30.5185866 ,Left ,40.7816654306803 ,53.3408852350884 ,88.0117276632893
30.5410275 ,Left ,40.7930538301656 ,53.3776433229629 ,88.0260308185284
30.5589425 ,Left ,40.7867215876713 ,53.4132295267162 ,88.0439392708341
30.5785692 ,Left ,40.7458833755793 ,53.4697556774227 ,88.0542201134303
30.5964604 ,Left ,40.6907699063569 ,53.5197263036677 ,88.0588628568582
30.6189339 ,Left ,40.6723073369973 ,53.5610088912898 ,88.0724771466444
30.6386167 ,Left ,40.6888457663556 ,53.5868718358844 ,88.0974597508923
30.6610715 ,Left ,40.673188766116 ,53.5848350981971 ,88.1285278118639
30.678971 ,Left ,40.6719557577918 ,53.5986051060245 ,88.1318002291817
30.6985611 ,Left ,40.705381086851 ,53.5733920580948 ,88.1165700542388
30.7188073 ,Left ,40.6906906022019 ,53.5757352277665 ,88.1033705809669
30.7390024 ,Left ,40.6441615424827 ,53.6072835160602 ,88.1185147531361
30.7585556 ,Left ,40.6279142544031 ,53.6038933805014 ,88.127949266373
30.7765115 ,Left ,40.6205773277324 ,53.5980809245001 ,88.1328449551249
30.7990455 ,Left ,40.5841551613539 ,53.5440993387766 ,88.1299183942691
30.8186745 ,Left ,40.5591322418468 ,53.5096400779078 ,88.1264429581509
30.8366499 ,Left ,40.5370664111465 ,53.4841718382266 ,88.1275846711305
30.8589769 ,Left ,40.5538495401829 ,53.5031834000372 ,88.1510834454618
30.878549 ,Left ,40.4840964613594 ,53.5371368213037 ,88.172561612845
30.8964287 ,Left ,40.4305914922921 ,53.6148894451665 ,88.1854878826311
30.9190786 ,Left ,40.4517016302186 ,53.6815052227612 ,88.1897519021945
30.9385541 ,Left ,40.4931328142473 ,53.7013234805839 ,88.2000421275041
30.9565133 ,Left ,40.5176693994467 ,53.6748772042914 ,88.2015505937471
30.9790615 ,Left ,40.4376572976577 ,53.6627678137461 ,88.1884944302007
30.9985614 ,Left ,40.3500081068969 ,53.6562328386849 ,88.1650481730241
31.0164798 ,Left ,40.2715032844704 ,53.6350117661699 ,88.1416452019814
31.0389358 ,Left ,40.2336031416783 ,53.5918739095164 ,88.1156856878165
31.0586167 ,Left ,40.2131997031597 ,53.578118374464 ,88.1248567489618
31.0764891 ,Left ,40.1488797186782 ,53.590284131968 ,88.1233633853984
31.0992217 ,Left ,40.1013635800673 ,53.5979268830522 ,88.0840597197436
31.1202057 ,Left ,40.0704700551692 ,53.5766734178304 ,88.0324480717883
31.1364006 ,Left ,40.0034649519679 ,53.5727836545201 ,88.0019007510959
31.1589475 ,Left ,39.919561643862 ,53.5758117372828 ,88.0016677846383
31.1800584 ,Left ,39.879496326471 ,53.5893449065234 ,88.0057006861152
31.1964583 ,Left ,39.9382997836663 ,53.5610424559397 ,88.0281242742224
31.2188665 ,Left ,40.0938639455803 ,53.4470592769821 ,88.0586501945007
31.2400746 ,Left ,40.1245876571142 ,53.2720386124847 ,88.0483016898244
31.261072 ,Left ,40.0615793569573 ,53.126175486541 ,88.0873259165096
31.2864963 ,Left ,40.1109704207766 ,53.0456771354233 ,88.1479352545021
31.3060704 ,Left ,40.2410850734361 ,52.9784446097234 ,88.1594952146457
31.3286121 ,Left ,40.3958594295069 ,52.9560232527269 ,88.1870793851472
31.3389818 ,Left ,40.4531287146114 ,52.9302638638758 ,88.234909579683
31.3599339 ,Left ,40.426073416823 ,52.9281054274312 ,88.2784740969583
31.3817361 ,Left ,40.4049531392903 ,52.9982758032256 ,88.3033882163245
31.3981106 ,Left ,40.4669290867402 ,53.0933236151696 ,88.3103524709081
31.4192479 ,Left ,40.5505817293356 ,53.1479606256744 ,88.3195764641588
31.4356579 ,Left ,40.5626654338888 ,53.1356267922265 ,88.3642685532987
31.4580915 ,Left ,40.5001588269188 ,53.0668260965723 ,88.3963839592487
31.4806967 ,Left ,40.4835247254015 ,52.9951997894911 ,88.4146586268758
31.4957194 ,Left ,40.5142512404411 ,52.9597687012505 ,88.4308077038141
31.5192892 ,Left ,40.5940033449977 ,52.9223556522295 ,88.4404010919086
31.5405746 ,Left ,40.6644349790189 ,52.8972020164095 ,88.4502983293718
31.5557052 ,Left ,40.6846223886692 ,52.8744418786204 ,88.4617516376818
31.5781948 ,Left ,40.6845616792248 ,52.8863482139167 ,88.4651778341796
31.6007647 ,Left ,40.7021843985927 ,52.9030539293062 ,88.4548533792336
31.6217543 ,Left ,40.7226298836602 ,52.9363598868628 ,88.4534281168419
31.6381764 ,Left ,40.7401477170636 ,52.9521527357797 ,88.46451548804
31.6606637 ,Left ,40.7535532305056 ,52.9628045643315 ,88.4866280455487
31.6749779 ,Left ,40.7952548727741 ,52.9659929412991 ,88.5176353299905
31.6981696 ,Left ,40.8526246742225 ,52.976243310467 ,88.5464367615728
31.7207235 ,Left ,40.9050976651678 ,52.9922255239398 ,88.5705265967595
31.7350247 ,Left ,40.9409447638116 ,52.9965037196338 ,88.5891853379629
31.7581431 ,Left ,40.9694838102807 ,53.0065722625266 ,88.5979236877793
31.7806502 ,Left ,40.9834220814573 ,53.0283601450915 ,88.5954212835231
31.7950446 ,Left ,40.9977368906403 ,53.0487667412976 ,88.57853261981
31.8182112 ,Left ,41.0306620079514 ,53.0504907820256 ,88.5830161223726
31.840708 ,Left ,41.0497979906769 ,53.0412207898364 ,88.5976588322921
31.8549736 ,Left ,41.0448747600771 ,53.0319147673391 ,88.6194115917132
31.8780862 ,Left ,41.0828430380826 ,53.0202699188422 ,88.6334086864866
31.9006813 ,Left ,41.1564324789247 ,53.0155087460673 ,88.6513968465209
31.9148754 ,Left ,41.2079587141505 ,53.0103262461177 ,88.6636750165062
31.9380924 ,Left ,41.2159458239625 ,53.009813857335 ,88.6680180217333
31.9605499 ,Left ,41.2008461922784 ,53.0151214117126 ,88.6578355416908
31.9817155 ,Left ,41.2288603433424 ,53.0176318727275 ,88.6288216919859
31.9980853 ,Left ,41.2433404232558 ,53.0094508165812 ,88.6019301535134
32.0210591 ,Left ,41.2198564094018 ,52.9980749330049 ,88.5894220944475
32.0417611 ,Left ,41.1761271360485 ,53.0081645519184 ,88.5949116962156
32.0580659 ,Left ,41.1579108008674 ,53.0305141542418 ,88.5786942507285
32.0808029 ,Left ,41.2006004303915 ,53.0548683873481 ,88.5635437216635
32.1018206 ,Left ,41.2949045248151 ,53.0797478826911 ,88.5387105381114
32.1182564 ,Left ,41.2965965101542 ,53.0948971648853 ,88.5445004249293
32.1406477 ,Left ,41.2501272477381 ,53.1383843947487 ,88.5386511316747
32.1617493 ,Left ,41.1881053812103 ,53.1913181280872 ,88.4956382542653
32.1780735 ,Left ,41.1920479705032 ,53.2289430291906 ,88.4736672021472
32.2006044 ,Left ,41.1602023396082 ,53.23643063146 ,88.4167447408023
32.2216935 ,Left ,41.113596184107 ,53.2309776345788 ,88.3908826039673
32.2380304 ,Left ,41.1108439529743 ,53.1869867840935 ,88.3859372198475
32.2606545 ,Left ,41.0902308148927 ,53.1560101577744 ,88.3795340347304
32.2819681 ,Left ,41.0629500692501 ,53.1332554875261 ,88.388997917518
32.2980514 ,Left ,41.0136715875743 ,53.0989423676852 ,88.3752355243216
32.3205634 ,Left ,40.971704736905 ,53.054115094012 ,88.3448975893263
32.3417482 ,Left ,40.9804965441096 ,53.0142793762431 ,88.3402960396744
32.3580665 ,Left ,40.9640285093604 ,53.0038233441698 ,88.3227426415386
32.380655 ,Left ,40.8972426914233 ,53.0261128477468 ,88.31468701591
32.4031253 ,Left ,40.8278778297695 ,53.0734577012262 ,88.3130774287535
32.4196467 ,Left ,40.808201566736 ,53.1366812117426 ,88.3119296712128
32.4406804 ,Left ,40.8668741232241 ,53.1649824872745 ,88.3397064067659
32.4631246 ,Left ,40.916370329824 ,53.1692606022465 ,88.3559450442371
32.4781224 ,Left ,40.9359707076241 ,53.1756478439858 ,88.3792141707082
32.5006753 ,Left ,40.9166470587563 ,53.1502220703146 ,88.3927373737675
32.5231626 ,Left ,40.8710323567564 ,53.1198150712984 ,88.3637630739871
32.5375672 ,Left ,40.873712185543 ,53.0951676444888 ,88.3076964303773
32.5606594 ,Left ,40.8474890655554 ,53.1246138984916 ,88.2707125014588
32.5832121 ,Left ,40.7436965951466 ,53.1534062704123 ,88.2539046478383
32.5975646 ,Left ,40.7060905180575 ,53.2280195689277 ,88.2612389520441
32.620576 ,Left ,40.7254806529911 ,53.2952907492755 ,88.2801706828654
32.6431916 ,Left ,40.7518577980542 ,53.3433565323408 ,88.2924679142512
32.6642302 ,Left ,40.8015174565296 ,53.3703168592341 ,88.2766275536233
32.6807114 ,Left ,40.8278786569279 ,53.3602939677572 ,88.2782982477836
32.7031753 ,Left ,40.7643951213528 ,53.3246168182308 ,88.2458449627003
32.717848 ,Left ,40.7049104549272 ,53.3177293500315 ,88.2000506318638
32.7407186 ,Left ,40.686140849464 ,53.3157497575035 ,88.1594737714713
32.7631764 ,Left ,40.6683034810522 ,53.3137435536392 ,88.1428386807975
32.7856881 ,Left ,40.6274808211839 ,53.2954094936115 ,88.1297100606616
32.8015615 ,Left ,40.5611603534875 ,53.2667113555858 ,88.1375934995902
32.8231621 ,Left ,40.5682378934507 ,53.2669844864147 ,88.1290307794964
32.8374378 ,Left ,40.6011143959725 ,53.2932039085239 ,88.1324918311194
32.8666215 ,Left ,40.6508804537242 ,53.380022924258 ,88.1405334671452
32.8830035 ,Left ,40.6230977730647 ,53.4490479822522 ,88.145785073699
32.9041969 ,Left ,40.628138842923 ,53.4806429608279 ,88.1407316183644
32.9206841 ,Left ,40.6327084606633 ,53.459183714005 ,88.1204956288604
32.9506227 ,Left ,40.6380444901375 ,53.411965332253 ,88.0941860834596
32.971793 ,Left ,40.586448583038 ,53.3563379166844 ,88.0894405758477
32.9806209 ,Left ,40.5437475879393 ,53.3033672426134 ,88.1075164657835
33.0031287 ,Left ,40.5482658685501 ,53.2609511264006 ,88.1171207953795
33.0242107 ,Left ,40.5672086912405 ,53.2224400597209 ,88.1298536152999
33.0406617 ,Left ,40.5738101430381 ,53.2054933524083 ,88.1486520817218
33.0631965 ,Left ,40.5545517154435 ,53.2168620414189 ,88.1509900237044
33.084216 ,Left ,40.489872491616 ,53.2747620392469 ,88.115457172303
33.1006296 ,Left ,40.4223111533354 ,53.3583461119842 ,88.0470781934046
33.1231785 ,Left ,40.395808772905 ,53.4394465097177 ,87.9957331349815
33.1442291 ,Left ,40.3723986579277 ,53.4914016609599 ,87.9885970240874
33.1606714 ,Left ,40.3428565983873 ,53.5273658504324 ,88.0291755513024
33.183083 ,Left ,40.3642566372596 ,53.5670755987242 ,88.0726009996454
33.2042883 ,Left ,40.422433241144 ,53.5459083761037 ,88.0976738957493
33.2281904 ,Left ,40.5450106237033 ,53.447368889264 ,88.1206258515696
33.2491907 ,Left ,40.6235827127829 ,53.2360688621052 ,88.0955683911612
33.2642439 ,Left ,40.6123103031158 ,53.0407557958762 ,88.0774402693825
33.2800176 ,Left ,40.5913837284155 ,52.9633015826682 ,88.1227272470889
33.3031905 ,Left ,40.6329046425103 ,52.9326227070541 ,88.1166557790021
33.3256795 ,Left ,40.6908395131213 ,52.9034554617824 ,88.0851678882347
33.3400299 ,Left ,40.7535086175115 ,52.8767911195305 ,88.1057614527855
33.3630811 ,Left ,40.7224024191138 ,52.8836374167578 ,88.1577423161668
33.3857581 ,Left ,40.7191703432289 ,52.9495941652816 ,88.2105592407123
33.4000564 ,Left ,40.8001820863252 ,53.0400868130714 ,88.2492907862802
33.4233999 ,Left ,40.8941731035316 ,53.0594564268436 ,88.3031082979319
33.4454016 ,Left ,40.9198102756823 ,53.0163117944679 ,88.3643700287395
33.4601645 ,Left ,40.8586037920852 ,52.9335976969056 ,88.3845007903779
33.4831493 ,Left ,40.8120931246729 ,52.8770719863761 ,88.383631332374
33.5056851 ,Left ,40.825822120756 ,52.8437936172904 ,88.3722998829055
33.5199117 ,Left ,40.8664552900458 ,52.8195688627376 ,88.3751688683208
33.550719 ,Left ,40.8784143745591 ,52.7903668687728 ,88.3981952618374
33.5656774 ,Left ,40.9124027572658 ,52.7669287972834 ,88.4381256027506
33.5800618 ,Left ,41.0006701359461 ,52.7493146216621 ,88.4765976167386
33.6033892 ,Left ,41.089159183271 ,52.74863392514 ,88.5129849556681
33.6256866 ,Left ,41.1427416348703 ,52.7606952246004 ,88.5455250901682
33.6399682 ,Left ,41.1557192014387 ,52.7854166622631 ,88.5644087765117
