timestamp,event,roll,pitch,yaw
0.0258052 ,Left ,69,0308506592925 ,42,1261106944115 ,72,7931373067375
0.0258072 ,Left ,69,0308506592925 ,42,1261106944115 ,72,7931373067375
0.0482041 ,Left ,69,0392124710949 ,42,1000792016736 ,72,8202111288473
0.048206 ,Left ,69,0392124710949 ,42,1000792016736 ,72,8202111288473
0.0709749 ,Left ,69,011829113654 ,42,0736840877521 ,72,8440077227942
0.070977 ,Left ,69,011829113654 ,42,0736840877521 ,72,8440077227942
0.08592 ,Left ,68,9747528138251 ,42,0619360299811 ,72,8798829255485
0.0859222 ,Left ,68,9747528138251 ,42,0619360299811 ,72,8798829255485
0.1009262 ,Left ,68,961327176639 ,42,0845768755732 ,72,9131875277712
0.1009287 ,Left ,68,961327176639 ,42,0845768755732 ,72,9131875277712
0.1234216 ,Left ,68,9495151378107 ,42,1323679263431 ,72,9453109197748
0.1234241 ,Left ,68,9495151378107 ,42,1323679263431 ,72,9453109197748
0.1460896 ,Left ,68,940716261567 ,42,1908911414169 ,72,9807879515017
0.1460919 ,Left ,68,940716261567 ,42,1908911414169 ,72,9807879515017
0.1683657 ,Left ,68,9385098997977 ,42,2500732786157 ,73,0116932374346
0.1683684 ,Left ,68,9385098997977 ,42,2500732786157 ,73,0116932374346
0.190667 ,Left ,68,9175394817509 ,42,3133229451177 ,73,0522433347942
0.1906688 ,Left ,68,9175394817509 ,42,3133229451177 ,73,0522433347942
0.2059716 ,Left ,68,8839066077712 ,42,3924718028512 ,73,1107619611539
0.2059738 ,Left ,68,8839066077712 ,42,3924718028512 ,73,1107619611539
0.2209864 ,Left ,68,8312756518993 ,42,4926140995083 ,73,1692350414064
0.2209922 ,Left ,68,8312756518993 ,42,4926140995083 ,73,1692350414064
0.2433983 ,Left ,68,7815626732988 ,42,6052462665291 ,73,2157068895754
0.2434006 ,Left ,68,7815626732988 ,42,6052462665291 ,73,2157068895754
0.2658031 ,Left ,68,7328139739563 ,42,7006936848415 ,73,2347302110217
0.2658057 ,Left ,68,7328139739563 ,42,7006936848415 ,73,2347302110217
0.280697 ,Left ,68,6603669007858 ,42,7768257251192 ,73,2527252300406
0.2806988 ,Left ,68,6603669007858 ,42,7768257251192 ,73,2527252300406
0.2957959 ,Left ,68,5891257930295 ,42,8552557539326 ,73,2674862178062
0.2957977 ,Left ,68,5891257930295 ,42,8552557539326 ,73,2674862178062
0.3408177 ,Left ,68,2711407744097 ,43,0248762044348 ,73,2933100528755
0.3408198 ,Left ,68,2711407744097 ,43,0248762044348 ,73,2933100528755
0.363632 ,Left ,68,1031859195059 ,43,1196396930826 ,73,3057790582017
0.3636346 ,Left ,68,1031859195059 ,43,1196396930826 ,73,3057790582017
0.3934849 ,Left ,67,8979780774634 ,43,2749463882253 ,73,3405191644383
0.3934873 ,Left ,67,8979780774634 ,43,2749463882253 ,73,3405191644383
0.4160717 ,Left ,67,768371477503 ,43,3523394905767 ,73,3411861494516
0.4160755 ,Left ,67,768371477503 ,43,3523394905767 ,73,3411861494516
0.4538763 ,Left ,67,4236936121027 ,43,4173333046906 ,73,351918107963
0.453884 ,Left ,67,4236936121027 ,43,4173333046906 ,73,351918107963
0.4757879 ,Left ,67,3304772820865 ,43,4389916556332 ,73,3262199935732
0.4757897 ,Left ,67,3304772820865 ,43,4389916556332 ,73,3262199935732
0.5133129 ,Left ,67,1612338324098 ,43,5337284568721 ,73,2722532307878
0.5133148 ,Left ,67,1612338324098 ,43,5337284568721 ,73,2722532307878
0.5359684 ,Left ,67,0509003191828 ,43,5745051273527 ,73,2640768847029
0.5359722 ,Left ,67,0509003191828 ,43,5745051273527 ,73,2640768847029
0.5732658 ,Left ,66,8516477947456 ,43,5607701798332 ,73,2447255589746
0.5732677 ,Left ,66,8516477947456 ,43,5607701798332 ,73,2447255589746
0.5956782 ,Left ,66,8001417129971 ,43,5539455076762 ,73,2232028107686
0.5956799 ,Left ,66,8001417129971 ,43,5539455076762 ,73,2232028107686
0.6332942 ,Left ,66,71588717255 ,43,5492201882508 ,73,1811238699884
0.6332962 ,Left ,66,71588717255 ,43,5492201882508 ,73,1811238699884
0.6559459 ,Left ,66,6862198167146 ,43,5382723405914 ,73,162706418039
0.6559489 ,Left ,66,6862198167146 ,43,5382723405914 ,73,162706418039
0.7011832 ,Left ,66,6243878693067 ,43,5001435428583 ,73,1384758033998
0.7011869 ,Left ,66,6243878693067 ,43,5001435428583 ,73,1384758033998
0.7234605 ,Left ,66,5831651359832 ,43,4808777857849 ,73,1261156316477
0.7234639 ,Left ,66,5831651359832 ,43,4808777857849 ,73,1261156316477
0.7534828 ,Left ,66,5689004229565 ,43,4639489866015 ,73,0559290013989
0.753486 ,Left ,66,5689004229565 ,43,4639489866015 ,73,0559290013989
0.7759082 ,Left ,66,5661620514855 ,43,4649121197186 ,73,0144051244557
0.7759129 ,Left ,66,5661620514855 ,43,4649121197186 ,73,0144051244557
0.8210168 ,Left ,66,5194052114022 ,43,4776319698787 ,72,9533525956186
0.82102 ,Left ,66,5194052114022 ,43,4776319698787 ,72,9533525956186
0.8436165 ,Left ,66,4844645485273 ,43,4826171207639 ,72,9271606303334
0.8436197 ,Left ,66,4844645485273 ,43,4826171207639 ,72,9271606303334
0.873381 ,Left ,66,3570461859374 ,43,425465843618 ,72,8921861307363
0.8733844 ,Left ,66,3570461859374 ,43,425465843618 ,72,8921861307363
0.8960998 ,Left ,66,2538582862849 ,43,3663534669538 ,72,9057561092513
0.8961039 ,Left ,66,2538582862849 ,43,3663534669538 ,72,9057561092513
0.933655 ,Left ,65,8356115757528 ,43,3789363948902 ,72,931670771576
0.9336581 ,Left ,65,8356115757528 ,43,3789363948902 ,72,931670771576
0.955894 ,Left ,65,6345769645807 ,43,3745190106517 ,72,8948221611627
0.9558995 ,Left ,65,6345769645807 ,43,3745190106517 ,72,8948221611627
0.9931952 ,Left ,65,7255149073257 ,43,6540114237445 ,72,8724264768285
0.9931972 ,Left ,65,7255149073257 ,43,6540114237445 ,72,8724264768285
1.0157464 ,Left ,65,7848862336252 ,43,7356278143726 ,72,8075409323157
1.0157481 ,Left ,65,7848862336252 ,43,7356278143726 ,72,8075409323157
1.05391 ,Left ,65,9094376317468 ,43,7167948024846 ,72,6494443220477
1.0539179 ,Left ,65,9094376317468 ,43,7167948024846 ,72,6494443220477
1.0758646 ,Left ,65,8794679868986 ,43,6653149871406 ,72,5700095260322
1.0758681 ,Left ,65,8794679868986 ,43,6653149871406 ,72,5700095260322
1.1132856 ,Left ,65,8779581250113 ,43,5145124267736 ,72,3438949280726
1.113288 ,Left ,65,8779581250113 ,43,5145124267736 ,72,3438949280726
1.1359958 ,Left ,65,8647235071311 ,43,4438371489025 ,72,2068456583868
1.1359984 ,Left ,65,8647235071311 ,43,4438371489025 ,72,2068456583868
1.1734935 ,Left ,65,7558246307049 ,43,3176744715786 ,71,9903917025227
1.1734955 ,Left ,65,7558246307049 ,43,3176744715786 ,71,9903917025227
1.1957329 ,Left ,65,6777116758756 ,43,2626008849156 ,71,9161937871261
1.1957347 ,Left ,65,6777116758756 ,43,2626008849156 ,71,9161937871261
1.2333782 ,Left ,65,4307680971884 ,43,1623207250376 ,71,8170908967205
1.2333809 ,Left ,65,4307680971884 ,43,1623207250376 ,71,8170908967205
1.2558179 ,Left ,65,389499963736 ,43,1006388981951 ,71,84479653742
1.2558196 ,Left ,65,389499963736 ,43,1006388981951 ,71,84479653742
1.3009476 ,Left ,65,7224526348091 ,43,2627821884304 ,71,8114016214223
1.3009498 ,Left ,65,7224526348091 ,43,2627821884304 ,71,8114016214223
1.3232548 ,Left ,65,7746711226854 ,43,2643769429608 ,71,7574471784458
1.323257 ,Left ,65,7746711226854 ,43,2643769429608 ,71,7574471784458
1.3536441 ,Left ,65,7745116318239 ,43,2057789531491 ,71,7176807164796
1.3536474 ,Left ,65,7745116318239 ,43,2057789531491 ,71,7176807164796
1.3757834 ,Left ,65,6188968907999 ,43,1882175789696 ,71,7146859101156
1.3757852 ,Left ,65,6188968907999 ,43,1882175789696 ,71,7146859101156
1.4135304 ,Left ,65,2322898373938 ,43,0156213196136 ,71,7388500875749
1.4135324 ,Left ,65,2322898373938 ,43,0156213196136 ,71,7388500875749
1.4358267 ,Left ,65,1989266227108 ,42,9716557309115 ,71,7854956149512
1.4358318 ,Left ,65,1989266227108 ,42,9716557309115 ,71,7854956149512
1.4735014 ,Left ,65,3698499565191 ,43,2598989100544 ,71,7795910322879
1.4735038 ,Left ,65,3698499565191 ,43,2598989100544 ,71,7795910322879
1.4959971 ,Left ,65,4510904814406 ,43,2684008356411 ,71,8116605489743
1.4959998 ,Left ,65,4510904814406 ,43,2684008356411 ,71,8116605489743
1.5340938 ,Left ,65,5612365451907 ,43,259599747338 ,71,9505238229223
1.5341017 ,Left ,65,5612365451907 ,43,259599747338 ,71,9505238229223
1.5562564 ,Left ,65,4012257944715 ,43,2847335932634 ,72,0175298509263
1.5562653 ,Left ,65,4012257944715 ,43,2847335932634 ,72,0175298509263
1.5934943 ,Left ,65,1837696118139 ,43,3111477023648 ,72,0937831918682
1.5934963 ,Left ,65,1837696118139 ,43,3111477023648 ,72,0937831918682
1.6160317 ,Left ,65,0189970833097 ,43,2408767383908 ,72,093202118332
1.6160338 ,Left ,65,0189970833097 ,43,2408767383908 ,72,093202118332
1.6532943 ,Left ,64,9076279878258 ,43,2434612318987 ,72,2540434968907
1.6532969 ,Left ,64,9076279878258 ,43,2434612318987 ,72,2540434968907
1.6758523 ,Left ,65,0641992242337 ,43,4023091997583 ,72,278292794561
1.6758566 ,Left ,65,0641992242337 ,43,4023091997583 ,72,278292794561
1.7135507 ,Left ,65,508090244005 ,43,4536432826311 ,72,326326524138
1.7135541 ,Left ,65,508090244005 ,43,4536432826311 ,72,326326524138
1.7359743 ,Left ,65,6425008245604 ,43,3950645265733 ,72,3260177132275
1.7359774 ,Left ,65,6425008245604 ,43,3950645265733 ,72,3260177132275
1.7735918 ,Left ,65,7241961157235 ,43,2988605300533 ,72,2868049024524
1.7735951 ,Left ,65,7241961157235 ,43,2988605300533 ,72,2868049024524
1.7961726 ,Left ,65,8209170982722 ,43,267416947628 ,72,254299045531
1.7961772 ,Left ,65,8209170982722 ,43,267416947628 ,72,254299045531
1.8411375 ,Left ,65,9955856353641 ,43,2436274085996 ,72,2065337698787
1.8411412 ,Left ,65,9955856353641 ,43,2436274085996 ,72,2065337698787
1.8711157 ,Left ,66,1000970030458 ,43,2169558219007 ,72,1978840429532
1.871171 ,Left ,66,1000970030458 ,43,2169558219007 ,72,1978840429532
1.9161837 ,Left ,66,4381190363306 ,43,1884984521889 ,72,1616999857227
1.9161863 ,Left ,66,4381190363306 ,43,1884984521889 ,72,1616999857227
1.9606504 ,Left ,66,542289837321 ,43,2538001721482 ,72,0906925340657
1.9606522 ,Left ,66,542289837321 ,43,2538001721482 ,72,0906925340657
2.0134784 ,Left ,66,506743313346 ,43,4928837866612 ,71,9349404540212
2.0134825 ,Left ,66,506743313346 ,43,4928837866612 ,71,9349404540212
2.0361124 ,Left ,66,4808728888026 ,43,6205884702631 ,71,8631080007607
2.0361145 ,Left ,66,4808728888026 ,43,6205884702631 ,71,8631080007607
2.080884 ,Left ,66,4217218948493 ,43,7712171823562 ,71,6830353844676
2.0808862 ,Left ,66,4217218948493 ,43,7712171823562 ,71,6830353844676
2.1034518 ,Left ,66,3591087061814 ,43,7986001705873 ,71,6032760750098
2.1034547 ,Left ,66,3591087061814 ,43,7986001705873 ,71,6032760750098
2.1409333 ,Left ,66,0973884970604 ,43,9060819462922 ,71,4346835823506
2.1409367 ,Left ,66,0973884970604 ,43,9060819462922 ,71,4346835823506
2.1559735 ,Left ,66,0470369441673 ,43,9014125673317 ,71,3306903422342
2.1559755 ,Left ,66,0470369441673 ,43,9014125673317 ,71,3306903422342
2.1936171 ,Left ,65,8453096494488 ,43,8676014938309 ,71,1448078251465
2.1936202 ,Left ,65,8453096494488 ,43,8676014938309 ,71,1448078251465
2.2172591 ,Left ,65,651706422333 ,43,8438036558695 ,71,0746051983125
2.217262 ,Left ,65,651706422333 ,43,8438036558695 ,71,0746051983125
2.2610747 ,Left ,65,4194337414584 ,43,7312179953285 ,70,9493005205833
2.2610767 ,Left ,65,4194337414584 ,43,7312179953285 ,70,9493005205833
2.2835665 ,Left ,65,2052531829261 ,43,5084039043623 ,70,9494662568791
2.2835696 ,Left ,65,2052531829261 ,43,5084039043623 ,70,9494662568791
2.3133132 ,Left ,65,6444516693464 ,43,9782170422762 ,70,9437691083875
2.3133152 ,Left ,65,6444516693464 ,43,9782170422762 ,70,9437691083875
2.3433491 ,Left ,65,5942227672652 ,44,1678102083885 ,70,9775665974621
2.3433513 ,Left ,65,5942227672652 ,44,1678102083885 ,70,9775665974621
2.3807973 ,Left ,65,4123831183152 ,43,9682595554787 ,71,0719075137684
2.3807992 ,Left ,65,4123831183152 ,43,9682595554787 ,71,0719075137684
2.4033241 ,Left ,65,3524759114561 ,43,9150035489322 ,71,1161059020517
2.4033271 ,Left ,65,3524759114561 ,43,9150035489322 ,71,1161059020517
2.4407538 ,Left ,65,5556654921476 ,43,7310930496942 ,71,070293165177
2.4407555 ,Left ,65,5556654921476 ,43,7310930496942 ,71,070293165177
2.4634788 ,Left ,65,5661271242303 ,43,6536786726129 ,71,0533746112189
2.4634808 ,Left ,65,5661271242303 ,43,6536786726129 ,71,0533746112189
2.4933832 ,Left ,65,5929202651735 ,43,5591106338066 ,70,9960543655523
2.4933876 ,Left ,65,5929202651735 ,43,5591106338066 ,70,9960543655523
2.5313207 ,Left ,65,6949300168648 ,43,523179542723 ,70,9174051142294
2.5313286 ,Left ,65,6949300168648 ,43,523179542723 ,70,9174051142294
2.5762005 ,Left ,65,4202337880952 ,43,3565978442086 ,70,935422623801
2.5762063 ,Left ,65,4202337880952 ,43,3565978442086 ,70,935422623801
2.6133111 ,Left ,65,3992467990245 ,43,320914555072 ,71,0753903081356
2.6133135 ,Left ,65,3992467990245 ,43,320914555072 ,71,0753903081356
2.6432464 ,Left ,65,5056257183232 ,43,4314666749237 ,71,0927342298487
2.6432485 ,Left ,65,5056257183232 ,43,4314666749237 ,71,0927342298487
2.6958888 ,Left ,65,8048124252957 ,43,4099654810627 ,71,193610208833
2.6958908 ,Left ,65,8048124252957 ,43,4099654810627 ,71,193610208833
2.7332671 ,Left ,65,9359082663784 ,43,3799400287114 ,71,3171517621343
2.7332692 ,Left ,65,9359082663784 ,43,3799400287114 ,71,3171517621343
2.7558306 ,Left ,66,0313104097249 ,43,3534595854264 ,71,3326817128723
2.7558331 ,Left ,66,0313104097249 ,43,3534595854264 ,71,3326817128723
2.7932652 ,Left ,66,2246543037936 ,43,2599569213138 ,71,3347990956353
2.7932672 ,Left ,66,2246543037936 ,43,2599569213138 ,71,3347990956353
2.8309351 ,Left ,66,4149956205713 ,43,1824034514982 ,71,4468794118979
2.8309371 ,Left ,66,4149956205713 ,43,1824034514982 ,71,4468794118979
2.8533316 ,Left ,66,5131541470778 ,43,1378902187162 ,71,5150524314542
2.8533337 ,Left ,66,5131541470778 ,43,1378902187162 ,71,5150524314542
2.8759645 ,Left ,66,6519928964606 ,43,0872864081162 ,71,5758001800368
2.8759676 ,Left ,66,6519928964606 ,43,0872864081162 ,71,5758001800368
2.9134385 ,Left ,66,9263903576941 ,43,0337657851218 ,71,6974857044609
2.9134412 ,Left ,66,9263903576941 ,43,0337657851218 ,71,6974857044609
2.9356998 ,Left ,67,0519839678957 ,43,023836527674 ,71,7659403565154
2.935702 ,Left ,67,0519839678957 ,43,023836527674 ,71,7659403565154
2.9735049 ,Left ,67,3008878496679 ,42,9734481489926 ,71,8944067820522
2.9735071 ,Left ,67,3008878496679 ,42,9734481489926 ,71,8944067820522
2.9956267 ,Left ,67,4320700724866 ,42,957408080625 ,71,9409991287861
2.9956288 ,Left ,67,4320700724866 ,42,957408080625 ,71,9409991287861
3.0335069 ,Left ,67,6480333990266 ,42,9661015929653 ,72,0279866518533
3.0335089 ,Left ,67,6480333990266 ,42,9661015929653 ,72,0279866518533
3.0482662 ,Left ,67,7227183413776 ,42,9662496994677 ,72,0768149009626
3.0482683 ,Left ,67,7227183413776 ,42,9662496994677 ,72,0768149009626
3.0707654 ,Left ,67,7652970757937 ,42,9586859885737 ,72,1285851319938
3.0707674 ,Left ,67,7652970757937 ,42,9586859885737 ,72,1285851319938
3.0932927 ,Left ,67,7849950982472 ,42,9599319643477 ,72,1740313786376
3.0932946 ,Left ,67,7849950982472 ,42,9599319643477 ,72,1740313786376
3.1083346 ,Left ,67,8101121598719 ,42,9842024910714 ,72,2119898565463
3.1083367 ,Left ,67,8101121598719 ,42,9842024910714 ,72,2119898565463
3.1307351 ,Left ,67,8472918352681 ,43,0255626696157 ,72,2349277488924
3.1307373 ,Left ,67,8472918352681 ,43,0255626696157 ,72,2349277488924
3.1535871 ,Left ,67,8695426642318 ,43,0506594196716 ,72,2518315263706
3.1535895 ,Left ,67,8695426642318 ,43,0506594196716 ,72,2518315263706
3.1683099 ,Left ,67,8844683163079 ,43,0603913038448 ,72,2720848499732
3.1683123 ,Left ,67,8844683163079 ,43,0603913038448 ,72,2720848499732
3.1908178 ,Left ,67,8704295978063 ,43,0686914573832 ,72,3028172993569
3.1908208 ,Left ,67,8704295978063 ,43,0686914573832 ,72,3028172993569
3.2132909 ,Left ,67,8399238197889 ,43,0943028368524 ,72,3365127840372
3.2132929 ,Left ,67,8399238197889 ,43,0943028368524 ,72,3365127840372
3.2283202 ,Left ,67,8280648808844 ,43,1247490679862 ,72,3716917831209
3.2283222 ,Left ,67,8280648808844 ,43,1247490679862 ,72,3716917831209
3.2508696 ,Left ,67,8475530947251 ,43,1550492303865 ,72,397251848652
3.2508726 ,Left ,67,8475530947251 ,43,1550492303865 ,72,397251848652
3.273537 ,Left ,67,8675184828968 ,43,1722125388992 ,72,433800387988
3.273545 ,Left ,67,8675184828968 ,43,1722125388992 ,72,433800387988
3.2883464 ,Left ,67,8851971043723 ,43,1846366707948 ,72,4744132804642
3.2883497 ,Left ,67,8851971043723 ,43,1846366707948 ,72,4744132804642
3.3107923 ,Left ,67,8739390415209 ,43,1921227520977 ,72,5230968499113
3.3107942 ,Left ,67,8739390415209 ,43,1921227520977 ,72,5230968499113
3.333224 ,Left ,67,8653200407378 ,43,2116807572208 ,72,5615745629977
3.3332258 ,Left ,67,8653200407378 ,43,2116807572208 ,72,5615745629977
3.3483144 ,Left ,67,8685056016985 ,43,2290460274259 ,72,5887446865524
3.3483166 ,Left ,67,8685056016985 ,43,2290460274259 ,72,5887446865524
3.3708597 ,Left ,67,8661741147225 ,43,2314600802717 ,72,5960821286387
3.3708624 ,Left ,67,8661741147225 ,43,2314600802717 ,72,5960821286387
3.3935311 ,Left ,67,86087555611 ,43,2261612874658 ,72,6126492197564
3.3935389 ,Left ,67,86087555611 ,43,2261612874658 ,72,6126492197564
3.4087441 ,Left ,67,8654144120391 ,43,2261892793568 ,72,6250081919247
3.4087514 ,Left ,67,8654144120391 ,43,2261892793568 ,72,6250081919247
3.4311862 ,Left ,67,8601656746294 ,43,2317967118668 ,72,6362567448077
3.4311909 ,Left ,67,8601656746294 ,43,2317967118668 ,72,6362567448077
3.4537414 ,Left ,67,8481959970407 ,43,2385837199371 ,72,6457249103488
3.4537457 ,Left ,67,8481959970407 ,43,2385837199371 ,72,6457249103488
3.4685217 ,Left ,67,8420748214256 ,43,2542301258218 ,72,6512359073303
3.4685259 ,Left ,67,8420748214256 ,43,2542301258218 ,72,6512359073303
3.491069 ,Left ,67,8247321023452 ,43,2671978253032 ,72,6512692654032
3.4910734 ,Left ,67,8247321023452 ,43,2671978253032 ,72,6512692654032
3.5132434 ,Left ,67,7925022559552 ,43,2808930277976 ,72,6567428259873
3.5132454 ,Left ,67,7925022559552 ,43,2808930277976 ,72,6567428259873
3.5284806 ,Left ,67,7634868666739 ,43,2950803566414 ,72,6602987116812
3.5284826 ,Left ,67,7634868666739 ,43,2950803566414 ,72,6602987116812
3.5659126 ,Left ,67,7131357185967 ,43,3094891960859 ,72,6525302096295
3.5659145 ,Left ,67,7131357185967 ,43,3094891960859 ,72,6525302096295
3.5960516 ,Left ,67,6544053225783 ,43,3294288897894 ,72,6373575048643
3.5960545 ,Left ,67,6544053225783 ,43,3294288897894 ,72,6373575048643
3.6257967 ,Left ,67,5490405370697 ,43,3820739864288 ,72,5905937110405
3.6257993 ,Left ,67,5490405370697 ,43,3820739864288 ,72,5905937110405
3.6558553 ,Left ,67,3984116555136 ,43,4197204127061 ,72,5454917339379
3.6558579 ,Left ,67,3984116555136 ,43,4197204127061 ,72,5454917339379
3.6784755 ,Left ,67,3295110020222 ,43,438313866696 ,72,5301328300127
3.6784784 ,Left ,67,3295110020222 ,43,438313866696 ,72,5301328300127
3.69365 ,Left ,67,2657413160584 ,43,4613760667711 ,72,5091021928261
3.6936533 ,Left ,67,2657413160584 ,43,4613760667711 ,72,5091021928261
3.7085003 ,Left ,67,1729400158779 ,43,4762589369548 ,72,4912668522587
3.7085025 ,Left ,67,1729400158779 ,43,4762589369548 ,72,4912668522587
3.731196 ,Left ,67,0449755143221 ,43,4525072678522 ,72,4810769085327
3.7312004 ,Left ,67,0449755143221 ,43,4525072678522 ,72,4810769085327
3.753568 ,Left ,66,8738643801714 ,43,4085423570728 ,72,503096913665
3.7535718 ,Left ,66,8738643801714 ,43,4085423570728 ,72,503096913665
3.7686373 ,Left ,66,642434756088 ,43,4080764327507 ,72,5399567997747
3.7686415 ,Left ,66,642434756088 ,43,4080764327507 ,72,5399567997747
3.7911104 ,Left ,66,3399957666333 ,43,446268970328 ,72,5330282681941
3.7911141 ,Left ,66,3399957666333 ,43,446268970328 ,72,5330282681941
3.8136452 ,Left ,66,1781661196148 ,43,4203226684229 ,72,5532959161667
3.813649 ,Left ,66,1781661196148 ,43,4203226684229 ,72,5532959161667
3.8361669 ,Left ,66,2646728582363 ,43,4945901172206 ,72,6041017018508
3.8361706 ,Left ,66,2646728582363 ,43,4945901172206 ,72,6041017018508
3.8510813 ,Left ,66,3305410007368 ,43,6234635461934 ,72,6229009189394
3.851085 ,Left ,66,3305410007368 ,43,6234635461934 ,72,6229009189394
3.8734692 ,Left ,66,3617487193624 ,43,6749139323764 ,72,6085609201174
3.8734711 ,Left ,66,3617487193624 ,43,6749139323764 ,72,6085609201174
3.8960608 ,Left ,66,4971443657208 ,43,690071590816 ,72,5548687303601
3.8960633 ,Left ,66,4971443657208 ,43,690071590816 ,72,5548687303601
3.9108874 ,Left ,66,5084521796597 ,43,7050045007589 ,72,4784717362323
3.91089 ,Left ,66,5084521796597 ,43,7050045007589 ,72,4784717362323
3.9335253 ,Left ,66,4491594105017 ,43,6895081470799 ,72,3932346212307
3.9335285 ,Left ,66,4491594105017 ,43,6895081470799 ,72,3932346212307
3.9559436 ,Left ,66,4178783743076 ,43,6519283997224 ,72,2944431785236
3.9559496 ,Left ,66,4178783743076 ,43,6519283997224 ,72,2944431785236
3.9710352 ,Left ,66,3510763878097 ,43,6112154173482 ,72,1806770980596
3.9710384 ,Left ,66,3510763878097 ,43,6112154173482 ,72,1806770980596
4.0009611 ,Left ,66,2481404780138 ,43,5695230755801 ,72,0767949382778
4.0009649 ,Left ,66,2481404780138 ,43,5695230755801 ,72,0767949382778
4.0235054 ,Left ,66,1517161972287 ,43,5065327310076 ,71,9703856176223
4.0235078 ,Left ,66,1517161972287 ,43,5065327310076 ,71,9703856176223
4.0384221 ,Left ,66,043676910392 ,43,4049727081993 ,71,8524677413018
4.0384244 ,Left ,66,043676910392 ,43,4049727081993 ,71,8524677413018
4.0535495 ,Left ,65,9185177369873 ,43,3394936487784 ,71,7794688505275
4.0535523 ,Left ,65,9185177369873 ,43,3394936487784 ,71,7794688505275
4.075973 ,Left ,65,8351440646077 ,43,3358234330108 ,71,7920451978687
4.0759765 ,Left ,65,8351440646077 ,43,3358234330108 ,71,7920451978687
4.0909592 ,Left ,65,975466131594 ,43,436648525653 ,71,7829879295552
4.0909628 ,Left ,65,975466131594 ,43,436648525653 ,71,7829879295552
4.1136705 ,Left ,66,2017845830277 ,43,5529414776359 ,71,7512318782199
4.1136738 ,Left ,66,2017845830277 ,43,5529414776359 ,71,7512318782199
4.1361461 ,Left ,66,3004031215393 ,43,6199034421058 ,71,7107286721671
4.1361495 ,Left ,66,3004031215393 ,43,6199034421058 ,71,7107286721671
4.1509795 ,Left ,66,3319154248789 ,43,6269924092363 ,71,7000527303525
4.150983 ,Left ,66,3319154248789 ,43,6269924092363 ,71,7000527303525
4.1811904 ,Left ,66,2828562582248 ,43,6044378474475 ,71,7248941009478
4.1811938 ,Left ,66,2828562582248 ,43,6044378474475 ,71,7248941009478
4.2034866 ,Left ,66,2006597895857 ,43,5852388927569 ,71,7260817231942
4.2034886 ,Left ,66,2006597895857 ,43,5852388927569 ,71,7260817231942
4.2184393 ,Left ,66,0557963069068 ,43,5577775254291 ,71,6975921392182
4.2184414 ,Left ,66,0557963069068 ,43,5577775254291 ,71,6975921392182
4.2408735 ,Left ,65,9719113451822 ,43,4815916276341 ,71,6497270621121
4.2408888 ,Left ,65,9719113451822 ,43,4815916276341 ,71,6497270621121
4.2559994 ,Left ,65,8482130897744 ,43,3981675467655 ,71,628237879786
4.2560015 ,Left ,65,8482130897744 ,43,3981675467655 ,71,628237879786
4.2783148 ,Left ,65,8008122103703 ,43,3449875616338 ,71,5626238811046
4.2783167 ,Left ,65,8008122103703 ,43,3449875616338 ,71,5626238811046
4.3009041 ,Left ,65,8703910265502 ,43,2695633643039 ,71,5841155519642
4.3009059 ,Left ,65,8703910265502 ,43,2695633643039 ,71,5841155519642
4.3309341 ,Left ,66,2219411577099 ,42,9634767594262 ,71,4727390276067
4.3309366 ,Left ,66,2219411577099 ,42,9634767594262 ,71,4727390276067
4.3534492 ,Left ,66,0750824061313 ,43,0671788618904 ,71,5478989585861
4.3534678 ,Left ,66,0750824061313 ,43,0671788618904 ,71,5478989585861
4.3761152 ,Left ,66,2487540390339 ,43,1726180681344 ,71,5098688896312
4.3761181 ,Left ,66,2487540390339 ,43,1726180681344 ,71,5098688896312
4.3910237 ,Left ,66,109591460971 ,43,1803231386987 ,71,5876735549032
4.3910267 ,Left ,66,109591460971 ,43,1803231386987 ,71,5876735549032
4.4135841 ,Left ,66,2598483940056 ,43,2141070756378 ,71,5693597589849
4.413587 ,Left ,66,2598483940056 ,43,2141070756378 ,71,5693597589849
4.4360967 ,Left ,66,1644749719793 ,43,2044970666724 ,71,6540187747139
4.4360997 ,Left ,66,1644749719793 ,43,2044970666724 ,71,6540187747139
4.4509355 ,Left ,66,3506298999938 ,43,1841409480921 ,71,6062539825515
4.4509384 ,Left ,66,3506298999938 ,43,1841409480921 ,71,6062539825515
4.4809929 ,Left ,66,2156402931182 ,43,1838421814918 ,71,6748141380216
4.4809949 ,Left ,66,2156402931182 ,43,1838421814918 ,71,6748141380216
4.5109389 ,Left ,66,337764855364 ,43,1689669611542 ,71,6256280906247
4.5109408 ,Left ,66,337764855364 ,43,1689669611542 ,71,6256280906247
4.5260496 ,Left ,66,1755424019227 ,43,1925843479453 ,71,6940608149016
4.5260521 ,Left ,66,1755424019227 ,43,1925843479453 ,71,6940608149016
4.5409819 ,Left ,66,315663388061 ,43,1811742855729 ,71,6413222465716
4.540985 ,Left ,66,315663388061 ,43,1811742855729 ,71,6413222465716
4.5708174 ,Left ,66,3893218744614 ,43,1263125341728 ,71,6338799139807
4.5708205 ,Left ,66,3893218744614 ,43,1263125341728 ,71,6338799139807
4.5936425 ,Left ,66,4125570542011 ,43,1566971675477 ,71,6466684718799
4.5936458 ,Left ,66,4125570542011 ,43,1566971675477 ,71,6466684718799
4.6160461 ,Left ,66,3876733245041 ,43,1075117720106 ,71,6580261725392
4.6160495 ,Left ,66,3876733245041 ,43,1075117720106 ,71,6580261725392
4.6306655 ,Left ,66,3842584095676 ,43,0905979616132 ,71,6563692752244
4.6306673 ,Left ,66,3842584095676 ,43,0905979616132 ,71,6563692752244
4.653588 ,Left ,66,4182028234772 ,43,0802219994088 ,71,6412241555176
4.65359 ,Left ,66,4182028234772 ,43,0802219994088 ,71,6412241555176
4.676056 ,Left ,66,4658647930617 ,43,0566938784328 ,71,6043372378116
4.6760586 ,Left ,66,4658647930617 ,43,0566938784328 ,71,6043372378116
4.6907941 ,Left ,66,4745317478474 ,43,0287030512716 ,71,5682568791777
4.6907961 ,Left ,66,4745317478474 ,43,0287030512716 ,71,5682568791777
4.7140683 ,Left ,66,4414033250255 ,43,0157520492448 ,71,5539829166348
4.7140845 ,Left ,66,4414033250255 ,43,0157520492448 ,71,5539829166348
4.743755 ,Left ,66,4136664482898 ,43,0151555093353 ,71,5497950384023
4.7437593 ,Left ,66,4136664482898 ,43,0151555093353 ,71,5497950384023
4.7585029 ,Left ,66,4148457686272 ,42,9889483388584 ,71,5289935701998
4.7585055 ,Left ,66,4148457686272 ,42,9889483388584 ,71,5289935701998
4.7808921 ,Left ,66,4216961577453 ,42,9376118094215 ,71,5020930846962
4.7808945 ,Left ,66,4216961577453 ,42,9376118094215 ,71,5020930846962
4.7959239 ,Left ,66,4320121519136 ,42,8807852495494 ,71,4802352174052
4.7959259 ,Left ,66,4320121519136 ,42,8807852495494 ,71,4802352174052
4.810766 ,Left ,66,437140977907 ,42,8295438377228 ,71,4693516448255
4.8107677 ,Left ,66,437140977907 ,42,8295438377228 ,71,4693516448255
4.8333318 ,Left ,66,4139561265936 ,42,7793126205777 ,71,4617018055157
4.8333341 ,Left ,66,4139561265936 ,42,7793126205777 ,71,4617018055157
4.8633596 ,Left ,66,3739982358939 ,42,7323263523868 ,71,4679107808988
4.8633624 ,Left ,66,3739982358939 ,42,7323263523868 ,71,4679107808988
4.8786175 ,Left ,66,2605119368108 ,42,7344846682577 ,71,5197416909737
4.8786204 ,Left ,66,2605119368108 ,42,7344846682577 ,71,5197416909737
4.9009877 ,Left ,66,0786733219001 ,42,7972848049116 ,71,5444260404013
4.9009906 ,Left ,66,0786733219001 ,42,7972848049116 ,71,5444260404013
4.9160636 ,Left ,66,0140270913153 ,42,8422948574657 ,71,6091799307635
4.9160666 ,Left ,66,0140270913153 ,42,8422948574657 ,71,6091799307635
4.9384573 ,Left ,66,1353143060994 ,42,944475497418 ,71,6678428082092
4.9384635 ,Left ,66,1353143060994 ,42,944475497418 ,71,6678428082092
4.9535716 ,Left ,66,2073824328315 ,43,0472911258123 ,71,7062200935269
4.9535745 ,Left ,66,2073824328315 ,43,0472911258123 ,71,7062200935269
4.9760867 ,Left ,66,2752535674606 ,43,1506635254084 ,71,7252130694707
4.9760897 ,Left ,66,2752535674606 ,43,1506635254084 ,71,7252130694707
4.9985954 ,Left ,66,2299293720729 ,43,263025008825 ,71,7578028796343
4.9985986 ,Left ,66,2299293720729 ,43,263025008825 ,71,7578028796343
5.0135773 ,Left ,66,145115438319 ,43,3275744230595 ,71,8015800067622
5.0135808 ,Left ,66,145115438319 ,43,3275744230595 ,71,8015800067622
5.0360525 ,Left ,66,0773020540808 ,43,367799133914 ,71,819925790257
5.0360558 ,Left ,66,0773020540808 ,43,367799133914 ,71,819925790257
5.0585052 ,Left ,66,017567850796 ,43,365973885449 ,71,8195103293027
5.0585085 ,Left ,66,017567850796 ,43,365973885449 ,71,8195103293027
5.0733624 ,Left ,66,005286931514 ,43,3108120848051 ,71,8127510381965
5.0733649 ,Left ,66,005286931514 ,43,3108120848051 ,71,8127510381965
5.0958097 ,Left ,66,0057840576076 ,43,218766610238 ,71,8266161849126
5.0958115 ,Left ,66,0057840576076 ,43,218766610238 ,71,8266161849126
5.1185027 ,Left ,65,9816398349916 ,43,1412937535683 ,71,8405099521508
5.1185056 ,Left ,65,9816398349916 ,43,1412937535683 ,71,8405099521508
5.1334082 ,Left ,65,9257507926614 ,43,0886802143756 ,71,8568603594153
5.1334112 ,Left ,65,9257507926614 ,43,0886802143756 ,71,8568603594153
5.1557007 ,Left ,65,8272439898524 ,43,0671741533175 ,71,8820300083485
5.1557028 ,Left ,65,8272439898524 ,43,0671741533175 ,71,8820300083485
5.1784315 ,Left ,65,666150644869 ,43,0713948672108 ,71,9251220264089
5.1784334 ,Left ,65,666150644869 ,43,0713948672108 ,71,9251220264089
5.1933407 ,Left ,65,5707754620975 ,43,0328164572066 ,71,9226629591807
5.1933431 ,Left ,65,5707754620975 ,43,0328164572066 ,71,9226629591807
5.2157978 ,Left ,65,6029747530608 ,43,0051428393066 ,71,9715361084149
5.2157996 ,Left ,65,6029747530608 ,43,0051428393066 ,71,9715361084149
5.2384088 ,Left ,65,6436638612652 ,43,0892480209345 ,71,988228228437
5.2384108 ,Left ,65,6436638612652 ,43,0892480209345 ,71,988228228437
5.2533517 ,Left ,65,6511203280254 ,43,14783049434 ,71,9773847227546
5.2533537 ,Left ,65,6511203280254 ,43,14783049434 ,71,9773847227546
5.2758691 ,Left ,65,8169999835888 ,43,1601209008292 ,71,9264857582346
5.2758712 ,Left ,65,8169999835888 ,43,1601209008292 ,71,9264857582346
5.2984542 ,Left ,65,9115006954418 ,43,178929632493 ,71,8834475596109
5.2984572 ,Left ,65,9115006954418 ,43,178929632493 ,71,8834475596109
5.3134642 ,Left ,65,896703763135 ,43,2057488606208 ,71,8581294938743
5.3134667 ,Left ,65,896703763135 ,43,2057488606208 ,71,8581294938743
5.3359482 ,Left ,65,8733682032658 ,43,2197724331342 ,71,8384534451664
5.3359508 ,Left ,65,8733682032658 ,43,2197724331342 ,71,8384534451664
5.3590454 ,Left ,65,8614775749173 ,43,2262961691168 ,71,8089614283577
5.3590533 ,Left ,65,8614775749173 ,43,2262961691168 ,71,8089614283577
5.3733962 ,Left ,65,9307056819992 ,43,2240115737528 ,71,7706094455915
5.373411 ,Left ,65,9307056819992 ,43,2240115737528 ,71,7706094455915
5.3958175 ,Left ,66,0557066515232 ,43,1839907830005 ,71,7341779818431
5.3958194 ,Left ,66,0557066515232 ,43,1839907830005 ,71,7341779818431
5.4183634 ,Left ,66,1873182507609 ,43,1149477828014 ,71,6936586281448
5.4183655 ,Left ,66,1873182507609 ,43,1149477828014 ,71,6936586281448
5.4333156 ,Left ,66,241001719665 ,43,0574681442397 ,71,6800013494977
5.4333181 ,Left ,66,241001719665 ,43,0574681442397 ,71,6800013494977
5.4559934 ,Left ,66,2449821918577 ,43,0211098277305 ,71,7016080329187
5.4559971 ,Left ,66,2449821918577 ,43,0211098277305 ,71,7016080329187
5.478663 ,Left ,66,3067240275681 ,43,0017868024486 ,71,7192444611648
5.4786667 ,Left ,66,3067240275681 ,43,0017868024486 ,71,7192444611648
5.4932265 ,Left ,66,4107162229539 ,42,9755762100889 ,71,7155662324024
5.4932283 ,Left ,66,4107162229539 ,42,9755762100889 ,71,7155662324024
5.5159746 ,Left ,66,5250477560792 ,42,9472265118876 ,71,7072871429561
5.515977 ,Left ,66,5250477560792 ,42,9472265118876 ,71,7072871429561
5.5460677 ,Left ,66,6350588183088 ,42,9167952580574 ,71,7235738814605
5.5460704 ,Left ,66,6350588183088 ,42,9167952580574 ,71,7235738814605
5.5758316 ,Left ,66,7247091638436 ,42,9221401781008 ,71,7570503532032
5.5758334 ,Left ,66,7247091638436 ,42,9221401781008 ,71,7570503532032
5.598367 ,Left ,66,7995458507853 ,42,9573851174644 ,71,7968872463948
5.5983692 ,Left ,66,7995458507853 ,42,9573851174644 ,71,7968872463948
5.6432894 ,Left ,67,0072987802349 ,43,0587908186112 ,71,8525876678768
5.6432914 ,Left ,67,0072987802349 ,43,0587908186112 ,71,8525876678768
5.6660219 ,Left ,67,1465456973678 ,43,0633359275134 ,71,8358402320718
5.6660248 ,Left ,67,1465456973678 ,43,0633359275134 ,71,8358402320718
5.6811861 ,Left ,67,2730026222254 ,43,0527547679343 ,71,8354833441411
5.6811905 ,Left ,67,2730026222254 ,43,0527547679343 ,71,8354833441411
5.7038394 ,Left ,67,3343746896256 ,43,0602440005887 ,71,8410646593262
5.7038446 ,Left ,67,3343746896256 ,43,0602440005887 ,71,8410646593262
5.726415 ,Left ,67,3842979225032 ,43,0598054883784 ,71,8393558771386
5.7264201 ,Left ,67,3842979225032 ,43,0598054883784 ,71,8393558771386
5.7562421 ,Left ,67,4416889161084 ,43,0542566188919 ,71,8308826198643
5.7562472 ,Left ,67,4416889161084 ,43,0542566188919 ,71,8308826198643
5.7786978 ,Left ,67,4776930964853 ,43,0927379166188 ,71,840447918051
5.7787029 ,Left ,67,4776930964853 ,43,0927379166188 ,71,840447918051
5.7937642 ,Left ,67,4968409378081 ,43,1584663429386 ,71,8479312327563
5.7937696 ,Left ,67,4968409378081 ,43,1584663429386 ,71,8479312327563
5.8162136 ,Left ,67,4942637722588 ,43,2249266275765 ,71,8491005286133
5.8162188 ,Left ,67,4942637722588 ,43,2249266275765 ,71,8491005286133
5.8464208 ,Left ,67,4848134508391 ,43,2664026014216 ,71,8359868952998
5.8464353 ,Left ,67,4848134508391 ,43,2664026014216 ,71,8359868952998
5.8614288 ,Left ,67,4623560718226 ,43,2795677242393 ,71,818330281071
5.861434 ,Left ,67,4623560718226 ,43,2795677242393 ,71,818330281071
5.8838779 ,Left ,67,4260768584716 ,43,3021296081953 ,71,7875267620051
5.8838831 ,Left ,67,4260768584716 ,43,3021296081953 ,71,7875267620051
5.8987128 ,Left ,67,3582391340885 ,43,3491540215015 ,71,7453407189172
5.898718 ,Left ,67,3582391340885 ,43,3491540215015 ,71,7453407189172
5.9212587 ,Left ,67,2653557379438 ,43,4227681046239 ,71,695162740358
5.9212641 ,Left ,67,2653557379438 ,43,4227681046239 ,71,695162740358
5.9363945 ,Left ,67,168803184249 ,43,48656977754 ,71,6329370622938
5.9364 ,Left ,67,168803184249 ,43,48656977754 ,71,6329370622938
5.9588011 ,Left ,67,0586817266251 ,43,5286342857765 ,71,5667614768205
5.9588112 ,Left ,67,0586817266251 ,43,5286342857765 ,71,5667614768205
5.9813265 ,Left ,66,945175062631 ,43,5685560929049 ,71,5026152780743
5.9813317 ,Left ,66,945175062631 ,43,5685560929049 ,71,5026152780743
5.996371 ,Left ,66,8195718546778 ,43,6092673522539 ,71,436063190496
5.9963775 ,Left ,66,8195718546778 ,43,6092673522539 ,71,436063190496
6.0260365 ,Left ,66,7014798403636 ,43,6641474775023 ,71,3661438436172
6.0260396 ,Left ,66,7014798403636 ,43,6641474775023 ,71,3661438436172
6.0487139 ,Left ,66,5859024193979 ,43,7070535179127 ,71,2986422013757
6.0487192 ,Left ,66,5859024193979 ,43,7070535179127 ,71,2986422013757
6.0637988 ,Left ,66,4711354897639 ,43,7105188382024 ,71,2206492265205
6.0638031 ,Left ,66,4711354897639 ,43,7105188382024 ,71,2206492265205
6.0711887 ,Left ,66,3596724000448 ,43,6907050854595 ,71,1563471390898
6.0711929 ,Left ,66,3596724000448 ,43,6907050854595 ,71,1563471390898
6.1085695 ,Left ,66,1757617570511 ,43,6518061529597 ,71,0440342455405
6.108574 ,Left ,66,1757617570511 ,43,6518061529597 ,71,0440342455405
6.1311766 ,Left ,66,1277483300634 ,43,6198278422561 ,70,9708028149729
6.1311838 ,Left ,66,1277483300634 ,43,6198278422561 ,70,9708028149729
6.1685679 ,Left ,66,0964806231165 ,43,593634847834 ,70,7919422424134
6.1685722 ,Left ,66,0964806231165 ,43,593634847834 ,70,7919422424134
6.1912398 ,Left ,66,0591124733761 ,43,5783486949588 ,70,7077069622443
6.1912441 ,Left ,66,0591124733761 ,43,5783486949588 ,70,7077069622443
6.2432881 ,Left ,65,9135110886699 ,43,5451494512455 ,70,6349282962235
6.24329 ,Left ,65,9135110886699 ,43,5451494512455 ,70,6349282962235
6.288442 ,Left ,65,4518163042497 ,43,5301890764226 ,70,7181752984492
6.2884444 ,Left ,65,4518163042497 ,43,5301890764226 ,70,7181752984492
6.3108429 ,Left ,65,5231518138145 ,43,587834908426 ,70,8001729374779
6.310846 ,Left ,65,5231518138145 ,43,587834908426 ,70,8001729374779
6.3486891 ,Left ,65,7124788335809 ,43,6633556961186 ,70,8772716038249
6.3486929 ,Left ,65,7124788335809 ,43,6633556961186 ,70,8772716038249
6.370919 ,Left ,65,8377810161531 ,43,6460543169938 ,70,8961711105679
6.3709226 ,Left ,65,8377810161531 ,43,6460543169938 ,70,8961711105679
6.4085283 ,Left ,65,9459739462019 ,43,5513657072625 ,70,9034372542672
6.4085321 ,Left ,65,9459739462019 ,43,5513657072625 ,70,9034372542672
6.4311256 ,Left ,66,0171687741781 ,43,4583943416966 ,70,864922439749
6.4311294 ,Left ,66,0171687741781 ,43,4583943416966 ,70,864922439749
6.468633 ,Left ,66,1422052565864 ,43,2374654629605 ,70,7299313261582
6.4686367 ,Left ,66,1422052565864 ,43,2374654629605 ,70,7299313261582
6.4908682 ,Left ,66,1212084532817 ,43,230241879125 ,70,6874759192914
6.4908773 ,Left ,66,1212084532817 ,43,230241879125 ,70,6874759192914
6.5289982 ,Left ,66,0530000761721 ,43,3655256965916 ,70,6144810130387
6.529006 ,Left ,66,0530000761721 ,43,3655256965916 ,70,6144810130387
6.5513615 ,Left ,66,0137995413985 ,43,3040946521739 ,70,6043053637257
6.5513692 ,Left ,66,0137995413985 ,43,3040946521739 ,70,6043053637257
6.5890521 ,Left ,65,9338760556017 ,43,1636950716238 ,70,7180734226781
6.5890601 ,Left ,65,9338760556017 ,43,1636950716238 ,70,7180734226781
6.6113942 ,Left ,66,1138496443959 ,43,2097226742426 ,70,6896755474281
6.6114055 ,Left ,66,1138496443959 ,43,2097226742426 ,70,6896755474281
6.6489486 ,Left ,66,3410707648231 ,43,3347667760917 ,70,6267810594518
6.6489566 ,Left ,66,3410707648231 ,43,3347667760917 ,70,6267810594518
6.6712897 ,Left ,66,4685144601269 ,43,3476736090173 ,70,6345690991976
6.6712973 ,Left ,66,4685144601269 ,43,3476736090173 ,70,6345690991976
6.7160008 ,Left ,66,6238398270603 ,43,3889154883169 ,70,7358544730334
6.7160027 ,Left ,66,6238398270603 ,43,3889154883169 ,70,7358544730334
6.7689974 ,Left ,66,898723732243 ,43,4115782959505 ,70,8365814822307
6.7690053 ,Left ,66,898723732243 ,43,4115782959505 ,70,8365814822307
6.7914125 ,Left ,66,9703806967436 ,43,3903317390017 ,70,8842991354228
6.7914201 ,Left ,66,9703806967436 ,43,3903317390017 ,70,8842991354228
6.8285512 ,Left ,67,082614105359 ,43,335205225659 ,71,014765048267
6.8285547 ,Left ,67,082614105359 ,43,335205225659 ,71,014765048267
6.8508558 ,Left ,67,1021154537508 ,43,2745471103904 ,71,0790559451916
6.8508586 ,Left ,67,1021154537508 ,43,2745471103904 ,71,0790559451916
6.8885118 ,Left ,67,2502265181173 ,43,1944545175708 ,71,2068599564953
6.8885149 ,Left ,67,2502265181173 ,43,1944545175708 ,71,2068599564953
6.9109931 ,Left ,67,3421220329831 ,43,1715186947993 ,71,2750738840283
6.9109961 ,Left ,67,3421220329831 ,43,1715186947993 ,71,2750738840283
6.9485431 ,Left ,67,6056153286574 ,43,1321223570688 ,71,3640691545007
6.9485456 ,Left ,67,6056153286574 ,43,1321223570688 ,71,3640691545007
6.9708072 ,Left ,67,6667872343271 ,43,0790533908772 ,71,396526755374
6.9708095 ,Left ,67,6667872343271 ,43,0790533908772 ,71,396526755374
7.0085591 ,Left ,67,803873694108 ,43,0115489308566 ,71,4995707937804
7.0085619 ,Left ,67,803873694108 ,43,0115489308566 ,71,4995707937804
7.0306532 ,Left ,67,7988758570745 ,43,0127567994498 ,71,5562578564456
7.0306571 ,Left ,67,7988758570745 ,43,0127567994498 ,71,5562578564456
7.0682992 ,Left ,67,8860012569959 ,43,0471513564764 ,71,6729696130833
7.0683013 ,Left ,67,8860012569959 ,43,0471513564764 ,71,6729696130833
7.0909606 ,Left ,67,9013401808835 ,43,0623305194609 ,71,7267359775964
7.0909633 ,Left ,67,9013401808835 ,43,0623305194609 ,71,7267359775964
7.1284157 ,Left ,67,9296509059756 ,43,1201066942298 ,71,8444553930874
7.1284192 ,Left ,67,9296509059756 ,43,1201066942298 ,71,8444553930874
7.1508201 ,Left ,67,9124222536137 ,43,1631483133179 ,71,9084974536262
7.1508219 ,Left ,67,9124222536137 ,43,1631483133179 ,71,9084974536262
7.1884331 ,Left ,67,9428715097536 ,43,2196032787638 ,72,01998269845
7.1884357 ,Left ,67,9428715097536 ,43,2196032787638 ,72,01998269845
7.2109259 ,Left ,67,9679543604692 ,43,2099400707516 ,72,0444731712997
7.2109283 ,Left ,67,9679543604692 ,43,2099400707516 ,72,0444731712997
7.2484288 ,Left ,67,9786891790307 ,43,1865416768153 ,72,0879026373816
7.2484319 ,Left ,67,9786891790307 ,43,1865416768153 ,72,0879026373816
7.2711352 ,Left ,67,9991757420091 ,43,2110687133783 ,72,1112694432746
7.27114 ,Left ,67,9991757420091 ,43,2110687133783 ,72,1112694432746
7.3084497 ,Left ,68,0073357260631 ,43,2475848370567 ,72,1606239983664
7.3084521 ,Left ,68,0073357260631 ,43,2475848370567 ,72,1606239983664
7.3310464 ,Left ,68,0312218899884 ,43,2580361256452 ,72,1850045229698
7.3310488 ,Left ,68,0312218899884 ,43,2580361256452 ,72,1850045229698
7.368461 ,Left ,68,0452871536477 ,43,2774808068538 ,72,2485428454077
7.3684634 ,Left ,68,0452871536477 ,43,2774808068538 ,72,2485428454077
7.3909724 ,Left ,68,067707450458 ,43,2969079302889 ,72,2772669310728
7.3909754 ,Left ,68,067707450458 ,43,2969079302889 ,72,2772669310728
7.4358224 ,Left ,68,0661083138364 ,43,2950921812737 ,72,3243483356451
7.4358254 ,Left ,68,0661083138364 ,43,2950921812737 ,72,3243483356451
7.4589726 ,Left ,68,0732015989614 ,43,2979429722473 ,72,3564320773873
7.4589808 ,Left ,68,0732015989614 ,43,2979429722473 ,72,3564320773873
7.5266734 ,Left ,68,1005603916329 ,43,308268743815 ,72,4453493523267
7.5266815 ,Left ,68,1005603916329 ,43,308268743815 ,72,4453493523267
7.5785944 ,Left ,68,10027662591 ,43,2992821413507 ,72,5107397408326
7.5785988 ,Left ,68,10027662591 ,43,2992821413507 ,72,5107397408326
7.6535859 ,Left ,68,1005649620141 ,43,2997169999055 ,72,584970189098
7.6535902 ,Left ,68,1005649620141 ,43,2997169999055 ,72,584970189098
7.7059607 ,Left ,68,1351292167497 ,43,2752354100415 ,72,6173089075425
7.7059638 ,Left ,68,1351292167497 ,43,2752354100415 ,72,6173089075425
7.7661208 ,Left ,68,1239838201618 ,43,2803999608673 ,72,6509289561244
7.7661259 ,Left ,68,1239838201618 ,43,2803999608673 ,72,6509289561244
7.8182789 ,Left ,68,127130560164 ,43,3046098639085 ,72,6716131359723
7.8182812 ,Left ,68,127130560164 ,43,3046098639085 ,72,6716131359723
7.8484494 ,Left ,68,1181642267964 ,43,3021457176843 ,72,681167689437
7.8484527 ,Left ,68,1181642267964 ,43,3021457176843 ,72,681167689437
7.87106 ,Left ,68,1319906929059 ,43,3162959963513 ,72,6867482170735
7.8710638 ,Left ,68,1319906929059 ,43,3162959963513 ,72,6867482170735
7.9161251 ,Left ,68,1480393959209 ,43,3275631284974 ,72,6950239265852
7.9161314 ,Left ,68,1480393959209 ,43,3275631284974 ,72,6950239265852
7.9309029 ,Left ,68,1433067743826 ,43,3333571593473 ,72,706976727628
7.9309051 ,Left ,68,1433067743826 ,43,3333571593473 ,72,706976727628
7.975981 ,Left ,68,1387893619772 ,43,3509665028718 ,72,7215959469495
7.9759844 ,Left ,68,1387893619772 ,43,3509665028718 ,72,7215959469495
7.9910815 ,Left ,68,1469781208346 ,43,3638109594986 ,72,7243923358547
7.9910851 ,Left ,68,1469781208346 ,43,3638109594986 ,72,7243923358547
8.0059768 ,Left ,68,141127711222 ,43,3680614692921 ,72,7275543078181
8.0059787 ,Left ,68,141127711222 ,43,3680614692921 ,72,7275543078181
8.020853 ,Left ,68,1267602490494 ,43,3658798648122 ,72,7316348445205
8.020855 ,Left ,68,1267602490494 ,43,3658798648122 ,72,7316348445205
8.043496 ,Left ,68,0925301952486 ,43,3825314318211 ,72,7443935473271
8.0434989 ,Left ,68,0925301952486 ,43,3825314318211 ,72,7443935473271
8.073641 ,Left ,68,0773332898904 ,43,3822671278664 ,72,7422306100842
8.0736448 ,Left ,68,0773332898904 ,43,3822671278664 ,72,7422306100842
8.088415 ,Left ,68,0751535143078 ,43,3640794194298 ,72,7391024817466
8.0884187 ,Left ,68,0751535143078 ,43,3640794194298 ,72,7391024817466
8.1109403 ,Left ,68,0642173702586 ,43,3402300086879 ,72,7437088067797
8.1109423 ,Left ,68,0642173702586 ,43,3402300086879 ,72,7437088067797
8.1261529 ,Left ,68,0543967948027 ,43,316002373592 ,72,7520165031381
8.1261548 ,Left ,68,0543967948027 ,43,316002373592 ,72,7520165031381
8.1408679 ,Left ,68,0621897215647 ,43,3202542781932 ,72,753948687037
8.14087 ,Left ,68,0621897215647 ,43,3202542781932 ,72,753948687037
8.1633479 ,Left ,68,0927830123558 ,43,3281565425506 ,72,7520456996995
8.1633501 ,Left ,68,0927830123558 ,43,3281565425506 ,72,7520456996995
8.1934982 ,Left ,68,1148394237372 ,43,3276968454977 ,72,7459978814066
8.1935018 ,Left ,68,1148394237372 ,43,3276968454977 ,72,7459978814066
8.2086038 ,Left ,68,1382206388592 ,43,3255743211108 ,72,746907897472
8.2086071 ,Left ,68,1382206388592 ,43,3255743211108 ,72,746907897472
8.2311019 ,Left ,68,1569690313116 ,43,3189614765033 ,72,7545387527276
8.2311055 ,Left ,68,1569690313116 ,43,3189614765033 ,72,7545387527276
8.2460304 ,Left ,68,159963901225 ,43,3113105744525 ,72,7693869329333
8.2460344 ,Left ,68,159963901225 ,43,3113105744525 ,72,7693869329333
8.2683449 ,Left ,68,1585566492128 ,43,3117246350663 ,72,7830532093405
8.2683469 ,Left ,68,1585566492128 ,43,3117246350663 ,72,7830532093405
8.2908566 ,Left ,68,1516205828331 ,43,3074822339357 ,72,7925079653327
8.2908586 ,Left ,68,1516205828331 ,43,3074822339357 ,72,7925079653327
8.3207653 ,Left ,68,1107866102453 ,43,2965290397029 ,72,8204285116164
8.320767 ,Left ,68,1107866102453 ,43,2965290397029 ,72,8204285116164
8.3433284 ,Left ,68,0968118634818 ,43,2957164123148 ,72,8500676051303
8.3433306 ,Left ,68,0968118634818 ,43,2957164123148 ,72,8500676051303
8.3657915 ,Left ,68,0811930451786 ,43,3008879863479 ,72,8717988927015
8.3657937 ,Left ,68,0811930451786 ,43,3008879863479 ,72,8717988927015
8.3809126 ,Left ,68,0693614357058 ,43,3016632093422 ,72,8853300846551
8.3809157 ,Left ,68,0693614357058 ,43,3016632093422 ,72,8853300846551
8.4036625 ,Left ,68,0248024070768 ,43,3025024630456 ,72,8968367354186
8.4036668 ,Left ,68,0248024070768 ,43,3025024630456 ,72,8968367354186
8.4261472 ,Left ,67,9676646718696 ,43,3149092860888 ,72,9056019427369
8.4261507 ,Left ,67,9676646718696 ,43,3149092860888 ,72,9056019427369
8.4408972 ,Left ,67,9082520095254 ,43,3307767417335 ,72,9190029227748
8.4409005 ,Left ,67,9082520095254 ,43,3307767417335 ,72,9190029227748
8.4710784 ,Left ,67,8709267049952 ,43,3547022348578 ,72,9167216928297
8.471082 ,Left ,67,8709267049952 ,43,3547022348578 ,72,9167216928297
8.4937091 ,Left ,67,8331916437896 ,43,3766178964457 ,72,899082693454
8.4937127 ,Left ,67,8331916437896 ,43,3766178964457 ,72,899082693454
8.5084842 ,Left ,67,7926701246833 ,43,3999443943506 ,72,8707161222955
8.5084878 ,Left ,67,7926701246833 ,43,3999443943506 ,72,8707161222955
8.5236622 ,Left ,67,7238551783957 ,43,427588961538 ,72,8409159848176
8.5236657 ,Left ,67,7238551783957 ,43,427588961538 ,72,8409159848176
8.5460229 ,Left ,67,6512856407244 ,43,44821594093 ,72,8064302411193
8.5460318 ,Left ,67,6512856407244 ,43,44821594093 ,72,8064302411193
8.5610723 ,Left ,67,5836895798681 ,43,4691788551078 ,72,7740653093483
8.5610759 ,Left ,67,5836895798681 ,43,4691788551078 ,72,7740653093483
8.5834059 ,Left ,67,5175707258196 ,43,4806202718764 ,72,7383033791872
8.5834093 ,Left ,67,5175707258196 ,43,4806202718764 ,72,7383033791872
8.6060348 ,Left ,67,4710117634307 ,43,4954130147534 ,72,6905392488103
8.6060383 ,Left ,67,4710117634307 ,43,4954130147534 ,72,6905392488103
8.6209228 ,Left ,67,4331248817602 ,43,5004346423418 ,72,63095197267
8.6209262 ,Left ,67,4331248817602 ,43,5004346423418 ,72,63095197267
8.6435314 ,Left ,67,3792308898704 ,43,5175768983085 ,72,5651733600824
8.6435349 ,Left ,67,3792308898704 ,43,5175768983085 ,72,5651733600824
8.6661304 ,Left ,67,2659906842683 ,43,5370536194156 ,72,5280171475713
8.666134 ,Left ,67,2659906842683 ,43,5370536194156 ,72,5280171475713
8.6882602 ,Left ,67,0451990077314 ,43,5642331228823 ,72,5232259800632
8.6882621 ,Left ,67,0451990077314 ,43,5642331228823 ,72,5232259800632
8.7034961 ,Left ,66,7453935619503 ,43,6183588309755 ,72,5527353952993
8.7034982 ,Left ,66,7453935619503 ,43,6183588309755 ,72,5527353952993
8.7261012 ,Left ,66,4713506159129 ,43,6427566054815 ,72,5223838377502
8.7261033 ,Left ,66,4713506159129 ,43,6427566054815 ,72,5223838377502
8.7484348 ,Left ,66,4949588780585 ,43,6291353970342 ,72,5272374480829
8.7484367 ,Left ,66,4949588780585 ,43,6291353970342 ,72,5272374480829
8.7634379 ,Left ,66,7535523143776 ,43,7164414046257 ,72,5061459711332
8.7634398 ,Left ,66,7535523143776 ,43,7164414046257 ,72,5061459711332
8.7858012 ,Left ,66,7782565132592 ,43,803213516452 ,72,4671418472834
8.785803 ,Left ,66,7782565132592 ,43,803213516452 ,72,4671418472834
8.8082791 ,Left ,66,7316009652524 ,43,8461031749647 ,72,4213269525603
8.8082815 ,Left ,66,7316009652524 ,43,8461031749647 ,72,4213269525603
8.8234779 ,Left ,66,667442595766 ,43,8689875489558 ,72,3610994331859
8.823481 ,Left ,66,667442595766 ,43,8689875489558 ,72,3610994331859
8.8461106 ,Left ,66,6456114201124 ,43,8555669100846 ,72,2652120219378
8.8461139 ,Left ,66,6456114201124 ,43,8555669100846 ,72,2652120219378
8.8686141 ,Left ,66,6685802014653 ,43,8000785365389 ,72,1352750669401
8.8686187 ,Left ,66,6685802014653 ,43,8000785365389 ,72,1352750669401
8.8835718 ,Left ,66,6534103250978 ,43,71930343508 ,71,9853220148595
8.8835762 ,Left ,66,6534103250978 ,43,71930343508 ,71,9853220148595
8.9066585 ,Left ,66,574547733478 ,43,6306169912434 ,71,8560077098617
8.9066733 ,Left ,66,574547733478 ,43,6306169912434 ,71,8560077098617
8.9363236 ,Left ,66,4870801141987 ,43,5670862259589 ,71,7694515995761
8.9363314 ,Left ,66,4870801141987 ,43,5670862259589 ,71,7694515995761
8.9511778 ,Left ,66,3705443234124 ,43,5161664826321 ,71,7139262530326
8.951183 ,Left ,66,3705443234124 ,43,5161664826321 ,71,7139262530326
8.973801 ,Left ,66,3030762359671 ,43,4788026272731 ,71,6433575930368
8.9738066 ,Left ,66,3030762359671 ,43,4788026272731 ,71,6433575930368
8.9888022 ,Left ,66,2285156884646 ,43,3927505635619 ,71,5860630316793
8.9888079 ,Left ,66,2285156884646 ,43,3927505635619 ,71,5860630316793
9.0111509 ,Left ,66,1213100974415 ,43,3543789607476 ,71,5834583178729
9.0111552 ,Left ,66,1213100974415 ,43,3543789607476 ,71,5834583178729
9.0338289 ,Left ,66,2511733756057 ,43,397819008007 ,71,5845902080486
9.0338332 ,Left ,66,2511733756057 ,43,397819008007 ,71,5845902080486
9.0637395 ,Left ,66,3838130033202 ,43,4175079985682 ,71,4930098164658
9.0637438 ,Left ,66,3838130033202 ,43,4175079985682 ,71,4930098164658
9.0862274 ,Left ,66,4628963381491 ,43,4465532523768 ,71,4658542719309
9.086235 ,Left ,66,4628963381491 ,43,4465532523768 ,71,4658542719309
9.1084727 ,Left ,66,3489781347531 ,43,4476631862725 ,71,4711079624196
9.1084771 ,Left ,66,3489781347531 ,43,4476631862725 ,71,4711079624196
9.1237925 ,Left ,66,2495788183548 ,43,405381285484 ,71,4714103594997
9.1237972 ,Left ,66,2495788183548 ,43,405381285484 ,71,4714103594997
9.1459269 ,Left ,66,1244057904373 ,43,2813708788925 ,71,4599598986986
9.1459289 ,Left ,66,1244057904373 ,43,2813708788925 ,71,4599598986986
9.1686154 ,Left ,65,9880828167778 ,43,2274119173428 ,71,4097583148173
9.1686188 ,Left ,65,9880828167778 ,43,2274119173428 ,71,4097583148173
9.1837065 ,Left ,65,8777763487328 ,43,1853919076644 ,71,4009064306729
9.1837107 ,Left ,65,8777763487328 ,43,1853919076644 ,71,4009064306729
9.2135926 ,Left ,65,9874079589305 ,43,2606271655671 ,71,4362446021339
9.2135966 ,Left ,65,9874079589305 ,43,2606271655671 ,71,4362446021339
9.2360568 ,Left ,66,1108561636847 ,43,3732564308662 ,71,4506040521438
9.2360608 ,Left ,66,1108561636847 ,43,3732564308662 ,71,4506040521438
9.2511264 ,Left ,66,1458109431028 ,43,4111539870131 ,71,4885967056661
9.2511304 ,Left ,66,1458109431028 ,43,4111539870131 ,71,4885967056661
9.2660718 ,Left ,66,2656598703507 ,43,4423862344683 ,71,5238829174861
9.2660797 ,Left ,66,2656598703507 ,43,4423862344683 ,71,5238829174861
9.2886379 ,Left ,66,3030198069972 ,43,5025893270723 ,71,5762150760036
9.2886421 ,Left ,66,3030198069972 ,43,5025893270723 ,71,5762150760036
9.3036696 ,Left ,66,2550833209313 ,43,5589883417465 ,71,6328701603744
9.3036737 ,Left ,66,2550833209313 ,43,5589883417465 ,71,6328701603744
9.3262019 ,Left ,66,1317393725947 ,43,5963480685339 ,71,6894835727861
9.326206 ,Left ,66,1317393725947 ,43,5963480685339 ,71,6894835727861
9.3485762 ,Left ,66,0240122527646 ,43,6516121014962 ,71,7289346543888
9.3485803 ,Left ,66,0240122527646 ,43,6516121014962 ,71,7289346543888
9.3634761 ,Left ,65,9396995352819 ,43,6974482956685 ,71,7480248322334
9.3634804 ,Left ,65,9396995352819 ,43,6974482956685 ,71,7480248322334
9.3860315 ,Left ,65,8797474332328 ,43,7074071312041 ,71,7457223629545
9.3860355 ,Left ,65,8797474332328 ,43,7074071312041 ,71,7457223629545
9.4087154 ,Left ,65,7740195331281 ,43,6595459089695 ,71,7393626582589
9.4087195 ,Left ,65,7740195331281 ,43,6595459089695 ,71,7393626582589
9.4236695 ,Left ,65,6714990186108 ,43,5778636451454 ,71,746358112703
9.4236736 ,Left ,65,6714990186108 ,43,5778636451454 ,71,746358112703
9.4461934 ,Left ,65,5851112590215 ,43,5234527703104 ,71,7217291110655
9.4461989 ,Left ,65,5851112590215 ,43,5234527703104 ,71,7217291110655
9.4685684 ,Left ,65,5125339894941 ,43,5805367559106 ,71,7265169820322
9.4685726 ,Left ,65,5125339894941 ,43,5805367559106 ,71,7265169820322
9.4911636 ,Left ,65,5852066480703 ,43,7509229761127 ,71,7057603111487
9.4911676 ,Left ,65,5852066480703 ,43,7509229761127 ,71,7057603111487
9.5060986 ,Left ,65,7330470200336 ,43,8745829674882 ,71,700213066496
9.5061027 ,Left ,65,7330470200336 ,43,8745829674882 ,71,700213066496
9.5285169 ,Left ,65,8808216471837 ,43,9186248155426 ,71,7109101513777
9.5285213 ,Left ,65,8808216471837 ,43,9186248155426 ,71,7109101513777
9.5511568 ,Left ,66,0594915969592 ,43,9314802909601 ,71,7563116643618
9.551161 ,Left ,66,0594915969592 ,43,9314802909601 ,71,7563116643618
9.5662632 ,Left ,66,1279055563363 ,43,9629580682898 ,71,7990279370767
9.5662818 ,Left ,66,1279055563363 ,43,9629580682898 ,71,7990279370767
9.5891549 ,Left ,66,1709004922792 ,44,0054671325814 ,71,8107769142813
9.5891627 ,Left ,66,1709004922792 ,44,0054671325814 ,71,8107769142813
9.6113226 ,Left ,66,2546764891039 ,44,0409898228349 ,71,7836325693844
9.6113286 ,Left ,66,2546764891039 ,44,0409898228349 ,71,7836325693844
9.6262376 ,Left ,66,3369271515755 ,44,0676057964513 ,71,7428970707826
9.626242 ,Left ,66,3369271515755 ,44,0676057964513 ,71,7428970707826
9.6484565 ,Left ,66,4382784209422 ,44,0790939029525 ,71,6980741007884
9.6484606 ,Left ,66,4382784209422 ,44,0790939029525 ,71,6980741007884
9.6638306 ,Left ,66,5350147892774 ,44,0866271857125 ,71,6695757711951
9.663835 ,Left ,66,5350147892774 ,44,0866271857125 ,71,6695757711951
9.6858306 ,Left ,66,6120482371853 ,44,0743366633427 ,71,6583435795617
9.6858326 ,Left ,66,6120482371853 ,44,0743366633427 ,71,6583435795617
9.7085164 ,Left ,66,6965451077397 ,44,0339621250426 ,71,6459178563641
9.7085184 ,Left ,66,6965451077397 ,44,0339621250426 ,71,6459178563641
9.7307718 ,Left ,66,8004568782177 ,43,9665401243722 ,71,6268001824976
9.7307738 ,Left ,66,8004568782177 ,43,9665401243722 ,71,6268001824976
9.7459797 ,Left ,66,9156280311005 ,43,9024810094225 ,71,6125742163976
9.7459818 ,Left ,66,9156280311005 ,43,9024810094225 ,71,6125742163976
9.7685343 ,Left ,67,0265032722227 ,43,8430014810979 ,71,6119826021043
9.7685369 ,Left ,67,0265032722227 ,43,8430014810979 ,71,6119826021043
9.7988282 ,Left ,67,0750206304896 ,43,8138450291608 ,71,6295051876584
9.7988358 ,Left ,67,0750206304896 ,43,8138450291608 ,71,6295051876584
9.814182 ,Left ,67,1224159713606 ,43,8022802782151 ,71,6518815044121
9.8141899 ,Left ,67,1224159713606 ,43,8022802782151 ,71,6518815044121
9.8366084 ,Left ,67,1476780961199 ,43,8148593549529 ,71,6495754807856
9.8366312 ,Left ,67,1476780961199 ,43,8148593549529 ,71,6495754807856
9.8514588 ,Left ,67,1659609266222 ,43,8394499472712 ,71,6378566446921
9.8514665 ,Left ,67,1659609266222 ,43,8394499472712 ,71,6378566446921
9.8661713 ,Left ,67,1805144708456 ,43,8826893580294 ,71,620931746857
9.8661748 ,Left ,67,1805144708456 ,43,8826893580294 ,71,620931746857
9.8883161 ,Left ,67,1162874784073 ,43,9262674322822 ,71,6020374290696
9.888318 ,Left ,67,1162874784073 ,43,9262674322822 ,71,6020374290696
9.9108932 ,Left ,67,0469633211279 ,43,9630155123911 ,71,5621568652722
9.9108952 ,Left ,67,0469633211279 ,43,9630155123911 ,71,5621568652722
9.9260698 ,Left ,66,9970143835441 ,44,0062980334921 ,71,515563634389
9.9260717 ,Left ,66,9970143835441 ,44,0062980334921 ,71,515563634389
9.9485172 ,Left ,66,9393870799765 ,44,0720983842871 ,71,4711166342624
9.9485196 ,Left ,66,9393870799765 ,44,0720983842871 ,71,4711166342624
9.9710447 ,Left ,66,8786444381264 ,44,1085728175529 ,71,4248173257431
9.9710474 ,Left ,66,8786444381264 ,44,1085728175529 ,71,4248173257431
9.9859124 ,Left ,66,7623374975418 ,44,0942570539314 ,71,3411255699366
9.9859151 ,Left ,66,7623374975418 ,44,0942570539314 ,71,3411255699366
10.0084211 ,Left ,66,6360004499304 ,44,0826442863368 ,71,2664646301088
10.0084272 ,Left ,66,6360004499304 ,44,0826442863368 ,71,2664646301088
10.0310539 ,Left ,66,5304299753898 ,44,116536110815 ,71,197856890421
10.0310576 ,Left ,66,5304299753898 ,44,116536110815 ,71,197856890421
10.0461508 ,Left ,66,3867684036329 ,44,1760438669081 ,71,1247488267888
10.0461545 ,Left ,66,3867684036329 ,44,1760438669081 ,71,1247488267888
10.0683401 ,Left ,66,3471646121252 ,44,2167203819577 ,71,0321406414106
10.0683421 ,Left ,66,3471646121252 ,44,2167203819577 ,71,0321406414106
10.0907571 ,Left ,66,2489286055799 ,44,2151944400437 ,70,9515296838807
10.0907593 ,Left ,66,2489286055799 ,44,2151944400437 ,70,9515296838807
10.1060468 ,Left ,66,1029857082919 ,44,2002454343096 ,70,8872023389632
10.1060494 ,Left ,66,1029857082919 ,44,2002454343096 ,70,8872023389632
10.1285936 ,Left ,65,9503402655002 ,44,1930973062797 ,70,8413591304679
10.1285969 ,Left ,65,9503402655002 ,44,1930973062797 ,70,8413591304679
10.150677 ,Left ,65,8079389799944 ,44,1780119967826 ,70,7834383530426
10.1506788 ,Left ,65,8079389799944 ,44,1780119967826 ,70,7834383530426
10.1663769 ,Left ,65,7012768717705 ,44,1256782649859 ,70,7378490106201
10.1663977 ,Left ,65,7012768717705 ,44,1256782649859 ,70,7378490106201
10.1885132 ,Left ,65,6059883937685 ,44,0530271548176 ,70,7238575193831
10.1885163 ,Left ,65,6059883937685 ,44,0530271548176 ,70,7238575193831
10.2109632 ,Left ,65,4731568929839 ,44,0124767153701 ,70,7368919959469
10.2109663 ,Left ,65,4731568929839 ,44,0124767153701 ,70,7368919959469
10.2261303 ,Left ,65,3752573101462 ,44,0483440593893 ,70,7810043610123
10.2261346 ,Left ,65,3752573101462 ,44,0483440593893 ,70,7810043610123
10.2489765 ,Left ,65,3595713652676 ,44,2078440702911 ,70,8188412781072
10.2489877 ,Left ,65,3595713652676 ,44,2078440702911 ,70,8188412781072
10.2717258 ,Left ,65,4279540827408 ,44,3152411695399 ,70,8433634339866
10.2717336 ,Left ,65,4279540827408 ,44,3152411695399 ,70,8433634339866
10.2866087 ,Left ,65,5780128584196 ,44,3082282197115 ,70,8679772923117
10.2866168 ,Left ,65,5780128584196 ,44,3082282197115 ,70,8679772923117
10.3083895 ,Left ,65,6752853814336 ,44,2913895874778 ,70,8911067626197
10.3083915 ,Left ,65,6752853814336 ,44,2913895874778 ,70,8911067626197
10.3309143 ,Left ,65,692434420232 ,44,2492639696278 ,70,9232492712201
10.3309162 ,Left ,65,692434420232 ,44,2492639696278 ,70,9232492712201
10.3460213 ,Left ,65,7182932742089 ,44,2059829269983 ,70,9326191177703
10.3460233 ,Left ,65,7182932742089 ,44,2059829269983 ,70,9326191177703
10.3684788 ,Left ,65,7914859112844 ,44,131453418367 ,70,9128177657201
10.3684808 ,Left ,65,7914859112844 ,44,131453418367 ,70,9128177657201
10.3908143 ,Left ,65,8146480695185 ,44,0283813997058 ,70,8741382469933
10.3908164 ,Left ,65,8146480695185 ,44,0283813997058 ,70,8741382469933
10.4135717 ,Left ,65,7952338786532 ,43,9319027732464 ,70,8526886694879
10.4135804 ,Left ,65,7952338786532 ,43,9319027732464 ,70,8526886694879
10.4284032 ,Left ,65,7764898176454 ,43,8482361268643 ,70,8464430752427
10.4284072 ,Left ,65,7764898176454 ,43,8482361268643 ,70,8464430752427
10.4511685 ,Left ,65,7745013764397 ,43,7765507823257 ,70,8341096800406
10.4511726 ,Left ,65,7745013764397 ,43,7765507823257 ,70,8341096800406
10.473734 ,Left ,65,8347699065985 ,43,6956436165697 ,70,8109060330938
10.4737383 ,Left ,65,8347699065985 ,43,6956436165697 ,70,8109060330938
10.4883561 ,Left ,65,9167016845573 ,43,6275744260535 ,70,7856485328916
10.488358 ,Left ,65,9167016845573 ,43,6275744260535 ,70,7856485328916
10.5107404 ,Left ,65,9270925220025 ,43,5853060544817 ,70,7731257797494
10.5107423 ,Left ,65,9270925220025 ,43,5853060544817 ,70,7731257797494
10.5257994 ,Left ,65,9266367238827 ,43,5814722285043 ,70,7558582199771
10.5258012 ,Left ,65,9266367238827 ,43,5814722285043 ,70,7558582199771
10.5565572 ,Left ,65,9191976899309 ,43,5699552305609 ,70,7460811865776
10.556565 ,Left ,65,9191976899309 ,43,5699552305609 ,70,7460811865776
10.5788887 ,Left ,65,9216368496255 ,43,5414497073457 ,70,7375438305831
10.5788963 ,Left ,65,9216368496255 ,43,5414497073457 ,70,7375438305831
10.5940806 ,Left ,65,8774190195121 ,43,486266935258 ,70,7288798885704
10.594089 ,Left ,65,8774190195121 ,43,486266935258 ,70,7288798885704
10.6165017 ,Left ,65,8221884466808 ,43,4626028598182 ,70,7375148425062
10.6165296 ,Left ,65,8221884466808 ,43,4626028598182 ,70,7375148425062
10.6315905 ,Left ,65,6768479094836 ,43,5171516225278 ,70,7588617969202
10.6315983 ,Left ,65,6768479094836 ,43,5171516225278 ,70,7588617969202
10.6535574 ,Left ,65,7835978012851 ,43,6196438004184 ,70,8257360618959
10.6535615 ,Left ,65,7835978012851 ,43,6196438004184 ,70,8257360618959
10.6684625 ,Left ,65,9633846870526 ,43,7328530376796 ,70,8855771427578
10.6684655 ,Left ,65,9633846870526 ,43,7328530376796 ,70,8855771427578
10.6915713 ,Left ,66,0721176111282 ,43,8091103042939 ,70,9268119145731
10.691579 ,Left ,66,0721176111282 ,43,8091103042939 ,70,9268119145731
10.7141489 ,Left ,66,1760139231528 ,43,843140278358 ,70,9556699546952
10.7141568 ,Left ,66,1760139231528 ,43,843140278358 ,70,9556699546952
10.7286296 ,Left ,66,240947102308 ,43,8526110028475 ,70,9860758872586
10.728634 ,Left ,66,240947102308 ,43,8526110028475 ,70,9860758872586
10.7511361 ,Left ,66,2853594603429 ,43,8466570366853 ,71,0044404954249
10.7511406 ,Left ,66,2853594603429 ,43,8466570366853 ,71,0044404954249
10.7737753 ,Left ,66,3822125364936 ,43,8198446198956 ,70,9927213210846
10.7737796 ,Left ,66,3822125364936 ,43,8198446198956 ,70,9927213210846
10.788664 ,Left ,66,4932166750936 ,43,7839021463114 ,70,9743545561879
10.7886687 ,Left ,66,4932166750936 ,43,7839021463114 ,70,9743545561879
10.8108091 ,Left ,66,6139973571365 ,43,7445645430384 ,70,9634153592748
10.8108111 ,Left ,66,6139973571365 ,43,7445645430384 ,70,9634153592748
10.8334383 ,Left ,66,7190255750733 ,43,7022528158591 ,70,9722672589964
10.8334408 ,Left ,66,7190255750733 ,43,7022528158591 ,70,9722672589964
10.8485756 ,Left ,66,7808265985663 ,43,6631264559136 ,71,0219681478424
10.8485776 ,Left ,66,7808265985663 ,43,6631264559136 ,71,0219681478424
10.8716846 ,Left ,66,8453901891519 ,43,6466991016031 ,71,0898441215486
10.8716924 ,Left ,66,8453901891519 ,43,6466991016031 ,71,0898441215486
10.8935038 ,Left ,66,9017163820557 ,43,6351465197218 ,71,1484979057212
10.8935058 ,Left ,66,9017163820557 ,43,6351465197218 ,71,1484979057212
10.90846 ,Left ,66,9526876538156 ,43,606717916127 ,71,2076546611472
10.9084619 ,Left ,66,9526876538156 ,43,606717916127 ,71,2076546611472
10.9308931 ,Left ,67,06620783586 ,43,5729931991115 ,71,2601090056428
10.930902 ,Left ,67,06620783586 ,43,5729931991115 ,71,2601090056428
10.9532792 ,Left ,67,1680630358713 ,43,5290239255775 ,71,317852832295
10.953281 ,Left ,67,1680630358713 ,43,5290239255775 ,71,317852832295
10.9683679 ,Left ,67,223621655625 ,43,5005710823186 ,71,3993686294662
10.9683698 ,Left ,67,223621655625 ,43,5005710823186 ,71,3993686294662
10.9909059 ,Left ,67,2548404623701 ,43,4817886362295 ,71,5050652543308
10.9909079 ,Left ,67,2548404623701 ,43,4817886362295 ,71,5050652543308
11.0133472 ,Left ,67,283327663612 ,43,4751560775692 ,71,603223951319
11.0133492 ,Left ,67,283327663612 ,43,4751560775692 ,71,603223951319
11.0283505 ,Left ,67,3507735620745 ,43,4658034511381 ,71,6928900696057
11.0283529 ,Left ,67,3507735620745 ,43,4658034511381 ,71,6928900696057
11.0512535 ,Left ,67,4235800432536 ,43,442441492436 ,71,7780481976212
11.0512579 ,Left ,67,4235800432536 ,43,442441492436 ,71,7780481976212
11.0739435 ,Left ,67,5084385997503 ,43,4200660214342 ,71,8551266447767
11.0739512 ,Left ,67,5084385997503 ,43,4200660214342 ,71,8551266447767
11.0888877 ,Left ,67,5618661588501 ,43,3990870769428 ,71,9330798744871
11.0888954 ,Left ,67,5618661588501 ,43,3990870769428 ,71,9330798744871
11.1117663 ,Left ,67,5583544431561 ,43,3910336230279 ,72,012666655492
11.1117742 ,Left ,67,5583544431561 ,43,3910336230279 ,72,012666655492
11.1339383 ,Left ,67,5554154481014 ,43,389216290718 ,72,0887811971709
11.1339459 ,Left ,67,5554154481014 ,43,389216290718 ,72,0887811971709
11.1486575 ,Left ,67,5642750185899 ,43,3839824117522 ,72,1573641545141
11.148661 ,Left ,67,5642750185899 ,43,3839824117522 ,72,1573641545141
11.171199 ,Left ,67,5896529814882 ,43,3771012101572 ,72,2275840173315
11.1712027 ,Left ,67,5896529814882 ,43,3771012101572 ,72,2275840173315
11.1932483 ,Left ,67,6179034012779 ,43,35941493454 ,72,3007334294994
11.1932501 ,Left ,67,6179034012779 ,43,35941493454 ,72,3007334294994
11.2083493 ,Left ,67,6521220146447 ,43,3489195728723 ,72,3829605727775
11.2083512 ,Left ,67,6521220146447 ,43,3489195728723 ,72,3829605727775
11.2463417 ,Left ,67,6711333500749 ,43,3554506058406 ,72,4413809750218
11.2463494 ,Left ,67,6711333500749 ,43,3554506058406 ,72,4413809750218
11.2689252 ,Left ,67,6749887638083 ,43,3740788371662 ,72,4967425076967
11.2689328 ,Left ,67,6749887638083 ,43,3740788371662 ,72,4967425076967
11.2839091 ,Left ,67,6915687117946 ,43,3855179707416 ,72,5362197527341
11.2839169 ,Left ,67,6915687117946 ,43,3855179707416 ,72,5362197527341
11.2985875 ,Left ,67,7073818556451 ,43,3939306941514 ,72,570402544916
11.2985918 ,Left ,67,7073818556451 ,43,3939306941514 ,72,570402544916
11.3135497 ,Left ,67,7115483356459 ,43,4094598102085 ,72,6041001043421
11.3135516 ,Left ,67,7115483356459 ,43,4094598102085 ,72,6041001043421
11.3282202 ,Left ,67,6937983066301 ,43,4362441832736 ,72,6281632353638
11.328222 ,Left ,67,6937983066301 ,43,4362441832736 ,72,6281632353638
11.3507 ,Left ,67,6786545862205 ,43,4620946866517 ,72,6423146025765
11.3507018 ,Left ,67,6786545862205 ,43,4620946866517 ,72,6423146025765
11.3735506 ,Left ,67,6775824438378 ,43,4646043130486 ,72,6432705635422
11.373553 ,Left ,67,6775824438378 ,43,4646043130486 ,72,6432705635422
11.3884319 ,Left ,67,6780704614788 ,43,4795185779921 ,72,6299962212801
11.3884349 ,Left ,67,6780704614788 ,43,4795185779921 ,72,6299962212801
11.411144 ,Left ,67,654780413198 ,43,5143741011018 ,72,6109686701599
11.4111478 ,Left ,67,654780413198 ,43,5143741011018 ,72,6109686701599
11.4336127 ,Left ,67,6268538670695 ,43,5607717277622 ,72,5721224538004
11.4336165 ,Left ,67,6268538670695 ,43,5607717277622 ,72,5721224538004
11.4484937 ,Left ,67,5919373552253 ,43,5974786371882 ,72,5259210051414
11.4484977 ,Left ,67,5919373552253 ,43,5974786371882 ,72,5259210051414
11.4712081 ,Left ,67,5588150547669 ,43,624867842614 ,72,4862953314032
11.471212 ,Left ,67,5588150547669 ,43,624867842614 ,72,4862953314032
11.4935472 ,Left ,67,4956023731739 ,43,6422775368323 ,72,4516095625896
11.4935508 ,Left ,67,4956023731739 ,43,6422775368323 ,72,4516095625896
11.5086223 ,Left ,67,4091880694794 ,43,653276176221 ,72,4229414771326
11.5086264 ,Left ,67,4091880694794 ,43,653276176221 ,72,4229414771326
11.5310543 ,Left ,67,3645009265611 ,43,6646074878029 ,72,3859011115995
11.531058 ,Left ,67,3645009265611 ,43,6646074878029 ,72,3859011115995
11.5536458 ,Left ,67,3378995371111 ,43,6724706642582 ,72,3395838702701
11.5536496 ,Left ,67,3378995371111 ,43,6724706642582 ,72,3395838702701
11.5684673 ,Left ,67,2959659324148 ,43,6591555687235 ,72,2883924680269
11.5684708 ,Left ,67,2959659324148 ,43,6591555687235 ,72,2883924680269
11.5911628 ,Left ,67,247536979394 ,43,6276520705363 ,72,2498834848141
11.5911669 ,Left ,67,247536979394 ,43,6276520705363 ,72,2498834848141
11.6136086 ,Left ,67,1555050458572 ,43,5927913160688 ,72,2294073556885
11.6136128 ,Left ,67,1555050458572 ,43,5927913160688 ,72,2294073556885
11.6359565 ,Left ,66,9933727195702 ,43,5656823372535 ,72,2204418897274
11.6359636 ,Left ,66,9933727195702 ,43,5656823372535 ,72,2204418897274
11.6587326 ,Left ,66,8289163667695 ,43,532900734091 ,72,2062004811017
11.6587369 ,Left ,66,8289163667695 ,43,532900734091 ,72,2062004811017
11.6811778 ,Left ,66,5841165112472 ,43,5728053159805 ,72,1813603332985
11.6811822 ,Left ,66,5841165112472 ,43,5728053159805 ,72,1813603332985
11.7191679 ,Left ,66,6545755541875 ,43,6198809038361 ,72,1910327023459
11.7191759 ,Left ,66,6545755541875 ,43,6198809038361 ,72,1910327023459
11.7415427 ,Left ,66,7616854148685 ,43,7272274951789 ,72,1545123252408
11.7415508 ,Left ,66,7616854148685 ,43,7272274951789 ,72,1545123252408
11.7714023 ,Left ,66,8785417414725 ,43,8289683748046 ,72,0703794503665
11.7714099 ,Left ,66,8785417414725 ,43,8289683748046 ,72,0703794503665
11.7935482 ,Left ,66,9022666811387 ,43,854367267732 ,72,0306081383695
11.7935508 ,Left ,66,9022666811387 ,43,854367267732 ,72,0306081383695
11.8159329 ,Left ,66,9074793105831 ,43,8551942978348 ,71,9832529601632
11.8159355 ,Left ,66,9074793105831 ,43,8551942978348 ,71,9832529601632
11.8307448 ,Left ,66,8819488109586 ,43,8261473897904 ,71,9023371795514
11.8307465 ,Left ,66,8819488109586 ,43,8261473897904 ,71,9023371795514
11.8458382 ,Left ,66,8360506603249 ,43,7695749197676 ,71,8123459325953
11.8458401 ,Left ,66,8360506603249 ,43,7695749197676 ,71,8123459325953
11.8690084 ,Left ,66,8107268658441 ,43,7027595273504 ,71,7374174612621
11.8690164 ,Left ,66,8107268658441 ,43,7027595273504 ,71,7374174612621
11.8840942 ,Left ,66,781753361783 ,43,6269979461644 ,71,6936554069657
11.884102 ,Left ,66,781753361783 ,43,6269979461644 ,71,6936554069657
11.9065693 ,Left ,66,7225132565854 ,43,5604171213307 ,71,6650826772857
11.9065824 ,Left ,66,7225132565854 ,43,5604171213307 ,71,6650826772857
11.9290196 ,Left ,66,644037692736 ,43,5051318400548 ,71,6530931740127
11.9290272 ,Left ,66,644037692736 ,43,5051318400548 ,71,6530931740127
11.9436772 ,Left ,66,5369230559257 ,43,4818001412919 ,71,6479071293994
11.9436807 ,Left ,66,5369230559257 ,43,4818001412919 ,71,6479071293994
11.9659123 ,Left ,66,3965236545316 ,43,4677619242968 ,71,6609632249117
11.9659153 ,Left ,66,3965236545316 ,43,4677619242968 ,71,6609632249117
11.9885141 ,Left ,66,4389295599663 ,43,490105079202 ,71,7053646265867
11.9885174 ,Left ,66,4389295599663 ,43,490105079202 ,71,7053646265867
12.0033937 ,Left ,66,5350468543895 ,43,6021441105832 ,71,7175706781391
12.0033966 ,Left ,66,5350468543895 ,43,6021441105832 ,71,7175706781391
12.0260628 ,Left ,66,5301061835601 ,43,6705712932331 ,71,698197807608
12.0260659 ,Left ,66,5301061835601 ,43,6705712932331 ,71,698197807608
12.0485826 ,Left ,66,5515448586875 ,43,6565324394858 ,71,6981455409965
12.0485856 ,Left ,66,5515448586875 ,43,6565324394858 ,71,6981455409965
12.0636832 ,Left ,66,5133793315257 ,43,6554089207607 ,71,7027329513357
12.0636863 ,Left ,66,5133793315257 ,43,6554089207607 ,71,7027329513357
12.0865223 ,Left ,66,3703413157821 ,43,6442004676704 ,71,686127311713
12.0865425 ,Left ,66,3703413157821 ,43,6442004676704 ,71,686127311713
12.1086082 ,Left ,66,1923890391098 ,43,5568984785015 ,71,669691593912
12.1086117 ,Left ,66,1923890391098 ,43,5568984785015 ,71,669691593912
12.1236849 ,Left ,66,0839009430464 ,43,4875135747147 ,71,6430678600218
12.1236885 ,Left ,66,0839009430464 ,43,4875135747147 ,71,6430678600218
12.1459403 ,Left ,66,1133743406636 ,43,5398640265819 ,71,6635775086409
12.14595 ,Left ,66,1133743406636 ,43,5398640265819 ,71,6635775086409
12.1833071 ,Left ,66,2354122585553 ,43,7563691077976 ,71,6782125869784
12.1833091 ,Left ,66,2354122585553 ,43,7563691077976 ,71,6782125869784
12.2065312 ,Left ,66,2731890212317 ,43,7503288549816 ,71,7151423223487
12.2065392 ,Left ,66,2731890212317 ,43,7503288549816 ,71,7151423223487
12.2441453 ,Left ,66,2425893053295 ,43,7473538756759 ,71,808247113614
12.2441534 ,Left ,66,2425893053295 ,43,7473538756759 ,71,808247113614
12.2660172 ,Left ,66,1679812528479 ,43,7520809019419 ,71,8278566228333
12.2660207 ,Left ,66,1679812528479 ,43,7520809019419 ,71,8278566228333
12.3032814 ,Left ,65,9912345924534 ,43,7746304069798 ,71,8684342746264
12.3032833 ,Left ,65,9912345924534 ,43,7746304069798 ,71,8684342746264
12.3260114 ,Left ,65,8962962803477 ,43,74474733846 ,71,8649973932259
12.3260134 ,Left ,65,8962962803477 ,43,74474733846 ,71,8649973932259
12.3635585 ,Left ,65,695017396013 ,43,6671139054464 ,71,9389440132948
12.3635622 ,Left ,65,695017396013 ,43,6671139054464 ,71,9389440132948
12.3937314 ,Left ,65,7463591194175 ,43,7600980234846 ,71,9523546591335
12.3937357 ,Left ,65,7463591194175 ,43,7600980234846 ,71,9523546591335
12.4307589 ,Left ,66,0517823189899 ,43,9253870775181 ,71,9371498449541
12.4307606 ,Left ,66,0517823189899 ,43,9253870775181 ,71,9371498449541
12.4458525 ,Left ,66,1853554467303 ,43,9205077177625 ,71,9126065348496
12.4458543 ,Left ,66,1853554467303 ,43,9205077177625 ,71,9126065348496
12.4835793 ,Left ,66,2376333027486 ,43,9096507266246 ,71,8779843117235
12.4835822 ,Left ,66,2376333027486 ,43,9096507266246 ,71,8779843117235
12.5059408 ,Left ,66,3136188916211 ,43,941166104142 ,71,8336854114522
12.505944 ,Left ,66,3136188916211 ,43,941166104142 ,71,8336854114522
12.5437026 ,Left ,66,4282524668767 ,43,9674467566463 ,71,7054568900038
12.5437062 ,Left ,66,4282524668767 ,43,9674467566463 ,71,7054568900038
12.5656585 ,Left ,66,4514077353297 ,43,971085715227 ,71,6657658615638
12.5656603 ,Left ,66,4514077353297 ,43,971085715227 ,71,6657658615638
12.6185165 ,Left ,66,477157257604 ,44,016105857079 ,71,5815820734811
12.6185185 ,Left ,66,477157257604 ,44,016105857079 ,71,5815820734811
12.6410358 ,Left ,66,5400935489519 ,44,0464500837646 ,71,5212326420144
12.641038 ,Left ,66,5400935489519 ,44,0464500837646 ,71,5212326420144
12.6860395 ,Left ,66,6915200362341 ,44,1330879501668 ,71,3159942128423
12.6860418 ,Left ,66,6915200362341 ,44,1330879501668 ,71,3159942128423
12.723356 ,Left ,66,5248495482925 ,44,2386607539076 ,71,1930747710687
12.7233579 ,Left ,66,5248495482925 ,44,2386607539076 ,71,1930747710687
12.7459418 ,Left ,66,4488543748817 ,44,2956125335284 ,71,1096662130827
12.7459437 ,Left ,66,4488543748817 ,44,2956125335284 ,71,1096662130827
12.7835262 ,Left ,66,4351862119701 ,44,343432354177 ,70,9156766875411
12.7835284 ,Left ,66,4351862119701 ,44,343432354177 ,70,9156766875411
12.805874 ,Left ,66,3624562513413 ,44,3411966809522 ,70,8385294942908
12.805877 ,Left ,66,3624562513413 ,44,3411966809522 ,70,8385294942908
12.8509344 ,Left ,66,1625204142981 ,44,3044824183563 ,70,7338420274299
12.8509428 ,Left ,66,1625204142981 ,44,3044824183563 ,70,7338420274299
12.8734623 ,Left ,66,052894299552 ,44,2702560035134 ,70,702126322164
12.8734643 ,Left ,66,052894299552 ,44,2702560035134 ,70,702126322164
12.9035076 ,Left ,65,7353636140911 ,44,1946410645212 ,70,6506061891883
12.90351 ,Left ,65,7353636140911 ,44,1946410645212 ,70,6506061891883
12.9258833 ,Left ,65,79473496224 ,44,1922506393811 ,70,7251688445279
12.9258855 ,Left ,65,79473496224 ,44,1922506393811 ,70,7251688445279
12.9634958 ,Left ,66,2022503129962 ,44,3108473884633 ,70,6918485429184
12.9634987 ,Left ,66,2022503129962 ,44,3108473884633 ,70,6918485429184
12.9860187 ,Left ,66,286966432389 ,44,2902082828221 ,70,6956142142704
12.9860223 ,Left ,66,286966432389 ,44,2902082828221 ,70,6956142142704
13.0236707 ,Left ,66,2563095137943 ,44,2258279366223 ,70,8001167700631
13.0236745 ,Left ,66,2563095137943 ,44,2258279366223 ,70,8001167700631
13.0461478 ,Left ,66,2516683360697 ,44,1707508249608 ,70,8265053571077
13.0461517 ,Left ,66,2516683360697 ,44,1707508249608 ,70,8265053571077
13.0835377 ,Left ,66,2221683467106 ,43,9511285657752 ,70,8190744929209
13.0835398 ,Left ,66,2221683467106 ,43,9511285657752 ,70,8190744929209
13.1133188 ,Left ,66,1717574626086 ,43,8370090408222 ,70,8456580334387
13.1133209 ,Left ,66,1717574626086 ,43,8370090408222 ,70,8456580334387
13.1660754 ,Left ,66,3088653065164 ,43,5410915605767 ,70,8899802195677
13.1660781 ,Left ,66,3088653065164 ,43,5410915605767 ,70,8899802195677
13.2041664 ,Left ,66,3119363510515 ,43,5177812045776 ,70,9183139855489
13.2041742 ,Left ,66,3119363510515 ,43,5177812045776 ,70,9183139855489
13.2262556 ,Left ,66,2663918362639 ,43,53492547236 ,70,939746822076
13.2262598 ,Left ,66,2663918362639 ,43,53492547236 ,70,939746822076
13.2635764 ,Left ,66,0854352799735 ,43,5636346412339 ,70,9894210894769
13.263579 ,Left ,66,0854352799735 ,43,5636346412339 ,70,9894210894769
13.2859171 ,Left ,65,9579806357838 ,43,5683340109142 ,71,0325930617712
13.2859198 ,Left ,65,9579806357838 ,43,5683340109142 ,71,0325930617712
13.323558 ,Left ,66,0929190206589 ,43,8064203984726 ,71,235238440275
13.3235601 ,Left ,66,0929190206589 ,43,8064203984726 ,71,235238440275
13.3460688 ,Left ,66,1716494436657 ,43,898724521949 ,71,2618896045361
13.3460711 ,Left ,66,1716494436657 ,43,898724521949 ,71,2618896045361
13.3835814 ,Left ,66,3374803654701 ,43,9045366275729 ,71,2747458798965
13.3835839 ,Left ,66,3374803654701 ,43,9045366275729 ,71,2747458798965
13.4058333 ,Left ,66,3780874198799 ,43,8945598891186 ,71,287794042865
13.4058358 ,Left ,66,3780874198799 ,43,8945598891186 ,71,287794042865
13.4433829 ,Left ,66,5153725166766 ,43,839757146708 ,71,3107547675565
13.4433851 ,Left ,66,5153725166766 ,43,839757146708 ,71,3107547675565
13.4660644 ,Left ,66,6035458557224 ,43,8176085111875 ,71,3191047351409
13.4660685 ,Left ,66,6035458557224 ,43,8176085111875 ,71,3191047351409
13.5037323 ,Left ,66,7978390146492 ,43,7941064019618 ,71,396383118313
13.5037366 ,Left ,66,7978390146492 ,43,7941064019618 ,71,396383118313
13.5261274 ,Left ,66,8670373331604 ,43,7813211652137 ,71,4657414477663
13.5261339 ,Left ,66,8670373331604 ,43,7813211652137 ,71,4657414477663
13.5633874 ,Left ,67,0437104236371 ,43,7202950760569 ,71,6109300431774
13.5633894 ,Left ,67,0437104236371 ,43,7202950760569 ,71,6109300431774
13.5936554 ,Left ,67,134412571892 ,43,6952048048011 ,71,6894791571354
13.5936573 ,Left ,67,134412571892 ,43,6952048048011 ,71,6894791571354
13.6460115 ,Left ,67,3372199546477 ,43,6057384969495 ,71,9470158848087
13.6460144 ,Left ,67,3372199546477 ,43,6057384969495 ,71,9470158848087
13.683483 ,Left ,67,4693141694565 ,43,5793553917092 ,72,0824125680131
13.6834863 ,Left ,67,4693141694565 ,43,5793553917092 ,72,0824125680131
13.7060909 ,Left ,67,5285101111476 ,43,5583762303963 ,72,1259289623377
13.7060955 ,Left ,67,5285101111476 ,43,5583762303963 ,72,1259289623377
13.7209265 ,Left ,67,5773554072979 ,43,5286479710081 ,72,1688158776393
13.7209298 ,Left ,67,5773554072979 ,43,5286479710081 ,72,1688158776393
13.7359192 ,Left ,67,5938824121663 ,43,4947842131172 ,72,2155713278785
13.7359223 ,Left ,67,5938824121663 ,43,4947842131172 ,72,2155713278785
13.7584271 ,Left ,67,6016718298922 ,43,477660283293 ,72,2574978909957
13.7584302 ,Left ,67,6016718298922 ,43,477660283293 ,72,2574978909957
13.7811169 ,Left ,67,6402735332152 ,43,4804681154688 ,72,293128480527
13.7811202 ,Left ,67,6402735332152 ,43,4804681154688 ,72,293128480527
13.7959457 ,Left ,67,6873318495075 ,43,4825449894483 ,72,3245688594489
13.795949 ,Left ,67,6873318495075 ,43,4825449894483 ,72,3245688594489
13.8183282 ,Left ,67,7299366397161 ,43,4908915027893 ,72,3576257764818
13.81833 ,Left ,67,7299366397161 ,43,4908915027893 ,72,3576257764818
13.8408711 ,Left ,67,7270608691023 ,43,4872421482685 ,72,3961474940618
13.8408732 ,Left ,67,7270608691023 ,43,4872421482685 ,72,3961474940618
13.8558788 ,Left ,67,7123793132337 ,43,4925024230925 ,72,4486661083118
13.855881 ,Left ,67,7123793132337 ,43,4925024230925 ,72,4486661083118
13.8783747 ,Left ,67,7406428401554 ,43,5023504406817 ,72,4946676012594
13.8783771 ,Left ,67,7406428401554 ,43,5023504406817 ,72,4946676012594
13.9008843 ,Left ,67,7689301016987 ,43,5135473651409 ,72,5280783634495
13.9008867 ,Left ,67,7689301016987 ,43,5135473651409 ,72,5280783634495
13.9165217 ,Left ,67,7807628341253 ,43,5157085153521 ,72,5646640473498
13.9165295 ,Left ,67,7807628341253 ,43,5157085153521 ,72,5646640473498
13.9465909 ,Left ,67,7740094647743 ,43,5101206239121 ,72,6149080397171
13.946599 ,Left ,67,7740094647743 ,43,5101206239121 ,72,6149080397171
13.9687922 ,Left ,67,7602627644489 ,43,5015907483945 ,72,6714131652979
13.9687981 ,Left ,67,7602627644489 ,43,5015907483945 ,72,6714131652979
13.9839848 ,Left ,67,7483434145984 ,43,5005125527314 ,72,7256653486959
13.9839907 ,Left ,67,7483434145984 ,43,5005125527314 ,72,7256653486959
13.9986929 ,Left ,67,7582636206425 ,43,5135046135661 ,72,7603835263982
13.9986984 ,Left ,67,7582636206425 ,43,5135046135661 ,72,7603835263982
14.0210763 ,Left ,67,7864313308974 ,43,5179290740856 ,72,7697259434363
14.0210799 ,Left ,67,7864313308974 ,43,5179290740856 ,72,7697259434363
14.0360742 ,Left ,67,7787278051166 ,43,5233649658242 ,72,7834754516676
14.0360772 ,Left ,67,7787278051166 ,43,5233649658242 ,72,7834754516676
14.058648 ,Left ,67,7206915154434 ,43,5462570570234 ,72,8008356698891
14.058651 ,Left ,67,7206915154434 ,43,5462570570234 ,72,8008356698891
14.0808485 ,Left ,67,6619646375332 ,43,5769447150228 ,72,8079156978527
14.0808513 ,Left ,67,6619646375332 ,43,5769447150228 ,72,8079156978527
14.0959276 ,Left ,67,6314362726106 ,43,6048363573394 ,72,8033156023471
14.0959304 ,Left ,67,6314362726106 ,43,6048363573394 ,72,8033156023471
14.1183496 ,Left ,67,6187670358303 ,43,6128785741565 ,72,7886407366281
14.1183516 ,Left ,67,6187670358303 ,43,6128785741565 ,72,7886407366281
14.1410176 ,Left ,67,6242221334141 ,43,6157878584993 ,72,7781891628677
14.1410197 ,Left ,67,6242221334141 ,43,6157878584993 ,72,7781891628677
14.1558569 ,Left ,67,5950952736808 ,43,6307265602021 ,72,7781523979676
14.1558593 ,Left ,67,5950952736808 ,43,6307265602021 ,72,7781523979676
14.1788879 ,Left ,67,5363387067545 ,43,6553803562899 ,72,7787144688691
14.1788956 ,Left ,67,5363387067545 ,43,6553803562899 ,72,7787144688691
14.2013914 ,Left ,67,4908927014698 ,43,6758118240674 ,72,7683831929892
14.2013971 ,Left ,67,4908927014698 ,43,6758118240674 ,72,7683831929892
14.2162651 ,Left ,67,4474051459489 ,43,681134180137 ,72,7411876968593
14.2162713 ,Left ,67,4474051459489 ,43,681134180137 ,72,7411876968593
14.2386857 ,Left ,67,4348880867725 ,43,6528044470496 ,72,7057525917733
14.2386912 ,Left ,67,4348880867725 ,43,6528044470496 ,72,7057525917733
14.2613024 ,Left ,67,4171335255329 ,43,6219751021029 ,72,6704782893383
14.2613079 ,Left ,67,4171335255329 ,43,6219751021029 ,72,6704782893383
14.2760914 ,Left ,67,3741657871814 ,43,5949107420646 ,72,6418641666136
14.2760967 ,Left ,67,3741657871814 ,43,5949107420646 ,72,6418641666136
14.2988554 ,Left ,67,3190075162797 ,43,5762902197574 ,72,6166594177149
14.298861 ,Left ,67,3190075162797 ,43,5762902197574 ,72,6166594177149
14.3213249 ,Left ,67,289993617979 ,43,556926602133 ,72,5699442199719
14.3213313 ,Left ,67,289993617979 ,43,556926602133 ,72,5699442199719
14.3435539 ,Left ,67,2896671892735 ,43,5328893740737 ,72,5274452737397
14.3435571 ,Left ,67,2896671892735 ,43,5328893740737 ,72,5274452737397
14.3659887 ,Left ,67,2919356478531 ,43,5213228069954 ,72,5021925886216
14.3659917 ,Left ,67,2919356478531 ,43,5213228069954 ,72,5021925886216
14.3959048 ,Left ,67,2578376551923 ,43,511451962999 ,72,4959867447137
14.3959082 ,Left ,67,2578376551923 ,43,511451962999 ,72,4959867447137
14.4184148 ,Left ,67,2636106152064 ,43,4806330700501 ,72,4865848959525
14.4184179 ,Left ,67,2636106152064 ,43,4806330700501 ,72,4865848959525
14.4415646 ,Left ,67,2695382588466 ,43,4464449485533 ,72,4758650795089
14.4415734 ,Left ,67,2695382588466 ,43,4464449485533 ,72,4758650795089
14.4643 ,Left ,67,2735134034674 ,43,4244027491572 ,72,4702256982627
14.464309 ,Left ,67,2735134034674 ,43,4244027491572 ,72,4702256982627
14.4791374 ,Left ,67,2133467195334 ,43,4068516850907 ,72,4857118383942
14.4791461 ,Left ,67,2133467195334 ,43,4068516850907 ,72,4857118383942
14.5012773 ,Left ,67,1537350072717 ,43,4224793637216 ,72,5139413813258
14.5012828 ,Left ,67,1537350072717 ,43,4224793637216 ,72,5139413813258
14.5236891 ,Left ,67,0100522191813 ,43,4578614031907 ,72,5671518299927
14.5236927 ,Left ,67,0100522191813 ,43,4578614031907 ,72,5671518299927
14.5385983 ,Left ,66,7654207732476 ,43,5076781819997 ,72,5632497023252
14.5386025 ,Left ,66,7654207732476 ,43,5076781819997 ,72,5632497023252
14.5611777 ,Left ,66,6868440897654 ,43,4686610745802 ,72,5338828969
14.5611813 ,Left ,66,6868440897654 ,43,4686610745802 ,72,5338828969
14.5836495 ,Left ,66,6768719881902 ,43,4994029278371 ,72,581446364246
14.5836531 ,Left ,66,6768719881902 ,43,4994029278371 ,72,581446364246
14.5983572 ,Left ,66,6777637735182 ,43,6338607925959 ,72,6048352761527
14.5983605 ,Left ,66,6777637735182 ,43,6338607925959 ,72,6048352761527
14.6212027 ,Left ,66,7273174032511 ,43,7305198098213 ,72,5842132296933
14.6212063 ,Left ,66,7273174032511 ,43,7305198098213 ,72,5842132296933
14.6434966 ,Left ,66,7565732113225 ,43,7925815250055 ,72,5484635943212
14.6434986 ,Left ,66,7565732113225 ,43,7925815250055 ,72,5484635943212
14.6584638 ,Left ,66,7764591943122 ,43,8301732803657 ,72,5155280486356
14.6584658 ,Left ,66,7764591943122 ,43,8301732803657 ,72,5155280486356
14.6807445 ,Left ,66,7814552510126 ,43,8016028621325 ,72,4808737137227
14.6807464 ,Left ,66,7814552510126 ,43,8016028621325 ,72,4808737137227
14.7033291 ,Left ,66,7340773201234 ,43,7487810678969 ,72,4476799505586
14.7033313 ,Left ,66,7340773201234 ,43,7487810678969 ,72,4476799505586
14.7186091 ,Left ,66,6404173713646 ,43,731912829441 ,72,406193748805
14.718612 ,Left ,66,6404173713646 ,43,731912829441 ,72,406193748805
14.7409344 ,Left ,66,5763189056852 ,43,7325392094705 ,72,3496766007297
14.7409374 ,Left ,66,5763189056852 ,43,7325392094705 ,72,3496766007297
14.7634989 ,Left ,66,5856075726926 ,43,7218704734886 ,72,3014434632879
14.7635018 ,Left ,66,5856075726926 ,43,7218704734886 ,72,3014434632879
14.7784434 ,Left ,66,5875390170062 ,43,6706410036848 ,72,2493375357734
14.7784461 ,Left ,66,5875390170062 ,43,6706410036848 ,72,2493375357734
14.8007943 ,Left ,66,5437414636056 ,43,5715935308339 ,72,2147967372065
14.8007962 ,Left ,66,5437414636056 ,43,5715935308339 ,72,2147967372065
14.8234283 ,Left ,66,4856953147111 ,43,5025965621146 ,72,183236929876
14.8234311 ,Left ,66,4856953147111 ,43,5025965621146 ,72,183236929876
14.8383362 ,Left ,66,4302729523991 ,43,4843576658567 ,72,1455213226241
14.8383384 ,Left ,66,4302729523991 ,43,4843576658567 ,72,1455213226241
14.861076 ,Left ,66,4052876495451 ,43,4680924644935 ,72,1047565263996
14.8610791 ,Left ,66,4052876495451 ,43,4680924644935 ,72,1047565263996
14.8834115 ,Left ,66,3847143323369 ,43,4487278008302 ,72,0640012821456
14.8834143 ,Left ,66,3847143323369 ,43,4487278008302 ,72,0640012821456
14.8984494 ,Left ,66,3083844990378 ,43,4578121189214 ,72,0361312998936
14.8984516 ,Left ,66,3083844990378 ,43,4578121189214 ,72,0361312998936
14.9283947 ,Left ,66,2001812267313 ,43,4657866386455 ,72,0252849729744
14.9283975 ,Left ,66,2001812267313 ,43,4657866386455 ,72,0252849729744
14.9507268 ,Left ,66,090231203821 ,43,4604817817587 ,72,0314363561729
14.9507286 ,Left ,66,090231203821 ,43,4604817817587 ,72,0314363561729
14.9658568 ,Left ,66,0791824193612 ,43,4071331669882 ,72,0255046190703
14.9658589 ,Left ,66,0791824193612 ,43,4071331669882 ,72,0255046190703
14.9809514 ,Left ,66,1586174127984 ,43,4112322177281 ,72,0296002667536
14.9809541 ,Left ,66,1586174127984 ,43,4112322177281 ,72,0296002667536
15.0038901 ,Left ,66,1839614055805 ,43,4939428219626 ,72,0032441988898
15.0038976 ,Left ,66,1839614055805 ,43,4939428219626 ,72,0032441988898
15.0190839 ,Left ,66,1698122968553 ,43,5194813452948 ,71,9743722533654
15.0190916 ,Left ,66,1698122968553 ,43,5194813452948 ,71,9743722533654
15.041644 ,Left ,66,1573593985065 ,43,5041662742556 ,71,9611039441095
15.0416518 ,Left ,66,1573593985065 ,43,5041662742556 ,71,9611039441095
15.0641624 ,Left ,66,1505098809774 ,43,4838368682655 ,71,9473160974674
15.0641705 ,Left ,66,1505098809774 ,43,4838368682655 ,71,9473160974674
15.0786123 ,Left ,66,0811701530855 ,43,4901967110178 ,71,9374137724248
15.0786177 ,Left ,66,0811701530855 ,43,4901967110178 ,71,9374137724248
15.1012393 ,Left ,65,994579890287 ,43,4562537444736 ,71,9190630355976
15.1012446 ,Left ,65,994579890287 ,43,4562537444736 ,71,9190630355976
15.1236944 ,Left ,66,0083577641313 ,43,3869264487064 ,71,8938151290636
15.1236988 ,Left ,66,0083577641313 ,43,3869264487064 ,71,8938151290636
15.1385928 ,Left ,66,023051400434 ,43,4267136548932 ,71,8819824674326
15.1385972 ,Left ,66,023051400434 ,43,4267136548932 ,71,8819824674326
15.1610248 ,Left ,66,0429287235706 ,43,5573812215526 ,71,877597249402
15.161029 ,Left ,66,0429287235706 ,43,5573812215526 ,71,877597249402
15.1833574 ,Left ,66,099507390935 ,43,6413036778189 ,71,8803767983957
15.1833591 ,Left ,66,099507390935 ,43,6413036778189 ,71,8803767983957
15.2134729 ,Left ,66,1762068777075 ,43,6584739431669 ,71,8865356637865
15.213475 ,Left ,66,1762068777075 ,43,6584739431669 ,71,8865356637865
15.2282558 ,Left ,66,2336737646691 ,43,661316798869 ,71,8878810111346
15.2282582 ,Left ,66,2336737646691 ,43,661316798869 ,71,8878810111346
15.2511072 ,Left ,66,2277193039037 ,43,6634789346671 ,71,8838995444933
15.2511108 ,Left ,66,2277193039037 ,43,6634789346671 ,71,8838995444933
15.2660978 ,Left ,66,1710810952288 ,43,6690047034946 ,71,8734558449958
15.2661021 ,Left ,66,1710810952288 ,43,6690047034946 ,71,8734558449958
15.281154 ,Left ,66,0856924405077 ,43,6800337648367 ,71,8607923365504
15.2811585 ,Left ,66,0856924405077 ,43,6800337648367 ,71,8607923365504
15.3037607 ,Left ,66,0453504780424 ,43,685950275567 ,71,8264045952805
15.3037651 ,Left ,66,0453504780424 ,43,685950275567 ,71,8264045952805
15.3186588 ,Left ,65,9999632890078 ,43,6576870607833 ,71,7763191933797
15.3186632 ,Left ,65,9999632890078 ,43,6576870607833 ,71,7763191933797
15.3412578 ,Left ,65,9341666297288 ,43,6304387961566 ,71,7407150716252
15.3412622 ,Left ,65,9341666297288 ,43,6304387961566 ,71,7407150716252
15.3634823 ,Left ,65,8466108434395 ,43,6350799621808 ,71,735486139582
15.3634863 ,Left ,65,8466108434395 ,43,6350799621808 ,71,735486139582
15.393708 ,Left ,65,720702533976 ,43,6726577924247 ,71,7277004315591
15.3937131 ,Left ,65,720702533976 ,43,6726577924247 ,71,7277004315591
15.4082852 ,Left ,65,7078214439024 ,43,699623282355 ,71,7322546044048
15.408287 ,Left ,65,7078214439024 ,43,699623282355 ,71,7322546044048
15.4307895 ,Left ,65,7596890278222 ,43,8242234487021 ,71,7561043455064
15.4307915 ,Left ,65,7596890278222 ,43,8242234487021 ,71,7561043455064
15.4609069 ,Left ,66,0287413396698 ,44,1264812868663 ,71,8098718336435
15.4609089 ,Left ,66,0287413396698 ,44,1264812868663 ,71,8098718336435
15.4833853 ,Left ,66,1565289118692 ,44,1738247041688 ,71,8264664124481
15.4833884 ,Left ,66,1565289118692 ,44,1738247041688 ,71,8264664124481
15.506074 ,Left ,66,2487891254753 ,44,168611649629 ,71,8387300925502
15.506076 ,Left ,66,2487891254753 ,44,168611649629 ,71,8387300925502
15.5207792 ,Left ,66,256286403452 ,44,1757192860454 ,71,834552220797
15.5207812 ,Left ,66,256286403452 ,44,1757192860454 ,71,834552220797
15.543494 ,Left ,66,2288511038977 ,44,1892707935578 ,71,8036825399542
15.5434964 ,Left ,66,2288511038977 ,44,1892707935578 ,71,8036825399542
15.566077 ,Left ,66,2656296254576 ,44,1907090775314 ,71,7513654523198
15.5660809 ,Left ,66,2656296254576 ,44,1907090775314 ,71,7513654523198
15.5811478 ,Left ,66,3057065619644 ,44,1828368793502 ,71,6928564045093
15.5811511 ,Left ,66,3057065619644 ,44,1828368793502 ,71,6928564045093
15.6035051 ,Left ,66,3493726431033 ,44,1598465206443 ,71,6411320430013
15.6035083 ,Left ,66,3493726431033 ,44,1598465206443 ,71,6411320430013
15.6261293 ,Left ,66,3667556948001 ,44,1479808407005 ,71,6122149648952
15.6261325 ,Left ,66,3667556948001 ,44,1479808407005 ,71,6122149648952
15.6410285 ,Left ,66,3570578660339 ,44,1366012494781 ,71,5978044862402
15.6410319 ,Left ,66,3570578660339 ,44,1366012494781 ,71,5978044862402
15.6635407 ,Left ,66,358400084127 ,44,1228515439532 ,71,5728426968845
15.6635439 ,Left ,66,358400084127 ,44,1228515439532 ,71,5728426968845
15.6860348 ,Left ,66,3778925364307 ,44,1117291694132 ,71,5385410964
15.6860381 ,Left ,66,3778925364307 ,44,1117291694132 ,71,5385410964
15.7161039 ,Left ,66,4120789846033 ,44,1186787492015 ,71,4848576157037
15.7161082 ,Left ,66,4120789846033 ,44,1186787492015 ,71,4848576157037
15.7406861 ,Left ,66,4195207826591 ,44,1258703763014 ,71,4807710469049
15.7407077 ,Left ,66,4195207826591 ,44,1258703763014 ,71,4807710469049
15.7687766 ,Left ,66,3307750737591 ,44,1189621962878 ,71,5217711342021
15.7687822 ,Left ,66,3307750737591 ,44,1189621962878 ,71,5217711342021
15.7836061 ,Left ,66,3755063382145 ,44,3133598214153 ,71,5155091271449
15.7836091 ,Left ,66,3755063382145 ,44,3133598214153 ,71,5155091271449
15.8134733 ,Left ,66,4079766731378 ,44,1537738370521 ,71,5314345842647
15.8134761 ,Left ,66,4079766731378 ,44,1537738370521 ,71,5314345842647
15.8359841 ,Left ,66,6585508776915 ,44,153217965193 ,71,4750962216029
15.8359889 ,Left ,66,6585508776915 ,44,153217965193 ,71,4750962216029
15.8509287 ,Left ,66,8222011034273 ,44,3026787105268 ,71,4524651466673
15.8509316 ,Left ,66,8222011034273 ,44,3026787105268 ,71,4524651466673
15.9039364 ,Left ,66,4679033487148 ,44,2444804668785 ,71,6386925023233
15.9039422 ,Left ,66,4679033487148 ,44,2444804668785 ,71,6386925023233
15.9263545 ,Left ,66,3951312829942 ,44,294441096844 ,71,6714957244388
15.9263595 ,Left ,66,3951312829942 ,44,294441096844 ,71,6714957244388
15.9708924 ,Left ,66,4491199035461 ,44,238915235008 ,71,6751330027478
15.9708949 ,Left ,66,4491199035461 ,44,238915235008 ,71,6751330027478
15.993307 ,Left ,66,4446871658242 ,44,2362259245842 ,71,6885432088384
15.9933095 ,Left ,66,4446871658242 ,44,2362259245842 ,71,6885432088384
16.0085874 ,Left ,66,4377961021042 ,44,2546100791507 ,71,6820935028179
16.00859 ,Left ,66,4377961021042 ,44,2546100791507 ,71,6820935028179
16.0235805 ,Left ,66,4483005838186 ,44,2796837465857 ,71,6425877456739
16.0235831 ,Left ,66,4483005838186 ,44,2796837465857 ,71,6425877456739
16.0460807 ,Left ,66,5864852719843 ,44,3946905431108 ,71,5663931451394
16.0460841 ,Left ,66,5864852719843 ,44,3946905431108 ,71,5663931451394
16.0685616 ,Left ,66,5491212687803 ,44,5389180455866 ,71,5399993937487
16.0685647 ,Left ,66,5491212687803 ,44,5389180455866 ,71,5399993937487
16.091058 ,Left ,66,6492543205612 ,44,6333867621733 ,71,4580621495528
16.0910609 ,Left ,66,6492543205612 ,44,6333867621733 ,71,4580621495528
16.1135328 ,Left ,66,5227162342736 ,44,6825835692588 ,71,4481395234963
16.1135357 ,Left ,66,5227162342736 ,44,6825835692588 ,71,4481395234963
16.1358442 ,Left ,66,4976967642124 ,44,7081963837847 ,71,3959091121113
16.1358461 ,Left ,66,4976967642124 ,44,7081963837847 ,71,3959091121113
16.1507338 ,Left ,66,4928711515601 ,44,7376362352381 ,71,3487971297057
16.1507356 ,Left ,66,4928711515601 ,44,7376362352381 ,71,3487971297057
16.1959737 ,Left ,66,4460497255415 ,44,748535549335 ,71,2615425280282
16.1959796 ,Left ,66,4460497255415 ,44,748535549335 ,71,2615425280282
16.2186476 ,Left ,66,4040147324735 ,44,7534793672531 ,71,2230081762746
16.2186513 ,Left ,66,4040147324735 ,44,7534793672531 ,71,2230081762746
16.2716549 ,Left ,66,0661875280009 ,44,7066647340621 ,71,130128094867
16.2716627 ,Left ,66,0661875280009 ,44,7066647340621 ,71,130128094867
16.2866503 ,Left ,65,9757271819264 ,44,61178415329 ,71,1141997394212
16.2866582 ,Left ,65,9757271819264 ,44,61178415329 ,71,1141997394212
16.3015256 ,Left ,65,8578805248118 ,44,537868238027 ,71,0858612770358
16.3015335 ,Left ,65,8578805248118 ,44,537868238027 ,71,0858612770358
16.3237953 ,Left ,65,6467135072214 ,44,5163836104786 ,71,1243210325095
16.323801 ,Left ,65,6467135072214 ,44,5163836104786 ,71,1243210325095
16.3385649 ,Left ,65,5479356341081 ,44,6028056509308 ,71,1903554601398
16.3385704 ,Left ,65,5479356341081 ,44,6028056509308 ,71,1903554601398
16.3611787 ,Left ,65,571441592943 ,44,6994071155838 ,71,2472703859947
16.361184 ,Left ,65,571441592943 ,44,6994071155838 ,71,2472703859947
16.3837329 ,Left ,65,6825030434144 ,44,7218238070958 ,71,2781720432617
16.3837349 ,Left ,65,6825030434144 ,44,7218238070958 ,71,2781720432617
16.3983312 ,Left ,65,790438282547 ,44,6800168574224 ,71,2713965431262
16.3983332 ,Left ,65,790438282547 ,44,6800168574224 ,71,2713965431262
16.4207204 ,Left ,65,8730478034367 ,44,5778540489 ,71,2678684108674
16.4207221 ,Left ,65,8730478034367 ,44,5778540489 ,71,2678684108674
16.4432635 ,Left ,65,900024591124 ,44,4802578570391 ,71,2508458324408
16.4432653 ,Left ,65,900024591124 ,44,4802578570391 ,71,2508458324408
16.4585472 ,Left ,65,9214107321434 ,44,3758602469021 ,71,2293165968179
16.4585495 ,Left ,65,9214107321434 ,44,3758602469021 ,71,2293165968179
16.4810483 ,Left ,65,9882432355891 ,44,2616453353934 ,71,1940674743804
16.4810524 ,Left ,65,9882432355891 ,44,2616453353934 ,71,1940674743804
16.5036504 ,Left ,66,0663370597838 ,44,1671957172767 ,71,1547237825643
16.5036542 ,Left ,66,0663370597838 ,44,1671957172767 ,71,1547237825643
16.5260992 ,Left ,66,1141808690266 ,44,1019016556187 ,71,1292599546753
16.5261029 ,Left ,66,1141808690266 ,44,1019016556187 ,71,1292599546753
16.5486222 ,Left ,66,1564408275237 ,44,080656445727 ,71,1123941006429
16.5486259 ,Left ,66,1564408275237 ,44,080656445727 ,71,1123941006429
16.5785458 ,Left ,66,2467968014464 ,44,0985786443301 ,71,0853841059041
16.5785494 ,Left ,66,2467968014464 ,44,0985786443301 ,71,0853841059041
16.6011933 ,Left ,66,2085429983167 ,44,0758599264013 ,71,0867304593778
16.6011971 ,Left ,66,2085429983167 ,44,0758599264013 ,71,0867304593778
16.623475 ,Left ,66,182739864242 ,44,0397616086347 ,71,1012069362714
16.6234787 ,Left ,66,182739864242 ,44,0397616086347 ,71,1012069362714
16.6461837 ,Left ,66,0397641531349 ,44,021018944091 ,71,1456322309388
16.6461891 ,Left ,66,0397641531349 ,44,021018944091 ,71,1456322309388
16.6691335 ,Left ,65,964206754457 ,44,0766308290834 ,71,1282972201609
16.6691414 ,Left ,65,964206754457 ,44,0766308290834 ,71,1282972201609
16.6838786 ,Left ,66,0721373574627 ,44,0723859734938 ,71,1705750674586
16.6838862 ,Left ,66,0721373574627 ,44,0723859734938 ,71,1705750674586
16.7067194 ,Left ,66,2693169498783 ,44,1378838805825 ,71,1876509953024
16.706733 ,Left ,66,2693169498783 ,44,1378838805825 ,71,1876509953024
16.7285946 ,Left ,66,2963102899673 ,44,1976149418117 ,71,1814296829852
16.7285989 ,Left ,66,2963102899673 ,44,1976149418117 ,71,1814296829852
16.7435622 ,Left ,66,3092698817401 ,44,2104472731364 ,71,1720936421876
16.7435648 ,Left ,66,3092698817401 ,44,2104472731364 ,71,1720936421876
16.7661808 ,Left ,66,3858228941812 ,44,2311733492397 ,71,1654676134484
16.7661835 ,Left ,66,3858228941812 ,44,2311733492397 ,71,1654676134484
16.7883566 ,Left ,66,4491833665747 ,44,2708260326255 ,71,1421845449266
16.7883592 ,Left ,66,4491833665747 ,44,2708260326255 ,71,1421845449266
16.8035082 ,Left ,66,5063651584118 ,44,3125863232755 ,71,1247079813505
16.8035109 ,Left ,66,5063651584118 ,44,3125863232755 ,71,1247079813505
16.8261644 ,Left ,66,5727311598859 ,44,323106392108 ,71,1206261713079
16.8261676 ,Left ,66,5727311598859 ,44,323106392108 ,71,1206261713079
16.8486346 ,Left ,66,6694062840662 ,44,2992226245755 ,71,1345369870426
16.8486374 ,Left ,66,6694062840662 ,44,2992226245755 ,71,1345369870426
16.8635579 ,Left ,66,7810483746761 ,44,2470873550179 ,71,1618167053068
16.8635608 ,Left ,66,7810483746761 ,44,2470873550179 ,71,1618167053068
16.8861494 ,Left ,66,9009630468828 ,44,1859834997452 ,71,2033720460483
16.8861517 ,Left ,66,9009630468828 ,44,1859834997452 ,71,2033720460483
16.9085337 ,Left ,66,9949173544602 ,44,1345553887104 ,71,2389945256989
16.9085356 ,Left ,66,9949173544602 ,44,1345553887104 ,71,2389945256989
16.9235183 ,Left ,67,0666846112082 ,44,0923252574248 ,71,2821147776143
16.9235204 ,Left ,67,0666846112082 ,44,0923252574248 ,71,2821147776143
16.9460619 ,Left ,67,1518411354714 ,44,0666529022945 ,71,3379174492763
16.946064 ,Left ,67,1518411354714 ,44,0666529022945 ,71,3379174492763
16.9683997 ,Left ,67,2384229835555 ,44,0345728842882 ,71,4012123978625
16.9684018 ,Left ,67,2384229835555 ,44,0345728842882 ,71,4012123978625
16.9915399 ,Left ,67,2832594851878 ,43,9943709962826 ,71,4834267554518
16.9915482 ,Left ,67,2832594851878 ,43,9943709962826 ,71,4834267554518
17.0066017 ,Left ,67,3341674437158 ,43,9724630494976 ,71,5707118292543
17.0066163 ,Left ,67,3341674437158 ,43,9724630494976 ,71,5707118292543
17.0366763 ,Left ,67,3688229289708 ,43,9566639917457 ,71,6529672889315
17.0366841 ,Left ,67,3688229289708 ,43,9566639917457 ,71,6529672889315
17.0586199 ,Left ,67,4040032294535 ,43,9420235026367 ,71,7330849415191
17.0586254 ,Left ,67,4040032294535 ,43,9420235026367 ,71,7330849415191
17.0737408 ,Left ,67,4964269686259 ,43,9245486140689 ,71,8017923412622
17.0737451 ,Left ,67,4964269686259 ,43,9245486140689 ,71,8017923412622
17.0886412 ,Left ,67,5701554111531 ,43,9167408013847 ,71,8697880991225
17.0886501 ,Left ,67,5701554111531 ,43,9167408013847 ,71,8697880991225
17.1112081 ,Left ,67,6460121207009 ,43,9265913314759 ,71,9312309333781
17.1112125 ,Left ,67,6460121207009 ,43,9265913314759 ,71,9312309333781
17.1262833 ,Left ,67,6661350039512 ,43,9287063856829 ,71,9929993555053
17.1262876 ,Left ,67,6661350039512 ,43,9287063856829 ,71,9929993555053
17.1486767 ,Left ,67,6727033388536 ,43,9275038569141 ,72,0518710336413
17.148681 ,Left ,67,6727033388536 ,43,9275038569141 ,72,0518710336413
17.1712284 ,Left ,67,6887201042419 ,43,9151119297452 ,72,1050165971986
17.1712328 ,Left ,67,6887201042419 ,43,9151119297452 ,72,1050165971986
17.1861999 ,Left ,67,7029730920293 ,43,8943685893102 ,72,1434522249443
17.1862042 ,Left ,67,7029730920293 ,43,8943685893102 ,72,1434522249443
17.2085649 ,Left ,67,7200273990538 ,43,8763062654553 ,72,1742861140009
17.2085692 ,Left ,67,7200273990538 ,43,8763062654553 ,72,1742861140009
17.2238109 ,Left ,67,7444321466186 ,43,8693735934451 ,72,2099164994646
17.2238152 ,Left ,67,7444321466186 ,43,8693735934451 ,72,2099164994646
17.2538722 ,Left ,67,7552065145559 ,43,8662214041519 ,72,2463263530123
17.2538768 ,Left ,67,7552065145559 ,43,8662214041519 ,72,2463263530123
17.2758798 ,Left ,67,7482025051225 ,43,8421192618918 ,72,2891279730222
17.2758816 ,Left ,67,7482025051225 ,43,8421192618918 ,72,2891279730222
17.2908469 ,Left ,67,7570880915652 ,43,8137498226398 ,72,3290452730373
17.2908489 ,Left ,67,7570880915652 ,43,8137498226398 ,72,3290452730373
17.3134751 ,Left ,67,7664272713556 ,43,7938770460479 ,72,369948351561
17.3134776 ,Left ,67,7664272713556 ,43,7938770460479 ,72,369948351561
17.3358137 ,Left ,67,7586941014496 ,43,7843569997565 ,72,4068516311645
17.3358165 ,Left ,67,7586941014496 ,43,7843569997565 ,72,4068516311645
17.3584541 ,Left ,67,7689852662404 ,43,7817618139584 ,72,4401955107296
17.358457 ,Left ,67,7689852662404 ,43,7817618139584 ,72,4401955107296
17.3735763 ,Left ,67,7753319543166 ,43,780058824939 ,72,4791609716601
17.3735793 ,Left ,67,7753319543166 ,43,780058824939 ,72,4791609716601
17.3883566 ,Left ,67,7521553113264 ,43,7810912204944 ,72,5159058821276
17.3883593 ,Left ,67,7521553113264 ,43,7810912204944 ,72,5159058821276
17.4108707 ,Left ,67,7433612279897 ,43,7774203838719 ,72,555372034835
17.4108733 ,Left ,67,7433612279897 ,43,7774203838719 ,72,555372034835
17.4259873 ,Left ,67,7339895153933 ,43,7820938361336 ,72,6024676450244
17.4259908 ,Left ,67,7339895153933 ,43,7820938361336 ,72,6024676450244
17.4483663 ,Left ,67,7137277194026 ,43,7851916746077 ,72,6513451642153
17.4483682 ,Left ,67,7137277194026 ,43,7851916746077 ,72,6513451642153
17.4709307 ,Left ,67,7026301912563 ,43,7887875335784 ,72,686933609908
17.470933 ,Left ,67,7026301912563 ,43,7887875335784 ,72,686933609908
17.4861244 ,Left ,67,713763298366 ,43,7862017494215 ,72,703699179289
17.4861285 ,Left ,67,713763298366 ,43,7862017494215 ,72,703699179289
17.5086412 ,Left ,67,7158087154715 ,43,7866146453287 ,72,7081688467129
17.5086445 ,Left ,67,7158087154715 ,43,7866146453287 ,72,7081688467129
17.5310372 ,Left ,67,6975691920915 ,43,7751020442139 ,72,7125810624757
17.5310404 ,Left ,67,6975691920915 ,43,7751020442139 ,72,7125810624757
17.5458986 ,Left ,67,6926250550271 ,43,7726225813599 ,72,7231218618372
17.5459027 ,Left ,67,6926250550271 ,43,7726225813599 ,72,7231218618372
17.5689057 ,Left ,67,6685733990323 ,43,7831361799935 ,72,7367829609642
17.5689178 ,Left ,67,6685733990323 ,43,7831361799935 ,72,7367829609642
17.5916558 ,Left ,67,6372654346063 ,43,795741853586 ,72,7447009181268
17.5916638 ,Left ,67,6372654346063 ,43,795741853586 ,72,7447009181268
17.6141752 ,Left ,67,6322661578756 ,43,8055015918946 ,72,7373406190705
17.614183 ,Left ,67,6322661578756 ,43,8055015918946 ,72,7373406190705
17.6289945 ,Left ,67,6388495017292 ,43,8106408107178 ,72,725266391946
17.6290021 ,Left ,67,6388495017292 ,43,8106408107178 ,72,725266391946
17.65893 ,Left ,67,5796140372832 ,43,8333606504684 ,72,7005774961689
17.6589376 ,Left ,67,5796140372832 ,43,8333606504684 ,72,7005774961689
17.6813651 ,Left ,67,5416615902133 ,43,8397267982259 ,72,6858622027685
17.681373 ,Left ,67,5416615902133 ,43,8397267982259 ,72,6858622027685
17.7186008 ,Left ,67,4994153921347 ,43,8328979177739 ,72,6427722040518
17.7186039 ,Left ,67,4994153921347 ,43,8328979177739 ,72,6427722040518
17.7410052 ,Left ,67,4720195078092 ,43,8233083936256 ,72,6179694836297
17.7410082 ,Left ,67,4720195078092 ,43,8233083936256 ,72,6179694836297
17.7783383 ,Left ,67,3583160621937 ,43,8000082920381 ,72,5548776333474
17.7783401 ,Left ,67,3583160621937 ,43,8000082920381 ,72,5548776333474
17.8008928 ,Left ,67,2944625163898 ,43,7825575595112 ,72,5303491288593
17.8008951 ,Left ,67,2944625163898 ,43,7825575595112 ,72,5303491288593
17.8384305 ,Left ,67,2805184853227 ,43,7246672380853 ,72,4904457957592
17.8384326 ,Left ,67,2805184853227 ,43,7246672380853 ,72,4904457957592
17.8610269 ,Left ,67,2002859966904 ,43,6501238686255 ,72,4642206199129
17.8610293 ,Left ,67,2002859966904 ,43,6501238686255 ,72,4642206199129
17.8833593 ,Left ,66,8895575066602 ,43,5736928845765 ,72,4991566127206
17.8833611 ,Left ,66,8895575066602 ,43,5736928845765 ,72,4991566127206
17.8982676 ,Left ,66,9901004997827 ,43,8019197174477 ,72,5614644188808
17.8982696 ,Left ,66,9901004997827 ,43,8019197174477 ,72,5614644188808
17.9208769 ,Left ,67,1581497784709 ,43,7334787603101 ,72,6044150608306
17.9208792 ,Left ,67,1581497784709 ,43,7334787603101 ,72,6044150608306
17.9433858 ,Left ,67,2494920664221 ,44,009011731243 ,72,5835750526635
17.9433885 ,Left ,67,2494920664221 ,44,009011731243 ,72,5835750526635
17.9586804 ,Left ,67,2214088633085 ,43,8668994904413 ,72,55854486183
17.9586837 ,Left ,67,2214088633085 ,43,8668994904413 ,72,55854486183
17.9809936 ,Left ,67,2730325421366 ,44,0829133463225 ,72,4897758289757
17.9809969 ,Left ,67,2730325421366 ,44,0829133463225 ,72,4897758289757
18.0035522 ,Left ,67,205374161867 ,43,8916882483935 ,72,4366293634042
18.0035553 ,Left ,67,205374161867 ,43,8916882483935 ,72,4366293634042
18.0186671 ,Left ,67,2342458007905 ,44,0538693056959 ,72,3445680249988
18.0186703 ,Left ,67,2342458007905 ,44,0538693056959 ,72,3445680249988
18.0409401 ,Left ,67,1648183295624 ,43,849055733258 ,72,2546337366261
18.0409434 ,Left ,67,1648183295624 ,43,849055733258 ,72,2546337366261
18.0635522 ,Left ,67,1107811761479 ,44,0353381998823 ,72,1660906710267
18.0635555 ,Left ,67,1107811761479 ,44,0353381998823 ,72,1660906710267
18.0786609 ,Left ,67,0616552315429 ,43,8279252118481 ,72,0964134055963
18.0786642 ,Left ,67,0616552315429 ,43,8279252118481 ,72,0964134055963
18.1008113 ,Left ,67,0838466933473 ,43,9530488722491 ,72,0247488263243
18.1008131 ,Left ,67,0838466933473 ,43,9530488722491 ,72,0247488263243
18.1239162 ,Left ,67,0197543999584 ,43,9299111776816 ,71,995793352944
18.1239239 ,Left ,67,0197543999584 ,43,9299111776816 ,71,995793352944
18.1390571 ,Left ,66,9641709299074 ,43,8284756170012 ,71,9789676486605
18.1390649 ,Left ,66,9641709299074 ,43,8284756170012 ,71,9789676486605
18.1615002 ,Left ,66,8769106713811 ,43,787743290468 ,71,9813498679433
18.161508 ,Left ,66,8769106713811 ,43,787743290468 ,71,9813498679433
18.1835931 ,Left ,66,7486637043602 ,43,7939765320667 ,71,9866254706472
18.1835958 ,Left ,66,7486637043602 ,43,7939765320667 ,71,9866254706472
18.1985267 ,Left ,66,6236315398092 ,43,7902361434259 ,71,9626234199675
18.1985291 ,Left ,66,6236315398092 ,43,7902361434259 ,71,9626234199675
18.2282408 ,Left ,66,6606107274645 ,43,7375252299421 ,71,972894931997
18.2282428 ,Left ,66,6606107274645 ,43,7375252299421 ,71,972894931997
18.2516342 ,Left ,66,7396367814406 ,43,756714438103 ,71,9568121858472
18.251642 ,Left ,66,7396367814406 ,43,756714438103 ,71,9568121858472
18.2664493 ,Left ,66,7191556144494 ,43,7568473849526 ,71,9111837776649
18.2664569 ,Left ,66,7191556144494 ,43,7568473849526 ,71,9111837776649
18.2814302 ,Left ,66,7542394044838 ,43,7062177850945 ,71,8658646958032
18.281442 ,Left ,66,7542394044838 ,43,7062177850945 ,71,8658646958032
18.318861 ,Left ,66,5812472133324 ,43,7549554156279 ,71,816342394247
18.3188665 ,Left ,66,5812472133324 ,43,7549554156279 ,71,816342394247
18.3411447 ,Left ,66,3808061184146 ,43,712982531893 ,71,8198481899778
18.3411478 ,Left ,66,3808061184146 ,43,712982531893 ,71,8198481899778
18.3783787 ,Left ,66,2729961845233 ,43,6421320902828 ,71,7935430175281
18.3783814 ,Left ,66,2729961845233 ,43,6421320902828 ,71,7935430175281
18.4008586 ,Left ,66,3892466398519 ,43,7629978561757 ,71,8153158783116
18.4008612 ,Left ,66,3892466398519 ,43,7629978561757 ,71,8153158783116
18.4384437 ,Left ,66,4579101454198 ,43,893971664822 ,71,8780243062694
18.4384459 ,Left ,66,4579101454198 ,43,893971664822 ,71,8780243062694
18.4608625 ,Left ,66,5670072459589 ,43,9185481378395 ,71,896214487778
18.4608646 ,Left ,66,5670072459589 ,43,9185481378395 ,71,896214487778
18.4983284 ,Left ,66,4991064954502 ,43,9928178743055 ,71,9611189403499
18.4983304 ,Left ,66,4991064954502 ,43,9928178743055 ,71,9611189403499
18.5207404 ,Left ,66,3853665017718 ,44,0168947244393 ,71,9825136906097
18.5207422 ,Left ,66,3853665017718 ,44,0168947244393 ,71,9825136906097
18.558589 ,Left ,66,3063547607473 ,44,0176504316383 ,72,0396814046007
18.5585914 ,Left ,66,3063547607473 ,44,0176504316383 ,72,0396814046007
18.5807405 ,Left ,66,2560463077386 ,44,0213374881967 ,72,0779059024665
18.5807423 ,Left ,66,2560463077386 ,44,0213374881967 ,72,0779059024665
18.6185384 ,Left ,66,0485045649451 ,43,982245582846 ,72,0926133052165
18.6185405 ,Left ,66,0485045649451 ,43,982245582846 ,72,0926133052165
18.6410583 ,Left ,66,0879330645489 ,44,032229445293 ,72,1129644350933
18.6410611 ,Left ,66,0879330645489 ,44,032229445293 ,72,1129644350933
18.6791029 ,Left ,66,3980291093983 ,44,304070080295 ,72,0806229782368
18.6791108 ,Left ,66,3980291093983 ,44,304070080295 ,72,0806229782368
18.7016858 ,Left ,66,4938050553377 ,44,3453643626005 ,72,0751876160804
18.7016937 ,Left ,66,4938050553377 ,44,3453643626005 ,72,0751876160804
18.7389561 ,Left ,66,6033514296137 ,44,3504906248629 ,72,0516872329165
18.73897 ,Left ,66,6033514296137 ,44,3504906248629 ,72,0516872329165
18.761666 ,Left ,66,6441719206233 ,44,3488163383091 ,72,0221335256884
18.7616744 ,Left ,66,6441719206233 ,44,3488163383091 ,72,0221335256884
18.7987431 ,Left ,66,6908986462643 ,44,3442156660203 ,71,9284661832657
18.7987475 ,Left ,66,6908986462643 ,44,3442156660203 ,71,9284661832657
18.8286002 ,Left ,66,704806540742 ,44,3467514340649 ,71,8953723107813
18.8286032 ,Left ,66,704806540742 ,44,3467514340649 ,71,8953723107813
18.8886522 ,Left ,66,8341092114096 ,44,3351130354342 ,71,8738408351299
18.8886549 ,Left ,66,8341092114096 ,44,3351130354342 ,71,8738408351299
18.9258664 ,Left ,66,936959480648 ,44,2773936734891 ,71,8702308208696
18.9258687 ,Left ,66,936959480648 ,44,2773936734891 ,71,8702308208696
18.9409552 ,Left ,66,9529557568945 ,44,2591880084716 ,71,8635849008907
18.9409586 ,Left ,66,9529557568945 ,44,2591880084716 ,71,8635849008907
18.9786958 ,Left ,67,0290712758708 ,44,2342583799896 ,71,8375999498939
18.9786999 ,Left ,67,0290712758708 ,44,2342583799896 ,71,8375999498939
19.0010837 ,Left ,67,0780080634174 ,44,2181350128646 ,71,8166296290582
19.001088 ,Left ,67,0780080634174 ,44,2181350128646 ,71,8166296290582
19.0384435 ,Left ,67,1580958401987 ,44,2151921564175 ,71,7896575894202
19.0384474 ,Left ,67,1580958401987 ,44,2151921564175 ,71,7896575894202
19.060998 ,Left ,67,1317884041244 ,44,2308026534663 ,71,7722035729583
19.061002 ,Left ,67,1317884041244 ,44,2308026534663 ,71,7722035729583
19.0762819 ,Left ,67,1185878390979 ,44,2449126563106 ,71,7390102218765
19.076286 ,Left ,67,1185878390979 ,44,2449126563106 ,71,7390102218765
19.0987621 ,Left ,67,1344826903796 ,44,2564330721769 ,71,6913715028908
19.0987662 ,Left ,67,1344826903796 ,44,2564330721769 ,71,6913715028908
19.121222 ,Left ,67,1324127228645 ,44,2740334592901 ,71,644197795266
19.1212262 ,Left ,67,1324127228645 ,44,2740334592901 ,71,644197795266
19.1661429 ,Left ,67,1715950595297 ,44,3587003744369 ,71,5276383914211
19.166147 ,Left ,67,1715950595297 ,44,3587003744369 ,71,5276383914211
19.1885183 ,Left ,66,9684536541995 ,44,293177818573 ,71,5421972285457
19.1885224 ,Left ,66,9684536541995 ,44,293177818573 ,71,5421972285457
19.2185412 ,Left ,66,9764225750186 ,44,5250731271291 ,71,417973764813
19.2185454 ,Left ,66,9764225750186 ,44,5250731271291 ,71,417973764813
19.2411278 ,Left ,66,7859466704341 ,44,5407044370672 ,71,4218829941982
19.241132 ,Left ,66,7859466704341 ,44,5407044370672 ,71,4218829941982
19.2861701 ,Left ,66,6441332868275 ,44,2670375197881 ,71,3109896689092
19.2861795 ,Left ,66,6441332868275 ,44,2670375197881 ,71,3109896689092
19.3087659 ,Left ,66,7578712400085 ,44,3880334816296 ,71,2003021960086
19.3087701 ,Left ,66,7578712400085 ,44,3880334816296 ,71,2003021960086
19.3460738 ,Left ,66,7369539276834 ,44,4136910874913 ,71,0676081064595
19.3460816 ,Left ,66,7369539276834 ,44,4136910874913 ,71,0676081064595
19.3682979 ,Left ,66,6344447949515 ,44,4005088535082 ,71,040350082733
19.3682996 ,Left ,66,6344447949515 ,44,4005088535082 ,71,040350082733
19.398563 ,Left ,66,3117265590688 ,44,4159714982703 ,71,0514060817369
19.3985654 ,Left ,66,3117265590688 ,44,4159714982703 ,71,0514060817369
19.4286418 ,Left ,66,1573912600601 ,44,4225430948908 ,71,014405189405
19.4286455 ,Left ,66,1573912600601 ,44,4225430948908 ,71,014405189405
19.4583482 ,Left ,66,0954291218186 ,44,2431790541703 ,71,1807861247766
19.4583503 ,Left ,66,0954291218186 ,44,2431790541703 ,71,1807861247766
19.480912 ,Left ,65,9986642890531 ,44,2216152505511 ,71,2508894511853
19.4809141 ,Left ,65,9986642890531 ,44,2216152505511 ,71,2508894511853
19.5190182 ,Left ,66,2165464259058 ,44,145351608854 ,71,3051584608428
19.5190261 ,Left ,66,2165464259058 ,44,145351608854 ,71,3051584608428
19.5415429 ,Left ,66,2647912282285 ,44,0971924923326 ,71,3253709698523
19.5415506 ,Left ,66,2647912282285 ,44,0971924923326 ,71,3253709698523
19.5862672 ,Left ,66,3077175379051 ,43,9495791267554 ,71,3089359145777
19.586279 ,Left ,66,3077175379051 ,43,9495791267554 ,71,3089359145777
19.608523 ,Left ,66,2966551489118 ,43,814001869543 ,71,3023582870774
19.6085272 ,Left ,66,2966551489118 ,43,814001869543 ,71,3023582870774
19.6461803 ,Left ,66,2707258543357 ,43,720935647036 ,71,2985375745206
19.6461846 ,Left ,66,2707258543357 ,43,720935647036 ,71,2985375745206
19.6686112 ,Left ,66,1880754062414 ,43,7150957394446 ,71,302567711098
19.6686153 ,Left ,66,1880754062414 ,43,7150957394446 ,71,302567711098
19.6987711 ,Left ,66,1666961681801 ,43,6300204721488 ,71,3296871943362
19.6987755 ,Left ,66,1666961681801 ,43,6300204721488 ,71,3296871943362
19.7286717 ,Left ,66,1428390359813 ,43,5811169167048 ,71,3658965201381
19.7286796 ,Left ,66,1428390359813 ,43,5811169167048 ,71,3658965201381
19.7810138 ,Left ,65,9990746588876 ,43,5372659498102 ,71,380112860378
19.7810174 ,Left ,65,9990746588876 ,43,5372659498102 ,71,380112860378
19.8185945 ,Left ,65,8225806460915 ,43,5745175062134 ,71,3862669685441
19.8185981 ,Left ,65,8225806460915 ,43,5745175062134 ,71,3862669685441
19.8411657 ,Left ,65,8299718738089 ,43,5963851833786 ,71,4130512063975
19.8411693 ,Left ,65,8299718738089 ,43,5963851833786 ,71,4130512063975
19.8787363 ,Left ,65,952384755732 ,43,8534771124197 ,71,4552882058954
19.8787399 ,Left ,65,952384755732 ,43,8534771124197 ,71,4552882058954
19.9011311 ,Left ,65,9625428970444 ,43,9137740193984 ,71,4522941299101
19.9011346 ,Left ,65,9625428970444 ,43,9137740193984 ,71,4522941299101
19.9536341 ,Left ,66,0914166835792 ,43,9085874637097 ,71,4056896033307
19.9536376 ,Left ,66,0914166835792 ,43,9085874637097 ,71,4056896033307
20.005999 ,Left ,66,2924998110621 ,44,0034071486167 ,71,4048778301219
20.0060026 ,Left ,66,2924998110621 ,44,0034071486167 ,71,4048778301219
20.0282843 ,Left ,66,3943399955942 ,43,9881254889763 ,71,4013367834306
20.0282861 ,Left ,66,3943399955942 ,43,9881254889763 ,71,4013367834306
20.0584869 ,Left ,66,5314377971321 ,43,9527812428252 ,71,4276890461449
20.0584892 ,Left ,66,5314377971321 ,43,9527812428252 ,71,4276890461449
20.073342 ,Left ,66,5453714552909 ,43,9533023268929 ,71,4639895805255
20.0733442 ,Left ,66,5453714552909 ,43,9533023268929 ,71,4639895805255
20.096178 ,Left ,66,5831828082748 ,43,940902609725 ,71,5045477796703
20.0961809 ,Left ,66,5831828082748 ,43,940902609725 ,71,5045477796703
20.1260734 ,Left ,66,6681532151373 ,43,9170896996585 ,71,5379105187564
20.1260758 ,Left ,66,6681532151373 ,43,9170896996585 ,71,5379105187564
20.1414855 ,Left ,66,7396338178673 ,43,8708877929538 ,71,5603507738264
20.1414932 ,Left ,66,7396338178673 ,43,8708877929538 ,71,5603507738264
20.1642657 ,Left ,66,8016663790008 ,43,8069662379731 ,71,594418911489
20.1642734 ,Left ,66,8016663790008 ,43,8069662379731 ,71,594418911489
20.1792313 ,Left ,66,840003566184 ,43,7504647759211 ,71,6380548384476
20.1792409 ,Left ,66,840003566184 ,43,7504647759211 ,71,6380548384476
20.1942106 ,Left ,66,8648631366788 ,43,7112708366674 ,71,6794714965126
20.1942185 ,Left ,66,8648631366788 ,43,7112708366674 ,71,6794714965126
20.2165492 ,Left ,66,9164374957148 ,43,6847647586338 ,71,7219990394602
20.216557 ,Left ,66,9164374957148 ,43,6847647586338 ,71,7219990394602
20.2388832 ,Left ,66,9868391369231 ,43,6738016334506 ,71,7648099500856
20.2388887 ,Left ,66,9868391369231 ,43,6738016334506 ,71,7648099500856
20.2535679 ,Left ,67,0589940149906 ,43,6511610695406 ,71,8194057077923
20.2535719 ,Left ,67,0589940149906 ,43,6511610695406 ,71,8194057077923
20.2834563 ,Left ,67,1074127539099 ,43,617242158487 ,71,8880081727537
20.2834583 ,Left ,67,1074127539099 ,43,617242158487 ,71,8880081727537
20.3059021 ,Left ,67,1349657315231 ,43,5975590502076 ,71,9706364604807
20.3059039 ,Left ,67,1349657315231 ,43,5975590502076 ,71,9706364604807
20.3208234 ,Left ,67,1338539438759 ,43,5939592384045 ,72,0586682680399
20.3208251 ,Left ,67,1338539438759 ,43,5939592384045 ,72,0586682680399
20.335878 ,Left ,67,1488868563567 ,43,5828351711145 ,72,1419478968728
20.33588 ,Left ,67,1488868563567 ,43,5828351711145 ,72,1419478968728
20.3586305 ,Left ,67,2054247818542 ,43,5747336198271 ,72,2205709822719
20.3586331 ,Left ,67,2054247818542 ,43,5747336198271 ,72,2205709822719
20.3736662 ,Left ,67,2476797984671 ,43,5551418703909 ,72,2929025947183
