timestamp,event,roll,pitch,yaw
0.0261208 ,Left ,64,1348996829557 ,46,9141660377917 ,55,3938477396502
0.0487711 ,Left ,64,1354857305154 ,46,9484846570222 ,55,3500663683916
0.0713477 ,Left ,64,1609310428428 ,46,9892742478078 ,55,3133125866776
0.0862126 ,Left ,64,1995027924269 ,47,0341489653334 ,55,3069761793639
0.1089182 ,Left ,64,2343366977567 ,47,0815451754332 ,55,3378791441297
0.1312124 ,Left ,64,257459983086 ,47,1324939736241 ,55,3965524991204
0.1462346 ,Left ,64,2734644067599 ,47,1722962354332 ,55,4683768440404
0.1687474 ,Left ,64,292665101503 ,47,1874915600848 ,55,5439389560958
0.1913486 ,Left ,64,3143310252276 ,47,1836181059847 ,55,6175679402254
0.2062375 ,Left ,64,3230674692172 ,47,1703188377661 ,55,6886625837511
0.2287886 ,Left ,64,3342122774159 ,47,1566146293927 ,55,7375470635598
0.2511563 ,Left ,64,3199385418215 ,47,1307932690867 ,55,7790577326182
0.2661637 ,Left ,64,2887118229726 ,47,1026039832286 ,55,8143702521903
0.2887211 ,Left ,64,2906735904438 ,47,0667815408511 ,55,8289567009013
0.311106 ,Left ,64,2666233373891 ,47,0223682122562 ,55,8371664990093
0.3260708 ,Left ,64,2450457018392 ,46,9784162188267 ,55,8435631721104
0.3492609 ,Left ,64,2210564005209 ,46,9508446792949 ,55,8530487565661
0.3714813 ,Left ,64,2011922180571 ,46,9544516207958 ,55,863516861308
0.3862098 ,Left ,64,1912670975267 ,46,9633841046864 ,55,8721439807554
0.4089781 ,Left ,64,2043330296521 ,46,9787073447926 ,55,8924318941049
0.4310875 ,Left ,64,2140734902458 ,47,0000022942319 ,55,9201577242713
0.4463069 ,Left ,64,2168092990997 ,47,0198954469987 ,55,9582676212347
0.4688738 ,Left ,64,2429990800522 ,47,0611743436507 ,55,9864705732533
0.4911476 ,Left ,64,2675983381933 ,47,0920748611336 ,55,9875810174982
0.5065178 ,Left ,64,2672667465085 ,47,1054665596953 ,55,9782268869288
0.52919 ,Left ,64,2650117589899 ,47,1218497417173 ,55,9723969257791
0.5510869 ,Left ,64,2701921366054 ,47,1564203871099 ,55,9708513559961
0.5661951 ,Left ,64,2638051194576 ,47,1886979146355 ,55,9703451832565
0.5887502 ,Left ,64,2804186470567 ,47,2121739589773 ,55,9679311774265
0.6116741 ,Left ,64,2973783056904 ,47,2223343854715 ,55,9483106264134
0.6267971 ,Left ,64,2962714868412 ,47,2279436961954 ,55,9422654931024
0.6487994 ,Left ,64,2988707789005 ,47,2477988315877 ,55,9446916934425
0.6711751 ,Left ,64,3000944510776 ,47,2822607592387 ,55,958974607282
0.6862897 ,Left ,64,2881831301145 ,47,3066565713758 ,55,9724997676276
0.7089539 ,Left ,64,3033297205508 ,47,3046328945194 ,55,9826446705034
0.7314571 ,Left ,64,3009249338233 ,47,2882479338718 ,55,9772160940103
0.7464756 ,Left ,64,2874581650608 ,47,2704718993759 ,55,9623944005649
0.769213 ,Left ,64,2799629167448 ,47,2523091711983 ,55,9492068088735
0.7914267 ,Left ,64,2924726021433 ,47,2322277148568 ,55,9354024464818
0.8139671 ,Left ,64,2838293535486 ,47,1903152352631 ,55,9266764315902
0.8290676 ,Left ,64,2876963852409 ,47,1398901469549 ,55,9298091640628
0.8515995 ,Left ,64,2901461377837 ,47,0958712134984 ,55,9469577030413
0.8742014 ,Left ,64,2890651277999 ,47,0426800604261 ,55,9843498738913
0.8891365 ,Left ,64,2704343477021 ,46,9919158540538 ,56,0118062429383
0.9114272 ,Left ,64,2334206512726 ,46,9820331841072 ,56,0273710619327
0.9340836 ,Left ,64,1272485322284 ,46,9728836648573 ,56,0699751066426
0.9490074 ,Left ,64,0779837564707 ,46,9986508462513 ,56,1621561141169
0.9715036 ,Left ,64,0324486824065 ,47,0790482030468 ,56,2564879165044
0.993974 ,Left ,64,0322275078313 ,47,2013401080413 ,56,3147193284094
1.008606 ,Left ,64,0337134652765 ,47,3061062058797 ,56,3184203295144
1.0311387 ,Left ,64,0410455967881 ,47,355954042599 ,56,2790818320205
1.0545241 ,Left ,64,0441769249306 ,47,3647690276957 ,56,2102275052626
1.0693442 ,Left ,64,0160280739536 ,47,3590146969031 ,56,1189091992221
1.0920151 ,Left ,64,0127538228019 ,47,3596946018117 ,56,0150144314628
1.1143592 ,Left ,63,9671722834679 ,47,3521480457381 ,55,8857189092383
1.1291623 ,Left ,63,9427394917348 ,47,2925791829119 ,55,7768553809821
1.1515006 ,Left ,63,9420119922387 ,47,1963789329858 ,55,7284192553282
1.1737452 ,Left ,63,9593978604864 ,47,0991050293529 ,55,7149637258934
1.1886852 ,Left ,63,9749771534194 ,47,0863898472528 ,55,7021683555993
1.2113668 ,Left ,63,9989061353565 ,47,0987920108243 ,55,6789589445991
1.2337441 ,Left ,64,0371696664026 ,47,1036635647373 ,55,7009525456193
1.2490121 ,Left ,64,0570037311587 ,47,1180879207109 ,55,7342112506525
1.2712491 ,Left ,64,0901411378589 ,47,1681317577829 ,55,7723942899386
1.2945258 ,Left ,64,0402795626288 ,47,2209606309848 ,55,8167481142048
1.3095182 ,Left ,64,0551807930998 ,47,2337768321901 ,55,9042509214296
1.3320145 ,Left ,64,0924734454711 ,47,2147495160208 ,55,9753302339302
1.354394 ,Left ,64,0703020271926 ,47,2882679073172 ,55,9913690794633
1.3691499 ,Left ,64,0108460797199 ,47,4051831418176 ,55,9895628958665
1.3914892 ,Left ,64,005143374261 ,47,497801604899 ,56,0075378346867
1.4143308 ,Left ,63,9784937332086 ,47,6069296878064 ,56,0243021234493
1.4288543 ,Left ,63,9261639548382 ,47,7483665916468 ,56,035266497033
1.4510637 ,Left ,63,8633754460145 ,47,8783875789229 ,56,0425002955387
1.4738771 ,Left ,63,818878307424 ,47,9677980709235 ,56,0535137873004
1.4890968 ,Left ,63,8017772446671 ,48,0451619296574 ,56,0730294820585
1.5110717 ,Left ,63,7765365424602 ,48,09095488388 ,56,0841333064193
1.5337147 ,Left ,63,7541518114569 ,48,0451283558325 ,56,1088121880176
1.5562279 ,Left ,63,7153493185982 ,47,9152678368807 ,56,1217393840336
1.5712892 ,Left ,63,691228454329 ,47,8105345735245 ,56,1158203183899
1.5938305 ,Left ,63,6422653137627 ,47,7954870355956 ,56,0927873536816
1.6165214 ,Left ,63,6326109839263 ,47,830271254624 ,56,0971019729914
1.6313196 ,Left ,63,6899747667537 ,47,8778805387786 ,56,1352647536444
1.6537408 ,Left ,63,8071858540967 ,47,9022144766254 ,56,1841513436427
1.6765624 ,Left ,63,9350298551114 ,47,9089354616973 ,56,228019792938
1.6912061 ,Left ,63,9860535623049 ,47,9345685159272 ,56,2368745655798
1.7138978 ,Left ,64,0142832679119 ,47,9658560377432 ,56,2076644977994
1.7365814 ,Left ,64,0396589625133 ,47,9932757818885 ,56,1572065480351
1.7510543 ,Left ,64,0471312411235 ,48,0239517993716 ,56,0856408284441
1.7739466 ,Left ,64,0528376427865 ,48,0301718386239 ,56,0246516735542
1.7962986 ,Left ,64,053668394741 ,48,0062617668118 ,55,9562857062681
1.8112445 ,Left ,64,0658537050107 ,47,9695811902091 ,55,8780235320887
1.8337514 ,Left ,64,0605248159462 ,47,9350950486736 ,55,7848226925983
1.8565105 ,Left ,64,075589684131 ,47,9014399525074 ,55,7033951047816
1.871525 ,Left ,64,0909320021581 ,47,8786543783179 ,55,6359923873089
1.8943505 ,Left ,64,0918283142254 ,47,8654311728167 ,55,5723599754299
1.9167414 ,Left ,64,0697635268673 ,47,8579379479201 ,55,4937780629209
1.9314121 ,Left ,64,0537241675489 ,47,8590604902411 ,55,4129549738904
1.9540208 ,Left ,64,0256160144375 ,47,8557926309451 ,55,3318694980913
1.9767633 ,Left ,64,0107223836493 ,47,8335760931055 ,55,2621223619557
1.9916037 ,Left ,63,9815428337884 ,47,7997279044071 ,55,2089382653171
2.0137438 ,Left ,63,9224161356411 ,47,7313593307678 ,55,1818008831567
2.0364237 ,Left ,63,9020445901778 ,47,6466207286663 ,55,2083058748531
2.0510534 ,Left ,63,9332251425151 ,47,5978545750762 ,55,2432104603353
2.0738726 ,Left ,64,0109179798887 ,47,6222011909602 ,55,245757804916
2.0964507 ,Left ,64,0816686559014 ,47,6238345472062 ,55,2447236916755
2.1112992 ,Left ,64,188797948478 ,47,5531849543612 ,55,2603981378384
2.1341025 ,Left ,64,2568565363568 ,47,4465387225948 ,55,2680021581128
2.1563467 ,Left ,64,3191877784618 ,47,3813867333464 ,55,2372224929287
2.1714644 ,Left ,64,334372873151 ,47,3293290518257 ,55,1901480447154
2.1937223 ,Left ,64,3601367457456 ,47,2642482784549 ,55,161730366318
2.2163492 ,Left ,64,4238404878976 ,47,2273237476317 ,55,1611962909109
2.2390133 ,Left ,64,4545787463553 ,47,2418168402985 ,55,1546867704474
2.2612448 ,Left ,64,4420805851873 ,47,2456682895799 ,55,1523789486577
2.2914275 ,Left ,64,4046666421425 ,47,1748943867446 ,55,1254516556508
2.3138233 ,Left ,64,4548959988693 ,47,0403617322373 ,55,1204292068428
2.3365346 ,Left ,64,4712207789109 ,46,9569981985939 ,55,1625845183669
2.3512854 ,Left ,64,4438327066134 ,47,0275652598134 ,55,2124031240691
2.3740503 ,Left ,64,4692408337361 ,47,1319703867542 ,55,2417355640772
2.3964747 ,Left ,64,5329785550469 ,47,2007965745749 ,55,2697350296654
2.4114605 ,Left ,64,5978134285871 ,47,2411729098322 ,55,2798838500548
2.4340149 ,Left ,64,6138797320539 ,47,2640294758307 ,55,2885763339197
2.4566662 ,Left ,64,6027679958297 ,47,2621918983038 ,55,3101307506098
2.4714759 ,Left ,64,5892695158476 ,47,2420855345566 ,55,3428566277474
2.4941062 ,Left ,64,573030682154 ,47,2045680002171 ,55,389171587267
2.51716 ,Left ,64,5552189778592 ,47,1574660610482 ,55,4463638163114
2.5314931 ,Left ,64,5267447175895 ,47,0953874389831 ,55,5123244212089
2.5540033 ,Left ,64,5069246255514 ,47,0318483832328 ,55,577763640315
2.5761353 ,Left ,64,4926300406567 ,46,9762623861768 ,55,6382855189128
2.5913705 ,Left ,64,4667220798506 ,46,9190998272241 ,55,7116146118536
2.6136838 ,Left ,64,4443210165658 ,46,8443526910603 ,55,7874571472088
2.6363209 ,Left ,64,459975095052 ,46,7705276831622 ,55,8704267330059
2.6590001 ,Left ,64,4869768112308 ,46,7097311176813 ,55,9399021663782
2.6740171 ,Left ,64,4870692254516 ,46,6673871904347 ,55,9845133239951
2.6966506 ,Left ,64,4856695340051 ,46,6441819496719 ,56,0137696873652
2.7190819 ,Left ,64,4916532685376 ,46,6410111570417 ,56,0345432697031
2.7336241 ,Left ,64,4972526903226 ,46,6495587820933 ,56,0497854578823
2.7563422 ,Left ,64,501353743966 ,46,6476642451068 ,56,0690654241943
2.7790173 ,Left ,64,548836019872 ,46,6348450226785 ,56,0804880943244
2.7939947 ,Left ,64,5618110107224 ,46,6179333012654 ,56,0900700209586
2.8165929 ,Left ,64,5697890516493 ,46,6127682967897 ,56,0918266554026
2.8392658 ,Left ,64,5654419043691 ,46,6270119439093 ,56,0922033706718
2.8541167 ,Left ,64,5385273186322 ,46,6438377978231 ,56,0846216161023
2.8765389 ,Left ,64,5110274468762 ,46,6553252796764 ,56,0881387414018
2.8991337 ,Left ,64,5212298631705 ,46,6489064188078 ,56,0871585495167
2.9140217 ,Left ,64,5258862759823 ,46,6338146155785 ,56,0844652746913
2.9365975 ,Left ,64,5064746491582 ,46,6048543742338 ,56,0688585482147
2.9593489 ,Left ,64,4802121682045 ,46,575476338727 ,56,0440574514689
2.9740008 ,Left ,64,4549812636041 ,46,5690219868397 ,56,0166791442735
2.9962767 ,Left ,64,4596483071477 ,46,5810937677517 ,55,9731853447058
3.0190546 ,Left ,64,4602436262207 ,46,5848545404512 ,55,9388476657129
3.0342885 ,Left ,64,4640954714492 ,46,5754879910742 ,55,9212334522699
3.0570639 ,Left ,64,4646760058403 ,46,5772366716674 ,55,9177932966715
3.0791717 ,Left ,64,4491250612447 ,46,5978209078629 ,55,9229960470444
3.0943206 ,Left ,64,433217701278 ,46,6308974767325 ,55,9342452902538
3.1165755 ,Left ,64,4245090580405 ,46,6467073788969 ,55,9466207730844
3.139398 ,Left ,64,4188674577461 ,46,6591390131181 ,55,9588836604676
3.1541023 ,Left ,64,4130175249709 ,46,6629260014388 ,55,9632574546129
3.1768455 ,Left ,64,4154752740444 ,46,6625058001979 ,55,9632363563279
3.1992387 ,Left ,64,4003102279471 ,46,653673874451 ,55,9701149056034
3.2139276 ,Left ,64,3688146180264 ,46,6363650168048 ,55,9893558844524
3.2367459 ,Left ,64,320757350017 ,46,6167803778636 ,56,0118482280712
3.2589869 ,Left ,64,3289259616498 ,46,6073358924902 ,56,0054406291501
3.2738904 ,Left ,64,2680035960505 ,46,649186280932 ,55,9900608158558
3.2961878 ,Left ,64,1930857437638 ,46,7042013144645 ,56,0166011096335
3.3189266 ,Left ,64,1427252332902 ,46,7777674239344 ,56,0955380415819
3.3336916 ,Left ,64,1762106852871 ,46,9003322058263 ,56,1630985115874
3.3562256 ,Left ,64,1683398295802 ,47,0380348940871 ,56,206864648158
3.3790195 ,Left ,64,1829999106326 ,47,1472497838441 ,56,2218415673392
3.3939288 ,Left ,64,2181332178115 ,47,1883551020122 ,56,2143470716231
3.4162659 ,Left ,64,2250037301538 ,47,2065637867629 ,56,1738518925888
3.4390267 ,Left ,64,1730115699364 ,47,2032780375528 ,56,1031815900483
3.4613832 ,Left ,64,1494812300892 ,47,2077456780475 ,56,0256458049526
3.4765053 ,Left ,64,0851749972652 ,47,1804424609852 ,55,9374140781451
3.4988464 ,Left ,64,0573266231638 ,47,1125993191197 ,55,9016483526065
3.5213908 ,Left ,64,074077026097 ,46,9958401988906 ,55,8969352867782
3.5363101 ,Left ,64,1032398605926 ,46,9237109436095 ,55,8920508126252
3.5590083 ,Left ,64,0999463024319 ,46,942931125335 ,55,8546057061572
3.5814669 ,Left ,64,1032123530732 ,46,9644599278588 ,55,8268276204096
3.596461 ,Left ,64,1533413498996 ,46,9916543532648 ,55,8322249418367
3.6188389 ,Left ,64,1691554088731 ,47,0100631641693 ,55,8406229162026
3.6338533 ,Left ,64,1310250570636 ,47,0375447585331 ,55,8514234104393
3.6566001 ,Left ,64,0620893088575 ,47,0485245865202 ,55,8526596913413
3.6792399 ,Left ,64,0643263281712 ,47,0223583160299 ,55,8734538866482
3.7015342 ,Left ,64,097183085579 ,46,9871538996538 ,55,9083479998711
3.71667 ,Left ,64,0939519767611 ,47,0437822515445 ,55,9364993831229
3.7392286 ,Left ,64,0942128867356 ,47,1370810101432 ,55,9594711886193
3.7616745 ,Left ,64,1002394501677 ,47,2205151105322 ,55,9958678599159
3.7766741 ,Left ,64,0497667582511 ,47,3235629401851 ,56,0321241200823
3.798945 ,Left ,63,9881123702579 ,47,4552362788337 ,56,045409850086
3.822073 ,Left ,63,9177285283043 ,47,5689694383953 ,56,0414646345342
3.8367561 ,Left ,63,8812719984673 ,47,6310146124442 ,56,0471182892404
3.8590932 ,Left ,63,8809215717993 ,47,6545494635447 ,56,0797149968839
3.8812949 ,Left ,63,8921584170579 ,47,6243676818889 ,56,1059862561027
3.8890873 ,Left ,63,8697354731959 ,47,5524999009628 ,56,12580076933
3.9111937 ,Left ,63,8450718993093 ,47,4932769063368 ,56,1208956569706
3.9490601 ,Left ,63,8140402133 ,47,4108745024532 ,56,0943214077703
3.9712936 ,Left ,63,8326444500675 ,47,4156088168083 ,56,1164819035328
4.0090765 ,Left ,63,9255524835719 ,47,5678088986099 ,56,1534320584047
4.031284 ,Left ,63,9610882397667 ,47,6190200250244 ,56,1798236090904
4.0689235 ,Left ,63,9761893746015 ,47,7570165040037 ,56,1613688724671
4.0911403 ,Left ,63,9696908956576 ,47,8322254199042 ,56,0988415618105
4.1288882 ,Left ,63,9643165105704 ,47,9356971563533 ,55,921386800632
4.1513014 ,Left ,63,9541716574248 ,47,9556996782484 ,55,8117019844312
4.1963741 ,Left ,63,8703543255637 ,47,924717281924 ,55,5720531716116
4.2188335 ,Left ,63,8489374995855 ,47,8646474350668 ,55,4610091106501
4.2563452 ,Left ,63,8144754399549 ,47,7588144329914 ,55,2460386487467
4.2790374 ,Left ,63,7822878631764 ,47,7323815336596 ,55,1552878174181
4.3091458 ,Left ,63,7416168742896 ,47,6769567214938 ,54,9769459146761
4.331396 ,Left ,63,7204750963744 ,47,6266659101121 ,54,9042174150226
4.3688158 ,Left ,63,648059558639 ,47,5072882106515 ,54,7965361394625
4.3913541 ,Left ,63,6231280552036 ,47,4235328309102 ,54,7920359563027
4.4291179 ,Left ,63,7065722899527 ,47,457860205507 ,54,8782880801578
4.4515989 ,Left ,63,7713903287877 ,47,4904764519104 ,54,929712885466
4.4891727 ,Left ,63,9064574139817 ,47,3505374188236 ,55,0641908898752
4.5115409 ,Left ,63,9426325191559 ,47,3220865363433 ,55,0817828375685
4.5492336 ,Left ,63,9766757700697 ,47,2387348651615 ,55,0652413187487
4.5715217 ,Left ,64,0296037237418 ,47,1861581067483 ,55,0667391570586
4.6092462 ,Left ,64,0661366885866 ,47,2294163128554 ,55,011421374268
4.6314793 ,Left ,64,0914942193308 ,47,2312626183429 ,54,9571598778709
4.6691032 ,Left ,64,1525907739555 ,46,9728928424145 ,55,0342905093481
4.6915943 ,Left ,64,2133890037042 ,46,9324469518202 ,55,0828106657624
4.7292404 ,Left ,64,2735795382767 ,47,0934916244556 ,55,1107021833568
4.7516219 ,Left ,64,3482828432506 ,47,1106161135681 ,55,1377376098595
4.7887884 ,Left ,64,3865808287262 ,47,1590361151281 ,55,2000221833782
4.8120748 ,Left ,64,3615969773239 ,47,1551028540213 ,55,2405927472122
4.8495995 ,Left ,64,3950398900832 ,47,0774859904873 ,55,3429291762189
4.8714193 ,Left ,64,4314622724925 ,47,0204723395395 ,55,4153328859509
4.9087325 ,Left ,64,463978532202 ,46,9732382076439 ,55,5390740139609
4.9310814 ,Left ,64,4652582851298 ,46,9353503701347 ,55,5967564301789
4.9687595 ,Left ,64,4701583488594 ,46,8648357211086 ,55,757140984152
4.9912889 ,Left ,64,4614585419411 ,46,8585224543932 ,55,8386377631202
5.0287868 ,Left ,64,4591123950637 ,46,8335321865831 ,55,9942401789448
5.0510524 ,Left ,64,4659096193982 ,46,8217776600146 ,56,0623263252872
5.0890233 ,Left ,64,4174903137975 ,46,8443464016946 ,56,176153388032
5.1110585 ,Left ,64,3939870278521 ,46,8672396589888 ,56,2250024772023
5.1490286 ,Left ,64,4293246297562 ,46,8675305788051 ,56,2985857174516
5.1713071 ,Left ,64,4285266587897 ,46,8470051865198 ,56,3225680718524
5.2091993 ,Left ,64,3950896278591 ,46,860114452318 ,56,3088863057376
5.2316097 ,Left ,64,3848035171173 ,46,8667637380003 ,56,2873213392194
5.2690206 ,Left ,64,4239257686489 ,46,8451288191383 ,56,2411830789372
5.2915894 ,Left ,64,4256282644001 ,46,8111615702355 ,56,2207244258673
5.3290831 ,Left ,64,4136707999683 ,46,7763968594262 ,56,1863492986893
5.3516083 ,Left ,64,4086112606333 ,46,7679713859035 ,56,1536946327252
5.3891772 ,Left ,64,4306028576113 ,46,7348496501357 ,56,0906453306684
5.4115943 ,Left ,64,4286780044858 ,46,7169808391552 ,56,0489118065758
5.4415851 ,Left ,64,4238480416431 ,46,7258006301691 ,55,9590944726338
5.4715839 ,Left ,64,4037904175486 ,46,7505021576204 ,55,9110849892565
5.5089769 ,Left ,64,3807592322086 ,46,8041502571755 ,55,8452276136853
5.5312253 ,Left ,64,3727985856672 ,46,8110434738569 ,55,8261356759534
5.5692587 ,Left ,64,3022386965144 ,46,8008338766699 ,55,8489194173519
5.5914616 ,Left ,64,2638804425451 ,46,8006711096168 ,55,8802998910002
5.6291979 ,Left ,64,2968210193597 ,46,7813076341912 ,55,8551269899811
5.6515388 ,Left ,64,2935131749456 ,46,7367794248587 ,55,8188728240688
5.6892698 ,Left ,64,2185955094679 ,46,654643018528 ,55,7819062834634
5.7040327 ,Left ,64,1707198592822 ,46,6464670387522 ,55,7946213616295
5.7414464 ,Left ,64,23632886356 ,46,840476532863 ,55,8703185277225
5.7641481 ,Left ,64,2773337108229 ,46,9313076411833 ,55,9142864345196
5.7865256 ,Left ,64,330306650114 ,46,9888106300108 ,55,9590634492477
5.8013473 ,Left ,64,2969379192359 ,47,0510226935969 ,55,963749594083
5.8239498 ,Left ,64,2261502863563 ,47,0821667539592 ,55,9251960170332
5.8469927 ,Left ,64,1729446175649 ,47,0982339765183 ,55,8771936152118
5.8619103 ,Left ,64,122911228807 ,47,1179701426842 ,55,8112305366737
5.8843331 ,Left ,64,0654081527286 ,47,0872375040849 ,55,7395261438819
5.9068575 ,Left ,64,1025962332559 ,47,0342775981802 ,55,7060990398675
5.9215724 ,Left ,64,1058808693135 ,46,9617640633623 ,55,6968853485486
5.9443215 ,Left ,64,0995792277962 ,46,9602741865841 ,55,689951432424
5.9670606 ,Left ,64,1008713971532 ,47,0042933435812 ,55,6745245446627
5.9818632 ,Left ,64,1426018960275 ,47,0324371403233 ,55,6918839985495
6.004543 ,Left ,64,2075113915002 ,47,0562769721829 ,55,7200901398617
6.0271112 ,Left ,64,2031633233056 ,47,1192183164411 ,55,7362993409502
6.041907 ,Left ,64,0949766034485 ,47,1714789212337 ,55,7317979818816
6.0641077 ,Left ,64,0966124066915 ,47,1676429615727 ,55,7344262155009
6.0866071 ,Left ,64,1341623227136 ,47,073203599439 ,55,7859104854916
6.1015381 ,Left ,64,1602358269375 ,47,0561069940608 ,55,8398710711639
6.1240784 ,Left ,64,1711731271385 ,47,1313809861779 ,55,8504958455749
6.1465591 ,Left ,64,1567634768359 ,47,2006406076819 ,55,8670900173484
6.1614496 ,Left ,64,1526544590139 ,47,2954466379837 ,55,8754373612609
6.1839894 ,Left ,64,120005393718 ,47,4160180822106 ,55,871698881753
6.2064438 ,Left ,64,0625796963873 ,47,5339738829949 ,55,8705151732206
6.2213881 ,Left ,64,0128344287599 ,47,6150343186149 ,55,882748928662
6.2438864 ,Left ,64,0016666532269 ,47,6504262638322 ,55,9234381475982
6.2665644 ,Left ,63,9965707911844 ,47,643777188638 ,55,970799867323
6.281324 ,Left ,63,9630593337459 ,47,6104851573887 ,56,0056685898095
6.3040063 ,Left ,63,9244248250204 ,47,5726976428269 ,56,0166753379283
6.3265818 ,Left ,63,8975409971913 ,47,5138036643679 ,56,011580367708
6.341388 ,Left ,63,8267614437056 ,47,4534942825777 ,56,008012657435
6.3637758 ,Left ,63,8286421406625 ,47,4808618100853 ,56,0267788566516
6.3864542 ,Left ,63,8059968405478 ,47,5741365798469 ,56,0378651077539
6.4011579 ,Left ,63,8656067833729 ,47,6696911598098 ,56,0600484371278
6.423973 ,Left ,63,9282122102778 ,47,7440079656355 ,56,0793942141988
6.4465561 ,Left ,63,9824380004827 ,47,8188873202517 ,56,0797186332018
6.4692517 ,Left ,63,9572068511624 ,47,8978801873089 ,56,0406891955545
6.4839704 ,Left ,63,9242336080258 ,47,9651327290049 ,55,9606316621454
6.5066797 ,Left ,63,9032903057386 ,48,0170727412989 ,55,8562385246624
6.5292225 ,Left ,63,9152770703063 ,48,0414233528391 ,55,7359794225155
6.5441838 ,Left ,63,9142218990477 ,48,0405433556458 ,55,6146411220946
6.5664417 ,Left ,63,9114984334413 ,48,0057878841643 ,55,5066853607076
6.5889571 ,Left ,63,9147565353156 ,47,9328868964573 ,55,3989247664649
6.60388 ,Left ,63,900863399507 ,47,8594126511338 ,55,2992538096446
6.6338758 ,Left ,63,8768799877613 ,47,7883769831195 ,55,1984722884202
6.6568452 ,Left ,63,8715045396068 ,47,7137464403573 ,55,112126665321
6.671791 ,Left ,63,8514488544392 ,47,6450236894713 ,55,036859831835
6.6869421 ,Left ,63,7809514171522 ,47,5665596810825 ,54,9665808080519
6.7093999 ,Left ,63,7572038986568 ,47,4813211178473 ,54,9366468562738
6.7242337 ,Left ,63,7216580854739 ,47,423565031265 ,54,9545681990851
6.7542514 ,Left ,63,7609428592902 ,47,42941102176 ,55,0267092086541
6.7769049 ,Left ,63,8529864302031 ,47,4666117694747 ,55,1067026709247
6.7917192 ,Left ,63,9619081070243 ,47,4640409194326 ,55,1664081856424
6.806801 ,Left ,64,0495572020049 ,47,4132348992694 ,55,2261290597494
6.8293941 ,Left ,64,059675080558 ,47,3712144945449 ,55,259617816478
6.8442977 ,Left ,64,0807665632218 ,47,33237577606 ,55,2677822106005
6.86642 ,Left ,64,119048767242 ,47,2871380773333 ,55,2686394676484
6.8891924 ,Left ,64,1860468477676 ,47,2539116302257 ,55,2420167328237
6.9038496 ,Left ,64,2308056499381 ,47,2402091123172 ,55,1931956498235
6.9265793 ,Left ,64,2439085566092 ,47,2361710675505 ,55,1337205994752
6.9489017 ,Left ,64,2629804169997 ,47,2383332532637 ,55,05539295531
6.9638425 ,Left ,64,2284443758111 ,47,2003679359516 ,54,9917182833211
6.986627 ,Left ,64,2126966866296 ,47,1435784786598 ,54,984908587919
7.0091639 ,Left ,64,2448298434879 ,47,1024882338929 ,55,0559285415459
7.0240619 ,Left ,64,2994202028101 ,47,1618214163009 ,55,1027075336791
7.0464634 ,Left ,64,3785000290978 ,47,2498598690025 ,55,1126727742979
7.0690977 ,Left ,64,4314504045855 ,47,2837387579687 ,55,1241489029032
7.0838376 ,Left ,64,4662734746326 ,47,3009525818478 ,55,140772412675
7.1062858 ,Left ,64,4629360736205 ,47,3085547359759 ,55,1489796466499
7.1287636 ,Left ,64,4423792174072 ,47,2879689067954 ,55,1545672043488
7.1440328 ,Left ,64,4285747530066 ,47,2283323508479 ,55,1662109999802
7.1665295 ,Left ,64,4455712586171 ,47,1361090962736 ,55,1905553814803
7.1889436 ,Left ,64,4679317356721 ,47,0490519386315 ,55,2376178175348
7.2038262 ,Left ,64,4883104023871 ,46,9860053249563 ,55,2892991751891
7.2264827 ,Left ,64,4900911625295 ,46,932253523851 ,55,3347652561677
7.2490262 ,Left ,64,4855626290806 ,46,883011402932 ,55,3869646246711
7.2639257 ,Left ,64,4844435319643 ,46,8454695293435 ,55,4491774368512
7.2865155 ,Left ,64,4713660940079 ,46,81966634102 ,55,5195078005413
7.308902 ,Left ,64,451640663847 ,46,8144873138492 ,55,5951096840819
7.3237494 ,Left ,64,454862858652 ,46,8106793825693 ,55,6668998058103
7.3463128 ,Left ,64,4537957502375 ,46,7757345685978 ,55,7237625972746
7.3690191 ,Left ,64,4658310806843 ,46,738385777137 ,55,7794295899756
7.3838208 ,Left ,64,4584771522088 ,46,7214874116373 ,55,829562097803
7.4066242 ,Left ,64,4217260420924 ,46,7163793369122 ,55,8701362818222
7.4292251 ,Left ,64,4048382119617 ,46,7111713278281 ,55,9102472656748
7.4515285 ,Left ,64,3993497135044 ,46,6913974559784 ,55,9523392299999
7.4666296 ,Left ,64,4033745966973 ,46,6609405116082 ,55,9891702143554
7.4890871 ,Left ,64,4010172298125 ,46,6291311522611 ,56,0191100026229
7.5114869 ,Left ,64,3801762306845 ,46,6115714965039 ,56,0332579267015
7.526449 ,Left ,64,3985870666919 ,46,598390846737 ,56,0200877652815
7.5489533 ,Left ,64,3820120217717 ,46,556311283005 ,56,0075031535915
7.5714605 ,Left ,64,3882978625278 ,46,5052837371637 ,56,0057604652958
7.5864279 ,Left ,64,3982810272274 ,46,4819820376292 ,56,0079334708575
7.6091879 ,Left ,64,3924587964169 ,46,5027292187249 ,56,0045051179061
7.6313534 ,Left ,64,39878866636 ,46,5310715447914 ,55,984042390802
7.6465488 ,Left ,64,4087831021492 ,46,5507480324302 ,55,9665170340745
7.668983 ,Left ,64,4007569631647 ,46,5754019335912 ,55,9600975362891
7.6912964 ,Left ,64,3848120143334 ,46,6050643959658 ,55,9654480263459
7.7062495 ,Left ,64,3528988096429 ,46,6332599896314 ,55,9724306245916
7.72879 ,Left ,64,3440388204786 ,46,6366203067869 ,55,9783557711071
7.7513795 ,Left ,64,327658036054 ,46,6264503532246 ,55,981043652172
7.7663982 ,Left ,64,3068852510653 ,46,6241024213119 ,55,9777112601146
7.7891554 ,Left ,64,279918833617 ,46,6381107946582 ,55,9712348512231
7.8114101 ,Left ,64,268701686446 ,46,6518777781932 ,55,9487678246647
7.82617 ,Left ,64,2481135838555 ,46,6408316764557 ,55,9063382900688
7.8489807 ,Left ,64,2278162036458 ,46,5877721704939 ,55,8729810806603
7.87125 ,Left ,64,2082747213487 ,46,5584824374054 ,55,8708973526064
7.8863178 ,Left ,64,1651545157922 ,46,5691119363257 ,55,8789281037876
7.9091474 ,Left ,64,1416422198771 ,46,610826595272 ,55,9121246534856
7.9313006 ,Left ,64,168649230537 ,46,6857402657449 ,55,9771861561289
7.9464151 ,Left ,64,2021796035273 ,46,754021337276 ,56,0485041559639
7.9690298 ,Left ,64,2269189805211 ,46,8069425392707 ,56,0970439489597
7.9913536 ,Left ,64,2314145778915 ,46,850575652899 ,56,1220506591121
8.0061967 ,Left ,64,1901684846474 ,46,887032489351 ,56,1080273730846
8.0296219 ,Left ,64,1495074769496 ,46,9117486384374 ,56,0729480725006
8.0515415 ,Left ,64,1023037397998 ,46,9375347522263 ,56,0205377217094
8.0664988 ,Left ,64,067331164202 ,46,9217407900279 ,55,9537399925692
8.0891025 ,Left ,64,0522444683615 ,46,8300278480163 ,55,8849354476275
8.1117318 ,Left ,64,0656069223221 ,46,7137976085855 ,55,8674028275915
8.1266146 ,Left ,64,0298438623234 ,46,6518705030241 ,55,8726020628148
8.1490822 ,Left ,63,9869712975555 ,46,6722475339529 ,55,8609566113791
8.171771 ,Left ,63,9804862496338 ,46,7222879060754 ,55,8548553306983
8.1943646 ,Left ,64,0319851487292 ,46,7439742592791 ,55,8660934651703
8.2093816 ,Left ,64,0923257845817 ,46,7675049115538 ,55,8824017918259
8.2315843 ,Left ,64,0535427585738 ,46,8031972886804 ,55,8819365883468
8.2464989 ,Left ,64,0003631091284 ,46,8333913821662 ,55,8675897143978
8.2694239 ,Left ,63,9626023808106 ,46,8321855828521 ,55,8474382109604
8.2917672 ,Left ,63,9793691408286 ,46,7812396059601 ,55,8726711463008
8.3067064 ,Left ,64,0533959337164 ,46,743659748424 ,55,9009609400742
8.3368466 ,Left ,64,0862860507423 ,46,8327018723741 ,55,8905456891362
8.359381 ,Left ,64,077069765483 ,46,9525575795501 ,55,8682500111994
8.3743068 ,Left ,64,0830606009241 ,47,0899122293022 ,55,8602353853288
8.3967277 ,Left ,64,0593772370539 ,47,2292537735619 ,55,853861011815
8.4117471 ,Left ,63,9834439574907 ,47,3602593219616 ,55,8430215944071
8.4339184 ,Left ,63,9113241528759 ,47,4683774338025 ,55,8369142986897
8.4490341 ,Left ,63,8580560583316 ,47,5385922909296 ,55,8463808169497
8.4713495 ,Left ,63,8375115511021 ,47,5614132781459 ,55,8762836714108
8.4939604 ,Left ,63,7915153868398 ,47,5338610665044 ,55,9006245496967
8.5088627 ,Left ,63,7584349430802 ,47,4737619035675 ,55,9195536074933
8.5315518 ,Left ,63,6817152016321 ,47,3860839113086 ,55,9262460173509
8.5542537 ,Left ,63,6134360992187 ,47,2999878471291 ,55,9205385492261
8.5692255 ,Left ,63,5814270368446 ,47,2321679986045 ,55,9191978148201
8.591593 ,Left ,63,5779065881533 ,47,2534763823624 ,55,9307278194244
8.6140154 ,Left ,63,6420922171318 ,47,3296963525178 ,55,9403353395746
8.6292005 ,Left ,63,7485489427046 ,47,3945706552868 ,55,9629363973455
8.6516079 ,Left ,63,8219693259413 ,47,4405241317921 ,55,973271004743
8.6742238 ,Left ,63,8377939551967 ,47,4994787147355 ,55,9518361337511
8.6892756 ,Left ,63,8308441613039 ,47,5754173777452 ,55,9043631155617
8.7115841 ,Left ,63,8228510848309 ,47,6424094618243 ,55,8357551618783
8.7342252 ,Left ,63,8036734216983 ,47,6984571431187 ,55,7443645538401
8.7490333 ,Left ,63,8020180663655 ,47,7229889634909 ,55,6567761270364
8.7716064 ,Left ,63,8007591347166 ,47,7191011454362 ,55,5696271829358
8.794228 ,Left ,63,8003603452474 ,47,6908931836072 ,55,4692514157129
8.8090014 ,Left ,63,7712249941394 ,47,6627837602031 ,55,3575183954962
8.8392049 ,Left ,63,740085148041 ,47,6287043678016 ,55,2458144804533
8.8617092 ,Left ,63,7316275952923 ,47,5972001626772 ,55,1464138794623
8.8768154 ,Left ,63,7241751649766 ,47,5743340512182 ,55,0507137670637
8.8916249 ,Left ,63,7144252472438 ,47,5616203726409 ,54,9578175356421
8.9141186 ,Left ,63,6811267395678 ,47,5534443830942 ,54,8735736518813
8.9291774 ,Left ,63,6400551822528 ,47,5332430939587 ,54,7994368606596
8.9516358 ,Left ,63,5905278169303 ,47,4760791197089 ,54,7571255410202
8.9740822 ,Left ,63,593761840468 ,47,4109201656153 ,54,7474718519522
8.9890303 ,Left ,63,5768386935063 ,47,3553493785674 ,54,7536979016075
9.0114807 ,Left ,63,6376576029085 ,47,3219444876269 ,54,8054741401468
9.0343038 ,Left ,63,7302868551288 ,47,3040205617983 ,54,8700541268093
9.0567358 ,Left ,63,8322399462081 ,47,3009602813987 ,54,9265307786197
9.0716214 ,Left ,63,9554938269824 ,47,294109594171 ,54,9809715412384
9.0940697 ,Left ,64,0360758555462 ,47,274103965333 ,55,034637497757
9.116571 ,Left ,64,0900885271818 ,47,2543471167474 ,55,0752840752811
9.1315566 ,Left ,64,1490238789225 ,47,2293302272659 ,55,1119436827741
9.1542044 ,Left ,64,2148364606338 ,47,1949692500214 ,55,14580615383
9.1768419 ,Left ,64,2600759392611 ,47,1682493479892 ,55,1682398328373
9.1915994 ,Left ,64,2612110597468 ,47,1644559006896 ,55,1704808085247
9.2142553 ,Left ,64,2585901359467 ,47,1560217793973 ,55,1313348801615
9.229257 ,Left ,64,2292923373146 ,47,0891258590708 ,55,1028383704534
9.2515134 ,Left ,64,2252946881298 ,47,0030713700167 ,55,1065415582985
9.2742574 ,Left ,64,2458040146626 ,46,9547187953458 ,55,138964484185
9.2966051 ,Left ,64,2805979996356 ,47,0074851416416 ,55,1543197418543
9.3116318 ,Left ,64,3193659780994 ,47,0754639846743 ,55,1679673018418
9.3342105 ,Left ,64,3608982267409 ,47,1279171830085 ,55,1856067999991
9.3566244 ,Left ,64,4128928359508 ,47,1582185578387 ,55,2081909593546
9.3712117 ,Left ,64,4378184538567 ,47,1443414585118 ,55,2258626369208
9.3939016 ,Left ,64,4664782339018 ,47,1103182068585 ,55,2379891434126
9.4163483 ,Left ,64,4971759702702 ,47,0513327500538 ,55,2339786996485
9.4313682 ,Left ,64,5107342880762 ,46,9783897747335 ,55,2255968782959
9.4536713 ,Left ,64,54024598217 ,46,8912176483347 ,55,22556239377
9.4763401 ,Left ,64,5682863123854 ,46,8254541548975 ,55,2360659783779
9.4911517 ,Left ,64,5942799029778 ,46,7864732480237 ,55,2455002392145
9.5138989 ,Left ,64,6082011462055 ,46,7547901298209 ,55,2589944941253
9.5366062 ,Left ,64,6165518345553 ,46,7201206884616 ,55,2977283063683
9.5517781 ,Left ,64,6279118566607 ,46,6909088206327 ,55,3550512338794
9.5740144 ,Left ,64,6211731683887 ,46,6705584384784 ,55,4320388254968
9.5966786 ,Left ,64,6200472080257 ,46,654373483037 ,55,5295747613009
9.6117367 ,Left ,64,6208743744661 ,46,6396194435197 ,55,6184264736477
9.6268418 ,Left ,64,6095351135938 ,46,6172565189742 ,55,7060996820938
9.6641869 ,Left ,64,5669004974018 ,46,5637326155594 ,55,8311905934799
9.6867106 ,Left ,64,5294490445411 ,46,5389701814475 ,55,876140607827
9.7241868 ,Left ,64,458863005889 ,46,4973315632479 ,55,9962565320092
9.7464 ,Left ,64,4896488811307 ,46,4820650471873 ,56,0377864577866
9.7841384 ,Left ,64,433079090952 ,46,4153353368858 ,56,0407456854954
9.8067296 ,Left ,64,4328200064589 ,46,3933026720516 ,56,0283707367722
9.8441076 ,Left ,64,4067851820639 ,46,4313761414015 ,56,0084877667882
9.8666493 ,Left ,64,4291326068965 ,46,444230523401 ,55,9940840920402
9.9040358 ,Left ,64,4061628373976 ,46,4565544029583 ,55,9981002309736
9.9266136 ,Left ,64,369303107858 ,46,4973490607551 ,56,0000555787052
9.9638312 ,Left ,64,3467467745506 ,46,5578618020255 ,55,9773616547484
9.9863499 ,Left ,64,3298951698535 ,46,5646356914211 ,55,9718629257532
10.0242184 ,Left ,64,2722564834085 ,46,6138181651831 ,55,9578016824768
10.046464 ,Left ,64,2555340392178 ,46,6365479039691 ,55,9598604569461
10.0839922 ,Left ,64,2623836239534 ,46,6245138636512 ,55,9673314783333
10.1064286 ,Left ,64,2435124884385 ,46,5987299928469 ,55,9760514155829
10.1440276 ,Left ,64,1764303908651 ,46,5944855177859 ,55,9551385577556
10.1664385 ,Left ,64,1761179212477 ,46,5508216129147 ,55,9723870042382
10.203888 ,Left ,64,2758387187 ,46,5825374409497 ,56,0280206997064
10.2265441 ,Left ,64,2764207771905 ,46,6306670309666 ,55,9924010116451
10.2639552 ,Left ,64,3107530466113 ,46,7022848906921 ,55,8763461160315
10.2867002 ,Left ,64,3034011662352 ,46,7261367762248 ,55,8093649699274
10.324107 ,Left ,64,2572201337696 ,46,6860391394793 ,55,7134980563362
10.3465986 ,Left ,64,2717201036572 ,46,6728793287997 ,55,6985133297031
10.3840131 ,Left ,64,2129599057955 ,46,6417539352617 ,55,6427904144804
10.4066327 ,Left ,64,2145491007346 ,46,5331182442525 ,55,6457589515439
10.4441502 ,Left ,64,1785667439944 ,46,6123661303892 ,55,6300577049317
10.4666394 ,Left ,64,2019316888232 ,46,7085230259889 ,55,6093589588983
10.5040535 ,Left ,64,2839427941262 ,46,7562132657688 ,55,6126422680987
10.5266554 ,Left ,64,2541417469113 ,46,7694117121146 ,55,6123230541692
10.5638639 ,Left ,64,170099190703 ,46,7674423192714 ,55,6109473518677
10.586454 ,Left ,64,2185054759115 ,46,7331371205139 ,55,6319169642252
10.6239411 ,Left ,64,2288754075127 ,46,685006529333 ,55,6802551020681
10.6464026 ,Left ,64,2297975589793 ,46,7719245007826 ,55,672100053813
10.6842777 ,Left ,64,2442758177604 ,46,9192300890245 ,55,7158920135897
10.7067851 ,Left ,64,1807277612448 ,47,0087674033394 ,55,7491110508995
10.7442541 ,Left ,64,079070735646 ,47,1534216271545 ,55,8032026806793
10.7666811 ,Left ,64,0563819679111 ,47,1968750387823 ,55,8541082352136
10.8041564 ,Left ,63,9640197704681 ,47,244525896957 ,55,9068841650866
10.8267615 ,Left ,63,9035994822657 ,47,2363302235114 ,55,9121949605298
10.8640619 ,Left ,63,8485699822886 ,47,0905480974161 ,55,9476258799717
10.8866289 ,Left ,63,8548079200006 ,47,1012167895821 ,55,9680903089877
10.9240811 ,Left ,63,9143444991643 ,47,3101183258945 ,55,9477024850412
10.9463778 ,Left ,63,9443057496537 ,47,3455737019589 ,55,964151942916
10.9841321 ,Left ,63,9647310731936 ,47,4083742913329 ,55,9729341200113
11.0066167 ,Left ,63,9632595951168 ,47,4455066258098 ,55,9323893571144
11.073941 ,Left ,63,949667288476 ,47,5571267125467 ,55,6795511142356
11.0963371 ,Left ,63,9350501047194 ,47,5715798554561 ,55,5691457190069
11.1264505 ,Left ,63,888043244513 ,47,5687192869638 ,55,3417519827767
11.164014 ,Left ,63,8732712081291 ,47,5437453580389 ,55,1086678919332
11.1865749 ,Left ,63,8592474797726 ,47,5320579059794 ,55,0072187856261
11.2241324 ,Left ,63,8431829688366 ,47,5019228339883 ,54,8491000455592
11.2462927 ,Left ,63,7897338653205 ,47,449722874748 ,54,7844303197869
11.2839744 ,Left ,63,8079838225643 ,47,339852358247 ,54,7627657992151
11.306479 ,Left ,63,8546305396059 ,47,3264343738402 ,54,7957017136735
11.3439368 ,Left ,64,0119488926286 ,47,2578861802394 ,54,8847717239155
11.3664653 ,Left ,64,0914441183 ,47,1876316498235 ,54,9082958083985
11.4039007 ,Left ,64,1848103864507 ,47,0804967790998 ,54,903003578166
11.4266116 ,Left ,64,2477858149718 ,47,0116252927619 ,54,8982673422782
11.4640282 ,Left ,64,3190360812659 ,46,9458434726186 ,54,9543541564368
11.4790928 ,Left ,64,3131064823449 ,46,9741552298573 ,54,9745400886529
11.5015503 ,Left ,64,3230192800801 ,46,9858414830367 ,54,9775255119196
11.5164315 ,Left ,64,3315230057499 ,46,9482260385169 ,54,9971056691
11.5391999 ,Left ,64,3325845599451 ,46,9011734195447 ,55,0259762326467
11.5615151 ,Left ,64,362613249688 ,46,8626766979806 ,55,0645748465905
11.5765883 ,Left ,64,3740305861644 ,46,888217270958 ,55,0785848944829
11.5988042 ,Left ,64,4220542186567 ,46,9592606298364 ,55,0736440796178
11.6213549 ,Left ,64,4701311093076 ,47,0133802688105 ,55,0852656151235
11.6363475 ,Left ,64,4919190796393 ,47,0140816454517 ,55,1185516271351
11.6588545 ,Left ,64,4971892629297 ,47,0041451094713 ,55,1583302042379
11.6813998 ,Left ,64,4896351534397 ,46,9653073642231 ,55,1907496207004
11.6963287 ,Left ,64,491992353899 ,46,9134235688793 ,55,2147870435864
11.7188459 ,Left ,64,4917903959406 ,46,8584646509071 ,55,2284564769346
11.7413354 ,Left ,64,4805483702977 ,46,800032502817 ,55,2455367013063
11.7561145 ,Left ,64,4663475209742 ,46,7436668936599 ,55,2766073966139
11.7790707 ,Left ,64,4571146815489 ,46,6899731090452 ,55,3181633954264
11.8013603 ,Left ,64,4492549679606 ,46,6385158529099 ,55,3714043227084
11.8163823 ,Left ,64,4536160854364 ,46,5785668157441 ,55,4497746135638
11.8392004 ,Left ,64,455435340169 ,46,5180415960571 ,55,5302459246736
11.8615027 ,Left ,64,4536803318502 ,46,4803653372006 ,55,6018072136403
11.8765547 ,Left ,64,4341436638215 ,46,4627694484228 ,55,6629690494304
11.8989651 ,Left ,64,4117467676895 ,46,4546338901244 ,55,7290722069663
11.9214991 ,Left ,64,3845811085243 ,46,449052967951 ,55,8096390193838
11.9364621 ,Left ,64,3581309974145 ,46,4478765404621 ,55,8946106527265
11.9591581 ,Left ,64,3530386593602 ,46,4588226949627 ,55,9663665339661
11.9813883 ,Left ,64,3448943210692 ,46,4714712441297 ,56,0239422927549
12.0038785 ,Left ,64,3280022378314 ,46,4663515338506 ,56,0690139505004
12.0191969 ,Left ,64,3142474333855 ,46,4526859676656 ,56,1030967271915
12.0414983 ,Left ,64,2917559710913 ,46,4407222201751 ,56,1381412817597
12.056656 ,Left ,64,2563814851575 ,46,4321856678944 ,56,1773498227984
12.0790784 ,Left ,64,2512602851548 ,46,4312297056184 ,56,2037860132337
12.101589 ,Left ,64,255801011955 ,46,4186451738617 ,56,217926018478
12.1164173 ,Left ,64,2415004054348 ,46,3981933824767 ,56,2311458250837
12.1389337 ,Left ,64,2285571809196 ,46,3881465527377 ,56,2491232002007
12.1615915 ,Left ,64,1964281730038 ,46,3988824664718 ,56,2614171486713
12.1841917 ,Left ,64,1900142154289 ,46,4179319567306 ,56,2702148078817
12.1989737 ,Left ,64,2123747853886 ,46,43140010138 ,56,2672622848665
12.2215579 ,Left ,64,2064391833134 ,46,4387917879626 ,56,259250017897
12.2441509 ,Left ,64,190587929842 ,46,4535020566041 ,56,2549630937775
12.2589257 ,Left ,64,1503434661827 ,46,465067566927 ,56,2568761718999
12.281491 ,Left ,64,1607919514565 ,46,4755093015541 ,56,2389412807876
12.3038818 ,Left ,64,1433798974998 ,46,4567806640246 ,56,215442794769
12.3186667 ,Left ,64,125201007107 ,46,4237751828593 ,56,2027082619364
12.3412133 ,Left ,64,1128402743337 ,46,4137309678096 ,56,1939498548197
12.3640495 ,Left ,64,1040010586547 ,46,4270700225943 ,56,1666640312525
12.3789648 ,Left ,64,0693953746769 ,46,4293065520106 ,56,1169282987329
12.4014867 ,Left ,64,0424933948863 ,46,3899038799699 ,56,0773714133117
12.4241024 ,Left ,64,016979424557 ,46,384094550022 ,56,0887028200076
12.4391301 ,Left ,64,0274582700757 ,46,4169063369387 ,56,1323765229202
12.4611875 ,Left ,64,006915500618 ,46,5279215881056 ,56,183136397576
12.4838832 ,Left ,64,0299248580318 ,46,6394258918913 ,56,2159373782491
12.4987709 ,Left ,64,0636811248184 ,46,7192760747087 ,56,2451870360398
12.5213378 ,Left ,64,0911545782779 ,46,7548486153782 ,56,2522431879275
12.5440062 ,Left ,64,0556915650068 ,46,7840229045292 ,56,2190835629554
12.5590928 ,Left ,64,016816465791 ,46,7709983764723 ,56,1581741307952
12.5813842 ,Left ,64,014250303425 ,46,7632377451418 ,56,0858884322522
12.6040522 ,Left ,63,9760189465611 ,46,753107712585 ,55,9861797552728
12.6188409 ,Left ,63,9680034073705 ,46,705326233605 ,55,9180599959902
12.6412604 ,Left ,63,9954149353674 ,46,6138452184464 ,55,8958929910117
12.6640162 ,Left ,64,015887933966 ,46,5842872875032 ,55,8977201580905
12.6788841 ,Left ,64,0283103834317 ,46,6397616963686 ,55,8806207461136
12.7014363 ,Left ,64,0400083472764 ,46,674104598039 ,55,880780381434
12.7241015 ,Left ,64,0535659682005 ,46,7133467966301 ,55,8914052848513
12.7389022 ,Left ,64,0388272969153 ,46,7499894400741 ,55,9131023800501
12.7615219 ,Left ,63,9924806103914 ,46,8005220171189 ,55,9389944564094
12.7841128 ,Left ,63,9276948066314 ,46,827883119383 ,55,9589627515546
12.7989422 ,Left ,63,9737556179717 ,46,7705824038279 ,56,014099552611
12.8215283 ,Left ,64,0177744403914 ,46,7125895816011 ,56,0669178471811
12.8441504 ,Left ,64,0293556628789 ,46,8047897984083 ,56,069137977883
12.8591598 ,Left ,63,9999170704167 ,46,9224300169262 ,56,0607271999604
12.881451 ,Left ,64,0002737612118 ,47,0433404115731 ,56,0627384257751
12.9040755 ,Left ,63,9948238959383 ,47,1804447498226 ,56,0570060808661
12.9267084 ,Left ,63,918572659159 ,47,3192403489593 ,56,0447136304319
12.9414118 ,Left ,63,8478347438565 ,47,4204576479726 ,56,0348045151405
12.9640976 ,Left ,63,8005077859561 ,47,483691352444 ,56,0387579867511
12.9866973 ,Left ,63,7802529868588 ,47,4932127911662 ,56,0604989493269
13.0015621 ,Left ,63,7475013821378 ,47,4494863611781 ,56,1001072925683
13.0241593 ,Left ,63,7170579945087 ,47,367035221467 ,56,1377636095064
13.046624 ,Left ,63,6617367539205 ,47,2801394413431 ,56,1517170541446
13.0614594 ,Left ,63,6015153642175 ,47,2085867454754 ,56,1349198098744
13.084168 ,Left ,63,5901378214245 ,47,2169592967829 ,56,1279696920409
13.0987898 ,Left ,63,6169412837309 ,47,3183948836516 ,56,1200339140749
13.1214725 ,Left ,63,6858333908836 ,47,4341255737562 ,56,1213105490164
13.1439923 ,Left ,63,7370731597362 ,47,50867464801 ,56,1219772849408
13.1665555 ,Left ,63,7493695403132 ,47,5985767508714 ,56,10984011461
13.1813242 ,Left ,63,7530219633314 ,47,6815141987677 ,56,0700317072505
13.2035976 ,Left ,63,7771294547903 ,47,740837556812 ,56,0159127460923
13.2263338 ,Left ,63,7905775157273 ,47,7770812099915 ,55,9468853628034
13.2411771 ,Left ,63,7832107201283 ,47,8105566002814 ,55,8564451304828
13.2638822 ,Left ,63,7611421294361 ,47,8349534404465 ,55,7595570434016
13.2937995 ,Left ,63,7455792097054 ,47,8589216837551 ,55,6648447047104
13.3087617 ,Left ,63,7338562364575 ,47,8760465380556 ,55,57401238891
13.3462319 ,Left ,63,7230793897864 ,47,8157405520515 ,55,3892788245563
13.3614014 ,Left ,63,6994258875423 ,47,7802058126702 ,55,2810830402918
13.3838292 ,Left ,63,674101333766 ,47,7571076467138 ,55,1659157722011
13.406521 ,Left ,63,6348372209668 ,47,7272485017034 ,55,0563559642977
13.4212626 ,Left ,63,6007285660744 ,47,6655613489843 ,54,9524140519757
13.4446639 ,Left ,63,579422545689 ,47,5593043941632 ,54,8790595537934
13.4669804 ,Left ,63,5622410773778 ,47,4691538501823 ,54,8762038564684
13.4818714 ,Left ,63,5748174369053 ,47,4335824303129 ,54,9431024656169
13.5044976 ,Left ,63,6610899401225 ,47,4508584683051 ,55,008746061931
13.527131 ,Left ,63,75512723916 ,47,4354349443302 ,55,0624298541858
13.5420605 ,Left ,63,828271670516 ,47,3912651088428 ,55,1209015277919
13.5715753 ,Left ,63,8802892080917 ,47,3597321136651 ,55,1737535336572
13.594281 ,Left ,63,9320070179742 ,47,3341649424097 ,55,21023143526
13.6092755 ,Left ,63,9905436204396 ,47,3099288632097 ,55,2406721526366
13.6240961 ,Left ,64,0472092874897 ,47,2919549796164 ,55,2670532630348
13.6467099 ,Left ,64,0862225485712 ,47,2873573063392 ,55,2779164859515
13.6615332 ,Left ,64,0883837193532 ,47,2860110010162 ,55,2618808143385
13.6837856 ,Left ,64,0449250873388 ,47,2337629869282 ,55,2361240223448
13.7065578 ,Left ,64,0411810632342 ,47,1732696776534 ,55,2365360542002
13.7213415 ,Left ,64,0462484613821 ,47,1052673808759 ,55,2406316487362
13.7439656 ,Left ,64,0503639787447 ,47,1082870851402 ,55,268195153185
13.7663495 ,Left ,64,0958149022392 ,47,1530789190005 ,55,2775170806715
13.7812868 ,Left ,64,1418496398386 ,47,1870977898976 ,55,2906195464664
13.8039128 ,Left ,64,1617569255926 ,47,1724821299899 ,55,3388967338296
13.826712 ,Left ,64,1902261335863 ,47,158945503404 ,55,3895837107812
13.8414699 ,Left ,64,1844430206129 ,47,1511548361714 ,55,4257205220629
13.8645121 ,Left ,64,1977398898994 ,47,1339476821403 ,55,4598206268112
13.8870238 ,Left ,64,2293786543342 ,47,1064048159832 ,55,4888114714152
13.9018157 ,Left ,64,2321916035903 ,47,0659947171256 ,55,5205094237144
13.9240796 ,Left ,64,2261623731502 ,47,0209745224782 ,55,5394614985958
13.9467143 ,Left ,64,2223958345278 ,46,976425643269 ,55,5519601711378
13.9612346 ,Left ,64,2163897526203 ,46,9322561818274 ,55,5691163860558
13.9838199 ,Left ,64,2033270346997 ,46,8831800452727 ,55,6088942844288
14.0064903 ,Left ,64,2067705986903 ,46,8363204010279 ,55,6664416533055
14.0214284 ,Left ,64,2059536958754 ,46,8009444854626 ,55,721201116619
14.0441661 ,Left ,64,1937889077261 ,46,7666629987356 ,55,7742082289431
14.0666001 ,Left ,64,1995924925219 ,46,7318111827298 ,55,8471997139785
14.0891745 ,Left ,64,189232907416 ,46,7006396065462 ,55,9281900947636
14.104908 ,Left ,64,1837405546623 ,46,6846351740536 ,56,0121766596129
14.1271703 ,Left ,64,182717959692 ,46,6820533315816 ,56,080161137705
14.1495825 ,Left ,64,1732768004193 ,46,6837361085497 ,56,1343931611039
14.1643775 ,Left ,64,1720602120378 ,46,6962939358712 ,56,1755459377285
14.1868529 ,Left ,64,1653585308834 ,46,7118264223681 ,56,205194602321
14.2095105 ,Left ,64,1572521469495 ,46,7195869304872 ,56,224304091273
14.2241538 ,Left ,64,1543648042759 ,46,7165535489274 ,56,2451973586631
14.2466517 ,Left ,64,1598998650231 ,46,7100807833955 ,56,264447028131
14.2694979 ,Left ,64,1611470296561 ,46,6910492793808 ,56,2890221814779
14.2840921 ,Left ,64,1547900245965 ,46,6789174773478 ,56,3125964343476
14.3068769 ,Left ,64,1428955508258 ,46,673279228429 ,56,3169151126779
14.3292976 ,Left ,64,1287382909893 ,46,668072608397 ,56,3034247737025
14.344399 ,Left ,64,1128121212224 ,46,6641285204508 ,56,2795167574958
14.3666356 ,Left ,64,1016493783639 ,46,6636495276451 ,56,2637338572078
14.3894079 ,Left ,64,1079614786718 ,46,6614966286573 ,56,2559015630803
14.4041311 ,Left ,64,1177714767717 ,46,6364315984573 ,56,2668325309777
14.4269215 ,Left ,64,1112102880424 ,46,6109234085944 ,56,290712000799
14.4492843 ,Left ,64,1074327001518 ,46,6027277945443 ,56,3182189063367
14.4641313 ,Left ,64,0948379973891 ,46,6096607005227 ,56,3281022737106
14.4867969 ,Left ,64,0969573758762 ,46,6342944067302 ,56,3174253210445
14.5094634 ,Left ,64,0951740913166 ,46,6515711292025 ,56,2962514401986
14.524158 ,Left ,64,0761674597886 ,46,6553822658415 ,56,2806016352307
14.5467204 ,Left ,64,0551448149411 ,46,6639665530925 ,56,2735153551443
14.5693581 ,Left ,64,024040948537 ,46,6807560744091 ,56,2723847026162
14.5841556 ,Left ,64,0096678207293 ,46,7005872593137 ,56,2707256566996
14.6066174 ,Left ,64,0099293313247 ,46,7031833718363 ,56,2695715357411
14.6293098 ,Left ,63,9969949046751 ,46,6780204040755 ,56,2602577022555
14.6443497 ,Left ,64,0172555450704 ,46,6749278979092 ,56,2344890234338
14.6665832 ,Left ,63,9843847335637 ,46,6910529150654 ,56,2043535410389
14.6894458 ,Left ,63,9632454167572 ,46,682446031388 ,56,1604336838817
14.7040993 ,Left ,63,9650192079507 ,46,6466199494992 ,56,1757383790604
14.7268528 ,Left ,63,9503450482173 ,46,6121513981085 ,56,2090661943639
14.7492467 ,Left ,63,9467891033776 ,46,650338942877 ,56,2262669986871
14.7641117 ,Left ,63,9768792639685 ,46,7166928697928 ,56,2316516082329
14.7868248 ,Left ,64,0358547703709 ,46,7399033209411 ,56,2393921356631
14.8092344 ,Left ,64,1036816584083 ,46,7639352544038 ,56,2317285681755
14.8243953 ,Left ,64,095775521305 ,46,7966554360956 ,56,1868575560956
14.8467281 ,Left ,64,084226514584 ,46,8361683521312 ,56,1204796136657
14.8695447 ,Left ,64,0827841894587 ,46,8807927862317 ,56,0345340471657
14.8841627 ,Left ,64,0538972592809 ,46,919841156666 ,55,9552973512967
14.9069494 ,Left ,64,0385143374909 ,46,9507572275363 ,55,8806296458331
14.9294206 ,Left ,64,0448968430048 ,46,9440554155233 ,55,8289759033319
14.9442846 ,Left ,64,0461686151701 ,46,8921695596705 ,55,8137173872978
14.9665792 ,Left ,64,0340137768388 ,46,7674775501368 ,55,8216364210849
14.9893243 ,Left ,64,0554685778102 ,46,7181380361346 ,55,8182335614764
15.0117417 ,Left ,64,0456203535189 ,46,774060113308 ,55,7973564743109
15.0267976 ,Left ,64,063403650996 ,46,8712140205003 ,55,7995307400094
15.0492094 ,Left ,64,1062630172059 ,46,9718827012147 ,55,8323205452951
15.07167 ,Left ,64,1115383372195 ,47,055441313518 ,55,8732142746142
15.0865688 ,Left ,64,1061160227284 ,47,1266633480716 ,55,8993409713059
15.1094892 ,Left ,64,0636370197767 ,47,1994869259881 ,55,9218248166911
15.1316918 ,Left ,63,9963386392041 ,47,2538581872923 ,55,9398880200014
15.1467577 ,Left ,63,9695775230789 ,47,2360889612649 ,55,9759953064447
15.1693686 ,Left ,63,9608871278258 ,47,1641734790471 ,56,0027791628143
15.1915664 ,Left ,63,9726125748117 ,47,1078195358081 ,56,0060206656716
15.2066985 ,Left ,63,9414844427075 ,47,0754104337374 ,55,9936996713244
15.2292372 ,Left ,63,923435342746 ,47,0296669655803 ,55,9705644507477
15.2515635 ,Left ,63,9133674015824 ,46,9762046665065 ,55,9462653397089
15.2664332 ,Left ,63,911249429423 ,46,9283638448928 ,55,9158730370185
15.2891976 ,Left ,63,8936679537099 ,46,8654088711669 ,55,8697264004038
15.3115573 ,Left ,63,8223881194476 ,46,8229122391707 ,55,8208261339888
15.3340807 ,Left ,63,8377635295499 ,46,821997124566 ,55,8291451120243
15.3565962 ,Left ,63,8826831598172 ,46,8477453682179 ,55,8531468800361
15.379242 ,Left ,63,9748088400449 ,46,8906249796254 ,55,8871469727445
15.4015627 ,Left ,64,008781554531 ,46,9601782905437 ,55,9385467038336
15.424604 ,Left ,63,9652926075561 ,46,9994771696587 ,55,9586790648145
15.4396474 ,Left ,63,9302881463074 ,47,0452969415885 ,55,9710853110466
15.4619242 ,Left ,63,8944135514094 ,47,05552310637 ,55,9627248743972
15.4842989 ,Left ,63,9090901299462 ,46,9622727602526 ,55,9865993051473
15.4994288 ,Left ,63,9334098086173 ,46,8121214597119 ,56,0247426287605
15.5214171 ,Left ,63,9236715761302 ,46,8513012886407 ,56,0204344992631
15.5438936 ,Left ,63,9411317069264 ,46,9696330548771 ,55,9919549703208
15.5589158 ,Left ,63,9721304985103 ,47,0439545467907 ,56,0080260674495
15.5813958 ,Left ,63,954487848668 ,47,1195546476227 ,56,0446103166129
15.6038841 ,Left ,63,8826288704203 ,47,1992319553897 ,56,0674855585258
15.6191437 ,Left ,63,8034615413252 ,47,2732336592932 ,56,0873348255427
15.6415429 ,Left ,63,778634905172 ,47,3103777989279 ,56,1128418011986
15.6791971 ,Left ,63,7265637303136 ,47,3135840417664 ,56,1910705643346
15.7016233 ,Left ,63,6781227572918 ,47,3001808189354 ,56,2111594156234
15.7391165 ,Left ,63,6007139746092 ,47,2721691116991 ,56,1938358944299
15.7615405 ,Left ,63,5614349325688 ,47,2447635254339 ,56,1752578064816
15.7991812 ,Left ,63,4828486783768 ,47,0941195076029 ,56,1246106067133
15.8215554 ,Left ,63,5095007051534 ,47,0411475867292 ,56,1363210245043
15.8438319 ,Left ,63,5269612412924 ,47,1381624685818 ,56,1239054901248
15.8589527 ,Left ,63,5942114966508 ,47,2308107676006 ,56,1514584422224
15.8813138 ,Left ,63,6768360335513 ,47,2633274504636 ,56,2256972996274
15.9040343 ,Left ,63,7257387663908 ,47,290450401376 ,56,2954165420391
15.919253 ,Left ,63,7398855783098 ,47,3218328691787 ,56,318394771045
15.9413207 ,Left ,63,7826227036306 ,47,3659653683227 ,56,323215505415
15.9789679 ,Left ,63,835511867696 ,47,4901085592626 ,56,2781684582061
16.001375 ,Left ,63,8324716765178 ,47,5302549535627 ,56,2496555135572
16.0391799 ,Left ,63,8641852358915 ,47,5816633803083 ,56,1633676088184
16.0615343 ,Left ,63,8606672781097 ,47,595522132704 ,56,0900760458888
16.0992801 ,Left ,63,8204779425902 ,47,6046306695486 ,55,9482813202421
16.1215526 ,Left ,63,7989007280127 ,47,6120718035718 ,55,8832413976141
16.1590798 ,Left ,63,7680597920139 ,47,6671193660892 ,55,7123370785033
16.1890054 ,Left ,63,7311467044395 ,47,7063077925111 ,55,6090538370336
16.2415153 ,Left ,63,5734083096058 ,47,7528335607335 ,55,2637197299154
16.2790709 ,Left ,63,4845227681664 ,47,6239328763421 ,55,062839715511
16.3015752 ,Left ,63,4320354538805 ,47,5161264375257 ,54,9632251099558
16.3465748 ,Left ,63,3689064919815 ,47,3739630687142 ,54,9668034905262
16.3692017 ,Left ,63,416083083259 ,47,4225223591436 ,55,0007427398056
16.3992762 ,Left ,63,5638922020836 ,47,3939614279168 ,55,0977113274902
16.4215439 ,Left ,63,6134997472164 ,47,3893587462 ,55,1237471939795
16.4667261 ,Left ,63,6842872273188 ,47,3464210874652 ,55,176202348058
16.4892494 ,Left ,63,7521137633383 ,47,3142509225947 ,55,1784823528731
16.5192353 ,Left ,63,7625630222858 ,47,3046805335956 ,55,130438270498
16.5415689 ,Left ,63,7573904763406 ,47,2450397948436 ,55,1122661568475
16.5792483 ,Left ,63,7975842524741 ,47,1542056092158 ,55,2000723042547
16.6015804 ,Left ,63,8565958554834 ,47,2404891274875 ,55,2209977089322
16.63917 ,Left ,64,0355683262179 ,47,3421519765179 ,55,3297611697261
16.6615571 ,Left ,64,0535758694012 ,47,3599896465665 ,55,3844399902771
16.6996029 ,Left ,64,0713617798716 ,47,3780707559075 ,55,483141332154
16.7219401 ,Left ,64,0820480311 ,47,378208152598 ,55,5226537920018
16.7590373 ,Left ,64,1240740394683 ,47,2961479376096 ,55,6151173574284
16.7813591 ,Left ,64,1617861515473 ,47,2515462690043 ,55,6804385081201
16.8188104 ,Left ,64,1698878052701 ,47,1696995741961 ,55,8216298477804
16.8413819 ,Left ,64,1553419856397 ,47,1316579687845 ,55,888112027078
16.8791718 ,Left ,64,1323616630146 ,47,0366686130318 ,55,9949862514502
16.9015365 ,Left ,64,1199810561021 ,46,9814276507618 ,56,0608397874044
16.9389787 ,Left ,64,1486145671902 ,46,85223698614 ,56,176426813577
16.9615074 ,Left ,64,1515564140223 ,46,7857214738118 ,56,2347723313902
16.9914605 ,Left ,64,1648388345104 ,46,6732810467007 ,56,3411427416339
17.0214914 ,Left ,64,1582619800666 ,46,6468758105539 ,56,3669281127446
17.0592917 ,Left ,64,1240585303253 ,46,5716021940301 ,56,4221990972918
17.0814999 ,Left ,64,1286480582428 ,46,5464701576598 ,56,461986568395
17.1192825 ,Left ,64,182719777461 ,46,5085271451189 ,56,4886126625735
17.1415163 ,Left ,64,181066192928 ,46,4830054912865 ,56,4791065950141
17.1788508 ,Left ,64,1404801147258 ,46,491437939132 ,56,4478711020718
17.2015742 ,Left ,64,1263470446332 ,46,5023356750225 ,56,4236291559245
17.2314969 ,Left ,64,1069316035718 ,46,5010449482034 ,56,3788605626637
17.2540656 ,Left ,64,0863163746948 ,46,5248397558398 ,56,3497880119776
17.2767919 ,Left ,64,0643577287231 ,46,5550733692671 ,56,316888413609
17.2916604 ,Left ,64,0569549501641 ,46,5913221748983 ,56,2823052540043
17.3142045 ,Left ,64,048398339649 ,46,6340210377337 ,56,2485891210596
17.3368031 ,Left ,64,0195801726797 ,46,6744420648024 ,56,2209144928217
17.3516091 ,Left ,63,9896478512915 ,46,7113884413479 ,56,2001563362109
17.3738433 ,Left ,63,9739290192239 ,46,7384946585757 ,56,1927302148258
17.3972081 ,Left ,63,9346691040775 ,46,7290775973729 ,56,1775851168634
17.4120029 ,Left ,63,8710279184759 ,46,7048345379139 ,56,1739342889806
17.4341613 ,Left ,63,8346705266198 ,46,7156787292075 ,56,2014359635732
17.4567207 ,Left ,63,7583750335445 ,46,767668353445 ,56,2502437680886
17.4713943 ,Left ,63,755451392544 ,46,8810545213977 ,56,2961953295645
17.4940188 ,Left ,63,7944436324761 ,47,0019046661354 ,56,3146965809681
17.5166585 ,Left ,63,8164933787573 ,47,0839228035485 ,56,3095304361396
17.531372 ,Left ,63,841311712271 ,47,1312510523461 ,56,2885445322893
17.5540181 ,Left ,63,8006779101519 ,47,1564141212227 ,56,2376476227847
17.5764597 ,Left ,63,769653669303 ,47,1705313622423 ,56,1732541284929
17.5914375 ,Left ,63,7456454817631 ,47,1679675408707 ,56,0953787852842
17.6139987 ,Left ,63,7397579165205 ,47,1320848915173 ,56,0040174197847
17.6365144 ,Left ,63,7278366352234 ,47,0479435422834 ,55,9314239360488
17.6589111 ,Left ,63,7502958787428 ,46,9128442353841 ,55,9128729269264
17.6739147 ,Left ,63,7577482614733 ,46,779690434477 ,55,9018060115567
17.69641 ,Left ,63,780643222754 ,46,7839844130399 ,55,8722999184638
17.7190942 ,Left ,63,7952785592734 ,46,8389484903459 ,55,8592148092054
17.7337537 ,Left ,63,8363703142816 ,46,8824490174526 ,55,8936951081691
17.7564021 ,Left ,63,8278325655198 ,46,9465480786404 ,55,9183089540191
17.7788514 ,Left ,63,7900244247271 ,47,0053016424012 ,55,9318337075742
17.7937236 ,Left ,63,7601015623558 ,47,0445767613688 ,55,9317113726951
17.8163677 ,Left ,63,7692921689149 ,47,0176317692841 ,55,9704320954698
17.8312803 ,Left ,63,778421294498 ,46,9321619444275 ,56,0270991607099
17.8541227 ,Left ,63,7724147184213 ,46,9673482045161 ,56,0472638840753
17.8767495 ,Left ,63,7541778806387 ,47,0675853649294 ,56,036858395108
17.8990465 ,Left ,63,774237033165 ,47,1538738697335 ,56,0514693251169
17.9140541 ,Left ,63,7428721085656 ,47,2674232648281 ,56,0558260727951
17.9364991 ,Left ,63,6820375894357 ,47,373899115735 ,56,0479430720532
17.9590506 ,Left ,63,6176648411332 ,47,4517689516744 ,56,0385199261754
17.974063 ,Left ,63,590809551675 ,47,5041085403838 ,56,04612960497
18.004052 ,Left ,63,5824766753034 ,47,5077290299309 ,56,0606564804579
18.0267163 ,Left ,63,5666490142877 ,47,4615832608349 ,56,0884279565913
18.0415112 ,Left ,63,5346297360479 ,47,3821200890671 ,56,1169467293645
18.0563243 ,Left ,63,5071385950012 ,47,3197478169278 ,56,1157243211526
18.0796643 ,Left ,63,4855362198 ,47,2525265574342 ,56,1081486563118
18.094547 ,Left ,63,4604317881782 ,47,2046792798538 ,56,1025583712165
18.1172101 ,Left ,63,4606142045936 ,47,2468840973845 ,56,0816045823844
18.1394511 ,Left ,63,4748618917598 ,47,3529377779969 ,56,0555630041919
18.154358 ,Left ,63,5341605210087 ,47,4384831065916 ,56,0516351592174
18.1770779 ,Left ,63,5748686961206 ,47,4886525844255 ,56,0586099267998
18.1995093 ,Left ,63,6011213899645 ,47,5563873294218 ,56,0495282756642
18.2143059 ,Left ,63,6252171885732 ,47,6281700558597 ,56,0049466159382
18.2366492 ,Left ,63,6532814015738 ,47,6988698383804 ,55,9426341545087
18.2590296 ,Left ,63,6720263004659 ,47,7717134790856 ,55,8613277303538
18.2814611 ,Left ,63,6593067499881 ,47,8412645180089 ,55,7738602998684
18.303997 ,Left ,63,6700587247827 ,47,8907835473428 ,55,6956024357733
18.3341347 ,Left ,63,6579577628698 ,47,9463070387082 ,55,5126355022434
18.3567083 ,Left ,63,6266397486234 ,47,954270155074 ,55,4020443256803
18.3789177 ,Left ,63,5990433092663 ,47,954179643555 ,55,2839515364068
18.3938861 ,Left ,63,5863650516006 ,47,9499511150934 ,55,1773340580218
18.4162417 ,Left ,63,5704221372155 ,47,9349465243362 ,55,081244652346
18.4389545 ,Left ,63,551454227312 ,47,9086899009824 ,55,0107889929728
18.4538441 ,Left ,63,5295779479135 ,47,8754178099008 ,54,9611197056887
18.476633 ,Left ,63,4927764364978 ,47,8438018023231 ,54,9230272921979
18.4989561 ,Left ,63,3984696054281 ,47,7867914565599 ,54,8976108185453
18.5138086 ,Left ,63,3539108922814 ,47,7055986845161 ,54,9056493590921
18.5363952 ,Left ,63,3962849870829 ,47,6639369021704 ,54,9654157557066
18.558814 ,Left ,63,4239522943669 ,47,729014685419 ,54,9808810390957
18.5740259 ,Left ,63,4877963393477 ,47,7879660558381 ,54,9807597258066
18.5964069 ,Left ,63,5545790540693 ,47,7485140362145 ,55,015543227341
18.6191842 ,Left ,63,6094305832449 ,47,6805953119064 ,55,0421302069862
18.6341316 ,Left ,63,6903636697515 ,47,6147827185419 ,55,0386471541944
18.6565858 ,Left ,63,7460528792887 ,47,5530163613318 ,55,0369542653393
18.6867444 ,Left ,63,8091257641551 ,47,4981036764315 ,55,0402503564072
18.7016363 ,Left ,63,8895067778584 ,47,4395729400472 ,55,0438735829174
18.724232 ,Left ,63,9444279793286 ,47,4061794935616 ,55,0456874262677
18.7392373 ,Left ,63,9640834066683 ,47,3889289349895 ,55,0463075920069
18.7542767 ,Left ,64,0123672656888 ,47,3494453753512 ,55,0367618631509
18.7768888 ,Left ,64,0943703107957 ,47,2529090885457 ,55,0901086130326
18.7992346 ,Left ,64,1439222025835 ,47,1402544796619 ,55,1762676392505
18.821492 ,Left ,64,1926195913323 ,47,1677804320146 ,55,2190745573525
18.8366315 ,Left ,64,2228815493274 ,47,2840873470731 ,55,2403884685092
18.8589916 ,Left ,64,3058987498627 ,47,3667489747129 ,55,272127310131
18.8814605 ,Left ,64,358282373993 ,47,4270373205625 ,55,3097039238834
18.8965426 ,Left ,64,3646521674711 ,47,4629817424754 ,55,3308183449516
18.9189234 ,Left ,64,3589909348796 ,47,4692352744716 ,55,3515218856689
18.941448 ,Left ,64,3594297994984 ,47,4373348760939 ,55,3719017884562
18.9561341 ,Left ,64,3776154590418 ,47,374901321319 ,55,4019688059467
18.9787385 ,Left ,64,3720179332801 ,47,313016154825 ,55,4370923057136
19.0014064 ,Left ,64,345347330425 ,47,2811987225796 ,55,4684090895127
19.0164107 ,Left ,64,3194366040143 ,47,2528829686309 ,55,4972164058585
19.0387402 ,Left ,64,2984006400775 ,47,2130792898914 ,55,542707729704
19.0612708 ,Left ,64,288841494173 ,47,1589046558011 ,55,5949306739495
19.0765369 ,Left ,64,2741316896431 ,47,1037766599486 ,55,6464912221281
19.0991744 ,Left ,64,2513707617753 ,47,0519421223052 ,55,7089798517206
19.1214556 ,Left ,64,2216859875326 ,47,0022168349585 ,55,7790061353664
19.1365134 ,Left ,64,1808304184746 ,46,9519779200353 ,55,8557899986759
19.1593246 ,Left ,64,1491381453037 ,46,9019782449797 ,55,928594737149
19.181446 ,Left ,64,1249111872611 ,46,8470076054255 ,56,0077156462676
19.1964439 ,Left ,64,1175227381246 ,46,8030474749257 ,56,0828546074177
19.2191872 ,Left ,64,1081548489187 ,46,7568470268562 ,56,1419053409377
19.2414917 ,Left ,64,1267380939763 ,46,7068830873638 ,56,1853224367273
19.2562838 ,Left ,64,1201057255816 ,46,6636284329787 ,56,2101161579897
19.2789726 ,Left ,64,1089659688637 ,46,6346063420823 ,56,2169368521595
19.301212 ,Left ,64,094022864758 ,46,6224112624954 ,56,2139113229343
19.3166179 ,Left ,64,0902553949944 ,46,6115513575795 ,56,2022501738069
19.3389197 ,Left ,64,0930722040536 ,46,5994097364283 ,56,1854705247006
19.3612741 ,Left ,64,086847087778 ,46,5863730187443 ,56,1796431635173
19.3763935 ,Left ,64,0719529271495 ,46,5893102477761 ,56,1814146050532
19.3990831 ,Left ,64,060645458645 ,46,6057212711535 ,56,1843691489733
19.4213725 ,Left ,64,071116716325 ,46,6269187905011 ,56,1720298752677
19.4363765 ,Left ,64,0570159273409 ,46,6250912376002 ,56,1597771656811
19.4591983 ,Left ,64,0381874933291 ,46,6305535058414 ,56,1538605156633
19.481379 ,Left ,64,0011150864171 ,46,6492309035652 ,56,1339186049753
19.4963163 ,Left ,63,9812972049041 ,46,6787519056513 ,56,1053240766833
19.518993 ,Left ,63,9740847711426 ,46,6861779105384 ,56,0621791740758
19.5413408 ,Left ,63,9601133042429 ,46,6762046494171 ,56,0225162550918
19.5564154 ,Left ,63,9392237367828 ,46,6648166353483 ,55,9845019934132
19.5790479 ,Left ,63,9191044554188 ,46,6594463584532 ,55,9469248565
19.6091753 ,Left ,63,8779702459639 ,46,6340654269117 ,55,9338903585563
19.6241249 ,Left ,63,8634299366386 ,46,5846965256312 ,55,9895621082176
19.6465321 ,Left ,63,8589839458244 ,46,5960295212092 ,56,0811810007927
19.6615162 ,Left ,63,8273741993246 ,46,7332514599197 ,56,1142102293382
19.6840882 ,Left ,63,854664486243 ,46,8847447149798 ,56,1113091865673
19.69879 ,Left ,63,8813050372117 ,46,9739241035421 ,56,1070121604462
19.7289711 ,Left ,63,9286064040034 ,47,0234582382464 ,56,0937805114601
19.7519408 ,Left ,63,8985008719582 ,47,0271782438535 ,56,0603083630661
19.7670138 ,Left ,63,8649030969998 ,47,0240446403165 ,56,0014034179901
19.7820846 ,Left ,63,8311690617936 ,46,9867790118345 ,55,9185146734728
19.804408 ,Left ,63,7891878991371 ,46,9030953666113 ,55,8506404079228
19.8193749 ,Left ,63,7940465502361 ,46,7631318045446 ,55,8186118585831
19.8415568 ,Left ,63,7765987726709 ,46,6523632728687 ,55,8090415239876
19.8641405 ,Left ,63,7929193562462 ,46,6198137990685 ,55,7833561288462
19.8791145 ,Left ,63,8253674026477 ,46,6749931117945 ,55,7521892997556
19.9020366 ,Left ,63,8507772947289 ,46,7318178445739 ,55,7574495371707
19.9247149 ,Left ,63,8794759150735 ,46,7873209975679 ,55,79049323274
19.9395105 ,Left ,63,8717155738046 ,46,8422905990098 ,55,8112678945953
19.9620097 ,Left ,63,8320214963035 ,46,8781380300712 ,55,8321517441497
19.9915341 ,Left ,63,7947651705102 ,46,8788412909049 ,55,8397400558179
20.006644 ,Left ,63,7802851462825 ,46,8284763763483 ,55,8700953298032
20.0290966 ,Left ,63,7774892197162 ,46,7200217145578 ,55,9076668698617
20.0591086 ,Left ,63,7441437292554 ,46,8126405429095 ,55,9208467118804
20.081578 ,Left ,63,747195328677 ,46,8941983322398 ,55,9397975865349
20.1042288 ,Left ,63,7260403938489 ,46,9936091906128 ,55,9643712400153
20.1191811 ,Left ,63,6766297558994 ,47,0928706101213 ,55,9801124145278
20.1414361 ,Left ,63,6085415784723 ,47,1807330223987 ,56,0017991235942
20.1640409 ,Left ,63,5615888224649 ,47,2637349700439 ,56,0228993681032
20.1791666 ,Left ,63,5299127774373 ,47,2988260377021 ,56,0516189654067
20.2015226 ,Left ,63,5063745020549 ,47,2858922402794 ,56,1054012199172
20.2242187 ,Left ,63,4749450781566 ,47,2414081394003 ,56,1558974327492
20.2392244 ,Left ,63,4332303559191 ,47,2125273979751 ,56,1741284673175
20.269248 ,Left ,63,3505988237165 ,47,1900760177199 ,56,1709455200666
20.2915627 ,Left ,63,2964277004836 ,47,1815983163736 ,56,1650167867635
20.3067513 ,Left ,63,2351069726904 ,47,1938778867205 ,56,1508477490277
20.3291163 ,Left ,63,1922688247648 ,47,2409345496694 ,56,140388899705
20.3441775 ,Left ,63,2493482015124 ,47,299067255414 ,56,1584819702359
20.3592381 ,Left ,63,3534628550765 ,47,3593317460042 ,56,1958294360725
20.3815748 ,Left ,63,4285599416828 ,47,4013223771469 ,56,2124766854083
20.4040634 ,Left ,63,4832116120827 ,47,4702836963001 ,56,1946007509313
20.4191629 ,Left ,63,5061249741983 ,47,5455785531347 ,56,1425104963117
20.4414124 ,Left ,63,5038864841211 ,47,6324727733552 ,56,0819309277063
20.4716337 ,Left ,63,5015149343353 ,47,734783727298 ,56,0020309271892
20.4942255 ,Left ,63,4887154450442 ,47,8271303021202 ,55,9114122451963
20.5167659 ,Left ,63,4964153323141 ,47,8856170325084 ,55,8323448781987
20.5315382 ,Left ,63,5216656320312 ,47,9160609302157 ,55,7501899745113
20.5465982 ,Left ,63,5215346712733 ,47,9415383436329 ,55,6435608923034
20.5616343 ,Left ,63,5087087223181 ,47,9687733799752 ,55,520405751861
20.5841505 ,Left ,63,4963887875633 ,47,9870484300507 ,55,4061777884847
20.6067517 ,Left ,63,5006146803252 ,47,9972163366013 ,55,2931612879639
20.6215279 ,Left ,63,4786874659029 ,47,9874199426188 ,55,197291328307
20.6441761 ,Left ,63,4709635089873 ,47,9530434014809 ,55,1297128523951
20.6668077 ,Left ,63,4518023640378 ,47,9092480036658 ,55,0690320748501
20.6814629 ,Left ,63,4280439008455 ,47,8447690219826 ,55,0036675045042
20.7040537 ,Left ,63,4521919330599 ,47,7643624170835 ,54,9811568968263
20.7266318 ,Left ,63,478296384147 ,47,7113604437532 ,54,9970194640885
20.7414806 ,Left ,63,5250620002762 ,47,7402896615442 ,55,0639464279294
20.7715779 ,Left ,63,6189796079931 ,47,7875923645597 ,55,1095447658315
20.7941541 ,Left ,63,716665414925 ,47,7842175929166 ,55,1454566738612
20.809187 ,Left ,63,8167468774926 ,47,7633524827983 ,55,1758730833719
20.831372 ,Left ,63,8896375342843 ,47,7517238718309 ,55,1884732811602
20.8463591 ,Left ,63,9408711745495 ,47,7399438416958 ,55,1922587107952
20.8613851 ,Left ,64,0149871941354 ,47,7223863492762 ,55,1800684041763
20.8840051 ,Left ,64,0603053496819 ,47,682206804445 ,55,163995855298
20.9067434 ,Left ,64,0728145599279 ,47,6773292274882 ,55,1420592599388
20.9215492 ,Left ,64,0563512253592 ,47,6883494566041 ,55,0987204591029
20.9439345 ,Left ,64,0519863500001 ,47,6339449428042 ,55,0562059196882
20.9663569 ,Left ,64,0840941286964 ,47,5257156254697 ,55,0826078351994
20.9813601 ,Left ,64,0942848493268 ,47,4131722941592 ,55,1271977054501
21.0039049 ,Left ,64,1296413393646 ,47,4342033027305 ,55,1631456833088
21.026757 ,Left ,64,1754181806805 ,47,5530985579679 ,55,1634631103692
21.0416022 ,Left ,64,2488419366155 ,47,6419705338554 ,55,1791311581603
21.0641508 ,Left ,64,2748895985419 ,47,6563559058824 ,55,2277204979406
21.0866564 ,Left ,64,296801063333 ,47,6528490854737 ,55,270334585095
21.1015914 ,Left ,64,3135082951921 ,47,6271556231731 ,55,2980549919977
21.1166347 ,Left ,64,3316528960259 ,47,5790847679288 ,55,3262383872435
21.1388012 ,Left ,64,3402481405557 ,47,5087143837031 ,55,3504947144345
21.1538815 ,Left ,64,3372460658798 ,47,421586612089 ,55,386384270818
21.1763443 ,Left ,64,3260255664134 ,47,3669199294086 ,55,4315914326521
21.2145104 ,Left ,64,3078594446182 ,47,3185484849021 ,55,5145834514237
21.2372047 ,Left ,64,3136864625041 ,47,2776722303341 ,55,5774658263583
21.2740577 ,Left ,64,2654661668026 ,47,1868466385329 ,55,7120450114588
21.2965791 ,Left ,64,2310550405213 ,47,1611905260536 ,55,7845601500684
21.3339984 ,Left ,64,176580869504 ,47,1535628553023 ,55,9140028267776
21.356553 ,Left ,64,165468241848 ,47,139684297703 ,55,9606325482414
21.3940842 ,Left ,64,1354187588782 ,47,0842334641699 ,56,02617433849
21.4165669 ,Left ,64,1244174333682 ,47,0720606595533 ,56,0336577148226
21.4540384 ,Left ,64,1152594502178 ,47,024929968153 ,56,0363988897708
21.4767718 ,Left ,64,1072970561137 ,47,0015596614919 ,56,0433822728071
21.5143345 ,Left ,64,0860426658597 ,46,9940413927718 ,56,050986370642
21.5368842 ,Left ,64,0909623276352 ,46,994902289326 ,56,0382751465995
21.5741753 ,Left ,64,0706468672508 ,47,005793535232 ,56,0079708944644
21.5966386 ,Left ,64,0539823631029 ,47,0142018601671 ,55,998447117136
21.6342718 ,Left ,64,0062059553628 ,47,0043929306816 ,55,9698460918266
21.6568651 ,Left ,63,9891555673995 ,46,9967947576112 ,55,9616979399047
21.6942889 ,Left ,63,9402275649985 ,47,006720700083 ,55,9380008043894
21.7168293 ,Left ,63,9458374338351 ,47,0125531172098 ,55,9053398197585
21.754033 ,Left ,63,9175954564356 ,46,9665929340426 ,55,8426792744066
21.7765582 ,Left ,63,8621180620198 ,46,9507446653976 ,55,8247140975587
21.8139356 ,Left ,63,8888351692908 ,46,8924395982452 ,55,9022646161825
21.8366363 ,Left ,63,9055830095105 ,46,9536085416996 ,55,9426497500269
21.8745803 ,Left ,63,9662029563833 ,47,0953008609047 ,55,9581477716804
21.8970079 ,Left ,63,9799473689721 ,47,1406682238332 ,55,9436978544427
21.9344167 ,Left ,63,909527920303 ,47,1733195542318 ,55,8546883887893
21.956345 ,Left ,63,8701710890808 ,47,1727310329142 ,55,7885320814488
21.9940244 ,Left ,63,8212028997933 ,47,0588168319378 ,55,6996809372197
22.0166061 ,Left ,63,8105810108961 ,46,9376943411503 ,55,7311640483642
22.0540174 ,Left ,63,8444680854618 ,46,9844370414677 ,55,6860018848282
22.076758 ,Left ,63,8746016732969 ,47,0757293266607 ,55,6805692912915
22.1140836 ,Left ,63,861887709084 ,47,2244350130088 ,55,76103562704
22.13675 ,Left ,63,7888468789956 ,47,3110856020866 ,55,8048253065796
22.1740317 ,Left ,63,7265885566693 ,47,3515514135629 ,55,9041059677331
22.1965982 ,Left ,63,76069139862 ,47,255666202142 ,55,971253890617
22.2341029 ,Left ,63,7505565535476 ,47,4208432226513 ,55,9025057988333
22.2566989 ,Left ,63,7602380174623 ,47,4996513585711 ,55,8918079006936
22.2941243 ,Left ,63,7087936236954 ,47,6821167983161 ,55,8917333620452
22.3167238 ,Left ,63,6456586052863 ,47,7684046982589 ,55,894475182292
22.354645 ,Left ,63,6046573549473 ,47,8364190981921 ,55,9352010368628
22.3770844 ,Left ,63,5881644465693 ,47,7835929169003 ,55,9727625393744
22.4141672 ,Left ,63,5024776790408 ,47,6254632016789 ,56,0373735543074
22.4367918 ,Left ,63,4957118760992 ,47,5282694125443 ,56,0448391407908
22.4742004 ,Left ,63,5091199003366 ,47,5740821131934 ,55,9863347464789
22.4966575 ,Left ,63,5476824073312 ,47,6842123277779 ,55,9584837360636
22.5340935 ,Left ,63,6700699989126 ,47,8351474502615 ,55,9530713216233
22.564078 ,Left ,63,6831815077506 ,47,9057293777497 ,55,9215866689612
22.6165775 ,Left ,63,6922547905856 ,48,1183539663837 ,55,7130683382612
22.6541977 ,Left ,63,6784119939027 ,48,2187528831552 ,55,5173995598222
22.6766443 ,Left ,63,6511396624618 ,48,2553300316626 ,55,4091149382481
22.7140495 ,Left ,63,5973739141335 ,48,2512629445804 ,55,1880901930092
22.7368126 ,Left ,63,570974795103 ,48,2282644154887 ,55,0948235680385
22.7741903 ,Left ,63,489380200735 ,48,2086390272981 ,54,9261175880251
22.7964153 ,Left ,63,4492377951854 ,48,1713923106446 ,54,8636586213439
22.8342422 ,Left ,63,3871769742567 ,48,0634213340987 ,54,8088493739462
22.8565945 ,Left ,63,392069904201 ,48,0810822584542 ,54,829839438982
22.8942053 ,Left ,63,5306608032869 ,48,0930779942119 ,54,8992033420739
22.9166742 ,Left ,63,5897157425698 ,48,0247892494965 ,54,9583488204128
22.9539874 ,Left ,63,7106313504415 ,47,9781792556744 ,55,0104930555794
22.9765547 ,Left ,63,7674942085706 ,47,9769705509924 ,55,0410441416708
22.9913744 ,Left ,63,826334805193 ,47,9743079164425 ,55,0644646115067
23.0064448 ,Left ,63,870835478226 ,47,9798630068241 ,55,0805454643646
23.0292024 ,Left ,63,8834433336202 ,47,9921351159641 ,55,0906484901188
23.051612 ,Left ,63,8666239954419 ,47,9791508970256 ,55,1020284270945
23.0665252 ,Left ,63,8540887742587 ,47,9179849762244 ,55,1262176781003
23.0893204 ,Left ,63,8567589812365 ,47,7667472775277 ,55,1842987253662
23.1115779 ,Left ,63,8102692357521 ,47,6132427642996 ,55,2214853686586
23.1265192 ,Left ,63,7594009697171 ,47,6091395475437 ,55,2195624446715
23.1490979 ,Left ,63,7060193525528 ,47,7171623967662 ,55,1917438911651
23.1715957 ,Left ,63,7278577640733 ,47,7828631060839 ,55,2082940528474
23.1864883 ,Left ,63,7657661658632 ,47,7714318233438 ,55,2578826667058
23.2090302 ,Left ,63,7848969340706 ,47,7622637364182 ,55,3109226228217
23.2315914 ,Left ,63,8004192119139 ,47,7461891564823 ,55,3474885493289
23.246613 ,Left ,63,8235695785174 ,47,7402486950647 ,55,3863219039594
23.2691836 ,Left ,63,8480756453473 ,47,7376778386356 ,55,4228852849163
23.2912482 ,Left ,63,858400243945 ,47,7163088668884 ,55,4722788141379
23.3064338 ,Left ,63,8589614824625 ,47,6861403948922 ,55,5308945683421
23.3288815 ,Left ,63,8845876033811 ,47,64542567899 ,55,5917227007389
23.3513012 ,Left ,63,8747190608797 ,47,6195959948818 ,55,6457672947182
23.3661937 ,Left ,63,8752374156567 ,47,5883890650244 ,55,6976509693807
23.3894607 ,Left ,63,8535979039119 ,47,5618141483993 ,55,7444110492232
23.4120408 ,Left ,63,8545889930097 ,47,533972922855 ,55,7891933342371
23.4345229 ,Left ,63,8412055062612 ,47,5007949063902 ,55,8422229144077
23.4493513 ,Left ,63,8515540973455 ,47,4625273942435 ,55,9043721471069
23.4716828 ,Left ,63,8485429741125 ,47,4282808266409 ,55,9634472602348
23.4867765 ,Left ,63,8566228675211 ,47,3793892992176 ,56,0117837524549
23.5093064 ,Left ,63,8715269392568 ,47,3024725089631 ,56,0564817999566
23.5315921 ,Left ,63,8904288847646 ,47,2237530308401 ,56,0981699077131
23.5540995 ,Left ,63,8906412609979 ,47,1636618887395 ,56,1288274710607
23.5690029 ,Left ,63,8865663384266 ,47,1111507998947 ,56,1445825907885
23.5915519 ,Left ,63,8889806335889 ,47,0529334437485 ,56,1472413886332
23.6140675 ,Left ,63,8816060275161 ,46,9902235696201 ,56,1410549222111
23.6292481 ,Left ,63,8764836570109 ,46,9296628013213 ,56,1333950474203
23.6515899 ,Left ,63,8623097259545 ,46,8913907459386 ,56,1209398310044
23.6742556 ,Left ,63,8253653117537 ,46,8680073416146 ,56,1060362957573
23.6892476 ,Left ,63,8126694188081 ,46,8535584571609 ,56,10223974807
23.7116495 ,Left ,63,8139084809875 ,46,8327987670086 ,56,0994779983023
23.7341802 ,Left ,63,8156786405067 ,46,8013368186699 ,56,105183546165
23.7489689 ,Left ,63,8087087825287 ,46,7841186490001 ,56,1175786773686
23.7716658 ,Left ,63,7987048244782 ,46,7789856831581 ,56,1284777603155
23.7942304 ,Left ,63,7987048244782 ,46,7789856831581 ,56,1284777603155
23.8089996 ,Left ,63,8006619224712 ,46,7767746689318 ,56,1230501943775
23.8315861 ,Left ,63,7953567302116 ,46,7839713404543 ,56,1153936619615
23.854158 ,Left ,63,7791685172953 ,46,8092758789194 ,56,1113261033759
23.8692362 ,Left ,63,7753361895201 ,46,8419302807395 ,56,0994297481488
23.8915292 ,Left ,63,7852424397265 ,46,848870019964 ,56,0935689566562
23.914193 ,Left ,63,8074321314775 ,46,8196525484797 ,56,0890834616094
23.9291596 ,Left ,63,8240264751547 ,46,7976907788393 ,56,0811651404575
23.9516057 ,Left ,63,8298780297099 ,46,8052602844379 ,56,057981177375
23.9740572 ,Left ,63,7837247587933 ,46,8036952539844 ,56,0113658807912
23.9892456 ,Left ,63,7735123153852 ,46,7592271563932 ,55,9963973035193
24.0115342 ,Left ,63,7810463023447 ,46,7402543016518 ,56,0228986290783
24.0342009 ,Left ,63,7854960741734 ,46,8188871796909 ,56,0468446843587
24.0489819 ,Left ,63,8189537229646 ,46,9399567010963 ,56,0588938351989
24.0715307 ,Left ,63,8682596973793 ,47,0187148566491 ,56,065303818525
24.0942486 ,Left ,63,9455196907843 ,47,045876073529 ,56,0708415415536
24.1092208 ,Left ,63,9272316139329 ,47,0874027172049 ,56,0519509695653
24.1315849 ,Left ,63,8726467958448 ,47,1206040166606 ,56,022905877844
24.1542237 ,Left ,63,8516640086679 ,47,1417700055138 ,55,970712381773
24.1690539 ,Left ,63,8165024657033 ,47,1395949917589 ,55,9060524903558
24.1917927 ,Left ,63,8029477462129 ,47,1093377960029 ,55,8524430703077
24.2140623 ,Left ,63,7915856042875 ,47,0593114286596 ,55,8079732278115
24.2289931 ,Left ,63,7296620925368 ,46,9767380285382 ,55,7694237268896
24.2515009 ,Left ,63,7437962449754 ,46,8871562751256 ,55,7690607920539
24.2742183 ,Left ,63,7028119255633 ,46,8474638097195 ,55,7716675277568
24.2892485 ,Left ,63,6583704730217 ,46,9203124139175 ,55,767498868102
24.3116854 ,Left ,63,6544842281726 ,47,0020059460941 ,55,7752590866488
24.3339934 ,Left ,63,682520930509 ,47,0472312268081 ,55,8082246176549
24.3490165 ,Left ,63,6819375792558 ,47,1047199984662 ,55,8383183836081
24.3792117 ,Left ,63,6716312453559 ,47,1564877453693 ,55,8480801366117
24.4015072 ,Left ,63,6736209595212 ,47,2174821414518 ,55,8552048549101
24.4166206 ,Left ,63,647575321048 ,47,3055596867161 ,55,8420265678436
24.4390836 ,Left ,63,6201910678081 ,47,3454833954922 ,55,8156105579379
24.4540481 ,Left ,63,5747369594173 ,47,3073490047448 ,55,8072719619363
24.4689159 ,Left ,63,6128247805706 ,47,2345707039294 ,55,8390288785817
24.4915455 ,Left ,63,625012865899 ,47,153821813152 ,55,8669098899304
24.514065 ,Left ,63,6324512085636 ,47,1899829082006 ,55,8784876874237
24.5368629 ,Left ,63,6709015527758 ,47,2727409796301 ,55,8864995372696
24.5517443 ,Left ,63,7024072016564 ,47,3343284996451 ,55,9295509491116
24.5741737 ,Left ,63,6835480008623 ,47,429091319758 ,55,9714342669159
24.5967072 ,Left ,63,6314261035868 ,47,5299348547572 ,55,9941091864604
24.6115614 ,Left ,63,5989118043435 ,47,6137364971158 ,56,0113938055878
24.6342234 ,Left ,63,576964388733 ,47,6524064840487 ,56,0458002942121
24.6642066 ,Left ,63,5351649550222 ,47,6615510114012 ,56,0974163300869
24.6791345 ,Left ,63,5059568520999 ,47,6529991763327 ,56,1349751145982
24.701502 ,Left ,63,4625983142198 ,47,6260736708467 ,56,1816130578856
24.7165894 ,Left ,63,4006560896951 ,47,5378552943187 ,56,2583466998784
24.7315009 ,Left ,63,4140213709644 ,47,4151756376619 ,56,3301758097497
24.7540766 ,Left ,63,4152655288051 ,47,4368071276412 ,56,3154440973475
24.7840896 ,Left ,63,3831785782171 ,47,5773862917261 ,56,2426481838555
24.7989872 ,Left ,63,4049209758966 ,47,6734663930912 ,56,2057971101153
24.8213588 ,Left ,63,5149373699859 ,47,7128491516344 ,56,2163119330726
24.8365135 ,Left ,63,5917490026418 ,47,7388420503384 ,56,2204331856156
24.8512613 ,Left ,63,6361078512574 ,47,7870142841239 ,56,1789572809368
24.874119 ,Left ,63,6777848331042 ,47,8627823575787 ,56,1125956973891
24.8966883 ,Left ,63,7067622208666 ,47,9558425579148 ,56,0257809869066
24.9115489 ,Left ,63,7166321203798 ,48,0475467241859 ,55,9224318165154
24.9416525 ,Left ,63,72084943047 ,48,1171822783593 ,55,8139098169932
24.9641438 ,Left ,63,7192763713474 ,48,1682337129369 ,55,7097987816199
24.979228 ,Left ,63,709215478678 ,48,1873509528071 ,55,6091407142997
24.9942404 ,Left ,63,6977899318578 ,48,172019342349 ,55,5122415280415
25.016559 ,Left ,63,6811145239245 ,48,1469723732033 ,55,415474182128
25.0315156 ,Left ,63,6502112329953 ,48,1292198944121 ,55,3086820591242
25.0539962 ,Left ,63,6084209727563 ,48,1086453160645 ,55,2028444754877
25.0765684 ,Left ,63,5652024553594 ,48,0709319921197 ,55,1158321604319
25.0919711 ,Left ,63,5406448854013 ,48,0072425129981 ,55,0674573717225
25.1146036 ,Left ,63,4694522233469 ,47,9313260381621 ,55,046138567897
25.1371884 ,Left ,63,3856576243709 ,47,8712703936961 ,55,0474739527698
25.1516551 ,Left ,63,3595326051925 ,47,8194095787472 ,55,063794299886
25.1744604 ,Left ,63,3936592263248 ,47,8313218903558 ,55,0799535216888
25.1968188 ,Left ,63,4553186613285 ,47,8708439663657 ,55,1040702700273
25.2117302 ,Left ,63,5126716455179 ,47,8407211746341 ,55,14123926426
25.2344096 ,Left ,63,5836262215406 ,47,7850203151131 ,55,1711846162178
25.2570227 ,Left ,63,6410310739533 ,47,7571781894439 ,55,1699452658624
25.2716027 ,Left ,63,6603525747721 ,47,7372449246216 ,55,1677253414145
25.3017812 ,Left ,63,7011029555669 ,47,7157535417506 ,55,1734423302458
25.3315705 ,Left ,63,7420867620581 ,47,6617118784894 ,55,1885261011065
25.3467947 ,Left ,63,781527115688 ,47,6122042028978 ,55,199015869616
25.3617316 ,Left ,63,7790537292761 ,47,573700125991 ,55,1949498361554
25.3919924 ,Left ,63,7134851229233 ,47,490660878003 ,55,1969419510192
25.4141811 ,Left ,63,6671789616874 ,47,4562793238601 ,55,1836544603776
25.4366578 ,Left ,63,6609499415555 ,47,4057569676485 ,55,2116337302359
25.4593475 ,Left ,63,7145566994067 ,47,3995867493701 ,55,2522793996493
25.4742053 ,Left ,63,738152733474 ,47,4480775981884 ,55,2629089559183
25.5041297 ,Left ,63,7931798153267 ,47,4825419656078 ,55,2718445103066
25.5267531 ,Left ,63,8395186736498 ,47,4701568774786 ,55,3098730717245
25.541643 ,Left ,63,892686485405 ,47,4732498414729 ,55,3398314158055
25.556914 ,Left ,63,9084627721669 ,47,4770138686564 ,55,3568549266045
25.5790656 ,Left ,63,9223161897314 ,47,4669451608207 ,55,376304082278
25.5939096 ,Left ,63,9431027060716 ,47,4398392698603 ,55,3970275924724
25.6165836 ,Left ,63,9480966338368 ,47,3950700289621 ,55,4249319486756
25.6391927 ,Left ,63,9501120608458 ,47,3455750246894 ,55,4638505796155
25.6540515 ,Left ,63,9450790272811 ,47,2963806201709 ,55,509309756147
25.6768163 ,Left ,63,9404332460751 ,47,2430296900281 ,55,5734902363953
25.6991521 ,Left ,63,9221532571997 ,47,194698488137 ,55,6505142694614
25.7141057 ,Left ,63,9223545516869 ,47,136047989721 ,55,7318544547903
25.736755 ,Left ,63,9290017626975 ,47,0786617833205 ,55,8026306164241
25.7593485 ,Left ,63,9143545391383 ,47,0252203285529 ,55,8801245539396
25.7741736 ,Left ,63,8930719390746 ,46,9578965598537 ,55,95812716412
25.7965566 ,Left ,63,8732496965743 ,46,9001042547366 ,56,0341400093954
25.8191007 ,Left ,63,8513251048428 ,46,8486651432017 ,56,0926645815287
25.8340993 ,Left ,63,8269719608786 ,46,7941966991753 ,56,1502287150765
25.8567629 ,Left ,63,8158581904712 ,46,7356291721015 ,56,2198543664922
25.879102 ,Left ,63,8166235568184 ,46,6905762753237 ,56,2902486224771
25.8942024 ,Left ,63,8159803076332 ,46,6610245295572 ,56,3615665450192
25.9167541 ,Left ,63,8358657933155 ,46,6351918843704 ,56,4187251959319
25.9390884 ,Left ,63,8568779421707 ,46,5899952970322 ,56,4467930830131
25.9540759 ,Left ,63,8475201776652 ,46,558001421168 ,56,4504980471495
25.9768074 ,Left ,63,8312827423318 ,46,5674119814599 ,56,4348100145695
25.9987704 ,Left ,63,8165485445085 ,46,5986850970297 ,56,4000383967891
26.0144261 ,Left ,63,8463471583624 ,46,6271547061315 ,56,3437443350879
26.0371912 ,Left ,63,8659934922286 ,46,6371108734315 ,56,2899931809718
26.0592698 ,Left ,63,8723142545703 ,46,6437227163879 ,56,2554692640729
26.073828 ,Left ,63,8603323469816 ,46,6788887508058 ,56,2293449130017
26.096553 ,Left ,63,843684447942 ,46,7424680590888 ,56,1959712155863
26.1190095 ,Left ,63,8321509733408 ,46,7941360648428 ,56,1440179932879
26.1340388 ,Left ,63,8055165774216 ,46,8085301325905 ,56,0994964410262
26.1565314 ,Left ,63,8051000243314 ,46,8180029916052 ,56,0617063215508
26.179222 ,Left ,63,76396191344 ,46,8484764722797 ,56,0185540497031
26.194254 ,Left ,63,7352245184336 ,46,8887305379258 ,55,9618264389818
26.2167069 ,Left ,63,722289461495 ,46,8854992948457 ,55,8787955948224
26.2390462 ,Left ,63,7107858260981 ,46,8584058799556 ,55,8231043383367
26.2612792 ,Left ,63,6470478661398 ,46,841734457534 ,55,7833864803366
26.2766213 ,Left ,63,6294667054223 ,46,7922942593802 ,55,7729100670106
26.2991563 ,Left ,63,6430834972199 ,46,7527405643914 ,55,7901158870864
26.3214343 ,Left ,63,6819377305811 ,46,8115504642245 ,55,7934012187987
26.3441327 ,Left ,63,715044014131 ,46,9324279835762 ,55,7743814363455
26.3666955 ,Left ,63,7264739160059 ,47,0163991278921 ,55,7695747716724
26.3814744 ,Left ,63,8142423048494 ,47,0611405671437 ,55,7845169049609
26.3963628 ,Left ,63,8408995742495 ,47,0765980746947 ,55,7715398600055
26.4190596 ,Left ,63,8513036775624 ,47,0850296474813 ,55,7401261467379
26.4414463 ,Left ,63,8477325017702 ,47,0913102164853 ,55,696461585472
26.4566558 ,Left ,63,8073658460056 ,47,0988412064155 ,55,6539975343398
26.4789697 ,Left ,63,775887318054 ,47,0896147335422 ,55,610667016988
26.5014893 ,Left ,63,7580666495772 ,47,0555788412772 ,55,5622463292646
26.5166779 ,Left ,63,7359649718408 ,46,9512411099926 ,55,5602491141733
26.5392738 ,Left ,63,7598127135164 ,46,8216028380346 ,55,5986463922327
26.5613993 ,Left ,63,7844876201002 ,46,7915691681518 ,55,600188491415
26.5764958 ,Left ,63,7959215634529 ,46,8613168038255 ,55,5892640855378
26.6067926 ,Left ,63,8130891428619 ,46,9109072930645 ,55,60896654535
26.6291747 ,Left ,63,8297914034111 ,46,9687543852351 ,55,6395344989688
26.6441431 ,Left ,63,7963274995979 ,47,0351588365121 ,55,6562421467905
26.6589975 ,Left ,63,7339844337827 ,47,0922734674566 ,55,6517585699008
26.6813703 ,Left ,63,7096439383748 ,47,1193815396931 ,55,6335408534542
26.696249 ,Left ,63,7008599390842 ,47,0600536802521 ,55,6574470330049
26.719144 ,Left ,63,7195894793467 ,46,944888324966 ,55,7137210675991
26.7414704 ,Left ,63,7116409981471 ,46,9545718011371 ,55,733378040633
26.7565384 ,Left ,63,7202774607061 ,47,0779482771514 ,55,7157419251019
26.7791778 ,Left ,63,7528728328754 ,47,1682139263656 ,55,7296211473905
26.8016315 ,Left ,63,7493447088245 ,47,2661926863203 ,55,7670788309332
26.8167856 ,Left ,63,6907140739629 ,47,3785526652176 ,55,8039509646764
26.8466539 ,Left ,63,6296347697767 ,47,480986934135 ,55,8408268741862
26.8765244 ,Left ,63,58970948173 ,47,5512088586708 ,55,8802517866427
26.8841028 ,Left ,63,5679412807508 ,47,575963235659 ,55,9306773627789
26.8991253 ,Left ,63,5474377248357 ,47,5409985040249 ,55,9828589600537
26.9218734 ,Left ,63,506436095769 ,47,4723286274374 ,56,0203345776553
26.9296636 ,Left ,63,4716747795126 ,47,4166521638117 ,56,0177945052063
26.9520566 ,Left ,63,4023198284949 ,47,3525750165994 ,55,9938462005624
26.9746139 ,Left ,63,3727807600049 ,47,2732702431199 ,55,9792130521194
26.9896711 ,Left ,63,3869755617422 ,47,2538491597667 ,55,9858601653993
27.0116396 ,Left ,63,3805018214616 ,47,3808276675457 ,55,9667814347792
27.0341038 ,Left ,63,4458792072219 ,47,5056626128667 ,55,9733848510082
27.0491466 ,Left ,63,5466352543118 ,47,5764026791839 ,56,0094259193267
27.0714991 ,Left ,63,6126402125827 ,47,630339901986 ,56,0385450856264
27.0940961 ,Left ,63,6306577538904 ,47,6880100648069 ,56,027289307249
27.116328 ,Left ,63,6541419891612 ,47,7456978233077 ,55,9894549231205
27.1391241 ,Left ,63,6797872547988 ,47,8159851095813 ,55,9293338919155
27.1689825 ,Left ,63,6631892523031 ,47,9199177224075 ,55,7939381701299
27.1920331 ,Left ,63,6676513726514 ,47,9427086521649 ,55,7427851373555
27.2296774 ,Left ,63,6928305478569 ,47,9323198140299 ,55,6337155240637
27.2518257 ,Left ,63,6744632683236 ,47,9521782100147 ,55,5481801668328
27.2743697 ,Left ,63,6483665322575 ,47,9798919358251 ,55,4443780503904
27.2896464 ,Left ,63,6329465961868 ,48,0046742230667 ,55,3374905943454
27.3116921 ,Left ,63,6121486662881 ,48,0212772517962 ,55,2270602418808
27.3340525 ,Left ,63,575480430828 ,48,0365645938912 ,55,1156735917452
27.3491842 ,Left ,63,5226284138869 ,48,0399082962258 ,54,9992706249956
27.3714609 ,Left ,63,4719900760749 ,48,025113210249 ,54,8923775105819
27.3939198 ,Left ,63,4145070903829 ,47,9688073327386 ,54,8172513740891
27.4096804 ,Left ,63,4091302824672 ,47,8740987261949 ,54,7819774874687
27.4319269 ,Left ,63,4144959113751 ,47,7924338525536 ,54,8176953198026
27.4544497 ,Left ,63,4830660214784 ,47,8393401854381 ,54,8426649687618
27.4697539 ,Left ,63,5894483967372 ,47,8877725756045 ,54,877693606976
27.4918058 ,Left ,63,721231402359 ,47,8628394339107 ,54,9387106899051
27.5136912 ,Left ,63,8070603978526 ,47,8152312051628 ,54,9873406275382
27.5288028 ,Left ,63,8601757791437 ,47,8013217513387 ,55,018459228255
27.5590114 ,Left ,63,91860258074 ,47,7776203041052 ,55,0494875739823
27.5814699 ,Left ,64,001710004038 ,47,7391738586248 ,55,0696056094089
27.5964886 ,Left ,64,0631769651442 ,47,6896947895216 ,55,0753178880536
27.6116683 ,Left ,64,1090191292041 ,47,6725522322842 ,55,0651496064188
27.649131 ,Left ,64,1141812276284 ,47,6069596710184 ,55,0194005206885
27.6714257 ,Left ,64,1037833569265 ,47,5256559719234 ,55,0297012454765
27.6940902 ,Left ,64,1097643443948 ,47,4650863936864 ,55,0765008792979
27.7090342 ,Left ,64,1338252693575 ,47,5022013623254 ,55,128751655426
27.7315297 ,Left ,64,183624500979 ,47,5659468247007 ,55,1738526611765
27.7542082 ,Left ,64,2395488390441 ,47,6039175306945 ,55,2337836257609
27.7916211 ,Left ,64,282261380228 ,47,6050903812797 ,55,338271891874
27.8291453 ,Left ,64,2783866695768 ,47,5757751249487 ,55,4300695620958
27.8514019 ,Left ,64,2672356790221 ,47,5363120366565 ,55,4714330890182
27.8890759 ,Left ,64,230095822427 ,47,4084055353573 ,55,5614588468094
27.9114159 ,Left ,64,1972225154648 ,47,3478618779171 ,55,6235187541304
27.9491746 ,Left ,64,1067874582712 ,47,2379519851692 ,55,7913791357568
27.9712343 ,Left ,64,086449957651 ,47,1737997654569 ,55,8923247045877
28.0090585 ,Left ,64,0358604949915 ,47,0446908999053 ,56,0920805014793
28.0316167 ,Left ,64,0099142553873 ,46,989691018683 ,56,1825323900733
28.0542364 ,Left ,63,9839305373231 ,46,9515514165365 ,56,2606469810697
28.0916335 ,Left ,63,9867212863358 ,46,8455196016464 ,56,3922155099904
28.1292051 ,Left ,63,9929707529604 ,46,7873378217443 ,56,4325400809595
28.1516412 ,Left ,63,9836046845169 ,46,7864260429659 ,56,4163000410218
28.1893505 ,Left ,64,0126681701272 ,46,7714925529411 ,56,3648488815764
28.2116409 ,Left ,64,0241302717231 ,46,7558532764928 ,56,3468563402748
28.2496059 ,Left ,64,0195061608389 ,46,7691086853019 ,56,3082365095948
28.2720969 ,Left ,64,0189112009709 ,46,7905515358257 ,56,2693031027143
28.3091664 ,Left ,64,0323099552024 ,46,7894960066056 ,56,2107828374343
28.3313468 ,Left ,64,0108036138969 ,46,8087670587719 ,56,1952224341663
28.3696853 ,Left ,63,9838128886123 ,46,8618638598935 ,56,1397713336035
28.3920244 ,Left ,63,9734314117156 ,46,8477561322471 ,56,1115411335136
28.4296435 ,Left ,63,974439873328 ,46,8712750792732 ,56,0708001138459
28.4515746 ,Left ,63,9095498932987 ,46,9068899356457 ,56,0702354779311
28.4891977 ,Left ,63,8750723820627 ,46,8902197914063 ,56,1667968207567
28.5115603 ,Left ,63,8716532986683 ,46,9581029713999 ,56,2215771076111
28.5412017 ,Left ,63,9179370852065 ,47,1252816015709 ,56,2087827375234
28.5714613 ,Left ,63,9645568062443 ,47,1416745552752 ,56,1697339823256
28.6090169 ,Left ,63,9241203865463 ,47,1405869937014 ,56,0693953991628
28.6319 ,Left ,63,8727531460847 ,47,1203241057898 ,55,9963469066325
28.6694446 ,Left ,63,8635483637788 ,46,9957746457658 ,55,9069239510544
28.6915955 ,Left ,63,8697859146266 ,46,8862062385964 ,55,9104272533889
28.7291939 ,Left ,63,9068865788228 ,46,8040391688748 ,55,9374015422118
28.7442545 ,Left ,63,9344896559094 ,46,9212829535711 ,55,9057038729717
28.7668222 ,Left ,63,9447916299763 ,46,9895995031253 ,55,8993498075459
28.7814878 ,Left ,63,9629624445431 ,47,0263448320708 ,55,9223903445964
28.8041375 ,Left ,63,9382823928754 ,47,0541154862555 ,55,9307625486468
28.8268373 ,Left ,63,8907419923396 ,47,0921072989918 ,55,9149607179785
28.8415709 ,Left ,63,8461259260241 ,47,1178424793205 ,55,8870900198817
28.8637752 ,Left ,63,7857571529601 ,47,0675004474971 ,55,8756403061487
28.8864397 ,Left ,63,7967940085846 ,46,9763326640474 ,55,9209052141675
28.9014649 ,Left ,63,8532485743757 ,46,9121079175601 ,55,9688116667619
28.9238455 ,Left ,63,8620495575752 ,47,0029842148426 ,55,9743188491466
28.9465339 ,Left ,63,8503894991268 ,47,1040196091828 ,55,9911980283738
28.9613559 ,Left ,63,8599202731459 ,47,2102221318178 ,56,02823385555
28.9841659 ,Left ,63,8251740016091 ,47,3308894083846 ,56,0602503623313
29.0065648 ,Left ,63,7438123878026 ,47,4435291307698 ,56,0773538030041
29.0291915 ,Left ,63,6789309698128 ,47,5332770591425 ,56,0795456177741
29.0440652 ,Left ,63,632861803135 ,47,5740173290309 ,56,0753523950979
29.0667269 ,Left ,63,6012225083127 ,47,5536630130904 ,56,087912775174
29.0889059 ,Left ,63,5790650591361 ,47,4949342812709 ,56,1362734319972
29.1039949 ,Left ,63,536113351083 ,47,4304596273713 ,56,1842664292199
29.1264233 ,Left ,63,5094618680748 ,47,305027119171 ,56,1927254056721
29.1490521 ,Left ,63,4717751659239 ,47,1938394641298 ,56,1899924270696
29.1717053 ,Left ,63,4294808557138 ,47,2038133664832 ,56,1899720202379
29.1940651 ,Left ,63,4602702077441 ,47,2850583840001 ,56,1861114324863
29.2166375 ,Left ,63,5691694032512 ,47,3749296911454 ,56,2171986396498
29.2314811 ,Left ,63,6589625936529 ,47,4229730476673 ,56,2460836687311
29.254112 ,Left ,63,6941299084663 ,47,5041737290743 ,56,2495267024911
29.2841656 ,Left ,63,6429142239618 ,47,6870647476088 ,56,1388103707289
29.3067163 ,Left ,63,6233165651819 ,47,7745001805151 ,56,0592307509784
29.3290333 ,Left ,63,5927675819458 ,47,856192547422 ,55,9676796841418
29.3441932 ,Left ,63,5545655488569 ,47,9166529660339 ,55,864773305296
29.3665616 ,Left ,63,5457776548812 ,47,9446563115794 ,55,7566990260545
29.3893002 ,Left ,63,5062685534473 ,47,9416258750148 ,55,6455095982504
29.404045 ,Left ,63,4800406489769 ,47,9202946999972 ,55,5399468622066
29.4262688 ,Left ,63,4536656672744 ,47,8992844165948 ,55,423554975151
29.449513 ,Left ,63,431390869321 ,47,8902253587087 ,55,2930707926505
29.4645157 ,Left ,63,4135307264111 ,47,8605960858929 ,55,1539765526008
29.4863846 ,Left ,63,3788450238265 ,47,8206530304462 ,55,0338331703449
29.5089195 ,Left ,63,3182492263663 ,47,7366777256521 ,54,9602668536044
29.5237732 ,Left ,63,3493614116664 ,47,6198088499056 ,54,9352673293258
29.5463241 ,Left ,63,3818741534945 ,47,6003312538741 ,54,9506222122721
29.5689456 ,Left ,63,4634386288217 ,47,6804387875564 ,54,94850617293
29.5838029 ,Left ,63,5808259633019 ,47,7155979064362 ,54,9595114308484
29.6062666 ,Left ,63,7513548736024 ,47,685043097838 ,55,0155252009872
29.6288894 ,Left ,63,8526764340761 ,47,6539600165872 ,55,0541139999782
29.6437001 ,Left ,63,9190884322106 ,47,6596415654101 ,55,0742929092195
29.6669659 ,Left ,63,9601105217354 ,47,6720481041097 ,55,1041362235746
29.6892146 ,Left ,64,0295603503942 ,47,6807384128372 ,55,1348314578453
29.7040762 ,Left ,64,0679691578871 ,47,6905742922287 ,55,1525659951492
29.7263768 ,Left ,64,0859133327269 ,47,6945417330929 ,55,1325036822387
29.7489979 ,Left ,64,074857906105 ,47,6614558335919 ,55,0885087135125
29.7715579 ,Left ,64,113704021254 ,47,5351691300356 ,55,0912770867572
29.7940622 ,Left ,64,1526781912944 ,47,3888621073468 ,55,1485816684534
29.8166074 ,Left ,64,1886345313774 ,47,3956964357955 ,55,2089597077156
29.8315934 ,Left ,64,1901320075117 ,47,494554638693 ,55,2374884763971
29.8467365 ,Left ,64,2429823192961 ,47,5611045553943 ,55,2798275186078
29.8695669 ,Left ,64,2733868746663 ,47,572091661282 ,55,3336827558222
29.8917231 ,Left ,64,2643890762432 ,47,5701432824011 ,55,3723701330316
29.9141848 ,Left ,64,2513460732357 ,47,5547279577089 ,55,4003093738028
29.9443753 ,Left ,64,2317929172913 ,47,5227920803536 ,55,4338063789808
29.958871 ,Left ,64,2229155336204 ,47,4554330217031 ,55,468520098564
29.981276 ,Left ,64,2117661305162 ,47,3750993088728 ,55,5080168442483
29.9964238 ,Left ,64,192348117918 ,47,3104618839147 ,55,5421889983481
30.0114305 ,Left ,64,1563759477247 ,47,2583634131247 ,55,5709574286271
30.0345292 ,Left ,64,1198484532616 ,47,2045955792742 ,55,6033357812697
30.0493376 ,Left ,64,1143042789272 ,47,1330852951702 ,55,6498811467987
30.064122 ,Left ,64,1056933093504 ,47,0736391331935 ,55,7086739445566
30.0866811 ,Left ,64,0922288857015 ,47,0417547396932 ,55,7761054587678
30.1093072 ,Left ,64,0829950608103 ,47,0117217329092 ,55,8463798316899
30.1241905 ,Left ,64,0648126542732 ,46,9629989643061 ,55,9196031325332
30.1466537 ,Left ,64,0418849204801 ,46,9302336783272 ,55,9889754005559
30.1693485 ,Left ,64,0132423789088 ,46,9215902323223 ,56,0425504915073
30.1915464 ,Left ,63,9935839620284 ,46,9237729292676 ,56,0792767191798
30.2067667 ,Left ,64,013894069386 ,46,9119950463223 ,56,1026340559484
30.2292941 ,Left ,64,0033344583398 ,46,8865912592082 ,56,1333229090986
30.2515872 ,Left ,63,9970032929532 ,46,8780592045078 ,56,1579853166505
30.2665058 ,Left ,63,9866361378355 ,46,8819873313269 ,56,177767553325
30.2893356 ,Left ,63,9868980293523 ,46,8845783728056 ,56,1766257284534
30.3116745 ,Left ,63,995891444629 ,46,884532797891 ,56,1588189366329
30.3267099 ,Left ,63,9968822439416 ,46,8753651854251 ,56,1413600135944
30.3491254 ,Left ,64,0155466932422 ,46,8655236216014 ,56,1346241634263
30.3716617 ,Left ,64,0138646586458 ,46,8702914832627 ,56,1389200468088
30.3866775 ,Left ,64,0138646586458 ,46,8702914832627 ,56,1389200468088
30.409325 ,Left ,64,0268554219868 ,46,8660254260934 ,56,1326466833993
30.4316046 ,Left ,64,0193791779507 ,46,8637970272776 ,56,1268611186935
30.4466279 ,Left ,64,0169511196489 ,46,8741019889419 ,56,1207947502506
30.4692537 ,Left ,64,0118595190187 ,46,8848080603101 ,56,1101043130744
30.4915682 ,Left ,64,0143170000974 ,46,8575474079608 ,56,0974897169302
30.5065493 ,Left ,64,0116636694721 ,46,8081778881019 ,56,0839516715331
30.5292229 ,Left ,63,983319625024 ,46,7619658429905 ,56,067993428623
30.5515795 ,Left ,63,9381948273132 ,46,7275827324764 ,56,0392458077552
30.5665231 ,Left ,63,9185248401732 ,46,7268200869379 ,56,0282612470321
30.5892158 ,Left ,63,8938570341949 ,46,7272925016865 ,56,0621100617262
30.6116284 ,Left ,63,9243941553376 ,46,790366356296 ,56,1188532602816
30.6266936 ,Left ,63,969612723897 ,46,8851712070026 ,56,1527661970796
30.6491862 ,Left ,63,9558460944256 ,46,9564015402224 ,56,1607010750589
30.6717035 ,Left ,63,9616456603466 ,46,9927292055945 ,56,1640794767799
30.6866411 ,Left ,63,9356678566753 ,47,0002060658198 ,56,1471917657217
30.7093782 ,Left ,63,9066093534102 ,46,9949791913057 ,56,1186581672466
30.7314615 ,Left ,63,8654856361316 ,46,9695508158529 ,56,0742635452362
30.7465398 ,Left ,63,8297441826515 ,46,9216274488598 ,56,0329400919737
30.7690515 ,Left ,63,783324614795 ,46,8436121148227 ,55,9917865521131
30.7916307 ,Left ,63,794195068552 ,46,7677877263412 ,55,9996390573358
30.80654 ,Left ,63,7832756858174 ,46,6774735004821 ,56,0170711299669
30.8291847 ,Left ,63,7814800929244 ,46,6973100323222 ,56,012459155792
30.8516069 ,Left ,63,8165490278632 ,46,7803586228758 ,55,9809289170279
30.8666867 ,Left ,63,8415268685435 ,46,8317954602486 ,55,9881797444308
30.8894271 ,Left ,63,8564214142631 ,46,8897519850461 ,56,0141437260785
30.9115893 ,Left ,63,8351544826854 ,46,94378482383 ,56,0384061045382
30.9267882 ,Left ,63,7862773993878 ,47,0014152854377 ,56,0646575066547
30.9490923 ,Left ,63,7433304570368 ,47,0675547271156 ,56,0746144491444
30.971682 ,Left ,63,7072622138289 ,47,122504541856 ,56,0813483996659
30.9866518 ,Left ,63,6534863838444 ,47,1597250985712 ,56,0979743528141
31.0088824 ,Left ,63,6235196726 ,47,0949234373469 ,56,1353541637945
31.0391477 ,Left ,63,6034663355282 ,47,0064908713478 ,56,1494598006881
31.0540892 ,Left ,63,5748776478611 ,47,0195944475186 ,56,1268278978441
31.0764748 ,Left ,63,5224169074435 ,47,0950472758657 ,56,1071319901364
31.1145246 ,Left ,63,5512320960862 ,47,1789853028539 ,56,1684363358647
31.1295299 ,Left ,63,5417405752753 ,47,1899579745871 ,56,1818928821549
31.1517971 ,Left ,63,5381989779024 ,47,2241101570318 ,56,1660178329449
31.1742753 ,Left ,63,5482744363914 ,47,2750788379186 ,56,1443934644732
31.1893613 ,Left ,63,6023871217024 ,47,324762087741 ,56,1226678809377
31.2116869 ,Left ,63,6425237442359 ,47,371207522029 ,56,1191633299711
31.2342098 ,Left ,63,677149493881 ,47,4065958888814 ,56,1287887894868
31.2494337 ,Left ,63,6660755880789 ,47,4321616652538 ,56,1445746324758
31.2716587 ,Left ,63,6436332241492 ,47,4305485324625 ,56,1632232789015
31.2942835 ,Left ,63,6242281328087 ,47,4185339571502 ,56,1753296691966
31.3167799 ,Left ,63,6052391552197 ,47,411342909342 ,56,1674674699964
31.3391791 ,Left ,63,5848443040559 ,47,40935991528 ,56,1399987950858
31.3616719 ,Left ,63,5421294206123 ,47,3887654716087 ,56,121994246174
31.3767366 ,Left ,63,5089726270897 ,47,3446606527101 ,56,1310754151841
31.3915117 ,Left ,63,5243405282364 ,47,2866575043569 ,56,1739434239614
31.4142304 ,Left ,63,4934594504886 ,47,2178710819713 ,56,2160796335774
31.436683 ,Left ,63,4596819896845 ,47,199607365319 ,56,2211775666146
31.4593769 ,Left ,63,4594704543432 ,47,2513876211391 ,56,1847143606499
31.4815308 ,Left ,63,492732778922 ,47,3266966881659 ,56,1448959031499
31.4967372 ,Left ,63,5975679250903 ,47,3620507262604 ,56,1611658283924
31.5116562 ,Left ,63,657106741061 ,47,3619961430304 ,56,2054390715103
31.5342327 ,Left ,63,6967741344552 ,47,3602672571155 ,56,2446201308133
31.5493502 ,Left ,63,7027699308147 ,47,3956380258139 ,56,2452045246467
31.5715724 ,Left ,63,7109112971842 ,47,4221699531482 ,56,2303974726013
31.6016602 ,Left ,63,7396852648002 ,47,4342511174321 ,56,2188074715643
31.616839 ,Left ,63,7580205406038 ,47,4551267368463 ,56,1929743089417
31.6391717 ,Left ,63,7751443877709 ,47,4839334280509 ,56,1464688588804
31.6542867 ,Left ,63,7974399047384 ,47,5152205023219 ,56,0839767891652
31.669454 ,Left ,63,8060254746866 ,47,532188367347 ,56,0212685021808
31.6916357 ,Left ,63,8143003128335 ,47,535819134994 ,55,9588759191709
31.7217188 ,Left ,63,8127523359801 ,47,5280878157616 ,55,8939321930145
31.7369515 ,Left ,63,7924282831803 ,47,5306792299549 ,55,8243430442627
31.7593556 ,Left ,63,7660783031261 ,47,5608681832881 ,55,7458170659515
31.7740881 ,Left ,63,7410338963824 ,47,6070628132024 ,55,6542454345309
31.7892364 ,Left ,63,727941816905 ,47,6563459560875 ,55,5602898141638
31.8116989 ,Left ,63,6984542594261 ,47,6995209926023 ,55,4722337089988
31.8342999 ,Left ,63,6920805040368 ,47,7361759288394 ,55,3967749205226
31.8493409 ,Left ,63,6679969072153 ,47,7705843370971 ,55,3290365043522
31.8716423 ,Left ,63,6307205825344 ,47,8045100969463 ,55,2675574996141
31.8943136 ,Left ,63,572211649677 ,47,8284550614611 ,55,207895481259
31.9090931 ,Left ,63,525487718568 ,47,8238255192812 ,55,1489257594102
31.9316165 ,Left ,63,4884454577616 ,47,7737766578324 ,55,1049702722116
31.9542071 ,Left ,63,51472565855 ,47,6600563264789 ,55,1067626052444
31.9692708 ,Left ,63,5083003556148 ,47,5903245067495 ,55,1350030282546
31.9913134 ,Left ,63,5389862295978 ,47,6628952391241 ,55,1602522832007
32.0138504 ,Left ,63,6006916347863 ,47,7327556482196 ,55,1697601538158
32.0364952 ,Left ,63,7185969542781 ,47,7500550658489 ,55,175767390674
32.0515762 ,Left ,63,7982884611137 ,47,7380599611161 ,55,1731600068424
32.0744126 ,Left ,63,8643621032306 ,47,7397810532485 ,55,1743960601163
32.0968818 ,Left ,63,9275613041453 ,47,7419280687995 ,55,184100815502
32.1192526 ,Left ,63,9726998689406 ,47,74641050724 ,55,2021400421819
32.1494845 ,Left ,64,0242002966118 ,47,7238348941226 ,55,2049888145589
32.1793439 ,Left ,64,0434022638345 ,47,6352027094726 ,55,2233976811429
32.2017632 ,Left ,64,0163786516069 ,47,5652925713029 ,55,2172022141648
32.2168821 ,Left ,64,0220267311105 ,47,4698475157344 ,55,2151772204157
32.2315112 ,Left ,64,0131460949164 ,47,3671103595947 ,55,2293702801001
32.2540006 ,Left ,63,9780873180546 ,47,3881673855756 ,55,2588189877675
32.2840439 ,Left ,63,9542084013339 ,47,4888683524446 ,55,2855608348584
32.2989405 ,Left ,63,9892676391305 ,47,5577474206968 ,55,3301104473149
32.3214714 ,Left ,64,0118978065968 ,47,5582084197647 ,55,3921802457625
32.3363121 ,Left ,64,0342264803663 ,47,5760570509495 ,55,4356407112804
32.3513435 ,Left ,64,0268539542488 ,47,5855137251459 ,55,4597599002287
32.3742257 ,Left ,64,0321226384577 ,47,5893190651509 ,55,4858646405133
32.404319 ,Left ,64,0306110593533 ,47,5765825109821 ,55,513048125001
32.4269314 ,Left ,64,0007120983015 ,47,537810409481 ,55,5519323413514
32.4494423 ,Left ,63,9752056840333 ,47,4782765583679 ,55,6104601704596
32.4643539 ,Left ,63,962197303713 ,47,4165330860778 ,55,67238691091
32.4793126 ,Left ,63,9434461649551 ,47,3620646726313 ,55,739914043103
32.4944184 ,Left ,63,9275288071872 ,47,3124949371874 ,55,8142361334046
32.5167456 ,Left ,63,9416045859407 ,47,2414317345537 ,55,8878834491104
32.5317012 ,Left ,63,9415075444842 ,47,1639150335365 ,55,9499940626179
32.5542014 ,Left ,63,9509354171197 ,47,1117891640325 ,55,9944731844697
32.5769526 ,Left ,63,9397295811861 ,47,0679180378069 ,56,0275140132335
32.591757 ,Left ,63,9094643794597 ,47,0285998278913 ,56,060692768602
32.6142392 ,Left ,63,8995298938239 ,46,991662079985 ,56,0928125975561
32.6293021 ,Left ,63,8962900036238 ,46,9543289038035 ,56,1226615196944
32.6443962 ,Left ,63,8957658175413 ,46,910066059799 ,56,1467115293642
32.6670095 ,Left ,63,8931144670184 ,46,8653169739664 ,56,1685000359741
32.6893165 ,Left ,63,893134348589 ,46,8369202474013 ,56,1822753836428
32.7044041 ,Left ,63,8874853040857 ,46,8282998756094 ,56,1896241424378
32.7267018 ,Left ,63,8743606384386 ,46,8307851244637 ,56,1862482088355
32.7494376 ,Left ,63,8733608802798 ,46,8246849712233 ,56,1812084051473
32.7641171 ,Left ,63,8712445691898 ,46,8242102463749 ,56,1789085575818
32.7867093 ,Left ,63,8693705507541 ,46,8246219408974 ,56,1793173859439
32.8088467 ,Left ,63,8679408438359 ,46,845344348448 ,56,1774670485761
32.8240661 ,Left ,63,8551040810512 ,46,859407882463 ,56,1687329654189
32.8464069 ,Left ,63,8408423082927 ,46,8709950548933 ,56,1692431344294
32.8690939 ,Left ,63,8305929090914 ,46,8907938477404 ,56,1693708054275
32.8842144 ,Left ,63,800990734513 ,46,8990203300311 ,56,1533627062122
32.9066443 ,Left ,63,7621523613554 ,46,873512337277 ,56,1447188544788
32.9289575 ,Left ,63,7066866815267 ,46,830476166229 ,56,1301445306126
32.9440451 ,Left ,63,6805382881301 ,46,8469554779915 ,56,1222627770486
32.9665734 ,Left ,63,6076219083064 ,46,887707868988 ,56,1235951035488
32.9890732 ,Left ,63,5877724082737 ,46,9348154105094 ,56,1575110159278
33.0039205 ,Left ,63,5991772410214 ,46,9967521425379 ,56,2089017108718
33.026666 ,Left ,63,6474095505049 ,47,0519709560848 ,56,2375138732237
33.0492439 ,Left ,63,6534828422444 ,47,1009060696218 ,56,2463392985836
33.064133 ,Left ,63,6500099545366 ,47,1512267776469 ,56,2374555319429
33.0867669 ,Left ,63,6134532392121 ,47,1837260388203 ,56,2100578546141
33.1242915 ,Left ,63,570432842147 ,47,2061491456497 ,56,114102977709
33.1467397 ,Left ,63,5340251778683 ,47,1534870596777 ,56,0691881919279
33.1691788 ,Left ,63,4771975342058 ,47,0550050836454 ,56,0393847018617
33.2066199 ,Left ,63,5220425184622 ,46,8685046567227 ,55,9946643459483
33.2291824 ,Left ,63,5372066457382 ,46,8947125280338 ,55,97742315899
33.2666929 ,Left ,63,5827269962347 ,47,0508618739848 ,55,9777153001659
33.3042443 ,Left ,63,5648080931361 ,47,2391241958633 ,55,977174173992
33.3263776 ,Left ,63,556915322597 ,47,3033976384439 ,55,963723496928
33.3639493 ,Left ,63,5633853845318 ,47,2281798028919 ,56,0340555436437
33.3865543 ,Left ,63,5717572957691 ,47,2007278046501 ,56,0787059653307
33.4239044 ,Left ,63,662240682757 ,47,3972962065343 ,56,0959386629085
33.44649 ,Left ,63,6632732721909 ,47,5407044810256 ,56,1224210016786
33.4690196 ,Left ,63,6114445152784 ,47,7066063881523 ,56,1406835927771
33.5068265 ,Left ,63,5064863153362 ,47,9466722164854 ,56,1591393455461
33.5292148 ,Left ,63,4892363055251 ,47,998088147329 ,56,1597487406314
33.5666306 ,Left ,63,4775499023778 ,47,834137662136 ,56,1921769427371
33.5893012 ,Left ,63,4209379521321 ,47,7044556905479 ,56,1825583584838
33.6267726 ,Left ,63,3780849292345 ,47,613126916041 ,56,0915122310269
33.6490744 ,Left ,63,4136301846372 ,47,7125704622598 ,56,041606624881
33.6866896 ,Left ,63,5935598198976 ,47,9088000624756 ,56,021755289391
33.7093095 ,Left ,63,65340806222 ,47,991877768441 ,56,0382436630503
33.7467265 ,Left ,63,7291180207679 ,48,1475089016052 ,56,0226467691873
33.7693117 ,Left ,63,7678541901679 ,48,2156401050769 ,55,98029257868
33.8065894 ,Left ,63,7865996006002 ,48,3125519114991 ,55,8628057454131
33.8442592 ,Left ,63,8098845778064 ,48,3113849332263 ,55,7118582613708
33.8743089 ,Left ,63,7998609260191 ,48,3267383305547 ,55,6002515389646
33.9113822 ,Left ,63,7693732436136 ,48,3427315994516 ,55,3577100059049
33.9265994 ,Left ,63,7602038346857 ,48,3253489624746 ,55,2602277230368
33.9639573 ,Left ,63,6893230688318 ,48,2673642040548 ,55,0841875529704
33.9864986 ,Left ,63,6279363340417 ,48,2082258897192 ,55,012985945075
34.0241653 ,Left ,63,5979060277738 ,47,9680737596975 ,54,9614701339005
34.0465248 ,Left ,63,6436811763623 ,47,8848184739238 ,54,9874290992229
34.0840595 ,Left ,63,7450622888613 ,47,8386498642249 ,55,0088079967937
34.10654 ,Left ,63,8042930099494 ,47,7885043798541 ,55,0409400776267
34.1446608 ,Left ,63,9260858558685 ,47,6961164700288 ,55,1085873773954
34.1671991 ,Left ,64,0072163442136 ,47,6614047683849 ,55,1389181049753
34.2117639 ,Left ,64,1181228052095 ,47,6047859858948 ,55,1654023418803
34.2340882 ,Left ,64,1098258602445 ,47,6262920287341 ,55,1468014301446
34.2871516 ,Left ,64,0633614710353 ,47,5007282748271 ,55,0798253818349
34.3247564 ,Left ,64,1161895185639 ,47,5026892652776 ,55,1707569613997
34.3471549 ,Left ,64,1701875784577 ,47,5815495364319 ,55,2052690055699
34.3914491 ,Left ,64,2309801992638 ,47,6524039665381 ,55,2852929547333
34.4139735 ,Left ,64,2283231598871 ,47,6635798130626 ,55,312605736745
34.4438697 ,Left ,64,2216134815375 ,47,5950962038702 ,55,3707399097185
34.4666085 ,Left ,64,2056360314232 ,47,5413124476487 ,55,3983520630168
34.4889686 ,Left ,64,195321292143 ,47,4812781291321 ,55,4363188806348
34.5039438 ,Left ,64,1835731647018 ,47,4242248958962 ,55,4782464977151
34.5264238 ,Left ,64,1712513969872 ,47,3663155755343 ,55,5218322367888
34.556391 ,Left ,64,1626303909196 ,47,2549684457746 ,55,668999025957
34.5791708 ,Left ,64,1400055700685 ,47,2086883859655 ,55,7599847394403
34.6016589 ,Left ,64,1073531978192 ,47,1679303119026 ,55,8539134272881
34.616706 ,Left ,64,0836006732303 ,47,1248087193245 ,55,9449994442079
34.6393488 ,Left ,64,0531420993289 ,47,0846691830943 ,56,024019606966
34.6615534 ,Left ,64,0148750025995 ,47,0522963307355 ,56,0956160623521
34.6767221 ,Left ,64,0002755594829 ,47,0278704544939 ,56,1489541759724
34.6989577 ,Left ,63,9881812721845 ,46,9921060030035 ,56,1748529789524
34.7213845 ,Left ,63,9653581584936 ,46,9476353561058 ,56,1965146931185
34.7364605 ,Left ,63,9527601389344 ,46,9083620552668 ,56,2121037783418
34.7594377 ,Left ,63,9224053049956 ,46,8974773317972 ,56,2229878522026
34.7819928 ,Left ,63,9081286052955 ,46,8931812930882 ,56,2342341867856
34.7967949 ,Left ,63,923688557851 ,46,8643924338715 ,56,2455991736659
34.8195349 ,Left ,63,9440760039433 ,46,837349535749 ,56,2600322555772
34.8417066 ,Left ,63,9410323063445 ,46,8361417405201 ,56,2724066142
34.8568549 ,Left ,63,9310414916116 ,46,8568652432318 ,56,2752875160298
34.879217 ,Left ,63,9200435683037 ,46,8857069783511 ,56,2662181466338
34.9016507 ,Left ,63,8994245054822 ,46,9101442497844 ,56,2529097207918
34.9242838 ,Left ,63,8986966132058 ,46,9307036671886 ,56,233706383667
34.9393701 ,Left ,63,8826872431719 ,46,9451203784301 ,56,2110410609362
34.9620319 ,Left ,63,8693631936693 ,46,9406098949913 ,56,2006520888641
34.9846656 ,Left ,63,8450637064599 ,46,9132158358808 ,56,1971694755003
34.9995293 ,Left ,63,8347489304669 ,46,890149076666 ,56,1867184230597
35.0214561 ,Left ,63,8138560105082 ,46,8831900791786 ,56,1570982947288
35.044225 ,Left ,63,8043275717838 ,46,8748872574778 ,56,1204824256229
35.0589465 ,Left ,63,7983040206505 ,46,8493592306358 ,56,1224044793506
35.0815353 ,Left ,63,8024734323931 ,46,8490043869039 ,56,1621356675864
35.1041402 ,Left ,63,8541989122629 ,46,8865481031436 ,56,2028156255316
35.1189347 ,Left ,63,9065818831822 ,46,9236597117628 ,56,2127750292269
35.1415534 ,Left ,63,9141033046221 ,46,957694375075 ,56,1971184502263
35.1640592 ,Left ,63,9551893273854 ,46,9806681620084 ,56,1740232017187
35.1790458 ,Left ,63,9590291165317 ,47,0054918815423 ,56,1387229809981
35.2015181 ,Left ,63,9486193394225 ,47,0366804382209 ,56,1066078356816
35.2243 ,Left ,63,9245672207851 ,47,0693493125013 ,56,0637274110877
35.2390276 ,Left ,63,8980969704077 ,47,0526537950347 ,56,0165934405151
35.2614381 ,Left ,63,9138047004312 ,46,9961417667453 ,55,9995597403451
35.284109 ,Left ,63,9151730563714 ,46,9167599126735 ,56,0055037869274
35.2989961 ,Left ,63,9149285508354 ,46,9150217296111 ,56,0047219423698
35.3214843 ,Left ,63,9363872906598 ,46,9836393051754 ,55,9693670868483
35.344167 ,Left ,63,9566330489572 ,47,0463925834901 ,55,9556963977787
35.3592113 ,Left ,63,9671048611196 ,47,0703632281375 ,55,9690338631711
35.3815626 ,Left ,63,951907817476 ,47,1016738847067 ,55,9701195069527
35.404179 ,Left ,63,9140733757572 ,47,116718696087 ,55,9702140450482
35.4191457 ,Left ,63,8869742064462 ,47,1413109515831 ,55,9638515994235
35.4415684 ,Left ,63,8418416335448 ,47,1504326465414 ,55,9480764759681
35.4642068 ,Left ,63,833316445285 ,47,137892376402 ,55,9556583739789
35.4867832 ,Left ,63,8315074960153 ,47,1099876268672 ,55,9696857241109
35.5091367 ,Left ,63,819308455119 ,47,1453085810758 ,55,9791460123169
35.5462766 ,Left ,63,829455933597 ,47,288130018263 ,55,9749345041286
35.5766699 ,Left ,63,8186499235368 ,47,3747802686175 ,55,9898634833826
35.6065445 ,Left ,63,6996805904779 ,47,4999416588719 ,56,0254096501352
35.6214383 ,Left ,63,6597587643788 ,47,5257480328141 ,56,0539221781951
35.644158 ,Left ,63,6376416036599 ,47,5359999978968 ,56,0890487046417
35.6591956 ,Left ,63,5833133951436 ,47,5507360684171 ,56,1257295464271
35.6815346 ,Left ,63,5330112786745 ,47,5642044594115 ,56,1355426936921
35.7039472 ,Left ,63,4887550325543 ,47,5328940800351 ,56,1411686468889
35.7188824 ,Left ,63,4791538255271 ,47,4470528449776 ,56,1580619219022
35.7414453 ,Left ,63,4496226620594 ,47,3712949188714 ,56,1730592326847
35.7714806 ,Left ,63,405882563572 ,47,3833968671065 ,56,1739601946397
35.7866465 ,Left ,63,4201064312319 ,47,4602864889409 ,56,1591378472766
35.8090945 ,Left ,63,4999528579988 ,47,5042075839576 ,56,1835657068389
35.8243282 ,Left ,63,580465878772 ,47,5124188580298 ,56,218633174395
35.8466335 ,Left ,63,6374813153237 ,47,5505152722224 ,56,2340568356923
35.8616489 ,Left ,63,6556344031001 ,47,5962965007034 ,56,2106890657363
35.8840647 ,Left ,63,6716790604891 ,47,6282882857988 ,56,1857456768718
35.9069358 ,Left ,63,693018026234 ,47,6562572470325 ,56,1478715127324
35.9218704 ,Left ,63,6957090585524 ,47,690416224341 ,56,1017259738923
35.9440205 ,Left ,63,6811230731296 ,47,7300251699146 ,56,033513120347
35.9663471 ,Left ,63,6705102780382 ,47,7510623650523 ,55,9617982685519
35.9814883 ,Left ,63,6610935821019 ,47,7573555640922 ,55,8874095622387
36.0041244 ,Left ,63,6705087814975 ,47,767207621395 ,55,8023359485925
36.0267714 ,Left ,63,6619724898652 ,47,7931882661135 ,55,7042382411524
36.0415267 ,Left ,63,6466023352952 ,47,8333291790092 ,55,5971508942056
36.0640794 ,Left ,63,6423726885376 ,47,8713929134977 ,55,4854270056456
36.0872671 ,Left ,63,637691307049 ,47,9111679719778 ,55,3785395102217
36.1018442 ,Left ,63,6365106806509 ,47,9430837655493 ,55,2641645624076
36.1244837 ,Left ,63,6088466021512 ,47,9405720264968 ,55,1602760578493
36.1467186 ,Left ,63,5983662430972 ,47,9152544412013 ,55,0705852580161
36.1614992 ,Left ,63,5940123699857 ,47,854735514225 ,54,9932325706668
36.1839217 ,Left ,63,6248020464339 ,47,7690164048991 ,54,9661177273879
36.2064507 ,Left ,63,6535685215114 ,47,7045526280186 ,54,9676538761729
36.2213899 ,Left ,63,7081155364199 ,47,7221847183785 ,54,9494306455445
36.2440601 ,Left ,63,774613673868 ,47,7283874256767 ,54,9327950851965
36.2668251 ,Left ,63,8862474186456 ,47,6936469234311 ,54,9389599330428
36.2814598 ,Left ,63,9546303599199 ,47,6477387977517 ,54,9395553791107
36.3039712 ,Left ,64,0116430407527 ,47,6114608936556 ,54,929391966589
36.3264314 ,Left ,64,0509509578128 ,47,5762679550907 ,54,9325997399834
36.3414545 ,Left ,64,1017532874363 ,47,540301728148 ,54,9422795716377
36.3639453 ,Left ,64,1565268971657 ,47,5212428325528 ,54,9463753485427
36.3941568 ,Left ,64,2032155751717 ,47,5236753822703 ,54,9364858042157
36.4092603 ,Left ,64,2008249689092 ,47,4850665886514 ,54,9095342698555
36.4315004 ,Left ,64,2250148357758 ,47,4310897704954 ,54,9257906764988
36.461647 ,Left ,64,2967278567089 ,47,3540170360491 ,55,0677280526247
36.4838485 ,Left ,64,3497341386452 ,47,4117590421432 ,55,1322280120103
36.5066348 ,Left ,64,4207895542157 ,47,4689889597872 ,55,1946239300455
36.5291717 ,Left ,64,4470928959489 ,47,4679363209082 ,55,2648156549586
36.5441997 ,Left ,64,4671386709605 ,47,4670199815632 ,55,3242580154105
36.5665664 ,Left ,64,4669597711578 ,47,4474350716057 ,55,3636591012546
36.5963963 ,Left ,64,4391747385351 ,47,4051290638151 ,55,394268154126
36.6114544 ,Left ,64,4335845522531 ,47,3298373070846 ,55,429225389108
36.6337823 ,Left ,64,409608428283 ,47,2319707902173 ,55,4825731012288
36.6489711 ,Left ,64,3878137753314 ,47,1354196865372 ,55,5501218947686
36.6637648 ,Left ,64,3617184345341 ,47,059086447824 ,55,6185404380747
36.6865184 ,Left ,64,3295330277735 ,46,9926217572049 ,55,6959520355366
36.7092243 ,Left ,64,3181690320399 ,46,9269747323889 ,55,7855925441676
36.7317437 ,Left ,64,2969522107799 ,46,8638276199669 ,55,8736541766473
36.7616001 ,Left ,64,2733480246486 ,46,8101738385877 ,55,9625598995355
36.7769903 ,Left ,64,2422418289161 ,46,7570045581781 ,56,0401863271584
36.7918782 ,Left ,64,2067921236364 ,46,7129494111241 ,56,107420511942
36.829299 ,Left ,64,1487147789605 ,46,6321714650173 ,56,2153300602202
36.8443535 ,Left ,64,1564264616126 ,46,5967186332668 ,56,2524830428862
36.8667525 ,Left ,64,1225241306646 ,46,5525090867079 ,56,2928381009292
36.8892967 ,Left ,64,1091621887656 ,46,5399658596815 ,56,329784965972
36.9038697 ,Left ,64,0836359535391 ,46,5655539304476 ,56,3663753403638
36.9264222 ,Left ,64,0837256219082 ,46,5984931367664 ,56,3879074321668
36.9492194 ,Left ,64,0802319287042 ,46,6205924533021 ,56,4024431080338
36.9640315 ,Left ,64,0833090262375 ,46,6279677299154 ,56,4168092347573
36.9866582 ,Left ,64,0631948927883 ,46,6535367406989 ,56,4245797184168
37.0088497 ,Left ,64,0434267284284 ,46,6968273730637 ,56,4223223534349
37.0241985 ,Left ,64,0583292643058 ,46,7365455483951 ,56,3999426336647
37.0466261 ,Left ,64,0635992616826 ,46,7542003071509 ,56,3701854629325
37.0695481 ,Left ,64,0613339871415 ,46,7545756823971 ,56,343454864276
37.0838888 ,Left ,64,0474534827338 ,46,7627086460797 ,56,3207709621371
37.1063782 ,Left ,64,0314090625116 ,46,7872236835552 ,56,2920251630055
37.128831 ,Left ,64,0312811324624 ,46,8005214120351 ,56,2646450047706
37.1441752 ,Left ,64,0332739618879 ,46,7974489782219 ,56,2522308148682
37.1666748 ,Left ,64,0330187041147 ,46,7957158098158 ,56,251445034827
37.1895253 ,Left ,64,0365772039865 ,46,7905268452472 ,56,2467340225273
