timestamp,event,roll,pitch,yaw
0.037661 ,Left ,62,6177211441385 ,45,8777064783562 ,68,2630211962603
0.0601551 ,Left ,62,6213199001656 ,45,8560998817183 ,68,2716784297532
0.0981409 ,Left ,62,6323400019001 ,45,8253769346504 ,68,276067668431
0.1201771 ,Left ,62,6279454849034 ,45,816136590306 ,68,2692997272656
0.1577988 ,Left ,62,6180439266375 ,45,8107593751856 ,68,2399708683186
0.180403 ,Left ,62,6069503488108 ,45,8064456565471 ,68,2184285362142
0.2176517 ,Left ,62,6195735501027 ,45,7920750020071 ,68,1655175817096
0.2408807 ,Left ,62,6305864660101 ,45,7826225272474 ,68,1350710928032
0.2778155 ,Left ,62,6282983910693 ,45,7589491419789 ,68,0715758601974
0.3001662 ,Left ,62,6355876509441 ,45,7485807021893 ,68,037561844059
0.3376161 ,Left ,62,6353007377484 ,45,7460854610517 ,67,9688933755986
0.360963 ,Left ,62,6216368517406 ,45,751805694398 ,67,940202141191
0.3983843 ,Left ,62,5928410382953 ,45,7710028324014 ,67,8910786268026
0.4204958 ,Left ,62,5596665122508 ,45,7888529673141 ,67,8746136197892
0.45771 ,Left ,62,4815636032748 ,45,8323054496297 ,67,8556443899935
0.4802412 ,Left ,62,4423367685557 ,45,8527924766812 ,67,8576034598004
0.5176275 ,Left ,62,355575002975 ,45,9098677662196 ,67,8836882200515
0.540217 ,Left ,62,3043223495163 ,45,94551754609 ,67,9042081938065
0.5776867 ,Left ,62,2200561000609 ,46,0153517227683 ,67,9632224858986
0.6000745 ,Left ,62,1681067070061 ,46,0482638015847 ,67,9900364819795
0.6377041 ,Left ,62,0721909596727 ,46,1291829091061 ,68,0223665949909
0.6601866 ,Left ,62,0209277443692 ,46,1791664517482 ,68,0292752948957
0.6978886 ,Left ,61,9239422331034 ,46,2771345085702 ,68,0304372976965
0.7203388 ,Left ,61,867717912182 ,46,3333788626146 ,68,0257657384846
0.7579565 ,Left ,61,7600753870983 ,46,4482661316578 ,68,0021134021542
0.7806049 ,Left ,61,7143553263826 ,46,5064816867023 ,67,9844749795657
0.7956356 ,Left ,61,6599673680029 ,46,5597188360189 ,67,9660566021971
0.810173 ,Left ,61,6022990614263 ,46,6066774544826 ,67,9502666235261
0.8336132 ,Left ,61,5370795664996 ,46,6704107893118 ,67,913659665751
0.8560152 ,Left ,61,4563265026109 ,46,7156205771453 ,67,8638445375924
0.8706758 ,Left ,61,392902729852 ,46,7876533651558 ,67,8200874610522
0.8932881 ,Left ,61,365813153323 ,46,9026950755348 ,67,7775531924369
0.9150792 ,Left ,61,362492705455 ,46,9844256918602 ,67,7430110705975
0.930404 ,Left ,61,3917255823651 ,47,0210485039938 ,67,7039365591969
0.9526508 ,Left ,61,405444434826 ,47,0201566180874 ,67,6454001896871
0.9753581 ,Left ,61,4022282115111 ,47,0102503749048 ,67,5764842208218
0.9905032 ,Left ,61,3896422366484 ,46,9960653487333 ,67,5101599277652
1.0125558 ,Left ,61,383351998668 ,46,995817261339 ,67,446840505482
1.0353588 ,Left ,61,381632636797 ,47,0237443797961 ,67,3881889855031
1.0501194 ,Left ,61,3901965417881 ,47,0536630836863 ,67,3395146519471
1.0726692 ,Left ,61,3875945501388 ,47,070799017589 ,67,3198879303654
1.0952155 ,Left ,61,3637586116696 ,47,0776578557658 ,67,3163643423372
1.1104957 ,Left ,61,3360177362196 ,47,0899480444905 ,67,3164313835223
1.1329486 ,Left ,61,3184709714175 ,47,1101636470049 ,67,318306055104
1.1555084 ,Left ,61,2924133706688 ,47,135401004904 ,67,3301340597916
1.1705188 ,Left ,61,269353113068 ,47,1637364707422 ,67,3485518952428
1.1929885 ,Left ,61,2393626842781 ,47,1929044290298 ,67,3684859925807
1.215344 ,Left ,61,2044855529864 ,47,2229933804439 ,67,383233231903
1.2302993 ,Left ,61,187607500058 ,47,2371775256602 ,67,397868594436
1.2529936 ,Left ,61,1652747496929 ,47,223971569119 ,67,4178631424987
1.2753767 ,Left ,61,1687341804775 ,47,1984125999854 ,67,4273878615893
1.2902214 ,Left ,61,1795318706093 ,47,1902201987631 ,67,4139571034817
1.3129626 ,Left ,61,1678668013684 ,47,1919852834772 ,67,3931499986614
1.3353922 ,Left ,61,1557485839272 ,47,1986937085059 ,67,3663610376894
1.3503766 ,Left ,61,1610325788863 ,47,2011174199005 ,67,3405504659052
1.3730674 ,Left ,61,1801532083225 ,47,1833742929369 ,67,3202191043913
1.4026183 ,Left ,61,2181804523585 ,47,1497752837295 ,67,3049783011494
1.4178293 ,Left ,61,2332940768999 ,47,1066375096852 ,67,2929404627847
1.4402937 ,Left ,61,2494162854552 ,47,053537496306 ,67,2929068433769
1.4554281 ,Left ,61,2825649777528 ,46,9948236971195 ,67,2936013035589
1.4705711 ,Left ,61,3039003156546 ,46,9277005245783 ,67,2799017287385
1.4932436 ,Left ,61,3117931717492 ,46,8693472922462 ,67,2550040904275
1.515169 ,Left ,61,3227129215415 ,46,8461635238037 ,67,2315601239948
1.5376508 ,Left ,61,3367011045336 ,46,8358546974365 ,67,2126095161448
1.5526928 ,Left ,61,3534329591119 ,46,8252174000438 ,67,1964584620057
1.575366 ,Left ,61,3490475279774 ,46,8233406359374 ,67,190291874245
1.5976573 ,Left ,61,3050357216966 ,46,8421736378712 ,67,1883257489599
1.6126851 ,Left ,61,2705903271152 ,46,8920205182964 ,67,1601406019678
1.6351519 ,Left ,61,2334823128059 ,46,9285554697555 ,67,1147170245604
1.6578539 ,Left ,61,2454260539975 ,46,9551783770214 ,67,0679275137072
1.6727875 ,Left ,61,2005747605707 ,46,948227004865 ,67,0553881880053
1.6952094 ,Left ,61,1630493242247 ,46,9202202168806 ,67,0813719423657
1.7178417 ,Left ,61,1611690549858 ,46,9164330394619 ,67,0825604751931
1.7327054 ,Left ,61,1667077731096 ,46,9163085735304 ,67,0903216439172
1.7552351 ,Left ,61,1640415835207 ,46,9631060888259 ,67,0725786646136
1.7777357 ,Left ,61,0737616510062 ,47,0194901715851 ,67,037448281945
1.7928494 ,Left ,61,0668543882061 ,47,0581815725184 ,67,0041852406657
1.8154801 ,Left ,61,1181444303438 ,47,091881077838 ,66,984466244759
1.8377061 ,Left ,61,0679214363331 ,47,1063872132218 ,67,0074390165677
1.8529699 ,Left ,61,0250144486286 ,47,157810921063 ,67,0204951357483
1.8753543 ,Left ,61,0163377440037 ,47,2067459970209 ,67,0594744228689
1.8978274 ,Left ,61,0350154416371 ,47,2580427706737 ,67,0729324783723
1.9203882 ,Left ,61,0532929034669 ,47,3120596045554 ,67,087589962512
1.9431558 ,Left ,61,0534974840968 ,47,372276234459 ,67,0892755664809
1.9728947 ,Left ,61,0052454529551 ,47,4607530981796 ,67,0620635613487
1.9951668 ,Left ,60,9872599120572 ,47,4735498256372 ,67,0390185437529
2.0176334 ,Left ,60,9807718602437 ,47,4808358726427 ,67,0136512641178
2.0337701 ,Left ,60,9505613335112 ,47,4689325150879 ,66,983976639039
2.0560094 ,Left ,60,9147812280607 ,47,4467904987517 ,66,9574983279761
2.0784843 ,Left ,60,8451759182789 ,47,4199501144995 ,66,9350079912691
2.0928289 ,Left ,60,8118480661566 ,47,3687380172392 ,66,9198956084787
2.115602 ,Left ,60,8242457751005 ,47,3234509628351 ,66,8949753627459
2.1380238 ,Left ,60,8086350368121 ,47,3122684297463 ,66,8992754895502
2.1529951 ,Left ,60,7952186017803 ,47,388460299156 ,66,8944027521534
2.175325 ,Left ,60,790549234707 ,47,4713516820904 ,66,9075337873997
2.1985031 ,Left ,60,8394870931699 ,47,515270798924 ,66,9055420807044
2.2135429 ,Left ,60,8317520682741 ,47,5353987205173 ,66,871747053236
2.2359312 ,Left ,60,8270259056372 ,47,5550575783305 ,66,8239425544026
2.2585689 ,Left ,60,8282450932315 ,47,5868689953577 ,66,7708779191075
2.273324 ,Left ,60,8350206001805 ,47,6237823847617 ,66,7202679656347
2.2955995 ,Left ,60,8385449048093 ,47,6740224129082 ,66,663714315298
2.3179623 ,Left ,60,8370831583488 ,47,7290283422952 ,66,6035778614767
2.3328014 ,Left ,60,8370756666463 ,47,7828301776755 ,66,5432724988639
2.3555103 ,Left ,60,8322810128753 ,47,8274427015585 ,66,4846124220771
2.3776187 ,Left ,60,8267426644371 ,47,8672507405211 ,66,4072683781522
2.4001287 ,Left ,60,8192195622215 ,47,8863051643898 ,66,3090687148718
2.4152723 ,Left ,60,8134727126773 ,47,887665026676 ,66,2057034668475
2.438103 ,Left ,60,7715645034772 ,47,8877378824124 ,66,1045510592051
2.4603108 ,Left ,60,7004265463264 ,47,8644452179165 ,66,0209595514381
2.4754405 ,Left ,60,6324569334633 ,47,8023792355194 ,65,9501736854599
2.4979592 ,Left ,60,5995875044625 ,47,6879786662185 ,65,9033694733175
2.5205978 ,Left ,60,5749686304466 ,47,59098579943 ,65,8656351062996
2.5356364 ,Left ,60,5371102810694 ,47,5515759296018 ,65,8804833723793
2.557897 ,Left ,60,550560250798 ,47,5890923536443 ,65,9314163534127
2.5806388 ,Left ,60,6211714634587 ,47,5929673733024 ,66,0290660037122
2.5956839 ,Left ,60,7466517999943 ,47,498949375841 ,66,117626172316
2.6179998 ,Left ,60,8082749709254 ,47,3263344271986 ,66,2053308486161
2.6405922 ,Left ,60,8298090504811 ,47,2136278066498 ,66,2476918506108
2.6554164 ,Left ,60,8448640767405 ,47,1884498995911 ,66,2657455495261
2.6779118 ,Left ,60,8888279837513 ,47,1553384304804 ,66,3012916223166
2.7000283 ,Left ,61,0097598629887 ,47,0661252316962 ,66,3185250261961
2.7159173 ,Left ,61,063206743785 ,46,9866541695893 ,66,3334813306324
2.7384925 ,Left ,61,0681759482849 ,46,9323162279087 ,66,4020556834954
2.7610373 ,Left ,61,1105217618661 ,46,9058415129588 ,66,473980016331
2.7758949 ,Left ,61,2118487826119 ,46,8645966655316 ,66,553100379075
2.7985078 ,Left ,61,4133763646307 ,46,7759685681791 ,66,6165364307232
2.8208585 ,Left ,61,5766688420525 ,46,6577797677567 ,66,6910335958796
2.835502 ,Left ,61,6681412259151 ,46,5720274047481 ,66,7553679754035
2.857926 ,Left ,61,7236037937401 ,46,5124263049444 ,66,8094585303639
2.8802044 ,Left ,61,7845908134963 ,46,466656536379 ,66,8484766726923
2.8952977 ,Left ,61,8632659326814 ,46,4163791057874 ,66,8814537181639
2.9177958 ,Left ,61,9446959215535 ,46,354181027142 ,66,9126938329265
2.9402347 ,Left ,62,0191079250698 ,46,2859726071904 ,66,9513361469812
2.9553709 ,Left ,62,0451506181468 ,46,2340809441017 ,67,0101337216778
2.9776938 ,Left ,62,0279965849615 ,46,1984812847927 ,67,0789179832985
3.0001826 ,Left ,62,022526896711 ,46,1739187193805 ,67,1257893545788
3.0152358 ,Left ,62,0322006660308 ,46,1580567157134 ,67,156796994644
3.0455452 ,Left ,62,0542679251564 ,46,1433764016787 ,67,1999770423279
3.0682182 ,Left ,62,0814355582388 ,46,1268250043746 ,67,250931824548
3.083512 ,Left ,62,1010253086473 ,46,108878306677 ,67,3059303038718
3.0984133 ,Left ,62,0832442957569 ,46,093904586642 ,67,3569704984242
3.1202805 ,Left ,62,0585237556564 ,46,0803274551355 ,67,4053930259428
3.1351394 ,Left ,62,0381381153689 ,46,0745996260886 ,67,4519883954563
3.1586117 ,Left ,62,0538929118352 ,46,0816656753831 ,67,4866058377911
3.1810326 ,Left ,62,0830218899159 ,46,0902834058291 ,67,5160933275653
3.1959833 ,Left ,62,0982349718515 ,46,088820058656 ,67,5406790190157
3.2183953 ,Left ,62,1014222830593 ,46,0876502124043 ,67,5532116170025
3.2406591 ,Left ,62,0992869421471 ,46,0886949940868 ,67,5531248774664
3.2557221 ,Left ,62,1095008397721 ,46,0836697127839 ,67,5553785763114
3.2783075 ,Left ,62,1147012862606 ,46,0777109663669 ,67,561884845066
3.3006077 ,Left ,62,1244705403029 ,46,0683948297829 ,67,5623931176142
3.3156687 ,Left ,62,1414984798759 ,46,0643626080962 ,67,5530834609018
3.345616 ,Left ,62,149072472237 ,46,063912542792 ,67,5335316750543
3.3679205 ,Left ,62,1471402549421 ,46,0649760614997 ,67,5132230575076
3.3833554 ,Left ,62,1544869675211 ,46,0693767054175 ,67,4924215188319
3.4058763 ,Left ,62,1515065528314 ,46,0796854172726 ,67,4803891865318
3.4207535 ,Left ,62,153914141539 ,46,0963623537884 ,67,4656207426722
3.4505073 ,Left ,62,1670688908906 ,46,1177195179958 ,67,4492674435355
3.4658013 ,Left ,62,176038747077 ,46,1370693298347 ,67,4314931253874
3.503245 ,Left ,62,1775520918929 ,46,1777391896154 ,67,3815255488477
3.5183073 ,Left ,62,1893665632866 ,46,1912756171251 ,67,3521676724337
3.5407874 ,Left ,62,2016490303913 ,46,2061584171159 ,67,3230731290749
3.5633851 ,Left ,62,2080407891929 ,46,2178029785978 ,67,3000447734536
3.5782077 ,Left ,62,2157739503519 ,46,226533703364 ,67,281237283578
3.6007936 ,Left ,62,2157379777188 ,46,2347326719364 ,67,2637860750773
3.630481 ,Left ,62,2223343611653 ,46,2460252176145 ,67,2456189156062
3.6458727 ,Left ,62,2218970159727 ,46,2532762294566 ,67,2302415441163
3.683325 ,Left ,62,2245259999392 ,46,2671734857597 ,67,2076167373601
3.6982864 ,Left ,62,2246675317078 ,46,2664246635168 ,67,2101405780559
3.7205001 ,Left ,62,2215169972466 ,46,2659146744178 ,67,2093487766358
3.7431657 ,Left ,62,2285433844036 ,46,2699642435935 ,67,2065852103428
3.758308 ,Left ,62,2275350612909 ,46,2684325171431 ,67,2058852994338
3.7806703 ,Left ,62,2275350612909 ,46,2684325171431 ,67,2058852994338
3.803343 ,Left ,62,2181531220426 ,46,2657628839365 ,67,2037715378674
3.8180852 ,Left ,62,2192876052808 ,46,2632092162764 ,67,2031651118207
3.8407543 ,Left ,62,2187488803994 ,46,2630129169268 ,67,2026843686983
3.8633438 ,Left ,62,2187488803994 ,46,2630129169268 ,67,2026843686983
3.8782781 ,Left ,62,2192876052808 ,46,2632092162764 ,67,2031651118207
3.908026 ,Left ,62,2188901225374 ,46,2622641698037 ,67,2052084210286
3.930531 ,Left ,62,2188901225374 ,46,2622641698037 ,67,2052084210286
3.9453848 ,Left ,62,2157400252519 ,46,2617539049668 ,67,2044174880526
3.9602964 ,Left ,62,2157400252519 ,46,2617539049668 ,67,2044174880526
3.9828882 ,Left ,62,2157400252519 ,46,2617539049668 ,67,2044174880526
3.9979796 ,Left ,62,2108714912649 ,46,2600201945417 ,67,2111080886935
4.0209744 ,Left ,62,2064728609773 ,46,2596239184928 ,67,2180179930038
4.0436199 ,Left ,62,2016963131972 ,46,2616236862165 ,67,2308034791902
4.0582884 ,Left ,62,1975385299953 ,46,2642133820281 ,67,2463367264011
4.0806015 ,Left ,62,1889724084277 ,46,2630774153484 ,67,2649647415605
4.1030362 ,Left ,62,1909270491715 ,46,2620415314339 ,67,2851059283263
4.1177434 ,Left ,62,1888663878639 ,46,2582209603591 ,67,3063029203098
4.1402573 ,Left ,62,1889841752727 ,46,2567101805554 ,67,3314393951391
4.1626783 ,Left ,62,1892988649067 ,46,2514948605848 ,67,3575682981026
4.1852822 ,Left ,62,1845480433841 ,46,2399206498779 ,67,3934825757406
4.2151156 ,Left ,62,1779520982078 ,46,2278860977785 ,67,4344309189477
4.2456255 ,Left ,62,1796930591705 ,46,2086706067291 ,67,5146309945127
4.2677252 ,Left ,62,1867531372663 ,46,1937744645095 ,67,5542010606515
4.2830488 ,Left ,62,1998833885208 ,46,1783359308585 ,67,588761687664
4.2982961 ,Left ,62,2081578105243 ,46,1611759655187 ,67,6301451422059
4.3210808 ,Left ,62,226722213777 ,46,1528507514753 ,67,6731583281356
4.3437644 ,Left ,62,2360006278961 ,46,1411976049746 ,67,7166705228885
4.3660493 ,Left ,62,2452077666258 ,46,1261741492403 ,67,7563898857656
4.3810717 ,Left ,62,248957952457 ,46,1154363450415 ,67,7942664192558
4.403498 ,Left ,62,2524614812815 ,46,1186775367431 ,67,8242142616242
4.4255922 ,Left ,62,2584571259783 ,46,1280007298729 ,67,843922693117
4.4404638 ,Left ,62,2512355889916 ,46,1363122979386 ,67,850688463637
4.4627063 ,Left ,62,2427102230144 ,46,1435183378864 ,67,8518556569598
4.4853819 ,Left ,62,2384117452271 ,46,1526896612962 ,67,8545087828569
4.5001735 ,Left ,62,2354052359001 ,46,1650780216436 ,67,8532021005026
4.5229859 ,Left ,62,2381823695834 ,46,1802768890928 ,67,8434668038808
4.5453283 ,Left ,62,2360427656952 ,46,1970280833556 ,67,8307664117954
4.5601644 ,Left ,62,2261481934447 ,46,2092924463436 ,67,8181052788456
4.5829519 ,Left ,62,2219452752739 ,46,2189287426846 ,67,8027125621382
4.6059763 ,Left ,62,206468097159 ,46,2215546372369 ,67,788877236304
4.6208881 ,Left ,62,1888408434234 ,46,2292909190146 ,67,7762732900708
4.6434571 ,Left ,62,1815897736373 ,46,2417653856521 ,67,7639731280801
4.6730994 ,Left ,62,1728930426605 ,46,2411689775337 ,67,757647412823
4.6951796 ,Left ,62,161568714885 ,46,2393328849039 ,67,7602928825009
4.7326661 ,Left ,62,1438790015042 ,46,2329640996312 ,67,7891445797566
4.7553173 ,Left ,62,1456750647973 ,46,2268130654813 ,67,810394169085
4.7927072 ,Left ,62,1875416932028 ,46,2158172579566 ,67,8638038939993
4.8152731 ,Left ,62,2132807411063 ,46,205909108739 ,67,8895723847133
4.8530814 ,Left ,62,2457860587441 ,46,2079123351342 ,67,9283813337387
4.8751776 ,Left ,62,2472644968894 ,46,2123356658385 ,67,937872246701
4.9128909 ,Left ,62,2760535539089 ,46,2213329598137 ,67,9397723970436
4.9351487 ,Left ,62,2973287578598 ,46,2194469024638 ,67,9343947186619
4.9728177 ,Left ,62,3249115581857 ,46,1958731392321 ,67,9199115078089
4.9954122 ,Left ,62,3193806713214 ,46,1846920817356 ,67,9101323190989
5.0329666 ,Left ,62,3291670026332 ,46,1787685892504 ,67,8941261675246
5.0553856 ,Left ,62,3382332384285 ,46,1864509706438 ,67,8901822227895
5.093053 ,Left ,62,358607484626 ,46,2258149199281 ,67,8859566491979
5.1153062 ,Left ,62,3598281900641 ,46,2442358483957 ,67,8875578775397
5.1532919 ,Left ,62,3526356139476 ,46,2682650052859 ,67,8817914187132
5.1757416 ,Left ,62,3447360714253 ,46,2781537018159 ,67,8762087709507
5.2130828 ,Left ,62,3282319538329 ,46,2913788888121 ,67,8500249151057
5.2351612 ,Left ,62,3191111541284 ,46,2858269564791 ,67,8443709818418
5.2727263 ,Left ,62,3171592420023 ,46,2820610137827 ,67,8454924579451
5.2953669 ,Left ,62,3144256253777 ,46,2804358289049 ,67,8521334369565
5.333156 ,Left ,62,2996746337368 ,46,2677958723118 ,67,8739733693494
5.3553769 ,Left ,62,2915196416527 ,46,2537172962208 ,67,8914762826298
5.3929279 ,Left ,62,2831755687217 ,46,2211639867026 ,67,9356396486568
5.4151295 ,Left ,62,2849614203245 ,46,2053585036161 ,67,9613698192886
5.4526819 ,Left ,62,2955831636371 ,46,1868094807945 ,68,0033395515462
5.4755783 ,Left ,62,2994943101634 ,46,1826573802041 ,68,0150366163746
5.5132824 ,Left ,62,2955431357493 ,46,1954920996095 ,68,0239490831297
5.5357398 ,Left ,62,2825337335651 ,46,2082819539742 ,68,0215077612765
5.5725905 ,Left ,62,2714501181718 ,46,2548865906331 ,67,999648412538
5.5951269 ,Left ,62,2629985218113 ,46,2778366455187 ,67,9881665257081
5.6327255 ,Left ,62,2412829787667 ,46,3220796085601 ,67,9720075471004
5.6556028 ,Left ,62,2351026544249 ,46,3402002826916 ,67,9616849890743
5.6926635 ,Left ,62,2360216610591 ,46,3622071225642 ,67,9485973646396
5.7151813 ,Left ,62,2299028309412 ,46,3659996518121 ,67,943857325183
5.7527758 ,Left ,62,2089751860068 ,46,3628146328779 ,67,9348573099623
5.7752959 ,Left ,62,2073819543893 ,46,3610888755477 ,67,9336938039608
5.8209677 ,Left ,62,2101501123943 ,46,3326969143297 ,67,9452016695623
5.8429109 ,Left ,62,2233490616376 ,46,3130434029979 ,67,9584218945391
5.8726258 ,Left ,62,2436331740341 ,46,2658565185875 ,67,9941113495666
5.8954568 ,Left ,62,2461883837462 ,46,2479256377148 ,68,0143375655789
5.9326796 ,Left ,62,2638275495912 ,46,2085504113823 ,68,0524568406281
5.9551337 ,Left ,62,2719509635064 ,46,1824648688522 ,68,0757439981215
5.9924767 ,Left ,62,2784561978652 ,46,1500346076114 ,68,114808236989
6.0150212 ,Left ,62,2825756903512 ,46,1348237397938 ,68,1361379667229
6.0525984 ,Left ,62,2964166111582 ,46,1032874997863 ,68,1847069731436
6.0828578 ,Left ,62,3010447322157 ,46,0852505480361 ,68,2050508882344
6.1277384 ,Left ,62,3142220500711 ,46,061801595788 ,68,2352707301077
6.1428029 ,Left ,62,3268771554454 ,46,0549961840645 ,68,2427235084418
6.1953659 ,Left ,62,3461042548738 ,46,0580571203382 ,68,2384933610503
6.2256486 ,Left ,62,3586584834566 ,46,081116941255 ,68,2250105833909
6.2555942 ,Left ,62,3559726892011 ,46,09529007196 ,68,2189522954537
6.293226 ,Left ,62,3500275512751 ,46,1326523498722 ,68,1995779095068
6.3153938 ,Left ,62,3436350966185 ,46,1491757435437 ,68,1938074108532
6.3529225 ,Left ,62,3286583644299 ,46,1670148585682 ,68,1768736573542
6.3753825 ,Left ,62,3216997254222 ,46,1741110118643 ,68,1681936529603
6.4203976 ,Left ,62,3202082823972 ,46,1895675138744 ,68,1472219484721
6.4725959 ,Left ,62,3103694242124 ,46,1957819681987 ,68,1427057813439
6.487748 ,Left ,62,3185565963063 ,46,1970769022706 ,68,1392658131383
6.510413 ,Left ,62,3333136135354 ,46,1938872417666 ,68,1299044627118
6.525463 ,Left ,62,339579631521 ,46,1898433717948 ,68,1190306721893
6.5476596 ,Left ,62,3529795103643 ,46,1856078475761 ,68,1040146621458
6.5703912 ,Left ,62,354018519064 ,46,1795495401251 ,68,0838568593283
6.5852522 ,Left ,62,3564520248917 ,46,1740561933031 ,68,0513576968218
6.607825 ,Left ,62,3568015319752 ,46,165553261484 ,68,0174662533416
6.6301567 ,Left ,62,3493834594154 ,46,1566777158274 ,67,9849284833741
6.64599 ,Left ,62,3475906012008 ,46,1508029588203 ,67,9595645292496
6.6682681 ,Left ,62,341148820032 ,46,1501418426803 ,67,9374678118606
6.6906846 ,Left ,62,3349706389208 ,46,1561045893476 ,67,9231506160965
6.7057773 ,Left ,62,319413724645 ,46,1648795969887 ,67,9214320304437
6.7282979 ,Left ,62,2954004223517 ,46,178738679268 ,67,9304523769317
6.7505089 ,Left ,62,2682800987835 ,46,1970942329767 ,67,951096724264
6.7658621 ,Left ,62,2404457702968 ,46,2176287500276 ,67,9772699352023
6.7881906 ,Left ,62,212172290303 ,46,2450489490325 ,68,0058242203711
6.8107543 ,Left ,62,1859630681137 ,46,2721841116415 ,68,0319045522974
6.8254633 ,Left ,62,150925276913 ,46,2920633267541 ,68,0643320454532
6.8479734 ,Left ,62,1091369216684 ,46,3128233700234 ,68,0964354184156
6.8705313 ,Left ,62,0684679458554 ,46,3413003611807 ,68,1209399246052
6.885206 ,Left ,62,0219395192639 ,46,3800940374145 ,68,134736316717
6.9084875 ,Left ,61,9726941613939 ,46,4255211462118 ,68,1373025812613
6.9308553 ,Left ,61,9271455716311 ,46,4736177481682 ,68,1314837873478
6.9462473 ,Left ,61,8697930821595 ,46,5308311885917 ,68,1114871016116
6.9687101 ,Left ,61,7967178298649 ,46,6090307942371 ,68,0882938930722
6.9904672 ,Left ,61,7179397220662 ,46,6668043256547 ,68,0753780280025
7.0127996 ,Left ,61,6749569952264 ,46,7420969845631 ,68,0402929470441
7.035289 ,Left ,61,6130162685743 ,46,8164827407342 ,67,9842612278245
7.0576834 ,Left ,61,5512664048101 ,46,9457503380587 ,67,9236959118782
7.0730158 ,Left ,61,5203410569854 ,47,0595482309024 ,67,8758805567971
7.0879307 ,Left ,61,5451338096924 ,47,1262367604351 ,67,805722621517
7.110299 ,Left ,61,5283831157116 ,47,1549166818982 ,67,72970449893
7.1329465 ,Left ,61,5158142134296 ,47,172354545887 ,67,6410136833024
7.1477308 ,Left ,61,5149208625041 ,47,1723276797116 ,67,5681523630723
7.1702635 ,Left ,61,50499509809 ,47,1536609436607 ,67,5079817673193
7.1932135 ,Left ,61,4966578630343 ,47,1232671029684 ,67,4520092924486
7.2080389 ,Left ,61,4667324069858 ,47,1005359050753 ,67,407582198044
7.2305964 ,Left ,61,4760184014357 ,47,0788985319425 ,67,367121723184
7.2531822 ,Left ,61,4868150419053 ,47,060821619753 ,67,3251212861488
7.2678977 ,Left ,61,4844227831313 ,47,0472903453594 ,67,2929349632298
7.2906115 ,Left ,61,4614108731543 ,47,0393053479302 ,67,2673229640666
7.3127996 ,Left ,61,4418562885605 ,47,0315762672226 ,67,2472996285194
7.3283908 ,Left ,61,4208706450681 ,47,0302965258297 ,67,2462979112288
7.3506652 ,Left ,61,4398700434052 ,47,0359664592939 ,67,2333920110461
7.3735011 ,Left ,61,4496973534184 ,47,0557008064986 ,67,2016759503366
7.3881009 ,Left ,61,4189964536337 ,47,0741485999401 ,67,1909482949686
7.4181299 ,Left ,61,3929846205124 ,47,1194561593791 ,67,1898669202765
7.4405365 ,Left ,61,3600853759528 ,47,1432556172361 ,67,1931314757202
7.4554922 ,Left ,61,3941199528304 ,47,1548886054209 ,67,1940793614269
7.4782663 ,Left ,61,3625319122909 ,47,1494730518451 ,67,1854774644002
7.5007536 ,Left ,61,3120272248108 ,47,1609536398195 ,67,1651122758573
7.5155147 ,Left ,61,2831680821332 ,47,1784918682297 ,67,1497794493767
7.5307323 ,Left ,61,3365390827293 ,47,1748522213057 ,67,1233887974338
7.5533775 ,Left ,61,3578898529494 ,47,1826780247252 ,67,1016779077548
7.5677804 ,Left ,61,3154415737957 ,47,2261552371809 ,67,1127822112983
7.5904058 ,Left ,61,2836942289271 ,47,2960295508085 ,67,1286065096889
7.6127145 ,Left ,61,3044831391662 ,47,3575060240393 ,67,1488602655132
7.6276467 ,Left ,61,3145761363788 ,47,4058592344707 ,67,1440569401286
7.6502593 ,Left ,61,2854227377668 ,47,4487966367969 ,67,1292603385735
7.6802459 ,Left ,61,2613795947471 ,47,4797923653038 ,67,1264761768889
7.6955237 ,Left ,61,2591749318042 ,47,4814396369186 ,67,1238923295776
7.7252501 ,Left ,61,240830790022 ,47,466633627299 ,67,1066337501847
7.755104 ,Left ,61,1732437983261 ,47,4244645943421 ,67,0612337248046
7.7704515 ,Left ,61,1580565026979 ,47,4041049409146 ,67,0354197518652
7.7930063 ,Left ,61,1667175022339 ,47,4060638879632 ,67,0004719462775
7.807923 ,Left ,61,1582179644419 ,47,4185772135767 ,66,976291551134
7.8303673 ,Left ,61,1500575010771 ,47,4287138273583 ,66,9637720162905
7.8528453 ,Left ,61,13676885348 ,47,4329662393761 ,66,9560324030367
7.8679866 ,Left ,61,1130525467375 ,47,422013034146 ,66,954112127959
7.890423 ,Left ,61,1098243082264 ,47,4282676107175 ,66,938746360062
7.9133886 ,Left ,61,0817750458956 ,47,4422424522819 ,66,9097925466118
7.9286805 ,Left ,61,0686612324691 ,47,4265078344694 ,66,8764001993311
7.9505222 ,Left ,61,1057222000739 ,47,4207111734085 ,66,8154816603613
7.9727797 ,Left ,61,0171973370137 ,47,4565028492334 ,66,7667291980471
7.9877366 ,Left ,60,9640275539134 ,47,5720704260695 ,66,7575496132382
8.0102758 ,Left ,60,9385964096658 ,47,6820707765116 ,66,7428074668607
8.0327985 ,Left ,60,976740234799 ,47,7506741786452 ,66,7386649027215
8.0554543 ,Left ,60,9988619815475 ,47,7944254169236 ,66,7026704595252
8.0703062 ,Left ,60,9787581590405 ,47,8289773964538 ,66,6456597814457
8.0928081 ,Left ,60,9517952259233 ,47,8568739100602 ,66,60232247562
8.1076884 ,Left ,60,9615016794985 ,47,8709173110188 ,66,5815794946911
8.1301502 ,Left ,60,9772584643646 ,47,8883401069417 ,66,5556587231602
8.152674 ,Left ,60,9839588802013 ,47,917576775325 ,66,5205207174986
8.175165 ,Left ,60,9777470050796 ,47,9271703885528 ,66,4743063761733
8.1901888 ,Left ,60,9842002342163 ,47,9386507295373 ,66,423546221961
8.2127142 ,Left ,60,9887249978299 ,47,9576655444445 ,66,3631450244357
8.2350619 ,Left ,60,9882635586044 ,47,9815723167411 ,66,284257731358
8.2501843 ,Left ,60,9933360964726 ,47,9907541827318 ,66,1990980687043
8.2728861 ,Left ,60,9939438264856 ,47,985644728947 ,66,1206121442853
8.2961208 ,Left ,60,9379973508379 ,48,0003234644423 ,66,0388148047102
8.3109879 ,Left ,60,8549355235961 ,47,9909887021972 ,65,9553587173544
8.3336209 ,Left ,60,7883871105203 ,47,9330106688421 ,65,882590544612
8.3558976 ,Left ,60,769678646623 ,47,8668853216 ,65,8591874947373
8.3709353 ,Left ,60,7273647585524 ,47,8248940481253 ,65,8902572799004
8.3930293 ,Left ,60,7316948985005 ,47,8389020330064 ,65,9618200909946
8.4155 ,Left ,60,7685715304266 ,47,845201886687 ,66,0737694571661
8.4303531 ,Left ,60,864934893768 ,47,7785373090323 ,66,170290527695
8.4529043 ,Left ,60,9295659701222 ,47,6342642418914 ,66,2523643356302
8.475227 ,Left ,60,9810708830927 ,47,5390048914964 ,66,3054928024517
8.4902111 ,Left ,60,9985977138598 ,47,5161360406115 ,66,331830262419
8.512977 ,Left ,61,0385236936312 ,47,474401016769 ,66,3671622375298
8.5360616 ,Left ,61,1141724953698 ,47,4093970472225 ,66,4019409537436
8.5511039 ,Left ,61,1644985971998 ,47,3125289794159 ,66,3937337869467
8.573693 ,Left ,61,164121537988 ,47,2316666694821 ,66,3919903021789
8.5957235 ,Left ,61,1996224043344 ,47,1888579978019 ,66,4164322597524
8.6107021 ,Left ,61,2695372353684 ,47,1982755381843 ,66,4693017733531
8.6331423 ,Left ,61,4083078080504 ,47,1925929492355 ,66,528980745255
8.6556788 ,Left ,61,5337628991521 ,47,1539158041795 ,66,5838158668339
8.6708033 ,Left ,61,6337346258281 ,47,0929148650773 ,66,6650652948184
8.6931813 ,Left ,61,7186007544194 ,47,0595615004941 ,66,7389096188576
8.7156988 ,Left ,61,7861966325869 ,47,0291889696954 ,66,7970757543286
8.7380852 ,Left ,61,8810971912838 ,46,9837849194858 ,66,861393844994
8.7602805 ,Left ,61,9658972801419 ,46,9069419032177 ,66,9237016333149
8.7902633 ,Left ,62,0434093151386 ,46,7900024106688 ,67,0214813037742
8.8129442 ,Left ,62,0282256175508 ,46,7541155447451 ,67,0418811489322
8.8355762 ,Left ,62,0432825919826 ,46,7257154729331 ,67,0514635732843
8.850308 ,Left ,62,0970426176839 ,46,6975028285686 ,67,0665917756187
8.8729367 ,Left ,62,1456282742611 ,46,6706255957207 ,67,0916756795743
8.8955023 ,Left ,62,1665921090413 ,46,6517131166935 ,67,1207222671234
8.9105678 ,Left ,62,1516208326578 ,46,6474652577216 ,67,1397500026242
8.933235 ,Left ,62,1419119536797 ,46,6427489432665 ,67,1597137271906
8.9554146 ,Left ,62,1390479861652 ,46,6353945430206 ,67,1693617761812
8.9703751 ,Left ,62,1311533648496 ,46,6237197245092 ,67,1792732100642
8.9932939 ,Left ,62,1359262649359 ,46,6210001547899 ,67,1890157498512
9.0159041 ,Left ,62,1115319416885 ,46,6161312439723 ,67,1966004273042
9.0311584 ,Left ,62,1014758232103 ,46,6149196980956 ,67,2022978586947
9.0535113 ,Left ,62,0978830403037 ,46,6036340281071 ,67,2054028008098
9.075453 ,Left ,62,0907724630386 ,46,5844116854568 ,67,2154654212688
9.0979051 ,Left ,62,0978384828058 ,46,5705108125217 ,67,2319900062755
9.1128764 ,Left ,62,1028658920913 ,46,5674437861791 ,67,2465272408178
9.135465 ,Left ,62,1047322414477 ,46,5742438497276 ,67,266987049116
9.1578216 ,Left ,62,1097912091074 ,46,5785872064855 ,67,286706305457
9.172827 ,Left ,62,1297095868081 ,46,5813588377586 ,67,3105036182422
9.1952677 ,Left ,62,1256639482769 ,46,5761956249127 ,67,3385899082832
9.2178192 ,Left ,62,1252733423748 ,46,5728575477713 ,67,3677546293843
9.2327096 ,Left ,62,1222292273816 ,46,5732975597897 ,67,3979330039753
9.255215 ,Left ,62,1268876614252 ,46,5783116882482 ,67,4282002936151
9.2780972 ,Left ,62,1354913859942 ,46,5827234961239 ,67,4536541501671
9.293023 ,Left ,62,1351364975861 ,46,5834286324336 ,67,4842486405342
9.3154305 ,Left ,62,1343789611474 ,46,5811559087921 ,67,5061866099698
9.3376636 ,Left ,62,1348647045832 ,46,5726178159657 ,67,5284949626903
9.3603946 ,Left ,62,1348369451757 ,46,5627689499596 ,67,5505723416079
9.3827381 ,Left ,62,132005014415 ,46,5574457353849 ,67,5711278875074
9.4129089 ,Left ,62,1378242791416 ,46,5503689581862 ,67,605169565611
9.4428046 ,Left ,62,1474722498714 ,46,5447265635237 ,67,6249423397395
9.4729 ,Left ,62,1465457926095 ,46,5366743249825 ,67,6502443258293
9.4876643 ,Left ,62,1479359986021 ,46,5303469516032 ,67,6708576806506
9.5102061 ,Left ,62,1502371152168 ,46,5211102374096 ,67,6885419348493
9.5331664 ,Left ,62,1547387282198 ,46,5087616231236 ,67,7158063010016
9.5553979 ,Left ,62,1565732314073 ,46,5006312253942 ,67,7261198064242
9.5857535 ,Left ,62,1573501655514 ,46,4950540558287 ,67,7370568036792
9.607933 ,Left ,62,1586500987164 ,46,4907722464029 ,67,7482548640603
9.6379261 ,Left ,62,1617506015869 ,46,4858352558081 ,67,7546820805397
9.6602015 ,Left ,62,1662796096178 ,46,4792923780588 ,67,7584134703419
9.6753264 ,Left ,62,1743391830997 ,46,4752512549386 ,67,7606744119597
9.6977466 ,Left ,62,1827736742811 ,46,4721615506082 ,67,7608566005652
9.713017 ,Left ,62,1936921539709 ,46,4659913398469 ,67,7575206625878
9.7277939 ,Left ,62,2017644625898 ,46,4578769438995 ,67,7584478707615
9.7427741 ,Left ,62,2210002863844 ,46,4442076622367 ,67,7516203653885
9.7581219 ,Left ,62,2358979191366 ,46,4252284930139 ,67,7393886083204
9.7732745 ,Left ,62,2570097111783 ,46,4079412811928 ,67,7262380827343
9.8029146 ,Left ,62,2702243889661 ,46,3939664933505 ,67,7133664170162
9.8257558 ,Left ,62,279036853154 ,46,3868930301733 ,67,6991032350847
9.840649 ,Left ,62,2975064382578 ,46,3815844134683 ,67,6896096880608
9.8556161 ,Left ,62,3044233912495 ,46,3756919753124 ,67,6888137645729
9.878248 ,Left ,62,3071882242338 ,46,3656963984219 ,67,6959703075554
9.8933195 ,Left ,62,3119837944406 ,46,3668614392436 ,67,707242584144
9.9155869 ,Left ,62,3103161152895 ,46,3727624259298 ,67,7267296722487
9.9382462 ,Left ,62,3119742459194 ,46,3824503868457 ,67,7509238902508
9.9530001 ,Left ,62,3136623309023 ,46,392131872859 ,67,7751349087438
9.9757149 ,Left ,62,3061705962017 ,46,398925054874 ,67,8019933181054
10.0055096 ,Left ,62,2967481317195 ,46,4060285551712 ,67,8313131668795
10.0204667 ,Left ,62,3003253785274 ,46,4080129419967 ,67,8478900053527
10.042732 ,Left ,62,3112805405635 ,46,4088712842382 ,67,8474408358575
10.057747 ,Left ,62,3249393108798 ,46,4124225547565 ,67,8401908147716
10.0804504 ,Left ,62,3280189644034 ,46,4150169720844 ,67,8314905345827
10.0955217 ,Left ,62,3382482061506 ,46,423990602608 ,67,8129190022843
10.1185162 ,Left ,62,3432490871891 ,46,4308786963356 ,67,7851280049462
10.1407907 ,Left ,62,3455050242741 ,46,4437178478374 ,67,7488601462056
10.1560326 ,Left ,62,3456352754181 ,46,4605850479061 ,67,7140913387121
10.1781488 ,Left ,62,3384402027469 ,46,4769136517865 ,67,6878211195596
10.2004235 ,Left ,62,3270025045219 ,46,5018461420176 ,67,6822312603104
10.2153819 ,Left ,62,3087868740985 ,46,5345949359807 ,67,6882576627448
10.2380943 ,Left ,62,2753831360183 ,46,5636312479612 ,67,7087338811364
10.2605243 ,Left ,62,2473311728498 ,46,5988952577532 ,67,7397802753416
10.2753691 ,Left ,62,2200866090399 ,46,6323291353111 ,67,780755162898
10.297801 ,Left ,62,1991545825255 ,46,6644791252379 ,67,8193320351478
10.3203094 ,Left ,62,1584854151348 ,46,6935619804064 ,67,8564519266965
10.3351725 ,Left ,62,1087879679436 ,46,7195418649581 ,67,8806898680728
10.3577573 ,Left ,62,0417177206682 ,46,7366428052402 ,67,8916741559316
10.3876091 ,Left ,61,9193163495062 ,46,8349079196184 ,67,8837311009813
10.4103161 ,Left ,61,8604436311217 ,46,8742689573852 ,67,8752846730368
10.4477475 ,Left ,61,8156751561992 ,47,032865039496 ,67,8004258862035
10.4701796 ,Left ,61,7190967090035 ,47,1662551126057 ,67,7650097871764
10.4927337 ,Left ,61,711701429382 ,47,2264862263728 ,67,7263984449454
10.5076433 ,Left ,61,7157119911952 ,47,2341930318139 ,67,674288120427
10.5307629 ,Left ,61,7045823553601 ,47,2319876456518 ,67,6114766698918
10.55346 ,Left ,61,7084538231151 ,47,2350428821556 ,67,5429532534391
10.5683023 ,Left ,61,7162262314329 ,47,2286104762936 ,67,4695870037007
10.5907881 ,Left ,61,7059173081506 ,47,2128722856615 ,67,3975147855333
10.6279775 ,Left ,61,6513431841473 ,47,2197130477599 ,67,2546031599224
10.6505333 ,Left ,61,6107232686971 ,47,2246182707576 ,67,1955764970801
10.70314 ,Left ,61,6115435690946 ,47,2120634111624 ,67,1295823838195
10.725118 ,Left ,61,5775711636701 ,47,2079021142952 ,67,1333910857688
10.7702123 ,Left ,61,5159075554342 ,47,2647229507794 ,67,1161429769992
10.808291 ,Left ,61,4205442451462 ,47,3306665534338 ,67,0479691666499
10.8306772 ,Left ,61,4923490931952 ,47,3562446502888 ,67,0171853316259
10.8680229 ,Left ,61,4064731130626 ,47,5147900392096 ,67,0210995391576
10.8903944 ,Left ,61,3555995501848 ,47,5936208526142 ,67,0373690758616
10.9281231 ,Left ,61,3754659390999 ,47,6818531314633 ,67,060148748831
10.9505184 ,Left ,61,3467494542387 ,47,7244577469948 ,67,0502525874722
10.9880884 ,Left ,61,3028573110795 ,47,7403308675785 ,67,0243516632016
11.0104647 ,Left ,61,2706422697792 ,47,7248459051172 ,66,9996485708797
11.0478517 ,Left ,61,2227267263959 ,47,6396245585073 ,66,9547466066324
11.0703708 ,Left ,61,1981836163204 ,47,6112419054529 ,66,9319132772095
11.1086555 ,Left ,61,1800248313182 ,47,5148611029618 ,66,8805296467104
11.1306718 ,Left ,61,1894712411292 ,47,4683630223041 ,66,8718900120781
11.1676991 ,Left ,61,1229272553632 ,47,6330396773145 ,66,8841263192097
11.1902827 ,Left ,61,1523104324675 ,47,6994764161027 ,66,8930439417435
11.2279126 ,Left ,61,1524546218425 ,47,7692254957189 ,66,83810690912
11.2501 ,Left ,61,1385135067534 ,47,7976704645587 ,66,7821221498961
11.2876657 ,Left ,61,1510939816686 ,47,8544654297869 ,66,6324850959356
11.3102167 ,Left ,61,1294221020103 ,47,8905877150652 ,66,5443766878782
11.3477816 ,Left ,61,0623348478238 ,47,963353610635 ,66,3870806929541
11.3704948 ,Left ,61,0541740493739 ,47,9801323331734 ,66,297735104935
11.4077181 ,Left ,60,968432517608 ,47,9851900139116 ,66,1288714959669
11.4301264 ,Left ,60,9251463002279 ,47,9509531095329 ,66,0518849127154
11.4683307 ,Left ,60,8386959851092 ,47,8117872189072 ,65,9744353576881
11.490198 ,Left ,60,815964523648 ,47,7896855467361 ,66,021559393987
11.5276293 ,Left ,60,8780611721155 ,47,7216884867582 ,66,1944380733884
11.5502703 ,Left ,60,9321829727946 ,47,602360146195 ,66,276207407786
11.5878752 ,Left ,60,9975793906167 ,47,486595860779 ,66,3731755972731
11.6104121 ,Left ,61,0466710285966 ,47,420005626102 ,66,4377593194594
11.6477529 ,Left ,61,1721326454538 ,47,2675848936203 ,66,4361824615562
11.6701999 ,Left ,61,1803561502834 ,47,2213052455663 ,66,4514394791631
11.7078475 ,Left ,61,2853353039217 ,47,2385121489508 ,66,5724811577376
11.7305595 ,Left ,61,4172112473341 ,47,2347360027059 ,66,6249860435812
11.7681795 ,Left ,61,6105622476264 ,47,0791937733222 ,66,7729357891989
11.7906257 ,Left ,61,6656975243864 ,47,0065744016125 ,66,8598921166808
11.8281431 ,Left ,61,800225200492 ,46,8991421635078 ,66,983025469274
11.8505565 ,Left ,61,8695173706341 ,46,8285499282873 ,67,0357040972129
11.880659 ,Left ,61,9438615125409 ,46,6982124502408 ,67,1517769064126
11.9103013 ,Left ,61,9427382969812 ,46,6679538062989 ,67,1988664092793
11.9475514 ,Left ,61,9610488370628 ,46,6121630446212 ,67,2553090597736
11.9777075 ,Left ,61,9887785105638 ,46,57806444919 ,67,2879197105286
12.0152377 ,Left ,62,0414122397879 ,46,5341450941256 ,67,3430700569423
12.0303916 ,Left ,62,0486235359207 ,46,5165296994513 ,67,3606597066076
12.067904 ,Left ,62,0579702758125 ,46,470431578054 ,67,381931141035
12.0905862 ,Left ,62,080452105257 ,46,4565535518943 ,67,3850388009072
12.1350962 ,Left ,62,0864122868987 ,46,4282224742456 ,67,3813299646084
12.1659774 ,Left ,62,0808091569168 ,46,4097992065552 ,67,3818496787589
12.2181371 ,Left ,62,0780574580042 ,46,3722665069531 ,67,4273329557324
12.232708 ,Left ,62,0723360226825 ,46,3539170500967 ,67,468153500714
12.2482982 ,Left ,62,0709764085845 ,46,3422480731165 ,67,5276376656292
12.2633862 ,Left ,62,0680188136851 ,46,335885289497 ,67,5889096746427
12.2854937 ,Left ,62,0691219722247 ,46,3363284932141 ,67,6505297769994
12.3003906 ,Left ,62,079456619427 ,46,3407411294379 ,67,7093038072648
12.3230444 ,Left ,62,094884707038 ,46,3418985586864 ,67,7626762444379
12.3454948 ,Left ,62,111181581723 ,46,3367150609536 ,67,8093530796027
12.3603389 ,Left ,62,1203644766945 ,46,3418571526767 ,67,8533189185352
12.3829956 ,Left ,62,1189914017434 ,46,345059102462 ,67,884923430612
12.4055357 ,Left ,62,1190723079133 ,46,3425659226594 ,67,9125329899833
12.4203764 ,Left ,62,1266630210413 ,46,3321188545664 ,67,922582142949
12.4430951 ,Left ,62,1347137776536 ,46,3239585022582 ,67,9235315118842
12.4658101 ,Left ,62,1418798562694 ,46,3291996140313 ,67,9137145156718
12.4806925 ,Left ,62,1544657984701 ,46,3387058377979 ,67,8903927253909
12.5107897 ,Left ,62,1745201660478 ,46,3449413443025 ,67,8595734995669
12.5330803 ,Left ,62,1821618680252 ,46,3458890055356 ,67,8198431559502
12.5481619 ,Left ,62,1863416473548 ,46,3579046019921 ,67,7786495871904
12.5631741 ,Left ,62,1751728080792 ,46,3829803109272 ,67,7394719910437
12.5852409 ,Left ,62,1738469824038 ,46,4114784868769 ,67,700481269858
12.6001952 ,Left ,62,1514378258403 ,46,4355247438511 ,67,6750123800842
12.6229474 ,Left ,62,1233758368716 ,46,4587357676093 ,67,6686768993766
12.6454139 ,Left ,62,094486567955 ,46,4898551162421 ,67,6775950519188
12.6601982 ,Left ,62,0495588744302 ,46,5232452841285 ,67,7055575792865
12.6837483 ,Left ,62,0085623659966 ,46,5564462915401 ,67,7440313652081
12.7060419 ,Left ,61,9717732023112 ,46,5883578426821 ,67,7801577248206
12.7207617 ,Left ,61,9296373542175 ,46,611090829829 ,67,8173756226886
12.7500904 ,Left ,61,8646816640123 ,46,6404118357157 ,67,8457044947212
12.7726649 ,Left ,61,7676011182913 ,46,6902290644626 ,67,8812937747489
12.8026321 ,Left ,61,583859145954 ,46,8185267544684 ,67,9302284596608
12.8253169 ,Left ,61,5335046299058 ,46,85438141762 ,67,9395862954733
12.8480641 ,Left ,61,4793248041524 ,46,9163838573156 ,67,9163637632487
12.8627998 ,Left ,61,4295117253166 ,47,0156161805944 ,67,8683239569859
12.8854313 ,Left ,61,3478359843755 ,47,1437433436093 ,67,809822417523
12.9078841 ,Left ,61,3454392876099 ,47,2077102721153 ,67,7524148957751
12.9227957 ,Left ,61,362138786849 ,47,2355848848297 ,67,6664444787902
12.9454624 ,Left ,61,3667477084889 ,47,2620773192861 ,67,5559413999754
12.9678575 ,Left ,61,3611703346889 ,47,2731909380297 ,67,4564721400841
12.9831418 ,Left ,61,3694727050901 ,47,2642953365968 ,67,375565306037
13.0054386 ,Left ,61,3500050367262 ,47,2549274011164 ,67,2952113016476
13.0277452 ,Left ,61,2768910684521 ,47,2381281126881 ,67,215000964605
13.0426958 ,Left ,61,3139931553142 ,47,2170881417895 ,67,1415778268807
13.0652142 ,Left ,61,2902101313147 ,47,2047105922808 ,67,1096547203683
13.0879087 ,Left ,61,2893703992475 ,47,2047072201738 ,67,104460985039
13.102858 ,Left ,61,2596631623628 ,47,237158504187 ,67,1110627390796
13.1256724 ,Left ,61,2667468907462 ,47,2568943944743 ,67,1159526754305
13.1481778 ,Left ,61,2417939753283 ,47,2596445273783 ,67,1012514245163
13.163214 ,Left ,61,1783657198329 ,47,2830107716465 ,67,0630123652338
13.1857158 ,Left ,61,1549525419302 ,47,3008559764904 ,67,0139628052554
13.2151562 ,Left ,61,2329565273775 ,47,3081696687627 ,66,9603817251843
13.237769 ,Left ,61,1922022538672 ,47,3658041499462 ,66,9612570186112
13.2677368 ,Left ,61,1201809858726 ,47,4905495740151 ,66,972139861545
13.282901 ,Left ,61,0799329099866 ,47,5953533686567 ,66,9906645456409
13.2978765 ,Left ,61,1052811849353 ,47,6673089924223 ,66,998211536253
13.3126696 ,Left ,61,0830397260869 ,47,7119858832419 ,66,9726890262228
13.3280337 ,Left ,61,0359187598218 ,47,7518193306612 ,66,9446963336858
13.3436579 ,Left ,61,0212222475234 ,47,7722310436303 ,66,91491947946
13.3659588 ,Left ,61,0101842209162 ,47,763540626111 ,66,888716637195
13.3882028 ,Left ,61,0038258192898 ,47,7361625124219 ,66,8669377710228
13.4028149 ,Left ,60,9808835395888 ,47,7022413229866 ,66,8427271013381
13.42531 ,Left ,60,9644451114321 ,47,6611157580358 ,66,8223253337972
13.4477399 ,Left ,60,9616713673079 ,47,6145577410376 ,66,8146490967188
13.4628054 ,Left ,60,9531089597731 ,47,5866976982378 ,66,8142572543842
13.485199 ,Left ,60,9328705700716 ,47,5709730275475 ,66,801730799366
13.5077174 ,Left ,60,9729988652021 ,47,5333713934807 ,66,7877250581581
13.5227122 ,Left ,61,0397182531293 ,47,5255762737708 ,66,7723415558153
13.5452573 ,Left ,61,0287161730978 ,47,5773676968688 ,66,782493846902
13.5678048 ,Left ,60,9897712600946 ,47,6699325619827 ,66,7923167558798
13.5829175 ,Left ,61,0147568239667 ,47,7065650497191 ,66,8052297951397
13.6054338 ,Left ,61,0351839719279 ,47,7192639642679 ,66,7781611399629
13.6279096 ,Left ,61,0354797340298 ,47,735215572785 ,66,7324852874616
13.6428451 ,Left ,61,027788907797 ,47,7616207351726 ,66,6766999135407
13.6660315 ,Left ,61,0256391344407 ,47,8003427945789 ,66,611301459494
13.6878804 ,Left ,61,0385096616802 ,47,846045950297 ,66,5406277973552
13.7030314 ,Left ,61,039624451519 ,47,8821161358544 ,66,4731781026155
13.7253039 ,Left ,61,0371886693473 ,47,9091049497311 ,66,4019937041943
13.7478575 ,Left ,61,0107909816489 ,47,9263918387256 ,66,3363077734327
13.7628972 ,Left ,60,9928126672023 ,47,9509905347039 ,66,2650891580179
13.785301 ,Left ,60,9760541359471 ,47,9724667645049 ,66,1810193098317
13.807928 ,Left ,60,9659979820152 ,47,9756534069666 ,66,0966010865685
13.8229873 ,Left ,60,9652795776029 ,47,9715904713257 ,66,0187116197461
13.8453743 ,Left ,60,9377787261099 ,47,9640568442715 ,65,9335928949316
13.8681577 ,Left ,60,8831177435134 ,47,9462822869335 ,65,8610729196896
13.8906555 ,Left ,60,8267896752949 ,47,9144113476412 ,65,795683104894
13.9057337 ,Left ,60,8162293942983 ,47,834766491756 ,65,7592954340471
13.9283452 ,Left ,60,794505110498 ,47,7598483608612 ,65,7638221085879
13.9505523 ,Left ,60,7947499117319 ,47,7342595209224 ,65,8175446077142
13.9657768 ,Left ,60,8168673128974 ,47,7204559249813 ,65,9037941683065
13.9882628 ,Left ,60,9280326240293 ,47,6740913308799 ,65,9938347972371
14.0108256 ,Left ,60,9979711040723 ,47,5838894888847 ,66,0742064351962
14.0257237 ,Left ,61,0646899122071 ,47,4851385139565 ,66,1445196320846
14.0479601 ,Left ,61,1462105447178 ,47,4335737803597 ,66,2078695284647
14.0704527 ,Left ,61,1959046166061 ,47,379216924362 ,66,2592333106806
14.085223 ,Left ,61,2469368722746 ,47,3216893767326 ,66,2759049384061
14.1076137 ,Left ,61,3072744386157 ,47,2336912323198 ,66,2663863232823
14.1303117 ,Left ,61,3504193773712 ,47,1573934016907 ,66,2956933489953
14.1452567 ,Left ,61,3814621375807 ,47,1638591272754 ,66,3428613257538
14.1678968 ,Left ,61,4280666632187 ,47,2105058526628 ,66,4175012279908
14.190463 ,Left ,61,543239997906 ,47,2258915526721 ,66,4843725575455
14.2055928 ,Left ,61,634617595846 ,47,1820716164487 ,66,5601103826906
14.2279035 ,Left ,61,717266021455 ,47,1293216688852 ,66,6439263408036
14.250285 ,Left ,61,7844526737301 ,47,1301475712416 ,66,6979440391487
14.2651707 ,Left ,61,8221987574824 ,47,1037224032026 ,66,7558367937493
14.2878487 ,Left ,61,8905967156458 ,47,0437304905092 ,66,8137470997807
14.3103568 ,Left ,61,9164597890533 ,46,9720322004755 ,66,8771617081328
14.325128 ,Left ,61,9164060360408 ,46,9015493038747 ,66,9497075865958
14.347693 ,Left ,61,9147018871384 ,46,849265016998 ,67,0064735598968
14.3702491 ,Left ,61,9223394541888 ,46,7999134214944 ,67,0480574968452
14.3852308 ,Left ,61,9492102188083 ,46,7585532155919 ,67,087582045775
14.4079394 ,Left ,62,001196159843 ,46,7293284546617 ,67,1299732134945
14.4303026 ,Left ,62,0328968058485 ,46,715816113278 ,67,1798317600835
14.4452642 ,Left ,62,0558573689082 ,46,7000222219506 ,67,2103815978765
14.4681184 ,Left ,62,0609130244433 ,46,6780471915828 ,67,2132432313735
14.4906723 ,Left ,62,0771207741159 ,46,6526569446866 ,67,1991684799461
14.505519 ,Left ,62,098334070626 ,46,6291974978341 ,67,1918637821009
14.527773 ,Left ,62,1151208230195 ,46,6199940584362 ,67,1883432495235
14.5502369 ,Left ,62,1072913029563 ,46,6181044671238 ,67,1764623581913
14.5653666 ,Left ,62,1023696393012 ,46,6289672893572 ,67,169382883238
14.5880504 ,Left ,62,1012762651788 ,46,624084711773 ,67,1648369895786
14.6102693 ,Left ,62,1014277111272 ,46,6233550993409 ,67,1673414176884
14.6259427 ,Left ,62,1020447722158 ,46,6120582259411 ,67,1613333254064
14.6485245 ,Left ,62,0955599152094 ,46,6092773221468 ,67,1443247093736
14.6706106 ,Left ,62,0779857086634 ,46,6057245470217 ,67,123025968216
14.6932358 ,Left ,62,0655863946968 ,46,6122224903341 ,67,0982679807343
14.7154737 ,Left ,62,0590115663689 ,46,62091888154 ,67,0877621464054
14.7452221 ,Left ,62,0151178407921 ,46,638435932909 ,67,1156624221407
14.7679553 ,Left ,61,9811615500361 ,46,6675009018784 ,67,1510972554529
14.7900869 ,Left ,61,9314222806675 ,46,7003842922713 ,67,2007801270509
14.8127305 ,Left ,61,893223103435 ,46,7314738504092 ,67,2665969323748
14.8277264 ,Left ,61,8539521809317 ,46,7623637005956 ,67,3444492182432
14.8502522 ,Left ,61,8211014004076 ,46,7962329445361 ,67,4212645489491
14.8729142 ,Left ,61,7741421911619 ,46,8321265504704 ,67,507542437441
14.8878371 ,Left ,61,7042632770681 ,46,8788606344198 ,67,6012303259017
14.9104225 ,Left ,61,6373369748111 ,46,9234361762052 ,67,669345873966
14.9332996 ,Left ,61,5512373397824 ,46,9600420551707 ,67,7066499536673
14.9483218 ,Left ,61,4645369950817 ,47,0321892812087 ,67,7125880640809
14.9710701 ,Left ,61,3544168392923 ,47,0992257268723 ,67,7287819892156
14.9932161 ,Left ,61,263112973151 ,47,1562114436305 ,67,7439000178294
15.0080677 ,Left ,61,2486514608999 ,47,2441639156076 ,67,7274234796402
15.0306902 ,Left ,61,1990265054836 ,47,3909802566024 ,67,6701900177739
15.0530286 ,Left ,61,1935090827749 ,47,4971206199543 ,67,6066177436237
15.0680569 ,Left ,61,2228757116448 ,47,5206760374442 ,67,526841430119
15.0904454 ,Left ,61,22756139569 ,47,5191898956973 ,67,430585187416
15.1130623 ,Left ,61,2257054695311 ,47,5314825297471 ,67,3203914524123
15.1279595 ,Left ,61,2261490209777 ,47,5327847428963 ,67,2172719708201
15.1581931 ,Left ,61,2218983382828 ,47,5083248291778 ,67,1323880350972
15.1803282 ,Left ,61,1901423989578 ,47,4882652334361 ,67,0426085620621
15.1953321 ,Left ,61,1360359895547 ,47,4594685662757 ,66,9667692863367
15.2102914 ,Left ,61,1738937410451 ,47,4151144757349 ,66,9085784518329
15.232763 ,Left ,61,1561625052967 ,47,3999258974799 ,66,8962583444716
15.2476876 ,Left ,61,1403348103194 ,47,4312071484703 ,66,9189973696852
15.270414 ,Left ,61,0999741784087 ,47,4743642696725 ,66,9619400662695
15.2928908 ,Left ,61,1319164909683 ,47,5064766755632 ,66,9911629914671
15.307733 ,Left ,61,1268499139561 ,47,5139603181895 ,66,9930820174743
15.3302694 ,Left ,61,0619337783446 ,47,5415799470167 ,66,9758714436485
15.3528162 ,Left ,61,0146449552509 ,47,5630489053736 ,66,9346070362569
15.3677649 ,Left ,61,0699186664589 ,47,5318441506081 ,66,8806651409407
15.3903608 ,Left ,61,0721729718749 ,47,5425301701574 ,66,8870742561392
15.4128419 ,Left ,61,0224394491987 ,47,5908190672248 ,66,9298756071926
15.4277047 ,Left ,60,9890502962655 ,47,6774915093 ,66,9653114962844
15.4502631 ,Left ,61,0077337234118 ,47,7392056019649 ,67,0195507572101
15.4728999 ,Left ,61,0333986216556 ,47,7904592552881 ,67,0254426245979
15.4878941 ,Left ,61,0042375021398 ,47,8296364161191 ,67,0238680375583
15.5104283 ,Left ,61,0142680615766 ,47,8537749585477 ,67,0137317570862
15.5328376 ,Left ,61,0177226996438 ,47,8588591011221 ,67,0011922050254
15.547932 ,Left ,61,004323090818 ,47,8409279805166 ,66,9959675984369
15.5703791 ,Left ,60,9984544027637 ,47,8142892366756 ,66,9767679796042
15.5931144 ,Left ,60,9774907461747 ,47,7943030553684 ,66,9452511678087
15.608039 ,Left ,60,96765444806 ,47,7768207626707 ,66,9136357697936
15.6302892 ,Left ,60,9671834365983 ,47,7620577464772 ,66,8993468844296
15.6527461 ,Left ,60,9703552365619 ,47,7549271478461 ,66,899788309917
15.667959 ,Left ,60,9730841057554 ,47,7433092808227 ,66,9135849646495
15.690282 ,Left ,60,985727122515 ,47,724466851954 ,66,9239282900307
15.7127757 ,Left ,60,9863101567262 ,47,7077436083303 ,66,9281364917939
15.7354871 ,Left ,60,9685069730874 ,47,7052833109164 ,66,9322467596358
15.7503165 ,Left ,60,9585904962117 ,47,7016894016758 ,66,9274056348341
15.7729664 ,Left ,60,9659403490786 ,47,6740626849804 ,66,91941694167
15.795485 ,Left ,60,9810108556718 ,47,6304867870699 ,66,9097607837944
15.810482 ,Left ,60,9798749128413 ,47,5975743872774 ,66,8944107803247
15.832939 ,Left ,60,9736241997066 ,47,5831152686737 ,66,8741472403633
15.8554663 ,Left ,60,9723128393911 ,47,566763045895 ,66,8592577921438
15.8704068 ,Left ,60,9851812032721 ,47,5607945118711 ,66,8540945738141
15.8931275 ,Left ,60,996041251096 ,47,5577651791583 ,66,8570240088931
15.9156113 ,Left ,61,0186400209626 ,47,5631339735975 ,66,8569954290206
15.9304919 ,Left ,61,0375017140264 ,47,567206847715 ,66,8535127790024
15.9529113 ,Left ,61,0565162979422 ,47,5665304061149 ,66,851232416807
15.9756003 ,Left ,61,0712765300792 ,47,5602456941521 ,66,8437219594871
15.9903831 ,Left ,61,0782060959698 ,47,5534887811003 ,66,8327855503799
16.0129371 ,Left ,61,085155544986 ,47,5508392664756 ,66,8231312488271
16.0354967 ,Left ,61,0851595952455 ,47,5530018419192 ,66,8162148345303
16.05034 ,Left ,61,0882155262062 ,47,5535936563143 ,66,8170138012082
16.0656784 ,Left ,61,086679774032 ,47,5547817146207 ,66,8173868306875
16.1027662 ,Left ,61,1029808457121 ,47,548359124398 ,66,8028583043043
16.1254668 ,Left ,61,1101209697602 ,47,5380009898858 ,66,7928454066904
16.16267 ,Left ,61,1046678007892 ,47,5335334179035 ,66,7711619779222
16.1856326 ,Left ,61,0970077853159 ,47,5345540458254 ,66,7632997566013
16.2228969 ,Left ,61,0956436969865 ,47,5331481594094 ,66,7579507510426
16.2456547 ,Left ,61,0946261895267 ,47,5315813064988 ,66,7572588415673
16.282887 ,Left ,61,0971817612952 ,47,5319645305832 ,66,7575754755391
16.3053769 ,Left ,61,0961642563369 ,47,5303977794765 ,66,7568834696341
16.3427854 ,Left ,61,0958182642324 ,47,5273683868523 ,66,7657749423992
16.3653992 ,Left ,61,0948004822997 ,47,5258018049776 ,66,7650833089265
16.4027387 ,Left ,61,0937812926906 ,47,5283397467034 ,66,7656697428341
16.4252491 ,Left ,61,0942803623894 ,47,528552429223 ,66,7661501857276
16.4633183 ,Left ,61,0912256817024 ,47,5279571090861 ,66,7653535067997
16.4860098 ,Left ,61,0912256817024 ,47,5279571090861 ,66,7653535067997
16.5233743 ,Left ,61,0891889376258 ,47,5289284633114 ,66,7652483624987
16.5457503 ,Left ,61,0891889376258 ,47,5289284633114 ,66,7652483624987
16.5830877 ,Left ,61,0871523457112 ,47,5298998082576 ,66,7651432157566
16.6056469 ,Left ,61,0866335621619 ,47,5285455878622 ,66,7649325236371
16.6427016 ,Left ,61,0808536504931 ,47,5310797404451 ,66,7843763171792
16.6651899 ,Left ,61,0764386758222 ,47,529999546723 ,66,7930655281812
16.7027681 ,Left ,61,0936222780976 ,47,5346947054102 ,66,809264334072
16.7256286 ,Left ,61,0966896948739 ,47,532092471657 ,66,8236317062363
16.762872 ,Left ,61,1030453374893 ,47,5334005578958 ,66,8640760446622
16.7856222 ,Left ,61,1160900377486 ,47,5393675657778 ,66,899458051841
16.8226956 ,Left ,61,150449749203 ,47,5845486631564 ,67,0120744684144
16.8452729 ,Left ,61,1574245397115 ,47,6137201873002 ,67,0812992194997
16.8828698 ,Left ,61,1866038527017 ,47,6643056173072 ,67,2299973864172
16.9052707 ,Left ,61,2003487757757 ,47,6872708773129 ,67,2985328088745
16.9432419 ,Left ,61,2088245592242 ,47,7379892865243 ,67,3982358215726
16.9658426 ,Left ,61,2034326156252 ,47,7477820816167 ,67,4226586316767
17.0033956 ,Left ,61,2300587005834 ,47,7372680437579 ,67,4431366775706
17.0255575 ,Left ,61,2375573163242 ,47,735213296766 ,67,4361346910079
17.0633199 ,Left ,61,2649486963901 ,47,7077156902014 ,67,3842111268351
17.0855529 ,Left ,61,2796547311783 ,47,6940575996754 ,67,3549313334252
17.1230217 ,Left ,61,2739994056476 ,47,6796404619162 ,67,2455039715697
17.1455464 ,Left ,61,264619854136 ,47,6762807420915 ,67,1941092479604
17.1830068 ,Left ,61,2453199822001 ,47,672685275704 ,67,1306570208312
17.2054308 ,Left ,61,2307186282281 ,47,674673476238 ,67,1070750705374
17.2430324 ,Left ,61,2003402034351 ,47,6540921239561 ,67,0982716821688
17.2655937 ,Left ,61,1861373809686 ,47,6577067917527 ,67,1046778712534
17.3026034 ,Left ,61,1788111195512 ,47,7133303264676 ,67,1023494316656
17.3252486 ,Left ,61,1597568071113 ,47,7395619652567 ,67,0882435277476
17.3632603 ,Left ,61,098266347646 ,47,7735591929763 ,67,0513692149155
17.3855439 ,Left ,61,0727119626662 ,47,7832162177604 ,67,0236988720833
17.4228055 ,Left ,61,0503495694013 ,47,8067390847833 ,66,99411794132
17.4454344 ,Left ,61,0425081069082 ,47,81923888439 ,66,9920696775472
17.4827091 ,Left ,61,0389454576652 ,47,8601377905279 ,66,990277824363
17.5051623 ,Left ,61,0364788186689 ,47,881938713512 ,66,9873505860715
17.5430192 ,Left ,61,023089170076 ,47,8521801578804 ,66,9803890972918
17.5652061 ,Left ,61,0069859524014 ,47,8113286115015 ,66,9816619263915
17.6027682 ,Left ,60,9781235841454 ,47,8063761095346 ,66,9858431840129
17.6252648 ,Left ,60,9772920311366 ,47,8104097152523 ,66,9819815276141
17.6630293 ,Left ,60,9807037285309 ,47,8588564685823 ,66,9981833165485
17.6853313 ,Left ,60,9294761102664 ,47,948200833603 ,66,9953016246437
17.7227951 ,Left ,60,9517457940732 ,48,0444556826937 ,66,9690856770186
17.7455582 ,Left ,60,9246255113305 ,48,0752230225747 ,66,9310769615867
17.7826352 ,Left ,60,9155322475691 ,48,1304788801347 ,66,8217357758461
17.8127488 ,Left ,60,9428471465169 ,48,1529273141264 ,66,7581467447557
17.842797 ,Left ,60,9433567058856 ,48,1977109981708 ,66,5795295173316
17.8652037 ,Left ,60,903036265278 ,48,212664489587 ,66,4796664560205
17.9027707 ,Left ,60,8740698507652 ,48,1890470668368 ,66,3045848480833
17.9178153 ,Left ,60,8393456055985 ,48,1689167429987 ,66,2066882974643
17.9403674 ,Left ,60,763328524901 ,48,1058746983731 ,66,1301424006897
17.9553922 ,Left ,60,724076389807 ,48,0245034081198 ,66,0918668845994
17.9777105 ,Left ,60,6947553795221 ,47,9671449514895 ,66,1031870028517
18.0002264 ,Left ,60,6809787727136 ,47,9843736982545 ,66,1640878966037
18.0152633 ,Left ,60,6840862854078 ,48,0051502612023 ,66,264308422485
18.0377513 ,Left ,60,7538055769949 ,47,970809692481 ,66,3704855777517
18.0602819 ,Left ,60,7937325123491 ,47,8480618410653 ,66,4715351863642
18.0752651 ,Left ,60,8372443654259 ,47,7058237111727 ,66,5915965327657
18.098065 ,Left ,60,9122535957226 ,47,6769790143597 ,66,6406411122416
18.1206279 ,Left ,60,8759665979578 ,47,6726104837476 ,66,6950361243303
18.1356763 ,Left ,60,935942444294 ,47,6304026129487 ,66,7405082452506
18.1580882 ,Left ,61,0016891520362 ,47,5423595194685 ,66,7457650771982
18.1805536 ,Left ,61,026801968153 ,47,4595514398054 ,66,736892564799
18.2030459 ,Left ,61,0563803445271 ,47,4395833914338 ,66,749194933787
18.2255983 ,Left ,61,1053787906018 ,47,4497342860029 ,66,7982050666762
18.2554275 ,Left ,61,3260746759285 ,47,4032265804472 ,66,9037155478105
18.2782018 ,Left ,61,4154267513481 ,47,3497048600652 ,66,9869788479616
18.3081403 ,Left ,61,4871289641833 ,47,3122697529459 ,67,0686926083857
18.3304029 ,Left ,61,5640399696428 ,47,2891467346446 ,67,1461323425331
18.3454204 ,Left ,61,6667244029983 ,47,2387059722785 ,67,2160731437054
18.3605756 ,Left ,61,7527850356772 ,47,1685748889133 ,67,2821041412447
18.3829693 ,Left ,61,8041715318956 ,47,1016148037003 ,67,3519535294147
18.3981494 ,Left ,61,8186691707204 ,47,0467184621337 ,67,4130513957192
18.4204074 ,Left ,61,8200690057479 ,47,0136741693908 ,67,4696775927344
18.4430073 ,Left ,61,8506649311596 ,46,9853827963854 ,67,5173679180806
18.4578186 ,Left ,61,9032085320857 ,46,956853140955 ,67,5607798018127
18.4883191 ,Left ,61,9258810729785 ,46,912265018593 ,67,6019721622801
18.503693 ,Left ,61,9328267856898 ,46,8640415266241 ,67,6393357859967
18.5258983 ,Left ,61,9319553922143 ,46,8439668617434 ,67,6605216048712
18.5408554 ,Left ,61,9441717441198 ,46,8443634555503 ,67,6572322192582
18.5557439 ,Left ,61,9516236433961 ,46,8386670215248 ,67,6439020713105
18.5858 ,Left ,61,9585366527018 ,46,8286791279087 ,67,6287769021633
18.6157164 ,Left ,61,9529557685003 ,46,8250618213517 ,67,6063612943453
18.6456166 ,Left ,61,9374155912768 ,46,8540688024906 ,67,5206197193191
18.6605174 ,Left ,61,9351308746386 ,46,8540879101431 ,67,469913282712
18.6828014 ,Left ,61,9188643596118 ,46,8547376885274 ,67,4425077252727
18.6978326 ,Left ,61,8970177431166 ,46,8759440632145 ,67,4315178308575
18.7203227 ,Left ,61,8687743453783 ,46,9038666948481 ,67,4192700926585
18.7427483 ,Left ,61,8453835029537 ,46,9349103697233 ,67,4265328679604
18.7579307 ,Left ,61,8233729480391 ,46,9582799124243 ,67,4587042653309
18.7877955 ,Left ,61,801601975422 ,46,977416046626 ,67,5073048354186
18.8186386 ,Left ,61,7705358795322 ,47,0063648515421 ,67,5706473488406
18.8336006 ,Left ,61,7286716632121 ,47,0399146860055 ,67,6307696629967
18.8859682 ,Left ,61,5870898354598 ,47,1249103355832 ,67,8370564657275
18.9157081 ,Left ,61,516577246227 ,47,1778278473879 ,67,9089961042795
18.9305771 ,Left ,61,4393881158047 ,47,2342900685356 ,67,9685922184517
18.9531236 ,Left ,61,3491995005485 ,47,3217018857224 ,67,998254298791
18.9829168 ,Left ,61,3010430566035 ,47,3715894468433 ,68,0071377736019
18.9979897 ,Left ,61,2587086328813 ,47,3881170240617 ,67,9758386142192
19.0127742 ,Left ,61,240605238215 ,47,393600985605 ,67,9194303861609
19.0278983 ,Left ,61,186044346127 ,47,4768557160919 ,67,8505495084372
19.0428141 ,Left ,61,140929354235 ,47,5462384521317 ,67,7860403761568
19.0579526 ,Left ,61,1528744632048 ,47,5681844287788 ,67,7127798929735
19.0804084 ,Left ,61,1654657407022 ,47,5768723526371 ,67,6306224595204
19.1029632 ,Left ,61,1911178715313 ,47,6001114028732 ,67,5281088638873
19.1181893 ,Left ,61,2265730604784 ,47,6093647764875 ,67,4324851798855
19.1402788 ,Left ,61,2412262254503 ,47,6112528188955 ,67,3415239482174
19.1629275 ,Left ,61,2188036284663 ,47,6201874309921 ,67,2548934417507
19.1777579 ,Left ,61,1625193877566 ,47,6349534354497 ,67,1674373265847
19.2006343 ,Left ,61,1940848047745 ,47,6244904727623 ,67,1048917145551
19.2231681 ,Left ,61,2047521574913 ,47,5904378612251 ,67,0607943804396
19.2378598 ,Left ,61,2067106522475 ,47,5631594100627 ,67,0622499836169
19.2602788 ,Left ,61,1694433743948 ,47,5828837452414 ,67,067878453597
19.2829384 ,Left ,61,1444446676022 ,47,5797189001746 ,67,0779022634457
19.3052963 ,Left ,61,1496482506273 ,47,5608036308116 ,67,0700877116779
19.3278369 ,Left ,61,1093990318223 ,47,5779621308183 ,67,0432675134159
19.3501983 ,Left ,61,0866595831904 ,47,6032747900598 ,67,0214150768799
19.3656054 ,Left ,61,1210326900731 ,47,6000574295619 ,67,0007386099011
19.3802747 ,Left ,61,1381166253571 ,47,6106445426553 ,66,9940693926583
19.4029671 ,Left ,61,0561908863671 ,47,7116968875066 ,66,9907561492805
19.4256734 ,Left ,60,9967963376292 ,47,8130430827658 ,67,0051644673038
19.4404857 ,Left ,61,0060557563473 ,47,8912593095772 ,67,0270634188063
19.4627685 ,Left ,61,0040240289117 ,47,941268096075 ,67,0311044744661
19.4852688 ,Left ,60,9735267860513 ,47,9790226283688 ,67,0241314693392
19.500272 ,Left ,60,9551894168884 ,47,9980620911047 ,67,0228072807197
19.5226515 ,Left ,60,955655557462 ,47,9952906581223 ,67,021737451188
19.5455207 ,Left ,60,9398071085575 ,47,9707711973627 ,67,0112480513257
19.5602911 ,Left ,60,9181877954222 ,47,9282675254177 ,66,9968735744792
19.5829702 ,Left ,60,9027117696799 ,47,8771933152659 ,66,9756739826596
19.6055788 ,Left ,60,9012812767013 ,47,8298452764557 ,66,9527762790089
19.6201692 ,Left ,60,8680373527628 ,47,7975607972462 ,66,9351842841845
19.6436486 ,Left ,60,8720582616324 ,47,7599963891391 ,66,9241105304528
19.6659471 ,Left ,60,9299442569905 ,47,6935747823029 ,66,9133564088788
19.6807538 ,Left ,60,9327568877507 ,47,6593137112358 ,66,9172858845867
19.7033345 ,Left ,60,9216673291488 ,47,7056881919795 ,66,9259361525077
19.7258924 ,Left ,60,9121175132795 ,47,7643100822792 ,66,9482900335449
19.7407713 ,Left ,60,960800712628 ,47,8155751193018 ,66,9473491619706
19.763135 ,Left ,60,9758724949773 ,47,8502100518809 ,66,9144836472877
19.7857481 ,Left ,60,9763348051005 ,47,8953335368003 ,66,8585281724115
19.8007622 ,Left ,60,9964618650419 ,47,9379016702461 ,66,797593993187
19.8229248 ,Left ,61,0128333066715 ,47,976605701819 ,66,7276455784465
19.8458719 ,Left ,61,0029173725946 ,47,9996994394185 ,66,6538731171274
19.8608642 ,Left ,60,988958146175 ,48,0338293701039 ,66,576086057588
19.8831341 ,Left ,60,9563280239541 ,48,0758945808356 ,66,505586356763
19.905893 ,Left ,60,9445324139225 ,48,1201570944707 ,66,4387935792111
19.9206614 ,Left ,60,9432964072596 ,48,1498254766026 ,66,3688005530001
19.9428832 ,Left ,60,9367598459852 ,48,175152906419 ,66,2945321192623
19.9654098 ,Left ,60,920974051477 ,48,1917484417557 ,66,2212031057146
19.9802014 ,Left ,60,9009567741369 ,48,1989409526525 ,66,153839128434
20.0029508 ,Left ,60,8961206565597 ,48,1978589847273 ,66,0906560901467
20.0252786 ,Left ,60,8743646132847 ,48,1966371361952 ,66,0272810204907
20.0403522 ,Left ,60,8518215763915 ,48,1854332962011 ,65,9754652413241
20.0630841 ,Left ,60,8333843478286 ,48,1658677909207 ,65,9187255911537
20.0854935 ,Left ,60,8300747723556 ,48,146339257417 ,65,8833702657871
20.100551 ,Left ,60,8337671336571 ,48,1349766969574 ,65,8661066452183
20.1232864 ,Left ,60,8420647336927 ,48,1222470209467 ,65,8557119415023
20.1455271 ,Left ,60,8495952665213 ,48,1148926089134 ,65,8519949889019
20.1605272 ,Left ,60,8487499292114 ,48,1050731192606 ,65,8487172954959
20.1833207 ,Left ,60,8479364384176 ,48,1028484491808 ,65,8504178768382
20.205711 ,Left ,60,8217393736325 ,48,1000516750578 ,65,8456304179351
20.2206511 ,Left ,60,7713725925169 ,48,0856431364517 ,65,8251718102627
20.2430281 ,Left ,60,7523501382019 ,48,0192338696413 ,65,8054983966168
20.2656196 ,Left ,60,7498714197795 ,47,9385395189175 ,65,8388188269429
20.2804635 ,Left ,60,7547126526523 ,47,936037372785 ,65,9052955662065
20.3029384 ,Left ,60,7887588374886 ,47,9400764885509 ,65,9850227906966
20.325359 ,Left ,60,9281903440221 ,47,9068352016849 ,66,0356703326684
20.3479288 ,Left ,60,9955502520214 ,47,8327167388232 ,66,0850034688417
20.3635931 ,Left ,61,0385093912504 ,47,6977678762447 ,66,1403273932867
20.3860211 ,Left ,61,0925091514051 ,47,5971786926996 ,66,1748062237046
20.4079249 ,Left ,61,0805882779444 ,47,5703871916924 ,66,1764477023941
20.4227396 ,Left ,61,1296521839702 ,47,5225103679601 ,66,1960092112438
20.4454439 ,Left ,61,2616909770643 ,47,4102473527963 ,66,2267454033804
20.4677725 ,Left ,61,3114899769537 ,47,3195048484879 ,66,2762046167742
20.482747 ,Left ,61,3337548910381 ,47,3074369419708 ,66,3309141103385
20.5053176 ,Left ,61,3780437587808 ,47,329653536925 ,66,3947287561156
20.5279796 ,Left ,61,4958196754355 ,47,3133812339902 ,66,4487301588657
20.5431654 ,Left ,61,6010937956806 ,47,2261047880125 ,66,5140689181365
20.5654251 ,Left ,61,7095132090313 ,47,1342518960032 ,66,6005392198163
20.5879564 ,Left ,61,7994804617833 ,47,0635210543343 ,66,6993317408476
20.6029418 ,Left ,61,8555478798804 ,46,9899140119752 ,66,7953876796012
20.6327044 ,Left ,61,904565297323 ,46,8909233090259 ,66,8676207268063
20.6554355 ,Left ,61,970809853612 ,46,7783811558838 ,66,922524793986
20.6702858 ,Left ,62,0310496787685 ,46,6730798243638 ,66,9744069089067
20.693231 ,Left ,62,08868093475 ,46,5884775007823 ,67,0307297114046
20.7077578 ,Left ,62,1229436454616 ,46,5053169058143 ,67,0767785794811
20.7302641 ,Left ,62,1383231134116 ,46,4287839150305 ,67,1027468332024
20.760235 ,Left ,62,1321539468831 ,46,3806185025441 ,67,128443514986
20.7901776 ,Left ,62,1567823432867 ,46,371297421748 ,67,1459902702222
20.8055486 ,Left ,62,1907242930601 ,46,3629329689285 ,67,1502775996489
20.8204894 ,Left ,62,2153120282471 ,46,3570928648802 ,67,1335388213225
20.835401 ,Left ,62,2165728985796 ,46,3458292138842 ,67,1146405777098
20.8504261 ,Left ,62,2192890917277 ,46,3522816603204 ,67,0870187727497
20.8653739 ,Left ,62,2286443471957 ,46,3771024770558 ,67,0513540760345
20.8881331 ,Left ,62,2104104858165 ,46,3885710414248 ,67,0152864466741
20.9031545 ,Left ,62,1888108002886 ,46,3944250191657 ,66,9791811603524
20.9254066 ,Left ,62,1489794467024 ,46,4040720960829 ,66,9598198988508
20.948032 ,Left ,62,1156951194515 ,46,4347147695936 ,66,9585655274497
20.9631075 ,Left ,62,0804515074443 ,46,480167470562 ,66,9746760250786
20.9854117 ,Left ,62,0507001829167 ,46,526949063441 ,67,006967129216
21.0078623 ,Left ,62,0215873127836 ,46,5721184429745 ,67,0688604056985
21.0230762 ,Left ,61,9872354074419 ,46,6277136230389 ,67,1408701772497
21.0451427 ,Left ,61,943381490881 ,46,689660192672 ,67,2237961755399
21.0754741 ,Left ,61,8894940769531 ,46,7499917408926 ,67,3097703352841
21.0903529 ,Left ,61,8298708881842 ,46,7968559705322 ,67,3879764425338
21.112889 ,Left ,61,7671203725006 ,46,8414623120647 ,67,4565808823235
21.127884 ,Left ,61,6892629754015 ,46,8967677070753 ,67,5271195363853
21.1431884 ,Left ,61,6000368060946 ,46,9699511416095 ,67,5838885992166
21.166251 ,Left ,61,5000325960179 ,47,037970942539 ,67,6019395967986
21.1884765 ,Left ,61,4273499867295 ,47,1009910746114 ,67,6020508483784
21.210604 ,Left ,61,346648038758 ,47,1410121856042 ,67,6058874998556
21.2254261 ,Left ,61,3447091357326 ,47,1972562398369 ,67,5840210260959
21.2480529 ,Left ,61,3099944908722 ,47,2916209785929 ,67,5422551321919
21.27027 ,Left ,61,2962938718253 ,47,3559957641549 ,67,4939406856008
21.2858509 ,Left ,61,3336218536251 ,47,3663223079638 ,67,4184017721069
21.3085541 ,Left ,61,3539326821102 ,47,3775631197052 ,67,3258008234173
21.3236259 ,Left ,61,3673121090321 ,47,3959874035099 ,67,2227164567408
21.346065 ,Left ,61,3797539061144 ,47,4076780276506 ,67,1246872462906
21.3679889 ,Left ,61,3629938794432 ,47,4006476949133 ,67,0382156058017
21.3903805 ,Left ,61,3238388055518 ,47,3987245723045 ,66,9584939413088
21.4051897 ,Left ,61,2959968724959 ,47,3939341454016 ,66,8842020035974
21.4277808 ,Left ,61,3134902389142 ,47,3617035090565 ,66,8220933918871
21.450205 ,Left ,61,2914290227784 ,47,3404703493358 ,66,8022568425634
21.4654515 ,Left ,61,2677976816286 ,47,3451625723535 ,66,8078890597136
21.4880076 ,Left ,61,2422601756893 ,47,342811319161 ,66,8282123766279
21.5106499 ,Left ,61,2264146578063 ,47,3373955059875 ,66,8243080520485
21.5255507 ,Left ,61,2136152997919 ,47,3522201896402 ,66,812713797831
21.5480466 ,Left ,61,1730005495319 ,47,3690909792913 ,66,8031089683091
21.5703552 ,Left ,61,1759595892978 ,47,3850046553111 ,66,7768158565766
21.5854279 ,Left ,61,2137991439581 ,47,4025142962336 ,66,7657233081731
21.6076825 ,Left ,61,152501585325 ,47,5087185853616 ,66,7748324176456
21.630425 ,Left ,61,0668950225904 ,47,6408298641943 ,66,7836539431676
21.6454694 ,Left ,61,0712441119247 ,47,7182804581881 ,66,8144139586971
21.667949 ,Left ,61,0598339035917 ,47,7652239618298 ,66,8208263771975
21.6906598 ,Left ,61,0400686182762 ,47,7924642638617 ,66,8123592986923
21.7053144 ,Left ,61,0121388508846 ,47,8091175498657 ,66,8064378673439
21.7277909 ,Left ,60,9994324224049 ,47,8124585469416 ,66,8057937272317
21.7502847 ,Left ,60,9836911763271 ,47,7951711969909 ,66,800069982579
21.7576693 ,Left ,60,9748647242527 ,47,770946348745 ,66,7985513860313
21.7803533 ,Left ,60,9619953472504 ,47,7507816157462 ,66,7899531275271
21.8178049 ,Left ,60,9432549192162 ,47,7435877730652 ,66,7535719568382
21.8402792 ,Left ,60,9294438061922 ,47,7351348339783 ,66,7415498281235
21.8781138 ,Left ,60,9038557683081 ,47,7068890467603 ,66,7220172625895
21.9004443 ,Left ,60,9015265003101 ,47,6673908600723 ,66,7067728019741
21.938096 ,Left ,60,896107850233 ,47,6411246842305 ,66,7219545911384
21.960171 ,Left ,60,8429642132791 ,47,7377507893924 ,66,7355871503137
21.9976208 ,Left ,60,8940271995797 ,47,8400452232182 ,66,7752877042984
22.0203246 ,Left ,60,892581741472 ,47,8499205704755 ,66,7589958455843
22.0579578 ,Left ,60,9378753296073 ,47,8478708445343 ,66,6942603869748
22.0805836 ,Left ,60,9524986113725 ,47,8626759825382 ,66,6527479206062
22.1180528 ,Left ,60,9425901786877 ,47,9426513746296 ,66,5058253631294
22.1408328 ,Left ,60,9337507028241 ,47,9917423410373 ,66,4048666444706
22.1783126 ,Left ,60,9085674098876 ,48,0878542406201 ,66,211664590759
22.2007113 ,Left ,60,8906896721226 ,48,1212474378443 ,66,1266318429982
22.2379702 ,Left ,60,8598562005018 ,48,1437051632439 ,65,955474726396
22.2603358 ,Left ,60,8069757938782 ,48,1487137547429 ,65,861927720431
22.2827805 ,Left ,60,7333979344721 ,48,1293876563715 ,65,7772014476323
22.2977696 ,Left ,60,6767347624875 ,48,0692075129443 ,65,712487644555
22.320353 ,Left ,60,6743446639498 ,47,9640256400075 ,65,6954813092491
22.3577083 ,Left ,60,6662580261866 ,47,8552153702891 ,65,7853956700273
22.3802888 ,Left ,60,7089731300258 ,47,831760550102 ,65,8642599538729
22.4179315 ,Left ,60,8777281062441 ,47,6299930125685 ,66,0114205559032
22.4402255 ,Left ,60,9394449894988 ,47,5262909143092 ,66,062893357679
22.4777255 ,Left ,61,0336964271347 ,47,4750273965602 ,66,132589595649
22.5002532 ,Left ,61,1256107352622 ,47,383681982231 ,66,1407629792154
22.5385045 ,Left ,61,1411663368074 ,47,2567764386554 ,66,1500065195417
22.561132 ,Left ,61,1213774598185 ,47,3008393743142 ,66,1909822490532
22.5981533 ,Left ,61,3243079829643 ,47,3108890441001 ,66,3186601880604
22.6206513 ,Left ,61,4140598409253 ,47,2363591171506 ,66,4051329428003
22.6579311 ,Left ,61,5178076046546 ,47,1640839569815 ,66,5702447538624
22.6803277 ,Left ,61,5792938377426 ,47,1122750168754 ,66,6569031444456
22.7177695 ,Left ,61,7359249118605 ,46,9491144699982 ,66,7906349909076
22.7403694 ,Left ,61,7671156215123 ,46,8610267078035 ,66,839010537864
22.7778133 ,Left ,61,7944804313669 ,46,7439395020781 ,66,9225395795727
22.8002112 ,Left ,61,8401027055481 ,46,6981099335871 ,66,9530383662864
22.8385666 ,Left ,61,9630401209288 ,46,6419409322982 ,67,0097661852345
22.8610254 ,Left ,61,9882421276882 ,46,6388103070421 ,67,0245229252051
22.8981722 ,Left ,62,0097965674321 ,46,6604577399754 ,67,0373851668466
22.9205914 ,Left ,62,0297252216135 ,46,6809372772364 ,67,0267841217056
22.9582099 ,Left ,61,9952369570204 ,46,7155609712352 ,66,9767175660317
22.9805935 ,Left ,61,9661289319806 ,46,7254772017548 ,66,9412737357129
23.0178542 ,Left ,61,9541150961537 ,46,7394753112317 ,66,8670579901137
23.0405127 ,Left ,61,9462144373304 ,46,7420141465321 ,66,8344424962302
23.0780042 ,Left ,61,9141090212925 ,46,7804450511724 ,66,8038360481714
23.1006519 ,Left ,61,8987815992478 ,46,8095979888 ,66,8115423369466
23.1377138 ,Left ,61,8476563108217 ,46,8617621638575 ,66,8821078547313
23.1603029 ,Left ,61,8041896935978 ,46,9018125427266 ,66,9448077064289
23.1978231 ,Left ,61,7102629558314 ,46,9723648897016 ,67,112551484607
23.2203008 ,Left ,61,6682954908132 ,47,0135235379285 ,67,2151017057741
23.2579149 ,Left ,61,5307251771896 ,47,0885126517182 ,67,3978133782142
23.2805204 ,Left ,61,4423247958681 ,47,14712830929 ,67,4468012948534
23.3181338 ,Left ,61,2764460599146 ,47,2263666658478 ,67,4914375067941
23.3406956 ,Left ,61,2479150169008 ,47,2531841295909 ,67,4935925142771
23.3780273 ,Left ,61,1475558990302 ,47,4697376296344 ,67,4051995219832
23.4005509 ,Left ,61,156611061999 ,47,5242932929411 ,67,3498257181559
23.4304004 ,Left ,61,1750181644431 ,47,5644708193207 ,67,1633836716601
23.4680888 ,Left ,61,1919593393629 ,47,5717045078817 ,67,0628055628515
23.5128401 ,Left ,61,2080223506841 ,47,5221822026428 ,66,8919594635546
23.5278631 ,Left ,61,1804643704909 ,47,4698164113753 ,66,8001818543393
23.5804678 ,Left ,61,196782508753 ,47,354656336748 ,66,6183391927307
23.6104839 ,Left ,61,1309597039601 ,47,4232904868531 ,66,6440999286592
23.6328906 ,Left ,61,1224949261738 ,47,4566843356098 ,66,6610316913401
23.6555088 ,Left ,61,1238604624317 ,47,4664181713917 ,66,6475009539467
23.6702555 ,Left ,61,0810110219245 ,47,4821808882599 ,66,6250527058828
23.692916 ,Left ,61,0582368556565 ,47,5051756847409 ,66,5953900353009
23.7156024 ,Left ,61,0513339819632 ,47,4963725156878 ,66,5623657617238
23.7304908 ,Left ,61,0837766995696 ,47,4889341513917 ,66,5447814938291
23.75303 ,Left ,61,0123075704874 ,47,544866687873 ,66,5584689180849
23.7754132 ,Left ,60,9581913607563 ,47,6432248487579 ,66,5803920928964
23.7902648 ,Left ,60,9773982485405 ,47,7059997301047 ,66,62503129852
23.8130442 ,Left ,60,9864119637276 ,47,7495378782621 ,66,6378096171472
23.8354245 ,Left ,60,9720674113815 ,47,7730191215074 ,66,6484211517362
23.85023 ,Left ,60,9630842072926 ,47,7859838376831 ,66,6388352093713
23.8727562 ,Left ,60,9726485495231 ,47,7840924664069 ,66,625436597164
23.8952438 ,Left ,60,962359697494 ,47,7704915287635 ,66,5902647376146
23.9103483 ,Left ,60,9344942122575 ,47,754683297264 ,66,5400932228753
23.9327963 ,Left ,60,8863001929743 ,47,7341774637131 ,66,498262623146
23.9554995 ,Left ,60,8580263298577 ,47,7112714201804 ,66,4725535196414
23.9702348 ,Left ,60,8859165545195 ,47,6622912137815 ,66,4486321992729
23.9927338 ,Left ,60,9439812339032 ,47,6136638224768 ,66,4140134665799
24.0155005 ,Left ,60,9242403334193 ,47,5991429974993 ,66,3972092232075
24.0302282 ,Left ,60,9184689098331 ,47,6543335611406 ,66,3974144633806
24.0527146 ,Left ,60,9348674668742 ,47,6755474674625 ,66,3967464062241
24.075521 ,Left ,60,9765778939878 ,47,6941788729015 ,66,3814110453417
24.090328 ,Left ,60,9658333839735 ,47,6940493310414 ,66,3557702384905
24.1127182 ,Left ,60,9807257805508 ,47,6762592880662 ,66,3209130373649
24.1355174 ,Left ,60,9972760253147 ,47,6522586701102 ,66,2909524671267
24.1502817 ,Left ,61,0164251998065 ,47,6634061227662 ,66,2418737009617
24.1727811 ,Left ,61,004126756557 ,47,6998800005222 ,66,1800358193613
24.1955398 ,Left ,60,9854328605649 ,47,7492815593033 ,66,1286171316723
24.2177819 ,Left ,60,9755864118613 ,47,7926759454984 ,66,0788060715988
24.2327269 ,Left ,60,9716710644954 ,47,841455046628 ,66,0320029252995
24.255482 ,Left ,60,9655892807256 ,47,8952366412349 ,65,9865016678982
24.2779691 ,Left ,60,9540726903573 ,47,947211132719 ,65,9424116808635
24.2928008 ,Left ,60,9385135443052 ,47,9862170650804 ,65,9050881637718
24.3152363 ,Left ,60,9092434949234 ,48,0168247660831 ,65,8682528451383
24.3377961 ,Left ,60,8871311931134 ,48,0366113136023 ,65,8195406152892
24.3527779 ,Left ,60,8621997129212 ,48,0474020367558 ,65,7675249247485
24.3752911 ,Left ,60,8384982156545 ,48,0408687103672 ,65,7218754803229
24.3978265 ,Left ,60,8368267425031 ,48,0278441989794 ,65,6868188590505
24.4127423 ,Left ,60,8238605918372 ,48,0136820714813 ,65,6447824562018
24.4351904 ,Left ,60,804753230606 ,48,0051098643626 ,65,604051250619
24.4577177 ,Left ,60,776034175829 ,48,0046824697883 ,65,566981239007
24.4727474 ,Left ,60,7508807263758 ,48,0132844637402 ,65,5382536620063
24.495448 ,Left ,60,6941824880189 ,48,0093062860057 ,65,4969555932441
24.5176331 ,Left ,60,6946764850635 ,47,9823214698106 ,65,4810470979526
24.5328095 ,Left ,60,6623775433325 ,47,9742213646214 ,65,5195821473714
24.5555013 ,Left ,60,6516829877482 ,48,0215383635337 ,65,580441481593
24.5779414 ,Left ,60,6627312892075 ,48,0637866512802 ,65,6616926603602
24.5929711 ,Left ,60,7379353406629 ,48,0343225057138 ,65,740082663259
24.6158835 ,Left ,60,7902141119295 ,47,9600921658982 ,65,8036125747473
24.6387116 ,Left ,60,815936232897 ,47,8269905001064 ,65,8831750442451
24.6536854 ,Left ,60,8739817414717 ,47,7228025487888 ,65,9477563902017
24.6761033 ,Left ,60,8956665893915 ,47,6730398176391 ,65,9893265001723
24.6985231 ,Left ,60,929844615408 ,47,5886035427663 ,66,047893946374
24.7133634 ,Left ,60,9959170543357 ,47,4399357346526 ,66,0756932967946
24.7354979 ,Left ,61,027299995591 ,47,2701784973724 ,66,0876013598337
24.7578621 ,Left ,61,0526149060414 ,47,1839681644596 ,66,1164289481069
24.7726661 ,Left ,61,0680723770488 ,47,1766695335452 ,66,1809847331561
24.7952437 ,Left ,61,1888804124461 ,47,1973584953885 ,66,2501166734859
24.8180543 ,Left ,61,318332097154 ,47,1758487659766 ,66,3121494362232
24.832919 ,Left ,61,4153613947444 ,47,1096434220719 ,66,3804678723764
24.855581 ,Left ,61,5064726790604 ,47,041707441765 ,66,4474192452222
24.8780973 ,Left ,61,5498980415327 ,46,9765322673647 ,66,5119133814148
24.8932292 ,Left ,61,606338770361 ,46,9262178814352 ,66,5735825236888
24.915606 ,Left ,61,6872718999727 ,46,8667214176531 ,66,6330344158868
24.9380639 ,Left ,61,7548967222121 ,46,7874681787289 ,66,69386334724
24.960328 ,Left ,61,8037761271263 ,46,7310032784182 ,66,7602118458362
24.9828124 ,Left ,61,7991381292955 ,46,6833634137832 ,66,8155945949635
25.0203953 ,Left ,61,8525036398397 ,46,6477008655182 ,66,8649081449093
25.0352394 ,Left ,61,9150814589552 ,46,6456608871285 ,66,8748029078664
25.0577825 ,Left ,61,9336762036366 ,46,6428794271796 ,66,893935913713
25.0727845 ,Left ,61,952417857777 ,46,6556307007636 ,66,907993314613
25.0954972 ,Left ,61,9462139041899 ,46,6598424501623 ,66,900974239059
25.1177668 ,Left ,61,935452728574 ,46,6659136539253 ,66,8868244247848
25.132876 ,Left ,61,9305188423799 ,46,6805449331725 ,66,8613904803675
25.1555685 ,Left ,61,9286674896119 ,46,7002357321686 ,66,8403046829113
25.1778476 ,Left ,61,929015922158 ,46,7114704645417 ,66,8142432992048
25.2005016 ,Left ,61,9244171301675 ,46,7085025496927 ,66,7903618543508
25.2155018 ,Left ,61,9066156440414 ,46,7012975790886 ,66,7783387563337
25.2380326 ,Left ,61,8989310489834 ,46,6958173292153 ,66,7628716002431
25.2606307 ,Left ,61,8941388932825 ,46,6926292102041 ,66,7564774305575
25.2755787 ,Left ,61,8861090602087 ,46,6929668362957 ,66,7505899124867
25.2985263 ,Left ,61,8855812229888 ,46,6927707564307 ,66,7501001367491
25.3210666 ,Left ,61,8728416078074 ,46,6918156778148 ,66,7529884545076
25.336025 ,Left ,61,870418296789 ,46,6941044045505 ,66,7589542446108
25.3584214 ,Left ,61,8710268641105 ,46,6947423175041 ,66,7616478458985
25.3806585 ,Left ,61,8747148561914 ,46,6906573515564 ,66,7705302672258
25.3955875 ,Left ,61,8680508924687 ,46,6798227820275 ,66,7836023078543
25.4179908 ,Left ,61,8687725306639 ,46,6744556410197 ,66,7941903020126
25.4408714 ,Left ,61,8594932609893 ,46,6697067242614 ,66,8012902419192
25.4560643 ,Left ,61,856528397723 ,46,6684290135606 ,66,8029910251809
25.478684 ,Left ,61,8643164343794 ,46,6664494887386 ,66,8133712490076
25.508348 ,Left ,61,8458791322584 ,46,6528702258474 ,66,8263075290374
25.523231 ,Left ,61,8395299806432 ,46,6357742687791 ,66,8520620970106
25.5531845 ,Left ,61,8241495907774 ,46,6189672049373 ,66,8842817287153
25.5828584 ,Left ,61,8289877694583 ,46,5853520057665 ,66,9712279536223
25.6054267 ,Left ,61,8231848970061 ,46,5650735680904 ,67,0183960852543
25.6277422 ,Left ,61,826625569781 ,46,5377272341259 ,67,0696973423255
25.6428313 ,Left ,61,8485657969246 ,46,5026260640714 ,67,123418623039
25.6578976 ,Left ,61,8760903446216 ,46,4798320197146 ,67,1846907540588
25.6803844 ,Left ,61,9059598774757 ,46,4541569149171 ,67,2378270565714
25.7030785 ,Left ,61,9390139201112 ,46,4353363587846 ,67,2860458262113
25.7253795 ,Left ,61,9586562624188 ,46,4244754466516 ,67,3303532637772
25.7553405 ,Left ,61,9923697740101 ,46,4175575239312 ,67,3879154699485
25.7779208 ,Left ,62,0110384304498 ,46,4204367605447 ,67,3992418840433
25.8003997 ,Left ,62,0158041267351 ,46,4241908170903 ,67,40322580252
25.8155352 ,Left ,62,0250180353601 ,46,43051467133 ,67,4043629428785
25.8383636 ,Left ,62,0257228368053 ,46,4364694587204 ,67,401551964348
25.8608788 ,Left ,62,0221950358558 ,46,4444773748602 ,67,3985558498085
25.8758457 ,Left ,62,010372471067 ,46,4472938519624 ,67,3928342802134
25.8981478 ,Left ,62,0010533472043 ,46,4500112401953 ,67,385156036049
25.9208013 ,Left ,61,9948373355037 ,46,454353881875 ,67,3780206834775
25.9358746 ,Left ,61,9911213380406 ,46,4585997230462 ,67,3689281180826
25.9581727 ,Left ,61,9926072090749 ,46,4560074098707 ,67,3553509288471
25.9808325 ,Left ,61,9882506473463 ,46,4522010760036 ,67,3384042806372
25.9957255 ,Left ,61,9758705135481 ,46,4597249094445 ,67,3244144715297
26.0183636 ,Left ,61,9676102267705 ,46,4629614069165 ,67,306548913956
26.040788 ,Left ,61,9709759347062 ,46,4671109378583 ,67,2934099223824
26.0558637 ,Left ,61,9638274774424 ,46,471273474152 ,67,2987740734194
26.0782929 ,Left ,61,9491420387663 ,46,4796577304945 ,67,322459384392
26.1008613 ,Left ,61,9343810079944 ,46,4942636004392 ,67,3581064497453
26.1157111 ,Left ,61,9147906353793 ,46,5154152535239 ,67,4030572464767
26.1382653 ,Left ,61,9006428055331 ,46,5405675831793 ,67,452495088196
26.1606698 ,Left ,61,8899446476088 ,46,5698571410789 ,67,4887799152131
26.1829833 ,Left ,61,860387276755 ,46,5925290133757 ,67,5075893103491
26.1977932 ,Left ,61,802081259431 ,46,6151415797702 ,67,5020481118992
26.2203489 ,Left ,61,7260766985685 ,46,6481611655776 ,67,4874853223954
26.2428756 ,Left ,61,6644020075311 ,46,6863843092915 ,67,479273787092
26.2580931 ,Left ,61,5893843038424 ,46,7197507168093 ,67,485294874327
26.2802751 ,Left ,61,582483945613 ,46,7732585845567 ,67,48157448674
26.3030245 ,Left ,61,5506055052048 ,46,8334733971406 ,67,4491329195605
26.3179503 ,Left ,61,5271267211765 ,46,9287139888473 ,67,3973462802742
26.3410797 ,Left ,61,4826698029863 ,47,0330444765462 ,67,3403265112813
26.3708421 ,Left ,61,4805917632371 ,47,1052480899247 ,67,2740672744064
26.3858687 ,Left ,61,4742072322631 ,47,1418691916997 ,67,181159860096
26.4084617 ,Left ,61,4718044374088 ,47,1659275149034 ,67,0821449446608
26.4381739 ,Left ,61,4830198669104 ,47,2083227686887 ,66,9150235754146
26.4606035 ,Left ,61,4464114097275 ,47,2085206309242 ,66,8436614608398
26.4831684 ,Left ,61,3842732985732 ,47,1966752237415 ,66,7795915016426
26.4981035 ,Left ,61,3790150335528 ,47,1784239243802 ,66,7411538820099
26.5281793 ,Left ,61,3849663814137 ,47,165113635991 ,66,7128763847225
26.5505623 ,Left ,61,3777659564185 ,47,1601422454282 ,66,7175384991531
26.5654735 ,Left ,61,3496898403608 ,47,1895131432962 ,66,7334457325392
26.5804458 ,Left ,61,3402703511886 ,47,2031380927699 ,66,7537945983893
26.6032156 ,Left ,61,3183652196377 ,47,2029074604004 ,66,7536537021134
26.6180842 ,Left ,61,2842130243632 ,47,2054925563835 ,66,7450051059796
26.6402579 ,Left ,61,2777515340755 ,47,2021236672122 ,66,728387530888
26.6635196 ,Left ,61,2933278075681 ,47,1728347623389 ,66,7087402805184
26.6788176 ,Left ,61,32275687104 ,47,1737771163155 ,66,7075472700309
26.7010989 ,Left ,61,2579628880718 ,47,2650945992007 ,66,7194704857321
26.7235796 ,Left ,61,2158773355314 ,47,3819745242326 ,66,7418487670209
26.7387357 ,Left ,61,2397015290533 ,47,4659503878628 ,66,7677313533057
26.7606599 ,Left ,61,2290107144561 ,47,5211622907049 ,66,765033025801
26.7829227 ,Left ,61,1904443408865 ,47,5615924161082 ,66,7631803218959
26.7980672 ,Left ,61,1732377335012 ,47,5793460510372 ,66,7615808963807
26.8205757 ,Left ,61,1546677687248 ,47,5678853245089 ,66,7604022077256
26.8434668 ,Left ,61,1235440121395 ,47,5440614533305 ,66,7406297331449
26.8586117 ,Left ,61,0883878410502 ,47,5220099574372 ,66,7143859064385
26.8802424 ,Left ,61,0694293468626 ,47,5115190118341 ,66,691156102073
26.9030524 ,Left ,61,0645935884743 ,47,4979767728817 ,66,6741195222964
26.9179715 ,Left ,61,0830305870464 ,47,4906421472435 ,66,6597094394124
26.9403065 ,Left ,61,092834259375 ,47,4817179820662 ,66,643413167827
26.9627419 ,Left ,61,0833768778742 ,47,4810661872906 ,66,629791878634
26.9779884 ,Left ,61,0540053606511 ,47,4828361580247 ,66,6215403962809
27.0002889 ,Left ,61,0317258778073 ,47,4664760586993 ,66,6134092085765
27.0236362 ,Left ,61,058658542576 ,47,4332564947442 ,66,6084854185041
27.0461641 ,Left ,61,0305224877104 ,47,4362280787199 ,66,6206640054334
27.0611951 ,Left ,60,9780346806059 ,47,5278187206597 ,66,6285749108339
27.0827388 ,Left ,60,956203196343 ,47,6100205521563 ,66,6495092799238
27.1054767 ,Left ,61,0156884032354 ,47,6323887207128 ,66,6572263739566
27.1202309 ,Left ,61,0120490699205 ,47,6582440725427 ,66,6290213402867
27.1428507 ,Left ,60,9807542181061 ,47,6923590413265 ,66,5821222584528
27.1653281 ,Left ,60,9831007080806 ,47,7412421878352 ,66,5254505391019
27.1803105 ,Left ,60,9789275284571 ,47,787840215048 ,66,463012138942
27.2026346 ,Left ,60,9802356145428 ,47,8438088632232 ,66,3895416380232
27.2261332 ,Left ,60,9552036567777 ,47,9018114854725 ,66,3087372223715
27.2412892 ,Left ,60,9128947482111 ,47,960279158201 ,66,2255523675183
27.2630348 ,Left ,60,8786983818487 ,48,0106494891935 ,66,1417693117931
27.2855034 ,Left ,60,8536109953247 ,48,0609999170778 ,66,0588193910282
27.3006681 ,Left ,60,8221156457611 ,48,0940322839321 ,65,977130343891
27.3233227 ,Left ,60,785696469113 ,48,1091884459167 ,65,8939063594095
27.3457514 ,Left ,60,7310849586725 ,48,1050615350217 ,65,8023337124483
27.3607434 ,Left ,60,6742418723004 ,48,058160796253 ,65,7203680671147
27.3833607 ,Left ,60,6463236300523 ,47,9637278242034 ,65,6443136145348
27.4057721 ,Left ,60,619668807289 ,47,8614047395238 ,65,6066075632516
27.4205654 ,Left ,60,6073544905865 ,47,8125999227634 ,65,6369979472494
27.4431143 ,Left ,60,5986584677826 ,47,8125174435794 ,65,7045606446475
27.4654117 ,Left ,60,6767861215329 ,47,785741131823 ,65,8003875701716
27.472789 ,Left ,60,7718878340952 ,47,7293315484726 ,65,8869255915038
27.495643 ,Left ,60,8430183950327 ,47,6035584407787 ,65,9987960354967
27.5177751 ,Left ,60,9446964029335 ,47,5541407096134 ,66,04361666032
27.5327307 ,Left ,60,9468405588616 ,47,5309815633117 ,66,0822564430307
27.5552779 ,Left ,61,0246561238749 ,47,4828865909233 ,66,1027698607783
27.577822 ,Left ,61,1096742077981 ,47,3615214840187 ,66,0859409194277
27.5926785 ,Left ,61,1347537951109 ,47,2579614062693 ,66,0699066201716
27.6152558 ,Left ,61,1291062802565 ,47,2343724172354 ,66,107576416416
27.6378506 ,Left ,61,1454695614445 ,47,2573804189882 ,66,1865878748634
27.6527932 ,Left ,61,2819997293756 ,47,2724114820855 ,66,2835714332353
27.6752944 ,Left ,61,4000677297635 ,47,2552189261186 ,66,3681433610792
27.6982434 ,Left ,61,5110220555054 ,47,1859326102275 ,66,4617815109472
27.7134492 ,Left ,61,6236462465618 ,47,1187482944495 ,66,5740065258811
27.7358831 ,Left ,61,6887391666017 ,47,080100958816 ,66,6681417110214
27.7582189 ,Left ,61,7483386527703 ,47,0487480268907 ,66,7489350271126
27.7731127 ,Left ,61,8056534999785 ,46,9946147211682 ,66,8275325863629
27.7955154 ,Left ,61,8639477522903 ,46,9255443941604 ,66,9035412790165
27.8180069 ,Left ,61,8810685386842 ,46,8571149638477 ,66,9822687832124
27.8328997 ,Left ,61,892205459171 ,46,804195757349 ,67,0478720560625
27.8554003 ,Left ,61,8769477690392 ,46,7523844338128 ,67,0959246701969
27.8777848 ,Left ,61,9116421585047 ,46,7132354562056 ,67,129758416451
27.8927996 ,Left ,61,9470638997257 ,46,6873707251184 ,67,1660308526491
27.9152175 ,Left ,61,9722602901375 ,46,6575707441541 ,67,2017507993393
27.9602082 ,Left ,61,9848395588353 ,46,6103089208718 ,67,2528667431275
27.9829833 ,Left ,61,9791480428999 ,46,5979480736589 ,67,2453004160572
28.0203173 ,Left ,61,9889505697022 ,46,567576710332 ,67,2036433316344
28.0428817 ,Left ,62,0110724108114 ,46,562127713124 ,67,1646832093079
28.0729019 ,Left ,61,9760239778882 ,46,5731543285834 ,67,0608116008945
28.0957822 ,Left ,61,9703042643622 ,46,5679079878243 ,67,0006586493082
28.133253 ,Left ,61,9536211832602 ,46,5938139802059 ,66,8746931126492
28.1556474 ,Left ,61,9452589671214 ,46,6226305743299 ,66,8209367325659
28.1931786 ,Left ,61,8948021205106 ,46,6250743773744 ,66,7456759773888
28.2152517 ,Left ,61,863185198289 ,46,6412600037313 ,66,737511568269
28.2532321 ,Left ,61,8066973033673 ,46,6991268538669 ,66,7472292497951
28.2756354 ,Left ,61,7746849033952 ,46,7131551310754 ,66,7831023669446
28.3131077 ,Left ,61,697649122148 ,46,7749036404218 ,66,9054405786492
28.343449 ,Left ,61,6456627326508 ,46,8105341811852 ,66,9805110136475
28.3803668 ,Left ,61,5318904130015 ,46,8759872249872 ,67,1785328482045
28.395245 ,Left ,61,4676376866819 ,46,9186207085069 ,67,2785759902424
28.432853 ,Left ,61,2795868175159 ,47,0365084901548 ,67,4607758817036
28.4557675 ,Left ,61,1699008278999 ,47,1062760504949 ,67,5053090506618
28.493238 ,Left ,61,0947769088922 ,47,1452647143142 ,67,5323088091194
28.5158147 ,Left ,61,0563712368461 ,47,1926885854519 ,67,5172328131033
28.5530826 ,Left ,60,9380364500514 ,47,483127467702 ,67,4560694695207
28.5752627 ,Left ,61,0039107124918 ,47,517412042525 ,67,4143152318558
28.6202673 ,Left ,61,0274368771235 ,47,5391058211661 ,67,2473888459236
28.6732401 ,Left ,61,0752340638535 ,47,4567144832151 ,66,9647418808548
28.6957214 ,Left ,61,057767483323 ,47,4121061986355 ,66,8751003647122
28.7403039 ,Left ,61,0364329734688 ,47,3257133364163 ,66,7471132722291
28.7926118 ,Left ,61,1080668779274 ,47,3229455596401 ,66,7500801748357
28.8158685 ,Left ,61,1039593126246 ,47,3603183546812 ,66,7812768249898
28.8533584 ,Left ,61,0654608392252 ,47,3906089858973 ,66,7686987566659
28.8830902 ,Left ,61,0517036430055 ,47,4088824861563 ,66,7510608911055
28.9353005 ,Left ,61,0402766668204 ,47,5189902773877 ,66,7334606483433
28.9728609 ,Left ,61,0203858318862 ,47,6789135621903 ,66,7654716449164
28.9954793 ,Left ,61,0145664272997 ,47,722273493525 ,66,7590240438112
29.0328788 ,Left ,60,9708921994217 ,47,7703514179735 ,66,7393139594002
29.0553195 ,Left ,60,9587132215484 ,47,7687776145655 ,66,7445172140085
29.0931845 ,Left ,60,9403101265733 ,47,7454677272378 ,66,7417077700122
29.1151574 ,Left ,60,9254342136534 ,47,736423653116 ,66,7223760832382
29.1528994 ,Left ,60,8598988047253 ,47,7144606477158 ,66,6721497816725
29.1755249 ,Left ,60,8446225193003 ,47,7009934448265 ,66,6511982491615
29.2128692 ,Left ,60,8493728574171 ,47,6331342809167 ,66,6255284620128
29.2354409 ,Left ,60,8421992707049 ,47,5846296351402 ,66,6287223644492
29.2728391 ,Left ,60,7736986032996 ,47,7121739936565 ,66,6526172833883
29.2956493 ,Left ,60,8095826008715 ,47,7602318447196 ,66,663269216508
29.310422 ,Left ,60,8328561493189 ,47,7905370808342 ,66,6395984858049
29.3256648 ,Left ,60,833060300526 ,47,8037255892268 ,66,6050957868853
29.3480949 ,Left ,60,8394789390939 ,47,8258421542339 ,66,5622318365581
29.3705548 ,Left ,60,8368579899263 ,47,8618047565717 ,66,5033237669
29.3856201 ,Left ,60,8388585978092 ,47,9078526224957 ,66,4365996991526
29.4079232 ,Left ,60,8386995083319 ,47,9578728660566 ,66,3566290521349
29.4384072 ,Left ,60,8254555373196 ,48,0122106656403 ,66,271463479405
29.4536061 ,Left ,60,8085824861988 ,48,0685182405133 ,66,1868350937527
29.47584 ,Left ,60,7898658977114 ,48,1179306457107 ,66,1019227788942
29.4910695 ,Left ,60,7806046763113 ,48,1568131669443 ,66,0203915470955
29.505951 ,Left ,60,7615519703352 ,48,1831321210884 ,65,9357543590795
29.5280337 ,Left ,60,737112394977 ,48,1882104105393 ,65,8413755170904
29.5502444 ,Left ,60,6793312010075 ,48,1805115040473 ,65,7390356433017
29.565473 ,Left ,60,5982547202882 ,48,1558509660605 ,65,6519207668717
29.5879668 ,Left ,60,5413800887182 ,48,0776182551746 ,65,5797904904894
29.6104715 ,Left ,60,5250883736538 ,47,9753645849939 ,65,5504418337656
29.6254992 ,Left ,60,505420074723 ,47,9014084929666 ,65,5864364274304
29.6479508 ,Left ,60,5125389959991 ,47,9022813426431 ,65,6419788454523
29.6704896 ,Left ,60,5575347362936 ,47,8799823843233 ,65,720691988057
29.6854948 ,Left ,60,6635850372019 ,47,8157545575628 ,65,7773528386479
29.7079469 ,Left ,60,7288441058461 ,47,6850477718005 ,65,8607142925553
29.730247 ,Left ,60,802367375475 ,47,5925998493671 ,65,9260761445723
29.7530638 ,Left ,60,818306248269 ,47,5545929653399 ,65,947079337764
29.7680771 ,Left ,60,8757244527178 ,47,5035151172691 ,65,9713740837664
29.7905473 ,Left ,60,9533865602883 ,47,4039399409866 ,65,9582987027921
29.8130536 ,Left ,61,003158593832 ,47,2781735477353 ,65,9453288660147
29.8282353 ,Left ,61,011660542617 ,47,1826592326357 ,65,9521909216982
29.8504751 ,Left ,61,0303275992243 ,47,1610625641892 ,66,0074137480622
29.8732848 ,Left ,61,1383979964412 ,47,1766213454344 ,66,0800438646851
29.888198 ,Left ,61,2786224697301 ,47,1684765761623 ,66,1546317429229
29.9105609 ,Left ,61,3807491416078 ,47,1128867294636 ,66,2236134517607
29.9332489 ,Left ,61,4728772066292 ,47,0630624291046 ,66,2988424076321
29.9481288 ,Left ,61,5503894935636 ,47,0184622501589 ,66,3693324277587
29.9701942 ,Left ,61,6092826630158 ,46,9729783385567 ,66,432253734062
29.9928595 ,Left ,61,665969963154 ,46,9186006495028 ,66,4924696527201
30.0078574 ,Left ,61,7119106299887 ,46,8501622794391 ,66,5489701077128
30.0304697 ,Left ,61,7562367362905 ,46,7906132622377 ,66,6132529474514
30.0529227 ,Left ,61,752542200876 ,46,7404712112872 ,66,6851164035806
30.0752938 ,Left ,61,7561828682554 ,46,701029301472 ,66,7493120938804
30.097824 ,Left ,61,7610019399671 ,46,6711411528352 ,66,8041669311766
30.1280717 ,Left ,61,8454270289023 ,46,62468089015 ,66,8689964737255
30.1504609 ,Left ,61,868124080893 ,46,6093725603159 ,66,8991439040572
30.1731077 ,Left ,61,8637517719748 ,46,5953510810848 ,66,9263622507114
30.1881657 ,Left ,61,8429392951174 ,46,5924775608392 ,66,9549120415103
30.2104342 ,Left ,61,8464452289092 ,46,5934799079883 ,66,9759550054148
30.2403217 ,Left ,61,8426766823582 ,46,5805621684063 ,66,9836698358821
30.2628302 ,Left ,61,8464687053352 ,46,5728060813642 ,66,969054141997
30.2931347 ,Left ,61,8274693154095 ,46,5761366354592 ,66,940502947117
30.3080747 ,Left ,61,8159229267424 ,46,5867671965682 ,66,9002006749831
30.3229672 ,Left ,61,8106551518496 ,46,5789440435357 ,66,8543497528805
30.3382505 ,Left ,61,803231576108 ,46,5731234974224 ,66,8192388826434
30.3532651 ,Left ,61,7831747621547 ,46,5735638719783 ,66,7968776814892
30.3682972 ,Left ,61,7720267239002 ,46,5845755263405 ,66,7769050078146
30.3906846 ,Left ,61,7624195186605 ,46,5925126310861 ,66,7657369718605
30.4133712 ,Left ,61,7646454305155 ,46,5972435626681 ,66,7626003580231
30.4281888 ,Left ,61,775396374543 ,46,6018505488308 ,66,7657982258518
30.4505835 ,Left ,61,775396374543 ,46,6018505488308 ,66,7657982258518
30.4728381 ,Left ,61,7770301517773 ,46,5991646314718 ,66,7524490278265
30.4878169 ,Left ,61,7786133399141 ,46,5926330104911 ,66,733147334107
30.5111095 ,Left ,61,7827846877488 ,46,5864787236588 ,66,7141366436101
30.5336395 ,Left ,61,7822661009328 ,46,5843206625847 ,66,6985211140589
30.5485296 ,Left ,61,7679632134484 ,46,5811411017521 ,66,6981331935305
30.570784 ,Left ,61,7413790941555 ,46,5820882607821 ,66,7179200362978
30.5930213 ,Left ,61,7034433388028 ,46,5997891621392 ,66,7563014616121
30.6081439 ,Left ,61,6671889737751 ,46,6247155811547 ,66,8147728696033
30.6307252 ,Left ,61,6342474467453 ,46,6598217181414 ,66,8942547270067
30.6530081 ,Left ,61,6020749848463 ,46,7049942363714 ,66,9898478043739
30.6682982 ,Left ,61,5610685229227 ,46,7527607866495 ,67,0845382132594
30.6906921 ,Left ,61,500673827084 ,46,7956717569922 ,67,178177265342
30.72032 ,Left ,61,4303298241233 ,46,8434634665612 ,67,2692198597116
30.750139 ,Left ,61,3257530811603 ,46,8935234906049 ,67,3515139689548
30.7654578 ,Left ,61,225629039418 ,46,964679366043 ,67,393122689581
30.8179163 ,Left ,61,0696804142395 ,47,0946867328478 ,67,3991375716131
30.8553186 ,Left ,60,9897750792194 ,47,3372412140099 ,67,3111421778798
30.8703972 ,Left ,61,0102612660717 ,47,3694709890871 ,67,2697700105923
30.8932686 ,Left ,61,0292742830831 ,47,3746391404483 ,67,2052589595897
30.9155052 ,Left ,61,0326560307711 ,47,3782426519985 ,67,1255284069576
30.9304965 ,Left ,61,0558345992802 ,47,3735226097345 ,67,0437530793996
30.953133 ,Left ,61,0689302453007 ,47,3552088227852 ,66,9635722089639
30.9755411 ,Left ,61,0477610200642 ,47,3444668104861 ,66,8690285010573
30.9904352 ,Left ,61,007724593808 ,47,3368342571843 ,66,7614302553016
31.0130189 ,Left ,60,9646983718982 ,47,3030473174134 ,66,6867297637031
31.035321 ,Left ,61,0203710167291 ,47,252430262377 ,66,6362004608511
31.0503385 ,Left ,61,0305166428934 ,47,2235454490871 ,66,6112384732505
31.0730453 ,Left ,61,0281696133669 ,47,2439209888396 ,66,6176203642906
31.095522 ,Left ,60,997302928038 ,47,2751972515622 ,66,6429768440884
31.1104243 ,Left ,61,0316790863273 ,47,2951417652971 ,66,6536275576034
31.1329866 ,Left ,61,016112283713 ,47,2952145546444 ,66,6466967428215
31.1554855 ,Left ,60,9745045698477 ,47,3222011614418 ,66,6231580598275
31.1703517 ,Left ,60,9565434188789 ,47,348011583228 ,66,5975666956157
31.1929745 ,Left ,61,0357097639785 ,47,3517670047843 ,66,5895527635688
31.215669 ,Left ,61,0309973833638 ,47,3880452678734 ,66,6053300374528
31.2304342 ,Left ,60,9770668673171 ,47,4939934566137 ,66,6153800423536
31.2536348 ,Left ,60,9476180937942 ,47,5878504696441 ,66,6413072106839
31.2834752 ,Left ,60,9846324864054 ,47,6604491492869 ,66,6694987451604
31.3054748 ,Left ,60,9646541890171 ,47,6870587554604 ,66,6802613120289
31.3277615 ,Left ,60,9551856819226 ,47,7088745861333 ,66,6811529115741
31.3428666 ,Left ,60,9305000739141 ,47,7306108513755 ,66,6795908883006
31.3652783 ,Left ,60,918624828918 ,47,7411906807114 ,66,6719061426362
31.3803361 ,Left ,60,8916776168307 ,47,7295147176656 ,66,6644801440828
31.4032918 ,Left ,60,8720174284468 ,47,7150267624854 ,66,6521341684632
31.4179112 ,Left ,60,8655379523707 ,47,7087781317588 ,66,6299073407265
31.4328808 ,Left ,60,8521368228449 ,47,7123740852729 ,66,6050789588164
31.455571 ,Left ,60,8563215867464 ,47,7150044773876 ,66,5874035951649
31.4703691 ,Left ,60,8575004429317 ,47,7160608579496 ,66,5755339769285
31.4933689 ,Left ,60,8312632278633 ,47,7295923458523 ,66,5571338038856
31.5156911 ,Left ,60,7986793979067 ,47,7245399312048 ,66,5341205899351
31.5302974 ,Left ,60,8177290096067 ,47,677831653106 ,66,5246031488108
31.5530693 ,Left ,60,7947413923228 ,47,6386647882824 ,66,5333775112899
31.5753698 ,Left ,60,7679111562219 ,47,680661109594 ,66,5382657683265
31.5901711 ,Left ,60,7344043506657 ,47,7309284286362 ,66,5495547166452
31.612918 ,Left ,60,7745215413466 ,47,7433201809623 ,66,5465099096976
31.6352755 ,Left ,60,7942232065367 ,47,7500864467695 ,66,5371177888616
31.6581983 ,Left ,60,7915417974493 ,47,7400562003234 ,66,5237363479392
31.6732092 ,Left ,60,8134747985926 ,47,7392193773739 ,66,4925663001095
31.6958383 ,Left ,60,8216836449395 ,47,75541173343 ,66,4505687502661
31.7108553 ,Left ,60,8383748610088 ,47,7949186930958 ,66,3953641885009
31.7332284 ,Left ,60,8375568355392 ,47,8437972546245 ,66,33165911062
31.7557528 ,Left ,60,830251663053 ,47,8966340830174 ,66,2778365630059
31.7706889 ,Left ,60,8279490451452 ,47,9471225291698 ,66,2170247209235
31.7936799 ,Left ,60,8252217654691 ,47,9976696932764 ,66,1518434082023
31.8159074 ,Left ,60,8137691405195 ,48,0387985178779 ,66,0799393421638
31.8385747 ,Left ,60,7975800479772 ,48,0651096929911 ,65,9978411745152
31.8537449 ,Left ,60,7731177425531 ,48,0730255623951 ,65,9089013447195
31.8759189 ,Left ,60,7457887435815 ,48,068322328794 ,65,8278763315928
31.8983534 ,Left ,60,7080268090661 ,48,0569140244814 ,65,7480930953107
31.9134025 ,Left ,60,6411045186292 ,48,0263923154193 ,65,6635745745614
31.9355353 ,Left ,60,5994073787566 ,47,9529988028987 ,65,5761673043523
31.9580602 ,Left ,60,5699471947339 ,47,8782912677833 ,65,5347806056578
31.9728432 ,Left ,60,531447048426 ,47,8522378377004 ,65,5622898414709
31.9953586 ,Left ,60,5268820734818 ,47,8950531375665 ,65,6344404944917
32.0180968 ,Left ,60,5805687913925 ,47,9086359565011 ,65,7278320464982
32.0328122 ,Left ,60,6848331351774 ,47,8736541228805 ,65,8005369356992
32.0556381 ,Left ,60,7132978696142 ,47,762375114543 ,65,8688708348212
32.0778108 ,Left ,60,7558415934969 ,47,6244058142262 ,65,9546450189677
32.0929516 ,Left ,60,7820645340682 ,47,5738344935093 ,65,9798607936306
32.1159983 ,Left ,60,804940141902 ,47,5170101576753 ,66,002968683149
32.1386039 ,Left ,60,9043809707082 ,47,3842363436146 ,65,9968922703139
32.1536536 ,Left ,60,9620938356359 ,47,2486625181068 ,65,9962215603739
32.1759282 ,Left ,60,9596767854173 ,47,2129686227679 ,66,0135852071053
32.1983272 ,Left ,60,9569018033363 ,47,221367738426 ,66,0741880255202
32.2134516 ,Left ,61,0746249908822 ,47,2332893573053 ,66,1419936572284
32.2358095 ,Left ,61,1853498962671 ,47,225490847069 ,66,2152444453328
32.2582806 ,Left ,61,2846560600548 ,47,1656078680166 ,66,2999318473175
32.2733761 ,Left ,61,3658135051041 ,47,1295320023198 ,66,3857938539049
32.2957395 ,Left ,61,4019408666931 ,47,1160783187931 ,66,4440269045058
32.3255699 ,Left ,61,4510641489144 ,47,0848281301064 ,66,5013429544015
32.3406487 ,Left ,61,496679495702 ,47,0220852038619 ,66,5525280306287
32.3632682 ,Left ,61,5469424097803 ,46,9551501137284 ,66,6004737770227
32.3780502 ,Left ,61,5274043340885 ,46,8934567676427 ,66,6389749565704
32.3933129 ,Left ,61,5063959254028 ,46,8438426460743 ,66,6695143522118
32.4152716 ,Left ,61,5196684662429 ,46,8112017423237 ,66,7047181516042
32.4379219 ,Left ,61,5304678175857 ,46,7722213424642 ,66,7476119211804
32.4528768 ,Left ,61,5516201807298 ,46,7241946189412 ,66,7961958305853
32.4758218 ,Left ,61,578736131995 ,46,6872286839743 ,66,8397369835026
32.4978942 ,Left ,61,5818779853283 ,46,6556520401815 ,66,8693138814465
32.5130595 ,Left ,61,5989252468748 ,46,6281036979621 ,66,8920780826059
32.535606 ,Left ,61,6196526491403 ,46,5983309044707 ,66,9145642910503
32.5580388 ,Left ,61,6438703899833 ,46,5779330006894 ,66,9430368976125
32.5730134 ,Left ,61,6716564055076 ,46,5706091358514 ,66,959021440802
32.5956062 ,Left ,61,6724862059422 ,46,5630488974708 ,66,9592038041047
32.6181269 ,Left ,61,6800256102829 ,46,5598087970351 ,66,9518574241265
32.640657 ,Left ,61,6881073342238 ,46,5470452345595 ,66,935915609443
32.6710355 ,Left ,61,6968732490043 ,46,5401961060372 ,66,9171925572653
32.7010479 ,Left ,61,702963041511 ,46,5434087917459 ,66,8692674214848
32.7304685 ,Left ,61,7081293343652 ,46,5372356355565 ,66,8379018020341
32.7529728 ,Left ,61,7117458261058 ,46,5322475660889 ,66,8069584493889
32.7678692 ,Left ,61,7036099823941 ,46,5410986257978 ,66,781489617643
32.7978261 ,Left ,61,6894009591468 ,46,5548774088353 ,66,7645216426204
32.8280575 ,Left ,61,6581547407906 ,46,5926064348129 ,66,7612217326812
32.8431423 ,Left ,61,6212512330402 ,46,6277481913287 ,66,7903743696996
32.8577373 ,Left ,61,5821700946762 ,46,6673120292578 ,66,840632536592
32.8802962 ,Left ,61,5479385740532 ,46,7056267261976 ,66,9112545823553
32.8954885 ,Left ,61,5091134653748 ,46,7424582493741 ,66,9950274562993
32.917951 ,Left ,61,4604774575218 ,46,7837332495519 ,67,0920437975523
32.9403986 ,Left ,61,4167688658875 ,46,8311556550025 ,67,1790430778846
32.9553251 ,Left ,61,3318997531833 ,46,8829682449426 ,67,2543518712579
32.9780384 ,Left ,61,2488435682234 ,46,9615659943975 ,67,3159331482935
33.0080575 ,Left ,61,1299811728762 ,47,0156695279368 ,67,3424615090118
33.0230773 ,Left ,61,0503902263642 ,47,0290867571459 ,67,3562541449198
33.0453406 ,Left ,61,0075368588964 ,47,0608157088408 ,67,3430062062905
33.0604329 ,Left ,60,932148712478 ,47,0989819201209 ,67,3131324678834
33.0754876 ,Left ,60,9239567780946 ,47,2142489331154 ,67,2638848579065
33.097836 ,Left ,60,8902155891667 ,47,3252139591262 ,67,2100896260586
33.1205302 ,Left ,60,9325667489752 ,47,3821068668369 ,67,1327819544582
33.1356322 ,Left ,60,9536396591696 ,47,4044830096079 ,67,0275442247512
33.1580507 ,Left ,60,9657603499976 ,47,4061326264438 ,66,9096161789355
33.1730871 ,Left ,60,9964802822074 ,47,4054477630738 ,66,7936458906945
33.1880589 ,Left ,61,0107524903944 ,47,4022363273074 ,66,6920844142859
33.2179008 ,Left ,60,9976950748666 ,47,3888996077563 ,66,6063746746578
33.24123 ,Left ,60,9471642620565 ,47,3671131246767 ,66,5344878086927
33.2561092 ,Left ,60,9349537411206 ,47,3353174135528 ,66,4792352048107
33.2708825 ,Left ,60,9666502342718 ,47,2906627643607 ,66,4402008538142
33.3084734 ,Left ,60,9719248024223 ,47,2778911208166 ,66,4632465613135
33.3306027 ,Left ,60,9604793100159 ,47,2936088444635 ,66,4766913061328
33.3680546 ,Left ,60,9313787350425 ,47,2982822428561 ,66,4552759701803
33.3902299 ,Left ,60,8849648841438 ,47,3091542876332 ,66,443367648444
33.42809 ,Left ,60,9350680365649 ,47,2995440345151 ,66,4219050427372
33.4503988 ,Left ,60,8786179542762 ,47,3308109942905 ,66,4519622650318
33.4877284 ,Left ,60,8223384581099 ,47,4894958421024 ,66,506718868561
33.5102279 ,Left ,60,8429951351753 ,47,5481463631416 ,66,510704222088
33.5477071 ,Left ,60,8028823450411 ,47,6170758787034 ,66,5032543790774
33.5703353 ,Left ,60,8031168790019 ,47,6343878606194 ,66,5062603442949
33.6153225 ,Left ,60,7709508834963 ,47,6065418242043 ,66,5249504370518
33.6677257 ,Left ,60,751157420969 ,47,5961103458468 ,66,509519367981
33.6903162 ,Left ,60,7629851219753 ,47,5969242911213 ,66,5061454389311
33.7280463 ,Left ,60,7568269321078 ,47,6252706231676 ,66,4854319544171
33.750351 ,Left ,60,7542436736954 ,47,6473690665714 ,66,4632293038134
33.788059 ,Left ,60,7610905583814 ,47,6683174105492 ,66,4464317735483
33.8103042 ,Left ,60,760039584925 ,47,6758957675381 ,66,4416855726822
33.8478514 ,Left ,60,7254951912193 ,47,7371913792459 ,66,436965279931
33.8702739 ,Left ,60,7031864920985 ,47,7514755826729 ,66,4457517453728
33.9082977 ,Left ,60,6787319687494 ,47,7611461166957 ,66,4576000210738
33.9305643 ,Left ,60,6444910827242 ,47,7864676912825 ,66,4563317042237
33.9681441 ,Left ,60,613987951445 ,47,8058229052732 ,66,4345004709508
33.9905133 ,Left ,60,6649147036103 ,47,7642534361134 ,66,447415326639
34.0278435 ,Left ,60,6024290516632 ,47,8120129905058 ,66,4854505607849
34.0501249 ,Left ,60,5805720464414 ,47,8928462865197 ,66,4908588870696
34.0879893 ,Left ,60,6348357894669 ,48,0196328928059 ,66,425215448319
34.1104936 ,Left ,60,6274779880894 ,48,0791952241428 ,66,359150601524
34.1483393 ,Left ,60,617502027339 ,48,1598986106546 ,66,2088264549899
34.1706012 ,Left ,60,6130330627293 ,48,1799404903741 ,66,1312073051254
34.2078568 ,Left ,60,5811731709922 ,48,214907185392 ,65,9857770286313
34.230364 ,Left ,60,5672456727574 ,48,2216405483201 ,65,9078445029438
34.2681335 ,Left ,60,5485404413621 ,48,2083612156801 ,65,7139080198902
34.2905563 ,Left ,60,524328218742 ,48,1771001875526 ,65,6159594243618
34.3280932 ,Left ,60,4528913097628 ,48,0487150901511 ,65,4587229856468
34.3505121 ,Left ,60,4267058192713 ,48,0149520894244 ,65,4407564835033
34.388291 ,Left ,60,4441353912158 ,48,0906522279967 ,65,5766892469967
34.4179177 ,Left ,60,5371574258043 ,48,0548849482844 ,65,6783823874765
34.4554999 ,Left ,60,6411006306558 ,47,8551009708669 ,65,8152304097346
34.4703935 ,Left ,60,6961909987042 ,47,8139428048481 ,65,8378459969419
34.5081438 ,Left ,60,7340458532613 ,47,7010931413961 ,65,8947871205604
34.5303779 ,Left ,60,7928123600845 ,47,5659789793546 ,65,883080643951
34.5678097 ,Left ,60,801687020743 ,47,3283238384631 ,65,9026865893407
34.590486 ,Left ,60,8208370348784 ,47,3077726905888 ,65,9797209964926
34.627983 ,Left ,61,0585288692721 ,47,3182131358793 ,66,1334493119697
34.6505218 ,Left ,61,1653397818787 ,47,2499732596164 ,66,2230101202569
34.6957037 ,Left ,61,3966301081146 ,47,0901612470541 ,66,3958462132121
34.7179901 ,Left ,61,4779670409001 ,47,0236053520538 ,66,4746477082665
34.7778823 ,Left ,61,6869956075889 ,46,8288333687524 ,66,6004847972474
34.8305363 ,Left ,61,7740911055195 ,46,7215609440893 ,66,7213259055127
34.8678107 ,Left ,61,8016513606582 ,46,6938940278204 ,66,7674735011015
34.8902812 ,Left ,61,792251774639 ,46,6815442732261 ,66,7869744978385
34.9278177 ,Left ,61,7672514940022 ,46,6576324571 ,66,8152953449205
34.9577837 ,Left ,61,7527091696168 ,46,6562722143482 ,66,8231383881467
34.9878237 ,Left ,61,7246358951151 ,46,664937745825 ,66,8375712578347
35.0102489 ,Left ,61,729323295703 ,46,6658269744039 ,66,8509269310903
35.0256717 ,Left ,61,7228916398285 ,46,6566685653833 ,66,8596065245179
35.0404117 ,Left ,61,7295052730371 ,46,642546911031 ,66,8557806362917
35.0633886 ,Left ,61,739218664975 ,46,6452341616368 ,66,8450362750856
35.0856909 ,Left ,61,746686964735 ,46,6612142667136 ,66,8316152668419
35.1006471 ,Left ,61,7403031414638 ,46,6754311827821 ,66,8179829992822
35.1231125 ,Left ,61,7159477675081 ,46,6822564691448 ,66,8099501304174
35.1455804 ,Left ,61,6784364060773 ,46,6947294720457 ,66,8119270040146
35.160599 ,Left ,61,6435514688648 ,46,7094114980619 ,66,8050126725468
35.1830559 ,Left ,61,6164497045088 ,46,7224492638024 ,66,7863219222718
35.2056848 ,Left ,61,5840546183119 ,46,7301656894404 ,66,7700242613174
35.2204455 ,Left ,61,5405174172713 ,46,7416325333356 ,66,7484312872651
35.250484 ,Left ,61,5008773648627 ,46,7455658073385 ,66,7256441582423
35.2730134 ,Left ,61,4650450298213 ,46,7461215455716 ,66,6919030496325
35.2880977 ,Left ,61,4464000552205 ,46,747671390934 ,66,6530882092894
35.3103232 ,Left ,61,4254970687577 ,46,7537555456585 ,66,6133130644222
35.3253372 ,Left ,61,4120642530053 ,46,7680173915265 ,66,5771735995261
35.3403961 ,Left ,61,3878564607133 ,46,7850472795164 ,66,542939850373
35.3631752 ,Left ,61,3747434486011 ,46,8081442487309 ,66,5120063862849
35.38563 ,Left ,61,3826023061338 ,46,8271304121305 ,66,4897140750097
35.4004433 ,Left ,61,3935432116066 ,46,8454946864465 ,66,4794479737436
35.422824 ,Left ,61,4211118907602 ,46,8623754820963 ,66,4861571476724
35.4455603 ,Left ,61,4526621815075 ,46,8808442870756 ,66,5031296060352
35.4602963 ,Left ,61,4978248771555 ,46,8966754832026 ,66,5232920143324
35.4829229 ,Left ,61,5606393001377 ,46,8998908068439 ,66,5570200839598
35.5055664 ,Left ,61,6216812887556 ,46,9100940970204 ,66,5898202675741
35.5203321 ,Left ,61,6542851420016 ,46,9264151901606 ,66,6214915218534
35.5430242 ,Left ,61,6415223910457 ,46,9438072926386 ,66,6382102311966
35.5657599 ,Left ,61,6129716584732 ,46,9546608190254 ,66,6403577803882
35.5807624 ,Left ,61,5727075743507 ,46,9558272222542 ,66,6457866905357
35.6030314 ,Left ,61,5252844894726 ,46,9508548256254 ,66,6452553280122
35.6253547 ,Left ,61,4707262301059 ,46,939696726783 ,66,6498067816279
35.6477835 ,Left ,61,4173076336348 ,46,9305899760442 ,66,657333249183
35.6627785 ,Left ,61,3779232757188 ,46,9265827753343 ,66,6735416978355
35.6855645 ,Left ,61,3449374862766 ,46,9299423805283 ,66,6902744438193
35.7084578 ,Left ,61,3198729214715 ,46,9297113713302 ,66,7090928155941
35.7237207 ,Left ,61,3097576953874 ,46,9263708470901 ,66,7391544948546
35.7454129 ,Left ,61,3204307620916 ,46,9282038752421 ,66,780140673425
35.7679032 ,Left ,61,3555648337103 ,46,9219627594269 ,66,8341403000347
35.7830866 ,Left ,61,3969296944412 ,46,9022113878363 ,66,8994440678584
35.8053121 ,Left ,61,441381643724 ,46,8637050072997 ,66,9718916650333
35.8352407 ,Left ,61,4993325641148 ,46,8134719158552 ,67,0494384679611
35.8510869 ,Left ,61,5612649599654 ,46,7517571749923 ,67,1269251565659
35.873712 ,Left ,61,6273502577347 ,46,6831431896993 ,67,190229712616
35.9103995 ,Left ,61,7274652626758 ,46,5452286753536 ,67,280511141568
35.9329566 ,Left ,61,7518843720147 ,46,4973616978409 ,67,3154629376919
35.9631937 ,Left ,61,792366605985 ,46,4082034693425 ,67,3667419895129
35.9857504 ,Left ,61,8089075788012 ,46,3637793335639 ,67,3797050555151
36.0081058 ,Left ,61,8248542606739 ,46,3307079100908 ,67,3985402793195
36.0230658 ,Left ,61,841355307656 ,46,3023199195912 ,67,4214010510876
36.0454308 ,Left ,61,8532919340188 ,46,2907931623341 ,67,4471586869044
36.0679357 ,Left ,61,8823686009851 ,46,2908131497556 ,67,4582414484853
36.0829099 ,Left ,61,8974165993738 ,46,3003140571912 ,67,4531703776157
36.1053215 ,Left ,61,9068828796724 ,46,3102591897587 ,67,4401763784497
36.1279232 ,Left ,61,9230721359894 ,46,3256636408451 ,67,4192727306237
36.1428978 ,Left ,61,9460939187634 ,46,3487643009697 ,67,3945836448691
36.165542 ,Left ,61,9612550436207 ,46,3646530796313 ,67,3637080894023
36.1879572 ,Left ,61,9580907467682 ,46,3667303274886 ,67,3309729336196
36.2030198 ,Left ,61,9575489589903 ,46,3646028002728 ,67,2950280886053
36.2259347 ,Left ,61,9544309022557 ,46,3666539976884 ,67,2623589628709
36.2479304 ,Left ,61,9586091487698 ,46,3712598071863 ,67,2319584624918
36.263057 ,Left ,61,9593844203283 ,46,3768107144437 ,67,1957669956111
36.2853394 ,Left ,61,955058855512 ,46,3756373220471 ,67,1670694789075
36.3084319 ,Left ,61,9445768301618 ,46,3834976949718 ,67,1482421466783
36.3236394 ,Left ,61,9219106765339 ,46,4087143379745 ,67,1516299813111
36.3458019 ,Left ,61,8959711527683 ,46,4430183849909 ,67,1699062620339
36.368206 ,Left ,61,8584373914744 ,46,4720545833266 ,67,1999075046773
36.3829719 ,Left ,61,8083273577461 ,46,5112199510812 ,67,2417764320378
36.4053722 ,Left ,61,7614821905166 ,46,5656310163525 ,67,2811431309991
36.4281817 ,Left ,61,7145675045693 ,46,6315423572043 ,67,3197992982355
36.4430817 ,Left ,61,6635665617612 ,46,7103423652516 ,67,3489280838566
36.4653122 ,Left ,61,5805077197326 ,46,7986593050326 ,67,3721458282259
36.4879848 ,Left ,61,4752147382442 ,46,880673463727 ,67,3893860294647
36.5103659 ,Left ,61,3857865885643 ,46,9325274157872 ,67,4068712132441
36.5254409 ,Left ,61,3375411133057 ,46,9703335927898 ,67,4047797624395
36.5552923 ,Left ,61,2692793878793 ,47,0274777680541 ,67,3495138231714
36.5778156 ,Left ,61,2006667182295 ,47,1156546931169 ,67,2866409856074
36.5930469 ,Left ,61,1290104935091 ,47,2411020037683 ,67,2230095851026
36.6079787 ,Left ,61,1404610028111 ,47,3156217182372 ,67,1696244673469
36.6303936 ,Left ,61,1837257434404 ,47,3397348685317 ,67,0969556719019
36.645984 ,Left ,61,2168511448057 ,47,3406482059159 ,67,0108467386052
36.6685724 ,Left ,61,2397522086575 ,47,3360381367986 ,66,9114356295272
36.6910562 ,Left ,61,2442703806503 ,47,312722767272 ,66,8235615571623
36.705891 ,Left ,61,2411401329226 ,47,2897500211903 ,66,7473457243811
36.7355848 ,Left ,61,2142916007592 ,47,2843129606524 ,66,678328522237
36.7655454 ,Left ,61,1791696257544 ,47,2747775082035 ,66,6191759701468
36.7879252 ,Left ,61,2282692082935 ,47,230546494672 ,66,5819979296232
36.8028322 ,Left ,61,242980930586 ,47,1831149396879 ,66,5780975372577
36.8334502 ,Left ,61,2188240300412 ,47,2707634952707 ,66,6012262997856
36.8486667 ,Left ,61,2322860554872 ,47,2988395122242 ,66,604673031131
36.8705007 ,Left ,61,2072607022754 ,47,3034733085757 ,66,5787199626999
36.8855507 ,Left ,61,1473917865043 ,47,3144152362958 ,66,5404003893206
36.908106 ,Left ,61,1019606738133 ,47,3183452067642 ,66,492000186312
36.9303676 ,Left ,61,0868570948483 ,47,2950284303648 ,66,4513744162361
36.9453329 ,Left ,61,1145538267086 ,47,255210741284 ,66,4394868753329
36.9679849 ,Left ,61,0496015271897 ,47,2742638976133 ,66,4399369618511
36.9903279 ,Left ,60,997307222498 ,47,3513961827701 ,66,4410916294179
37.0056263 ,Left ,61,0089666990472 ,47,4233900918955 ,66,4682717135105
37.0281152 ,Left ,61,02860812784 ,47,4788309839709 ,66,480915077434
37.0503758 ,Left ,61,0104266852792 ,47,509994921058 ,66,4886155452574
37.0654396 ,Left ,60,9900464663071 ,47,5361677788563 ,66,4822111844179
37.0880034 ,Left ,60,9785185373489 ,47,554138189743 ,66,4841821747507
37.1103646 ,Left ,60,9738594337003 ,47,5629054050795 ,66,4862980861927
37.1253202 ,Left ,60,9534728610555 ,47,5543359393792 ,66,4783647871349
37.1480222 ,Left ,60,9192130792654 ,47,5300618382059 ,66,4662408972892
37.1703058 ,Left ,60,8892207798317 ,47,5094403076436 ,66,4512483393849
37.1852743 ,Left ,60,8763161431334 ,47,487708819005 ,66,4428458846766
37.2078988 ,Left ,60,8829477538935 ,47,4694411166985 ,66,4424893452434
37.2304897 ,Left ,60,8953770758753 ,47,4412005799211 ,66,4500464691453
37.2455491 ,Left ,60,9050504841568 ,47,4046296219903 ,66,4565245622667
37.2680304 ,Left ,60,9210821282346 ,47,3805105696477 ,66,4581534743746
37.2903673 ,Left ,60,9317802947494 ,47,3644278316248 ,66,4592388880614
37.3053182 ,Left ,60,9538402949244 ,47,3405759329309 ,66,4689667140244
37.3279264 ,Left ,60,9747787416502 ,47,3157802557831 ,66,4755692222232
37.3503792 ,Left ,60,992069098626 ,47,3022950610993 ,66,4783535213135
37.3656557 ,Left ,61,0024376380003 ,47,3042926834382 ,66,4753290345112
37.3878579 ,Left ,61,0027191220236 ,47,3092601470759 ,66,4745937234788
37.4103411 ,Left ,61,0096975604874 ,47,3224640889974 ,66,4723745834064
37.4253493 ,Left ,61,0156882504253 ,47,334090379458 ,66,4694979911736
37.4478782 ,Left ,61,0136391955647 ,47,3401425343684 ,66,464062896861
37.4782609 ,Left ,61,0118659925515 ,47,3384921382616 ,66,4582957149172
37.4933324 ,Left ,61,0113068416208 ,47,3336463678842 ,66,4544193224505
37.5155446 ,Left ,61,0113068416208 ,47,3336463678842 ,66,4544193224505
37.5305606 ,Left ,61,0082671195366 ,47,3330297752063 ,66,4536510418528
37.552874 ,Left ,61,0082671195366 ,47,3330297752063 ,66,4536510418528
37.5680232 ,Left ,61,0082671195366 ,47,3330297752063 ,66,4536510418528
37.590487 ,Left ,61,0082671195366 ,47,3330297752063 ,66,4536510418528
37.6129771 ,Left ,60,9957763720848 ,47,3361054825902 ,66,4577988296899
37.6279002 ,Left ,60,9957763720848 ,47,3361054825902 ,66,4577988296899
37.6505527 ,Left ,60,9962808492977 ,47,336299462253 ,66,458290593021
37.6730552 ,Left ,60,9952188143151 ,47,3388394405704 ,66,4588595596467
37.6880129 ,Left ,60,9921846872139 ,47,3458049390297 ,66,4630268103955
37.7104874 ,Left ,60,9888005280025 ,47,3519222349697 ,66,4691632223225
37.7332354 ,Left ,60,9876201740732 ,47,3564244009797 ,66,477860438794
37.7479077 ,Left ,60,9961011361037 ,47,3663096846581 ,66,4821574839027
37.7702991 ,Left ,61,0058676625316 ,47,3827360025687 ,66,4864112319837
37.793072 ,Left ,61,0114572165032 ,47,397620339856 ,66,486777048455
37.8081447 ,Left ,61,0107851720702 ,47,4085873513457 ,66,4903341685739
37.8305939 ,Left ,61,0162475329605 ,47,4178487006931 ,66,4938942188009
37.8534049 ,Left ,61,0167738492681 ,47,4318955548407 ,66,4937096455501
37.8680382 ,Left ,61,015204384213 ,47,4510159416901 ,66,4946812124138
37.8906534 ,Left ,61,0025881866848 ,47,47153446227 ,66,4972237690234
37.9131518 ,Left ,60,9899895346146 ,47,4920521073787 ,66,4997650877532
37.9281307 ,Left ,60,9814753009822 ,47,5169090860252 ,66,4968925060537
37.9506644 ,Left ,60,9709079242028 ,47,5405767907738 ,66,5007941592951
37.9731251 ,Left ,60,9652290515435 ,47,5749149459866 ,66,4987837249383
37.9880874 ,Left ,60,9494331659326 ,47,6025069503111 ,66,5009020604603
38.0105661 ,Left ,60,9535008749157 ,47,6267570419991 ,66,5042722855645
38.0331537 ,Left ,60,9589489946529 ,47,6493200914526 ,66,5051225019576
38.0482726 ,Left ,60,955455668764 ,47,6693764012499 ,66,5060567168797
38.070724 ,Left ,60,9457191011883 ,47,6876709116355 ,66,503242023586
38.0934059 ,Left ,60,9317486091332 ,47,7073544313684 ,66,4980502443061
38.1082647 ,Left ,60,9273302588084 ,47,7103547008364 ,66,4866564873685
