timestamp,event,roll,pitch,yaw
0.0721121 ,Left ,64,0871244401733 ,41,891378454677 ,71,0317570805539
0.0863994 ,Left ,64,0803864795801 ,41,8977621732864 ,71,0362204655785
0.1095214 ,Left ,64,0652807255148 ,41,9027464097955 ,71,0388679066713
0.1321957 ,Left ,64,053941060485 ,41,9035945911018 ,71,043942096927
0.1463581 ,Left ,64,0472495063862 ,41,9089649611429 ,71,054345169867
0.1695692 ,Left ,64,0421785168549 ,41,9148590146438 ,71,0583988343785
0.1923104 ,Left ,64,0408326967532 ,41,9176316117937 ,71,0589339634731
0.2068582 ,Left ,64,0408326967532 ,41,9176316117937 ,71,0589339634731
0.2298484 ,Left ,64,0426264887819 ,41,9191864827941 ,71,0598491096409
0.252494 ,Left ,64,0282360807174 ,41,9212358576726 ,71,0616209637634
0.2736177 ,Left ,64,0169886393569 ,41,9220663941448 ,71,0637759704251
0.2900227 ,Left ,64,0006755940574 ,41,9151318077866 ,71,0722756941495
0.3122689 ,Left ,63,9941329127072 ,41,9142804402733 ,71,0773367116985
0.3334308 ,Left ,63,9947919256751 ,41,9144449341077 ,71,0776746501767
0.3498018 ,Left ,63,9933456465245 ,41,918252593279 ,71,0751803978371
0.3722471 ,Left ,63,9951412754476 ,41,9198067520484 ,71,0760900371374
0.3930744 ,Left ,63,9918543009671 ,41,9282660943211 ,71,075102374809
0.4096282 ,Left ,63,9730066120739 ,41,9395121334565 ,71,0853951390433
0.4322578 ,Left ,63,9592947164623 ,41,9575127889844 ,71,0952804832347
0.4535045 ,Left ,63,9487134896748 ,41,9733263860593 ,71,1143981629652
0.4696152 ,Left ,63,9203915951564 ,41,9891808604118 ,71,1436327881696
0.4924118 ,Left ,63,8991883612085 ,42,0030129913646 ,71,1727959863762
0.5134296 ,Left ,63,9046286762257 ,42,0016352986844 ,71,1980240271622
0.5297145 ,Left ,63,9071865152935 ,41,9972771798801 ,71,2188727380674
0.5523209 ,Left ,63,8713913860033 ,41,9922347403339 ,71,2627864919493
0.5735415 ,Left ,63,7939416033604 ,42,0566113241132 ,71,331082699309
0.589141 ,Left ,63,7420717898055 ,42,1452946131954 ,71,4557177394931
0.6122249 ,Left ,63,6782544336112 ,42,2819466133653 ,71,6015939394847
0.6333063 ,Left ,63,6670264369578 ,42,4550784388628 ,71,7086853612267
0.6490543 ,Left ,63,7489073610819 ,42,6426040343838 ,71,7631820400282
0.6725578 ,Left ,63,8463320861633 ,42,7903981761825 ,71,7917417099159
0.694861 ,Left ,63,9474886589034 ,42,8940608100311 ,71,7874094441136
0.7091027 ,Left ,63,969778793708 ,42,9227776439574 ,71,7690669419647
0.7322246 ,Left ,64,000491177953 ,42,9073419789189 ,71,7290447629805
0.7547872 ,Left ,64,0313535285357 ,42,8081830359488 ,71,7001969848315
0.7689215 ,Left ,64,0390389154785 ,42,6650388181096 ,71,6974401736955
0.7922025 ,Left ,64,0507442990237 ,42,5192101154374 ,71,70768329088
0.8207746 ,Left ,64,0478068613847 ,42,3844672369015 ,71,7101063629574
0.8292635 ,Left ,64,0586533373725 ,42,2991172985267 ,71,7394329341481
0.8520147 ,Left ,64,1462524953044 ,42,3832628318636 ,71,8008596721441
0.8747562 ,Left ,64,1717435503426 ,42,6327496954392 ,71,8349382102176
0.8888626 ,Left ,64,2093856497093 ,42,9246814310309 ,71,8620574279991
0.9120973 ,Left ,64,2768524100333 ,43,1897728452875 ,71,9457323913214
0.934638 ,Left ,64,379637600764 ,43,4230684963085 ,72,0668094868402
0.9557922 ,Left ,64,4174083631302 ,43,6148860894939 ,72,2097017384131
0.9722344 ,Left ,64,4717515468152 ,43,7365268451507 ,72,3869750221956
0.9948443 ,Left ,64,5457494172936 ,43,8063518315686 ,72,5873345066001
1.0172503 ,Left ,64,6747184682109 ,43,8281432229178 ,72,7740669719523
1.0322854 ,Left ,64,7621730158989 ,43,8017151461084 ,72,9611355703862
1.054907 ,Left ,64,8492310009005 ,43,7424597656177 ,73,1483379465907
1.0759459 ,Left ,64,9962701928619 ,43,639165501778 ,73,3291948472508
1.0922141 ,Left ,65,168511103131 ,43,5350187999893 ,73,4635502157348
1.1146998 ,Left ,65,304075030319 ,43,4342812986025 ,73,5570606074259
1.1434122 ,Left ,65,4208262592464 ,43,3716315300002 ,73,6263606442335
1.152143 ,Left ,65,5104466346506 ,43,3402324744429 ,73,6896604055842
1.1748484 ,Left ,65,5894139361055 ,43,3150039601951 ,73,7422132510951
1.195821 ,Left ,65,6844862011631 ,43,2906590975479 ,73,7768531853765
1.2122268 ,Left ,65,7357321223717 ,43,2541864151884 ,73,8030983068629
1.2346641 ,Left ,65,7338503148977 ,43,2206296517072 ,73,8175263722322
1.2563488 ,Left ,65,7139200664952 ,43,1957203535456 ,73,825794085537
1.2723608 ,Left ,65,6966369437405 ,43,1896011998395 ,73,811421366737
1.2951044 ,Left ,65,6897464813621 ,43,1784518200294 ,73,777181317619
1.3162035 ,Left ,65,667940356166 ,43,1622556388504 ,73,743747575993
1.3325431 ,Left ,65,6386114944038 ,43,1441040899355 ,73,7244849907086
1.3548897 ,Left ,65,6154362132739 ,43,1301977819327 ,73,7120875230056
1.3762225 ,Left ,65,5955869023907 ,43,1224059558485 ,73,6928920486689
1.3926684 ,Left ,65,598196327642 ,43,1122084828782 ,73,6519313572109
1.4150617 ,Left ,65,6079957888242 ,43,1035021963076 ,73,5968321961562
1.4374405 ,Left ,65,6117323858658 ,43,0896632823531 ,73,548477966198
1.4522439 ,Left ,65,6110603763001 ,43,0897537320808 ,73,510386430949
1.4749015 ,Left ,65,6017820049632 ,43,1049641973826 ,73,4691877676719
1.4961271 ,Left ,65,5956272057411 ,43,1112648551686 ,73,4286317328524
1.5122795 ,Left ,65,6146782145033 ,43,1089447325441 ,73,3860528668984
1.5348109 ,Left ,65,5840190154341 ,43,1050377530785 ,73,3618264338964
1.5559773 ,Left ,65,5328691852083 ,43,1090937862778 ,73,3484569949274
1.572327 ,Left ,65,5162431425566 ,43,1211776648772 ,73,3244307535148
1.594911 ,Left ,65,4848620181249 ,43,1400008752407 ,73,2986912552444
1.6173228 ,Left ,65,4304948432902 ,43,1514325479597 ,73,2739512702892
1.632277 ,Left ,65,3601279532813 ,43,1562554466603 ,73,2494538962275
1.6548287 ,Left ,65,3084170614955 ,43,1472246350988 ,73,2115542876361
1.677265 ,Left ,65,2376133147547 ,43,1108379674743 ,73,1656827895893
1.6916136 ,Left ,65,1776809558228 ,43,0723487454693 ,73,1158704666263
1.7148157 ,Left ,65,0994148161496 ,43,0338498368749 ,73,0452157937335
1.737403 ,Left ,65,0326681574427 ,42,9783303191041 ,72,9689530908144
1.7516003 ,Left ,64,9912410672328 ,42,9170965048359 ,72,9042996226379
1.7748576 ,Left ,64,9533455294298 ,42,8534563139421 ,72,8467614423024
1.7972756 ,Left ,64,9445556215125 ,42,7906356930143 ,72,8099702923608
1.8116691 ,Left ,64,9428298317004 ,42,7597544337176 ,72,7858021176487
1.8348712 ,Left ,64,9321616805682 ,42,7449239899901 ,72,7650720119754
1.8573145 ,Left ,64,9251197211121 ,42,7349231308492 ,72,7567494934739
1.8718015 ,Left ,64,952893634731 ,42,7403610801103 ,72,7584797978734
1.8947862 ,Left ,64,9705876902049 ,42,735214951564 ,72,7674341730323
1.9173064 ,Left ,64,9898646023287 ,42,7227791293494 ,72,7677015305235
1.9317489 ,Left ,65,0129783004579 ,42,7118484182319 ,72,7626952065452
1.9548195 ,Left ,65,0228377513291 ,42,7016929195241 ,72,7582785656193
1.977282 ,Left ,65,028120054697 ,42,6866793136057 ,72,7608798617739
1.9917583 ,Left ,65,0275001693365 ,42,6630045398233 ,72,7592893683372
2.0148143 ,Left ,65,0205911851511 ,42,6226926632959 ,72,7604735681767
2.0373848 ,Left ,65,0191066464566 ,42,5554574694763 ,72,767111547309
2.051651 ,Left ,65,0139387327972 ,42,5090609783285 ,72,7834711215399
2.0748058 ,Left ,65,0114944055186 ,42,4734338229253 ,72,8008551449461
2.0972761 ,Left ,65,0193776421335 ,42,4523629287397 ,72,8122797324044
2.1183762 ,Left ,65,0191885841677 ,42,4430407639986 ,72,8290629066343
2.1348057 ,Left ,65,0167349260119 ,42,4483845315293 ,72,8436823499909
2.1573373 ,Left ,65,017696876363 ,42,4631987605 ,72,8522240990725
2.1784293 ,Left ,65,0259971995378 ,42,4744377241724 ,72,8612276596884
2.194433 ,Left ,65,0385070781685 ,42,472275773205 ,72,8800974186116
2.2171041 ,Left ,65,0489386544447 ,42,4618759016409 ,72,9057968930037
2.2381199 ,Left ,65,0738465720861 ,42,463759173037 ,72,9322674009089
2.2548064 ,Left ,65,0967315252527 ,42,4819247378471 ,72,9505233174663
2.2771105 ,Left ,65,131104848771 ,42,5003311108315 ,72,9581873289416
2.2981549 ,Left ,65,153880138455 ,42,5128755881399 ,72,9679840046251
2.3147372 ,Left ,65,1803354302701 ,42,5295419767677 ,72,9766907039777
2.3372825 ,Left ,65,1884262914465 ,42,5458521442673 ,72,9943466068294
2.3583372 ,Left ,65,1919555239637 ,42,5684112714289 ,72,9996584621219
2.3747373 ,Left ,65,2147036742131 ,42,5831095047682 ,72,9868004210649
2.3973823 ,Left ,65,2355809541106 ,42,5821810187617 ,72,9646647204617
2.4182987 ,Left ,65,2493112218209 ,42,5807102517797 ,72,9306158163621
2.4347586 ,Left ,65,2655981105149 ,42,5779957903148 ,72,8833237561741
2.4573431 ,Left ,65,2745818151728 ,42,5658150133911 ,72,8242460568856
2.478325 ,Left ,65,3013245066481 ,42,5350236864733 ,72,7495393640758
2.4949126 ,Left ,65,3174178518021 ,42,4805673857799 ,72,6706752541416
2.5172774 ,Left ,65,3212454139068 ,42,4111159737014 ,72,6036799941051
2.5384387 ,Left ,65,3088413000542 ,42,3243055272547 ,72,5536837481907
2.5540463 ,Left ,65,2665792801975 ,42,2406323056668 ,72,5218356524285
2.5773486 ,Left ,65,2223433888921 ,42,1763875001248 ,72,4834111151445
2.5998048 ,Left ,65,1546611272294 ,42,0625352855912 ,72,4571327429985
2.6141991 ,Left ,65,1233290420857 ,41,9285330622265 ,72,4761492198568
2.6372423 ,Left ,65,1529150938467 ,41,8772647646431 ,72,5625418942336
2.6598044 ,Left ,65,1793738101351 ,42,0046234637736 ,72,6406209302563
2.6740485 ,Left ,65,1128880859398 ,42,1989359320466 ,72,6946187883653
2.6973108 ,Left ,65,1444157659494 ,42,3785135472287 ,72,7355412741143
2.7196859 ,Left ,65,2360783551376 ,42,518291447655 ,72,8017272883191
2.7339479 ,Left ,65,2528759093157 ,42,6444903080072 ,72,8767733181496
2.7572571 ,Left ,65,2460141308661 ,42,7254033668428 ,72,9369779262714
2.7796934 ,Left ,65,2378163006744 ,42,7802901758725 ,72,9977431236679
2.7939138 ,Left ,65,2553795664103 ,42,8153238235266 ,73,027983767548
2.8173055 ,Left ,65,2722629239081 ,42,7760376629421 ,73,0553679626511
2.8398039 ,Left ,65,300551218646 ,42,6888818267316 ,73,0755224533907
2.8609848 ,Left ,65,2893847240247 ,42,5796395222613 ,73,0952030179359
2.8772348 ,Left ,65,2839457490824 ,42,4945214684852 ,73,1082784565023
2.8997788 ,Left ,65,2975145446766 ,42,4495341416358 ,73,1130378722245
2.9209098 ,Left ,65,3256117302661 ,42,4504994932505 ,73,1136110185036
2.9373501 ,Left ,65,3292563021865 ,42,4702271690164 ,73,1281554473734
2.959825 ,Left ,65,3318367078448 ,42,5032053196104 ,73,1606761158743
2.9740098 ,Left ,65,3495252815575 ,42,5553696554937 ,73,2004490997107
2.9973087 ,Left ,65,3967564799943 ,42,6012023136736 ,73,2424746820099
3.0198902 ,Left ,65,4589087639732 ,42,6360991260254 ,73,2849686853285
3.0339677 ,Left ,65,4984010536625 ,42,6698265747461 ,73,335095355304
3.0573403 ,Left ,65,504641037626 ,42,6968038331095 ,73,3841746931776
3.0798583 ,Left ,65,5034530795326 ,42,7024149517798 ,73,4234825832332
3.1006593 ,Left ,65,5025505924378 ,42,6917647901764 ,73,4536777491593
3.1171627 ,Left ,65,489784021463 ,42,665513971963 ,73,4785040323099
3.1399969 ,Left ,65,4638213889645 ,42,6342216329414 ,73,4982203976818
3.1611923 ,Left ,65,4207945839542 ,42,5872486679475 ,73,5180292667067
3.1775131 ,Left ,65,3743008838431 ,42,5343809326877 ,73,53167933485
3.1998281 ,Left ,65,3180630620921 ,42,5108275199122 ,73,5292521051332
3.2210659 ,Left ,65,2484909456705 ,42,5169060132327 ,73,5060330768309
3.2373381 ,Left ,65,193524815479 ,42,5412238902375 ,73,4759128826502
3.2598265 ,Left ,65,1473821289459 ,42,5628878248957 ,73,4472166449207
3.2807455 ,Left ,65,0958459193088 ,42,5759445234443 ,73,4282277377386
3.2972736 ,Left ,65,0424233813992 ,42,5882931285231 ,73,4152586762477
3.3197277 ,Left ,65,0106798468355 ,42,6007754174957 ,73,3944748592894
3.3408789 ,Left ,64,983336820094 ,42,5961842622557 ,73,3691580583536
3.3572613 ,Left ,64,9770478250657 ,42,5855441457759 ,73,3403580020226
3.3799197 ,Left ,64,9128281782886 ,42,5453282853448 ,73,3180854990301
3.4005379 ,Left ,64,8773395589111 ,42,52897157509 ,73,3008369615506
3.4170586 ,Left ,64,8541512133866 ,42,5773630727839 ,73,2806354969076
3.4398569 ,Left ,64,7764981340676 ,42,6380293779953 ,73,2682562484993
3.4608876 ,Left ,64,8170632405314 ,42,6850983803244 ,73,3505529382125
3.4767121 ,Left ,64,8277299688207 ,42,9047313266183 ,73,4388511703323
3.4999141 ,Left ,64,6940167085112 ,43,1814878058705 ,73,4729083316476
3.5222361 ,Left ,64,6945130359332 ,43,3583380896626 ,73,4593680717379
3.5366331 ,Left ,64,818875361615 ,43,4956693911244 ,73,4074562458246
3.5597493 ,Left ,64,8614608554592 ,43,6158849767367 ,73,3326487581411
3.5823084 ,Left ,64,8372810406833 ,43,6948911811042 ,73,2554754007128
3.5972308 ,Left ,64,8095217575005 ,43,7454782547125 ,73,1841933121748
3.619713 ,Left ,64,764934125459 ,43,7877489323287 ,73,1122279575588
3.6422485 ,Left ,64,7533763196625 ,43,7783594802423 ,73,0281193969792
3.6635526 ,Left ,64,7483829913744 ,43,6989547214068 ,72,9596276607469
3.6798009 ,Left ,64,72817961468 ,43,6115080950121 ,72,9073276145598
3.702314 ,Left ,64,6885990508449 ,43,5058302252214 ,72,8506804825652
3.7165729 ,Left ,64,7111171483628 ,43,3580632309234 ,72,8049813632876
3.7397892 ,Left ,64,7124150864207 ,43,2424817233799 ,72,8109616582184
3.7623347 ,Left ,64,6591038872875 ,43,1714176357276 ,72,8780301870106
3.7836314 ,Left ,64,6544790089516 ,43,2137773072977 ,72,9141081835062
3.799806 ,Left ,64,6021865037271 ,43,2998910977459 ,72,9598140247237
3.8223297 ,Left ,64,6249338817691 ,43,4040132977455 ,72,9682077412731
3.8434542 ,Left ,64,7071307315088 ,43,4004772761251 ,72,997336430838
3.8597385 ,Left ,64,8534264892639 ,43,3645831330384 ,73,0254018902228
3.8822442 ,Left ,64,9416969877899 ,43,3095964837379 ,73,0289145831909
3.9035579 ,Left ,64,9506075828867 ,43,1945656742453 ,73,0236279622645
3.9197041 ,Left ,64,9615203455808 ,43,0311256426078 ,73,0057724401157
3.942264 ,Left ,64,9455421083496 ,42,8992546656123 ,72,9697639909278
3.9633689 ,Left ,64,8913615283499 ,42,8368286696534 ,72,8956932349107
3.9799333 ,Left ,64,8584551616474 ,42,7102219181529 ,72,8585133181338
4.0023086 ,Left ,64,8144989997088 ,42,4792561858321 ,72,8949048100857
4.0233447 ,Left ,64,862456965933 ,42,3358931847675 ,72,9524588174815
4.0397663 ,Left ,64,8083255628364 ,42,4694959582065 ,72,9936120179789
4.0624357 ,Left ,64,7946695028075 ,42,7055745122965 ,73,0144236339443
4.0836636 ,Left ,64,8724368269285 ,42,8148739210965 ,73,0592579816258
4.0998133 ,Left ,64,9617529554102 ,42,8357549463976 ,73,108283967718
4.1223506 ,Left ,64,951529565472 ,42,8014004772486 ,73,1707094678205
4.1434018 ,Left ,64,8924933839358 ,42,7601330217582 ,73,1992164513451
4.1593145 ,Left ,64,9010904935939 ,42,6820945384706 ,73,1820317436522
4.1824198 ,Left ,64,9129590648444 ,42,544532513395 ,73,1393874294964
4.2032936 ,Left ,64,8792172424244 ,42,3241264406889 ,73,130444152799
4.2197427 ,Left ,64,819798587806 ,42,1275598669834 ,73,135733977388
4.2423507 ,Left ,64,7472414855138 ,41,9851457951004 ,73,0997536977386
4.2635618 ,Left ,64,7300324921575 ,41,8766348717068 ,73,0225133034203
4.2797194 ,Left ,64,7379460178778 ,41,7892825224269 ,72,9266370708233
4.3020563 ,Left ,64,7630018379542 ,41,7407982399252 ,72,8121736578921
4.3247309 ,Left ,64,7762238218044 ,41,7339696265529 ,72,7351729830856
4.3387153 ,Left ,64,7652647194099 ,41,8071017492178 ,72,695072073674
4.3622615 ,Left ,64,7451594149225 ,41,9035056601965 ,72,6808145930564
4.3848704 ,Left ,64,761065502996 ,42,0076086150358 ,72,6796500286328
4.3992162 ,Left ,64,7795619514989 ,42,108241592202 ,72,6884101958549
4.4225335 ,Left ,64,8005315790088 ,42,1791335885287 ,72,6986124883795
4.4449442 ,Left ,64,8347087344838 ,42,2051590172474 ,72,7107022969564
4.4592632 ,Left ,64,8722633328455 ,42,1918515707651 ,72,7042589268602
4.4823282 ,Left ,64,8823500634864 ,42,147452528414 ,72,7053563113892
4.5048703 ,Left ,64,8763555975497 ,42,1048312085178 ,72,703751266594
4.5197961 ,Left ,64,874127042853 ,42,0440441106935 ,72,6938398980564
4.5456861 ,Left ,64,8793041672772 ,41,9806852589227 ,72,6813735942111
4.5579752 ,Left ,64,8577979061214 ,41,9395147098915 ,72,6740561331482
4.5715929 ,Left ,64,8429431115729 ,41,9183903310079 ,72,6744768212934
4.5942031 ,Left ,65,0115044036529 ,42,0136981009193 ,72,6218792011191
4.6160952 ,Left ,64,9040068817388 ,42,0026246678079 ,72,6799866274962
4.631606 ,Left ,65,0201748382614 ,42,1071498270831 ,72,630883829328
4.6539793 ,Left ,65,1404606049808 ,42,1057227057497 ,72,5722241075625
4.6772369 ,Left ,64,86709623992 ,42,0266904941218 ,72,7136191939481
4.6914777 ,Left ,64,9446082789518 ,42,1181816946157 ,72,6888363875869
4.7141997 ,Left ,65,0416779357497 ,42,0889744351673 ,72,6294115936242
4.7374164 ,Left ,65,0325545331291 ,42,2431168339374 ,72,6318135206733
4.7518196 ,Left ,65,0111806385225 ,42,2529587108125 ,72,6338295724228
4.7744108 ,Left ,65,0000169627545 ,42,240667604802 ,72,6140535441384
4.7973608 ,Left ,65,0021181559677 ,42,2253526038773 ,72,5894598681592
4.8115507 ,Left ,64,990212727653 ,42,2130469489152 ,72,5662491140431
4.8340554 ,Left ,64,9791178251018 ,42,20822653994 ,72,545721837416
4.8573954 ,Left ,64,9389949766801 ,42,211789625187 ,72,5319236333143
4.8717465 ,Left ,64,8939535162298 ,41,9772872662759 ,72,5330060953976
4.8940298 ,Left ,64,9801254917075 ,41,9510161874763 ,72,4882273123114
4.91727 ,Left ,65,0339728938006 ,41,9178635315002 ,72,4580676038089
4.938405 ,Left ,64,9920163133973 ,41,9397624533789 ,72,4769166774012
4.9541012 ,Left ,64,9794350068678 ,41,9456561379788 ,72,4730155002512
4.9835696 ,Left ,64,9778049227321 ,41,9376529718586 ,72,4634355336756
4.9915934 ,Left ,64,9621216826643 ,41,9243007581828 ,72,4560292092237
5.0140643 ,Left ,64,9439450241343 ,41,9083376690926 ,72,4473208809272
5.0372605 ,Left ,64,9218720179128 ,41,884687073343 ,72,4321283994831
5.0516081 ,Left ,64,9101395413212 ,41,85842173175 ,72,4115020271026
5.0741443 ,Left ,64,8986999644951 ,41,8347510246295 ,72,3818215088592
5.0972576 ,Left ,64,8629020402212 ,41,8084210207645 ,72,3568255683336
5.1118021 ,Left ,64,8307989734205 ,41,7869749101135 ,72,3308770579949
5.1423804 ,Left ,64,7968191349408 ,41,7561527195168 ,72,315102307019
5.1572911 ,Left ,64,7690825226611 ,41,7285906701917 ,72,3015877765905
5.1782708 ,Left ,64,7404555143436 ,41,7054444745522 ,72,2993662444123
5.1941118 ,Left ,64,7385911955756 ,41,6886753636827 ,72,2905235043875
5.2173123 ,Left ,64,7548579288694 ,41,6796189223236 ,72,2739547070793
5.2384212 ,Left ,64,7684440753845 ,41,6612682777125 ,72,2640089585002
5.2542228 ,Left ,64,780989770397 ,41,6443845942046 ,72,2609395962981
5.2770502 ,Left ,64,7958272482961 ,41,6385010554934 ,72,2583652422032
5.2981412 ,Left ,64,8093120873633 ,41,6355982920241 ,72,2531713875997
5.3140872 ,Left ,64,8207200982655 ,41,6324565410612 ,72,2408035726465
5.3372437 ,Left ,64,8402854096453 ,41,626066646344 ,72,2289375517729
5.3581199 ,Left ,64,8584944213071 ,41,6043761753511 ,72,2219913028247
5.373909 ,Left ,64,8689137554716 ,41,6018424222561 ,72,2163714432083
5.3970358 ,Left ,64,8901182683644 ,41,60624854776 ,72,2047804440104
5.4181668 ,Left ,64,9056934198801 ,41,6086201176538 ,72,1882907953128
5.4417083 ,Left ,64,8914791316576 ,41,6005824575184 ,72,1800109990497
5.464615 ,Left ,64,8884916749387 ,41,5897885722752 ,72,1728018440958
5.4872427 ,Left ,64,8837550967377 ,41,5802185463214 ,72,1722289154185
5.5026193 ,Left ,64,8647892334534 ,41,5797317495284 ,72,1788301730613
5.5247687 ,Left ,64,8334188137072 ,41,5623671591085 ,72,191338334681
5.5474167 ,Left ,64,8061370408471 ,41,5360574919641 ,72,2117974274509
5.5620436 ,Left ,64,769081222465 ,41,5054184197011 ,72,2327981342722
5.585179 ,Left ,64,7353206311661 ,41,4781102346126 ,72,2421128542668
5.6075664 ,Left ,64,6834446431103 ,41,4511904813165 ,72,2420618233227
5.6217339 ,Left ,64,6262401937607 ,41,4138708234678 ,72,235114072491
5.6445334 ,Left ,64,5654651286047 ,41,372611756661 ,72,2235309965093
5.6671664 ,Left ,64,5010363161795 ,41,3479534091516 ,72,1900500986587
5.687962 ,Left ,64,4163163578215 ,41,3321133529074 ,72,1467343327291
5.7046156 ,Left ,64,336787717134 ,41,3149447511241 ,72,1009436468111
5.7273266 ,Left ,64,2688951315732 ,41,2895683019785 ,72,0584367710479
5.7482109 ,Left ,64,1992404445822 ,41,2676350741338 ,72,0103690870005
5.7647243 ,Left ,64,1265348093622 ,41,2582645188765 ,71,9593665502162
5.7873243 ,Left ,64,0755364884687 ,41,2478375934908 ,71,8983347563325
5.8015321 ,Left ,64,0363487404159 ,41,2316463741767 ,71,8405296079056
5.8247201 ,Left ,64,0113781618549 ,41,2210895597002 ,71,7735061885328
5.8473266 ,Left ,63,9735973044678 ,41,2163646794456 ,71,7033149058451
5.8617249 ,Left ,63,9392084877542 ,41,2259576520671 ,71,641205303911
5.8847555 ,Left ,63,8936377151862 ,41,2535149831641 ,71,5954353060719
5.9071527 ,Left ,63,8397165764183 ,41,2944202588183 ,71,5752942643529
5.9283679 ,Left ,63,8072565127641 ,41,3592460160034 ,71,5574086333275
5.9448227 ,Left ,63,7703916200003 ,41,4419200320363 ,71,5593970034282
5.9672641 ,Left ,63,7496508727699 ,41,5415607021504 ,71,574610740493
5.9884395 ,Left ,63,7194912897905 ,41,6468679656647 ,71,6121866486997
6.0049205 ,Left ,63,7273740930544 ,41,7311532354538 ,71,6677174791932
6.026931 ,Left ,63,7640350190091 ,41,7906947797145 ,71,7263203722987
6.0482807 ,Left ,63,7866730229129 ,41,8354694966046 ,71,8111022106517
6.0645884 ,Left ,63,7931479612321 ,41,8910815279963 ,71,890952928178
6.0948199 ,Left ,63,8406515118545 ,41,9654361852483 ,71,9784526471513
6.1083033 ,Left ,63,8951219875596 ,42,0580147747419 ,72,0921008035304
6.124803 ,Left ,63,8936660360062 ,42,2211557460091 ,72,2372069066765
6.1473886 ,Left ,63,9675086757877 ,42,415638035851 ,72,3758511316236
6.168095 ,Left ,64,1576359419111 ,42,6325230743754 ,72,4491609919418
6.1846112 ,Left ,64,305506998261 ,42,7629742715684 ,72,5118737455902
6.2073014 ,Left ,64,3822346452036 ,42,8445670552946 ,72,5727446394193
6.228181 ,Left ,64,4181481383029 ,42,8777900192871 ,72,6296944007556
6.250683 ,Left ,64,4533536058172 ,42,8460159819039 ,72,6884929615561
6.2672522 ,Left ,64,482535705205 ,42,7574228784612 ,72,7313536517994
6.2884437 ,Left ,64,5044365662564 ,42,5998453264131 ,72,7773414103682
6.3057631 ,Left ,64,5353060235377 ,42,4150782190796 ,72,8177861795451
6.3275404 ,Left ,64,5074707499819 ,42,231575161719 ,72,8546558914996
6.3500439 ,Left ,64,4442201656583 ,42,0519833214082 ,72,897740106146
6.3554801 ,Left ,64,4308939706491 ,41,886242789663 ,72,9667150907561
6.3717083 ,Left ,64,4951330618788 ,41,7820199980859 ,72,9754322546774
6.3925982 ,Left ,64,5326724996743 ,41,7619035261653 ,72,9935109617974
6.4152608 ,Left ,64,5785295787541 ,41,8663027705529 ,72,9993355378811
6.4316046 ,Left ,64,5490805335235 ,41,9960142501713 ,73,0085968311106
6.4526748 ,Left ,64,5847115430239 ,42,1026715212829 ,73,0177065806098
6.4751483 ,Left ,64,6528810373734 ,42,2207798251593 ,73,0547006039911
6.4917852 ,Left ,64,6544051537605 ,42,3091632283376 ,73,0991929541222
6.512824 ,Left ,64,6754243904247 ,42,3764635217814 ,73,1449260527754
6.5352043 ,Left ,64,7073544254519 ,42,4266058594591 ,73,1846452902617
6.5515292 ,Left ,64,7027760836658 ,42,4612949345343 ,73,2247940596086
6.5728213 ,Left ,64,7149177027339 ,42,4882771265366 ,73,2763541763364
6.5957288 ,Left ,64,727543208052 ,42,5019485678214 ,73,3374952972568
6.6103911 ,Left ,64,7455431388443 ,42,5053454340337 ,73,3866415233068
6.6328451 ,Left ,64,7247280045254 ,42,461967709439 ,73,4592390209137
6.6550449 ,Left ,64,7919291684313 ,42,478305577953 ,73,5383025000318
6.6714923 ,Left ,64,7483818177911 ,42,3253345184082 ,73,6265731295103
6.6927168 ,Left ,64,7816463065545 ,42,1667791028274 ,73,6267773731336
6.7151667 ,Left ,64,8495282643054 ,42,0637391608012 ,73,5905755632368
6.7315717 ,Left ,64,9758388581533 ,41,9899559681484 ,73,5247856736097
6.752671 ,Left ,65,070419329637 ,41,9115555680382 ,73,4566557109525
6.7751385 ,Left ,65,1536298566049 ,41,8255291702031 ,73,3933173062297
6.7916491 ,Left ,65,2086996473943 ,41,7394998137328 ,73,3091517226861
6.8129071 ,Left ,65,2275964679739 ,41,6178534626737 ,73,2296324892962
6.8352119 ,Left ,65,2016723698015 ,41,4999920092273 ,73,1625066048923
6.8515968 ,Left ,65,1717737194511 ,41,3094075405812 ,73,1318633454253
6.8726639 ,Left ,65,2042920595494 ,41,0947657897304 ,73,143057493291
6.8955342 ,Left ,65,2105000479985 ,41,0148106184303 ,73,1836026877078
6.9120022 ,Left ,65,1426324631069 ,41,057643852614 ,73,207583498346
6.9331732 ,Left ,65,0408995733986 ,41,252552706779 ,73,2801296554054
6.9551503 ,Left ,65,092452529358 ,41,4015236954284 ,73,3074258514413
6.9733144 ,Left ,65,0934503028967 ,41,553122549233 ,73,3330015701026
6.993011 ,Left ,65,0359085422741 ,41,6777485336328 ,73,3517561712967
7.0153221 ,Left ,64,9756999173724 ,41,7620322029617 ,73,3574734797773
7.0330996 ,Left ,64,9348058178252 ,41,7967973408843 ,73,3625435845738
7.0527836 ,Left ,64,9168101908205 ,41,7889408981652 ,73,3769864093674
7.0751836 ,Left ,64,8467597300653 ,41,7891017592694 ,73,4341284559376
7.0916557 ,Left ,64,7830556989578 ,41,7796092389703 ,73,4484454676689
7.1122947 ,Left ,64,7842972267994 ,41,7059982339223 ,73,4511031399854
7.1350553 ,Left ,64,8354749280016 ,41,6922331433883 ,73,5030335080533
7.1514652 ,Left ,64,815819320319 ,41,8025895472763 ,73,5522995613798
7.1725631 ,Left ,64,7704574270771 ,41,9537320251505 ,73,5839083860714
7.1950388 ,Left ,64,8810175340004 ,42,0896175204699 ,73,5817525295939
7.2131852 ,Left ,65,0010765563839 ,42,1961977181148 ,73,585341114579
7.2326766 ,Left ,65,0174679634957 ,42,2636463253978 ,73,6040544420765
7.2553235 ,Left ,65,0054239314813 ,42,3069010884999 ,73,6218098698865
7.2733127 ,Left ,65,0074480895421 ,42,3407442090597 ,73,633247409313
7.2927207 ,Left ,65,0224347960744 ,42,3622665739844 ,73,6164447206964
7.3149651 ,Left ,65,0454927336553 ,42,3269842044528 ,73,6004719037025
7.3331143 ,Left ,65,0710941939328 ,42,2504652016593 ,73,6027574565108
7.3527621 ,Left ,65,0867294827679 ,42,1911936316037 ,73,6153363222168
7.375008 ,Left ,65,0827795469057 ,42,1759580183897 ,73,626821890731
7.3930321 ,Left ,65,1151726359982 ,42,1939145608329 ,73,6234323179373
7.4126925 ,Left ,65,1629656358801 ,42,2345728555055 ,73,614070971161
7.4352244 ,Left ,65,1877538435257 ,42,2908898676332 ,73,6075276904619
7.4529776 ,Left ,65,1992610033637 ,42,3536257785028 ,73,5828845746422
7.4726132 ,Left ,65,2020466363239 ,42,4293098912549 ,73,5468265739118
7.4951044 ,Left ,65,17396823565 ,42,5122510047273 ,73,498637105567
7.5131557 ,Left ,65,1287864672876 ,42,5744194289138 ,73,4293855349632
7.5328912 ,Left ,65,0386641471176 ,42,5786579662314 ,73,3805776475439
7.5552791 ,Left ,64,952803325276 ,42,5051435778548 ,73,3485030168703
7.5778742 ,Left ,64,9112191613855 ,42,3547289265758 ,73,2998909780132
7.5928835 ,Left ,64,8375687602265 ,42,247346045062 ,73,2689115046341
7.6153845 ,Left ,64,7914724651174 ,42,178814970814 ,73,2369329717304
7.6376535 ,Left ,64,7786945149499 ,42,1631475155279 ,73,1953819586957
7.6525362 ,Left ,64,7672277109506 ,42,1682670520028 ,73,1538933084379
7.6752075 ,Left ,64,7661781879942 ,42,273401586071 ,73,1057450906333
7.6977796 ,Left ,64,7459926177428 ,42,4655866392562 ,73,0284105881105
7.7128643 ,Left ,64,7835556134297 ,42,4908511870157 ,72,9816546485859
7.7352501 ,Left ,64,7968252457816 ,42,3708235405238 ,73,0495305432083
7.7576161 ,Left ,64,8084360051453 ,42,3419003941256 ,73,2110191216368
7.775668 ,Left ,64,8186875746246 ,42,4702996364129 ,73,298304593363
7.7951523 ,Left ,64,8277555975616 ,42,4849428464858 ,73,338877796743
7.817662 ,Left ,64,8635694088309 ,42,3675280150191 ,73,3809562189401
7.832964 ,Left ,64,8666223158708 ,42,2168666908145 ,73,4362196621089
7.8551805 ,Left ,64,8774479414606 ,42,0420155960017 ,73,497391639044
7.8777298 ,Left ,64,8685307799001 ,41,9117441023827 ,73,5554572821642
7.8941083 ,Left ,64,8165811445513 ,41,8481119693182 ,73,5764649549983
7.9150337 ,Left ,64,6869724034266 ,41,7133327932554 ,73,6435051919753
7.9375592 ,Left ,64,6016751777521 ,41,5481519666173 ,73,7947594677626
7.9540488 ,Left ,64,5708706884846 ,41,570907322745 ,73,9311500869642
7.9752574 ,Left ,64,5079942955062 ,41,777608638267 ,73,94254580629
7.9980993 ,Left ,64,5126053989951 ,41,9658050938823 ,73,909479326868
8.0142482 ,Left ,64,5618547195193 ,42,062081051506 ,73,8755150346819
8.0353701 ,Left ,64,5511439251165 ,42,1217039963484 ,73,8626519227546
8.0578513 ,Left ,64,5522024657437 ,42,2496525024158 ,73,8382100521136
8.0743337 ,Left ,64,5194349937853 ,42,3515470718087 ,73,8160924643548
8.095485 ,Left ,64,4443449491288 ,42,356038612466 ,73,813380313042
8.1178785 ,Left ,64,4214688937214 ,42,2326634361436 ,73,8303971138936
8.1341417 ,Left ,64,4348365209033 ,42,0712151475651 ,73,8249533606204
8.1553831 ,Left ,64,4043021601735 ,41,9502622621923 ,73,7808320179624
8.1779607 ,Left ,64,3692157462432 ,41,8674818419723 ,73,7226488463287
8.1956675 ,Left ,64,3584715588712 ,41,8068044822615 ,73,652136883341
8.2154192 ,Left ,64,3598839865655 ,41,7080974967862 ,73,6048526379558
8.2378514 ,Left ,64,3873181775907 ,41,6331518753563 ,73,562477746342
8.2557061 ,Left ,64,3767669956798 ,41,600127867733 ,73,5170060158382
8.2755011 ,Left ,64,3057119227096 ,41,6044423226198 ,73,4838436857582
8.2976918 ,Left ,64,274082179944 ,41,609522283846 ,73,4552263111524
8.3158943 ,Left ,64,2650735487281 ,41,5966038538249 ,73,4330126885947
8.335476 ,Left ,64,2474739823205 ,41,5852773387948 ,73,4096193911773
8.3574328 ,Left ,64,2033655953786 ,41,5749620814395 ,73,3851098733421
8.3753635 ,Left ,64,1660563231163 ,41,5649045870292 ,73,3586708925366
8.3949708 ,Left ,64,1496723756268 ,41,5660543368509 ,73,3356305119554
8.4174627 ,Left ,64,0938533224179 ,41,5805813031697 ,73,3159968532014
8.4354043 ,Left ,64,029697519182 ,41,6021424445052 ,73,3069916844743
8.4551545 ,Left ,64,012677130308 ,41,6131943076308 ,73,2866191369571
8.4776692 ,Left ,63,9858881254697 ,41,6106314615236 ,73,2645004321901
8.4957687 ,Left ,63,9860100600854 ,41,6076235152767 ,73,2401634799091
8.5152705 ,Left ,63,9962841072446 ,41,6199291404147 ,73,1979866910348
8.5379171 ,Left ,64,0012484188809 ,41,6367909884281 ,73,1427641207721
8.5558732 ,Left ,64,0332682765331 ,41,6472894437285 ,73,0805344785534
8.575265 ,Left ,64,0622493661488 ,41,6458186271177 ,73,0415080450916
8.5984686 ,Left ,64,0755808240223 ,41,6410469062365 ,73,0257513873621
8.6127189 ,Left ,64,0848807328048 ,41,6345280972492 ,73,032288499445
8.635255 ,Left ,64,1603390882551 ,41,6242877847352 ,72,9954301899408
8.6579358 ,Left ,64,2532288559925 ,41,814335049442 ,72,9302229821868
8.6728902 ,Left ,64,3188993895916 ,41,886472247568 ,72,8658900471478
8.6952596 ,Left ,64,5492255104401 ,41,9063800926479 ,72,7078225294826
8.7178097 ,Left ,64,3470766607059 ,41,8257666081921 ,72,7504322270411
8.7329988 ,Left ,64,3422108632088 ,41,9378477080736 ,72,7025006652795
8.7551715 ,Left ,64,4814362597484 ,41,9992262762321 ,72,5708735348593
8.7775324 ,Left ,64,213321156963 ,42,0006453544982 ,72,6649190297533
8.792774 ,Left ,64,1083239672967 ,42,1390747304164 ,72,7025494735299
8.8150149 ,Left ,64,0911746660616 ,42,1873387356783 ,72,7100785825669
8.8378629 ,Left ,64,0917567804682 ,42,2404869479539 ,72,7417723924861
8.8524471 ,Left ,64,1276570984225 ,42,2690962512684 ,72,7893136375534
8.8750277 ,Left ,64,126992068245 ,42,274449066485 ,72,8497233173992
8.8977668 ,Left ,64,1188238191882 ,42,2590410131473 ,72,9258652934207
8.9127059 ,Left ,64,0943211552324 ,42,1981079889086 ,73,0192287133156
8.9350063 ,Left ,63,9530919969665 ,42,0195945587859 ,73,1923436743993
8.9575736 ,Left ,63,8977173543178 ,41,9129143719795 ,73,3643037654845
8.9727659 ,Left ,63,9637744226285 ,42,0817061997888 ,73,4950697025018
8.9951296 ,Left ,64,0572326307541 ,42,2658693275764 ,73,5939741471937
9.01764 ,Left ,64,1568677022184 ,42,4444185558168 ,73,67190719058
9.0326197 ,Left ,64,2821173067264 ,42,5834701402353 ,73,7606818488159
9.0552292 ,Left ,64,3599008674695 ,42,6847408767277 ,73,8564281566772
9.0779255 ,Left ,64,4091541269554 ,42,7464434968184 ,73,9652202263906
9.0928202 ,Left ,64,4780088788825 ,42,7768779716625 ,74,083805661458
9.1155338 ,Left ,64,5450822764701 ,42,784204984914 ,74,1961594351378
9.1378597 ,Left ,64,6273046668881 ,42,7846593979292 ,74,2701197221829
9.1529887 ,Left ,64,6787013175765 ,42,7583179239637 ,74,320898266369
9.1754847 ,Left ,64,7302586280802 ,42,7154308450798 ,74,3530911234902
9.1979212 ,Left ,64,7844435017653 ,42,642930742089 ,74,3701711043584
9.2143175 ,Left ,64,8469027426832 ,42,5361721025268 ,74,368433034161
9.2353238 ,Left ,64,8980195201637 ,42,4310000076947 ,74,3429915231726
9.258078 ,Left ,64,9032526413895 ,42,3499920611971 ,74,294701626884
9.2743082 ,Left ,64,8722577361601 ,42,2871607286779 ,74,2424716143414
9.2952412 ,Left ,64,8442429586126 ,42,218018226793 ,74,1825280413035
9.3191589 ,Left ,64,8131324846003 ,42,1154563621685 ,74,1331000999612
9.3342068 ,Left ,64,7367562670657 ,41,9840762174224 ,74,1210733160371
9.3551765 ,Left ,64,6381523401979 ,41,8253939766939 ,74,1504744272621
9.3778188 ,Left ,64,5845335673628 ,41,7010882585438 ,74,1916988096692
9.3941396 ,Left ,64,5400900125028 ,41,6219860088488 ,74,1812179580894
9.4150669 ,Left ,64,5643524934335 ,41,5330459625877 ,74,2017520314071
9.4377066 ,Left ,64,6057611119336 ,41,6210236325481 ,74,2242589739611
9.4540285 ,Left ,64,4911568130129 ,41,7485587214366 ,74,2359818723313
9.475293 ,Left ,64,4574426803575 ,41,7990275600251 ,74,220786714993
9.4979233 ,Left ,64,5048274514342 ,41,8484496122712 ,74,2100480751267
9.5158071 ,Left ,64,4992982069953 ,41,8688201843503 ,74,2248926612472
9.5380765 ,Left ,64,4167335342231 ,41,8512956109375 ,74,2749190599623
9.5578608 ,Left ,64,4294806192732 ,41,8323917384639 ,74,314978194891
9.5816054 ,Left ,64,4288115355326 ,41,8653796538204 ,74,3449222544344
9.5980694 ,Left ,64,3864193329631 ,41,9715271113616 ,74,4233247091046
9.6176243 ,Left ,64,3804134306115 ,42,1362031698065 ,74,4735127231461
9.635605 ,Left ,64,3328697076317 ,42,3021334631012 ,74,4621248637863
9.6581026 ,Left ,64,3230328597887 ,42,4965136387735 ,74,4303238573982
9.6779035 ,Left ,64,3322851310995 ,42,6392152715757 ,74,3936650365325
9.7030975 ,Left ,64,3349424038196 ,42,7123913599065 ,74,3879312477405
9.7180491 ,Left ,64,2428345778873 ,42,7588802850889 ,74,4463815732911
9.7391262 ,Left ,64,187310570227 ,42,7524549280992 ,74,5096111314527
9.7556023 ,Left ,64,2452509988097 ,42,7101300342515 ,74,5438328777605
9.7780541 ,Left ,64,2750924472776 ,42,6984072040338 ,74,5930805017647
9.7992971 ,Left ,64,3197193369459 ,42,775212769834 ,74,5994606080058
9.8157614 ,Left ,64,3478242731387 ,42,8749881496543 ,74,5631852755799
9.8380416 ,Left ,64,4203453437106 ,42,9574748705287 ,74,5007020546195
9.8609341 ,Left ,64,5444206483601 ,43,0327665745353 ,74,4513696218804
9.8815561 ,Left ,64,6176730806985 ,43,0302046540097 ,74,4265481407506
9.8973777 ,Left ,64,7135999058152 ,42,9958685372915 ,74,4050603350171
9.9184382 ,Left ,64,778083679812 ,42,9848581838589 ,74,3646559728497
9.9411338 ,Left ,64,8222883621994 ,43,002271666889 ,74,3175100040446
9.9573989 ,Left ,64,8757830208395 ,43,0226980719521 ,74,2324940462586
9.9783422 ,Left ,64,9179083223097 ,43,0356241706595 ,74,1455815078345
9.9948055 ,Left ,64,9593556806406 ,43,0717654888205 ,74,0766520508028
10.0173476 ,Left ,64,9507164099049 ,43,128263568611 ,74,0315119707293
10.0383641 ,Left ,64,9180645530573 ,43,1587059743467 ,73,9981834277821
10.0547056 ,Left ,64,8937111350655 ,43,1554176487167 ,73,9832957218717
10.0772637 ,Left ,64,8726436734326 ,43,1182476630552 ,73,9819196731489
10.0998356 ,Left ,64,8246762180734 ,43,0859192125574 ,73,978166088169
10.1140515 ,Left ,64,7661390504548 ,43,0883735635563 ,73,9796288148165
10.136952 ,Left ,64,703161334092 ,43,1017947512503 ,73,9905366989883
10.159585 ,Left ,64,6467187696335 ,43,044530706164 ,74,01423804234
10.1739356 ,Left ,64,6482617386523 ,42,9849039415881 ,74,111819777305
10.1973546 ,Left ,64,6595087497995 ,43,08449509606 ,74,1361693436542
10.2197661 ,Left ,64,6946709034831 ,43,1672487909432 ,74,1317778531492
10.2407993 ,Left ,64,8560870003834 ,43,1592852832915 ,74,1139315303822
10.2573949 ,Left ,64,9034769688634 ,43,0844595381446 ,74,1164740245769
10.2797782 ,Left ,64,9130552174881 ,42,9864447215072 ,74,1211213953772
10.3008946 ,Left ,64,9106773722267 ,42,8208369338675 ,74,1353856944559
10.3171867 ,Left ,64,9257842382568 ,42,6910438420269 ,74,1391100542167
10.3396478 ,Left ,64,8926081689484 ,42,6398015769872 ,74,1171453217923
10.3607934 ,Left ,64,8182246928916 ,42,5089219444242 ,74,1391639734272
10.3772158 ,Left ,64,7782592008832 ,42,3395580136483 ,74,258124964844
10.3997508 ,Left ,64,802860012915 ,42,4057393224511 ,74,3269514962963
10.4206708 ,Left ,64,725196100983 ,42,6069177651545 ,74,3427721459794
10.4369689 ,Left ,64,6914613164744 ,42,7809686427227 ,74,3523027128933
10.4595507 ,Left ,64,7378025436197 ,42,8483617783247 ,74,3759820998805
10.480678 ,Left ,64,7630692495545 ,42,8871896343067 ,74,3952556104342
10.4972915 ,Left ,64,7499388255018 ,42,8985706111384 ,74,4091570862642
10.5194766 ,Left ,64,7794836079382 ,42,8556762804199 ,74,4006325931333
10.540646 ,Left ,64,8278680927573 ,42,7440308206376 ,74,3685383933058
10.557135 ,Left ,64,8669397217123 ,42,5825140556896 ,74,3322863575411
10.5797733 ,Left ,64,8612805137448 ,42,4346041514064 ,74,2989028042639
10.6007214 ,Left ,64,8553892694297 ,42,298181458919 ,74,2589096527782
10.6171902 ,Left ,64,8841133843585 ,42,1668105874688 ,74,1948296839683
10.6400254 ,Left ,64,9319022381055 ,42,0519145677834 ,74,1407152690563
10.6607404 ,Left ,64,9527378804001 ,41,9593432932301 ,74,1040738127252
10.6773028 ,Left ,64,9947253016853 ,41,873178841752 ,74,0957065786772
10.6998374 ,Left ,65,0363623648806 ,41,8458977370704 ,74,1087722718606
10.7206659 ,Left ,64,9908453771146 ,41,9332037841486 ,74,1413747434733
10.7373413 ,Left ,65,019436663606 ,41,7919667046843 ,74,098916834562
10.7598661 ,Left ,65,1746202470253 ,41,7837422704853 ,74,0253317936536
10.7806197 ,Left ,65,3231744731318 ,41,8557202022702 ,73,9579660731556
10.7972841 ,Left ,65,4334680775497 ,41,9512599009127 ,73,8971256621587
10.8196479 ,Left ,65,484112726985 ,42,0567594783122 ,73,8462159098651
10.8410334 ,Left ,65,5047152026472 ,42,1715938468436 ,73,7985476566714
10.8572455 ,Left ,65,5516878592165 ,42,2785041741536 ,73,7459744293812
10.8797965 ,Left ,65,6014693041499 ,42,3707524428175 ,73,714817934059
10.9008401 ,Left ,65,6668979484702 ,42,471760537777 ,73,6745462796838
10.9172814 ,Left ,65,7334039097466 ,42,5582595502631 ,73,6233629752208
10.9399152 ,Left ,65,80015882599 ,42,642267651791 ,73,5483737237902
10.9623506 ,Left ,65,8701427554897 ,42,7096642647834 ,73,4657074875516
10.9767429 ,Left ,65,935106597777 ,42,756621144963 ,73,3814232963805
11.0012492 ,Left ,65,7721995395983 ,42,7676803669262 ,73,3930138718021
11.0222823 ,Left ,65,686200576891 ,42,7359773191321 ,73,3703243522471
11.043392 ,Left ,65,5781722436639 ,42,7423756915882 ,73,3557776069347
11.0575525 ,Left ,65,4667732306105 ,42,7665829943182 ,73,3337026638878
11.0802677 ,Left ,65,3217957981191 ,42,7935499803759 ,73,3278725123241
11.0966654 ,Left ,65,1738515662404 ,42,5983565402152 ,73,3230290760404
11.1190778 ,Left ,65,1484963008824 ,42,5887113012388 ,73,2826961483692
11.1402127 ,Left ,64,8511486250161 ,42,554047766424 ,73,3667743700113
11.1568039 ,Left ,64,8580814518249 ,42,7311923763576 ,73,3521642853777
11.1791231 ,Left ,64,9436789776006 ,42,8104146248968 ,73,3226444154284
11.2004945 ,Left ,64,6571676853203 ,42,8397637472876 ,73,4685927067672
11.2166316 ,Left ,64,8588139220691 ,42,9984150988137 ,73,4212145749268
11.2477793 ,Left ,64,9085622045501 ,42,8717103416078 ,73,4216154375781
11.2607906 ,Left ,64,9053510370951 ,42,8328511220369 ,73,4516626900289
11.2769702 ,Left ,64,9526357158803 ,42,8006111615501 ,73,4970153903506
11.2994442 ,Left ,64,9724555231292 ,42,7456101936064 ,73,5787799658688
11.3202175 ,Left ,65,0526212913368 ,42,7681632519521 ,73,6894341349421
11.3367178 ,Left ,65,0598240833356 ,42,8545776354709 ,73,7921539826989
11.3591732 ,Left ,65,1456171512193 ,42,9062200740278 ,73,8578778954399
11.3801171 ,Left ,65,239373077609 ,42,8316456857562 ,73,9175679307553
11.3967329 ,Left ,65,3542785960423 ,42,9006287786625 ,73,940564603608
11.4191724 ,Left ,65,4319272816565 ,43,0004045075151 ,73,9851714407953
11.4405848 ,Left ,65,4798227981554 ,43,0180943558884 ,74,0200157485126
11.4566362 ,Left ,65,476367553044 ,42,9928884365876 ,74,0622178716924
11.4791174 ,Left ,65,4614737065453 ,42,9191284372613 ,74,1115122217309
11.5004387 ,Left ,65,4359340046338 ,42,8096591361483 ,74,1564516839718
11.5167116 ,Left ,65,428371251576 ,42,665422887011 ,74,1811702201924
11.5391585 ,Left ,65,4106036941589 ,42,5375802141405 ,74,1924056134683
11.5599633 ,Left ,65,3660139762389 ,42,4309319833271 ,74,199984112334
11.5766189 ,Left ,65,2784962074136 ,42,339246842078 ,74,2435954378795
11.5991882 ,Left ,65,2056317533681 ,42,2809863835931 ,74,307558111139
11.6200378 ,Left ,65,246179356055 ,42,2493728761986 ,74,315618993956
11.63681 ,Left ,65,1768113807231 ,42,1488358972515 ,74,3321381890715
11.6591101 ,Left ,65,2645532000487 ,42,1317834299217 ,74,3585999783107
11.6802276 ,Left ,65,2306232724993 ,42,1882909435253 ,74,352623601185
11.6966356 ,Left ,65,1342500704963 ,42,2641661492404 ,74,3246372330279
11.7189482 ,Left ,65,1174658095206 ,42,3586147659079 ,74,324899465868
11.7400479 ,Left ,65,096125978692 ,42,4454084641942 ,74,346531567224
11.7567354 ,Left ,65,0358095054534 ,42,4730952303773 ,74,376925522466
11.779158 ,Left ,64,995352664556 ,42,4608586690607 ,74,4500159279938
11.8001591 ,Left ,64,9421852906685 ,42,4976741155351 ,74,5738516345259
11.8167496 ,Left ,64,9504119447084 ,42,6838426016291 ,74,6274142868675
11.8383706 ,Left ,64,8890451409669 ,42,9266798047619 ,74,6476023383492
11.86076 ,Left ,64,873993512103 ,43,134158958361 ,74,671343173879
11.875873 ,Left ,64,9065129658622 ,43,3073710430279 ,74,6931134204026
11.8982405 ,Left ,64,8916624638506 ,43,3989939200258 ,74,7252958361636
11.9206685 ,Left ,64,8181751331831 ,43,426790557402 ,74,7808541247898
11.9431229 ,Left ,64,7569904288093 ,43,4052985081506 ,74,8416231254864
11.9590415 ,Left ,64,6930196347318 ,43,3374339927413 ,74,9182429578385
11.9826487 ,Left ,64,6618623590296 ,43,2602681774076 ,74,9855138340317
12.0048436 ,Left ,64,6623359110864 ,43,1279637982846 ,75,0395369902673
12.0189882 ,Left ,64,7211473739472 ,42,9660678786394 ,75,0678940346797
12.042279 ,Left ,64,8647292527408 ,42,9406666537665 ,75,1515655720649
12.0646397 ,Left ,64,8146800151071 ,43,1163417745492 ,75,2083590619223
12.0790408 ,Left ,64,7064390734039 ,43,3061749394246 ,75,2433686007294
12.1022992 ,Left ,64,8101320810812 ,43,4207391008444 ,75,2370045924772
12.1249065 ,Left ,64,9416288790736 ,43,4377641973885 ,75,2688076482013
12.1392364 ,Left ,65,0207481509986 ,43,4048528804416 ,75,2962290233096
12.1622881 ,Left ,65,062766681134 ,43,3534538773644 ,75,3008905964388
12.1848575 ,Left ,65,1393302707667 ,43,3232457476125 ,75,2496243996903
12.1992902 ,Left ,65,2225198018458 ,43,281849373491 ,75,1462799958718
12.2223466 ,Left ,65,2772101388155 ,43,216724925014 ,75,0283414605484
12.2447694 ,Left ,65,337991733643 ,43,160031417927 ,74,9226598517723
12.2594078 ,Left ,65,3567763723979 ,43,1433258999098 ,74,8267221885052
12.2823425 ,Left ,65,370943756212 ,43,1647777372439 ,74,7217442476517
12.3047776 ,Left ,65,3769229883679 ,43,1924108918364 ,74,6274676838955
12.3259486 ,Left ,65,373822518733 ,43,2243304391266 ,74,5773315512399
12.3423398 ,Left ,65,3488622643613 ,43,2621714233793 ,74,5299887640256
12.3648089 ,Left ,65,3050593567009 ,43,3328164021139 ,74,4981613327404
12.3791746 ,Left ,65,2504193442477 ,43,422126009061 ,74,4423292956368
12.4022835 ,Left ,65,2036385999125 ,43,4322519022863 ,74,3753243743084
12.4248928 ,Left ,65,1828197715393 ,43,283921735581 ,74,3618595643458
12.4393996 ,Left ,65,1133630810465 ,43,1284853917552 ,74,4465485424059
12.4623182 ,Left ,65,0810462949617 ,43,1553727707724 ,74,4839100027898
12.484779 ,Left ,64,9907744095124 ,43,2343771866553 ,74,4654437929283
12.5059208 ,Left ,65,0100160437591 ,43,2346861957039 ,74,4366953205763
12.5225878 ,Left ,65,004921850556 ,43,0942699029036 ,74,4156584903683
12.5447339 ,Left ,65,0615150370933 ,42,900291236348 ,74,3963925348134
12.5660111 ,Left ,65,0706933112721 ,42,6764249514273 ,74,4135131960023
12.5825723 ,Left ,65,0344485974311 ,42,4999458312457 ,74,4557908851716
12.6044676 ,Left ,64,9569434229041 ,42,4022734534944 ,74,4884002273014
12.6258592 ,Left ,64,8448004841248 ,42,2508199540242 ,74,5564539560294
12.6423234 ,Left ,64,777777543119 ,42,1509988045592 ,74,665957426142
12.6647501 ,Left ,64,7197908886212 ,42,228731311157 ,74,7906867918062
12.6857587 ,Left ,64,7232580722452 ,42,4578744701396 ,74,8762183312311
12.7020524 ,Left ,64,7026750775436 ,42,6612918858615 ,74,9447955281787
12.7247455 ,Left ,64,7193372314397 ,42,7576784573883 ,74,9898309075918
12.7459366 ,Left ,64,7627539130821 ,42,7776183859038 ,75,0194938881007
12.7622885 ,Left ,64,7939056082916 ,42,803317721942 ,75,0367932160718
12.7847681 ,Left ,64,7953776505266 ,42,7982764581791 ,75,0464397393997
12.8059982 ,Left ,64,8314681909128 ,42,7324669240703 ,75,0408111883801
12.8225356 ,Left ,64,891382272903 ,42,6163691901369 ,75,0310334690872
12.8447008 ,Left ,64,9327223478102 ,42,4718218123444 ,75,0033207851048
12.8659821 ,Left ,64,9742323249551 ,42,3243086057141 ,74,9460776163101
12.8817546 ,Left ,64,97508228806 ,42,1994860445435 ,74,8909775074065
12.9109659 ,Left ,64,9713776796488 ,42,0954587391828 ,74,8442053202613
12.9259149 ,Left ,65,0232576350341 ,42,019347229152 ,74,7930481953579
12.9416578 ,Left ,65,0829724194853 ,41,9344831692503 ,74,7596102365065
12.9648123 ,Left ,65,1401316396478 ,41,8867067301711 ,74,7649811894203
12.9874476 ,Left ,65,1510959577714 ,41,9295558735535 ,74,7591814107052
13.0017185 ,Left ,65,0894777375534 ,41,9783315013159 ,74,7704345888556
13.0245395 ,Left ,65,0705174548128 ,42,0236342934714 ,74,7788875895196
13.0473227 ,Left ,65,0370672328517 ,42,0470510195564 ,74,7831387452176
13.0622709 ,Left ,64,9712115498809 ,42,0461390899439 ,74,7864932056679
13.0847616 ,Left ,64,9133508473101 ,42,0539877763093 ,74,7977987884524
13.107186 ,Left ,64,8363645173029 ,42,0659474866866 ,74,8156873343153
13.1216798 ,Left ,64,7570554958339 ,42,0588006074088 ,74,8424553046034
13.1446 ,Left ,64,6410875965485 ,42,0880395283065 ,74,905301252046
13.1672124 ,Left ,64,6459013956816 ,42,1469870826294 ,74,9194079238885
13.1817812 ,Left ,64,4453706437725 ,42,1132382802578 ,75,0066881187767
13.2047907 ,Left ,64,3677926105177 ,41,9186086744821 ,75,0145882294372
13.2273669 ,Left ,64,383118876733 ,41,7103372735969 ,74,9546372830993
13.2416531 ,Left ,64,4606680160858 ,41,5487850969 ,74,8460723911558
13.2648216 ,Left ,64,5533610134989 ,41,4329238258164 ,74,7082582180164
13.2873068 ,Left ,64,6586929280085 ,41,3555602883669 ,74,5642599496379
13.301792 ,Left ,64,7663767531066 ,41,3117411922481 ,74,429298771926
13.3248098 ,Left ,64,8674141914719 ,41,2960276596235 ,74,2933228329832
13.347073 ,Left ,64,9780438365114 ,41,2868995081462 ,74,1540373402421
13.3614248 ,Left ,65,0769093190263 ,41,2964607996105 ,74,0139592434216
13.3847223 ,Left ,65,183857039681 ,41,3304420301308 ,73,8763372069593
13.407338 ,Left ,65,2806118489103 ,41,3802446075519 ,73,745760332704
13.4216428 ,Left ,65,3655282985673 ,41,4490982233738 ,73,647995027186
13.4448056 ,Left ,65,3117606061665 ,41,544394410743 ,73,6331440822861
13.467366 ,Left ,65,2566118800765 ,41,6949116419542 ,73,6529833198144
13.488364 ,Left ,65,2095360020842 ,41,8453046971895 ,73,6712506496082
13.5048655 ,Left ,65,1883645766431 ,41,9573035501077 ,73,6911989237278
13.5274839 ,Left ,65,1886606453022 ,41,9977539445202 ,73,7286574298156
13.5499237 ,Left ,65,2191782636723 ,42,0149518747055 ,73,7592942802753
13.5649072 ,Left ,65,1987061683235 ,42,0480658623539 ,73,8104656232264
13.5880289 ,Left ,65,1919463086043 ,42,1217494087466 ,73,8779732860203
13.6086607 ,Left ,65,226901654448 ,42,133996076511 ,74,0073367666792
13.6249592 ,Left ,65,2903844388617 ,42,2430865033172 ,74,1661430995705
13.6474194 ,Left ,65,3337658347473 ,42,440324998652 ,74,3144036366202
13.6686258 ,Left ,65,5052902099808 ,42,6375319520854 ,74,4259307051554
13.6848513 ,Left ,65,7251573344082 ,42,7765927256272 ,74,5385321958287
13.7073517 ,Left ,65,8752899421563 ,42,9056460310022 ,74,6657015585656
13.7287195 ,Left ,65,9872389348479 ,43,0238221220538 ,74,8068625068441
13.745055 ,Left ,66,1021138835349 ,43,0795783413496 ,74,9288227756308
13.7674577 ,Left ,66,2751692212416 ,43,0561103545778 ,75,0485038609473
13.788654 ,Left ,66,4311211096176 ,42,9849721191785 ,75,1642882678561
13.8056389 ,Left ,66,5313663018922 ,42,876482570978 ,75,2676663663594
13.8274138 ,Left ,66,6230586336618 ,42,7684533226536 ,75,3268106291626
13.8487036 ,Left ,66,6952513028972 ,42,680367817612 ,75,3145005009635
13.8642767 ,Left ,66,7540774609741 ,42,6004091418341 ,75,2383153728879
13.8874222 ,Left ,66,7536265358285 ,42,5180098699869 ,75,1330310766124
13.9098148 ,Left ,66,7338013175332 ,42,4223343647641 ,75,0187513589191
13.9239485 ,Left ,66,6691693896475 ,42,2999782293511 ,74,9120146385517
13.9473185 ,Left ,66,5470769513332 ,42,1360748110909 ,74,8263119953127
13.969859 ,Left ,66,38159230225 ,41,9149381384951 ,74,8027119274811
13.9840207 ,Left ,66,2297684909527 ,41,771190614125 ,74,8173217093379
14.007346 ,Left ,66,1605143923937 ,41,7335367639451 ,74,7657116799695
14.0301874 ,Left ,66,1044189215772 ,41,6219912204283 ,74,7432673696793
14.0441757 ,Left ,66,1864971663916 ,41,6647572901929 ,74,7506771639269
14.0675039 ,Left ,66,0270646208759 ,41,763740832752 ,74,7510332677015
14.0899497 ,Left ,65,8970028047872 ,41,8985370371291 ,74,7287188726539
14.104126 ,Left ,65,9049374201853 ,41,9756495381889 ,74,7495877392794
14.1274129 ,Left ,65,9034326345429 ,42,0168867998342 ,74,8156547950295
14.1498663 ,Left ,65,8674380298983 ,42,0026934028098 ,74,8958544389263
14.1712916 ,Left ,65,7852647049841 ,41,9640132076795 ,74,9907894462457
14.1877544 ,Left ,65,7713281614537 ,41,9991258677541 ,75,1027089513467
14.2101793 ,Left ,65,777932413681 ,42,126007217857 ,75,1659885735119
14.2310792 ,Left ,65,8365145058369 ,42,3227103079678 ,75,1806779093336
14.2473121 ,Left ,65,8337081455949 ,42,5067144821859 ,75,183046203107
14.2698927 ,Left ,65,8749873005535 ,42,6945374459919 ,75,2114732328484
14.2908569 ,Left ,65,9140864537427 ,42,8373726953928 ,75,2250712160884
14.3072231 ,Left ,65,8651925516252 ,42,9223678177273 ,75,2485127324216
14.329801 ,Left ,65,7898901350328 ,42,9657780914636 ,75,2839387945229
14.350888 ,Left ,65,6937078457748 ,42,999113633119 ,75,3598931763246
14.3673314 ,Left ,65,5425188054368 ,43,015463867024 ,75,4531567174815
14.3897676 ,Left ,65,4897385115738 ,42,9021497796781 ,75,5094428873167
14.4183445 ,Left ,65,5471395385307 ,42,8142389867884 ,75,5823520838367
14.4274681 ,Left ,65,5096211884196 ,42,8961960284946 ,75,6409104258055
14.4498947 ,Left ,65,4692424643635 ,43,0700403771707 ,75,6587365765206
14.4708186 ,Left ,65,5264532076155 ,43,2590811492666 ,75,6642920720516
14.4874253 ,Left ,65,6350727850275 ,43,4222573035726 ,75,6715059387767
14.5097967 ,Left ,65,7174304200077 ,43,5561491951921 ,75,6716245423137
14.5308218 ,Left ,65,7251330334718 ,43,6392016732442 ,75,6471541364774
14.5473028 ,Left ,65,7428448393723 ,43,6541839745114 ,75,6156877122509
14.5757755 ,Left ,65,7551686604544 ,43,6568506264774 ,75,5667742244178
14.5912487 ,Left ,65,7270305130652 ,43,6346622047155 ,75,5178258793352
14.6076486 ,Left ,65,7075598811713 ,43,5979991280138 ,75,4636977054579
14.6301644 ,Left ,65,6802419710996 ,43,5474134070563 ,75,4162139076248
14.6514463 ,Left ,65,6588393052029 ,43,4835620537487 ,75,380700520375
14.667574 ,Left ,65,6389093361704 ,43,4575036056452 ,75,341835455235
14.6899641 ,Left ,65,6308423515289 ,43,4776177485208 ,75,2667147540523
14.710894 ,Left ,65,6354176237906 ,43,5089899748011 ,75,1750003573586
14.7274943 ,Left ,65,6387057640793 ,43,5673755094422 ,75,0649553465817
14.7498417 ,Left ,65,6420265434659 ,43,6632455786626 ,74,9693438161597
14.770614 ,Left ,65,5491792090375 ,43,7088131998722 ,74,9412085955984
14.7867141 ,Left ,65,4894785967647 ,43,636672418855 ,75,0136633983824
14.8101924 ,Left ,65,483200083778 ,43,5238012745876 ,75,1313428114576
14.8326769 ,Left ,65,4393368078511 ,43,4915650867257 ,75,1786224836993
14.8471263 ,Left ,65,3304329473129 ,43,5017996653373 ,75,2250309878738
14.8697825 ,Left ,65,3813025736965 ,43,4484092478138 ,75,2282560273453
14.8923673 ,Left ,65,463611040487 ,43,2840389790654 ,75,2113439871229
14.9134889 ,Left ,65,5796502425696 ,43,1240875701629 ,75,2294924528752
14.9298405 ,Left ,65,6054250523914 ,43,0226439835509 ,75,2434066101276
14.9521666 ,Left ,65,5631739055024 ,42,9468224978516 ,75,2493242845119
14.9731867 ,Left ,65,5783465219859 ,42,9050719780832 ,75,1857367079625
14.9897348 ,Left ,65,5932299820596 ,42,7955057925252 ,75,1275376361752
15.0120268 ,Left ,65,4772050874115 ,42,6355783474445 ,75,1321994114652
15.0331526 ,Left ,65,4279710644774 ,42,4894657338527 ,75,2297615529603
15.0498293 ,Left ,65,4151387197393 ,42,5269055439353 ,75,3075793433015
15.0722784 ,Left ,65,4667055209376 ,42,703142918482 ,75,3499175585755
15.0934492 ,Left ,65,606040226858 ,42,8786169471509 ,75,348090929219
15.1098294 ,Left ,65,6451460095155 ,42,954183767976 ,75,3336029933909
15.132317 ,Left ,65,6723143508134 ,42,9691421713896 ,75,3151819473825
15.1533889 ,Left ,65,6525447627064 ,43,0384201328558 ,75,2884088526211
15.1698422 ,Left ,65,6107130347047 ,43,0897460203358 ,75,2506582452685
15.1923511 ,Left ,65,552619270024 ,43,0787446927095 ,75,2220903849444
15.2136553 ,Left ,65,498368333344 ,42,95247457692 ,75,2469285150572
15.2298405 ,Left ,65,4940858437216 ,42,7637156616709 ,75,2505588442604
15.2522514 ,Left ,65,4821440630636 ,42,5671544701636 ,75,1882304110564
15.273722 ,Left ,65,4103442558254 ,42,4175035735523 ,75,1194717500802
15.2899132 ,Left ,65,3517524699655 ,42,3040098248727 ,75,0528530178532
15.31249 ,Left ,65,2842459616501 ,42,2029730352982 ,74,9850432136365
15.3332947 ,Left ,65,2598329511117 ,42,1312718008334 ,74,9111854490741
15.3496401 ,Left ,65,2095386687267 ,42,0788616932985 ,74,8432141721719
15.3723079 ,Left ,65,1498099320187 ,42,0352108721539 ,74,7870027612936
15.3933464 ,Left ,65,0759445964539 ,42,0090761171124 ,74,7321775075146
15.4097453 ,Left ,64,9563801438022 ,41,993672298048 ,74,6835309517376
15.4323233 ,Left ,64,8748471890396 ,41,9905028357091 ,74,6206861827058
15.4532358 ,Left ,64,8000953099904 ,41,9829510872684 ,74,5553303975284
15.4698137 ,Left ,64,6925526802273 ,41,9582850895131 ,74,5099773903705
15.4920413 ,Left ,64,5901149009156 ,41,92632751797 ,74,4927512148316
15.5132607 ,Left ,64,5144610435848 ,41,9010822881816 ,74,4846858176607
15.5302464 ,Left ,64,4426501237771 ,41,8958939125139 ,74,4589029858329
15.5524183 ,Left ,64,3624414096004 ,41,8942235508501 ,74,4251289693376
15.573625 ,Left ,64,3000417959912 ,41,8731704148803 ,74,3804206114231
15.5888852 ,Left ,64,2530452760885 ,41,8379652928098 ,74,3358046582379
15.6137006 ,Left ,64,202387707792 ,41,808186433629 ,74,2993324185769
15.6347437 ,Left ,64,1559390376077 ,41,8103958617747 ,74,2685926535443
15.6496074 ,Left ,64,0977990291231 ,41,8370285955296 ,74,2382923011771
15.6724301 ,Left ,64,0679237530979 ,41,8681351838784 ,74,191190043353
15.6949147 ,Left ,64,0389366897832 ,41,9106792538481 ,74,1437910280235
15.7090644 ,Left ,64,0163085717784 ,41,9686327849189 ,74,09168433432
15.7323268 ,Left ,64,0112973194577 ,42,0427328142983 ,74,06850716864
15.7548269 ,Left ,64,0065690814048 ,42,1572414859567 ,74,0631383261944
15.7691189 ,Left ,64,0063737590195 ,42,284992500422 ,74,0660821111604
15.7920937 ,Left ,64,0213429569054 ,42,4062206845226 ,74,0885508343103
15.8146466 ,Left ,64,0676950889652 ,42,51213074272 ,74,1282532530765
15.8291859 ,Left ,64,1122719075185 ,42,5859996495905 ,74,1968148412725
15.8524082 ,Left ,64,1909278207012 ,42,622360710542 ,74,2673665455788
15.8750617 ,Left ,64,3036421908695 ,42,6331264659593 ,74,3192238297711
15.88893 ,Left ,64,3783607038424 ,42,6207332435251 ,74,3865228555697
15.9121663 ,Left ,64,4318675003698 ,42,6679433822088 ,74,4836041746762
15.9345589 ,Left ,64,510617863534 ,42,6774184553364 ,74,5739170673545
15.9491941 ,Left ,64,6078446487513 ,42,6180903546453 ,74,7027295884664
15.9722105 ,Left ,64,6807816651189 ,42,6799233198481 ,74,8197765752802
15.9947717 ,Left ,64,7892790162228 ,42,8600660205445 ,74,871397667571
16.008855 ,Left ,64,9903317198219 ,43,061044218534 ,74,8670007686199
16.032273 ,Left ,65,193405528397 ,43,2253879212782 ,74,8710364602001
16.0549529 ,Left ,65,350080369841 ,43,3303220112754 ,74,9108998448152
16.076173 ,Left ,65,4296679474647 ,43,4042920812611 ,74,9683688521536
16.0925826 ,Left ,65,446228078977 ,43,4081296704454 ,75,0046168370736
16.1148959 ,Left ,65,4722914859406 ,43,3411372652828 ,75,0149794641584
16.1360411 ,Left ,65,4567713759779 ,43,191761498916 ,75,0393204419288
16.1525591 ,Left ,65,3538470425373 ,43,0217623173637 ,75,1106813103044
16.1749682 ,Left ,65,2194090156112 ,42,7967604203388 ,75,2149544562184
16.1959499 ,Left ,65,1588484109998 ,42,5309490561992 ,75,3227212559007
16.2123945 ,Left ,65,1859017185458 ,42,3274502118362 ,75,3683482536881
16.2348899 ,Left ,65,2707957287294 ,42,3146044220271 ,75,4070778028062
16.256298 ,Left ,65,1924628740059 ,42,4500833373488 ,75,3855471802267
16.2725837 ,Left ,65,0684527348503 ,42,5560275237355 ,75,3480261515846
16.2948411 ,Left ,65,1064267293837 ,42,6311994956745 ,75,3180053411957
16.3162351 ,Left ,65,161569093607 ,42,6950900702873 ,75,3089474685734
16.3324782 ,Left ,65,0682250325566 ,42,6789384952149 ,75,3537069858508
16.354879 ,Left ,64,9480789985601 ,42,5762711206973 ,75,4219091724379
16.376253 ,Left ,64,9342082621993 ,42,464827739536 ,75,5087519269213
16.3924458 ,Left ,64,9214753997612 ,42,4741026056387 ,75,6331544110362
16.414976 ,Left ,64,9228376263429 ,42,6089572138861 ,75,7214511171737
16.4359851 ,Left ,64,8934828803057 ,42,75298847554 ,75,7840628888894
16.4524262 ,Left ,65,0348297952374 ,42,9179090561798 ,75,8020625480423
16.4749647 ,Left ,65,1573808277647 ,43,0752244739233 ,75,8000776187664
16.4962355 ,Left ,65,2347502024963 ,43,1935152099977 ,75,8078061501751
16.512458 ,Left ,65,2725686854009 ,43,2602672669257 ,75,8366065619471
16.5349399 ,Left ,65,2865442552314 ,43,3037733880285 ,75,8674894317511
16.5561828 ,Left ,65,2780003039855 ,43,284296601413 ,75,9095896969562
16.5724184 ,Left ,65,3064538238353 ,43,170822228837 ,75,9346192253283
16.5948729 ,Left ,65,3830766381139 ,42,9948336059966 ,75,9285021141696
16.6158794 ,Left ,65,3871019891562 ,42,8028942845798 ,75,9205197277676
16.6324674 ,Left ,65,3509740391993 ,42,6532740968002 ,75,9115771350295
16.654869 ,Left ,65,3686638175728 ,42,5186469740853 ,75,8907879506034
16.67631 ,Left ,65,4181608599076 ,42,3927749549803 ,75,876947813398
16.691845 ,Left ,65,4832100249944 ,42,3093261998102 ,75,8520552789725
16.7149418 ,Left ,65,4985183310897 ,42,2759587525326 ,75,8239763719809
16.7374664 ,Left ,65,4985276278205 ,42,2870645092249 ,75,8121735146173
16.7517629 ,Left ,65,5089375578311 ,42,3207857072769 ,75,8149508429841
16.7748823 ,Left ,65,5071877756259 ,42,373335909879 ,75,8236998365461
16.7974491 ,Left ,65,4930919183635 ,42,4574793361074 ,75,8295017615643
16.8118733 ,Left ,65,4425811221853 ,42,5617127559083 ,75,8215540396459
16.8349513 ,Left ,65,4113486550286 ,42,6595285576637 ,75,8111271788857
16.8574286 ,Left ,65,3662118223836 ,42,7665647814483 ,75,8068061732667
16.8786393 ,Left ,65,3359550949319 ,42,8960833683188 ,75,8259486605227
16.8949386 ,Left ,65,2193263327855 ,43,0752735099884 ,75,8377519333899
16.9174175 ,Left ,65,1337478089063 ,43,1886325667242 ,75,8280482403891
16.9383548 ,Left ,65,0953280818215 ,43,1523915189329 ,75,9088782807
16.9549336 ,Left ,65,065279053359 ,43,2440413504407 ,76,0196441528975
16.9774442 ,Left ,64,9058617275747 ,43,4568108965269 ,76,1084782312658
16.9984296 ,Left ,64,8915482448385 ,43,6855279369915 ,76,1478716452574
17.0149798 ,Left ,64,966596152756 ,43,8658373761276 ,76,1625195056892
17.0373392 ,Left ,65,0468258894625 ,43,9794089822896 ,76,1716229160688
17.0583442 ,Left ,65,1261277679785 ,44,050183683884 ,76,1580316825451
17.0749021 ,Left ,65,1047142102776 ,44,0925476820637 ,76,1172035661553
17.0973022 ,Left ,65,1063373904358 ,44,1335582887239 ,76,0559189392703
17.1184678 ,Left ,65,0884981985351 ,44,1528271351568 ,75,9867828907254
17.1348223 ,Left ,65,0750765785769 ,44,1240050404808 ,75,9313133699918
17.15727 ,Left ,65,0429999963857 ,44,0449889054427 ,75,8913548128367
17.1784162 ,Left ,65,0080915751362 ,43,9267345617946 ,75,8768152171223
17.1949608 ,Left ,64,9810228773277 ,43,8240227097757 ,75,8855755854182
17.2174065 ,Left ,64,9937777601997 ,43,6866838607271 ,75,877376526654
17.2386706 ,Left ,65,0635575433638 ,43,4945771946878 ,75,9127619171171
17.2548703 ,Left ,65,2010677978452 ,43,403709509359 ,75,9423857489321
17.2773851 ,Left ,65,2817152828654 ,43,437912519616 ,75,9222244284981
17.2986211 ,Left ,65,3655229709079 ,43,4875409757491 ,75,8870877640986
17.3150141 ,Left ,65,5015709690715 ,43,4343945572745 ,75,8334165358611
17.3205275 ,Left ,65,5970688993117 ,43,3087398620541 ,75,8054376290378
17.3428839 ,Left ,65,6792911721413 ,43,2229714978356 ,75,7929001060262
17.3653529 ,Left ,65,687652722893 ,43,1701410061757 ,75,7955975738566
17.3805352 ,Left ,65,7035365703734 ,43,1129363020987 ,75,7819941622128
17.4027928 ,Left ,65,7040399757411 ,43,0285764307071 ,75,7639926779748
17.425332 ,Left ,65,6684253147281 ,42,9441993071424 ,75,758499380808
17.4404608 ,Left ,65,5957060409269 ,42,9463327654092 ,75,7386892122509
17.4627799 ,Left ,65,5674017562728 ,42,9913883251445 ,75,6763996701068
17.4849289 ,Left ,65,4131595993662 ,42,9083225798503 ,75,6877043614547
17.5002982 ,Left ,65,4611483483668 ,42,8297755389041 ,75,7795329455512
17.5228495 ,Left ,65,4524832705908 ,43,0099199431366 ,75,8030994333664
17.5452269 ,Left ,65,4523676021883 ,43,2011920841116 ,75,8043709654445
17.5603346 ,Left ,65,5083699031366 ,43,3297651111089 ,75,7959657664937
17.582724 ,Left ,65,5754626763783 ,43,3618503630379 ,75,7666969448133
17.6050985 ,Left ,65,5802282359275 ,43,2873611499288 ,75,7352092088819
17.6203908 ,Left ,65,5982769867209 ,43,1671747153581 ,75,689736214606
17.6429065 ,Left ,65,6031750365532 ,42,977574440161 ,75,6813322698946
17.6654265 ,Left ,65,6661698865839 ,42,8104893556539 ,75,6520310253196
17.6804508 ,Left ,65,6726628596539 ,42,6589040802452 ,75,6144621807922
17.702768 ,Left ,65,6831614714693 ,42,5339717435899 ,75,5800041431793
17.72526 ,Left ,65,7279641956769 ,42,4342930083257 ,75,5445010462117
17.7404632 ,Left ,65,7715717619266 ,42,3437312317659 ,75,5189844924413
17.7629848 ,Left ,65,8214613919624 ,42,2561187370492 ,75,4996296298608
17.7851798 ,Left ,65,8545633975167 ,42,1784490067866 ,75,4786063805145
17.8005147 ,Left ,65,873763540196 ,42,1438262468418 ,75,4627177389941
17.8229661 ,Left ,65,9015511236914 ,42,1143896656994 ,75,4554586524914
17.8452475 ,Left ,65,9334677991936 ,42,1068298936689 ,75,448995965613
17.8602818 ,Left ,65,907901471241 ,42,1116012998205 ,75,4485105859303
17.8829644 ,Left ,65,896362220224 ,42,0897478355978 ,75,4375831736379
17.9069156 ,Left ,65,9106077951997 ,42,0499423908953 ,75,4215589694244
17.9204372 ,Left ,65,8970495789202 ,42,0098566442754 ,75,4037333484428
17.9426965 ,Left ,65,8768672036864 ,41,9778445303726 ,75,3858534207291
17.9649739 ,Left ,65,851769984127 ,41,9476256724897 ,75,3595677819433
17.9802327 ,Left ,65,8079762879973 ,41,9151062929164 ,75,3187253934566
18.0026553 ,Left ,65,7596001755786 ,41,8773497005947 ,75,2897386839855
18.025121 ,Left ,65,6946743989822 ,41,8521760686984 ,75,2640854875308
18.0405267 ,Left ,65,6559100007604 ,41,8338875819655 ,75,2269641132016
18.062892 ,Left ,65,5960163439529 ,41,8263084603397 ,75,1930986044634
18.0852878 ,Left ,65,5287090805842 ,41,8216660292997 ,75,1626223471216
18.1004678 ,Left ,65,4723791955858 ,41,8212390130734 ,75,1413109446448
18.1228725 ,Left ,65,40241605732 ,41,8276630451885 ,75,1362542789072
18.1453319 ,Left ,65,3383538673946 ,41,8252165767761 ,75,1306949706304
18.1604302 ,Left ,65,2924986625919 ,41,8250838324395 ,75,127872376639
18.1826677 ,Left ,65,2483284916447 ,41,8350013146295 ,75,1210217942098
18.204949 ,Left ,65,2224727981756 ,41,850244684223 ,75,0954358870915
18.2200276 ,Left ,65,1927163858508 ,41,8637567173305 ,75,049646482924
18.2428063 ,Left ,65,1600719171779 ,41,8643039606238 ,74,9991813093068
18.2651851 ,Left ,65,1158309853272 ,41,8652466899084 ,74,9461786737186
18.281941 ,Left ,65,0811280117508 ,41,8688543047991 ,74,8893291336299
18.3032041 ,Left ,65,0478469204689 ,41,8744693468741 ,74,830319023406
18.3254859 ,Left ,65,0034528405685 ,41,8906910090084 ,74,7716199355646
18.3420406 ,Left ,64,949759551499 ,41,9031518346439 ,74,716663515197
18.3632587 ,Left ,64,9169647091943 ,41,9029313363785 ,74,6496581476261
18.3853163 ,Left ,64,8858160553278 ,41,8877234330915 ,74,5757925702037
18.4017163 ,Left ,64,8531517519885 ,41,867106496636 ,74,5002559746857
18.422943 ,Left ,64,8091712132941 ,41,8456648217652 ,74,4360267601787
18.4453022 ,Left ,64,771213597893 ,41,8319571259493 ,74,3796028123607
18.4633012 ,Left ,64,7239879643789 ,41,8268003387187 ,74,3236371314359
18.482888 ,Left ,64,6790028487223 ,41,8105515600468 ,74,2621701621428
18.5053821 ,Left ,64,64359621 ,41,7872556181763 ,74,2045708584693
18.5217235 ,Left ,64,5820916964615 ,41,7709085173837 ,74,1572956214084
18.5428281 ,Left ,64,5267325242422 ,41,7708613191019 ,74,1164705197568
18.5652576 ,Left ,64,4692699860595 ,41,7780698664501 ,74,0808733490387
18.5833764 ,Left ,64,4390288667354 ,41,7996456939295 ,74,0451031716369
18.6027863 ,Left ,64,4237763022118 ,41,8401564689136 ,74,0108072054426
18.6252433 ,Left ,64,4001934072952 ,41,9238737894173 ,73,979862553653
18.6434156 ,Left ,64,3630024474165 ,42,0429819719104 ,73,9732827405434
18.6629995 ,Left ,64,3335171277935 ,42,1877154812542 ,73,9863683935594
18.6853357 ,Left ,64,3317700719589 ,42,3327895153142 ,74,0234700287923
18.7033564 ,Left ,64,3227297510012 ,42,458914188336 ,74,0847452933312
18.7229677 ,Left ,64,3112507274396 ,42,539068014288 ,74,1666640358365
18.7453058 ,Left ,64,3210075639531 ,42,5967440297827 ,74,2510761019804
18.7631853 ,Left ,64,3349089153503 ,42,6023504475245 ,74,338834776211
18.7829347 ,Left ,64,3245760304301 ,42,6043104700732 ,74,4407128428212
18.8053285 ,Left ,64,4280242040095 ,42,587049194621 ,74,5532548037011
18.8233955 ,Left ,64,5784143388968 ,42,6593392029899 ,74,6925905257371
18.8428226 ,Left ,64,5880156123469 ,42,896960056863 ,74,8438629793164
18.8653839 ,Left ,64,6559507289606 ,43,2073764254132 ,74,9670017412924
18.8832777 ,Left ,64,8090670077912 ,43,4597435985643 ,75,0828822446166
18.9027715 ,Left ,65,0435558716751 ,43,6279372806518 ,75,218986145412
18.9252713 ,Left ,65,190975791445 ,43,7213650432286 ,75,3437940669288
18.9433531 ,Left ,65,3092523541995 ,43,7763127286941 ,75,4325254792298
18.9643421 ,Left ,65,37599925302 ,43,7438698098013 ,75,5071158504608
18.985387 ,Left ,65,4049714903129 ,43,6493499386093 ,75,5568137035007
19.0034018 ,Left ,65,4114381804888 ,43,4685960282065 ,75,6122701595315
19.0229772 ,Left ,65,4121114724416 ,43,2794127664319 ,75,6460656573138
19.0452573 ,Left ,65,3103026164707 ,43,0844397982565 ,75,667081458529
19.063308 ,Left ,65,2090312179738 ,42,8056055337128 ,75,7213114655029
19.0830097 ,Left ,65,2010583924984 ,42,5475513698849 ,75,8092251293916
19.10512 ,Left ,65,1680795816654 ,42,3973015819941 ,75,8958733887306
19.1232938 ,Left ,65,2115340059661 ,42,5362743266689 ,75,9267262014628
19.1429096 ,Left ,65,1139571769884 ,42,7652519762432 ,75,9097013318156
19.1654777 ,Left ,65,1023603815267 ,42,9263467288822 ,75,8620871735883
19.1834652 ,Left ,65,1591024462808 ,42,9957791485796 ,75,8342680893338
19.2028153 ,Left ,65,156371439834 ,43,046038939641 ,75,8418319429867
19.2253384 ,Left ,65,0788984714689 ,43,0630617520344 ,75,8634029164074
19.2433546 ,Left ,64,9809504934494 ,43,0497193302567 ,75,8976737560902
19.2641721 ,Left ,64,8920954702008 ,42,9483211843271 ,75,9755722864047
19.2850206 ,Left ,64,9165267665501 ,42,8742201952979 ,76,0921232235203
19.3076141 ,Left ,64,842944200192 ,42,979254031562 ,76,2313245220653
19.324032 ,Left ,64,7685479930206 ,43,1724922372215 ,76,2804185451925
19.3450255 ,Left ,64,7485100117136 ,43,3356116109102 ,76,2703095960218
19.3630985 ,Left ,64,7883847479485 ,43,4202163582609 ,76,2556970219633
19.3840345 ,Left ,64,8109697878325 ,43,519289316614 ,76,2510460596206
19.4128075 ,Left ,64,7901894846205 ,43,56504815169 ,76,2570297404798
19.4233319 ,Left ,64,7362856261336 ,43,5357584421704 ,76,2680474391563
19.4442832 ,Left ,64,6704343173055 ,43,4554159953122 ,76,2999371021433
19.4652181 ,Left ,64,6349575173514 ,43,362980796073 ,76,3511814328615
19.4877875 ,Left ,64,589330046057 ,43,4014569911002 ,76,4715839002841
19.5042871 ,Left ,64,5811491601798 ,43,5571841000812 ,76,5555669333932
19.5254934 ,Left ,64,6035910151634 ,43,6990043305231 ,76,5923069193544
19.5479827 ,Left ,64,7871714678437 ,43,8157483418215 ,76,6009066318986
19.5660034 ,Left ,64,8819624559982 ,43,8776520996622 ,76,5891087479796
19.5852997 ,Left ,64,9350090592039 ,43,9194567590787 ,76,5583763531068
19.6078486 ,Left ,64,9680851085138 ,43,9183353564357 ,76,5155522219032
19.6258082 ,Left ,65,092160848761 ,43,8815382571912 ,76,4133000295497
19.6454553 ,Left ,65,1736102468809 ,43,8130193002397 ,76,2835188643289
19.6679392 ,Left ,65,233805982295 ,43,7828145542522 ,76,1503663640637
19.6859352 ,Left ,65,2479095574195 ,43,8012620346942 ,76,0440161717012
19.705412 ,Left ,65,2379150720875 ,43,8638151845338 ,75,9233457441555
19.7281063 ,Left ,65,2657391140155 ,43,8743386036032 ,75,8000814683296
19.7460161 ,Left ,65,2915301880607 ,43,8509747382139 ,75,7073282442535
19.765465 ,Left ,65,2171587849463 ,43,7887398354652 ,75,6568001667516
19.7877428 ,Left ,65,1446113592555 ,43,7251121327812 ,75,6325288248408
19.8118041 ,Left ,65,0236269232981 ,43,5754265675548 ,75,6230249159361
19.8254462 ,Left ,65,0453166588912 ,43,3465791543331 ,75,6277951484413
19.8480731 ,Left ,65,02914961012 ,43,2773654917554 ,75,6536821025575
19.8657342 ,Left ,64,9810614203784 ,43,45758419448 ,75,6481803443639
19.8853903 ,Left ,64,9746083853739 ,43,6917869382722 ,75,6370112006018
19.907847 ,Left ,65,0460894836951 ,43,7802827481068 ,75,6466676413463
19.9261504 ,Left ,65,16603859621 ,43,7770356068426 ,75,687631423272
19.9454323 ,Left ,65,2672129748826 ,43,7660464227085 ,75,7084012514156
19.9678998 ,Left ,65,3565268202668 ,43,693790007266 ,75,6957521992392
19.9858082 ,Left ,65,447506333433 ,43,5822219046699 ,75,6516664926814
20.0055209 ,Left ,65,460162465723 ,43,4434528149055 ,75,6364860042278
20.0278 ,Left ,65,4259318992776 ,43,3223711462742 ,75,669571690771
20.0456218 ,Left ,65,365066950528 ,43,2688743041089 ,75,6870844787913
20.0652671 ,Left ,65,3087315208306 ,43,1707844124617 ,75,6954662807888
20.0878579 ,Left ,65,167432638764 ,42,9496235879784 ,75,7377580867898
20.1056716 ,Left ,65,177055816759 ,42,6817748460597 ,75,8763706827556
20.1251098 ,Left ,65,2265683201339 ,42,6343454067092 ,75,9888565982221
20.1475756 ,Left ,65,2716626465516 ,42,7731197012614 ,75,9689978208875
20.1657949 ,Left ,65,3468500539477 ,42,8806493895616 ,75,9299503354617
20.1867861 ,Left ,65,4393075338676 ,42,9039155625927 ,75,8899691036359
20.2077652 ,Left ,65,4834182618658 ,42,851879107294 ,75,9158605437097
20.2258156 ,Left ,65,5339208898973 ,42,825299162654 ,75,9453286290845
20.2468274 ,Left ,65,5045586769894 ,42,7983253742162 ,75,9743531723719
20.2678296 ,Left ,65,5098378721635 ,42,7461659075377 ,75,9968185825874
20.2857303 ,Left ,65,5203861234318 ,42,6869666755063 ,76,0236598927094
20.3066719 ,Left ,65,5098181453154 ,42,6051054014128 ,76,0695842405606
20.327909 ,Left ,65,5084044909115 ,42,5482504615639 ,76,1081545519944
20.3459004 ,Left ,65,5093974147461 ,42,5191529239338 ,76,1344061305038
20.3667785 ,Left ,65,4849403911046 ,42,4844133071439 ,76,1598833834118
20.3876812 ,Left ,65,4606496376289 ,42,4548979809044 ,76,1919423332193
20.4058346 ,Left ,65,45491351556 ,42,4214555252692 ,76,2330955465204
20.4266932 ,Left ,65,4466786209956 ,42,3633589835761 ,76,2583680337715
20.4479297 ,Left ,65,4573458701704 ,42,2967351775234 ,76,2458485548785
20.465902 ,Left ,65,4331689229156 ,42,2140836403235 ,76,2398061180582
20.486759 ,Left ,65,3814673625035 ,42,143257193205 ,76,2378610952945
20.5078345 ,Left ,65,2907428436068 ,42,089135916062 ,76,2279008725071
20.5258952 ,Left ,65,2264934214693 ,42,0425271630806 ,76,2035720966848
20.5481343 ,Left ,65,2021612070199 ,42,0242196000474 ,76,1586857491649
20.5677988 ,Left ,65,1718100704431 ,42,023985289544 ,76,1053837515184
20.5854855 ,Left ,65,1392137993759 ,42,052294669292 ,76,0332867565947
20.607196 ,Left ,65,095235654654 ,42,0803091483024 ,75,9382128989452
20.6282545 ,Left ,65,0270266123487 ,42,0858713200883 ,75,8409569652333
20.6446679 ,Left ,64,929915668807 ,42,0779788266864 ,75,7654177491658
20.6672076 ,Left ,64,84490706458 ,42,0656550510589 ,75,7052913427982
20.6881843 ,Left ,64,7715703643914 ,42,0580528582012 ,75,6391055734644
20.704754 ,Left ,64,6955235017944 ,42,0541859181131 ,75,5741546268106
20.7274256 ,Left ,64,6369687020071 ,42,0440639722255 ,75,5238776576157
20.7484781 ,Left ,64,5929421422747 ,42,0333897569551 ,75,4750166183112
20.7648425 ,Left ,64,5136014719822 ,42,0135769134399 ,75,4251693566335
20.7871269 ,Left ,64,4327476856097 ,41,987246384552 ,75,3770306077267
20.8082807 ,Left ,64,3616803157096 ,41,9535310264426 ,75,312856664401
20.8245942 ,Left ,64,3067309307479 ,41,9043432289896 ,75,2524443670619
20.8482515 ,Left ,64,2607187720969 ,41,8773092031646 ,75,1831216435262
20.8677639 ,Left ,64,1734580114412 ,41,8788418140079 ,75,1320596603411
20.8848964 ,Left ,64,1178354868613 ,41,9043274798275 ,75,0667954114913
20.9074379 ,Left ,64,0765393159373 ,41,9451821714609 ,74,9948582061056
20.928594 ,Left ,64,0058267006202 ,42,0278475888068 ,74,9373202036187
20.9450532 ,Left ,63,9416780700259 ,42,1392042881791 ,74,9030676609761
20.9673644 ,Left ,63,8959954413076 ,42,2697268717414 ,74,9065210698087
20.9886294 ,Left ,63,8740954841196 ,42,4016415665042 ,74,927083515346
21.0048352 ,Left ,63,882327515287 ,42,5181362277798 ,74,9727932992705
21.0274094 ,Left ,63,9033050533868 ,42,6007017912535 ,75,0206320619404
21.0485927 ,Left ,63,9250181409557 ,42,6575560361557 ,75,0867844577113
21.0648523 ,Left ,63,9406198154571 ,42,7430336854924 ,75,1765396086234
21.0873206 ,Left ,63,9685092381404 ,42,7614567252354 ,75,2734507417734
21.1083253 ,Left ,64,067436228894 ,42,7229001835614 ,75,4013776264466
21.1248033 ,Left ,64,0915263934638 ,42,7776656177462 ,75,5226641324251
21.1474073 ,Left ,64,165681286315 ,42,927973725779 ,75,5820010884913
21.1684573 ,Left ,64,3401772039036 ,43,0547684735342 ,75,5884332559156
21.1848192 ,Left ,64,5603160169663 ,43,1344691179943 ,75,5788070086786
21.2075531 ,Left ,64,6865479337735 ,43,1495835509608 ,75,5960148153062
21.2287053 ,Left ,64,7632436371413 ,43,139733966725 ,75,5978052836961
21.2450441 ,Left ,64,8167021074349 ,43,0527128962512 ,75,6176799447513
21.2676004 ,Left ,64,8557037201616 ,42,9404248286429 ,75,6515091760891
21.2886549 ,Left ,64,8538510305626 ,42,8374386732122 ,75,6966323856254
21.3049768 ,Left ,64,8415032699532 ,42,6699662278797 ,75,7603666046724
21.3275067 ,Left ,64,8732474325585 ,42,4919855167514 ,75,8565734198403
21.348734 ,Left ,64,9629874412053 ,42,5204027340046 ,75,8987871120505
21.3712043 ,Left ,64,9174555277997 ,42,5806043220594 ,75,9048325304395
21.3875894 ,Left ,64,9468125421494 ,42,6379044259719 ,75,8867123242437
21.4086951 ,Left ,64,9834959907128 ,42,7386558335694 ,75,8851771338617
21.4248239 ,Left ,64,9696471271806 ,42,820481974305 ,75,9234968423136
21.4473858 ,Left ,64,909102483629 ,42,8517795914788 ,75,9933754443469
21.4697059 ,Left ,64,90592263535 ,42,8330679167546 ,76,083462744868
21.4841187 ,Left ,64,9068035993547 ,42,8335873753243 ,76,2299689284556
21.5075149 ,Left ,64,9084401724246 ,42,9434392470582 ,76,3239453541967
21.5299916 ,Left ,64,8576847109593 ,43,038354288087 ,76,3479978429969
21.5441227 ,Left ,64,9263251531642 ,43,0880858635144 ,76,3134546982622
21.567151 ,Left ,64,9920333950079 ,43,110116766054 ,76,2744182295038
21.5898263 ,Left ,65,0311130443327 ,43,0974897005142 ,76,2061288262193
21.6041155 ,Left ,65,0252553423015 ,43,006203529864 ,76,1380637596973
21.6272197 ,Left ,65,0710565728199 ,42,8459618704776 ,76,0870235577909
21.649982 ,Left ,65,141202472005 ,42,63927834133 ,76,0605559897033
21.66413 ,Left ,65,1955963869303 ,42,4434407485853 ,76,0250092684834
21.6872135 ,Left ,65,2369057073868 ,42,2123560252414 ,75,9794252744684
21.7098629 ,Left ,65,2740207253499 ,41,9860260684358 ,75,9533299964894
21.7309092 ,Left ,65,376873376653 ,41,8440958586664 ,75,924460816221
21.747122 ,Left ,65,4919727357372 ,41,8259280757747 ,75,8658981841012
21.7696483 ,Left ,65,6086117756733 ,41,9656379136913 ,75,7824444461922
21.7908113 ,Left ,65,6834712791089 ,42,1615054922367 ,75,720827867163
21.8073359 ,Left ,65,7437786495386 ,42,3328082485328 ,75,7030804870078
21.8296223 ,Left ,65,7393064469174 ,42,5236273781951 ,75,760460599451
21.8506937 ,Left ,65,702299395916 ,42,7347347472267 ,75,8589034315186
21.8673104 ,Left ,65,690879564878 ,42,8951770775944 ,75,9313747940181
21.8897979 ,Left ,65,6405758466946 ,42,9643565370369 ,75,9501507042595
21.9110684 ,Left ,65,6108421266206 ,42,9910689988689 ,75,9738846752411
21.9273631 ,Left ,65,5454697612201 ,43,0401244600878 ,76,01806079844
21.9498704 ,Left ,65,4395185204699 ,43,1153171510442 ,76,0766250116729
21.9709438 ,Left ,65,3923651381937 ,43,2007838903187 ,76,1016586956862
21.9873175 ,Left ,65,3266776513444 ,43,1872791462461 ,76,0861790839213
22.0099307 ,Left ,65,2172178960529 ,43,1254723137339 ,76,0837968705639
22.0312363 ,Left ,65,1719863415055 ,43,1025474852181 ,76,1191182593383
22.0476738 ,Left ,65,1725056661549 ,43,2061736709298 ,76,1562297464197
22.0698194 ,Left ,65,2088435476102 ,43,4137094795038 ,76,1630642861489
22.0907807 ,Left ,65,2852503648312 ,43,6096122194521 ,76,1705060950702
22.1070826 ,Left ,65,3761679318954 ,43,7352426190683 ,76,2099418901475
22.1298566 ,Left ,65,4862619961137 ,43,793094994988 ,76,2763091102999
22.1507435 ,Left ,65,5444977510826 ,43,8364316066499 ,76,3092610531622
22.1672043 ,Left ,65,5482622686544 ,43,8826497051547 ,76,2945992067461
22.189755 ,Left ,65,6106672065616 ,43,9109041590255 ,76,2461210086208
22.2107322 ,Left ,65,6666415820803 ,43,9257698873032 ,76,1830692483266
22.2277904 ,Left ,65,6635557383918 ,43,9323638320927 ,76,1248297762182
22.2502553 ,Left ,65,6658695313893 ,43,9362283908631 ,76,0599095192237
22.2708169 ,Left ,65,6196559643773 ,43,9029718157173 ,75,9836688735513
22.2872752 ,Left ,65,6055432948948 ,43,8601741577241 ,75,9106265844729
22.3098916 ,Left ,65,5785893620979 ,43,839578128739 ,75,8812509464452
22.3310655 ,Left ,65,5099453424394 ,43,8389980434147 ,75,8672304022121
22.3468512 ,Left ,65,4910051532706 ,43,7549063923274 ,75,825352251262
22.3697969 ,Left ,65,5198667502744 ,43,5764492028202 ,75,8320606103201
22.3927043 ,Left ,65,5184826417952 ,43,4548409695103 ,75,9509740735214
22.4070799 ,Left ,65,6865252073254 ,43,5083434495744 ,75,9753068529651
22.4301119 ,Left ,65,5853248136106 ,43,6534891344051 ,75,9264376871533
22.4527363 ,Left ,65,5002542980911 ,43,7363763661757 ,75,8699510737297
22.4671187 ,Left ,65,5937566665878 ,43,7121523249713 ,75,8114545959832
22.4900079 ,Left ,65,7513468789481 ,43,6626441721825 ,75,7766840441982
22.5126752 ,Left ,65,8483879930339 ,43,6155392655793 ,75,7661695425771
22.5267974 ,Left ,65,8473741467701 ,43,4850766103219 ,75,7760456229963
22.5498232 ,Left ,65,8450291537709 ,43,2949201389834 ,75,7914608254779
22.572178 ,Left ,65,7904655084879 ,43,0723346218832 ,75,836196561382
22.5866958 ,Left ,65,6817162002502 ,42,813062256837 ,75,9114884757308
22.6099098 ,Left ,65,584862950078 ,42,6315997425506 ,75,9807150336822
22.6322625 ,Left ,65,4468594608539 ,42,4722267542762 ,76,0536988487274
22.6534761 ,Left ,65,4221201270069 ,42,3258970491876 ,76,1801992205693
22.669925 ,Left ,65,3828068399331 ,42,3591881805193 ,76,3067891655034
22.692412 ,Left ,65,4243761540119 ,42,6594660575035 ,76,3684889650433
22.7135171 ,Left ,65,4582160311811 ,42,967342046772 ,76,437832005669
22.7299075 ,Left ,65,5594136116147 ,43,1695329280472 ,76,5036791911293
22.7526597 ,Left ,65,5933502185494 ,43,2226009275355 ,76,551083714097
22.7737251 ,Left ,65,6272247874549 ,43,2158207270207 ,76,5674511880991
22.7900055 ,Left ,65,6335095914256 ,43,2063957791425 ,76,5442485755691
22.8124601 ,Left ,65,6384950303982 ,43,1784485607131 ,76,4946591954442
22.8267723 ,Left ,65,6528021528713 ,43,1346581364739 ,76,4361124046146
22.8499109 ,Left ,65,6360305882911 ,43,0679453042839 ,76,3912002953884
22.872676 ,Left ,65,6051236819682 ,42,9579557801581 ,76,3721010762755
22.8937151 ,Left ,65,6363791547415 ,42,8303618317632 ,76,3543412532371
22.9099369 ,Left ,65,6817567251929 ,42,7041141763486 ,76,3271344489149
22.9325886 ,Left ,65,7145160380244 ,42,6109372518357 ,76,3097592783235
22.9534784 ,Left ,65,7008512018138 ,42,5785366303028 ,76,3172939420013
22.969957 ,Left ,65,7258000424703 ,42,5615808617429 ,76,3293828363602
22.9925292 ,Left ,65,8008522805214 ,42,5242489421956 ,76,3477883477367
23.013455 ,Left ,65,862133636366 ,42,5074049046671 ,76,3711472865468
23.0299839 ,Left ,65,8357894492987 ,42,5252098553592 ,76,4017677464187
23.0524105 ,Left ,65,8048471104968 ,42,5625254933825 ,76,424881823341
23.0734539 ,Left ,65,7922921660134 ,42,6064316575419 ,76,445493472249
23.0899618 ,Left ,65,7871156526724 ,42,6456346301578 ,76,4682970533609
23.11213 ,Left ,65,7496622886115 ,42,631432752743 ,76,5111704036516
23.1408519 ,Left ,65,7259849901536 ,42,571311656687 ,76,5515104980722
23.1498775 ,Left ,65,7125245014381 ,42,5118276910547 ,76,5588196227252
23.1782757 ,Left ,65,6595140690274 ,42,4561596985692 ,76,5550138993195
23.19499 ,Left ,65,6373630996696 ,42,4084534600307 ,76,5269893032338
23.2098402 ,Left ,65,6026279509951 ,42,3401125226071 ,76,476101382627
23.2323239 ,Left ,65,6202885732448 ,42,2357853267145 ,76,4001430155978
23.2548271 ,Left ,65,6225985461426 ,42,1133281875314 ,76,3433227948916
23.2759558 ,Left ,65,6201524329515 ,42,0350700418695 ,76,2874065380641
23.2921312 ,Left ,65,5833741843073 ,41,978797880689 ,76,2408141725468
23.314799 ,Left ,65,566448327577 ,41,9397247563688 ,76,1949342718772
23.3357953 ,Left ,65,5641422938771 ,41,8982084083475 ,76,1433910907865
23.3522551 ,Left ,65,5773616266231 ,41,8388400417822 ,76,1105180893918
23.3781377 ,Left ,65,5864259412068 ,41,7967583632839 ,76,0899176245535
23.3903333 ,Left ,65,568313245495 ,41,7782699296552 ,76,0738538684536
23.4107415 ,Left ,65,5629773620451 ,41,7903294535618 ,76,0441594083263
23.4259158 ,Left ,65,533396123219 ,41,6355159075636 ,76,015200948674
23.4483856 ,Left ,65,7190682370876 ,41,8032611506929 ,75,8732123383003
23.470806 ,Left ,65,8062013797293 ,41,8231844989059 ,75,7742951191306
23.486533 ,Left ,65,5109331118195 ,41,7675105833159 ,75,8670555599419
23.5086622 ,Left ,65,5689583536766 ,41,8505609457176 ,75,8110549839988
23.5307866 ,Left ,65,6761494683309 ,41,838830652119 ,75,7324685482151
23.545929 ,Left ,65,3665112647812 ,41,76083806499 ,75,8619554213161
23.5684496 ,Left ,65,3389565340002 ,41,5651297032448 ,75,851291396578
23.5910382 ,Left ,65,3096754461355 ,41,5117166603888 ,75,8427930704522
23.6073536 ,Left ,65,285576888123 ,41,4844644974367 ,75,8471212237075
23.6284774 ,Left ,65,2161432774871 ,41,4537130084629 ,75,8670039840853
23.6507906 ,Left ,65,1670129451999 ,41,4260519707128 ,75,8785605347627
23.6673587 ,Left ,65,1106942238389 ,41,4104308596683 ,75,8647956129802
23.6885307 ,Left ,65,0011943453801 ,41,392210197421 ,75,8493585815039
23.711215 ,Left ,65,0934516652562 ,41,3561776362276 ,75,7326379425792
23.7272917 ,Left ,65,1431072730692 ,41,46965595427 ,75,6169476221656
23.7484675 ,Left ,65,1525912233881 ,41,4879886644569 ,75,5211246998234
23.7707431 ,Left ,65,0617709579468 ,41,5119844944199 ,75,477476680544
23.7873353 ,Left ,64,9840616612525 ,41,520496375215 ,75,4153647509304
23.8083926 ,Left ,64,9028343756577 ,41,5063179633794 ,75,3543949445205
23.8309346 ,Left ,64,8219749907893 ,41,50165036734 ,75,2965206615101
23.8473531 ,Left ,64,772437012309 ,41,5054970672692 ,75,2241491314738
23.8685269 ,Left ,64,7408487680147 ,41,5052501048692 ,75,1635645338838
23.8912158 ,Left ,64,7101288311758 ,41,5182861575551 ,75,1106957089003
23.9072653 ,Left ,64,6693555761312 ,41,5299710717904 ,75,0661799848471
23.928373 ,Left ,64,6634750190626 ,41,5518483639677 ,75,014843054886
23.9507609 ,Left ,64,6607255230672 ,41,5980962584957 ,74,9673824363445
23.9671924 ,Left ,64,6486854373759 ,41,6687409454265 ,74,9463066412824
23.9884705 ,Left ,64,631478605777 ,41,7633675138362 ,74,9522070465968
24.0109893 ,Left ,64,6278603335202 ,41,8904475941167 ,74,981580349892
24.0273077 ,Left ,64,6368713509798 ,42,0252497055767 ,75,0135337160791
24.0483592 ,Left ,64,6565455561851 ,42,147389517958 ,75,0596895083111
24.0708149 ,Left ,64,6818525079779 ,42,2583805244253 ,75,11259897031
24.0873542 ,Left ,64,7348495971643 ,42,3405749847268 ,75,158826390258
24.1083614 ,Left ,64,7693811743661 ,42,3628982032314 ,75,2225823053537
24.1306677 ,Left ,64,8620239322172 ,42,3466632590726 ,75,3303151452229
24.1473856 ,Left ,64,9974782628827 ,42,3715200754867 ,75,468757506569
24.1683973 ,Left ,65,146247887364 ,42,4562491243765 ,75,6059104778713
24.1909017 ,Left ,65,2455192772049 ,42,6006357264799 ,75,7332785923544
24.207418 ,Left ,65,3559449029225 ,42,7800244842536 ,75,8111463766807
24.2282639 ,Left ,65,5148308356178 ,42,9275328368804 ,75,8735022344824
24.2507482 ,Left ,65,6662677988917 ,42,9907633027419 ,75,9238860536312
24.2746379 ,Left ,65,7882230579816 ,42,9886089317504 ,75,9793446004048
24.2974168 ,Left ,65,8631124322344 ,42,9071160765441 ,76,0345339803567
24.3116724 ,Left ,65,9349544207708 ,42,7838847155717 ,76,0794168851498
24.3347248 ,Left ,66,0125549030838 ,42,6228970829585 ,76,1133406672697
24.3572366 ,Left ,66,0643271624067 ,42,4698295278142 ,76,1166620742783
24.3715611 ,Left ,66,054471525645 ,42,294169988127 ,76,1035291944124
24.3949524 ,Left ,66,0337038235844 ,42,0955283347271 ,76,1043610298466
24.4173323 ,Left ,65,9685679335363 ,41,882927874314 ,76,1602428443932
24.4317628 ,Left ,65,8584727183582 ,41,7077852288501 ,76,2436203296225
24.4546529 ,Left ,65,8223055113357 ,41,6442550959097 ,76,3021539235543
24.4771737 ,Left ,65,7682938028524 ,41,6674336623471 ,76,3771802040281
24.4916873 ,Left ,65,8004868196029 ,41,7672856131832 ,76,4200973541487
24.5148265 ,Left ,65,7622911957321 ,41,8733495533237 ,76,4366005078084
24.537219 ,Left ,65,7117930039314 ,41,9927980776505 ,76,4525961163828
24.5514757 ,Left ,65,7064591399486 ,42,0973911681267 ,76,4623527398404
24.574883 ,Left ,65,6795339717208 ,42,1908518846875 ,76,5081043209458
24.5972977 ,Left ,65,5493820134353 ,42,2387942773648 ,76,5814351583175
24.6115612 ,Left ,65,5880378393661 ,42,2457662161906 ,76,6383958086733
24.6347291 ,Left ,65,4988334479158 ,42,2247855098172 ,76,7837137452813
24.657264 ,Left ,65,4793693215754 ,42,3202744856444 ,76,8556717151367
24.6859878 ,Left ,65,4494246280423 ,42,4346650993414 ,76,8657162970769
24.6948291 ,Left ,65,507226135104 ,42,5485247255653 ,76,8479188667322
24.7174222 ,Left ,65,5722623590252 ,42,651680655357 ,76,8402219678906
24.7383899 ,Left ,65,6126462983017 ,42,7199825980597 ,76,8508158965874
24.7547315 ,Left ,65,6329102592191 ,42,7878365510196 ,76,8618371130499
24.7773287 ,Left ,65,6483634243654 ,42,8643114874678 ,76,8653722629291
24.7986566 ,Left ,65,6526125412715 ,42,9308576813339 ,76,8695557638531
24.8148696 ,Left ,65,6522228353527 ,42,9801872911421 ,76,8814259761148
24.8371123 ,Left ,65,666227311477 ,43,0539364441528 ,76,8878739776394
24.8584337 ,Left ,65,6726540906047 ,43,1040087429451 ,76,9038923548608
24.8750435 ,Left ,65,6309225221255 ,43,1515624998654 ,76,9323581563182
24.8973453 ,Left ,65,5533273794819 ,43,1564500863266 ,76,9743994112276
24.9184029 ,Left ,65,5284039167012 ,43,1353615946514 ,77,0272474403964
24.9346718 ,Left ,65,4696887414097 ,43,1255011701284 ,77,1427128765809
24.9573663 ,Left ,65,4620484257325 ,43,1214738376978 ,77,2691899096038
24.9781777 ,Left ,65,3866484841662 ,43,2710455979426 ,77,4051518544933
24.9948717 ,Left ,65,1964390231409 ,43,4169313372273 ,77,5535275715368
25.0173012 ,Left ,65,2484679182933 ,43,5395807238715 ,77,6405558257893
25.0384996 ,Left ,65,3132219279681 ,43,6560383629884 ,77,6919134205215
25.0549134 ,Left ,65,3613422111368 ,43,7308675558218 ,77,7316796092832
25.0772207 ,Left ,65,360853953047 ,43,7267806986686 ,77,7575298563932
25.0983698 ,Left ,65,387858444433 ,43,6616454946998 ,77,717229154894
25.1147321 ,Left ,65,4067549934977 ,43,508060938385 ,77,6458926921824
25.1374006 ,Left ,65,4687330061691 ,43,3139044783242 ,77,5556098281445
25.1584215 ,Left ,65,5119775187675 ,43,1229956662364 ,77,4360040166362
25.1741649 ,Left ,65,5407437125699 ,42,9730460239827 ,77,3090821562407
25.1977252 ,Left ,65,599819734607 ,42,8950147209031 ,77,1953761485452
25.218944 ,Left ,65,6423395034116 ,42,8768315358174 ,77,0888963593559
25.234491 ,Left ,65,6695987659192 ,42,8580187585158 ,77,0389065716813
25.2573909 ,Left ,65,6842201670357 ,42,8303451032643 ,77,0288501104916
25.2799073 ,Left ,65,6850533630995 ,42,8350188732768 ,77,0181000455496
25.2943867 ,Left ,65,607932736568 ,42,8698360163419 ,77,011658689723
25.3174132 ,Left ,65,6077527733278 ,42,920982515297 ,76,9645516931551
25.3399102 ,Left ,65,6531061616174 ,42,8900045426352 ,76,9072226765999
25.354849 ,Left ,65,6695974686524 ,42,9068771624183 ,76,8730475554717
25.3776047 ,Left ,65,6085978472604 ,42,9940586974789 ,76,843567038636
25.399836 ,Left ,65,5891480443004 ,43,1077637756828 ,76,8016950681833
25.4141972 ,Left ,65,6259288088907 ,43,1817422701672 ,76,7529326012054
25.4376048 ,Left ,65,6632915113581 ,43,238915467876 ,76,7148700254716
25.4598775 ,Left ,65,6859014710603 ,43,2966103793806 ,76,6864446080137
25.481142 ,Left ,65,759812115571 ,43,3317969109929 ,76,6577366017702
25.4973613 ,Left ,65,7443763169107 ,43,2982735140681 ,76,6393478750249
25.5198373 ,Left ,65,681697283143 ,43,4455939047972 ,76,632304502676
25.5342956 ,Left ,65,6420985919385 ,43,3150007134878 ,76,5997806590809
25.557331 ,Left ,65,7485114559317 ,43,1923174519374 ,76,5351507848683
25.5799089 ,Left ,65,8787824470795 ,43,1403048482511 ,76,4808192402759
25.594189 ,Left ,66,0204923062514 ,43,1736466046921 ,76,4273431724978
25.6173989 ,Left ,66,1291891101921 ,43,260904208282 ,76,3567917907705
25.64038 ,Left ,66,2356070682726 ,43,3523345607328 ,76,3072172720079
25.6541651 ,Left ,66,2760745643564 ,43,5200903549988 ,76,3166392021888
25.6774665 ,Left ,66,2852200330335 ,43,7853887675758 ,76,3367290538246
25.6998173 ,Left ,66,3502889700707 ,44,0748762914576 ,76,3651571365255
25.7206937 ,Left ,66,5006389483031 ,44,4091300332203 ,76,3467156294831
25.7373715 ,Left ,66,6617735324346 ,44,6655110014985 ,76,2828409460872
25.7598202 ,Left ,66,8553798249713 ,44,7704882567394 ,76,2231949164907
25.7809828 ,Left ,66,8498093016625 ,44,7247960089492 ,76,2368947144029
25.7973416 ,Left ,66,8245578608292 ,44,4564284153056 ,76,2853410242809
25.8198972 ,Left ,66,8412906401492 ,44,1160229749987 ,76,3315421030597
25.8412294 ,Left ,66,8124746763504 ,43,7850915248356 ,76,3768718410491
25.8574602 ,Left ,66,7165246904389 ,43,4953283739761 ,76,4202646298083
25.8798986 ,Left ,66,6155559410996 ,43,2972751228654 ,76,4359036555232
25.900798 ,Left ,66,5690881849102 ,43,1285336991374 ,76,4389583943479
25.917182 ,Left ,66,5584855176869 ,42,9609191600309 ,76,4643435212572
25.9398007 ,Left ,66,5020907234303 ,42,8010780031481 ,76,5173941623285
25.9610042 ,Left ,66,4094436721834 ,42,6763849829967 ,76,5889396317539
25.9766535 ,Left ,66,323674901225 ,42,5990113918696 ,76,6385712125906
25.9998266 ,Left ,66,2837205192032 ,42,5409284296696 ,76,6884702562659
26.0211423 ,Left ,66,2589526433926 ,42,5191167469288 ,76,7426997398876
26.0372763 ,Left ,66,2180246408593 ,42,527625173267 ,76,7907285270354
26.059646 ,Left ,66,1892930219565 ,42,5674417168759 ,76,8035528220703
26.0808232 ,Left ,66,2088307431079 ,42,5885738131355 ,76,7748016347831
26.0973398 ,Left ,66,2319257854015 ,42,5465686819706 ,76,7553174385404
26.1199635 ,Left ,66,2646297243696 ,42,5118710603492 ,76,7378684023324
26.1413111 ,Left ,66,2223673660617 ,42,5309901388329 ,76,7294031404033
26.1577202 ,Left ,66,1780362310612 ,42,572631229211 ,76,7475371934484
26.1801491 ,Left ,66,1749154221408 ,42,622030610322 ,76,7832422422453
26.2024111 ,Left ,66,1517314379836 ,42,631264569267 ,76,8236061026104
26.2174817 ,Left ,66,1324930574781 ,42,5657687967353 ,76,8337841014202
26.2400569 ,Left ,66,1649509509522 ,42,4959375769419 ,76,8529641576123
26.2624029 ,Left ,66,1338313564332 ,42,4709491711978 ,76,8755989898327
26.2771481 ,Left ,66,1152897662221 ,42,4716494440144 ,76,8954325330028
26.2998348 ,Left ,66,1373233771398 ,42,4757484611619 ,76,9065730782706
26.3223453 ,Left ,66,1378734301953 ,42,4758443568332 ,76,9077646601632
26.3365428 ,Left ,66,1415817186747 ,42,4660267020039 ,76,9052626175299
26.3599128 ,Left ,66,14206437394 ,42,4749708961802 ,76,8921925039236
26.3824149 ,Left ,66,1196571873298 ,42,4951537271216 ,76,8891468709005
26.3967907 ,Left ,66,1154869776451 ,42,5143665560456 ,76,901887171192
26.4199747 ,Left ,66,105563228332 ,42,5337926718299 ,76,927990383352
26.4424885 ,Left ,66,1055282633808 ,42,5483986228886 ,76,9614856743641
26.456831 ,Left ,66,1344244109515 ,42,576199163381 ,76,9796435813505
26.4801335 ,Left ,66,1513629338742 ,42,6101764172876 ,76,9823713997897
26.5023118 ,Left ,66,1427579629315 ,42,6306007063639 ,76,9820803301219
26.5167669 ,Left ,66,1458618527512 ,42,6359193059851 ,76,9926147650163
26.5399453 ,Left ,66,1153133910329 ,42,6458958658202 ,77,0152329844996
26.5625374 ,Left ,66,0884877334876 ,42,6537281024921 ,77,0335797488485
26.5767457 ,Left ,66,0765692092661 ,42,6565972747786 ,77,0529820055476
26.6000177 ,Left ,66,0564498068245 ,42,6680307533513 ,77,0678763975381
26.6225511 ,Left ,66,0323266248912 ,42,6698920992778 ,77,0898445560744
26.6367581 ,Left ,66,0219589880408 ,42,6662193420147 ,77,1118594146871
26.6600094 ,Left ,66,0079995019027 ,42,6481250252788 ,77,1283149869888
26.6825321 ,Left ,66,0029430151315 ,42,6156123309056 ,77,1396065035485
26.703746 ,Left ,65,9785429300375 ,42,5722929097735 ,77,1545407973427
26.7199152 ,Left ,65,9394305950457 ,42,5306939172145 ,77,1597817866237
26.7424483 ,Left ,65,9121860366349 ,42,492233650043 ,77,1469993436181
26.7631767 ,Left ,65,8937055599815 ,42,4438688596963 ,77,1075365073954
26.7797827 ,Left ,65,8639318930593 ,42,4072331755743 ,77,0745762570531
26.8021571 ,Left ,65,7795938664313 ,42,3859822941998 ,77,0507659454193
26.823339 ,Left ,65,6767940302021 ,42,3729302029091 ,77,0265280334299
26.8398026 ,Left ,65,5748584591247 ,42,3734337277515 ,77,0033020918972
26.8623821 ,Left ,65,4676305639327 ,42,370039318345 ,76,9581379283132
26.8836462 ,Left ,65,3276323161289 ,42,3605691979036 ,76,9253435524849
26.8999886 ,Left ,65,2090767863226 ,42,3570466111783 ,76,8773866504694
26.9224034 ,Left ,65,1169218583301 ,42,3551402234662 ,76,8289801927312
26.9435421 ,Left ,65,0164629183176 ,42,3544990739181 ,76,7947150245595
26.9600628 ,Left ,64,9030489748735 ,42,3486098967691 ,76,7816423213145
26.9825438 ,Left ,64,7984827965348 ,42,3335197008796 ,76,7775616613736
27.0034921 ,Left ,64,7197697502703 ,42,3261129308278 ,76,7666885126896
27.0200851 ,Left ,64,685147947111 ,42,3239717133297 ,76,7422933615529
27.0428725 ,Left ,64,6768303738432 ,42,3145232852961 ,76,7055226452337
27.0634478 ,Left ,64,6605816424357 ,42,2981235875557 ,76,6805759265541
27.0798753 ,Left ,64,6475603103444 ,42,2835520214845 ,76,6798794259607
27.1022585 ,Left ,64,6329957050841 ,42,2947598924189 ,76,7005341626194
27.1255477 ,Left ,64,6371282346336 ,42,3088903127684 ,76,7210060117063
27.1400641 ,Left ,64,6485916385656 ,42,2978326215253 ,76,7453476221333
27.1624318 ,Left ,64,6510991287169 ,42,2648780090312 ,76,7618450294387
27.1854523 ,Left ,64,6527042496754 ,42,2186560992759 ,76,7732316229574
27.200094 ,Left ,64,6491710924845 ,42,1881935997544 ,76,7531238599589
27.2224844 ,Left ,64,630658290867 ,42,1628333015814 ,76,7167877275921
27.245007 ,Left ,64,6060155140016 ,42,1339944601244 ,76,6737553592858
27.2593318 ,Left ,64,5576090367324 ,42,1276839514346 ,76,6319979418595
27.2825093 ,Left ,64,535233659256 ,42,1433195391801 ,76,582514397502
27.304937 ,Left ,64,5095618522414 ,42,1658038697054 ,76,5334686103542
27.3192202 ,Left ,64,4628144159638 ,42,1925847780426 ,76,5088463499945
27.3424365 ,Left ,64,4462521576407 ,42,2066576803208 ,76,4799839856334
27.364839 ,Left ,64,4219330300453 ,42,206447659713 ,76,4413348662107
27.3792078 ,Left ,64,3902929709601 ,42,2185224547672 ,76,3959111621224
27.402234 ,Left ,64,3590287610557 ,42,2432934487985 ,76,3428771896765
27.4249457 ,Left ,64,3354281959761 ,42,2492140087053 ,76,2840897351729
27.4392862 ,Left ,64,3260080309821 ,42,2152878069059 ,76,2540088747798
27.4623872 ,Left ,64,3280555503163 ,42,1870450805744 ,76,2510878821184
27.4847526 ,Left ,64,3328283338474 ,42,183167862417 ,76,2442848135248
27.499176 ,Left ,64,3586488229395 ,42,1810207468147 ,76,2143501705015
27.5224202 ,Left ,64,3870293539462 ,42,1616033271823 ,76,1808093369718
27.5451511 ,Left ,64,4280402867392 ,42,1250408802185 ,76,1502563373867
27.559454 ,Left ,64,4734903201581 ,42,0777367152344 ,76,1109864644733
27.5827059 ,Left ,64,5026637170451 ,42,0594266655258 ,76,0518774387161
27.605067 ,Left ,64,5193997986169 ,42,0686478551469 ,75,9767986494883
27.6262938 ,Left ,64,5334776217204 ,42,0708228731702 ,75,8907267454967
27.6425587 ,Left ,64,5413288445371 ,42,0609670408725 ,75,8052072857504
27.6648559 ,Left ,64,5361195668739 ,42,0577938356795 ,75,7244409364011
27.6858717 ,Left ,64,5131518744719 ,42,0661699842261 ,75,641601811035
27.7021243 ,Left ,64,4971625672028 ,42,0795765231535 ,75,551793571246
27.7248448 ,Left ,64,4784543993674 ,42,0831532444291 ,75,4735308509019
27.7460176 ,Left ,64,4406259188097 ,42,0782885482851 ,75,4102938178715
27.7624635 ,Left ,64,3933605425486 ,42,0654781841396 ,75,353404414939
27.785016 ,Left ,64,3489102305776 ,42,0439418303455 ,75,2994036950876
27.8060059 ,Left ,64,3132734199198 ,42,030271133155 ,75,2463424441375
27.8223764 ,Left ,64,2789277287555 ,42,046474278055 ,75,1903275836379
27.8449097 ,Left ,64,2181395032927 ,42,0950608545124 ,75,1436975765341
27.865764 ,Left ,64,1498605434617 ,42,1760590339127 ,75,1175216529424
27.8823294 ,Left ,64,0976814661082 ,42,2690393968927 ,75,1063070052093
27.9046288 ,Left ,64,0181741830776 ,42,3528149058301 ,75,131694583713
27.926558 ,Left ,63,9675014553454 ,42,41969443544 ,75,1815841268291
27.9428862 ,Left ,63,947377391254 ,42,4512738056184 ,75,2658889255453
27.965014 ,Left ,63,890869812695 ,42,4739852600206 ,75,3813301089033
27.9858933 ,Left ,63,8800709087179 ,42,5105545227134 ,75,5054303143912
28.0015755 ,Left ,63,9300004877809 ,42,5430477628039 ,75,6278263020266
28.0248495 ,Left ,64,0037304010106 ,42,6194965462831 ,75,7291317912326
28.0459453 ,Left ,64,1147161846734 ,42,7437087031107 ,75,8413802955208
28.0688045 ,Left ,64,2827650822963 ,42,9085667400013 ,75,9524122869696
28.0852153 ,Left ,64,4739932205789 ,43,0441681652555 ,76,0756865966952
28.1077235 ,Left ,64,7136774270815 ,43,1606037914621 ,76,2270944373216
28.1219503 ,Left ,64,8760416868091 ,43,2514672731236 ,76,3927522569705
28.1463477 ,Left ,65,0199935346567 ,43,3376426891865 ,76,5623873913666
28.1674119 ,Left ,65,1767945436107 ,43,381544851363 ,76,7499586274488
28.1816154 ,Left ,65,3663540840603 ,43,3906428971752 ,76,9446172902271
28.2048927 ,Left ,65,54907167811 ,43,3668379560069 ,77,1551016063701
28.2273417 ,Left ,65,743809859853 ,43,3330587444012 ,77,3456487121774
28.2419096 ,Left ,65,9018438588046 ,43,2967431731506 ,77,5061046704379
28.2650209 ,Left ,66,0365066142664 ,43,2676939371098 ,77,6195530006669
28.2874487 ,Left ,66,1583704777035 ,43,2308170086311 ,77,6907516127807
28.2930641 ,Left ,66,2423861725951 ,43,1638187171089 ,77,742896413347
28.3093818 ,Left ,66,2744603931573 ,43,0820162811514 ,77,7694348217878
28.3305953 ,Left ,66,2728206475866 ,42,9935927214364 ,77,7708758012174
28.3528498 ,Left ,66,2654810129511 ,42,9182772924169 ,77,7454160979849
28.3707257 ,Left ,66,2339211487704 ,42,8580779829704 ,77,7167752495075
28.3906485 ,Left ,66,1848390594935 ,42,8015659318609 ,77,6851413961808
28.4131534 ,Left ,66,1043618284991 ,42,7369991092653 ,77,6433590466269
28.4308132 ,Left ,65,9950312753271 ,42,6482773569809 ,77,6025911313354
28.4506225 ,Left ,65,838699834703 ,42,5494516776796 ,77,5834935061463
28.4731125 ,Left ,65,6474208851434 ,42,4248569367353 ,77,6016150250828
28.4908051 ,Left ,65,5384184226632 ,42,2995151488607 ,77,6400997555231
28.5104158 ,Left ,65,4790900209761 ,42,2405590229189 ,77,596663696744
28.5331593 ,Left ,65,3873644064537 ,42,0711168769785 ,77,6017757036785
28.550731 ,Left ,65,4843358033979 ,42,0803493618619 ,77,5879842781186
28.570368 ,Left ,65,3385548535403 ,42,1254130290526 ,77,5533143290796
28.593017 ,Left ,65,2956262026773 ,42,1816980073236 ,77,4934319673619
28.6104299 ,Left ,65,3688133277313 ,42,2467866129106 ,77,4393349145232
28.6307998 ,Left ,65,3584796948357 ,42,2649211921473 ,77,4685828067391
28.6529018 ,Left ,65,3326504885608 ,42,2643234625826 ,77,5439504319407
28.6708545 ,Left ,65,3724740192151 ,42,211684297238 ,77,5952365990404
28.6932898 ,Left ,65,3756241077204 ,42,1247955181183 ,77,698302557897
28.7131112 ,Left ,65,4380386953484 ,42,1772611057402 ,77,7939924214006
28.735451 ,Left ,65,4227917092589 ,42,3284410895032 ,77,8285163990038
28.7506892 ,Left ,65,4718398643672 ,42,5081465363485 ,77,8225623513817
28.7729282 ,Left ,65,5771696171895 ,42,6827762560377 ,77,8432031092239
28.7956607 ,Left ,65,675621583003 ,42,8196741437224 ,77,8956702309512
28.8105633 ,Left ,65,6692405397539 ,42,8885474155546 ,77,9585156072901
28.8331171 ,Left ,65,6892020683463 ,42,9531312819366 ,77,9922711295813
28.8553672 ,Left ,65,702443798576 ,42,9930826964097 ,78,0167861437665
28.8704447 ,Left ,65,6887482369541 ,43,0152512655702 ,78,0406704229768
28.8929818 ,Left ,65,7053491001364 ,43,0266754942227 ,78,0446912888193
28.9094352 ,Left ,65,6916222957474 ,43,0180401291664 ,78,0310425417521
28.9304857 ,Left ,65,6662592243941 ,43,0176647311725 ,77,9894634846708
28.9528378 ,Left ,65,607806280981 ,43,0430762001391 ,77,9227385568621
28.9753114 ,Left ,65,5609181962409 ,43,0854074315831 ,77,8262651452179
28.9903932 ,Left ,65,5379195203199 ,43,1147732849704 ,77,7275545535718
29.0127965 ,Left ,65,5125406417869 ,43,0942597090558 ,77,6678242498993
29.0353196 ,Left ,65,5074843202374 ,43,0691658218016 ,77,6456859183647
29.0503139 ,Left ,65,4851673527047 ,43,0616381232817 ,77,6005850961165
29.0727555 ,Left ,65,4285688150468 ,43,0326729625005 ,77,5288638270097
29.0953378 ,Left ,65,3902850184586 ,43,0084995916259 ,77,4569483914292
29.1103744 ,Left ,65,3712525540266 ,43,0403595510645 ,77,4173128952031
29.1330848 ,Left ,65,3417746623614 ,43,0707744528223 ,77,3939663939041
29.155279 ,Left ,65,3405986196981 ,43,0590298364963 ,77,369592340376
29.1702825 ,Left ,65,3408061486763 ,43,043454327944 ,77,4213362631927
29.1928049 ,Left ,65,2853325797921 ,43,1021952271097 ,77,4939213807652
29.215365 ,Left ,65,2816055176406 ,43,2321984265572 ,77,530851168918
29.2317109 ,Left ,65,3881059796245 ,43,3716214162796 ,77,5135693682022
29.2528116 ,Left ,65,5176266537082 ,43,4763972768784 ,77,5003921772966
29.2752292 ,Left ,65,6052037155976 ,43,5576624532548 ,77,5014457099734
29.2918977 ,Left ,65,6167319139839 ,43,5908657497643 ,77,4827186695881
29.312859 ,Left ,65,6701654499341 ,43,5906993524626 ,77,429611050941
29.3353598 ,Left ,65,6866095679223 ,43,5429656300637 ,77,3696682235835
29.3517417 ,Left ,65,7058671876469 ,43,4665177162775 ,77,3291316928836
29.3726134 ,Left ,65,7066701877754 ,43,3698209990386 ,77,3251278235869
29.3949292 ,Left ,65,6970003651107 ,43,2391356770207 ,77,3596321460352
29.4102793 ,Left ,65,7371210355038 ,43,1232478178906 ,77,3851364180571
29.432662 ,Left ,65,7660773175548 ,43,0332998309033 ,77,4043043346556
29.4553473 ,Left ,65,8162601685327 ,42,9802246629492 ,77,398823961478
29.4732922 ,Left ,65,8597873025423 ,42,9747503662773 ,77,3850596545553
29.4927762 ,Left ,65,8740050319899 ,43,0405371771902 ,77,3496547388108
29.5151634 ,Left ,65,9480698277989 ,43,1421219742931 ,77,2822340775807
29.5333682 ,Left ,65,9865509657653 ,43,2079602668515 ,77,2064821720721
29.5527494 ,Left ,65,9376624967172 ,43,2310721558726 ,77,1636308837352
29.5751076 ,Left ,65,8530454924403 ,43,2435044353137 ,77,1554197299907
29.590289 ,Left ,65,7833417634902 ,43,2313512535906 ,77,1391664030966
29.6128474 ,Left ,65,7728434166343 ,43,1476027927231 ,77,1252832782398
29.6353861 ,Left ,65,7798898638389 ,42,9971886316261 ,77,1738950661112
29.651758 ,Left ,65,7105091586458 ,43,0834015425637 ,77,1989113011084
29.6729995 ,Left ,65,6099394705767 ,43,2109501848177 ,77,2109720892231
29.6954546 ,Left ,65,7091327617985 ,43,2104364695838 ,77,2036048726649
29.7117005 ,Left ,65,8373288236355 ,43,105810143717 ,77,2251242254426
29.7331084 ,Left ,65,9273707761225 ,42,9032852276127 ,77,2483902363863
29.7552963 ,Left ,65,9602080517543 ,42,6398213190611 ,77,2659735760397
29.7717519 ,Left ,65,9134019040984 ,42,3444707856961 ,77,269741340201
29.7930353 ,Left ,65,8187186290754 ,42,1142868219331 ,77,264140430148
29.8152069 ,Left ,65,7786741226279 ,42,0095906992522 ,77,1871716649543
29.8317013 ,Left ,65,7884955821097 ,41,8973524619699 ,77,1570381910696
29.8528949 ,Left ,65,7827718804607 ,41,7529862681236 ,77,2681434092143
29.8752756 ,Left ,65,7400785331496 ,41,8205238553416 ,77,3856743487184
29.8917652 ,Left ,65,6870566407692 ,42,0942977101151 ,77,4243822384458
29.9130266 ,Left ,65,6462654484669 ,42,3466263446466 ,77,4747955579569
29.9353313 ,Left ,65,7122985336174 ,42,4961219232087 ,77,5335634302628
29.9533645 ,Left ,65,7472422759775 ,42,5208065142807 ,77,6049757190559
29.9729983 ,Left ,65,7517958861492 ,42,4796282707294 ,77,6620214306379
29.9953404 ,Left ,65,7491187980532 ,42,3828865123871 ,77,6735476006294
30.0133965 ,Left ,65,7297038959251 ,42,2258021891685 ,77,6392325132376
30.0324275 ,Left ,65,7176419196617 ,42,0415521241462 ,77,5726353570581
30.0550795 ,Left ,65,6844633972109 ,41,8302874874483 ,77,4904922351395
30.0732125 ,Left ,65,6376428138127 ,41,6213641780067 ,77,4214613429161
30.0925415 ,Left ,65,5840539141045 ,41,4245280434382 ,77,3360404677699
30.1151276 ,Left ,65,5499874786851 ,41,2425845130403 ,77,2462020178492
30.1331948 ,Left ,65,5106565861944 ,41,1490217228372 ,77,1446856386189
30.1527692 ,Left ,65,4445043001355 ,41,1484632400695 ,77,0392355214919
30.1753867 ,Left ,65,3740006923331 ,41,1685656998463 ,76,943018219425
30.1933556 ,Left ,65,3073087549298 ,41,1874299717746 ,76,8687876910564
30.2129372 ,Left ,65,253596713621 ,41,2082964254114 ,76,7893308647945
30.2355315 ,Left ,65,150620999548 ,41,1885000642325 ,76,7360187423088
30.2535135 ,Left ,65,068929904814 ,41,1566204858568 ,76,6880914357506
30.2729735 ,Left ,64,9787985798311 ,41,1441587441692 ,76,6303482437651
30.29562 ,Left ,64,8615769301323 ,41,132930022287 ,76,5695350034859
30.3134111 ,Left ,64,7495748982795 ,41,1287931015916 ,76,5096913667848
30.333167 ,Left ,64,6539244080899 ,41,1452229618967 ,76,4476416003275
30.3552508 ,Left ,64,5551387353528 ,41,1894229065875 ,76,3995253162112
30.3732858 ,Left ,64,4789237532979 ,41,2628871103346 ,76,3423023725209
30.3957611 ,Left ,64,403941311684 ,41,3655604589645 ,76,2910335673382
30.4155644 ,Left ,64,3392920163268 ,41,5148908389571 ,76,2433854190294
30.4332334 ,Left ,64,2774599719933 ,41,6763106871295 ,76,2077172572941
30.4543734 ,Left ,64,2415905166112 ,41,821678420299 ,76,1992656376976
30.475472 ,Left ,64,2708677611574 ,41,9165673897023 ,76,1880771572194
30.4933455 ,Left ,64,3188216871716 ,41,9557340744913 ,76,2042279179149
30.5142624 ,Left ,64,2873449246678 ,42,0255121272022 ,76,2939912800257
30.5354403 ,Left ,64,3290099040221 ,42,0941071232386 ,76,3538419786292
30.5532838 ,Left ,64,3639255158753 ,42,1026380804131 ,76,4702989691232
30.574388 ,Left ,64,4485187821412 ,42,160102797002 ,76,5883134678755
30.5956143 ,Left ,64,5036812904594 ,42,3371655496526 ,76,6545673562375
30.6132954 ,Left ,64,7081552685846 ,42,5515967443018 ,76,6601869006277
30.6342696 ,Left ,64,8759058377052 ,42,6938336232917 ,76,6838626063756
30.6556089 ,Left ,65,0014806828883 ,42,798225564327 ,76,7199364088561
30.6732963 ,Left ,65,1121344380882 ,42,8233057336122 ,76,7510481417544
30.6943392 ,Left ,65,1964721385217 ,42,7801339800685 ,76,7956495240434
30.7155579 ,Left ,65,2270235209791 ,42,6655272110333 ,76,8712910216569
30.7335473 ,Left ,65,2472719741366 ,42,5165666948258 ,76,9614056163501
30.7543771 ,Left ,65,1898194159506 ,42,3218978088411 ,77,0825491022249
30.7756316 ,Left ,65,1161803787161 ,42,1007068056435 ,77,2263134413714
30.7951371 ,Left ,65,199982523558 ,41,9228035581799 ,77,3115218753286
30.8143799 ,Left ,65,2487900084928 ,41,7895213570305 ,77,3962213826072
30.835226 ,Left ,65,3223337293224 ,41,8673119107978 ,77,4541057081037
30.8534123 ,Left ,65,2568045046135 ,42,0072658083993 ,77,479633433564
30.8757569 ,Left ,65,2733866945748 ,42,1431477171252 ,77,4650276593834
30.8955391 ,Left ,65,3357714494967 ,42,2527118512246 ,77,460461767782
30.9132959 ,Left ,65,3643016154365 ,42,318501675335 ,77,4818123553273
30.9359892 ,Left ,65,255295703852 ,42,3248184210589 ,77,5436197983544
30.9553023 ,Left ,65,1887028228209 ,42,2364987985457 ,77,6140883568664
30.9733481 ,Left ,65,1437093166473 ,42,2300043036429 ,77,7491063999337
30.9957905 ,Left ,65,0756020635846 ,42,4155196678126 ,77,8634510825218
31.0155084 ,Left ,65,0278827451155 ,42,606854233368 ,77,9244911746911
31.0332158 ,Left ,65,0216446957449 ,42,7661337405554 ,77,945368754382
31.0557938 ,Left ,65,0097163367303 ,42,9513024761396 ,77,9502419473858
31.0753625 ,Left ,64,9782961863944 ,43,0718775637956 ,77,9644247695917
31.0932592 ,Left ,64,923485650341 ,43,1221415230951 ,78,0063666941322
31.1158007 ,Left ,64,8194616973116 ,43,0926291772367 ,78,1010121172804
31.1353849 ,Left ,64,7295667041771 ,43,0354673344361 ,78,1994755870211
31.1531684 ,Left ,64,7265912903123 ,42,9173283828633 ,78,2327255634377
31.1757888 ,Left ,64,7403779643258 ,42,9015475388839 ,78,2269666231363
31.1956479 ,Left ,64,6914123862453 ,43,0335436099393 ,78,1649054257969
31.2133198 ,Left ,64,6853982230615 ,43,199275238703 ,78,065595108922
31.235758 ,Left ,64,7753307181657 ,43,3606162620327 ,77,9708474315577
31.2553509 ,Left ,64,7884122912238 ,43,4686454272524 ,77,9185163451903
31.2732527 ,Left ,64,7515681250451 ,43,5276014234854 ,77,8837880505072
31.2958778 ,Left ,64,7266834736487 ,43,525807789521 ,77,8686388347593
31.315359 ,Left ,64,7384883478179 ,43,4843390522206 ,77,8695468110141
31.3351507 ,Left ,64,7756728168485 ,43,412878909171 ,77,8783410603004
31.355785 ,Left ,64,8173543740904 ,43,3658423861725 ,77,8633890816909
31.3767783 ,Left ,64,8594290633652 ,43,3298060026751 ,77,8359021455195
31.3933313 ,Left ,64,9332475129266 ,43,2962333047366 ,77,8275682120646
31.4157571 ,Left ,64,9970813031739 ,43,2618175233797 ,77,8340418727063
31.4354615 ,Left ,65,0260867032991 ,43,2064906143604 ,77,8474993822999
31.4532485 ,Left ,65,0846708543655 ,43,1145245979122 ,77,8668620255083
31.474926 ,Left ,65,1510546897086 ,43,0089096798582 ,77,8953119696404
31.4975702 ,Left ,65,1671409223918 ,42,8911250222676 ,77,9350647612607
31.511886 ,Left ,65,231278855379 ,42,751778507802 ,77,941223653589
31.5349746 ,Left ,65,2782770965928 ,42,585005416458 ,77,9294560351311
31.5575292 ,Left ,65,353674853496 ,42,4808522308759 ,77,8934134197503
31.5720069 ,Left ,65,414318569553 ,42,4929969404033 ,77,8292034886532
31.5949959 ,Left ,65,4227204488684 ,42,5884880818345 ,77,7572758906608
31.6250089 ,Left ,65,3709144481672 ,42,7323683654162 ,77,7084407943953
31.6385381 ,Left ,65,2932308256493 ,42,8872591946602 ,77,6781940476143
31.6550073 ,Left ,65,2001905060276 ,43,0535533296054 ,77,6680925671184
31.677436 ,Left ,65,1028993898475 ,43,2270658699355 ,77,660347511093
31.6987262 ,Left ,65,0237338161182 ,43,3817705319185 ,77,6428621146631
31.7150066 ,Left ,64,986843151282 ,43,4736310256117 ,77,5993741876416
31.7374198 ,Left ,64,8936406056616 ,43,5379504327545 ,77,5916817119898
31.7586857 ,Left ,64,8963778793448 ,43,4914507127339 ,77,6379910572765
31.7747626 ,Left ,64,9828036614042 ,43,5518749723926 ,77,647550426716
31.7973259 ,Left ,65,0121524118265 ,43,6328220856055 ,77,5886095966413
31.8183408 ,Left ,65,0715201927362 ,43,5820013222412 ,77,5367115892894
31.8348253 ,Left ,65,1254402890899 ,43,4220960987065 ,77,496224893874
31.8575258 ,Left ,65,1685333466387 ,43,1787158236333 ,77,4688001826586
31.8784871 ,Left ,65,2035083661879 ,42,8437781172867 ,77,4883238497765
31.8955646 ,Left ,65,213037071122 ,42,4929282530225 ,77,5144959597175
31.9174964 ,Left ,65,1964527088759 ,42,2044007212395 ,77,5518431674772
31.9384675 ,Left ,65,1836375789549 ,41,9585925674946 ,77,6267789828115
31.9548339 ,Left ,65,1821772556036 ,41,7399003548966 ,77,798851549484
31.9775928 ,Left ,65,1696325537032 ,41,7070765972807 ,77,9375431627085
31.9987184 ,Left ,65,1502327662209 ,41,9023045906255 ,77,971680060217
32.014873 ,Left ,65,1834710752027 ,42,0958169656506 ,78,0202523148296
32.0374588 ,Left ,65,2365874166681 ,42,2226561590457 ,78,122130101913
32.0585356 ,Left ,65,2709278216814 ,42,2757279005401 ,78,2495812720418
32.0749019 ,Left ,65,2578067274468 ,42,2621313283716 ,78,3507972754879
32.097352 ,Left ,65,2107604445611 ,42,2411374954198 ,78,4008124081417
32.1183561 ,Left ,65,1417600971822 ,42,1993411588255 ,78,4265095922248
32.1347355 ,Left ,65,1117115911398 ,42,1003058904295 ,78,4234796125198
32.1571973 ,Left ,65,0760221560567 ,41,9651840565779 ,78,3704095580867
32.1799128 ,Left ,64,9790478422386 ,41,8612336872543 ,78,2870355389191
32.194874 ,Left ,64,8956935739528 ,41,826866911137 ,78,2180114698507
32.2172834 ,Left ,64,8073492577451 ,41,8313428313345 ,78,1358221719264
32.2384505 ,Left ,64,7250901473633 ,41,8201797507075 ,78,0519781881816
32.2548521 ,Left ,64,6046399541207 ,41,7926617339657 ,77,9647191158304
32.2772884 ,Left ,64,4743494114483 ,41,7372918859552 ,77,9072852832748
32.2984659 ,Left ,64,3718779836218 ,41,7049125816805 ,77,8540085294775
32.3150071 ,Left ,64,2525124780701 ,41,6890436669659 ,77,7618707874914
32.3373055 ,Left ,64,1287952018187 ,41,6425910227637 ,77,6560842503885
32.3584999 ,Left ,64,0462172500916 ,41,6128077009388 ,77,5823381377673
32.3747939 ,Left ,63,9387935294021 ,41,5897705848505 ,77,5378971665677
32.3975381 ,Left ,63,8235718454356 ,41,5668979963313 ,77,4936012897587
32.4184322 ,Left ,63,7423921280391 ,41,5537880112086 ,77,4254706579978
32.4347444 ,Left ,63,6632897419108 ,41,5649562622229 ,77,3433732301875
32.4573276 ,Left ,63,5968653111543 ,41,5881471365675 ,77,2523678043029
32.4784928 ,Left ,63,5432956528079 ,41,6125698075191 ,77,1697269064997
32.4948834 ,Left ,63,498840868903 ,41,6194559441794 ,77,0959226948464
32.5173015 ,Left ,63,4645424604497 ,41,6180939163213 ,77,0355761835677
32.5400245 ,Left ,63,4504120558102 ,41,5941406310502 ,76,9889721850606
32.5610576 ,Left ,63,4703238222567 ,41,562998858161 ,76,9275416078574
32.5776661 ,Left ,63,487910753139 ,41,5298635970262 ,76,849046489043
32.5999112 ,Left ,63,5604461290181 ,41,5026945377562 ,76,7218814238295
32.6210896 ,Left ,63,6208254256398 ,41,5096172726755 ,76,5901112469301
32.6374948 ,Left ,63,6662700542626 ,41,5655994452373 ,76,4939294190365
32.6600356 ,Left ,63,7126005304127 ,41,6855489662642 ,76,4606534123041
32.6812467 ,Left ,63,7351725232099 ,41,8556761379386 ,76,49229038958
32.6976738 ,Left ,63,7031307260775 ,42,0250767845189 ,76,570126874786
32.7199622 ,Left ,63,7136436875359 ,42,1455562319401 ,76,6818839849187
32.7412479 ,Left ,63,7213225875964 ,42,2608405165248 ,76,8439818775832
32.760738 ,Left ,63,7630787731797 ,42,2373584323756 ,77,0162784020757
32.7779231 ,Left ,63,831889199954 ,42,1989956075796 ,77,2396040068968
32.7942715 ,Left ,63,9017713726514 ,42,2945492806233 ,77,4077022325057
32.8167082 ,Left ,64,1806096036917 ,42,650810460573 ,77,3859364078049
32.8376664 ,Left ,64,4977395126431 ,43,1036858970851 ,77,3377977743748
32.8542767 ,Left ,64,8754045427895 ,43,3995422337821 ,77,2899665765437
32.8768945 ,Left ,64,7845699089176 ,43,455623493962 ,77,419070524958
32.8979599 ,Left ,64,8032586891445 ,43,638948086077 ,77,5051666524079
32.9141731 ,Left ,65,0665089723427 ,43,748249679562 ,77,4930709357175
32.9366732 ,Left ,64,9030591734295 ,43,6112558667741 ,77,6658624795801
32.9579192 ,Left ,65,0997593475271 ,43,604285812165 ,77,7615442123076
32.9742541 ,Left ,65,1899063452412 ,43,4703936191204 ,77,8935175784869
32.9968706 ,Left ,65,2582595004659 ,43,3131197812874 ,77,9710162295485
33.01787 ,Left ,65,3654209571462 ,43,1597540977301 ,77,9805366373448
33.0341801 ,Left ,65,429367297961 ,43,0352735791717 ,77,964979129528
33.0567601 ,Left ,65,4085979749909 ,42,9573841989376 ,77,9563509956765
33.0776536 ,Left ,65,4486870907737 ,42,9149702461353 ,77,9547802625606
33.0940144 ,Left ,65,4644169722867 ,42,9531938808447 ,78,0150868194148
33.117498 ,Left ,65,4164383222149 ,42,774937536942 ,78,1399019209086
33.1380805 ,Left ,65,4375960978831 ,42,6852117697911 ,78,224437066136
33.1546544 ,Left ,65,3879802798553 ,42,7935596067603 ,78,2727156173507
33.1767978 ,Left ,65,3033029404365 ,42,8840933277507 ,78,2947263033157
33.1975543 ,Left ,65,3727562857984 ,42,9277884139357 ,78,2945065616148
33.2142288 ,Left ,65,4013415033263 ,42,9438492090687 ,78,2931806243924
33.2365143 ,Left ,65,419098298483 ,42,8780424271633 ,78,2910195016434
33.2575864 ,Left ,65,3028333944513 ,42,8019933414217 ,78,3508263753845
33.2742035 ,Left ,65,1622849902778 ,42,7576063779975 ,78,3714864174977
33.2966171 ,Left ,65,1306690378764 ,42,6832600126837 ,78,4048333702067
33.3176988 ,Left ,65,0751635061466 ,42,6702832580921 ,78,4921431753105
33.3341896 ,Left ,65,0791409349108 ,42,7642467806796 ,78,5478317713233
33.3567966 ,Left ,65,0833767956549 ,42,928952276104 ,78,5557483274848
33.3777623 ,Left ,65,0700705173685 ,43,0933158502007 ,78,5356539448259
33.3939896 ,Left ,65,085888667231 ,43,2365525578287 ,78,5288735360421
33.4167806 ,Left ,65,0544855667287 ,43,3261607575222 ,78,5107793857998
33.4377359 ,Left ,64,9995810699307 ,43,3602310426298 ,78,5258475973998
33.4542385 ,Left ,64,9491318979687 ,43,3360483628263 ,78,5722868141726
33.4766597 ,Left ,64,8515881804242 ,43,2831686124236 ,78,6266317771863
33.4978864 ,Left ,64,8187874734489 ,43,1738515781727 ,78,6888343387689
33.5142738 ,Left ,64,8752351160922 ,43,0549299312023 ,78,7812893167836
33.5367017 ,Left ,64,905796187989 ,43,1285397049153 ,78,8034213928648
33.5575159 ,Left ,64,8607113964152 ,43,2592962896971 ,78,7615433426303
33.573996 ,Left ,64,9623011507065 ,43,3907115822915 ,78,661322565619
33.596723 ,Left ,65,0848792989529 ,43,4885488543005 ,78,5717780427488
33.6176284 ,Left ,65,1246083525169 ,43,5606315109273 ,78,5106960528242
33.6340057 ,Left ,65,1079361714637 ,43,5859004498149 ,78,4522195837665
33.6568774 ,Left ,65,0813083114898 ,43,5766139874688 ,78,3984677069087
33.6801688 ,Left ,65,085856577057 ,43,5222212933193 ,78,3530227060355
33.7011127 ,Left ,65,0873940391218 ,43,4508394704117 ,78,3123587442308
33.7251605 ,Left ,65,0551148189553 ,43,3995667211354 ,78,2651058230446
33.7400176 ,Left ,64,9994654581332 ,43,3398868777566 ,78,2420498779911
33.7624804 ,Left ,65,0282271829301 ,43,2372055464185 ,78,2383672559916
