timestamp,event,roll,pitch,yaw
0.0293462 ,Left ,69,9022834673055 ,48,2724805221502 ,69,4701987452199
0.0517338 ,Left ,69,9022834673055 ,48,2724805221502 ,69,4701987452199
0.0817098 ,Left ,69,9022834673055 ,48,2724805221502 ,69,4701987452199
0.1043104 ,Left ,69,9022834673055 ,48,2724805221502 ,69,4701987452199
0.1267084 ,Left ,69,9036972199758 ,48,2737401309096 ,69,4716352131223
0.1419053 ,Left ,69,903512859533 ,48,2747245505388 ,69,4694022457215
0.1644147 ,Left ,69,903512859533 ,48,2747245505388 ,69,4694022457215
0.1869287 ,Left ,69,9036972199758 ,48,2737401309096 ,69,4716352131223
0.20183 ,Left ,69,900018052125 ,48,2734399012847 ,69,4699993470704
0.2242999 ,Left ,69,900018052125 ,48,2734399012847 ,69,4699993470704
0.2469698 ,Left ,69,900018052125 ,48,2734399012847 ,69,4699993470704
0.261884 ,Left ,69,900018052125 ,48,2734399012847 ,69,4699993470704
0.2845172 ,Left ,69,900018052125 ,48,2734399012847 ,69,4699993470704
0.3068778 ,Left ,69,900018052125 ,48,2734399012847 ,69,4699993470704
0.3216317 ,Left ,69,900018052125 ,48,2734399012847 ,69,4699993470704
0.3441703 ,Left ,69,9017418939243 ,48,2752851645961 ,69,4717624289773
0.3748902 ,Left ,69,901431933054 ,48,2746995017755 ,69,4714358306603
0.3898138 ,Left ,69,901431933054 ,48,2746995017755 ,69,4714358306603
0.4117077 ,Left ,69,9017418939243 ,48,2752851645961 ,69,4717624289773
0.4418084 ,Left ,69,8994767761809 ,48,2762445253281 ,69,4715630553194
0.4641946 ,Left ,69,8975218586729 ,48,2777895325725 ,69,4716902743606
0.4866611 ,Left ,69,8820598457773 ,48,2893098381919 ,69,4666788171522
0.5017278 ,Left ,69,8634269609203 ,48,3001247813619 ,69,4625933611603
0.5242987 ,Left ,69,8372928749567 ,48,3111702826439 ,69,4612711393404
0.5470052 ,Left ,69,8044621569934 ,48,3227706324385 ,69,4573450670937
0.5619016 ,Left ,69,7635135515562 ,48,3360634116965 ,69,4535176867396
0.5843288 ,Left ,69,7236771604724 ,48,3437208098881 ,69,4466014089195
0.6070071 ,Left ,69,6895002093755 ,48,3567376835594 ,69,431013206005
0.6219358 ,Left ,69,6695925870839 ,48,3664124741191 ,69,4194007410668
0.6441133 ,Left ,69,6279067204378 ,48,4302153008789 ,69,4416992723661
0.666673 ,Left ,69,5382784144439 ,48,5334547339208 ,69,4628381017594
0.689219 ,Left ,69,4382168643933 ,48,6585679528496 ,69,4910020426779
0.7042868 ,Left ,69,3865445508772 ,48,7315374749634 ,69,5526072615234
0.7269251 ,Left ,69,31586707274 ,48,8442963384337 ,69,6144473504465
0.7494829 ,Left ,69,3527706802837 ,48,980285481287 ,69,6419575232922
0.7642335 ,Left ,69,391741927412 ,49,0601776978238 ,69,6441022481093
0.7866481 ,Left ,69,3163262607398 ,49,0418012370462 ,69,6049164299783
0.8092167 ,Left ,69,2348236143483 ,48,9639878283594 ,69,558329397093
0.8240983 ,Left ,69,1822131562968 ,48,8775032702431 ,69,5167369992722
0.8473607 ,Left ,69,1531630907484 ,48,7794169783787 ,69,4726210854452
0.8702337 ,Left ,69,1304313281483 ,48,7129856948691 ,69,458713624084
0.8843218 ,Left ,69,1335504101976 ,48,6765092883386 ,69,4622448737356
0.9068371 ,Left ,69,1666951620216 ,48,6012595963789 ,69,4677560414275
0.9367249 ,Left ,69,1531509023502 ,48,4946378206932 ,69,4553235446836
0.9517241 ,Left ,69,111577029843 ,48,4462587606162 ,69,4428869166616
0.9741715 ,Left ,69,1235654887341 ,48,4182180624239 ,69,426537308842
0.9890961 ,Left ,69,1465290805296 ,48,427871668313 ,69,4166580975039
1.0041512 ,Left ,69,1382214845939 ,48,4490609544371 ,69,4122383459177
1.0273166 ,Left ,69,1493513572506 ,48,4658336747226 ,69,4048159889459
1.0499626 ,Left ,69,1353225628066 ,48,433889520862 ,69,3890227102645
1.0647484 ,Left ,69,1035856851681 ,48,3450109347624 ,69,3601233122578
1.0869764 ,Left ,69,1087264071219 ,48,2936714034379 ,69,3636697541873
1.1095458 ,Left ,69,0419209385761 ,48,3381413499675 ,69,4052673251222
1.1243476 ,Left ,69,0291063394588 ,48,4542364090323 ,69,4237083214637
1.1468331 ,Left ,69,0588232621246 ,48,586297188791 ,69,4862325460146
1.169368 ,Left ,68,9682292331708 ,48,7469874071276 ,69,5350009977994
1.1843733 ,Left ,68,9182936116749 ,48,8605885922166 ,69,5615368785104
1.2067939 ,Left ,68,9317669383791 ,48,8893615932065 ,69,5663329075227
1.2293928 ,Left ,68,8951199763379 ,48,8801660591408 ,69,5903375614932
1.2444068 ,Left ,68,7940060007585 ,48,8732838741075 ,69,6224547728743
1.2672235 ,Left ,68,7787501892092 ,48,8894003444915 ,69,6289018544705
1.2902994 ,Left ,68,803710497845 ,48,8788803164264 ,69,6098170310479
1.3044931 ,Left ,68,8117572764137 ,48,8358150611116 ,69,6230740878321
1.3271116 ,Left ,68,7186615646775 ,48,7991358217407 ,69,6219453000218
1.3495923 ,Left ,68,7348058589041 ,48,7612795894277 ,69,6190128585069
1.3645803 ,Left ,68,7385302951417 ,48,7859943749333 ,69,628064703544
1.3870167 ,Left ,68,7008494109202 ,48,9086918457211 ,69,6330176804348
1.4093116 ,Left ,68,7401117555371 ,49,0161664175417 ,69,6247752891062
1.424585 ,Left ,68,8077699459714 ,49,0510518721367 ,69,6172579463465
1.4470181 ,Left ,68,8134755575207 ,49,0358927875479 ,69,589276520059
1.4695961 ,Left ,68,8164384746705 ,49,0292431279877 ,69,5864039991205
1.4846072 ,Left ,68,7461627937907 ,49,0603660934862 ,69,5694194553748
1.5066815 ,Left ,68,7539940894409 ,49,1146881413602 ,69,5217745885996
1.5291932 ,Left ,68,7886870462258 ,49,1313860230221 ,69,4441197737245
1.5441313 ,Left ,68,7775692055034 ,49,14312071035 ,69,3368465545653
1.5671711 ,Left ,68,6840365517053 ,49,1357701234471 ,69,2074884673077
1.5898722 ,Left ,68,6099779994389 ,49,1210292034231 ,69,0996973210556
1.6120023 ,Left ,68,5518049917657 ,49,0967824558422 ,69,041920464153
1.6270098 ,Left ,68,5374976517491 ,49,0182947100132 ,69,0108491331735
1.6494963 ,Left ,68,5410842446782 ,48,8798955022032 ,68,9743187510583
1.6719258 ,Left ,68,4489431292778 ,48,7814010654693 ,69,0069571525396
1.6868502 ,Left ,68,5023625539478 ,48,8205006248269 ,69,0858962677551
1.709498 ,Left ,68,6179353543377 ,48,881956291521 ,69,1257027732263
1.73182 ,Left ,68,6802700639421 ,48,911637033682 ,69,1512863976012
1.7467401 ,Left ,68,6510999404646 ,48,881255178298 ,69,150815883446
1.769471 ,Left ,68,6420121987669 ,48,7694591494864 ,69,137547692244
1.7919471 ,Left ,68,6983917587193 ,48,6414188459904 ,69,1331151527724
1.8069989 ,Left ,68,6850395940779 ,48,5562403639652 ,69,1679075494971
1.8294185 ,Left ,68,6257111428773 ,48,4761348790597 ,69,1895933759432
1.8518203 ,Left ,68,6451209187935 ,48,3910234432613 ,69,1922289757642
1.8666518 ,Left ,68,7408057533549 ,48,3382451984429 ,69,2068007382378
1.8892177 ,Left ,68,7093172646647 ,48,3020474666022 ,69,2314031773042
1.904112 ,Left ,68,7338810902126 ,48,343801405755 ,69,2510969589509
1.9191826 ,Left ,68,7574426394684 ,48,399968264262 ,69,2654584058774
1.9417014 ,Left ,68,7723852251815 ,48,473598324714 ,69,2729731293084
1.9795011 ,Left ,68,8506259072251 ,48,5275415917687 ,69,2483035185331
2.0015397 ,Left ,68,8136472751537 ,48,5075794456565 ,69,2340495978741
2.0467106 ,Left ,68,8331368644237 ,48,4128559009276 ,69,1689248841535
2.0692922 ,Left ,68,8488612262848 ,48,362955311574 ,69,1401097767391
2.0991514 ,Left ,68,8885763106093 ,48,28142565651 ,69,1210047770789
2.1217923 ,Left ,68,9231349618688 ,48,2532597588321 ,69,1228491041761
2.1593018 ,Left ,69,0022588153151 ,48,1834749126611 ,69,1364139846221
2.1816794 ,Left ,69,0409063418512 ,48,1340505195275 ,69,1318778556419
2.2194716 ,Left ,69,0982822341276 ,48,0550126625074 ,69,1273088523531
2.2419258 ,Left ,69,1164160543214 ,48,0346605420884 ,69,1184908795082
2.2792548 ,Left ,69,1069022944744 ,48,018635153291 ,69,1069022944744
2.3016031 ,Left ,69,1122584610729 ,48,0184186108751 ,69,1060303677092
2.340048 ,Left ,69,0716387438808 ,47,9895778733315 ,69,0965768740669
2.3624149 ,Left ,69,0577094932256 ,47,9843220582504 ,69,113830975388
2.3992846 ,Left ,69,0248666729699 ,47,9943202178222 ,69,1536906289117
2.4217905 ,Left ,68,9977118533197 ,48,0116004431013 ,69,1596825656543
2.4595029 ,Left ,68,9854834268844 ,48,0263926739111 ,69,1349163904912
2.4818266 ,Left ,68,9607587183399 ,48,027867261688 ,69,1226351764368
2.5190122 ,Left ,68,9358709532516 ,48,040598318308 ,69,1059715011349
2.5422991 ,Left ,68,9346425624643 ,48,0535719575314 ,69,0963712274662
2.5793246 ,Left ,68,9098221100553 ,48,1598580225867 ,69,1907570578879
2.6019169 ,Left ,68,9234624585994 ,48,2384018093634 ,69,2448193164477
2.6400743 ,Left ,68,9465831525353 ,48,3577140475633 ,69,2830101795038
2.6698828 ,Left ,68,9495794671277 ,48,3657778144474 ,69,2633556659202
2.7071052 ,Left ,68,865897375149 ,48,231188994601 ,69,210001696221
2.7221484 ,Left ,68,8223426502707 ,48,1451235188035 ,69,1943613720641
2.7595245 ,Left ,68,7759421782713 ,48,0909468815432 ,69,2687825729081
2.7819595 ,Left ,68,8127293779058 ,48,1060232622671 ,69,276333930323
2.8270846 ,Left ,68,8246374784749 ,48,1435942491252 ,69,2586843386275
2.8869884 ,Left ,68,7763945913953 ,48,1582923883811 ,69,2453454841468
2.9096236 ,Left ,68,7222962772617 ,48,144199798518 ,69,2576247726096
2.9391555 ,Left ,68,6553907090219 ,48,1754651607752 ,69,2851153290293
2.9615985 ,Left ,68,6723528957508 ,48,2368007827529 ,69,2759883198911
2.9990964 ,Left ,68,601183831351 ,48,4537143316682 ,69,3331942187429
3.0217198 ,Left ,68,5643102563754 ,48,570606195234 ,69,3463378282539
3.0594491 ,Left ,68,507208210419 ,48,693522559686 ,69,3285372862783
3.0818007 ,Left ,68,4479624680256 ,48,7757754517925 ,69,3559967834866
3.1194265 ,Left ,68,3632091224312 ,48,9303579996094 ,69,4013583158821
3.1416329 ,Left ,68,3280198772571 ,48,937686290366 ,69,4282886237658
3.1796253 ,Left ,68,2582422892323 ,48,8672051127784 ,69,4458446261161
3.2017727 ,Left ,68,2726156321507 ,48,8950016189532 ,69,4208254194368
3.2393971 ,Left ,68,3198014854792 ,48,9426668844552 ,69,3675681511563
3.2616224 ,Left ,68,3443005290145 ,48,9023610921048 ,69,3209808635081
3.2993819 ,Left ,68,3792118703248 ,48,786755972303 ,69,2363642743105
3.3219959 ,Left ,68,43865392494 ,48,7531073139582 ,69,2137754730612
3.3594196 ,Left ,68,5623698644246 ,48,7309721891568 ,69,1942640274368
3.3819529 ,Left ,68,6193349456056 ,48,7335068030429 ,69,1681368463591
3.4195801 ,Left ,68,6773685158825 ,48,7538548788651 ,69,061861992586
3.4419701 ,Left ,68,6878828907553 ,48,7529592279813 ,68,9995312896035
3.4796095 ,Left ,68,6602020498769 ,48,7687423270745 ,68,8948216042543
3.5019843 ,Left ,68,6499545374194 ,48,7731631084003 ,68,8076931966732
3.5319155 ,Left ,68,6138764096678 ,48,735062386 ,68,6482996133188
3.5619255 ,Left ,68,559005240636 ,48,7692140243338 ,68,619681859532
3.5995889 ,Left ,68,6379233101418 ,48,8287065316957 ,68,5793876080405
3.6219469 ,Left ,68,7312995635269 ,48,8312124855772 ,68,5879991867354
3.659424 ,Left ,68,7458391731734 ,48,8000359102674 ,68,6933081683703
3.6817148 ,Left ,68,7848186136396 ,48,7313107422546 ,68,7503909831247
3.719351 ,Left ,68,8114556085765 ,48,5275077704966 ,68,8522421678382
3.7419803 ,Left ,68,7982630018872 ,48,4220758328673 ,68,8617133516699
3.7719439 ,Left ,68,7829787351758 ,48,263879823198 ,68,8797087200522
3.7944101 ,Left ,68,7056481516604 ,48,2604837538078 ,68,8723768429826
3.8169872 ,Left ,68,6679058174761 ,48,2145919165888 ,68,8390235643632
3.8317166 ,Left ,68,7039529784132 ,48,1816955382826 ,68,8381164612245
3.8543119 ,Left ,68,6752301689462 ,48,2536650116454 ,68,858467059379
3.8768505 ,Left ,68,6856807407195 ,48,3638990920903 ,68,8846191978411
3.8917337 ,Left ,68,7687813761483 ,48,3998468183291 ,68,8957800838024
3.9144018 ,Left ,68,8069426785511 ,48,405422508638 ,68,9093411873024
3.9369414 ,Left ,68,7997001425229 ,48,3849601022851 ,68,9103691016731
3.9519216 ,Left ,68,7896514172043 ,48,3461086232128 ,68,9127834094654
3.9816942 ,Left ,68,8121977978107 ,48,2984317673398 ,68,9026454238523
4.0044685 ,Left ,68,8376003178628 ,48,240637776111 ,68,9014535178105
4.019386 ,Left ,68,8539761439381 ,48,1748028130622 ,68,9117840309709
4.0423258 ,Left ,68,8771671844338 ,48,1200558333506 ,68,9350872204313
4.0575252 ,Left ,68,9074588291662 ,48,0565865597286 ,68,9613621626878
4.072402 ,Left ,68,9409161824564 ,47,9993048952831 ,68,9845430435458
4.094974 ,Left ,68,9815365229426 ,47,9411145569311 ,69,0127628174073
4.1170707 ,Left ,69,0128318200895 ,47,8969589781189 ,69,0524475898798
4.1318942 ,Left ,69,033569057469 ,47,8729448598855 ,69,0836541956368
4.1547023 ,Left ,69,0595561347902 ,47,8584449540245 ,69,1054915151237
4.1771177 ,Left ,69,075742329931 ,47,8524184160403 ,69,1258641589422
4.1919597 ,Left ,69,0795748437929 ,47,8538186366581 ,69,1401353333001
4.2144566 ,Left ,69,0799528847837 ,47,86426776909 ,69,1530151944377
4.2369791 ,Left ,69,0712450782043 ,47,8740878384588 ,69,1588897197373
4.2519403 ,Left ,69,0712450782043 ,47,8740878384588 ,69,1588897197373
4.2746283 ,Left ,69,0664577680718 ,47,8715141170437 ,69,1582857568213
4.2970291 ,Left ,69,0581134746907 ,47,8818724342952 ,69,1645100296469
4.3119617 ,Left ,69,0507322471023 ,47,9023626822924 ,69,1778980079376
4.334647 ,Left ,69,0277330589069 ,47,9216198530254 ,69,1985573435582
4.3570131 ,Left ,69,0108526826762 ,47,939364268816 ,69,2148774404699
4.3718222 ,Left ,68,9952322665134 ,47,9554784834589 ,69,2220313949253
4.3946449 ,Left ,68,9757144988019 ,47,971606490929 ,69,2273361746843
4.4170023 ,Left ,68,9684731400472 ,47,9955341335927 ,69,2281915072149
4.4317937 ,Left ,68,963324004638 ,48,0066587990264 ,69,2333244990673
4.4541788 ,Left ,68,9546016250642 ,48,0159468701763 ,69,232818216632
4.4767305 ,Left ,68,9593553765379 ,48,0081897875544 ,69,2355705059517
4.4917381 ,Left ,68,9624706443558 ,48,0055268595207 ,69,2470236457044
4.5145225 ,Left ,68,9676364947306 ,48,0471310610169 ,69,2704320582448
4.5369157 ,Left ,68,9408538625286 ,48,078909741846 ,69,324103254727
4.5593734 ,Left ,68,9484277535988 ,48,1200619233494 ,69,3807694314198
4.5745677 ,Left ,68,9619783827924 ,48,1870096030335 ,69,4304512661295
4.5969023 ,Left ,68,9540857902142 ,48,258772030267 ,69,4769588290203
4.6194161 ,Left ,69,0117930982409 ,48,3226258735718 ,69,5088588444403
4.6343964 ,Left ,69,045010893333 ,48,3446659010489 ,69,5232221553094
4.6567148 ,Left ,69,0368237794153 ,48,3120102801656 ,69,5155728751272
4.6792631 ,Left ,68,9862563181107 ,48,2502634533929 ,69,5031127447908
4.6944374 ,Left ,68,9496189508797 ,48,2013441422694 ,69,5024364863713
4.7168815 ,Left ,68,9471139614457 ,48,1688935854464 ,69,5067640136953
4.7395063 ,Left ,68,9241816325345 ,48,1338010940968 ,69,5093362152748
4.7546131 ,Left ,68,90282171224 ,48,0862838253804 ,69,5076033520754
4.7769873 ,Left ,68,9041407878201 ,48,0747933524892 ,69,515381048984
4.7994819 ,Left ,68,8500376516826 ,48,0969791922457 ,69,5125572544064
4.814603 ,Left ,68,7853713725737 ,48,1205869757331 ,69,4887239136302
4.8368449 ,Left ,68,8157525358691 ,48,1367883184447 ,69,4856199263
4.8594699 ,Left ,68,7642169878568 ,48,2041816837039 ,69,4985069895614
4.8745996 ,Left ,68,7111950860742 ,48,2634151930121 ,69,5201372307883
4.8969697 ,Left ,68,7267532177149 ,48,2684024642324 ,69,5211427059256
4.9195892 ,Left ,68,7481769997489 ,48,2476897734396 ,69,5081286340084
4.9345695 ,Left ,68,6944195590041 ,48,1951567732715 ,69,4867333423882
4.9568711 ,Left ,68,6747678077316 ,48,1999386566775 ,69,4813813722341
4.9794972 ,Left ,68,6855506286566 ,48,2351910284186 ,69,4705638153933
4.9945547 ,Left ,68,7007836641288 ,48,2902043452579 ,69,4801685098357
5.0169406 ,Left ,68,7058878108211 ,48,3915446524583 ,69,5214711919363
5.0394816 ,Left ,68,6591793617552 ,48,4823908642906 ,69,5396276773277
5.054553 ,Left ,68,6805254411263 ,48,552305081051 ,69,5588457490631
5.0770041 ,Left ,68,6542093641372 ,48,6348526629788 ,69,5686601850959
5.1070152 ,Left ,68,6118014942087 ,48,70737672864 ,69,5767110063164
5.1218678 ,Left ,68,6193706086492 ,48,7494773326802 ,69,5606222526407
5.1441392 ,Left ,68,6077965509818 ,48,7447761495287 ,69,5350169141804
5.1592718 ,Left ,68,5280459717501 ,48,743528485188 ,69,4998732434057
5.1743795 ,Left ,68,5206671779836 ,48,7254152442399 ,69,4647174847952
5.1968143 ,Left ,68,5595722153175 ,48,7240457611014 ,69,4631336531914
5.2196308 ,Left ,68,4862554088866 ,48,8293003250655 ,69,4673680679191
5.2421851 ,Left ,68,4980011220796 ,48,9261281621672 ,69,4738949359667
5.257133 ,Left ,68,5632368082872 ,48,9434235491759 ,69,4701747519646
5.2795535 ,Left ,68,6131922116511 ,48,9099118110792 ,69,4587281960894
5.3021851 ,Left ,68,5822435761554 ,48,8564510268088 ,69,4454485005719
5.3171136 ,Left ,68,5851019745699 ,48,8154427771192 ,69,4171755162154
5.339697 ,Left ,68,6375972969817 ,48,7849296324046 ,69,3997521750875
5.3547057 ,Left ,68,6417094869709 ,48,7790397344711 ,69,3979636619424
5.3770703 ,Left ,68,6718980294934 ,48,7961742666653 ,69,3872823787079
5.3997843 ,Left ,68,7371529274077 ,48,8062132275546 ,69,361377686291
5.4147011 ,Left ,68,766580163657 ,48,8124255621946 ,69,326034492544
5.4373507 ,Left ,68,7763628308919 ,48,8223907471476 ,69,2730320140913
5.4594976 ,Left ,68,7837407407502 ,48,8352514856819 ,69,229739884919
5.482361 ,Left ,68,7590262518157 ,48,8669731764797 ,69,1964831357683
5.4974314 ,Left ,68,7398886297 ,48,900376678521 ,69,146646409344
5.5197367 ,Left ,68,7287614857053 ,48,8964157639311 ,69,0731409072018
5.5421496 ,Left ,68,7076093371493 ,48,8668843725126 ,68,9958817302212
5.5573715 ,Left ,68,6535088452172 ,48,8351173687819 ,68,938054837867
5.5797673 ,Left ,68,5836099511341 ,48,853879498583 ,68,912344838955
5.6019956 ,Left ,68,6101803162657 ,48,8878146270115 ,68,9083223574956
5.6170001 ,Left ,68,7792695596481 ,48,8933196582237 ,68,9403972525823
5.639616 ,Left ,68,8176837731966 ,48,8685395442609 ,68,974914027067
5.661958 ,Left ,68,8033219834872 ,48,826425512894 ,68,9870168691646
5.6770376 ,Left ,68,8450109967572 ,48,7443834971079 ,68,9624178707492
5.699485 ,Left ,68,8676686288513 ,48,6052089132728 ,68,9469914561485
5.7219201 ,Left ,68,888878191066 ,48,5097325747056 ,68,9480555266444
5.7370105 ,Left ,68,8819598670289 ,48,3951215573573 ,68,9741504683711
5.7592843 ,Left ,68,8815124970582 ,48,3299231450839 ,69,0273018347868
5.7819094 ,Left ,68,8748169722915 ,48,3178866726945 ,69,1069479298014
5.7970062 ,Left ,68,8882448504992 ,48,2981642655402 ,69,1493172057324
5.8194624 ,Left ,68,9039028414134 ,48,219772641384 ,69,1512616164286
5.8419755 ,Left ,68,9218490269895 ,48,1862281953456 ,69,1777537446639
5.8570645 ,Left ,68,8679168330684 ,48,2463667077158 ,69,197423726664
5.8795227 ,Left ,68,8959266240084 ,48,2868901097517 ,69,206457275733
5.9019694 ,Left ,68,957648991921 ,48,3013802182174 ,69,2186906584451
5.9169092 ,Left ,69,0002656259988 ,48,2985554405454 ,69,220217539006
5.9396006 ,Left ,68,9642066141669 ,48,2714723501915 ,69,2193477343179
5.9616811 ,Left ,68,9658840214851 ,48,2423827628049 ,69,2068689498916
5.976714 ,Left ,69,0123489780742 ,48,1952386447683 ,69,2042162870915
5.9994213 ,Left ,69,0415187924985 ,48,1553490908535 ,69,2109314421065
6.0217491 ,Left ,69,0669834074673 ,48,1160022210077 ,69,2221481458463
6.0367725 ,Left ,69,0928824119845 ,48,0851212903881 ,69,2275062719226
6.0593512 ,Left ,69,1089381171136 ,48,0469619995865 ,69,2354462505471
6.0818453 ,Left ,69,1281181810219 ,48,0213528965789 ,69,2443626970084
6.0970311 ,Left ,69,1540820441998 ,48,0047360137069 ,69,2475502204792
6.119327 ,Left ,69,171470982404 ,47,9752715784379 ,69,2442447259257
6.1417441 ,Left ,69,2002576886537 ,47,9493816007698 ,69,2481245183693
6.1567883 ,Left ,69,2085095436502 ,47,9418669447266 ,69,2584708333671
6.1792312 ,Left ,69,2113905902421 ,47,9345877691519 ,69,2696939726061
6.2016968 ,Left ,69,2294584609651 ,47,9416770545369 ,69,2731747803193
6.21684 ,Left ,69,2205281524053 ,47,9366314637387 ,69,2809095634705
6.2392727 ,Left ,69,2111787573766 ,47,9255603037292 ,69,2903304716643
6.2623284 ,Left ,69,200679377923 ,47,9215802660827 ,69,3069239726147
6.2774233 ,Left ,69,1952102386389 ,47,9168131142145 ,69,3223100379126
6.2999909 ,Left ,69,1907760592444 ,47,9241452579774 ,69,3282577975781
6.3220494 ,Left ,69,1733695147889 ,47,9314830576804 ,69,3316402600904
6.3370728 ,Left ,69,1580998343871 ,47,948159222563 ,69,3391706342985
6.3597957 ,Left ,69,1523191029186 ,47,969913422609 ,69,3540452053045
6.3821288 ,Left ,69,1518421368409 ,47,9835468579392 ,69,3659442971435
6.4046501 ,Left ,69,1466678070793 ,47,98818950086 ,69,3815149576069
6.4268239 ,Left ,69,1299571821318 ,47,9877889438755 ,69,3918243882447
6.4497102 ,Left ,69,1207304756566 ,47,998945370196 ,69,4011914859453
6.4646007 ,Left ,69,132548637052 ,48,0148527782319 ,69,4107723100202
6.4869057 ,Left ,69,1314707906033 ,48,0180774243667 ,69,4096677401082
6.5101078 ,Left ,69,1266460260464 ,48,0140512348718 ,69,4048814915174
6.5398895 ,Left ,69,1144112175732 ,48,0103026647148 ,69,4030667552784
6.5620139 ,Left ,69,1166709351839 ,48,0093228983575 ,69,4032560502739
6.5845203 ,Left ,69,1048406347616 ,48,0140665320044 ,69,3955342318326
6.5995597 ,Left ,69,053994727716 ,48,0561000801016 ,69,4043784144548
6.6219228 ,Left ,68,9833576009356 ,48,089207496428 ,69,4285992795574
6.6445146 ,Left ,68,9879212722684 ,48,1466910948959 ,69,4653285310639
6.6600116 ,Left ,69,0102122231954 ,48,2276187830827 ,69,5192330867151
6.6824492 ,Left ,68,9886353757548 ,48,3171733470499 ,69,5864602285306
6.7049308 ,Left ,69,028749327865 ,48,3810614945533 ,69,6375509471326
6.7195141 ,Left ,69,0641067531562 ,48,3997675625915 ,69,674562660437
6.7419296 ,Left ,69,0571537864306 ,48,387708307211 ,69,7109094506836
6.7645218 ,Left ,69,0122965909834 ,48,3720294086383 ,69,7279321155358
6.7794928 ,Left ,69,0085892847711 ,48,3443584221785 ,69,7228633373284
6.8019137 ,Left ,69,0176216022447 ,48,3135636191984 ,69,7182699049407
6.8244901 ,Left ,69,0010596361811 ,48,2786683652135 ,69,7149257193361
6.8393747 ,Left ,68,974440959919 ,48,246500446472 ,69,7055807881439
6.8618251 ,Left ,68,9562504764979 ,48,2034450048888 ,69,6781776460403
6.8845008 ,Left ,68,97083364108 ,48,1674564965235 ,69,6668193104199
6.8992105 ,Left ,68,9497937905221 ,48,1764975288152 ,69,6992522860223
6.9216811 ,Left ,68,8784080458473 ,48,1898392002711 ,69,6977014019702
6.9443627 ,Left ,68,9526364814365 ,48,140373879662 ,69,694788638976
6.9594999 ,Left ,68,9824542279792 ,48,1698508008207 ,69,7093797655237
6.9818688 ,Left ,68,8851340192683 ,48,2431945215701 ,69,7234891121045
7.0043752 ,Left ,68,8923769366821 ,48,2565411167885 ,69,7118148377116
7.0192509 ,Left ,68,9190285302828 ,48,240326024236 ,69,7038976343028
7.0418514 ,Left ,68,8732682513832 ,48,2166323209668 ,69,6979656999436
7.0642304 ,Left ,68,8391788600823 ,48,2292617930796 ,69,6944394047604
7.0792068 ,Left ,68,8086849327595 ,48,2671240814778 ,69,6792854908038
7.1017519 ,Left ,68,7920720436866 ,48,3089748664754 ,69,6696117758848
7.1241683 ,Left ,68,8443079062777 ,48,3307300097466 ,69,7006415532105
7.1392074 ,Left ,68,7712790281417 ,48,4155324757821 ,69,7356917499922
7.1618301 ,Left ,68,7007707268638 ,48,5174429060649 ,69,7617861937112
7.184355 ,Left ,68,7583220095358 ,48,5670358022517 ,69,7665971205354
7.1991583 ,Left ,68,7220909114314 ,48,5860203996322 ,69,7744950031283
7.2217007 ,Left ,68,6485180734102 ,48,6134747383143 ,69,7833542293022
7.244273 ,Left ,68,6467789541028 ,48,6262488264507 ,69,7790818057744
7.2593933 ,Left ,68,637288833259 ,48,6168242421362 ,69,7658890179719
7.2816172 ,Left ,68,6069883183186 ,48,6132201306571 ,69,7825314393177
7.311621 ,Left ,68,5566735130782 ,48,6237273116792 ,69,7846695158943
7.3274861 ,Left ,68,5675241464388 ,48,5826344894333 ,69,7748559556646
7.34993 ,Left ,68,6181397520738 ,48,5921758513136 ,69,7680662991013
7.3869374 ,Left ,68,6356539212956 ,48,7952163663837 ,69,7371871972972
7.4018097 ,Left ,68,7266490556253 ,48,7955961972604 ,69,7311155401341
7.4245037 ,Left ,68,7460428383451 ,48,734533748477 ,69,7323503703109
7.44679 ,Left ,68,7245543886102 ,48,6830873465203 ,69,765352418412
7.4617457 ,Left ,68,6883363331432 ,48,6699005408265 ,69,790517819374
7.484303 ,Left ,68,7022200502451 ,48,6938429734211 ,69,7771313439685
7.506853 ,Left ,68,7605307502828 ,48,7108968359062 ,69,7232962802841
7.5219099 ,Left ,68,7746904901664 ,48,704763375636 ,69,6727589423806
7.5443618 ,Left ,68,7702156936042 ,48,7135384214579 ,69,6355838401628
7.5667159 ,Left ,68,7522536541406 ,48,7329247499604 ,69,5643822848676
7.5817923 ,Left ,68,7330920336405 ,48,7137235357405 ,69,4444031616858
7.6044676 ,Left ,68,6886834258478 ,48,6987176466911 ,69,3455997702404
7.6267629 ,Left ,68,6561655933531 ,48,7483334195174 ,69,2654129467774
7.6342902 ,Left ,68,6189010535697 ,48,8014436510035 ,69,1745235046819
7.6567564 ,Left ,68,6119814130624 ,48,8072896346068 ,69,1351739553757
7.6792503 ,Left ,68,6327069692824 ,48,7733767116791 ,69,1706466970176
7.6941916 ,Left ,68,6506651390303 ,48,8254143613071 ,69,2179476221283
7.7168151 ,Left ,68,6962208570989 ,48,8758469759018 ,69,2443982788338
7.7544885 ,Left ,68,8142657463157 ,48,7573243290294 ,69,2149004492306
7.7768826 ,Left ,68,7514762923373 ,48,5901298115041 ,69,1686538316225
7.7996582 ,Left ,68,7365656579918 ,48,465303294971 ,69,1391904292069
7.8146284 ,Left ,68,7489515497221 ,48,4099224613943 ,69,1462080402264
7.8368919 ,Left ,68,7210286726169 ,48,4083285018982 ,69,1654085206364
7.8594613 ,Left ,68,7585516146516 ,48,3711355047849 ,69,1686476007848
7.8743236 ,Left ,68,821126072124 ,48,2917195085917 ,69,1809485689134
7.8967102 ,Left ,68,9060212912681 ,48,2336573781276 ,69,1903421949843
7.9420063 ,Left ,68,9293209171305 ,48,2834301677338 ,69,2008118848232
7.9645904 ,Left ,68,9911888001676 ,48,3082333546868 ,69,2110674813113
7.9944983 ,Left ,69,0773004888012 ,48,2378321041301 ,69,2482812455422
8.0165811 ,Left ,69,0730298465793 ,48,2175322899609 ,69,2977309183954
8.0542811 ,Left ,69,1008419905808 ,48,1566945038265 ,69,3962652004979
8.0774127 ,Left ,69,1267854541642 ,48,1313820375386 ,69,4410843154675
8.1149668 ,Left ,69,1409757062303 ,48,0280163924701 ,69,5124691304228
8.1375109 ,Left ,69,1457655157011 ,47,9846989580678 ,69,5365433170637
8.1745355 ,Left ,69,1819395249901 ,47,9096105417645 ,69,5320749925871
8.1971147 ,Left ,69,1933570929111 ,47,8832264850412 ,69,5167093881381
8.2346798 ,Left ,69,2014423298851 ,47,8773312627841 ,69,4893895916167
8.2570633 ,Left ,69,2322594840616 ,47,8768899019468 ,69,4784778098956
8.2949538 ,Left ,69,2236260295017 ,47,8620826018939 ,69,4887639053185
8.3171944 ,Left ,69,2240528972236 ,47,8605757438388 ,69,5059088471523
8.3620273 ,Left ,69,2330493635159 ,47,8804762552008 ,69,5439115729589
8.3846644 ,Left ,69,2172840926107 ,47,883346480136 ,69,5510662502231
8.4145247 ,Left ,69,1666182857614 ,47,8853238095964 ,69,5692146342303
8.4371192 ,Left ,69,1546652012322 ,47,9053401540124 ,69,5653100129345
8.4746743 ,Left ,69,1256516218788 ,47,9304938193751 ,69,548419553158
8.4969304 ,Left ,69,1068923789854 ,47,9376735075953 ,69,5420431503758
8.5345778 ,Left ,69,0961759674128 ,47,9535447458251 ,69,5331681599829
8.5572832 ,Left ,69,0886198446575 ,47,9445018200796 ,69,5299170831157
8.5948068 ,Left ,69,0741502084562 ,48,0010794377543 ,69,5727222382946
8.6172182 ,Left ,69,0714629125035 ,48,0523994538993 ,69,6085366888913
8.6545802 ,Left ,69,0928164040901 ,48,1774176894164 ,69,6646808365618
8.6771335 ,Left ,69,1197661190741 ,48,2189784095366 ,69,6742972488027
8.7220161 ,Left ,69,0887582226816 ,48,2130236765296 ,69,6331063504604
8.7445714 ,Left ,69,0293506746662 ,48,1530646042047 ,69,6058353748412
8.7746313 ,Left ,68,958666703326 ,48,167860086181 ,69,6174728018692
8.7972889 ,Left ,68,9275427478006 ,48,157066131537 ,69,6175914638229
8.8343531 ,Left ,68,9518751434749 ,48,1501960485404 ,69,6028165040392
8.8567936 ,Left ,68,9485608944593 ,48,2058588577063 ,69,6023552894962
8.8946483 ,Left ,68,8868621615879 ,48,2569034144174 ,69,5765535729408
8.9170859 ,Left ,68,8669177644583 ,48,2338214343947 ,69,5674615181026
8.9545324 ,Left ,68,762902657528 ,48,2438634674739 ,69,5559109514292
8.9766339 ,Left ,68,7664096891987 ,48,2353797805688 ,69,5637822749002
9.0147737 ,Left ,68,7909738815336 ,48,3232913577868 ,69,610537075447
9.0373923 ,Left ,68,7238396722054 ,48,3881862613317 ,69,6235485715342
9.0825509 ,Left ,68,6815669723675 ,48,4980877474404 ,69,6207563490217
9.1346891 ,Left ,68,587899037498 ,48,5349335235839 ,69,7033663320236
9.1569581 ,Left ,68,5440679941523 ,48,5494083941757 ,69,7344131852141
9.1945458 ,Left ,68,5174931182998 ,48,6023368969695 ,69,7626807044786
9.2168541 ,Left ,68,4744139807167 ,48,7225700348732 ,69,765162446804
9.2617929 ,Left ,68,5316227960829 ,48,7807445812835 ,69,7429254691604
9.2843462 ,Left ,68,5564026035359 ,48,7363399605595 ,69,7168841494959
9.3368793 ,Left ,68,6254496939493 ,48,5960978683722 ,69,5573987248987
9.3818761 ,Left ,68,7204499471045 ,48,5552007672791 ,69,5049259350492
9.4044583 ,Left ,68,7803865243532 ,48,5574180739262 ,69,4710684516276
9.4197591 ,Left ,68,8211202993938 ,48,5641322150769 ,69,4199625216693
9.4569579 ,Left ,68,8518479853823 ,48,5450371361056 ,69,2778237561241
9.4719474 ,Left ,68,8555980656188 ,48,5507357059675 ,69,2366599926979
9.4943393 ,Left ,68,8485586512102 ,48,580401903573 ,69,2210887920198
9.5097135 ,Left ,68,8219751452761 ,48,6313495958329 ,69,1877534008595
9.5395163 ,Left ,68,8156056418691 ,48,6482016311495 ,69,1121214642969
9.5546002 ,Left ,68,8003869234527 ,48,6330291910964 ,69,0523522790464
9.5846974 ,Left ,68,7619228925772 ,48,6669344487557 ,69,0582490084578
9.5993476 ,Left ,68,7193502170374 ,48,7108949323909 ,69,1064330986162
9.6146468 ,Left ,68,8012321790245 ,48,7458440745976 ,69,1757075193099
9.6369802 ,Left ,68,8462542988479 ,48,768765995218 ,69,2507796265693
9.6519798 ,Left ,68,8727648474603 ,48,745117534077 ,69,2816669867146
9.6670605 ,Left ,68,8914932367016 ,48,6775891272726 ,69,2627865439708
9.6896217 ,Left ,68,8487094062078 ,48,546664314339 ,69,2338992809264
9.7120204 ,Left ,68,8651527197833 ,48,4136008417527 ,69,1886433288308
9.7270024 ,Left ,68,9067459936228 ,48,2724926888777 ,69,1371854171775
9.7496083 ,Left ,68,9317453949533 ,48,1259034184794 ,69,1220156787282
9.7718224 ,Left ,68,9469056455604 ,48,0504393634729 ,69,1874535856749
9.7866694 ,Left ,68,874333695634 ,48,0405513610785 ,69,247733829452
9.8093668 ,Left ,68,8552218889738 ,48,0208212311115 ,69,2475693369798
9.831848 ,Left ,68,9421342130732 ,47,9869409685199 ,69,2351883388015
9.8469221 ,Left ,68,9221971796912 ,48,0378475277085 ,69,2188682771747
9.869365 ,Left ,68,9297297059537 ,48,1050254686219 ,69,2070649585675
9.8919323 ,Left ,68,9952427187557 ,48,1238494908151 ,69,2000045128262
9.9070434 ,Left ,69,0334017437796 ,48,1111431218561 ,69,198940588337
9.9295214 ,Left ,69,0306811417325 ,48,0952186272471 ,69,1900996469766
9.9515537 ,Left ,69,0091299147055 ,48,0734251359324 ,69,1873198613805
9.9667692 ,Left ,69,0242889214264 ,48,0592640765399 ,69,1756202246253
9.9892662 ,Left ,69,0673667244689 ,48,0462385575359 ,69,1586221312878
10.0117901 ,Left ,69,0855687024892 ,48,0195089675066 ,69,1457721137469
10.0267758 ,Left ,69,0931028046957 ,47,9956071641892 ,69,1388121273258
10.0493997 ,Left ,69,0910552162331 ,47,9759095924518 ,69,136796925438
10.0718566 ,Left ,69,1010151262202 ,47,9688989095117 ,69,13636998338
10.0868309 ,Left ,69,1160688990456 ,47,9561694468383 ,69,1431172924073
10.109383 ,Left ,69,1183684210128 ,47,934520920986 ,69,1475201335568
10.1317448 ,Left ,69,1232658342144 ,47,9149161998046 ,69,1482701264075
10.1467946 ,Left ,69,1288293118885 ,47,8955211072519 ,69,1496809085198
10.1694732 ,Left ,69,1309382128079 ,47,8851789325667 ,69,1497117689221
10.1917311 ,Left ,69,137258906446 ,47,8723515308465 ,69,1497803694423
10.2070172 ,Left ,69,1283673820159 ,47,8648138750765 ,69,1617668893924
10.2296358 ,Left ,69,1131861191274 ,47,8597734264901 ,69,1758219028422
10.2520961 ,Left ,69,1075192710872 ,47,8613889446259 ,69,1952040283469
10.2748419 ,Left ,69,1061521816472 ,47,8635298519208 ,69,2167939457181
10.2897179 ,Left ,69,0963531138198 ,47,8651698477091 ,69,2403873002079
10.312153 ,Left ,69,0810427341425 ,47,8690067457318 ,69,2542777614312
10.3347032 ,Left ,69,0646960748315 ,47,8642435986964 ,69,2651004709996
10.349609 ,Left ,69,0457218477509 ,47,8623087545791 ,69,279542822418
10.3720396 ,Left ,69,0345921485899 ,47,8755278824352 ,69,295430612813
10.3947918 ,Left ,69,0426310863882 ,47,8896979123133 ,69,2991641162763
10.4098662 ,Left ,69,030036977291 ,47,8789094523356 ,69,3075343571942
10.4319926 ,Left ,69,018695617359 ,47,8738581189572 ,69,3379815346775
10.4548004 ,Left ,69,0273559265878 ,47,8812725698114 ,69,3820240311665
10.46985 ,Left ,69,0501514436263 ,47,8972376981773 ,69,4317200219485
10.4920998 ,Left ,69,0796629350559 ,47,9087282960419 ,69,4756666812092
10.514716 ,Left ,69,0977696798357 ,47,9072720262515 ,69,5063021754308
10.5298294 ,Left ,69,1057337490513 ,47,9095161695304 ,69,5142357649079
10.5521251 ,Left ,69,1095047138385 ,47,9281044025777 ,69,507322582383
10.574564 ,Left ,69,1133733217554 ,47,9492037988855 ,69,4900743220199
10.5896912 ,Left ,69,1199796612478 ,47,9689846281794 ,69,4672965319644
10.6118658 ,Left ,69,1075409226591 ,47,9736822075838 ,69,4444073421257
10.6345849 ,Left ,69,1087108199941 ,47,9690808673382 ,69,4269107106716
10.6493632 ,Left ,69,1086194053485 ,47,9725497310968 ,69,4143022527518
10.6716548 ,Left ,69,1090706737681 ,47,9770865087299 ,69,4084627673847
10.6945174 ,Left ,69,1134917013575 ,47,981561319088 ,69,4045241035892
10.7092677 ,Left ,69,098607479911 ,47,9702957458029 ,69,4084724012451
10.7318591 ,Left ,69,079709120616 ,47,9630536411776 ,69,4104561072436
10.7542594 ,Left ,69,0813378251879 ,47,9752053500766 ,69,4160968840531
10.7692818 ,Left ,69,0729032973816 ,48,0022858781049 ,69,4364275299514
10.7917392 ,Left ,69,0671138682553 ,48,0534622821783 ,69,4735193847052
10.8144017 ,Left ,69,0457041474533 ,48,071569885964 ,69,5326726669854
10.8294989 ,Left ,69,0169832440619 ,48,1479666324418 ,69,585308428257
10.8518292 ,Left ,69,0366469773533 ,48,2193254092148 ,69,6200334087333
10.874381 ,Left ,69,0643022932932 ,48,2699216698371 ,69,6301979330687
10.8892038 ,Left ,69,0761175436551 ,48,2539483419775 ,69,6217321084578
10.9116514 ,Left ,69,026374888715 ,48,206793741658 ,69,6162082028742
10.9342824 ,Left ,68,9675660109819 ,48,1615388360456 ,69,5934619573051
10.9493947 ,Left ,68,9480020288225 ,48,0909837878389 ,69,5713136729939
10.971674 ,Left ,68,9330529945119 ,48,0341605968482 ,69,5783888964906
10.9944235 ,Left ,68,9499885922768 ,48,031509444501 ,69,6016038778025
11.00957 ,Left ,68,9793752392121 ,48,0316070698248 ,69,6143878911518
11.0320263 ,Left ,68,9796123708074 ,47,9736940427634 ,69,6242608065758
11.0548101 ,Left ,68,9740247781794 ,47,8893855586313 ,69,6352198749292
11.0692103 ,Left ,68,9711921060234 ,47,8297170877206 ,69,6756170389721
11.0924114 ,Left ,68,923683320864 ,47,8694690747333 ,69,7168682072234
11.1149783 ,Left ,68,8456831725206 ,47,9153570616358 ,69,7251082219301
11.1295429 ,Left ,68,8943562752288 ,47,9500476082308 ,69,7477143501362
11.1516606 ,Left ,68,8658571041366 ,48,0464187314268 ,69,7888980348274
11.1742214 ,Left ,68,8451259204506 ,48,1110543929908 ,69,8157244894447
11.1967004 ,Left ,68,8722532635203 ,48,112002702077 ,69,8076523351431
11.2117094 ,Left ,68,8792571525677 ,48,086079459806 ,69,7968713141064
11.2346391 ,Left ,68,8164329651067 ,48,0210335868589 ,69,7839318936024
11.2569931 ,Left ,68,826299040467 ,47,9799844607669 ,69,7764926010185
11.2720275 ,Left ,68,8403725511706 ,47,9580012761537 ,69,7684239481192
11.2947163 ,Left ,68,8297433356143 ,47,9419042530919 ,69,7562283747579
11.3170303 ,Left ,68,8150979090149 ,47,9883529028788 ,69,7712568281624
11.3320245 ,Left ,68,7726173957894 ,48,0796866344745 ,69,7878239421245
11.354491 ,Left ,68,7994310340098 ,48,1687997615089 ,69,7949334053548
11.3770302 ,Left ,68,8252612854151 ,48,2057034806799 ,69,8091347959696
11.3920129 ,Left ,68,820638672248 ,48,2184184113577 ,69,81852559973
11.4145662 ,Left ,68,7551911733633 ,48,1974713550925 ,69,8177881636171
11.4370502 ,Left ,68,7069579370627 ,48,1767157228542 ,69,8013216732244
11.4519286 ,Left ,68,7105948522843 ,48,1784266482105 ,69,7863090998135
11.474659 ,Left ,68,7255944004622 ,48,1821168706071 ,69,7743070795661
11.4972094 ,Left ,68,7134096516761 ,48,1897242654145 ,69,7680359124252
11.5119928 ,Left ,68,685489850017 ,48,1909659865086 ,69,762787650477
11.5347022 ,Left ,68,6729483454363 ,48,1965994231775 ,69,772730316463
11.5571316 ,Left ,68,6887778831644 ,48,2044800297677 ,69,7758857750436
11.5719773 ,Left ,68,6986534786282 ,48,2075943668478 ,69,7732592818052
11.5945803 ,Left ,68,6925063447543 ,48,2126233202611 ,69,7710650218583
11.6167846 ,Left ,68,6677166139316 ,48,2243291265235 ,69,7705504133374
11.6323453 ,Left ,68,6476946796013 ,48,2287403751122 ,69,7647946616095
11.6544701 ,Left ,68,6334683173421 ,48,232492155609 ,69,7669077677834
11.6767382 ,Left ,68,6258637006339 ,48,2372576242012 ,69,7756122783603
11.6918092 ,Left ,68,6258813432413 ,48,242184236741 ,69,7816023426689
11.7143323 ,Left ,68,6390752630164 ,48,2353264479701 ,69,7889006245401
11.736811 ,Left ,68,6318142454184 ,48,229413922676 ,69,8024823214655
11.7594781 ,Left ,68,617846867361 ,48,2361999308234 ,69,80679914123
11.7817907 ,Left ,68,6318583442983 ,48,2568572474667 ,69,8055416605533
11.8117523 ,Left ,68,6501516273358 ,48,344419107278 ,69,8017558967926
11.8345574 ,Left ,68,6412931667577 ,48,3776530531923 ,69,7956644322659
11.8568256 ,Left ,68,6109264842336 ,48,3915503734735 ,69,7913947975207
11.8717832 ,Left ,68,5872670402558 ,48,3917221230201 ,69,7841255370993
11.8945298 ,Left ,68,5854140548012 ,48,3995600673062 ,69,7737575387427
11.9169133 ,Left ,68,5868316997399 ,48,4008515154326 ,69,7751136703474
11.9319353 ,Left ,68,5871129921811 ,48,3965286504208 ,69,77559154693
11.9545448 ,Left ,68,5855254946644 ,48,3492440319603 ,69,7738947976812
11.9770227 ,Left ,68,5862700587025 ,48,2740601604585 ,69,7674854594096
11.9918945 ,Left ,68,6125379696514 ,48,2078880515892 ,69,7717257306879
12.0144397 ,Left ,68,6181979803047 ,48,2580291915496 ,69,7650569016508
12.0446444 ,Left ,68,6078668076594 ,48,3641717228254 ,69,7402080973881
12.0594411 ,Left ,68,6568400813712 ,48,4275843719748 ,69,7170792846852
12.0818386 ,Left ,68,671487628939 ,48,4531537697921 ,69,6898607288674
12.1043334 ,Left ,68,6736460490879 ,48,4721210226925 ,69,6709201790678
12.1195212 ,Left ,68,6541186052708 ,48,484814240371 ,69,6529939564268
12.1417916 ,Left ,68,6533698363092 ,48,5045788589616 ,69,6331841038882
12.1795142 ,Left ,68,6822687909028 ,48,5552220807997 ,69,5788313643172
12.1944188 ,Left ,68,6950182346581 ,48,5578999432642 ,69,5364768833938
12.2169109 ,Left ,68,6441231314038 ,48,562775238672 ,69,4915629924002
12.2394513 ,Left ,68,6022397252361 ,48,5688436293064 ,69,4250492193629
12.2543464 ,Left ,68,5614090076899 ,48,5550044208132 ,69,323473875549
12.2768035 ,Left ,68,5206658178231 ,48,5366145030978 ,69,2424217654928
12.2993395 ,Left ,68,4634404049073 ,48,5112713579929 ,69,208279886449
12.3145972 ,Left ,68,4668941591349 ,48,509920993038 ,69,2607514201472
12.3373176 ,Left ,68,5342371376734 ,48,5580758067869 ,69,3369638142144
12.3600792 ,Left ,68,5843245155976 ,48,5630228933027 ,69,3991481522109
12.3750986 ,Left ,68,6316413649159 ,48,5360128962731 ,69,4309026442563
12.397378 ,Left ,68,6514640875987 ,48,4642188226946 ,69,4281872256881
12.4197094 ,Left ,68,6389646349736 ,48,3288750611593 ,69,4029198133049
12.4346031 ,Left ,68,6707107520877 ,48,2054237538647 ,69,3719628868354
12.4569838 ,Left ,68,6762116337415 ,48,0813139850672 ,69,3618926676945
12.4795274 ,Left ,68,6594034372089 ,48,0103026647148 ,69,3800662299837
12.494577 ,Left ,68,6552976439516 ,47,9769669646689 ,69,3892898141948
12.5170895 ,Left ,68,7063019917065 ,47,9265561597958 ,69,3749370039719
12.5396107 ,Left ,68,7295371515587 ,47,8683145650017 ,69,3620006013307
12.5545356 ,Left ,68,7732895714419 ,47,8809316004166 ,69,3616514979132
12.5766843 ,Left ,68,7612075143824 ,47,9175605094535 ,69,3654667614831
12.5992995 ,Left ,68,7943863051591 ,47,9799341339014 ,69,3723530344871
12.6145177 ,Left ,68,8352118686321 ,48,0100277859213 ,69,3793233637256
12.6368427 ,Left ,68,8765353774499 ,48,0126620563334 ,69,3894408381949
12.6595315 ,Left ,68,8596482868736 ,48,0038814596179 ,69,3914113315877
12.6742612 ,Left ,68,8542869989716 ,47,9868320724808 ,69,3780556777601
12.6967289 ,Left ,68,8829087336595 ,47,9514836371718 ,69,3553089416325
12.7195652 ,Left ,68,9092846849709 ,47,913196751521 ,69,3385713963779
12.7347099 ,Left ,68,9204749868822 ,47,8758348885506 ,69,3336393541005
12.7569757 ,Left ,68,9367073158282 ,47,8470745436065 ,69,3335907291649
12.7796456 ,Left ,68,9630642119576 ,47,8324627613126 ,69,3350770067943
12.7946383 ,Left ,68,9835512556167 ,47,8209088293519 ,69,3389894787078
12.8169011 ,Left ,69,0155884747288 ,47,7977391861616 ,69,3462156316844
12.8397024 ,Left ,69,0434243807688 ,47,7715659452132 ,69,3555105254894
12.8620303 ,Left ,69,0650137653527 ,47,741005494437 ,69,3564783286289
12.8845671 ,Left ,69,0878404392217 ,47,720557161377 ,69,3585353329461
12.9070421 ,Left ,69,1009850723063 ,47,7092304481238 ,69,3654919081286
12.9221992 ,Left ,69,108169948926 ,47,6930980744455 ,69,372832628952
12.9369994 ,Left ,69,1143544862762 ,47,6762176984072 ,69,3791776417857
12.9595368 ,Left ,69,0993216414708 ,47,6624281057122 ,69,3937202059036
12.9746573 ,Left ,69,0827516094105 ,47,6631012950191 ,69,4170990386617
12.9970113 ,Left ,69,0688074521 ,47,6727116446506 ,69,4471744178663
13.0197361 ,Left ,69,0451057050641 ,47,6782525765907 ,69,4738463141632
13.0346029 ,Left ,69,0129045470532 ,47,6803797013533 ,69,5004555966961
13.0571477 ,Left ,68,9803561419928 ,47,6844876139446 ,69,5224822794658
13.0795742 ,Left ,68,9580878629969 ,47,6987412607264 ,69,5461339761465
13.1020589 ,Left ,68,9293867519841 ,47,7071652343109 ,69,5634518243276
13.1169761 ,Left ,68,8804224685146 ,47,7041578079938 ,69,5796544960815
13.1471033 ,Left ,68,8446586690275 ,47,6946960801269 ,69,5882367022923
13.1694848 ,Left ,68,8357898069371 ,47,7229392449475 ,69,6205824495311
13.1844809 ,Left ,68,7861859625262 ,47,7865609654714 ,69,6676104430546
13.1993596 ,Left ,68,7087425138851 ,47,7991285748632 ,69,6965119994344
13.2218214 ,Left ,68,7374419808902 ,47,8084592510169 ,69,6997787163317
13.2368825 ,Left ,68,7536278766999 ,47,8768851162415 ,69,6968914321244
13.259607 ,Left ,68,7688179551568 ,47,9862812554984 ,69,6876050555819
13.2819076 ,Left ,68,8452827997475 ,48,072256514286 ,69,672133365247
13.2968921 ,Left ,68,8560204893707 ,48,080443933134 ,69,6287577172835
13.3195703 ,Left ,68,8373674740025 ,47,9901940595428 ,69,5710006523354
13.3420325 ,Left ,68,8274451613182 ,47,8753418358637 ,69,5578429507164
13.356913 ,Left ,68,7926803321036 ,47,8633115989005 ,69,5860524813106
13.3718308 ,Left ,68,7318001955901 ,47,8974564869876 ,69,5971969320031
13.4169432 ,Left ,68,852029731747 ,47,7869050855012 ,69,5617387429042
13.4394501 ,Left ,68,8559134809483 ,47,7296496085847 ,69,5649884332472
13.4696016 ,Left ,68,7825436930331 ,47,7944196700042 ,69,5611285421178
13.4918972 ,Left ,68,8232928084301 ,47,7936128235893 ,69,5391030421881
13.5294494 ,Left ,68,7626510763753 ,47,7454420944344 ,69,536327895721
13.5520733 ,Left ,68,7800077781848 ,47,7385672596223 ,69,5392014371039
13.5898621 ,Left ,68,7660149925465 ,47,7716933608417 ,69,5871426163088
13.6120736 ,Left ,68,7735591916888 ,47,8225136343659 ,69,6496532679609
13.6426437 ,Left ,68,7080635821714 ,47,9116808514347 ,69,7147857182417
13.6574561 ,Left ,68,6327106950187 ,48,0097844579349 ,69,7543387544717
13.6800601 ,Left ,68,6184753236436 ,48,0892543166805 ,69,7784005053477
13.7100366 ,Left ,68,5350907993381 ,48,1632230907473 ,69,8428573863872
13.7324533 ,Left ,68,4778798184305 ,48,1913751171031 ,69,8834884567103
13.7695693 ,Left ,68,4658824893771 ,48,1990884605374 ,69,980544976868
13.7915944 ,Left ,68,4059160542194 ,48,2045740683156 ,70,0379926579375
13.8292905 ,Left ,68,3987318367289 ,48,3467688777606 ,70,1007892640769
13.8520789 ,Left ,68,4869114593595 ,48,4334264796253 ,70,0998447014848
13.8899845 ,Left ,68,5921998470626 ,48,4663986011409 ,70,0641621314644
13.9122501 ,Left ,68,5974401060193 ,48,4279254097112 ,70,0385551886062
13.9494981 ,Left ,68,576400864029 ,48,4823226080537 ,69,9964263637188
13.971834 ,Left ,68,6284759359221 ,48,5170151126606 ,69,9385756767634
14.0096675 ,Left ,68,6326049622916 ,48,5336890928004 ,69,8480821638269
14.0318062 ,Left ,68,6161781167682 ,48,5615566061142 ,69,77952808449
14.069446 ,Left ,68,5419024705644 ,48,562609619443 ,69,6134976674806
14.0923311 ,Left ,68,4967338387722 ,48,5676433742253 ,69,5681365581535
14.1301092 ,Left ,68,5131910666631 ,48,5334868868348 ,69,6409547530231
14.1517926 ,Left ,68,5890629210615 ,48,5870066004238 ,69,7167823554107
14.1894223 ,Left ,68,6680433826751 ,48,5517512766306 ,69,7461577288882
14.212032 ,Left ,68,655321098218 ,48,4174358435061 ,69,7097799411298
14.2495748 ,Left ,68,6250365215815 ,48,3001802369045 ,69,7743111697062
14.2716164 ,Left ,68,6045762501349 ,48,260424823805 ,69,763699301821
14.309447 ,Left ,68,6438534379053 ,48,1496844823114 ,69,780630746891
14.3319263 ,Left ,68,6646137385209 ,48,1577800168225 ,69,8093148352184
14.3695693 ,Left ,68,6988674567718 ,48,3105520872436 ,69,818944043494
14.3919815 ,Left ,68,7518943563366 ,48,3263796620944 ,69,8138047122254
14.4296558 ,Left ,68,8192011304144 ,48,302745480339 ,69,7956348948271
14.451927 ,Left ,68,8504879431679 ,48,272810931938 ,69,7867632920734
14.4892169 ,Left ,68,9400841084701 ,48,1633898557875 ,69,7787452432596
14.5117246 ,Left ,68,973430570402 ,48,121512529298 ,69,79263095504
14.5566662 ,Left ,69,0541630805868 ,48,0615820695558 ,69,8336323723317
14.6093802 ,Left ,69,1409773528841 ,47,9352130787548 ,69,8968955493063
14.631698 ,Left ,69,1535885389655 ,47,8837983449252 ,69,9046398286769
14.6692567 ,Left ,69,2124396880764 ,47,8052627548078 ,69,9028348250121
14.6916736 ,Left ,69,2373467353793 ,47,7658737686715 ,69,8910214396335
14.736779 ,Left ,69,2391491214483 ,47,7156644019208 ,69,8856077004964
14.7592654 ,Left ,69,2395219415354 ,47,7113134757399 ,69,8860934559648
14.8192613 ,Left ,69,2403739659142 ,47,6885935735663 ,69,9105799398311
14.8724527 ,Left ,69,2065128841263 ,47,7157156812941 ,69,9348441548291
14.9096896 ,Left ,69,1620448613039 ,47,7143522169357 ,69,9323961339211
14.9320177 ,Left ,69,1570479943163 ,47,7344055466673 ,69,9373269886264
14.9697133 ,Left ,69,1693062981308 ,47,7593556504469 ,69,959373863415
14.9919076 ,Left ,69,1712136007661 ,47,7577873222769 ,69,9592333351649
15.037 ,Left ,69,1898737212189 ,47,8043594929509 ,69,9619142951188
15.0820083 ,Left ,69,2259974932488 ,47,8561027996776 ,69,95482283979
15.1120217 ,Left ,69,2006191067148 ,47,8503653830717 ,69,954655741523
15.1495112 ,Left ,69,1459070013126 ,47,8781960333373 ,69,9639003590183
15.1720388 ,Left ,69,1288540294526 ,47,8735268195789 ,69,980386006041
15.209701 ,Left ,69,0707278171057 ,47,8603754342481 ,70,0605136426476
15.2318536 ,Left ,69,0558299476772 ,47,9201795258137 ,70,1081036564301
15.2471096 ,Left ,69,123200710734 ,47,9717513845611 ,70,1360791669618
15.2619888 ,Left ,69,14374477646 ,47,9918820715158 ,70,1496614587936
15.2845047 ,Left ,69,1077872920346 ,47,9585562836209 ,70,1627784860408
15.3068129 ,Left ,69,034862578201 ,47,923678236636 ,70,1766433023158
15.321746 ,Left ,68,9801847970373 ,47,9013062194973 ,70,1917101932937
15.3442856 ,Left ,68,966804517071 ,47,9206062557806 ,70,1983463601097
15.3745041 ,Left ,68,9483721575602 ,47,9384517461633 ,70,1958109227706
15.389559 ,Left ,68,9401674952921 ,47,9129112508854 ,70,178294150127
15.4119352 ,Left ,68,9011682571357 ,47,8644776444769 ,70,1477283227799
15.4269189 ,Left ,68,9043174549529 ,47,8626563587857 ,70,1509592416158
15.4419579 ,Left ,68,9299645703667 ,47,8825106992246 ,70,1631947677193
15.4647117 ,Left ,68,9869428977333 ,47,9272380779026 ,70,1786015025505
15.4869069 ,Left ,68,9439894960462 ,47,9259184875589 ,70,1794600994721
15.5017821 ,Left ,68,9437579275052 ,47,9220340201733 ,70,1648119364016
15.5243219 ,Left ,68,9312007939681 ,47,8863021735609 ,70,1392315218347
15.5467509 ,Left ,68,9148264223128 ,47,8644301413576 ,70,1175113244668
15.5624885 ,Left ,68,8747494180089 ,47,8954325855193 ,70,1199226698299
15.5850672 ,Left ,68,8271160608264 ,47,9449524994596 ,70,1159185979729
15.6072127 ,Left ,68,89331598865 ,47,9804246107773 ,70,1471991216817
15.6221078 ,Left ,68,8334841052598 ,48,0894616633134 ,70,1819794086377
15.6448485 ,Left ,68,7631381893921 ,48,1884813397338 ,70,2143170469861
15.6672106 ,Left ,68,7790809774611 ,48,2322065159525 ,70,2197765718365
15.6820585 ,Left ,68,7059168144808 ,48,2759391718548 ,70,2391609802336
15.711977 ,Left ,68,6327926718115 ,48,3240832336651 ,70,2580386187682
15.7345714 ,Left ,68,6385994706255 ,48,3413354629038 ,70,2628803938344
15.7497068 ,Left ,68,61099976998 ,48,3357922808607 ,70,2767075407479
15.7724819 ,Left ,68,5680941105845 ,48,3457664533364 ,70,3174937976572
15.7874457 ,Left ,68,5341824942009 ,48,3555709263953 ,70,3260949129326
15.8024022 ,Left ,68,5788274167991 ,48,3128617208778 ,70,3219823278963
15.8250826 ,Left ,68,6065521869073 ,48,3354338723365 ,70,3072265607958
15.847032 ,Left ,68,6023630340631 ,48,4222174006542 ,70,2835704183583
15.8694691 ,Left ,68,6681075578412 ,48,4846024465218 ,70,2699987233572
15.8844744 ,Left ,68,7294628563427 ,48,4867313317364 ,70,2576245539301
15.9069416 ,Left ,68,7540830436201 ,48,4586419512139 ,70,2387044950757
15.9295942 ,Left ,68,7348957876598 ,48,425586867705 ,70,2294138927543
15.944625 ,Left ,68,7243716216998 ,48,4210429085565 ,70,2130033240658
15.9669953 ,Left ,68,735918658708 ,48,4404552454619 ,70,2010226619696
15.989447 ,Left ,68,7776629538432 ,48,475370212022 ,70,1591798251686
16.0046275 ,Left ,68,7905250063694 ,48,4762758042246 ,70,0942996975503
16.0267831 ,Left ,68,7716850410152 ,48,4740157456183 ,70,036696615576
16.0494719 ,Left ,68,7269978678275 ,48,4769379007329 ,69,9653055847378
16.0643422 ,Left ,68,7163656038714 ,48,4638977565324 ,69,8693187768774
16.0869365 ,Left ,68,6940546351893 ,48,4423368710582 ,69,7926191147226
16.1166254 ,Left ,68,654256426983 ,48,4457588190935 ,69,756777452916
16.1316451 ,Left ,68,6215955357043 ,48,4411989858509 ,69,6956386753067
16.1542718 ,Left ,68,5696688584208 ,48,4021692917272 ,69,6718217630801
16.1916467 ,Left ,68,702520793567 ,48,4871272785192 ,69,7871318898077
16.2144051 ,Left ,68,7484854422581 ,48,4809932139794 ,69,8210616016048
16.2367603 ,Left ,68,743870154841 ,48,4384982935141 ,69,8180278881926
16.2517014 ,Left ,68,72496600283 ,48,3111967562324 ,69,7833241500365
16.274372 ,Left ,68,7445962196109 ,48,1621549301945 ,69,7403407354427
16.2972335 ,Left ,68,7639418782967 ,48,0698131617992 ,69,7421900049161
16.3121681 ,Left ,68,7306560757113 ,48,0424566398929 ,69,7430736663587
16.3269414 ,Left ,68,7575580305362 ,48,0227590687448 ,69,7270716266642
16.34964 ,Left ,68,8346968620569 ,47,9556502980406 ,69,71077466843
16.3646182 ,Left ,68,8788124222729 ,47,8803391488114 ,69,7196959945142
16.3871219 ,Left ,68,8850427292423 ,47,8719008189391 ,69,7407993042429
16.4097705 ,Left ,68,8668486595656 ,47,9106994652127 ,69,7610203074235
16.4244552 ,Left ,68,907074869796 ,47,9699898156115 ,69,772323704586
16.4470001 ,Left ,68,9718922067188 ,47,9868761807671 ,69,7783829721938
16.476881 ,Left ,69,0071723412247 ,47,974797100465 ,69,7890661028514
16.4920394 ,Left ,68,9782226301529 ,47,9493915251445 ,69,8045363219134
16.514294 ,Left ,68,9851306346648 ,47,9317088401516 ,69,8077877530128
16.5294434 ,Left ,69,0278898893705 ,47,9055147905101 ,69,809641969954
16.5442671 ,Left ,69,038032761559 ,47,8835540486333 ,69,8203801519596
16.5668477 ,Left ,69,0407403179679 ,47,8683778605213 ,69,8297904807029
16.5895977 ,Left ,69,0504393583448 ,47,8468450107123 ,69,8317284077537
16.6045303 ,Left ,69,0611082163619 ,47,8221292827816 ,69,8263757613325
16.6270416 ,Left ,69,0771709064387 ,47,8122895182121 ,69,823878120726
16.6497564 ,Left ,69,0771709064387 ,47,8122895182121 ,69,823878120726
16.6646738 ,Left ,69,0987698270437 ,47,8139453186972 ,69,8224252024071
16.6871411 ,Left ,69,1354851154259 ,47,8217166809509 ,69,8254710167114
16.7096416 ,Left ,69,1583185665434 ,47,7912547495949 ,69,8155786082619
16.7243219 ,Left ,69,1800749800953 ,47,7560795622307 ,69,8109207458305
16.7545062 ,Left ,69,1859745523065 ,47,727276414885 ,69,8153666483137
16.7770986 ,Left ,69,1990636142845 ,47,7118660675235 ,69,814122845288
16.7920209 ,Left ,69,2262303128542 ,47,701849250644 ,69,8163064549902
16.8070503 ,Left ,69,2209645256553 ,47,6844844979536 ,69,8177238581416
16.8296387 ,Left ,69,2126376150582 ,47,6639479300797 ,69,8245571149942
16.8445585 ,Left ,69,2074324518232 ,47,6518942293578 ,69,8385599076625
16.866915 ,Left ,69,1969599488881 ,47,6520090762813 ,69,8554519090444
16.8898651 ,Left ,69,1857971697954 ,47,6583318209572 ,69,8756762991692
16.91194 ,Left ,69,1648023798084 ,47,6581842549349 ,69,8967680044732
16.9270013 ,Left ,69,1393068789063 ,47,6610344849732 ,69,9174538828996
16.9496518 ,Left ,69,1179216477048 ,47,6766170543573 ,69,9334729342644
16.9719405 ,Left ,69,1041879762137 ,47,6947980592974 ,69,9486298670953
16.9870127 ,Left ,69,0854466942073 ,47,7035852864743 ,69,9611121656308
17.0095112 ,Left ,69,0681360980137 ,47,6999008507456 ,69,9754438564387
17.031938 ,Left ,69,0501870097002 ,47,7063917875951 ,69,9929890120364
17.0470794 ,Left ,69,0395299481872 ,47,7438279346341 ,70,0188106425238
17.0696264 ,Left ,69,0199539509551 ,47,8024711797937 ,70,0452904800401
17.0920347 ,Left ,68,9991648746684 ,47,8576234761952 ,70,0329140703288
17.1069012 ,Left ,68,9868128976955 ,47,8815829109295 ,70,0280215781609
17.1296646 ,Left ,68,9631992161305 ,47,9422621497496 ,70,0542281091014
17.1519778 ,Left ,68,9346497581597 ,48,0429836752274 ,70,0861058284299
17.1667 ,Left ,68,9183073267752 ,48,1501000628645 ,70,1005452421477
17.190138 ,Left ,68,9591667122609 ,48,2053485712214 ,70,104010776071
17.2124455 ,Left ,68,9973030691034 ,48,2058703140701 ,70,0946665313212
17.2274366 ,Left ,68,9638775665572 ,48,166335964995 ,70,0896359483959
17.2496855 ,Left ,68,9064866887785 ,48,1037988469332 ,70,0740953112182
17.2720505 ,Left ,68,8739429211277 ,48,0604218238264 ,70,0703121194948
17.28706 ,Left ,68,8460940940262 ,48,0723091938674 ,70,0626971354367
17.3095713 ,Left ,68,8517370148002 ,48,1057446451176 ,70,0689756903646
17.332049 ,Left ,68,8633029677465 ,48,1237464413532 ,70,0797602640051
17.3466991 ,Left ,68,8961815049633 ,48,1011268958565 ,70,0887603297019
17.3700116 ,Left ,68,8842969606184 ,48,1030490866183 ,70,0995673236126
17.3924174 ,Left ,68,8400005352042 ,48,1238136682996 ,70,0875171415212
17.407186 ,Left ,68,8842607215997 ,48,1222846350264 ,70,0552447922875
17.4297606 ,Left ,68,8844990406026 ,48,1130822448359 ,70,0434478436102
17.4520746 ,Left ,68,8373573126768 ,48,085207408867 ,70,0492617655873
17.4670891 ,Left ,68,8121155286585 ,48,0569613341694 ,70,0646516209865
17.4893254 ,Left ,68,8046455937793 ,48,0504893039733 ,70,0989655850906
17.5117733 ,Left ,68,782263622463 ,48,0644656749985 ,70,107057096421
17.5268171 ,Left ,68,7715488170682 ,48,0646986256695 ,70,1295384832148
17.5494662 ,Left ,68,7686827448484 ,48,1075742164287 ,70,1888254336966
17.5717845 ,Left ,68,6881541909663 ,48,2274734527454 ,70,2508327968136
17.594429 ,Left ,68,6803134682892 ,48,34240682895 ,70,2942517363134
17.6095976 ,Left ,68,7121822879491 ,48,3950289505031 ,70,3067485943059
17.631912 ,Left ,68,6324029759213 ,48,423887247601 ,70,3278407429212
17.6546679 ,Left ,68,562684793967 ,48,4440623902253 ,70,3388540933755
17.6694697 ,Left ,68,5717944144034 ,48,4454061425467 ,70,3437773132166
17.6920551 ,Left ,68,5688064836308 ,48,4350923971195 ,70,3537219264825
17.7070283 ,Left ,68,5636483907674 ,48,4043751748333 ,70,3648732332562
17.7293022 ,Left ,68,5776163404269 ,48,3808812703901 ,70,3679801679447
17.7518487 ,Left ,68,5774846904846 ,48,3497098252465 ,70,3656507283613
17.7667744 ,Left ,68,580721772015 ,48,3128159292318 ,70,3526966338225
17.7894626 ,Left ,68,5857989771867 ,48,2840576602429 ,70,3307290853737
17.8118389 ,Left ,68,5886256295713 ,48,2680039325647 ,70,3098048553425
17.8343851 ,Left ,68,5954689838107 ,48,2552014308143 ,70,292667871163
17.856926 ,Left ,68,587520917091 ,48,2487003774889 ,70,28512712193
17.8794183 ,Left ,68,5834221904602 ,48,2625653751895 ,70,3069907311628
17.9020185 ,Left ,68,5353778814663 ,48,3036983419135 ,70,33263659482
17.9169494 ,Left ,68,4369993332727 ,48,3460159870537 ,70,3631777547652
17.9319553 ,Left ,68,4721691572396 ,48,4005217418928 ,70,419308029386
17.9545356 ,Left ,68,4549242310087 ,48,5314855351234 ,70,4708999543619
17.9692882 ,Left ,68,4555511034859 ,48,6439091766186 ,70,5125468447203
17.9917868 ,Left ,68,5057529778588 ,48,6585290391558 ,70,5271326978402
18.0144774 ,Left ,68,5449951531367 ,48,611756516576 ,70,5126005751803
18.0292685 ,Left ,68,5146281084377 ,48,5577877810608 ,70,4879243993202
18.052381 ,Left ,68,5223386506987 ,48,5184474779463 ,70,4574387711281
18.0749426 ,Left ,68,5536633458414 ,48,4988009743938 ,70,4143945692623
18.0898334 ,Left ,68,5987209835188 ,48,4906348924425 ,70,3495641395272
18.1120371 ,Left ,68,6309236405221 ,48,4790796302229 ,70,2822027096419
18.1346338 ,Left ,68,6661653400221 ,48,4750037805157 ,70,2154081960946
18.1496443 ,Left ,68,6904017532726 ,48,4892102719003 ,70,1673424672512
18.1718342 ,Left ,68,7037075749026 ,48,5226798345057 ,70,1176669441089
18.194464 ,Left ,68,7227936865932 ,48,5486163127401 ,70,0600043870107
18.209528 ,Left ,68,7444034155872 ,48,5653467816416 ,70,0156257272626
18.2317428 ,Left ,68,7607625136161 ,48,6028832823288 ,70,0059083191447
18.2544045 ,Left ,68,7172134851846 ,48,674590551197 ,69,9918205780489
18.2694039 ,Left ,68,704822094405 ,48,7411606493977 ,69,9380271859152
18.2918307 ,Left ,68,7086032927091 ,48,7439333911187 ,69,8829613661495
18.3141798 ,Left ,68,6822820436316 ,48,6940175171821 ,69,8768996452301
18.3294357 ,Left ,68,6552257146098 ,48,6649360052695 ,69,9282175013926
18.3523759 ,Left ,68,7078767397826 ,48,7164114801782 ,70,0029713240812
18.3750852 ,Left ,68,7169667473009 ,48,7512729433248 ,70,0591278872257
18.3900672 ,Left ,68,733732337046 ,48,7158167664151 ,70,0673817506901
18.4194305 ,Left ,68,7556255736104 ,48,63577754352 ,70,0400610173764
18.4418444 ,Left ,68,7772245345715 ,48,4947556224958 ,69,9963800170795
18.456897 ,Left ,68,7997545447568 ,48,3692860527151 ,69,960629249733
18.4718956 ,Left ,68,8001771702948 ,48,2599696066206 ,69,9551962817916
18.5023701 ,Left ,68,7365743353688 ,48,2143215151548 ,69,9718405502263
18.5250088 ,Left ,68,7145514547212 ,48,1832766617886 ,69,9718158042772
18.539866 ,Left ,68,7769744315039 ,48,1147140813555 ,69,9461983873581
18.5546533 ,Left ,68,8755745412254 ,48,0998082772043 ,69,9232073023526
18.5845685 ,Left ,68,8439442112374 ,48,1582605144375 ,69,8997653295344
18.5995735 ,Left ,68,8429992788478 ,48,2529655710613 ,69,8952929198225
18.6219337 ,Left ,68,8907429105929 ,48,3251593721195 ,69,8951714663371
18.6516346 ,Left ,68,9737598871269 ,48,3049474280551 ,69,9131035313148
18.6750984 ,Left ,68,9399467621403 ,48,2592361981504 ,69,909621676135
18.6968012 ,Left ,68,9300577760399 ,48,2155825885604 ,69,9094751457652
18.7118225 ,Left ,68,9638039032778 ,48,1674210436044 ,69,9076802826447
18.7343333 ,Left ,68,9804275206539 ,48,1204787890785 ,69,911400329589
18.7568182 ,Left ,68,9887218184816 ,48,0893748309786 ,69,918651066956
18.7718839 ,Left ,69,0090255295805 ,48,0661603517566 ,69,9272692168946
18.7942842 ,Left ,69,0213428954476 ,48,0260965593372 ,69,9305203478689
18.8169475 ,Left ,69,0327373872677 ,47,998082888275 ,69,9324505663629
18.832093 ,Left ,69,0474408692945 ,47,9908363004539 ,69,9369728617058
18.8546852 ,Left ,69,0632426245977 ,47,9794354067161 ,69,9364986423271
18.8770851 ,Left ,69,0964730504115 ,47,9795642726565 ,69,930202350185
18.8922066 ,Left ,69,1038790695127 ,47,9743221424958 ,69,9211319884912
18.9147994 ,Left ,69,1002907525678 ,47,9491251211706 ,69,9120406658468
18.9372006 ,Left ,69,1072577839228 ,47,9154169833177 ,69,8928887177415
18.9521817 ,Left ,69,1188210981932 ,47,8836397079191 ,69,8740470886185
18.9747945 ,Left ,69,1246804589654 ,47,8741735045755 ,69,8613776070312
18.9971941 ,Left ,69,1157559438409 ,47,8743071483797 ,69,854537824566
19.0120445 ,Left ,69,1157559438409 ,47,8743071483797 ,69,854537824566
19.0347022 ,Left ,69,0932136660943 ,47,8709528466664 ,69,8633946642368
19.0571934 ,Left ,69,0767927438012 ,47,8649472901554 ,69,8763810194646
19.072219 ,Left ,69,0665643173786 ,47,8563388959299 ,69,8872887361957
19.0946523 ,Left ,69,0480199330365 ,47,846417178385 ,69,9087411383051
19.1172592 ,Left ,69,0269866816338 ,47,8458505225287 ,69,9232557932818
19.124515 ,Left ,69,010544737009 ,47,8472619512559 ,69,9318304327502
19.1472465 ,Left ,68,9971724070875 ,47,860642992263 ,69,9347266684202
19.1848104 ,Left ,68,9769235261646 ,47,8877984160445 ,69,9344196987904
19.2069015 ,Left ,68,9524140902731 ,47,8934653525431 ,69,9305987656558
19.2518183 ,Left ,68,9348742273409 ,47,930457942593 ,69,9409282000969
19.2747357 ,Left ,68,9291677985917 ,47,953715606572 ,69,959350223666
19.3043368 ,Left ,68,8726695259013 ,47,9859544458389 ,69,9765434378332
19.3268306 ,Left ,68,8591499202181 ,48,0628617684487 ,70,0263720514207
19.3495343 ,Left ,68,8787325533295 ,48,1538403502445 ,70,0732135035287
19.3643719 ,Left ,68,9123444209494 ,48,2455243057878 ,70,1153598287194
19.3867951 ,Left ,68,9395443385738 ,48,2913941505217 ,70,1426798360092
19.4096379 ,Left ,68,9647982468651 ,48,3174970985779 ,70,1442096211893
19.4246452 ,Left ,68,933421705156 ,48,2941037364308 ,70,1384829425628
19.4469418 ,Left ,68,9036072911839 ,48,252071551505 ,70,1125103233913
19.4846015 ,Left ,68,8399260783669 ,48,1629180904539 ,70,0856972866365
19.506816 ,Left ,68,8249840397596 ,48,1559362034841 ,70,0834663515804
19.5444563 ,Left ,68,7966960623575 ,48,0229301935922 ,70,0777516373272
19.5668101 ,Left ,68,8296329608094 ,47,9719368051259 ,70,0984662057671
19.6045058 ,Left ,68,8772342812684 ,48,0011901142571 ,70,1322447749045
19.6269758 ,Left ,68,8377124441428 ,48,0473978550358 ,70,1446309674998
19.6647135 ,Left ,68,853872584679 ,48,0565570508249 ,70,1458507835091
19.6870205 ,Left ,68,8224782496847 ,48,0584806111138 ,70,1392850230252
19.7246716 ,Left ,68,8451993319776 ,48,1143895068971 ,70,1614496204373
19.7470969 ,Left ,68,8609820945825 ,48,1545050672611 ,70,2125918459824
19.7850551 ,Left ,68,7637109285068 ,48,3608074949668 ,70,3499000026925
19.8150521 ,Left ,68,721989401147 ,48,4692274928635 ,70,3861254394904
19.8370242 ,Left ,68,6917080141651 ,48,5454005584279 ,70,4004445636731
19.866759 ,Left ,68,6368741168819 ,48,5933940356923 ,70,4120734616212
19.9043236 ,Left ,68,5386286015913 ,48,5672367786722 ,70,3888542936281
19.9268049 ,Left ,68,5226674773008 ,48,5431228452821 ,70,3662748509184
19.9647112 ,Left ,68,5380730977066 ,48,5859957564476 ,70,3443075560833
19.987152 ,Left ,68,5557298578012 ,48,6337242572329 ,70,326426675558
20.0246501 ,Left ,68,6742113575587 ,48,6199607456253 ,70,3154558682925
20.0473154 ,Left ,68,6599929209976 ,48,5865314770858 ,70,3051592791483
20.0848077 ,Left ,68,6866227327787 ,48,5710094493684 ,70,2776177881119
20.1071539 ,Left ,68,7315606726663 ,48,5645342933787 ,70,2495106408789
20.1447783 ,Left ,68,7491080230272 ,48,5482623040419 ,70,2026511733239
20.1670544 ,Left ,68,732312231523 ,48,5522556661935 ,70,1795108836777
20.2043641 ,Left ,68,7427707067174 ,48,5031064760074 ,70,0249044459106
20.2267899 ,Left ,68,6916168311054 ,48,4997237102562 ,69,982072318611
20.2642167 ,Left ,68,6436850025371 ,48,5450093911854 ,69,9015287545668
20.2868542 ,Left ,68,6467788737628 ,48,5227408097807 ,69,8974284551965
20.324349 ,Left ,68,6501410683508 ,48,5617125820281 ,70,0153056099787
20.3467615 ,Left ,68,716235796661 ,48,609083271723 ,70,0608563303753
20.3843141 ,Left ,68,6826636888595 ,48,5845913274055 ,70,0711946887098
20.4069631 ,Left ,68,6571459831995 ,48,4735411436862 ,70,0326185028371
20.444654 ,Left ,68,686993124067 ,48,2743364135049 ,70,0123075909878
20.4669895 ,Left ,68,6203038455157 ,48,2511696526667 ,70,0394543597854
20.5044892 ,Left ,68,7402652329257 ,48,221999235184 ,70,0618520027474
20.5273409 ,Left ,68,7428391331899 ,48,1868733015962 ,70,0908276394793
20.5650184 ,Left ,68,7909711127057 ,48,2904376318092 ,70,1464126755641
20.5875279 ,Left ,68,843769776395 ,48,3391593242666 ,70,1660882648376
20.6248408 ,Left ,68,8704905523174 ,48,322514859882 ,70,1853604955105
20.6470832 ,Left ,68,8326839700458 ,48,2836016818238 ,70,1966889086498
20.684448 ,Left ,68,8678812262621 ,48,1602252247863 ,70,2254201517906
20.7067401 ,Left ,68,8688127239735 ,48,1041447049971 ,70,2435541140624
20.744448 ,Left ,68,8673445754427 ,47,9981278292749 ,70,2763725188459
20.7675918 ,Left ,68,8661094072163 ,47,9675039703413 ,70,2891693763657
20.8044131 ,Left ,68,8517296277368 ,47,9390938968729 ,70,3158569586282
20.8269494 ,Left ,68,8687095843417 ,47,9321515543539 ,70,3248380234182
20.8643548 ,Left ,68,8976529275167 ,47,9271546023386 ,70,3165163223955
20.8944302 ,Left ,68,9168061083097 ,47,9353693757585 ,70,3123250219544
20.947066 ,Left ,68,9386650856624 ,47,9574818959435 ,70,2851866418873
20.9622977 ,Left ,68,9342012056026 ,47,9449161486239 ,70,2750871335439
20.9772023 ,Left ,68,9331938775045 ,47,9335302723126 ,70,2642045947593
20.9998513 ,Left ,68,9289014320594 ,47,9224685174244 ,70,2521035722965
21.022272 ,Left ,68,9305723361965 ,47,9145429132034 ,70,2416337183708
21.0373658 ,Left ,68,9210657459369 ,47,9014200959161 ,70,2348225517398
21.0598921 ,Left ,68,9166757146446 ,47,8888381302133 ,70,2247716845358
21.0823069 ,Left ,68,8977151220203 ,47,8747452884242 ,70,2252666985255
21.0971258 ,Left ,68,894276005415 ,47,873560320461 ,70,2260710540787
21.1196592 ,Left ,68,892879628061 ,47,8707703823695 ,70,241487774059
21.1421207 ,Left ,68,8899825286297 ,47,8691395578196 ,70,2574979155703
21.1570478 ,Left ,68,9002867316668 ,47,8662376395079 ,70,2720981835729
21.1870789 ,Left ,68,9095242116718 ,47,8690071046836 ,70,2812186193112
21.2097642 ,Left ,68,911290625227 ,47,8781212574938 ,70,2908829071792
21.2244904 ,Left ,68,9273501698817 ,47,8930224963636 ,70,2957822863763
21.2470033 ,Left ,68,9409894383076 ,47,8961816687085 ,70,3009146099622
21.2620076 ,Left ,68,9432108523048 ,47,8951591247261 ,70,3010795068273
21.2770448 ,Left ,68,9508240934791 ,47,9049717419386 ,70,3019744659111
21.2994609 ,Left ,68,9782738331416 ,47,9265422869921 ,70,3012918412829
21.3220732 ,Left ,68,9797087129141 ,47,9277992044182 ,70,3026558217165
21.3371052 ,Left ,68,9588637836894 ,47,9119917117789 ,70,2950784998862
21.3596595 ,Left ,68,9402500567861 ,47,9171378352291 ,70,292882435535
21.381967 ,Left ,68,895363053839 ,47,9453303561928 ,70,3091378584186
21.3970923 ,Left ,68,8705324609745 ,47,9901500719564 ,70,3361449881907
21.41952 ,Left ,68,9064571762646 ,47,981914558441 ,70,3620853907628
21.4419794 ,Left ,68,8842710672354 ,48,0042666670232 ,70,3907246738656
21.4570773 ,Left ,68,8099371414351 ,48,0614250929284 ,70,4150133523278
21.479269 ,Left ,68,8528471465641 ,48,1098232888235 ,70,4116794297349
21.5017919 ,Left ,68,9025476635212 ,48,117183711331 ,70,3967472578717
21.5243575 ,Left ,68,8898577268629 ,48,067985336057 ,70,3742362232493
21.5393846 ,Left ,68,7860283429114 ,47,9782513400555 ,70,3688145344562
21.5620926 ,Left ,68,7238586548869 ,47,9024180649926 ,70,3798217417657
21.584495 ,Left ,68,7058894688165 ,47,9022942612969 ,70,3869239568324
21.5996836 ,Left ,68,6928588711479 ,47,9085256752468 ,70,3881294887443
21.6221016 ,Left ,68,718977105529 ,47,8862915262096 ,70,3884246229176
21.6446632 ,Left ,68,7521368881678 ,47,8605269228947 ,70,3959781281006
21.6600575 ,Left ,68,7229445286103 ,47,9139612727295 ,70,3991249493485
21.6821001 ,Left ,68,6772182775437 ,47,9670432113594 ,70,4064353257616
21.7046702 ,Left ,68,6791455386455 ,47,9767039673306 ,70,3952546825233
21.7197035 ,Left ,68,6740164817461 ,47,9444200303832 ,70,4025335627288
21.7420589 ,Left ,68,6312140529113 ,47,9100849136238 ,70,4098621748653
21.7645303 ,Left ,68,6204739982259 ,47,9055488804818 ,70,4202864517507
21.7793793 ,Left ,68,6193535017236 ,47,9351541235208 ,70,4235158192264
21.8017541 ,Left ,68,6016882614792 ,47,9546898311287 ,70,4400066854362
21.8245073 ,Left ,68,6079222625976 ,47,9901987212698 ,70,4834770830075
21.8393434 ,Left ,68,5500393328701 ,48,0448969232144 ,70,5133798349868
21.8618804 ,Left ,68,5271860701533 ,48,1005127921419 ,70,5322800915549
21.884521 ,Left ,68,5206613279985 ,48,1202194273392 ,70,5326197978338
21.8996239 ,Left ,68,4456168097026 ,48,139843292788 ,70,5473127300778
21.9221612 ,Left ,68,4298517112669 ,48,1573374800114 ,70,5634002510494
21.9448237 ,Left ,68,4504652366817 ,48,1642877811776 ,70,5710807252906
21.9598224 ,Left ,68,4403434301521 ,48,1584669189822 ,70,5779744536876
21.9821537 ,Left ,68,3718271277688 ,48,1624838070662 ,70,6064019723965
22.0047901 ,Left ,68,3212975913201 ,48,1904595842879 ,70,6343716868236
22.0272431 ,Left ,68,340737500332 ,48,2527520280623 ,70,6549189892395
22.0497547 ,Left ,68,3071672608147 ,48,3839545883393 ,70,6621455820384
22.079706 ,Left ,68,4047010458176 ,48,5602993875618 ,70,6595714805855
22.102474 ,Left ,68,4139801817695 ,48,5809770474159 ,70,6529406535855
22.1249189 ,Left ,68,3791367763494 ,48,594672328759 ,70,6394570952056
22.1401931 ,Left ,68,3462137753477 ,48,6109175756775 ,70,5930499815619
22.162093 ,Left ,68,3631944359562 ,48,6308913702665 ,70,5392380296356
22.184665 ,Left ,68,3963061850878 ,48,6496609099325 ,70,4773325421711
22.1997052 ,Left ,68,3956138614211 ,48,6773525746486 ,70,4116365261236
22.2296467 ,Left ,68,3727508036162 ,48,7145295422331 ,70,3273267067443
22.2519019 ,Left ,68,3502639372269 ,48,7241267740486 ,70,2088641359423
22.2825049 ,Left ,68,2775100383923 ,48,7146387543715 ,70,047383851034
22.3051797 ,Left ,68,2835241216122 ,48,6781279140477 ,69,9804429281684
22.3272291 ,Left ,68,2491089756731 ,48,6227421440129 ,69,9920023622986
22.3420277 ,Left ,68,3325099463123 ,48,6601957756743 ,70,0548568291883
22.3646847 ,Left ,68,3931580911442 ,48,6851480672216 ,70,1181105045624
22.3869358 ,Left ,68,3886916079034 ,48,6699609902673 ,70,1592403068734
22.4021089 ,Left ,68,4027386327084 ,48,5970416348563 ,70,1634636598785
22.4245146 ,Left ,68,4238836478987 ,48,4559769328583 ,70,1747520639848
22.4470364 ,Left ,68,4526685648526 ,48,3299312530996 ,70,1844806594113
22.4620812 ,Left ,68,4545595449264 ,48,2099203188926 ,70,1957747932227
22.4846582 ,Left ,68,4227450096625 ,48,1236955733394 ,70,237638858139
22.5069916 ,Left ,68,4127565391985 ,48,0994802029435 ,70,2685914785495
22.5293593 ,Left ,68,415819871539 ,48,0697711128965 ,70,2632373113765
22.5742907 ,Left ,68,5408300926332 ,47,9831893198297 ,70,2482032353032
22.5895489 ,Left ,68,5700023948271 ,47,9876450251474 ,70,2458956428092
22.6122662 ,Left ,68,5921505723264 ,48,0161201553104 ,70,2497098592476
22.6424045 ,Left ,68,6987181379433 ,48,0196213009556 ,70,2750006146385
22.6650699 ,Left ,68,7404647709853 ,48,0089276672109 ,70,298618564783
22.687212 ,Left ,68,7381629211712 ,47,9849875193548 ,70,3184756033649
22.7021437 ,Left ,68,7635027176295 ,47,9684949430546 ,70,3343448997866
22.7241569 ,Left ,68,8002161579935 ,47,9488478356308 ,70,3471513585571
22.7469225 ,Left ,68,8132911701782 ,47,9288910736113 ,70,3613352458374
22.7617094 ,Left ,68,8199075375314 ,47,903754777926 ,70,3693571215243
22.7844875 ,Left ,68,8190100674394 ,47,880089461638 ,70,3718648209719
22.8067087 ,Left ,68,8280776670165 ,47,8593671801978 ,70,3716329449891
22.8220855 ,Left ,68,8405997717775 ,47,8324764057359 ,70,368896088191
22.8448314 ,Left ,68,8533637070475 ,47,8183497374708 ,70,3657181354739
22.8671152 ,Left ,68,8703001754304 ,47,7991516813142 ,70,3669378768834
22.8821484 ,Left ,68,8958533005775 ,47,7865258828907 ,70,3701042326926
22.9048111 ,Left ,68,9107492380964 ,47,7698581547566 ,70,369122720534
22.9271536 ,Left ,68,9320587632691 ,47,7534590060165 ,70,3682393359684
22.9420387 ,Left ,68,9387498756121 ,47,7307779658905 ,70,3656025694663
22.9641781 ,Left ,68,9449101942834 ,47,7207384282062 ,70,3617682202217
22.986959 ,Left ,68,9540295264493 ,47,7097981474574 ,70,3588525564255
23.0024562 ,Left ,68,9573750817409 ,47,70212401298 ,70,3583806371184
23.0248589 ,Left ,68,9540706293492 ,47,7024637203661 ,70,3571663614437
23.0469059 ,Left ,68,9349749470135 ,47,703067162704 ,70,3674938581665
23.0618815 ,Left ,68,9333169725397 ,47,7085383733749 ,70,3823488940018
23.0845517 ,Left ,68,921092873256 ,47,7124040390764 ,70,4035158914593
23.1066589 ,Left ,68,9012991741879 ,47,7128698795777 ,70,4194385981485
23.1217371 ,Left ,68,8773577844072 ,47,7120595698439 ,70,4354541397532
23.1443342 ,Left ,68,8586700590327 ,47,720624851933 ,70,4477948432718
23.1669901 ,Left ,68,8499784644537 ,47,7247855250543 ,70,4556638386231
23.1818628 ,Left ,68,8376434293465 ,47,7213938856177 ,70,4603677950047
23.2045918 ,Left ,68,8293257229936 ,47,7114433566257 ,70,4652111421678
23.2269316 ,Left ,68,8240144339973 ,47,7118557633656 ,70,4725291014425
23.2419875 ,Left ,68,802518663371 ,47,7326535844302 ,70,4791810323876
23.264303 ,Left ,68,7976891345256 ,47,766964515997 ,70,4806438442131
23.2867953 ,Left ,68,8224348285166 ,47,7785653291757 ,70,4899935247069
23.3017505 ,Left ,68,8304135062669 ,47,8274393501514 ,70,5159792375932
23.3245041 ,Left ,68,8163780206296 ,47,8743611083689 ,70,5701483840853
23.3470458 ,Left ,68,8079007063287 ,47,9496517108737 ,70,6236156233609
23.3620307 ,Left ,68,8642740922699 ,47,9960103257857 ,70,6645337900599
23.3846318 ,Left ,68,9100646774511 ,48,0261166349233 ,70,7021385649173
23.4069803 ,Left ,68,9289717110803 ,48,0469809966063 ,70,7155869524233
23.4219953 ,Left ,68,8899156113664 ,48,0345637555186 ,70,7043100008839
23.4445996 ,Left ,68,8474425778368 ,47,998250819323 ,70,6641937557767
23.4670086 ,Left ,68,8354896811148 ,47,9381984723856 ,70,6290285839375
23.4895803 ,Left ,68,8275875986441 ,47,9235752644671 ,70,6220657998009
23.504373 ,Left ,68,7733299387652 ,47,9343221700506 ,70,6255309906462
23.5267354 ,Left ,68,7463202739917 ,47,921424788539 ,70,6202638064115
23.5492328 ,Left ,68,7191843240161 ,47,8835333516178 ,70,6353897336454
23.5643468 ,Left ,68,6802760272221 ,47,8766427200176 ,70,6617252231548
23.586983 ,Left ,68,6914225140436 ,47,8928392285504 ,70,6863700118709
23.6096186 ,Left ,68,6756539690429 ,47,9810793340333 ,70,7080488078812
23.6243642 ,Left ,68,6332434817874 ,48,0657642203506 ,70,7300780075914
23.6469728 ,Left ,68,6513016489628 ,48,0968847211682 ,70,7251104836851
23.6693807 ,Left ,68,6766976177972 ,48,0933610570877 ,70,7134318407182
23.6843083 ,Left ,68,6135757763222 ,48,0440800356334 ,70,6954374651296
23.7075482 ,Left ,68,5984229346079 ,48,0027188982138 ,70,6896109331236
23.7374817 ,Left ,68,5790366445681 ,47,9956620267534 ,70,6853084856788
23.752207 ,Left ,68,5240707540037 ,48,0199197011359 ,70,6909537214198
23.7745561 ,Left ,68,5795819363156 ,48,0961586889823 ,70,7281519413426
23.8046695 ,Left ,68,4853394212292 ,48,2995274105583 ,70,8225497645373
23.8270286 ,Left ,68,516806805495 ,48,3650079701957 ,70,8487053782977
23.8497608 ,Left ,68,4563088219631 ,48,4306203211654 ,70,8649330620976
23.864396 ,Left ,68,4254783464651 ,48,4681821214089 ,70,8801193474259
23.8870255 ,Left ,68,4445965318553 ,48,4595583577155 ,70,8835675087355
23.9094766 ,Left ,68,4058567651911 ,48,4563745021669 ,70,9148562079385
23.9245881 ,Left ,68,2988350873192 ,48,4567439536309 ,70,9227033186307
23.9471632 ,Left ,68,2670464601763 ,48,4488823560838 ,70,8935925739996
23.9696243 ,Left ,68,3027570528562 ,48,4781539214026 ,70,8836314661546
23.9844314 ,Left ,68,2608101175102 ,48,6307454519643 ,70,8791271598501
24.0071218 ,Left ,68,2907137395888 ,48,742714864461 ,70,8827622601916
24.0292302 ,Left ,68,3787564236724 ,48,7815452062841 ,70,880185923612
24.0450779 ,Left ,68,4029233241865 ,48,7487926746078 ,70,8644534733313
24.0675046 ,Left ,68,3881497804118 ,48,7126519881148 ,70,8527524522606
24.0900666 ,Left ,68,3803061057552 ,48,7004990831025 ,70,8235845381641
24.1050751 ,Left ,68,3829283475648 ,48,6956073216167 ,70,7737053361477
24.1275361 ,Left ,68,4054742368685 ,48,7127908244697 ,70,7176356874024
24.1497509 ,Left ,68,4487175898212 ,48,7339464643318 ,70,6739649301632
24.1645278 ,Left ,68,4849261898642 ,48,7519407027847 ,70,6398388951091
24.1871362 ,Left ,68,478103686487 ,48,7540557753131 ,70,5902462883225
24.2095108 ,Left ,68,4567934153211 ,48,742547381891 ,70,5109662557661
24.2245454 ,Left ,68,4428657565147 ,48,729457733941 ,70,4248620828785
24.2471236 ,Left ,68,4292785814746 ,48,72358799569 ,70,3589241909336
24.2696765 ,Left ,68,4066754398517 ,48,7129676116656 ,70,3065770685444
24.2845139 ,Left ,68,3816467663001 ,48,6881939525876 ,70,25874995305
24.3069403 ,Left ,68,3259103831422 ,48,6297202119599 ,70,2088322776134
24.329745 ,Left ,68,2702305935833 ,48,5746155981949 ,70,2199295811738
24.3519831 ,Left ,68,3304592209633 ,48,5946387585042 ,70,256413926695
24.3670238 ,Left ,68,4235049018188 ,48,6235660335359 ,70,298678041151
24.3896756 ,Left ,68,4840210029726 ,48,6174103394721 ,70,3249561629519
24.4120177 ,Left ,68,4679361149889 ,48,582165426097 ,70,3335037280816
24.4270218 ,Left ,68,4792429253396 ,48,5172623564184 ,70,3183754276841
24.4494975 ,Left ,68,5359204077362 ,48,3991356605337 ,70,2923102916363
24.4720192 ,Left ,68,5877625713075 ,48,2901794184011 ,70,278766693615
24.4871424 ,Left ,68,5889923286348 ,48,1718798032728 ,70,2725738492464
24.509551 ,Left ,68,5542437027212 ,48,0530989669733 ,70,2864603206833
24.5320312 ,Left ,68,5169268056743 ,47,985175310953 ,70,3199603132295
24.5472614 ,Left ,68,5681056141774 ,47,9784436844105 ,70,3382665224713
24.5698799 ,Left ,68,6216810041062 ,47,9358241546542 ,70,3257043621251
24.5920808 ,Left ,68,6717257548232 ,47,935555209885 ,70,3236463037783
24.6070661 ,Left ,68,6665330953777 ,47,9335620822575 ,70,3352747841195
24.6294999 ,Left ,68,7129033730631 ,47,975063568665 ,70,3520762931013
24.651987 ,Left ,68,7881241441376 ,47,9894314464827 ,70,3619688844167
24.6669746 ,Left ,68,8582246976131 ,47,9699357786255 ,70,3748546688728
24.6896051 ,Left ,68,9091744091885 ,47,9299837701297 ,70,3841957514464
24.7120354 ,Left ,68,8995113387688 ,47,8737918352266 ,70,3858670211389
24.7268772 ,Left ,68,9241776525767 ,47,8438955088098 ,70,380775572633
24.7494981 ,Left ,68,993847075509 ,47,8183843314949 ,70,374327595498
24.7718004 ,Left ,69,0378046129395 ,47,8000268496717 ,70,3731208098241
24.7868401 ,Left ,69,047149582138 ,47,7807330374702 ,70,3771299084368
24.8093514 ,Left ,69,0623772096868 ,47,7679550175142 ,70,3845535237606
24.8318681 ,Left ,69,084988596747 ,47,754584128015 ,70,3952156933548
24.8470089 ,Left ,69,1193355765412 ,47,7435032073223 ,70,400729476759
24.8618733 ,Left ,69,1600183515898 ,47,7312316296157 ,70,4020973990513
24.8843821 ,Left ,69,1839141673958 ,47,7273266106745 ,70,4135755978379
24.8996894 ,Left ,69,2175340891454 ,47,7259003944715 ,70,4157591415006
24.922368 ,Left ,69,2803713426827 ,47,7130803937866 ,70,405649356925
24.9592425 ,Left ,69,2734176540704 ,47,6355739216529 ,70,3850432838193
24.9818879 ,Left ,69,2667344723785 ,47,6345699911509 ,70,3994333624861
25.0198509 ,Left ,69,2838748880038 ,47,7015470472258 ,70,4579460944406
25.0425154 ,Left ,69,2656392228786 ,47,7141570412622 ,70,4916820188906
25.0870683 ,Left ,69,2342517366726 ,47,7126034113843 ,70,5527688403025
25.1093715 ,Left ,69,2087525217364 ,47,7356423854128 ,70,5870599894461
25.1393305 ,Left ,69,1646992462393 ,47,7779177507583 ,70,6436112023779
25.1618454 ,Left ,69,1302792554898 ,47,7811557255803 ,70,6572146637927
25.1994808 ,Left ,69,0851902906197 ,47,809051468755 ,70,6545785229355
25.2219954 ,Left ,69,059071120209 ,47,8272629223678 ,70,6483807979489
25.259605 ,Left ,68,9780110595823 ,47,8640805082383 ,70,6466975721815
25.2820037 ,Left ,68,9486537138648 ,47,9073754907647 ,70,6523547715222
25.32723 ,Left ,68,8677326478494 ,47,9882440080677 ,70,6185390018059
25.3496413 ,Left ,68,8657310408947 ,48,0309240494738 ,70,6055404598764
25.3791691 ,Left ,68,9120913943242 ,48,1923542567447 ,70,6378537664096
25.4016981 ,Left ,68,9566817721119 ,48,290765258056 ,70,6744058574659
25.424181 ,Left ,68,9305460314194 ,48,33868205279 ,70,690658566526
25.4394299 ,Left ,68,9014570652575 ,48,3094233731845 ,70,6942562298227
25.4618099 ,Left ,68,8684541455283 ,48,2859144785057 ,70,6874263260005
25.484385 ,Left ,68,843160301187 ,48,2484516342626 ,70,6542085504553
25.4996424 ,Left ,68,8037623482642 ,48,2053113378974 ,70,6257895284594
25.5216959 ,Left ,68,7623061197135 ,48,1931648703224 ,70,6140752230915
25.5667641 ,Left ,68,685690378509 ,48,2025032962741 ,70,6297988123872
25.5895276 ,Left ,68,6866689881632 ,48,1661507009929 ,70,6312168336847
25.6193211 ,Left ,68,6854876298037 ,48,1897350069939 ,70,6429110339699
25.6420555 ,Left ,68,6686327901853 ,48,2201472032057 ,70,6425466019372
25.67954 ,Left ,68,6726758546427 ,48,1878646468322 ,70,6178412064239
25.7095884 ,Left ,68,6222959188682 ,48,1680854560516 ,70,6122650185132
25.7619172 ,Left ,68,630904721265 ,48,2004059998037 ,70,6185851640281
25.799715 ,Left ,68,5170352336865 ,48,3096454198785 ,70,633009790575
25.8220015 ,Left ,68,4686890801181 ,48,3616577082401 ,70,619875416296
25.85961 ,Left ,68,3778202405843 ,48,3723550701561 ,70,6063106532039
25.8820163 ,Left ,68,3508636966147 ,48,3516660938748 ,70,6138547686109
25.9271592 ,Left ,68,2406070620554 ,48,3134660738931 ,70,6240496133743
25.9496227 ,Left ,68,1837800442412 ,48,3038719791098 ,70,6195450871513
25.9797227 ,Left ,68,1929471389 ,48,4008400740781 ,70,6122546572067
26.0020956 ,Left ,68,195054958245 ,48,5030903966857 ,70,5996826987639
26.0396798 ,Left ,68,2551743050827 ,48,539295271927 ,70,5750033024264
26.0618913 ,Left ,68,2459948686055 ,48,4930847111322 ,70,5511463099504
26.1071371 ,Left ,68,2527289781801 ,48,4433362970471 ,70,4962089877381
26.1296323 ,Left ,68,2890799975194 ,48,433161356342 ,70,4615664822689
26.1819013 ,Left ,68,3545630393607 ,48,506574690369 ,70,4213055024028
26.2191879 ,Left ,68,4160367024342 ,48,4988923310679 ,70,346291068998
26.2418208 ,Left ,68,4213431134862 ,48,4939077811858 ,70,3130881630673
26.2874849 ,Left ,68,4347079362864 ,48,5148682690591 ,70,2760203147747
26.3400266 ,Left ,68,4571318060542 ,48,4962485655779 ,70,2239730596866
26.3618615 ,Left ,68,455039561645 ,48,4831462076198 ,70,2206355444542
26.3994676 ,Left ,68,4786409983138 ,48,4791975621302 ,70,219950111795
26.4219718 ,Left ,68,4775516668464 ,48,4784877060815 ,70,2188877579752
26.4595621 ,Left ,68,5019113684158 ,48,4504046654535 ,70,2264846407458
26.4820127 ,Left ,68,5171589954397 ,48,4447596463205 ,70,2297924017156
26.5194315 ,Left ,68,5300155403662 ,48,4327499079739 ,70,2249219599884
26.5495929 ,Left ,68,5304768780024 ,48,4274969079523 ,70,2277461517326
26.6021608 ,Left ,68,5688766599121 ,48,4445542348907 ,70,2262377970801
26.6320622 ,Left ,68,5588671254572 ,48,4770950261623 ,70,2307320967461
26.6619843 ,Left ,68,5340845257542 ,48,5120157334433 ,70,2447891091686
26.6999871 ,Left ,68,5214551362875 ,48,5642580655651 ,70,1984835050992
26.7147801 ,Left ,68,518184999623 ,48,5567136635825 ,70,1834182766327
26.7445627 ,Left ,68,4793022474147 ,48,5452388522592 ,70,1676534023728
26.7597108 ,Left ,68,5156673000895 ,48,5216049035266 ,70,1747588978452
26.7824278 ,Left ,68,5697077418529 ,48,5337473252165 ,70,2097304834061
26.7974616 ,Left ,68,5350967449948 ,48,542372412746 ,70,244024877089
26.8121922 ,Left ,68,5308223021568 ,48,5415637471988 ,70,2560932879515
26.8348175 ,Left ,68,6057763025168 ,48,5211748577855 ,70,2506011966707
26.8573591 ,Left ,68,6369541196482 ,48,4335461126404 ,70,2498851631136
26.8719738 ,Left ,68,6453158098828 ,48,3363602958288 ,70,2595833803681
26.8946938 ,Left ,68,6461102005304 ,48,2302366128562 ,70,2725921016821
26.9171191 ,Left ,68,6493102185953 ,48,145994582357 ,70,2889055388881
26.939639 ,Left ,68,6565654752476 ,48,1084317894743 ,70,319064407376
26.9620579 ,Left ,68,6587451895703 ,48,0864238114354 ,70,3391583046332
26.9847035 ,Left ,68,6721373628088 ,48,0407479122174 ,70,3427891459594
26.9995903 ,Left ,68,7245444641717 ,48,0301652664683 ,70,3293266692132
27.0145643 ,Left ,68,7104282040856 ,48,0796310911043 ,70,3186074530162
27.0370617 ,Left ,68,7148679426 ,48,1312976205176 ,70,3118398172027
27.0520963 ,Left ,68,7677468075586 ,48,1452321632739 ,70,3204628506279
27.0746519 ,Left ,68,7840648819365 ,48,1479154153746 ,70,3387196306925
27.097193 ,Left ,68,7933452856781 ,48,1369972628808 ,70,3568737417667
27.1121023 ,Left ,68,7911221455211 ,48,1277218484675 ,70,3737776931356
27.1345741 ,Left ,68,795358964355 ,48,1036568490077 ,70,3752183601055
27.1568348 ,Left ,68,8359532317655 ,48,0730593679165 ,70,3739782696961
27.1717915 ,Left ,68,8466587110419 ,48,0297140573065 ,70,3808013369031
27.1943341 ,Left ,68,8421070433336 ,48,0033818714711 ,70,3860252033271
27.2168844 ,Left ,68,8582088025301 ,47,9904226034936 ,70,3820522163224
27.231832 ,Left ,68,8830628398289 ,47,9782157162704 ,70,3763516128798
27.2544109 ,Left ,68,9060576122768 ,47,9709788556698 ,70,3788945305868
27.2769933 ,Left ,68,9205734053424 ,47,9512955554017 ,70,3819682245554
27.2993637 ,Left ,68,9363867062817 ,47,9207170043997 ,70,3722655246428
27.3143942 ,Left ,68,9553652874924 ,47,8980767253737 ,70,3632002209884
27.3368626 ,Left ,68,9699453534126 ,47,8931067133323 ,70,3634036988633
27.3594608 ,Left ,68,9994522638003 ,47,9007797788921 ,70,3695607704036
27.3742456 ,Left ,69,0292126131808 ,47,9065367677791 ,70,3719440217399
27.3969619 ,Left ,69,0299154667424 ,47,8929525148884 ,70,3753705105065
27.4194943 ,Left ,69,0280383720157 ,47,865170326327 ,70,3748662467562
27.4345812 ,Left ,69,0283126531501 ,47,8471045815067 ,70,3780708216197
27.4570446 ,Left ,69,0273863905639 ,47,8405380649528 ,70,3795684325494
27.4796218 ,Left ,69,0204144399168 ,47,8342054045082 ,70,3875554710411
27.4945899 ,Left ,69,0050845360685 ,47,825232068414 ,70,4019407859792
27.5171631 ,Left ,68,9883412737086 ,47,8076211385847 ,70,4196114407524
27.53964 ,Left ,68,9752578574792 ,47,7902461327513 ,70,4388460449431
27.5546398 ,Left ,68,9579466310728 ,47,7813325835657 ,70,4618405038753
27.5772253 ,Left ,68,9492842767742 ,47,7789808407445 ,70,4868452178607
27.5996985 ,Left ,68,9396962904267 ,47,770078860075 ,70,5134161397433
27.6147367 ,Left ,68,9380715330041 ,47,7642446936794 ,70,533068328148
27.6370757 ,Left ,68,9373713547553 ,47,7566762452159 ,70,5433237028557
27.6595054 ,Left ,68,939974249375 ,47,7561447160471 ,70,5501360648621
27.6745276 ,Left ,68,9467332087969 ,47,7569427274587 ,70,5505347419099
27.6971098 ,Left ,68,9556462061136 ,47,758202790651 ,70,5405437439934
27.7196501 ,Left ,68,9740368395723 ,47,7613179760022 ,70,5293587273322
27.7347274 ,Left ,68,9762764002629 ,47,7740548350092 ,70,5204085178947
27.7571304 ,Left ,68,9799827174467 ,47,7953692247854 ,70,5145408292859
27.7792242 ,Left ,68,9958968239277 ,47,8145061450847 ,70,5189159830257
27.7943992 ,Left ,69,0102494410913 ,47,8308705418579 ,70,5240082366144
27.8167989 ,Left ,69,0208384536141 ,47,8431140207371 ,70,5276493724436
27.8394566 ,Left ,69,028044660735 ,47,8581787072869 ,70,5256970043623
27.8545493 ,Left ,69,0316802059141 ,47,8681848629237 ,70,5245966374471
27.8769109 ,Left ,69,0278554919115 ,47,8772007330897 ,70,5286331075182
27.8994766 ,Left ,69,0265696768121 ,47,8979244472786 ,70,5325020706936
27.9145786 ,Left ,69,034145365099 ,47,9135601149895 ,70,5308782954794
27.9371494 ,Left ,69,0274374354996 ,47,92007954066 ,70,5321795724459
27.9596806 ,Left ,69,014042121406 ,47,9233346369441 ,70,537393269343
27.9744469 ,Left ,69,0065829064122 ,47,9297610937981 ,70,5378942248392
27.9971845 ,Left ,68,993936046956 ,47,9348027832191 ,70,529125505998
28.0195522 ,Left ,68,9716349803623 ,47,9365279046138 ,70,517182777495
28.0347415 ,Left ,68,9302101041907 ,47,9482194868232 ,70,5146790066998
28.0569345 ,Left ,68,8907075464098 ,47,9411280693402 ,70,5193537203992
28.0794267 ,Left ,68,9039322134483 ,47,9191854113809 ,70,5234394047309
28.094382 ,Left ,68,881212424462 ,47,9426972923218 ,70,5222986397386
28.1167361 ,Left ,68,861917224186 ,48,0001097592277 ,70,5142035269821
28.1393458 ,Left ,68,9088966248044 ,48,0424448111449 ,70,4963691931112
28.1543353 ,Left ,68,937249322496 ,48,0564146433892 ,70,4699604682944
28.1769595 ,Left ,68,9024426068893 ,48,0205234305585 ,70,4578916124323
28.1995625 ,Left ,68,8447891912385 ,47,9747268072781 ,70,4506992457357
28.2219431 ,Left ,68,8239364129855 ,47,9360468199061 ,70,4403924834428
28.2370997 ,Left ,68,8263472526022 ,47,9404678728143 ,70,4321105413878
28.2596726 ,Left ,68,8290419404093 ,47,9267757325819 ,70,4397816648692
28.2821044 ,Left ,68,8313146135271 ,47,8988251939204 ,70,449911886504
28.2970998 ,Left ,68,8221652427732 ,47,8627135548357 ,70,474239687532
28.3196995 ,Left ,68,7886266831522 ,47,8537777108675 ,70,4747034210056
28.342114 ,Left ,68,8018260875373 ,47,8939951748121 ,70,4729085348301
28.3570757 ,Left ,68,8183254185114 ,47,9093895024992 ,70,4780362485547
28.379623 ,Left ,68,8124278373829 ,47,8964771377924 ,70,4854637498217
28.4020687 ,Left ,68,8010330856951 ,47,8893226332023 ,70,5057938607469
28.4170364 ,Left ,68,757051837544 ,47,8788503498681 ,70,5189087327217
28.4393428 ,Left ,68,7477108249923 ,47,8687737857902 ,70,5080926457161
28.4619088 ,Left ,68,7700513313947 ,47,8520731749028 ,70,5042793273051
28.4768218 ,Left ,68,7343871154185 ,47,8583397716775 ,70,5289082534868
28.499512 ,Left ,68,6348034799735 ,47,8963634959234 ,70,5688980712194
28.5219759 ,Left ,68,6405618355845 ,47,9911892745623 ,70,6347237609685
28.5370276 ,Left ,68,5689814020641 ,48,1404561419325 ,70,7058623098792
28.5594873 ,Left ,68,4940681490272 ,48,261244115704 ,70,7601136552162
28.5819259 ,Left ,68,4655768588813 ,48,3346967833471 ,70,7813699195925
28.5971118 ,Left ,68,4145373335666 ,48,3854316284079 ,70,789950377577
28.6193663 ,Left ,68,3775242243366 ,48,4008659363054 ,70,7886344713197
28.6420429 ,Left ,68,3668680016793 ,48,3895710089526 ,70,7707180827484
28.6568115 ,Left ,68,3260774935008 ,48,3867919661529 ,70,7712634783405
28.6868677 ,Left ,68,2366466608046 ,48,3997084485116 ,70,7834716607212
28.7093018 ,Left ,68,2363699131196 ,48,3788944997299 ,70,7973974074032
28.7245122 ,Left ,68,2998783697378 ,48,3293289932808 ,70,8282351936969
28.7395709 ,Left ,68,2604100530338 ,48,405610212815 ,70,845728848678
28.7696663 ,Left ,68,3001497685546 ,48,4803774722086 ,70,848067697209
28.7842855 ,Left ,68,3937348350747 ,48,4977026655649 ,70,8479066354468
28.8068701 ,Left ,68,4195298056757 ,48,4665201160598 ,70,8374486698033
28.8217836 ,Left ,68,4284876714381 ,48,4259295779541 ,70,8190414224465
28.8368774 ,Left ,68,4468015215877 ,48,3977623195843 ,70,7944690103244
28.8594791 ,Left ,68,4894177170852 ,48,4002684820205 ,70,7650527032652
28.8820061 ,Left ,68,5233538749255 ,48,4138954326508 ,70,7322093714252
28.8971418 ,Left ,68,5591237274656 ,48,4259721187789 ,70,6993472808727
28.9194478 ,Left ,68,6022785905464 ,48,4375074167052 ,70,6699183642629
28.9417799 ,Left ,68,6381692767377 ,48,4657611228764 ,70,644349006597
28.9569913 ,Left ,68,6495056432932 ,48,5132172080841 ,70,5992542228578
28.9792386 ,Left ,68,6331458805366 ,48,5467033711924 ,70,5296260665102
29.0017482 ,Left ,68,6337805924178 ,48,5669031672136 ,70,4799455502908
29.0168783 ,Left ,68,6261475619424 ,48,6028211444692 ,70,4639440178791
29.0392806 ,Left ,68,5896752794345 ,48,6428281927486 ,70,4371659852566
29.061938 ,Left ,68,5628408000093 ,48,630786989894 ,70,3724025145316
29.0769102 ,Left ,68,5415954958742 ,48,6007639169104 ,70,3347007660089
29.0992632 ,Left ,68,52273508994 ,48,5819801814545 ,70,3434663479939
29.1216933 ,Left ,68,5003742420433 ,48,5654526286788 ,70,3792855802946
29.136862 ,Left ,68,5680691939876 ,48,599768268448 ,70,420319446405
29.1600641 ,Left ,68,6035020887645 ,48,5974663757769 ,70,4558885457536
29.1824905 ,Left ,68,6133154694403 ,48,5726705562016 ,70,465229462856
29.2050586 ,Left ,68,6287398050378 ,48,5178789159988 ,70,4433155423441
29.2199569 ,Left ,68,6412050802583 ,48,4051431567397 ,70,4033863600967
29.241995 ,Left ,68,6545193715097 ,48,2748587402694 ,70,3588097181354
29.2645481 ,Left ,68,6707486306044 ,48,1176107361962 ,70,3223608147118
29.2795099 ,Left ,68,6737314892043 ,47,99168556428 ,70,3181710476937
29.3020234 ,Left ,68,6821074119187 ,47,9376610710445 ,70,350570838338
29.3246371 ,Left ,68,6924477968114 ,47,9529343561254 ,70,3829113541991
29.3394923 ,Left ,68,670153547417 ,47,9524435312618 ,70,3877389529696
29.3620124 ,Left ,68,7198425311177 ,47,9338816162809 ,70,40731979416
29.3846298 ,Left ,68,713806928937 ,47,9810559041568 ,70,4317466518604
29.3994552 ,Left ,68,7204645180323 ,48,0404315185041 ,70,4576178296026
29.4219082 ,Left ,68,794645130469 ,48,0557374891138 ,70,4768591052418
29.4447164 ,Left ,68,813319657179 ,48,0192733059487 ,70,4831866204745
29.459721 ,Left ,68,8344417116727 ,47,9774463356612 ,70,4838878206755
29.4821581 ,Left ,68,8301004020461 ,47,9238666001334 ,70,4806129743404
29.5120786 ,Left ,68,8668291875762 ,47,8825826010197 ,70,4738561221936
29.5270984 ,Left ,68,9183369081352 ,47,8411627909177 ,70,4733536460301
29.5496946 ,Left ,68,9509879035496 ,47,8077112829522 ,70,4848523206942
29.5795549 ,Left ,68,9891258133576 ,47,7533121668211 ,70,4882395328514
29.6020324 ,Left ,68,9984888543169 ,47,7241884315461 ,70,4949882936153
29.6242951 ,Left ,69,0196873167575 ,47,7070416988807 ,70,508700915826
29.6394808 ,Left ,69,0497083075677 ,47,6897296629758 ,70,5081213652497
29.6618886 ,Left ,69,08738575754 ,47,6627618240147 ,70,4925158053406
29.6845211 ,Left ,69,0888067426611 ,47,6137514877529 ,70,4732339290569
29.6997331 ,Left ,69,0842898852389 ,47,5810611699796 ,70,4682617102591
29.7301181 ,Left ,69,0766349377163 ,47,5833813400438 ,70,4815916713432
29.7520083 ,Left ,69,0875250964174 ,47,6122142767527 ,70,4994672487036
29.7670196 ,Left ,69,1065064510983 ,47,6440212867061 ,70,5168334803043
29.7817894 ,Left ,69,1058165183334 ,47,6559907597948 ,70,5302365241963
29.8043033 ,Left ,69,0909305957266 ,47,6555219180682 ,70,5385458360656
29.8198214 ,Left ,69,0889064140097 ,47,6556045139596 ,70,5407264247508
29.8425171 ,Left ,69,0930218061728 ,47,6529594957826 ,70,5407545388195
29.8650098 ,Left ,69,1074231158364 ,47,6513322209244 ,70,5342071374957
29.8801001 ,Left ,69,0994578241613 ,47,6191238749123 ,70,5215677576263
29.9021192 ,Left ,69,1069255923283 ,47,584438661116 ,70,505525444773
29.9244217 ,Left ,69,095975288264 ,47,5750356354039 ,70,5034874862014
29.9395993 ,Left ,69,0921323741051 ,47,580728033404 ,70,4993572712716
29.9621418 ,Left ,69,0904159433027 ,47,5764365101397 ,70,502107681495
29.9846464 ,Left ,69,0726328108723 ,47,5670746312057 ,70,5122362561912
29.9996194 ,Left ,69,049291443588 ,47,5590429404151 ,70,5273846155328
30.0218097 ,Left ,69,0255129191382 ,47,5660725637381 ,70,5518062345642
30.0445809 ,Left ,69,0058089768432 ,47,5802894479363 ,70,5735350636695
30.0595074 ,Left ,68,9883178544921 ,47,5959552565282 ,70,5910155370761
30.0820816 ,Left ,68,9478177935819 ,47,5872571718224 ,70,6038052635167
30.1047246 ,Left ,68,9170747603293 ,47,5931135908529 ,70,6212630502017
30.1270813 ,Left ,68,9057536096712 ,47,6158296491196 ,70,6402065680245
30.1420709 ,Left ,68,8905927507475 ,47,6403199518935 ,70,6550954874023
30.1645573 ,Left ,68,8725361347051 ,47,655043963526 ,70,6592393451777
30.1871335 ,Left ,68,8372111031102 ,47,6738916484272 ,70,6585008937635
30.2022155 ,Left ,68,809105796581 ,47,7185406826017 ,70,6589577852301
30.2245156 ,Left ,68,7634940000152 ,47,7735093771795 ,70,6705356453975
30.2470466 ,Left ,68,7231294049557 ,47,7996284154413 ,70,6870477351978
30.262063 ,Left ,68,7495601686497 ,47,7605346068161 ,70,7015588524816
30.2847147 ,Left ,68,7409648126697 ,47,7246738697718 ,70,7144050114673
30.3068002 ,Left ,68,7082525943637 ,47,743987123738 ,70,7181523110985
30.3217747 ,Left ,68,7472060431543 ,47,7962397528115 ,70,7050933196797
30.3445475 ,Left ,68,8243921006254 ,47,849816218177 ,70,6801701913986
30.3669929 ,Left ,68,8189381892634 ,47,8430009259349 ,70,6730429146797
30.3819724 ,Left ,68,7489238927259 ,47,8147954753675 ,70,6656561608042
30.4046098 ,Left ,68,7131746005741 ,47,7709498215603 ,70,658136508019
30.4345441 ,Left ,68,7330833736395 ,47,7365616501525 ,70,6573446386098
30.4496374 ,Left ,68,7390799268855 ,47,7093096482281 ,70,6610458000813
30.4720076 ,Left ,68,7268478053435 ,47,6830308783949 ,70,6632901402885
30.4870302 ,Left ,68,698766454314 ,47,6410368018081 ,70,6697958173848
30.5020252 ,Left ,68,6592618797625 ,47,6189214514798 ,70,6930808854007
30.5245398 ,Left ,68,6319816150241 ,47,6231190201205 ,70,7140138797541
30.5470334 ,Left ,68,6190861471139 ,47,6407616442324 ,70,7103472532454
30.5619275 ,Left ,68,6133780696346 ,47,6162012889861 ,70,7107562407081
30.5844958 ,Left ,68,6097799383328 ,47,6644680385615 ,70,7182285729736
30.5992831 ,Left ,68,6100580068193 ,47,7505906962336 ,70,7265624578547
30.6218237 ,Left ,68,6403783529701 ,47,822208164136 ,70,7367331746227
30.6446297 ,Left ,68,6696162970767 ,47,8495905201125 ,70,7492807038288
30.6671936 ,Left ,68,6183063769366 ,47,8385911005624 ,70,7616147270078
30.6746978 ,Left ,68,5783826882303 ,47,7935702002931 ,70,760843665185
30.6971068 ,Left ,68,599946017486 ,47,7516582363521 ,70,7563015611209
30.7193072 ,Left ,68,5908145801364 ,47,7367753535584 ,70,7672641927113
30.7344681 ,Left ,68,5576815870051 ,47,7306515818182 ,70,7850761908902
30.7568427 ,Left ,68,5020404515416 ,47,7506268679605 ,70,790854547168
30.7795221 ,Left ,68,5468789988062 ,47,7819626603492 ,70,8183878025174
30.7942219 ,Left ,68,512002476856 ,47,8985766220176 ,70,8576099761894
30.8169839 ,Left ,68,4740087230214 ,48,0237423164815 ,70,9007371936143
30.8395804 ,Left ,68,504582113289 ,48,0925830507482 ,70,9399185834348
30.8543968 ,Left ,68,4988171849293 ,48,1037144125248 ,70,9684672934748
30.8768503 ,Left ,68,453726651613 ,48,0844274433335 ,70,9811865667109
30.9144484 ,Left ,68,4096225146961 ,48,0603757100569 ,70,9516773126803
30.937064 ,Left ,68,4358447362835 ,48,076723571878 ,70,92238827478
30.9744919 ,Left ,68,4185733173241 ,48,1192904018915 ,70,9137980421972
30.9970346 ,Left ,68,4221194643565 ,48,1248083365978 ,70,9252021656811
31.0344414 ,Left ,68,4606200700262 ,48,151765715155 ,70,9384880829054
31.057402 ,Left ,68,4640503216215 ,48,1611243646407 ,70,93697232549
31.1018713 ,Left ,68,443332872619 ,48,1700082471321 ,70,9237316499078
31.1245527 ,Left ,68,4478296479372 ,48,1815137562642 ,70,9147814312094
31.1547332 ,Left ,68,409547227603 ,48,1929712878259 ,70,9107447254144
31.1771898 ,Left ,68,3575798488476 ,48,1854614638761 ,70,9153227615176
31.2146638 ,Left ,68,4000701490439 ,48,2593607394729 ,70,938756191525
31.2371691 ,Left ,68,4003836731702 ,48,3458509824818 ,70,9540417600777
31.2745944 ,Left ,68,4664037989941 ,48,3868296306413 ,70,989705088338
31.2971001 ,Left ,68,4946387170903 ,48,3778058654849 ,71,0002150021909
31.3343922 ,Left ,68,4815930365338 ,48,377431343983 ,70,9728306092794
31.3567904 ,Left ,68,4897650928038 ,48,4177316189956 ,70,9508049073663
31.4021572 ,Left ,68,573600893095 ,48,4957385317848 ,70,8498579047883
31.4244702 ,Left ,68,5817503386671 ,48,505628171126 ,70,799959601364
31.4546269 ,Left ,68,5734950729811 ,48,5276117351603 ,70,7082869375118
31.4770133 ,Left ,68,5845041611716 ,48,5163405498309 ,70,6219392526255
31.51462 ,Left ,68,5681523662348 ,48,4909812782791 ,70,4846242967511
31.5369408 ,Left ,68,512744423607 ,48,5185156004487 ,70,4560051464021
31.5747393 ,Left ,68,5145465581981 ,48,5101865886882 ,70,4992690929644
31.5972412 ,Left ,68,5653616831051 ,48,5521083741135 ,70,5492345458106
31.634806 ,Left ,68,6152336736921 ,48,5431131999464 ,70,5936126700577
31.6570907 ,Left ,68,6430207044009 ,48,4824410141432 ,70,5764255351276
31.6797173 ,Left ,68,6066470633329 ,48,3501074234612 ,70,546933794326
31.7171277 ,Left ,68,6180585867727 ,48,0707565110385 ,70,4757557880432
31.7393046 ,Left ,68,6323934757253 ,47,9597768847567 ,70,4662542529958
31.7768186 ,Left ,68,6384698572719 ,47,8970029991842 ,70,5015201761064
31.8146429 ,Left ,68,7314040576069 ,47,936523360447 ,70,4895997734771
31.8371877 ,Left ,68,7128064883677 ,48,0032574522015 ,70,4876154952958
31.874783 ,Left ,68,8048377800091 ,48,0883195806357 ,70,4996421687444
31.8972024 ,Left ,68,8173712596275 ,48,0638278658749 ,70,513633285709
31.9346006 ,Left ,68,7925321594571 ,47,9677992664529 ,70,5071144149961
31.9566526 ,Left ,68,8036438434897 ,47,9426236326822 ,70,4989128610597
31.9943046 ,Left ,68,8472021179113 ,47,8904801686747 ,70,4850775540041
32.0244562 ,Left ,68,8504125591798 ,47,8754666246896 ,70,482899907235
32.0773751 ,Left ,68,8775029683427 ,47,7920256936998 ,70,5023557544559
32.1147163 ,Left ,68,9018051148323 ,47,7443877905675 ,70,4916618572015
32.1370999 ,Left ,68,9058882200572 ,47,7344151299745 ,70,4900047520348
32.1746178 ,Left ,68,9259410671064 ,47,6945774438392 ,70,5039508204498
32.1970523 ,Left ,68,9206995296531 ,47,6778370464981 ,70,5123177431993
32.2346107 ,Left ,68,9245070037068 ,47,6795062285333 ,70,5181267754982
32.2571488 ,Left ,68,9514800831936 ,47,6851201582703 ,70,5216176351249
32.29481 ,Left ,68,9270363497253 ,47,6456044337597 ,70,531057561527
32.3172601 ,Left ,68,912996814107 ,47,6437376245568 ,70,5571604935079
32.3547287 ,Left ,68,8892440400538 ,47,6600204844728 ,70,5998369819163
32.3772349 ,Left ,68,8710602699523 ,47,6560701186365 ,70,6071346127453
32.414611 ,Left ,68,8476759849811 ,47,6702990991058 ,70,5997141044014
32.4371632 ,Left ,68,8501122530974 ,47,6747235763098 ,70,5913284289586
32.4669613 ,Left ,68,843796068806 ,47,6784560862766 ,70,5847785297674
32.4893295 ,Left ,68,8503486060914 ,47,6875305762153 ,70,584452572757
32.511976 ,Left ,68,866742735712 ,47,6979810557371 ,70,5833719340143
32.5269825 ,Left ,68,8666028231744 ,47,7038546523505 ,70,5807277417646
32.549343 ,Left ,68,8472137203908 ,47,7319181713222 ,70,5932319032057
32.5719544 ,Left ,68,7887846999133 ,47,816997809248 ,70,6425217860871
32.5946265 ,Left ,68,7561573509805 ,47,9000552464287 ,70,6899986125566
32.6097331 ,Left ,68,7859155837969 ,47,9663475266093 ,70,733910996652
32.6320066 ,Left ,68,760882240058 ,48,0292626075638 ,70,7689930680197
32.6543267 ,Left ,68,7979059702678 ,48,0807690685369 ,70,7857179117346
32.6692673 ,Left ,68,8322888225921 ,48,0972167431151 ,70,7940350989425
32.6925029 ,Left ,68,8185134996489 ,48,08224518748 ,70,7688613627373
32.7075336 ,Left ,68,7952749696783 ,47,9983857616184 ,70,7223144381659
32.7300633 ,Left ,68,7684474532722 ,47,9052226928829 ,70,7019210965844
32.7522976 ,Left ,68,7529791652786 ,47,8305896300927 ,70,6958342838741
32.7671822 ,Left ,68,7239176723156 ,47,7645787020809 ,70,6924073911976
32.7896611 ,Left ,68,7293234215165 ,47,7386854891897 ,70,6996468984631
32.8119928 ,Left ,68,7422138876393 ,47,7532206617112 ,70,7241350051521
32.8272066 ,Left ,68,7528230521166 ,47,7878539845038 ,70,744827311715
32.8568595 ,Left ,68,7489835226587 ,47,814433842327 ,70,7600290309359
32.8793003 ,Left ,68,730332179896 ,47,8802659296276 ,70,772157295586
32.8944892 ,Left ,68,6701571864374 ,47,9505841182587 ,70,792336597391
32.9095207 ,Left ,68,6432174389477 ,47,9904159097437 ,70,8144551300624
32.9318712 ,Left ,68,6660399231438 ,47,9887447321621 ,70,8207206688815
32.9544513 ,Left ,68,6789105181265 ,47,9550375274721 ,70,8174293201978
32.9696078 ,Left ,68,6107130685451 ,47,9254762290411 ,70,8099481817179
32.9919258 ,Left ,68,6104138335443 ,47,9186143181293 ,70,7872177468532
33.0143114 ,Left ,68,6135233421424 ,47,9172299290598 ,70,7758600397805
33.0295172 ,Left ,68,6074099722731 ,47,9278154689162 ,70,7855818994396
33.0518404 ,Left ,68,5964187782258 ,47,9618391699111 ,70,8053341020124
33.0745603 ,Left ,68,5868106019738 ,48,0350940494329 ,70,8439897064564
33.089481 ,Left ,68,5591944174316 ,48,1268458910383 ,70,8774992446963
33.1118554 ,Left ,68,5176483701586 ,48,1970870660324 ,70,9025869386256
33.1345537 ,Left ,68,522964387607 ,48,2475973143276 ,70,9098779097526
33.1494097 ,Left ,68,4806131302553 ,48,2675803498213 ,70,9030311894923
33.1719461 ,Left ,68,440014042048 ,48,2655673904838 ,70,9038435273341
33.19445 ,Left ,68,4327390106052 ,48,2559816234426 ,70,8973841883611
33.2093497 ,Left ,68,3946972636595 ,48,2767375028529 ,70,898797310686
33.232456 ,Left ,68,3529168934175 ,48,2734768783477 ,70,9047999580141
33.2551669 ,Left ,68,3295489184744 ,48,2283873132124 ,70,902007011849
33.2694971 ,Left ,68,3653428178144 ,48,2145135169324 ,70,8976954553004
33.2918679 ,Left ,68,3255392686354 ,48,2926935509933 ,70,898429674398
33.3152644 ,Left ,68,3184496737422 ,48,3860401047839 ,70,8994067115448
33.3301302 ,Left ,68,3842651171296 ,48,4267405924074 ,70,9040365229675
33.352465 ,Left ,68,4240301027648 ,48,4359407799335 ,70,9163186088581
33.3745112 ,Left ,68,4254056925203 ,48,4148841910773 ,70,9215418373839
33.3967994 ,Left ,68,4084014975357 ,48,4093140772477 ,70,9256403697756
33.4193392 ,Left ,68,4063935869615 ,48,4147823005023 ,70,9128425970403
33.4417704 ,Left ,68,427211963132 ,48,4209730774844 ,70,9085024763085
33.4571235 ,Left ,68,4621311095223 ,48,4307400754237 ,70,909711919246
33.4719969 ,Left ,68,5043025133481 ,48,4349917109417 ,70,8961460429263
33.4946434 ,Left ,68,5128171327132 ,48,4487228207647 ,70,8665953679094
33.5096253 ,Left ,68,47490462047 ,48,4393429647296 ,70,8130710811449
33.5319676 ,Left ,68,4811209952364 ,48,4273759596682 ,70,736106459642
33.5546191 ,Left ,68,4696968346137 ,48,4119963128182 ,70,6581542486944
33.5693149 ,Left ,68,4162560804842 ,48,441997531887 ,70,6229649814307
33.5918643 ,Left ,68,4066529806088 ,48,4774202360171 ,70,5901659827974
33.6146247 ,Left ,68,373251811741 ,48,4588618797107 ,70,5929928324457
33.6296726 ,Left ,68,4041139895807 ,48,4693929647291 ,70,643529452023
33.6518816 ,Left ,68,4585493689848 ,48,5104124042142 ,70,6886720218984
33.6745077 ,Left ,68,4956548857827 ,48,5140361306156 ,70,7050266170068
33.6894647 ,Left ,68,5153027644951 ,48,4706827818558 ,70,7013361772037
33.7119739 ,Left ,68,5019064670126 ,48,3909199878568 ,70,6775972255781
33.7346254 ,Left ,68,5106815036922 ,48,2700292637293 ,70,644033056233
33.7493037 ,Left ,68,525156637747 ,48,1515275443601 ,70,6177368638824
33.7717094 ,Left ,68,5173740621087 ,48,0462532534263 ,70,6198317902014
33.7945518 ,Left ,68,4967204042223 ,47,9599023038586 ,70,6286018827993
33.8095594 ,Left ,68,5242079935608 ,47,9246825993864 ,70,640009320901
33.8320267 ,Left ,68,5520829003609 ,47,9558888293696 ,70,6572006698233
33.8546626 ,Left ,68,5410038416016 ,47,9660362067172 ,70,6766003294327
33.8696333 ,Left ,68,5505200749457 ,48,0127423671382 ,70,7012855538992
33.8919751 ,Left ,68,5658653288217 ,48,0458551495261 ,70,7141015509892
33.9144852 ,Left ,68,5938265967031 ,48,1110092523072 ,70,7287935467962
33.9370242 ,Left ,68,6418932010214 ,48,1520472217538 ,70,7468550828827
33.9520876 ,Left ,68,7077408754903 ,48,1617399831509 ,70,7622954517501
33.9746304 ,Left ,68,7998507440044 ,48,1397624628772 ,70,7607215146379
34.0046487 ,Left ,68,8336348622634 ,48,1026688306465 ,70,7556090194626
34.0196641 ,Left ,68,8225854311431 ,48,0660052920191 ,70,7574811489798
34.0418336 ,Left ,68,7987583220681 ,48,0231484013394 ,70,7553250829703
34.0718429 ,Left ,68,8650678084517 ,47,9698146735251 ,70,7211825415794
34.0944128 ,Left ,68,8651592640955 ,47,9499176354246 ,70,7142218977121
34.1169947 ,Left ,68,844526838981 ,47,9100176931159 ,70,7067179991233
34.1320462 ,Left ,68,8382165321615 ,47,8785694332841 ,70,7108467273475
34.1545625 ,Left ,68,8351382672373 ,47,8642227786505 ,70,7275337410449
34.1771814 ,Left ,68,849238783996 ,47,8563774275591 ,70,7505610339508
34.1920886 ,Left ,68,8958825928037 ,47,8721246795144 ,70,766831126861
34.2146702 ,Left ,68,8886355999983 ,47,8322646776189 ,70,7622776846123
34.2370689 ,Left ,68,8952996944352 ,47,7705001509603 ,70,7563694408704
34.2520026 ,Left ,68,9059926732979 ,47,7309194440034 ,70,7571029730431
34.2745244 ,Left ,68,8930266991786 ,47,7216330169817 ,70,763697661435
34.2970227 ,Left ,68,8976587129482 ,47,7307711375604 ,70,7656132136087
34.3125781 ,Left ,68,9234766754741 ,47,7437858914242 ,70,7674371982522
34.3350549 ,Left ,68,9272439937542 ,47,724939230586 ,70,766149782037
34.3576052 ,Left ,68,9281933312357 ,47,7011508982615 ,70,766582732878
34.3725869 ,Left ,68,9259835357306 ,47,6924070960079 ,70,7691691149499
34.394604 ,Left ,68,9264671044918 ,47,687087158241 ,70,7721143906887
34.4169549 ,Left ,68,928127449446 ,47,6799753255413 ,70,7805622832313
34.4396678 ,Left ,68,9098482811901 ,47,6745433118283 ,70,7963411940392
34.4620396 ,Left ,68,892398064276 ,47,6610136272746 ,70,8071939450522
34.4917455 ,Left ,68,9075638575212 ,47,6544228711828 ,70,8102179185146
34.5148273 ,Left ,68,9090174459429 ,47,6556619354489 ,70,8115675598881
34.537583 ,Left ,68,9121181249896 ,47,6562208043724 ,70,8104397215296
34.5518998 ,Left ,68,9077775099506 ,47,6632724685516 ,70,8098112629959
34.5746665 ,Left ,68,9122028178879 ,47,6709628901133 ,70,8073532251695
34.5971266 ,Left ,68,9312496937944 ,47,6896334313895 ,70,7978149722557
34.6118871 ,Left ,68,9409963026544 ,47,7066292740607 ,70,7916746813866
34.6344538 ,Left ,68,9523390083909 ,47,7263846271828 ,70,7848426145574
34.6569481 ,Left ,68,9472203868419 ,47,7323659604997 ,70,7772444163044
34.6720335 ,Left ,68,9415905169966 ,47,7430449221666 ,70,7813844660396
34.6944465 ,Left ,68,9340608292274 ,47,7537498093362 ,70,7941521955049
34.7169983 ,Left ,68,9259878688728 ,47,7716205519287 ,70,8142505141823
34.732026 ,Left ,68,9234193631962 ,47,7847052856433 ,70,8275506096033
34.7546689 ,Left ,68,9115101989259 ,47,7795471075158 ,70,8369485338717
34.7845182 ,Left ,68,8860790271295 ,47,7729088316506 ,70,845573729956
34.7997536 ,Left ,68,8552344908882 ,47,778492883919 ,70,8562835240005
34.8223745 ,Left ,68,83552501657 ,47,7817333568697 ,70,8615157012985
34.8598105 ,Left ,68,7841332302635 ,47,7763307608458 ,70,865101733322
34.8743643 ,Left ,68,770974172378 ,47,7791521939189 ,70,8916202945328
34.8973377 ,Left ,68,771228606073 ,47,8132060052875 ,70,9165062777048
34.9201387 ,Left ,68,7117296277379 ,47,8799937500764 ,70,937584104883
34.9350991 ,Left ,68,6973474108536 ,47,9324834095688 ,70,9398925363192
34.9577218 ,Left ,68,745720534667 ,47,956758777312 ,70,9320970492205
34.9801708 ,Left ,68,7806636758534 ,47,9572439655126 ,70,921108888958
34.9949143 ,Left ,68,8103282845766 ,47,9543123618758 ,70,9175985143582
35.017142 ,Left ,68,783113531934 ,47,9557555149244 ,70,9153591302086
35.0397396 ,Left ,68,7624149166637 ,47,9482240305559 ,70,9098001383188
35.0547878 ,Left ,68,7845159026941 ,47,9352060232618 ,70,8995088518606
35.0771408 ,Left ,68,7898928567222 ,47,9147303340795 ,70,8980883177721
35.0996456 ,Left ,68,7798150545539 ,47,8947870926347 ,70,9083576527829
35.1146263 ,Left ,68,7931416341879 ,47,8873551799437 ,70,9159891228401
35.1372237 ,Left ,68,8219475331521 ,47,8812568972045 ,70,9222233392318
35.1597168 ,Left ,68,8369358532743 ,47,8590238740633 ,70,9242611159443
35.174724 ,Left ,68,8285629689606 ,47,8375078571458 ,70,9279680383702
35.1971516 ,Left ,68,8219557161737 ,47,8168018537536 ,70,9271511486527
35.219772 ,Left ,68,8221746145813 ,47,8158703124501 ,70,929500657762
35.2346217 ,Left ,68,8203334740557 ,47,817500684347 ,70,9296205213622
35.2571262 ,Left ,68,8203334740557 ,47,817500684347 ,70,9296205213622
35.2797303 ,Left ,68,8028616266676 ,47,8104607120318 ,70,9294916670319
35.2947106 ,Left ,68,7894466393339 ,47,8065652590489 ,70,9331688203772
35.3170956 ,Left ,68,7885522249394 ,47,804971245629 ,70,9344349486664
35.3394999 ,Left ,68,7863590799753 ,47,8060245060964 ,70,9342891630707
35.3547582 ,Left ,68,7863590799753 ,47,8060245060964 ,70,9342891630707
35.3770835 ,Left ,68,7670132010381 ,47,7966742361228 ,70,9408411012198
35.3997451 ,Left ,68,7672331127898 ,47,7957443272778 ,70,9431945219162
35.4147342 ,Left ,68,7657656944922 ,47,7945035989446 ,70,941845035575
35.4374126 ,Left ,68,7635729597484 ,47,7955579135855 ,70,9416997345867
35.4601866 ,Left ,68,7635729597484 ,47,7955579135855 ,70,9416997345867
35.4750467 ,Left ,68,7635729597484 ,47,7955579135855 ,70,9416997345867
35.497112 ,Left ,68,762105550285 ,47,7943171832259 ,70,9403503540369
35.5196104 ,Left ,68,7623255482211 ,47,7933873749065 ,70,9427041908135
35.5346955 ,Left ,68,7735239870943 ,47,7925014997437 ,70,9351003138318
35.5571492 ,Left ,68,773287572054 ,47,7968786067313 ,70,9344841850615
35.5797081 ,Left ,68,7746700045356 ,47,8005561377098 ,70,9313952134948
35.5946557 ,Left ,68,794474434623 ,47,8046041944138 ,70,9278179820702
35.6252017 ,Left ,68,8152435027109 ,47,7961585788379 ,70,9198942730951
35.6475357 ,Left ,68,8210330154906 ,47,7884646282567 ,70,9115989644251
35.6698368 ,Left ,68,8267251797036 ,47,7924859349071 ,70,9043783104158
35.6845391 ,Left ,68,8454976153461 ,47,8056673946575 ,70,897007106188
35.7070445 ,Left ,68,8577366325745 ,47,8171858639633 ,70,8916209010557
35.7219877 ,Left ,68,8629443195715 ,47,8191274421454 ,70,8862333362883
35.7371012 ,Left ,68,8648664010163 ,47,8034143226585 ,70,8829880169835
35.7596828 ,Left ,68,8759273437981 ,47,7854548412153 ,70,8764626015316
35.7819844 ,Left ,68,872262808962 ,47,7852652975178 ,70,8749587237168
35.7969423 ,Left ,68,8762297234449 ,47,7850368388696 ,70,8705590538369
35.8195663 ,Left ,68,8954395208943 ,47,7831455715651 ,70,8689037654441
35.8421183 ,Left ,68,8878957009536 ,47,7749143897784 ,70,8724486841463
35.857073 ,Left ,68,8820865630054 ,47,7709507795783 ,70,8731984132444
35.8796437 ,Left ,68,8798852813219 ,47,772001121682 ,70,8730504653621
35.9095345 ,Left ,68,8798852813219 ,47,772001121682 ,70,8730504653621
35.9244824 ,Left ,68,8854431746717 ,47,7803448335742 ,70,8716997574205
35.9620818 ,Left ,68,886180092783 ,47,7780555770223 ,70,8704914922596
35.9769489 ,Left ,68,8858290769906 ,47,7774782862248 ,70,8702220847293
35.9995806 ,Left ,68,8966979701511 ,47,7795050776624 ,70,864139017085
36.0219607 ,Left ,68,8980802848917 ,47,7831958620815 ,70,8610723558102
36.0368991 ,Left ,68,8952504515417 ,47,7856750371922 ,70,8580294719144
36.0598143 ,Left ,68,8981330531459 ,47,7871619176214 ,70,8545727973431
36.0823115 ,Left ,68,8968853871325 ,47,7849854715317 ,70,8555616175778
36.0969406 ,Left ,68,8968853871325 ,47,7849854715317 ,70,8555616175778
36.1194857 ,Left ,68,8972359525181 ,47,7855629635998 ,70,8558316923808
36.1418905 ,Left ,68,8924579383289 ,47,784709835676 ,70,8532387690628
36.156989 ,Left ,68,8802262446427 ,47,786397166845 ,70,8576334808376
36.1793054 ,Left ,68,8740571051865 ,47,7876731854305 ,70,8618826865388
36.2020392 ,Left ,68,8710677293758 ,47,7870511625824 ,70,8694456541942
36.2172959 ,Left ,68,8691615887081 ,47,7905369611026 ,70,8798438126524
36.2397998 ,Left ,68,8589011666985 ,47,7905372005657 ,70,8905782305766
36.2622242 ,Left ,68,8542903589848 ,47,7906144274011 ,70,9006188655229
36.2773722 ,Left ,68,8583376411424 ,47,7937548213095 ,70,9044173517924
36.2996811 ,Left ,68,8556222761439 ,47,7903419182104 ,70,9040553812931
36.322289 ,Left ,68,8556222761439 ,47,7903419182104 ,70,9040553812931
36.3372937 ,Left ,68,8519581753787 ,47,7901539391707 ,70,9025531432944
36.3520915 ,Left ,68,8558718165042 ,47,7917819231504 ,70,9084332611121
36.3748521 ,Left ,68,8492036097839 ,47,7944258958336 ,70,9162492446936
36.3898073 ,Left ,68,8425397540426 ,47,7970726806496 ,70,9240669409491
36.4122537 ,Left ,68,8364733136542 ,47,7959198456079 ,70,9327618230419
36.4347487 ,Left ,68,8364733136542 ,47,7959198456079 ,70,9327618230419
36.4572116 ,Left ,68,8316315815725 ,47,7852958304784 ,70,9329230611603
36.4797242 ,Left ,68,8248151174838 ,47,7747917677088 ,70,9352980211512
36.5095134 ,Left ,68,8198401618827 ,47,7568320625502 ,70,9337993998913
36.5397153 ,Left ,68,8220366974425 ,47,7499522992609 ,70,9301838218809
36.5620148 ,Left ,68,8268401963687 ,47,7415296690188 ,70,9272649921448
36.5919271 ,Left ,68,8396968326792 ,47,717956374899 ,70,9271648124189
36.6144751 ,Left ,68,8453767795252 ,47,7145771058491 ,70,9247126104566
36.6296699 ,Left ,68,8563567587385 ,47,710688032425 ,70,9212806602825
36.6521196 ,Left ,68,862258707799 ,47,7063729755776 ,70,9211834591901
36.6746513 ,Left ,68,8600560618343 ,47,7074277616157 ,70,9210375882991
36.6897179 ,Left ,68,8602725886216 ,47,7064905206786 ,70,9233922870973
36.712021 ,Left ,68,8591621588549 ,47,7058283842454 ,70,9223089088883
36.7344617 ,Left ,68,8600222926093 ,47,7108708731186 ,70,9227773627969
36.7496296 ,Left ,68,8585590351382 ,47,7096332777127 ,70,9214265141712
36.7718866 ,Left ,68,8585590351382 ,47,7096332777127 ,70,9214265141712
36.8092712 ,Left ,68,8573124702567 ,47,7074585555122 ,70,9224304639516
36.8318375 ,Left ,68,8573124702567 ,47,7074585555122 ,70,9224304639516
36.8699165 ,Left ,68,8542351427568 ,47,7092937123569 ,70,925577072884
36.8925501 ,Left ,68,8482802527519 ,47,7096492135346 ,70,9322055079707
36.9300794 ,Left ,68,8502733525829 ,47,7147672486477 ,70,9484946157452
36.952078 ,Left ,68,850215564932 ,47,7166296003258 ,70,9587918814349
36.9897768 ,Left ,68,8395561957042 ,47,723768762971 ,70,9833846863129
37.0119623 ,Left ,68,8367231672487 ,47,7304956081009 ,70,9926622996894
37.0497682 ,Left ,68,8351120870561 ,47,7370192432663 ,70,9989048008804
37.0718066 ,Left ,68,8291458207619 ,47,7437911617989 ,70,99455152282
37.1093124 ,Left ,68,8203567004262 ,47,7530469934307 ,70,9871383673766
37.1319048 ,Left ,68,8203567004262 ,47,7530469934307 ,70,9871383673766
37.1697144 ,Left ,68,8124839508749 ,47,7516710520417 ,70,9856788087362
37.1920909 ,Left ,68,7923376765393 ,47,7544780120306 ,70,9842134214383
37.2294861 ,Left ,68,7633007398397 ,47,7942175698204 ,70,9897620370036
37.2517918 ,Left ,68,7356111148852 ,47,8067190924429 ,71,0155936820311
37.2902761 ,Left ,68,6912038012518 ,47,8062988933458 ,71,0928438523926
37.3124319 ,Left ,68,6964290178475 ,47,8304282880471 ,71,1169749803952
37.3501753 ,Left ,68,6926573875794 ,47,8666828689799 ,71,1351645170408
37.3720796 ,Left ,68,6928166824189 ,47,8438775573814 ,71,126844657351
37.4098447 ,Left ,68,6409250362447 ,47,7350448712328 ,71,1077112617354
37.4320012 ,Left ,68,6252586372294 ,47,6752076760467 ,71,1122098312741
37.4695643 ,Left ,68,5580199606258 ,47,6586014191209 ,71,1413608503487
37.492126 ,Left ,68,5502318700688 ,47,663100096324 ,71,1437035006827
37.5293584 ,Left ,68,5992607549376 ,47,7540796569983 ,71,1190368656888
37.5517292 ,Left ,68,5694099220451 ,47,8210905336118 ,71,1039896891484
37.5894286 ,Left ,68,6066880837444 ,47,8354605462327 ,71,0812694135757
37.6122951 ,Left ,68,6053153543201 ,47,8098888524831 ,71,0738083462319
37.6501693 ,Left ,68,6033765747387 ,47,7345289316836 ,71,0407433946938
37.6723607 ,Left ,68,6091959607784 ,47,6950771533906 ,71,0247942248684
37.7175288 ,Left ,68,6011899827693 ,47,6726479995912 ,71,0377308449089
37.7770578 ,Left ,68,582185303005 ,47,6921119368698 ,71,1181339057293
37.7993685 ,Left ,68,5902039300288 ,47,7168768891222 ,71,1344161761345
37.8295117 ,Left ,68,5895645764373 ,47,7927736445827 ,71,1540635038936
37.8520787 ,Left ,68,5811494346876 ,47,8015152191168 ,71,1679219812031
37.8899127 ,Left ,68,4894300213886 ,47,829965565476 ,71,207801762956
37.9118897 ,Left ,68,4484502919368 ,47,8725877142081 ,71,22756418572
37.9495697 ,Left ,68,4506272027907 ,47,9118766492901 ,71,2593041335822
37.9719983 ,Left ,68,4056285634268 ,47,9129600503716 ,71,2727852262264
38.0096242 ,Left ,68,3572638120692 ,47,9421358756056 ,71,2589928250238
38.0319341 ,Left ,68,3501346140693 ,47,9379487855412 ,71,2439421182177
38.0695727 ,Left ,68,3281188087138 ,47,9140979818158 ,71,2160568289796
38.0917912 ,Left ,68,3196851731866 ,47,9471044736479 ,71,20213182288
38.1370538 ,Left ,68,2342885522302 ,48,0554259109407 ,71,2325906169556
38.1595232 ,Left ,68,278441500541 ,48,0962203164782 ,71,2599106277668
38.1899089 ,Left ,68,2900615951101 ,48,2061619736843 ,71,3303665042038
