timestamp,event,roll,pitch,yaw
0.0273503 ,Left ,61,4564167425768 ,45,4770931602023 ,23,6332452118686
0.0456423 ,Left ,61,440802251277 ,45,4816531218942 ,23,6259394221974
0.0665857 ,Left ,61,4240357618283 ,45,4812535197565 ,23,6197427922101
0.0874499 ,Left ,61,4138580749587 ,45,4778572157114 ,23,6119902337705
0.1056244 ,Left ,61,4073931472342 ,45,4798004750004 ,23,6041862003456
0.1267083 ,Left ,61,4069651305805 ,45,4843467468664 ,23,5951927356704
0.1476372 ,Left ,61,4209399476121 ,45,497924388998 ,23,5914114819488
0.165607 ,Left ,61,4443256346403 ,45,5216321789409 ,23,5802634957606
0.1864232 ,Left ,61,487574785802 ,45,5392228031652 ,23,5572423129132
0.2074293 ,Left ,61,6529704135433 ,45,53072086852 ,23,5010449485925
0.2256451 ,Left ,61,9503112135455 ,45,5331556443771 ,23,4429157756545
0.2465941 ,Left ,62,3507044258884 ,45,572527648658 ,23,3762531650191
0.267769 ,Left ,62,6924800441111 ,45,5848054652582 ,23,2951364888182
0.2852425 ,Left ,62,798647523255 ,45,5817756895405 ,23,2261186322682
0.3066783 ,Left ,62,6830414306746 ,45,58441721237 ,23,1770324917894
0.3278175 ,Left ,62,5345736773261 ,45,6088304795945 ,23,1218187550881
0.3453993 ,Left ,62,4915658164055 ,45,6295481230811 ,23,0671860443111
0.3667099 ,Left ,62,5016030071316 ,45,6575712350876 ,23,0143377421733
0.3874817 ,Left ,62,512130724484 ,45,6993507683191 ,22,9630757929953
0.4057872 ,Left ,62,5210249898792 ,45,7129147148198 ,22,9088877427775
0.4278685 ,Left ,62,5844350449736 ,45,7052358140923 ,22,8194139094367
0.4474391 ,Left ,62,6836793460995 ,45,7205764799445 ,22,7068041872558
0.4654418 ,Left ,62,7715446037245 ,45,7066250749262 ,22,5952055865881
0.4879671 ,Left ,62,8283236218602 ,45,6457909606407 ,22,4938244172549
0.5074821 ,Left ,62,852812297681 ,45,6234271943305 ,22,3873744968755
0.5255768 ,Left ,62,855983566706 ,45,6077194531355 ,22,2784670360617
0.5481223 ,Left ,62,8735729864396 ,45,5849827611707 ,22,1710643523638
0.5676079 ,Left ,62,9676482717954 ,45,5603099105257 ,22,053763457901
0.5854797 ,Left ,63,0972412853188 ,45,5385499275569 ,21,9477330952624
0.608242 ,Left ,63,170500907014 ,45,5324788691645 ,21,8421224009085
0.6277563 ,Left ,63,2046922492668 ,45,529196317596 ,21,7339986913982
0.6456443 ,Left ,63,2443703469403 ,45,5022268912568 ,21,6429604580818
0.6679368 ,Left ,63,2770242841324 ,45,4729596626277 ,21,5595229782556
0.6877151 ,Left ,63,3267938820275 ,45,4440553080401 ,21,4767169569293
0.7057034 ,Left ,63,3836746972917 ,45,4128966632998 ,21,4143042199403
0.7280288 ,Left ,63,4168867045298 ,45,3856932467632 ,21,3550933915058
0.7476579 ,Left ,63,456419061535 ,45,3621764271714 ,21,2996365379065
0.7657105 ,Left ,63,5240740548972 ,45,3459695511231 ,21,2421058231095
0.7881454 ,Left ,63,6042896076919 ,45,3335298040765 ,21,1879600390225
0.8077286 ,Left ,63,6432813213794 ,45,337951135408 ,21,1413886256538
0.8254347 ,Left ,63,6606677756657 ,45,3571982432475 ,21,1048487678778
0.847895 ,Left ,63,6795616384777 ,45,3826442285726 ,21,0780312149112
0.868322 ,Left ,63,6821304869907 ,45,4225627177988 ,21,0580941925042
0.8847034 ,Left ,63,6866201432451 ,45,4660833938368 ,21,0329539907405
0.9074741 ,Left ,63,6796585770776 ,45,4993644800435 ,21,0056471963562
0.9284907 ,Left ,63,659207354598 ,45,5307135871091 ,20,9633703397953
0.9449395 ,Left ,63,6452341337977 ,45,5590485415677 ,20,9133700801306
0.9673961 ,Left ,63,6364790382529 ,45,5879822811315 ,20,8677635831068
0.9882607 ,Left ,63,6126059357358 ,45,6172499048844 ,20,813829794491
1.0045962 ,Left ,63,5433601691989 ,45,6554569751365 ,20,7482277849369
1.0273527 ,Left ,63,4632782048554 ,45,7014813693914 ,20,6681575257228
1.0480665 ,Left ,63,3913764803411 ,45,7532132608628 ,20,59423141024
1.0646176 ,Left ,63,3340403787013 ,45,8256472937656 ,20,5261058682082
1.0874657 ,Left ,63,2944624042501 ,45,8928803832383 ,20,4498437041984
1.1081009 ,Left ,63,2280714724564 ,45,9534884969955 ,20,3523464867593
1.1239228 ,Left ,63,1422180960897 ,46,0009717530293 ,20,2431294150596
1.1471043 ,Left ,63,0562357733985 ,46,0496330399845 ,20,1562596379969
1.1682282 ,Left ,62,9444495601371 ,46,0855769801028 ,20,1005157390852
1.1841371 ,Left ,62,840249558717 ,46,1115838250692 ,20,0791334989676
1.2072287 ,Left ,62,7344237141848 ,46,1217536086276 ,20,0765381741844
1.2286169 ,Left ,62,6452678767497 ,46,1112345510229 ,20,0647348042393
1.2442676 ,Left ,62,5658355559161 ,46,0582979525219 ,20,0410549882677
1.2675172 ,Left ,62,4371720778361 ,45,9950975717871 ,20,0427234655484
1.2887152 ,Left ,62,3421923688555 ,45,9894454417613 ,20,0506416429971
1.3042674 ,Left ,62,2172220732176 ,46,0635493083962 ,20,0188661758329
1.3270904 ,Left ,61,9685787325304 ,46,1470406253237 ,19,9750422109725
1.3497569 ,Left ,61,6734889358689 ,46,2488036931464 ,19,931923198822
1.3640406 ,Left ,61,3763942361286 ,46,3826922245476 ,19,8921760941633
1.3873483 ,Left ,61,1881765421606 ,46,4911295192896 ,19,8764464306229
1.409805 ,Left ,61,0822270970363 ,46,559650849212 ,19,8876162909682
1.4309108 ,Left ,61,0062275245003 ,46,58472480327 ,19,8964287758518
1.4491514 ,Left ,60,976676326359 ,46,5675744038875 ,19,8539959428532
1.4701654 ,Left ,60,995866683 ,46,5289652732683 ,19,7770403816265
1.4842296 ,Left ,61,0483484983844 ,46,5177662111947 ,19,6900550140994
1.5073307 ,Left ,61,0539141675713 ,46,4463732380373 ,19,5979637452002
1.5295074 ,Left ,61,0831092801975 ,46,3296217892734 ,19,5048171469028
1.5506414 ,Left ,61,1573331646606 ,46,2179805009306 ,19,4002124398659
1.5673381 ,Left ,61,2703400455578 ,46,1422525050475 ,19,2909331429009
1.589472 ,Left ,61,3342461849471 ,46,0717901786351 ,19,1865361338855
1.6106313 ,Left ,61,3399873972241 ,45,9875842226662 ,19,1182803353588
1.6271133 ,Left ,61,3109778135784 ,45,9352240405142 ,19,0934507267137
1.6501354 ,Left ,61,2699800140719 ,45,8797061138894 ,19,0644006278206
1.6711736 ,Left ,61,1743263186567 ,45,7929918128625 ,19,0864768664586
1.6876718 ,Left ,61,1341976867612 ,45,6879920113463 ,19,1054855961157
1.7099421 ,Left ,61,2249260473094 ,45,6341354895578 ,19,1094444725664
1.7311351 ,Left ,61,19939787327 ,45,7523325830882 ,19,0389425167069
1.7473909 ,Left ,61,1901634432174 ,45,8926813371884 ,18,9856939291334
1.769883 ,Left ,61,2574117604838 ,45,979369208935 ,18,9412959097774
1.7907879 ,Left ,61,264476990751 ,46,0358680997732 ,18,8900785272461
1.8073745 ,Left ,61,2287382044276 ,46,08364966172 ,18,8386371451354
1.8298336 ,Left ,61,1638663225266 ,46,0796428672089 ,18,778554835491
1.8507141 ,Left ,61,1489660122422 ,46,0123934719985 ,18,7327235309904
1.8674338 ,Left ,61,1107259044709 ,45,888891487833 ,18,7094132759175
1.889793 ,Left ,61,0748810085579 ,45,7563078205511 ,18,7021667831284
1.9111527 ,Left ,61,1812347124659 ,45,7146992748119 ,18,7346024919231
1.9273526 ,Left ,61,2087720285392 ,45,8616543541791 ,18,6998454533391
1.9497892 ,Left ,61,2189235508563 ,46,0224518567946 ,18,682797709246
1.9711281 ,Left ,61,3329490750715 ,46,1463154678321 ,18,6924147715517
1.9874068 ,Left ,61,3799056479327 ,46,2866744075994 ,18,6819552945077
2.009421 ,Left ,61,3445030873956 ,46,4305889846411 ,18,6930213373313
2.0306035 ,Left ,61,2771233029488 ,46,5437857167618 ,18,7013796650179
2.0466742 ,Left ,61,2168500364259 ,46,6082079770934 ,18,7106277039138
2.0696663 ,Left ,61,1733466650825 ,46,6120539798109 ,18,7320540774266
2.0911504 ,Left ,61,1017687508017 ,46,5640321043906 ,18,7884708786711
2.1072064 ,Left ,61,0240639860619 ,46,5121632899521 ,18,8420894060941
2.1297821 ,Left ,60,900536359464 ,46,4578807128261 ,18,8732089942738
2.1508674 ,Left ,60,7608616120229 ,46,3821354001799 ,18,873680703694
2.1664752 ,Left ,60,703897195032 ,46,3662794082652 ,18,889798086326
2.1898162 ,Left ,60,643698667535 ,46,5330338366622 ,18,852434873738
2.2109557 ,Left ,60,7167380090263 ,46,6838687026004 ,18,8359391352935
2.2268291 ,Left ,60,8859635144684 ,46,7638098218543 ,18,8480470310534
2.2498285 ,Left ,61,0457212389321 ,46,8298790532268 ,18,8577054065771
2.2723614 ,Left ,61,0980240380054 ,46,8556391217705 ,18,8558521254584
2.286613 ,Left ,61,1806696281863 ,46,8455475405262 ,18,8476759510615
2.3099477 ,Left ,61,3195255356501 ,46,8493737436381 ,18,8314321268912
2.332384 ,Left ,61,4835170758235 ,46,8218833999025 ,18,8253909079612
2.3468471 ,Left ,61,624130999098 ,46,7800377236945 ,18,8282251368948
2.3699348 ,Left ,61,7153258012236 ,46,7470163616548 ,18,8380928656451
2.3924567 ,Left ,61,792955893713 ,46,7511170750987 ,18,851187273185
2.413492 ,Left ,61,8965718626154 ,46,7726942045537 ,18,8393364326898
2.4324153 ,Left ,62,0025795944138 ,46,8019740836469 ,18,8198217508504
2.445369 ,Left ,62,1111128388003 ,46,8202993434182 ,18,7933791928524
2.4658862 ,Left ,62,1656480702235 ,46,8358340128756 ,18,7626510670835
2.4880246 ,Left ,61,9933095612029 ,46,8262230891029 ,18,7637691496829
2.5032483 ,Left ,61,9643605692604 ,46,8348534858994 ,18,712295008794
2.5256615 ,Left ,61,7827588152833 ,46,9044990286418 ,18,6870231783236
2.5416833 ,Left ,61,9425626563465 ,46,9158846628861 ,18,5813687747122
2.5649161 ,Left ,61,8260902421861 ,47,0073896622709 ,18,5203448510378
2.5861083 ,Left ,61,8548880001589 ,47,0202688586478 ,18,431062429377
2.6016643 ,Left ,61,8861670057431 ,47,1106134612263 ,18,3394435362153
2.6249232 ,Left ,62,0142295344758 ,47,2377546689714 ,18,2342722536732
2.6460154 ,Left ,61,9656665593792 ,47,2719699438973 ,18,1789067976289
2.6686934 ,Left ,61,8995215699235 ,47,3404817735346 ,18,1118949689064
2.685008 ,Left ,61,8655783981685 ,47,3963592544035 ,18,0513589643428
2.706147 ,Left ,61,7673682265049 ,47,4139860372801 ,17,9908615570579
2.728617 ,Left ,61,6647917804714 ,47,4046392359092 ,17,9359613549911
2.7448054 ,Left ,61,5534350809612 ,47,3720098388688 ,17,9328451496991
2.7659174 ,Left ,61,6021297598915 ,47,4144122523447 ,17,8726889506106
2.78843 ,Left ,61,5878666518553 ,47,4338446917237 ,17,91092405679
2.804816 ,Left ,61,5135906162569 ,47,4687932046288 ,17,8969392445988
2.8260568 ,Left ,61,4820836103473 ,47,5536591732701 ,17,9215150984505
2.8484558 ,Left ,61,5892182803348 ,47,517637231785 ,17,9458951017558
2.8648439 ,Left ,61,726813928123 ,47,4494791540517 ,17,9916574356782
2.8859906 ,Left ,61,803947736594 ,47,3922912910635 ,18,0579110870619
2.9017366 ,Left ,61,7927231857085 ,47,3254748335768 ,18,1171361699456
2.9250235 ,Left ,61,7919572978585 ,47,270705007683 ,18,1493354136041
2.9461506 ,Left ,61,8568470296993 ,47,2513977322404 ,18,1848562098412
2.96179 ,Left ,61,9561390724732 ,47,2151824210518 ,18,2115923217657
2.9847962 ,Left ,62,0393434718382 ,47,1405545739394 ,18,2218242484655
3.0060448 ,Left ,62,0246889272742 ,47,0548949400742 ,18,2122653547315
3.0216411 ,Left ,61,9833095516376 ,47,0001955633864 ,18,2098271257266
3.0449875 ,Left ,61,9539691858876 ,46,9906807807732 ,18,1766654574328
3.0659675 ,Left ,61,9023630438474 ,46,94554945213 ,18,1254108182717
3.0816993 ,Left ,61,8262755529183 ,46,8665493549815 ,18,1164516400795
3.1048109 ,Left ,61,7711709477179 ,46,803354604915 ,18,1279606734301
3.1258172 ,Left ,61,5493526603928 ,46,7488884299473 ,18,1449977067276
3.1416969 ,Left ,61,3493721576434 ,46,6279694280014 ,18,2347501852945
3.1647622 ,Left ,61,4565844513346 ,46,576062230998 ,18,2840160295413
3.1861431 ,Left ,61,5505376767693 ,46,7859746885428 ,18,2424099939143
3.2016472 ,Left ,61,616829864961 ,46,9492449254759 ,18,2723250740143
3.2248032 ,Left ,61,7879023540837 ,46,9766315254594 ,18,3268700070026
3.2461769 ,Left ,61,8780086737649 ,46,9703257433201 ,18,3699345841016
3.2616581 ,Left ,61,8769626781787 ,46,9791734340054 ,18,4400463947318
3.2840836 ,Left ,61,8234215132278 ,46,9672687408231 ,18,5048361803122
3.3061013 ,Left ,61,8235677471005 ,46,9651219844887 ,18,5758855207111
3.3291702 ,Left ,61,9134779408358 ,46,9603746719878 ,18,6694351244119
3.3524111 ,Left ,62,0101939824883 ,46,9217543232911 ,18,7879364406889
3.3748295 ,Left ,62,0550294246299 ,46,8521667215304 ,18,9237763305268
3.3956354 ,Left ,62,0970888881305 ,46,7724220610312 ,19,0549502225713
3.4120495 ,Left ,62,1195068404012 ,46,7082757349654 ,19,1717611106752
3.4348368 ,Left ,62,1402882152681 ,46,6631202194488 ,19,2645818584532
3.4557996 ,Left ,62,1624945774567 ,46,6373898097558 ,19,340492881237
3.47236 ,Left ,62,2114584187519 ,46,6376147772013 ,19,4035189648709
3.4948255 ,Left ,62,2453166001301 ,46,6409812032173 ,19,462483137276
3.5091848 ,Left ,62,2642340729646 ,46,61931353456 ,19,5011320393671
3.5323281 ,Left ,62,2825878496738 ,46,576989671714 ,19,4926191438906
3.5548852 ,Left ,62,3023277215295 ,46,5368254007817 ,19,4472528763484
3.5694862 ,Left ,62,3268177412446 ,46,5002088732866 ,19,3975623444637
3.5923926 ,Left ,62,3705898785706 ,46,4882895147462 ,19,3453257405854
3.615049 ,Left ,62,4220865122988 ,46,498266215734 ,19,2825482507914
3.6291259 ,Left ,62,476368328055 ,46,5031798655128 ,19,2111392386074
3.6523587 ,Left ,62,5352272371409 ,46,5196223356955 ,19,1413981573858
3.6748413 ,Left ,62,557768065588 ,46,5475327592137 ,19,0750233599238
3.6891211 ,Left ,62,5940333878714 ,46,5861317536822 ,19,0185399557218
3.7123477 ,Left ,62,6146854392804 ,46,6315885671561 ,18,9715471877346
3.7346847 ,Left ,62,6250336444031 ,46,6831114347149 ,18,9317373591219
3.7558801 ,Left ,62,6360531615089 ,46,7300317228024 ,18,9106709266599
3.7724752 ,Left ,62,6481993404973 ,46,7836804748555 ,18,8997437060045
3.7947338 ,Left ,62,6439703520473 ,46,8332594080388 ,18,9008251884933
3.8160775 ,Left ,62,6600282976111 ,46,8687206063497 ,18,9078906745219
3.8323016 ,Left ,62,666238536905 ,46,8787982515676 ,18,9029936371068
3.8547129 ,Left ,62,673812194777 ,46,8882517225646 ,18,8986067324289
3.8760899 ,Left ,62,7088057737224 ,46,8830651992727 ,18,904832987913
3.8923992 ,Left ,62,7292646783792 ,46,8682038255857 ,18,9113739178622
3.9148515 ,Left ,62,7572278763544 ,46,8472224039567 ,18,909363446201
3.9359177 ,Left ,62,7529068704551 ,46,8182381953188 ,18,903610219951
3.952371 ,Left ,62,7608673259833 ,46,7959814574969 ,18,8969028552862
3.9751909 ,Left ,62,7617971581238 ,46,7934388271414 ,18,8953557353572
3.9963517 ,Left ,62,7703741948295 ,46,7917830290107 ,18,8917643312162
4.0126759 ,Left ,62,7693157526801 ,46,7925640337128 ,18,8967140779921
4.0349735 ,Left ,62,7860198337493 ,46,7969123669677 ,18,9155886698604
4.0558495 ,Left ,62,8015700860591 ,46,8002469455539 ,18,9427812489884
4.072102 ,Left ,62,7933414047509 ,46,7935556188247 ,18,9796291753726
4.0948256 ,Left ,62,7809181175639 ,46,7847767528721 ,19,0262990324837
4.115904 ,Left ,62,7684487827945 ,46,7789985144829 ,19,0775745018001
4.1324982 ,Left ,62,7660132025767 ,46,7683890675287 ,19,1296165848523
4.1551339 ,Left ,62,7584142517919 ,46,7616198044885 ,19,1807856309891
4.177553 ,Left ,62,7501949034225 ,46,7536916102258 ,19,2292964319622
4.1918685 ,Left ,62,7410961462684 ,46,7469678003783 ,19,2790414493755
4.2151562 ,Left ,62,7228283621108 ,46,738763894216 ,19,3168153390622
4.2375958 ,Left ,62,7130537722838 ,46,7188611541639 ,19,3531090862337
4.2526704 ,Left ,62,697489977617 ,46,6957331077927 ,19,376728431793
4.2751235 ,Left ,62,6959608702194 ,46,6670829084305 ,19,4029987908383
4.2976379 ,Left ,62,6903033983432 ,46,6420056899171 ,19,4320270344382
4.312061 ,Left ,62,6801252149214 ,46,6219919238396 ,19,462826789672
4.3351348 ,Left ,62,6775866761706 ,46,602730463879 ,19,4915805632294
4.3574453 ,Left ,62,6907244652537 ,46,5989009607205 ,19,5159269753589
4.3715898 ,Left ,62,7116538760144 ,46,604850855667 ,19,5443240873216
4.3948548 ,Left ,62,7160757238275 ,46,6124522657609 ,19,5855497297052
4.4174118 ,Left ,62,7030679560676 ,46,6179652053499 ,19,6353647391417
4.4316718 ,Left ,62,6950457820478 ,46,611386849051 ,19,6716090790981
4.4547458 ,Left ,62,6935979504303 ,46,5947284541506 ,19,7083373978018
4.4776042 ,Left ,62,6944254804988 ,46,5873063963485 ,19,7381431552803
4.4918443 ,Left ,62,7025505985429 ,46,5804320594832 ,19,7605044159645
4.5147534 ,Left ,62,721177271134 ,46,5730341598114 ,19,774230678098
4.5373563 ,Left ,62,7597668031837 ,46,5620376335839 ,19,7742948740118
4.5517021 ,Left ,62,7339530422303 ,46,5232822099047 ,19,7529915081755
4.5747916 ,Left ,62,9052207096049 ,46,5910206138601 ,19,6869850027028
4.5973793 ,Left ,63,1085895694884 ,46,6300084372716 ,19,6132681803269
4.6116241 ,Left ,63,1178811625254 ,46,5988228178952 ,19,5655825873375
4.6347026 ,Left ,62,8509867325273 ,46,5461322249883 ,19,5710063743871
4.6574198 ,Left ,62,7460261874467 ,46,585557471667 ,19,5693410485535
4.6783739 ,Left ,62,971088533037 ,46,6778629515209 ,19,5097690072807
4.6948048 ,Left ,63,0726990005183 ,46,6879090731676 ,19,4631137904983
4.7173654 ,Left ,62,8268754506295 ,46,6553066076043 ,19,4969205192468
4.7384315 ,Left ,62,75941853502 ,46,7105516058557 ,19,5036170295266
4.7451832 ,Left ,62,999911786786 ,46,7705962050516 ,19,4472550426106
4.7602599 ,Left ,63,0227000319566 ,46,7186439408423 ,19,417107074228
4.78295 ,Left ,62,7363126807762 ,46,6518235781668 ,19,4415851422095
4.8007777 ,Left ,62,6338073207712 ,46,6676776513062 ,19,4212550198767
4.8203404 ,Left ,62,5559934729905 ,46,6321581236693 ,19,435411843622
4.8428943 ,Left ,62,4987995129262 ,46,6609773679784 ,19,4672278323004
4.8605702 ,Left ,62,3710683737956 ,46,6755299726488 ,19,466257000229
4.8802208 ,Left ,62,2177009699576 ,46,6669536791255 ,19,4598115917256
4.9030321 ,Left ,62,1008206859129 ,46,642828616092 ,19,429270522333
4.9256965 ,Left ,62,0014430528241 ,46,7251828443653 ,19,4061307543273
4.9406873 ,Left ,62,0417734098297 ,46,8187087216219 ,19,4109605505666
4.9632686 ,Left ,62,1197563337261 ,46,8663622983743 ,19,4027990443528
4.9858133 ,Left ,62,1350880175205 ,46,8652589335748 ,19,358610345112
5.000492 ,Left ,62,1757702326837 ,46,8857633115026 ,19,3047320976083
5.0227652 ,Left ,62,1820688301808 ,46,8839333100671 ,19,261025038219
5.0408953 ,Left ,62,223984176225 ,46,8973866800346 ,19,2266371191117
5.0603745 ,Left ,62,272282187802 ,46,9256421431975 ,19,1884436226157
5.0828495 ,Left ,62,3386942077599 ,46,9544441321657 ,19,1320108113405
5.1006024 ,Left ,62,3973798926014 ,46,9717533684374 ,19,0747570558513
5.1203906 ,Left ,62,4220644033979 ,46,9846390400718 ,19,0198153350429
5.1429443 ,Left ,62,4030410117298 ,46,9955948874847 ,18,9663713132306
5.1606223 ,Left ,62,3607856535085 ,46,9891059451878 ,18,9049421315081
5.1803936 ,Left ,62,3269181906596 ,46,9547505615206 ,18,8589600741333
5.2028277 ,Left ,62,3126820415982 ,46,9112556995702 ,18,8182923930642
5.2208023 ,Left ,62,2917906556187 ,46,8368810561257 ,18,7966826568096
5.2399258 ,Left ,62,1827444186638 ,46,7826039116397 ,18,7882379427851
5.2632285 ,Left ,62,0829002974727 ,46,7004430618888 ,18,8069566515355
5.2811328 ,Left ,62,1761921820768 ,46,6575846871621 ,18,8293304029293
5.3007945 ,Left ,62,2389713912856 ,46,7250098634434 ,18,8022891814373
5.3227459 ,Left ,62,2646843920233 ,46,8238689605083 ,18,79645704443
5.3405583 ,Left ,62,3299699009679 ,46,8708261450669 ,18,799730115486
5.3602511 ,Left ,62,3885538359548 ,46,9231187546573 ,18,7747464496933
5.3828676 ,Left ,62,4009241241983 ,46,9606906204865 ,18,7561293274798
5.4006827 ,Left ,62,3688950348399 ,46,9743998801015 ,18,7312219660214
5.4202778 ,Left ,62,359870224778 ,46,9985112939664 ,18,7077662858839
5.4428315 ,Left ,62,3936976718692 ,47,0579604490142 ,18,7005775352604
5.4604171 ,Left ,62,4024777299201 ,47,1044929663759 ,18,7091761085478
5.479971 ,Left ,62,4022955954232 ,47,1001328218124 ,18,7414491242566
5.5027316 ,Left ,62,4148198344908 ,47,0585854561922 ,18,7695621813854
5.5207349 ,Left ,62,385131986019 ,47,0035075066615 ,18,7720693216876
5.540277 ,Left ,62,348097642803 ,46,9291825366151 ,18,7641667018835
5.5627137 ,Left ,62,3017277767838 ,46,8548876459334 ,18,768629341471
5.5805217 ,Left ,62,2747013994793 ,46,7950902331824 ,18,7790498394473
5.6003219 ,Left ,62,2249384372224 ,46,7397396989492 ,18,7437067365168
5.6226524 ,Left ,62,0806143044881 ,46,6568265474822 ,18,6791818496838
5.6450525 ,Left ,61,9137276480466 ,46,5601235990103 ,18,6915330254864
5.6600917 ,Left ,62,0112199175964 ,46,5496715146647 ,18,7225676467865
5.6828699 ,Left ,62,1043837905452 ,46,6790849880196 ,18,6920924815551
5.7055623 ,Left ,62,1255007584463 ,46,8112367113838 ,18,6830338932793
5.7219792 ,Left ,62,2542678523282 ,46,9073864058764 ,18,677186557677
5.7432924 ,Left ,62,3726472561853 ,46,9985359208572 ,18,6516409003609
5.7657699 ,Left ,62,4294755831529 ,47,1133431602094 ,18,6184493159271
5.7819913 ,Left ,62,4168372725193 ,47,2033754688604 ,18,5587198797231
5.8029542 ,Left ,62,3952874568917 ,47,3066689620807 ,18,4776353569742
5.8205974 ,Left ,62,3840516546079 ,47,4046984816636 ,18,4033729734936
5.84168 ,Left ,62,3649625774851 ,47,4505233410414 ,18,3689625068418
5.8628181 ,Left ,62,3318533787346 ,47,4139394142613 ,18,3576785787142
5.8805645 ,Left ,62,3051108643368 ,47,3355245032931 ,18,325633280717
5.9016682 ,Left ,62,2608932383699 ,47,2564926218878 ,18,3000838094738
5.9226495 ,Left ,62,2614559244619 ,47,196673055764 ,18,2955401837588
5.9408113 ,Left ,62,2648006089592 ,47,1386454024108 ,18,3059804073953
5.9616363 ,Left ,62,2422131453253 ,47,0660249936288 ,18,3147405102288
5.9826701 ,Left ,62,2146086912626 ,46,9980292573309 ,18,3273266076806
6.0008043 ,Left ,62,1828482133965 ,46,9259637838233 ,18,367339374856
6.0214745 ,Left ,62,1758558953045 ,46,8318113071268 ,18,352810186442
6.0426087 ,Left ,62,1843200366785 ,46,6827641894505 ,18,2591111500889
6.0606554 ,Left ,62,2091832419979 ,46,5487327965397 ,18,1438995305846
6.0831361 ,Left ,62,2240293113172 ,46,4454577192116 ,18,0455222686951
6.1028392 ,Left ,62,2676795447289 ,46,370169462851 ,17,9732317020679
6.1250395 ,Left ,62,2571005004432 ,46,3025587522683 ,17,9510462024599
6.1429357 ,Left ,62,2186844043065 ,46,2497555164838 ,17,9936886543806
6.162567 ,Left ,62,1963843951146 ,46,2225973773176 ,18,115142984885
6.1805656 ,Left ,62,2305012751688 ,46,2569683202649 ,18,2588875918749
6.2030168 ,Left ,62,314615967837 ,46,3695203850646 ,18,4032271672201
6.2227409 ,Left ,62,355461671148 ,46,5223339159325 ,18,5151562088285
6.2452853 ,Left ,62,3659065009488 ,46,6848516365899 ,18,567114574722
6.2631134 ,Left ,62,3109648875745 ,46,8537473578759 ,18,5921216568168
6.2828518 ,Left ,62,1753882561753 ,47,0144712563733 ,18,6105445598227
6.3007854 ,Left ,62,0936522740892 ,47,1438624125469 ,18,6268894623039
6.323114 ,Left ,62,0655398742075 ,47,2020709162873 ,18,6496409117885
6.3425059 ,Left ,62,066091542358 ,47,1845981698776 ,18,6439165174204
6.3605452 ,Left ,62,0684908883568 ,47,1395476270309 ,18,6307036653615
6.3832179 ,Left ,62,025481277687 ,47,1215616377396 ,18,5991061222333
6.4028797 ,Left ,61,9707066442978 ,47,1005016617602 ,18,5434603077504
6.4206817 ,Left ,61,9517230535979 ,47,0661413952243 ,18,4937687669627
6.443279 ,Left ,61,9288129754283 ,47,0145071033839 ,18,4635680715926
6.4624064 ,Left ,61,8858626328793 ,46,9585371707091 ,18,4516479064214
6.4804474 ,Left ,61,7872416681623 ,46,9054852274331 ,18,4459361309977
6.5031956 ,Left ,61,6683647916321 ,46,868713956174 ,18,4399852457656
6.5227173 ,Left ,61,6502596804447 ,46,9010902654758 ,18,4214831887128
6.5406066 ,Left ,61,6604012275558 ,47,0045376637225 ,18,4152287011198
6.5632884 ,Left ,61,7671991453543 ,47,0676886166936 ,18,4121238010511
6.5835241 ,Left ,61,9204779193047 ,47,0659596156682 ,18,4483414874941
6.5997982 ,Left ,61,9277850355504 ,47,0385649660949 ,18,5316706822503
6.6221685 ,Left ,61,9197040927212 ,47,0326583304374 ,18,656653497407
6.6434074 ,Left ,61,9786053542811 ,47,0478378535766 ,18,7646476982511
6.6593209 ,Left ,62,0719550787015 ,47,0420380440771 ,18,8324775670546
6.6825082 ,Left ,62,1587675027922 ,46,9819906822101 ,18,8810873960958
6.703656 ,Left ,62,2525940149101 ,46,8938025902224 ,18,9523742809899
6.7198339 ,Left ,62,3422699078359 ,46,7892897646184 ,19,0158373358488
6.7423829 ,Left ,62,4641866047646 ,46,7188687862994 ,19,0571377558927
6.7634941 ,Left ,62,6104802320149 ,46,7392143137579 ,19,0813160696572
6.7790988 ,Left ,62,8264825962022 ,46,7937348604355 ,19,0812757991489
6.8023371 ,Left ,63,0633538700293 ,46,9067120370997 ,19,0968921318588
6.8235317 ,Left ,63,2653021088174 ,47,056286985078 ,19,1145098144616
6.8392356 ,Left ,63,3747002079166 ,47,2027912407308 ,19,1461933190459
6.8623729 ,Left ,63,4748142075362 ,47,3031239502516 ,19,1985342534879
6.8836307 ,Left ,63,5344648713807 ,47,3526452363485 ,19,2792846532047
6.8992656 ,Left ,63,508524023247 ,47,3681066254603 ,19,3518829515011
6.9223172 ,Left ,63,436965190588 ,47,3560091102395 ,19,3965518480843
6.9435063 ,Left ,63,3591040916619 ,47,3259458249849 ,19,4072250629386
6.9599065 ,Left ,63,3072239542959 ,47,2719249355247 ,19,386044121068
6.9823751 ,Left ,63,2884872445771 ,47,2115435455959 ,19,3662323907108
7.0048882 ,Left ,63,28631921352 ,47,1465310569554 ,19,3366214504636
7.0193706 ,Left ,63,2560710910718 ,47,0805715529886 ,19,3040414464682
7.0423 ,Left ,63,2173074607754 ,47,0169831653685 ,19,2744688062964
7.064769 ,Left ,63,1878042855851 ,46,9587932204096 ,19,2561529281073
7.0798762 ,Left ,63,1809586260019 ,46,9166366556467 ,19,2445426789129
7.1023456 ,Left ,63,179292736915 ,46,9061550139169 ,19,2326328354186
7.124899 ,Left ,63,1522529159674 ,46,9036745282076 ,19,2254826719966
7.1399073 ,Left ,63,1516615637068 ,46,8986466095277 ,19,2264733090742
7.162384 ,Left ,63,1529170888786 ,46,8890474901252 ,19,2490268105417
7.1848459 ,Left ,63,1331269333731 ,46,877522777563 ,19,2808610449426
7.1992198 ,Left ,63,0899910656633 ,46,881252303155 ,19,3053795793195
7.22233 ,Left ,63,0429678395152 ,46,8806216000905 ,19,3236434283649
7.2449191 ,Left ,63,0082841044408 ,46,8775746432055 ,19,334666006627
7.2592554 ,Left ,62,9634345928568 ,46,8800139830526 ,19,3281903227224
7.282579 ,Left ,62,8646469540268 ,46,8810963505876 ,19,3111356008874
7.3050843 ,Left ,62,7797538155258 ,46,8917954447492 ,19,2897071311506
7.3191745 ,Left ,62,720259036616 ,46,9093076009363 ,19,2790166634448
7.3425621 ,Left ,62,6881788900593 ,46,9198670154682 ,19,2677577701307
7.3648722 ,Left ,62,6650951072334 ,46,9245690722428 ,19,2457982799986
7.3793367 ,Left ,62,6279563186594 ,46,9341633784197 ,19,2124374419978
7.402365 ,Left ,62,5594522378246 ,46,941914696693 ,19,1712231818643
7.4247973 ,Left ,62,4528404017373 ,46,9416105146183 ,19,1418012552986
7.4458785 ,Left ,62,3676516579451 ,46,9407032770101 ,19,1124838587329
7.4623747 ,Left ,62,2769032093814 ,46,9385333557632 ,19,0661423390384
7.4849158 ,Left ,62,1569252717378 ,46,8829734432451 ,19,0411656658035
7.5061946 ,Left ,62,0250633090086 ,46,7900342423629 ,19,0572270702214
7.5224437 ,Left ,61,8871252199319 ,46,7116403261769 ,19,0565852300847
7.544845 ,Left ,61,838652724996 ,46,745706165228 ,19,0237882376152
7.566127 ,Left ,61,7950945933442 ,46,9019841672275 ,19,001294097159
7.5823805 ,Left ,61,8253192396776 ,47,0651912399431 ,18,9754856961837
7.6049856 ,Left ,61,9042115902572 ,47,1536151530402 ,18,9477456375793
7.6261463 ,Left ,61,9387589817168 ,47,2237768714053 ,18,9140051022121
7.6426657 ,Left ,61,9399455630419 ,47,2631942178864 ,18,8790729059503
7.6647915 ,Left ,61,971907284634 ,47,282491671778 ,18,8406470265432
7.6861582 ,Left ,62,0340672660491 ,47,2805427951236 ,18,820924614018
7.7023326 ,Left ,62,1150198444545 ,47,2562304697395 ,18,8107884916953
7.7247602 ,Left ,62,2074774393817 ,47,2204096302326 ,18,8099906033096
7.7457363 ,Left ,62,2704288141363 ,47,1897976524902 ,18,8190031182929
7.7621188 ,Left ,62,3302891693852 ,47,1780364988839 ,18,8365489075815
7.7908986 ,Left ,62,4028224882001 ,47,1715278350019 ,18,8542222101276
7.8057732 ,Left ,62,4564673935963 ,47,1546514612555 ,18,8807029801038
7.8223567 ,Left ,62,4828214505706 ,47,1322203685379 ,18,9162646620548
7.8447919 ,Left ,62,5034773746119 ,47,1170569657721 ,18,9493606292924
7.8658211 ,Left ,62,520923344619 ,47,1130107833824 ,18,9854782893734
7.8821385 ,Left ,62,557361820196 ,47,1044273765373 ,19,0135024343534
7.9048454 ,Left ,62,5921097271076 ,47,0948635076396 ,19,0351880160919
7.9260269 ,Left ,62,6111181590424 ,47,0827544394115 ,19,0544292615547
7.9423358 ,Left ,62,6253114290989 ,47,0840216940856 ,19,0673971486015
7.9647206 ,Left ,62,6396330117969 ,47,0955775969366 ,19,0745219343084
7.987322 ,Left ,62,6534882857513 ,47,1094338844729 ,19,0722858342161
8.0022261 ,Left ,62,6581026156405 ,47,1203308564502 ,19,0577345311158
8.024865 ,Left ,62,658133215018 ,47,1327118928331 ,19,0316623412433
8.0473415 ,Left ,62,6506877926078 ,47,1515600936652 ,18,9970155362522
8.0624021 ,Left ,62,6410104479493 ,47,1747654809112 ,18,9512907901076
8.0848017 ,Left ,62,6533174306596 ,47,197622263586 ,18,900554340021
8.1076327 ,Left ,62,6657858341703 ,47,2313242615414 ,18,852467799104
8.1216808 ,Left ,62,6495360255793 ,47,2716125238601 ,18,7951127594493
8.1448277 ,Left ,62,6079687373969 ,47,3225882155651 ,18,7368426024019
8.1672667 ,Left ,62,5827163146103 ,47,3780654667921 ,18,6750394713348
8.1814892 ,Left ,62,5699238088396 ,47,4313035016258 ,18,6115507709634
8.204883 ,Left ,62,5394501038689 ,47,4888540639813 ,18,5478302067738
8.2271669 ,Left ,62,5058457354015 ,47,554431694224 ,18,4742793225416
8.24151 ,Left ,62,4859434795424 ,47,6124374603632 ,18,3984100862736
8.2649581 ,Left ,62,4373055587235 ,47,6433599666789 ,18,3254236402388
8.2873132 ,Left ,62,3755489022788 ,47,6553590037796 ,18,2586506932906
8.3087939 ,Left ,62,2822790081899 ,47,6598756778518 ,18,183160348337
8.324974 ,Left ,62,1731489555917 ,47,6501460953188 ,18,1245369109002
8.3477644 ,Left ,62,03397763338 ,47,600451793916 ,18,1005560509092
8.3686741 ,Left ,61,8266467746765 ,47,4917292459102 ,18,142886479494
8.38496 ,Left ,61,713556235095 ,47,4552162201675 ,18,1916085305187
8.4074545 ,Left ,61,7024134670144 ,47,5875100375424 ,18,2362108534178
8.4287348 ,Left ,61,7628105254325 ,47,7789291114334 ,18,305395520412
8.4449473 ,Left ,61,9389011821169 ,47,7913324548668 ,18,3923352154902
8.467455 ,Left ,62,0474437151694 ,47,6771203222573 ,18,4986146487884
8.4886977 ,Left ,62,0873470841914 ,47,5894994743785 ,18,6148732674292
8.5049193 ,Left ,62,0845409953521 ,47,4786076289984 ,18,7298297222376
8.5274913 ,Left ,62,0844862076264 ,47,3809332063405 ,18,8610236791148
8.5485061 ,Left ,62,1159525050522 ,47,3112907004009 ,18,9862288947297
8.5642446 ,Left ,62,1913307144452 ,47,2666761341433 ,19,0944673625208
8.5874542 ,Left ,62,2887320796155 ,47,2072041102719 ,19,1955998033426
8.6087245 ,Left ,62,3357559218276 ,47,147086492118 ,19,2374505791773
8.6249191 ,Left ,62,2975990690559 ,47,0927739003018 ,19,230236778481
8.6474493 ,Left ,62,2694368107847 ,47,0598660973709 ,19,1715598720338
8.6684595 ,Left ,62,2347561296629 ,47,0227457162136 ,19,0508583203741
8.6843407 ,Left ,62,1930421948581 ,46,9936512036586 ,18,9283969196631
8.7075026 ,Left ,62,1617641040139 ,46,9764919361827 ,18,8014939663788
8.7287078 ,Left ,62,076716042053 ,46,94877685509 ,18,6973885329401
8.7442575 ,Left ,61,9698448914443 ,46,9226792923262 ,18,6128794966797
8.7674314 ,Left ,61,790561067188 ,46,8401226169902 ,18,6270536860388
8.7887288 ,Left ,61,7248140610833 ,46,7602706269507 ,18,7089713076455
8.8042796 ,Left ,61,8543116969186 ,46,8467646259802 ,18,7070559312177
8.8274581 ,Left ,61,9073224495003 ,47,0801165166862 ,18,6803136657311
8.8486695 ,Left ,61,9790576738506 ,47,1798985592689 ,18,6943243596208
8.8643416 ,Left ,62,0186743579584 ,47,1490791124743 ,18,7076770452463
8.8875087 ,Left ,62,0180940425008 ,47,1215970781966 ,18,7043338974917
8.9099447 ,Left ,62,0328323840178 ,47,076545851162 ,18,7158343792389
8.9249626 ,Left ,62,0692441054099 ,47,0071092588872 ,18,7384265396234
8.9473798 ,Left ,62,0816856067615 ,46,9263233625218 ,18,7674805046157
8.9700633 ,Left ,62,0753272895814 ,46,8437468535266 ,18,8120008604148
8.9848734 ,Left ,62,1011279947929 ,46,7914630242024 ,18,8713028799811
9.0075055 ,Left ,62,1311438147893 ,46,7712317850557 ,18,94029049382
9.0299486 ,Left ,62,158377910231 ,46,7568346761932 ,19,0169548138956
9.0443405 ,Left ,62,1860313802624 ,46,7346855328612 ,19,0930025833722
9.0674832 ,Left ,62,2022530245021 ,46,6952888533824 ,19,170146236379
9.0898582 ,Left ,62,2174550511606 ,46,6573897273016 ,19,2436062064941
9.1041646 ,Left ,62,2018273569121 ,46,6373640991471 ,19,3057516481566
9.1273636 ,Left ,62,192063044994 ,46,6202168952829 ,19,3642814001039
9.1498232 ,Left ,62,187616728339 ,46,5838273166441 ,19,417409963241
9.1640959 ,Left ,62,2038950049632 ,46,5490897804226 ,19,4614356680266
9.1874263 ,Left ,62,2324468816632 ,46,5209845158297 ,19,4876183009886
9.2097519 ,Left ,62,2562961014555 ,46,4900440846684 ,19,5173112955477
9.2242428 ,Left ,62,2934789017838 ,46,4653002435998 ,19,5494644044064
9.2472786 ,Left ,62,3371913651278 ,46,4366920145614 ,19,574612578397
9.2698985 ,Left ,62,3856622355243 ,46,4132172163733 ,19,592132404921
9.2842552 ,Left ,62,4177506573235 ,46,3867974937805 ,19,613270882714
9.3097325 ,Left ,62,4694997362371 ,46,3540540309326 ,19,6399692574312
9.3245349 ,Left ,62,507134835037 ,46,2971528837274 ,19,6743288776918
9.3436802 ,Left ,62,5901337705429 ,46,2012690905875 ,19,7517035359743
9.3594678 ,Left ,62,631019409527 ,46,1431455409134 ,19,896726911188
9.3827238 ,Left ,62,5900115188017 ,46,0606998637248 ,20,0300058384684
9.4040005 ,Left ,62,5471329683644 ,46,0539718838542 ,20,1615702589803
9.4195047 ,Left ,62,7055361490086 ,45,9800977594331 ,20,2321841745212
9.4424581 ,Left ,62,8849306628688 ,45,9346964390022 ,20,3292818474977
9.4637848 ,Left ,62,9620565373002 ,45,8318531822641 ,20,4760244680713
9.479197 ,Left ,63,2612560987754 ,45,7897158958227 ,20,5549960083261
9.5023886 ,Left ,63,4312184106847 ,45,7775879081884 ,20,6153762573393
9.5235998 ,Left ,63,4826805074709 ,45,7839343766759 ,20,6974101825042
9.5391733 ,Left ,63,4892339748404 ,45,7372007652355 ,20,7571533058806
9.5624336 ,Left ,63,5126405817333 ,45,6853202446354 ,20,7904413542569
9.5835108 ,Left ,63,5378313687288 ,45,6409179211852 ,20,7832778522385
9.5989806 ,Left ,63,5690822820179 ,45,5723573424769 ,20,7543648041991
9.6223083 ,Left ,63,5921109899935 ,45,4817288421549 ,20,7210556090172
9.6433208 ,Left ,63,8323081945292 ,45,4694464556451 ,20,6046564216287
9.6589357 ,Left ,63,9564552780392 ,45,4533858006489 ,20,4946547011384
9.6823641 ,Left ,63,9560904779884 ,45,3888133631891 ,20,4294716896947
9.7033253 ,Left ,64,1520260127821 ,45,4399544003114 ,20,3744402288551
9.7190228 ,Left ,64,4062867005165 ,45,5920095393195 ,20,3296344453181
9.7423608 ,Left ,64,6224200478535 ,45,7993986479942 ,20,3275228934817
9.7634929 ,Left ,64,7981419555418 ,46,0099282575324 ,20,3594226001565
9.7791347 ,Left ,64,9632407756015 ,46,1875113591029 ,20,4073466962785
9.8023096 ,Left ,65,0735252609404 ,46,3127317503229 ,20,4706781337811
9.8234477 ,Left ,65,0829536679156 ,46,4075611978637 ,20,5358011442633
9.8392735 ,Left ,64,9936237367909 ,46,4666447447553 ,20,6043464697122
9.8614831 ,Left ,64,833191992343 ,46,4890495339438 ,20,6698116439904
9.883306 ,Left ,64,6714748257648 ,46,5019489332924 ,20,7127087152547
9.8992504 ,Left ,64,5401425095095 ,46,529853966576 ,20,7442520118978
9.9217271 ,Left ,64,408201482695 ,46,5612956264313 ,20,7790655198693
9.9434039 ,Left ,64,2694388055655 ,46,5712380378567 ,20,7972063440217
9.9591123 ,Left ,64,131770833493 ,46,5779033852974 ,20,8054771282256
9.9818095 ,Left ,63,9669985815316 ,46,618116961852 ,20,8404440697816
10.0033536 ,Left ,63,8218729277086 ,46,6587170932022 ,20,861017551205
10.0192421 ,Left ,63,6395948927609 ,46,6507345979203 ,20,8008670929417
10.0415202 ,Left ,63,5151591663388 ,46,6300290563159 ,20,6758529103284
10.064649 ,Left ,63,4794868910969 ,46,6330853416338 ,20,5413707173911
10.0791823 ,Left ,63,4763877896537 ,46,6472563264577 ,20,4532501832025
10.1016059 ,Left ,63,451806233794 ,46,6418522846048 ,20,3894049796291
10.124957 ,Left ,63,4177261575098 ,46,6025596262611 ,20,340236954624
10.1393292 ,Left ,63,3766070086279 ,46,5546325182562 ,20,3054029755055
10.1617759 ,Left ,63,3339426094236 ,46,5045240128961 ,20,2944572189373
10.1854966 ,Left ,63,3157904155447 ,46,4533917781554 ,20,3070741705859
10.2066309 ,Left ,63,3027485429851 ,46,4002687663356 ,20,3198828247493
10.2301391 ,Left ,63,2810325615886 ,46,3452282500721 ,20,3241126988117
10.2529026 ,Left ,63,281197155172 ,46,2972267326589 ,20,3331414603164
10.2669585 ,Left ,63,2840640256337 ,46,2675040036126 ,20,3416103849675
10.2898128 ,Left ,63,2722828614014 ,46,2483149103919 ,20,336003450376
10.3124179 ,Left ,63,2773835905505 ,46,2306266669087 ,20,3184753036517
10.3335007 ,Left ,63,2972756139437 ,46,2150843258049 ,20,2936156498646
10.3499012 ,Left ,63,3131342918586 ,46,2144996335938 ,20,2660070884317
10.3723055 ,Left ,63,273352298397 ,46,2260601269717 ,20,2381078043735
10.3949698 ,Left ,63,2095172395255 ,46,2264951537386 ,20,1969971730737
10.4098384 ,Left ,63,1319435819042 ,46,2132520206351 ,20,1474772810786
10.4321598 ,Left ,63,0840063645745 ,46,1988712161877 ,20,0866075679996
10.4375075 ,Left ,63,0698200827926 ,46,1851095612286 ,20,0081667606916
10.4601198 ,Left ,63,0408733860459 ,46,1772040955803 ,19,9209833765795
10.4753071 ,Left ,63,0130577584129 ,46,1694436987144 ,19,8365364034854
10.4976391 ,Left ,62,9790026388534 ,46,1547717117281 ,19,7696589413641
10.5203864 ,Left ,62,9115431770483 ,46,1288877328683 ,19,7087627082962
10.5354462 ,Left ,62,8157992856397 ,46,0740851916673 ,19,6628390010225
10.5579362 ,Left ,62,7000555320361 ,45,9919833441049 ,19,6137996317188
10.5804113 ,Left ,62,5850380308377 ,45,9336604639058 ,19,5667587209042
10.5954922 ,Left ,62,4561902137161 ,45,9071986941917 ,19,5232681080314
10.6178364 ,Left ,62,3578280462468 ,45,9114922758727 ,19,4301002846463
10.6402176 ,Left ,62,1762939292293 ,45,8940171284033 ,19,3351094028086
10.6552302 ,Left ,62,0143165688428 ,45,9605591136498 ,19,2570584944594
10.6775927 ,Left ,61,9880690272347 ,46,1173042906162 ,19,237372823518
10.700302 ,Left ,62,153963852833 ,46,2455589764635 ,19,2604483099674
10.7153849 ,Left ,62,3172831340007 ,46,2801771706215 ,19,2610898778161
10.7379949 ,Left ,62,4682586168405 ,46,3039678478051 ,19,2236322251164
10.7603841 ,Left ,62,4942169857224 ,46,3498028699384 ,19,1825304447317
10.7754892 ,Left ,62,4904645142729 ,46,4043012041928 ,19,1429349840408
10.797874 ,Left ,62,4550395388192 ,46,4396737080407 ,19,0635157459328
10.8204355 ,Left ,62,4663575446226 ,46,4512881866259 ,18,9582362612285
10.8353093 ,Left ,62,4871519289261 ,46,4374348351567 ,18,8581040310817
10.8578542 ,Left ,62,4426662288513 ,46,3634730267428 ,18,8133017946861
10.8803555 ,Left ,62,3374763672161 ,46,2518630156993 ,18,8026207681952
10.8952762 ,Left ,62,2231020066586 ,46,1162720759671 ,18,7632808304553
10.9175168 ,Left ,62,0849726100769 ,46,0376747737643 ,18,700650200444
10.9401952 ,Left ,62,0438024027971 ,46,0539387350971 ,18,6905784231176
10.9552555 ,Left ,62,0808105595326 ,46,1983278745264 ,18,6729767472098
10.9777583 ,Left ,62,0925581349183 ,46,3516136609339 ,18,6583199709209
11.00023 ,Left ,62,1618704718057 ,46,4467308574305 ,18,6306366877378
11.0152831 ,Left ,62,1665575154196 ,46,5038456851556 ,18,6115589790615
11.037909 ,Left ,62,1411693893617 ,46,5448904940095 ,18,5972188395123
11.0602725 ,Left ,62,0399448440442 ,46,5350144134049 ,18,5881231671704
11.0753133 ,Left ,61,992327591851 ,46,5257304436202 ,18,5891453163824
11.0975455 ,Left ,61,9699339118419 ,46,4744822145246 ,18,5999196595664
11.121587 ,Left ,61,8669163967169 ,46,3707608340746 ,18,5803754551404
11.1350854 ,Left ,61,9147940798789 ,46,2775186125271 ,18,6379147984505
11.157826 ,Left ,61,9605622366376 ,46,3491732036201 ,18,6209559434243
11.1807637 ,Left ,62,0120624617419 ,46,5025309283753 ,18,6103389415436
11.1955234 ,Left ,62,1304853759599 ,46,5604303869704 ,18,6332925754935
11.2179597 ,Left ,62,2029737683313 ,46,5925780388721 ,18,6630477889726
11.2408134 ,Left ,62,2258482933017 ,46,6808337674474 ,18,7092590657211
11.2556911 ,Left ,62,155496938591 ,46,7850343281504 ,18,7601306855747
11.2780258 ,Left ,62,1661489880966 ,46,8952896950014 ,18,7827459357159
11.2958205 ,Left ,62,2050465107258 ,46,957669011358 ,18,8035864895758
11.3155816 ,Left ,62,1712381253503 ,46,9721154030972 ,18,8398853940008
11.337801 ,Left ,62,0902933988065 ,46,9501236826624 ,18,8861536774457
11.3557436 ,Left ,62,0302120968965 ,46,9196270358011 ,18,9094813020398
11.3798047 ,Left ,62,0120624617419 ,46,5025309283753 ,18,6103389415436
11.3847418 ,Left ,62,1304853759599 ,46,5604303869704 ,18,6332925754935
11.3977971 ,Left ,61,8933892920041 ,46,8099893105917 ,18,8833310389019
11.4157279 ,Left ,61,8919689370363 ,46,8530721748289 ,18,8435093903333
11.4367858 ,Left ,61,6131510790856 ,46,8151813390444 ,18,793043115371
11.4579348 ,Left ,61,3203548156493 ,46,8182263383583 ,18,8068276951008
11.480575 ,Left ,61,5123594129603 ,46,9478922853586 ,18,7725125767816
11.4967516 ,Left ,61,8128764236604 ,47,1970163182252 ,18,6955297989806
11.518019 ,Left ,61,8488227366771 ,47,2979858011387 ,18,7071060472519
11.5402039 ,Left ,61,7356432086112 ,47,323190924692 ,18,7878583356521
11.5567861 ,Left ,61,9584987667292 ,47,4229424090841 ,18,8178968205599
11.5776409 ,Left ,62,2076957267715 ,47,4253518939871 ,18,7881300317812
11.600188 ,Left ,62,0812033588321 ,47,3040905772565 ,18,7840476940379
11.6164702 ,Left ,61,8472587099888 ,47,2299086245344 ,18,7860316187803
11.6374938 ,Left ,62,0158148298544 ,47,2671924348309 ,18,7401631054899
11.6556588 ,Left ,62,2811230578892 ,47,2516229446945 ,18,6776477600138
11.6765816 ,Left ,62,1625507108244 ,47,1437370768187 ,18,6817489646661
11.6975511 ,Left ,62,1153508774027 ,47,0852340586983 ,18,6694561567588
11.7155817 ,Left ,62,1277920997742 ,47,0378997511359 ,18,6625205898064
11.7380847 ,Left ,62,1573464318163 ,46,9732696044114 ,18,6677886500065
11.7578398 ,Left ,62,1984351189818 ,46,9134971635137 ,18,6777619450082
11.7757725 ,Left ,62,2487978704653 ,46,8664748709551 ,18,6945455383009
11.7982957 ,Left ,62,2989153701547 ,46,8324296957978 ,18,7042794603859
11.8177153 ,Left ,62,3237650128645 ,46,80200143292 ,18,7068407469095
11.8355662 ,Left ,62,358855465088 ,46,7928001611304 ,18,7006625647589
11.8580459 ,Left ,62,3944260010013 ,46,8019287031947 ,18,6921257432453
11.8776154 ,Left ,62,4111342082789 ,46,8328921534852 ,18,6753325006834
11.895482 ,Left ,62,4134084978155 ,46,8681330914118 ,18,6492310511313
11.91832 ,Left ,62,4216002193678 ,46,9141852519848 ,18,6175763562147
11.9378535 ,Left ,62,4195436174548 ,46,969399017615 ,18,5805139470831
11.9556312 ,Left ,62,4031721293835 ,47,0352354602513 ,18,5316273605789
11.978248 ,Left ,62,3809638143282 ,47,1052613524541 ,18,4660862780596
11.9976518 ,Left ,62,3718433092405 ,47,165629796336 ,18,3905634275245
12.0155707 ,Left ,62,351242755258 ,47,2256394262168 ,18,3108666981073
12.0384576 ,Left ,62,3229374216537 ,47,279788430666 ,18,2221352480121
12.0574729 ,Left ,62,3135157277731 ,47,3350920435968 ,18,1351203096335
12.0760635 ,Left ,62,2896365075411 ,47,3863818795046 ,18,039956915938
12.0985033 ,Left ,62,2549723745326 ,47,4216961915617 ,17,9515692810011
12.1182328 ,Left ,62,2200805561009 ,47,450367428399 ,17,8730963749628
12.136029 ,Left ,62,192649381238 ,47,4711607352886 ,17,7896239609138
12.1583658 ,Left ,62,1401497772431 ,47,4607320797928 ,17,7143054153337
12.1778002 ,Left ,62,0710081928081 ,47,4356185119036 ,17,6626629516542
12.1956682 ,Left ,61,9738963955525 ,47,4024578132048 ,17,6370338589718
12.2183591 ,Left ,61,8077581044722 ,47,2875239537265 ,17,640066509224
12.2379061 ,Left ,61,6342561703579 ,47,1604550440307 ,17,662197504895
12.2556381 ,Left ,61,617000278687 ,47,1583045914902 ,17,6699502535474
12.2780334 ,Left ,61,6499918709743 ,47,3039702757495 ,17,6906207290249
12.2986962 ,Left ,61,6982066440156 ,47,4034509482866 ,17,7749642008434
12.3209262 ,Left ,61,8271412175961 ,47,4018076551133 ,17,8607870254697
12.3373412 ,Left ,61,9334650839094 ,47,3594278103505 ,17,9283213915799
12.3586593 ,Left ,61,9648055569176 ,47,29640468245 ,18,0077944272998
12.3742207 ,Left ,61,9475540432848 ,47,2568840432555 ,18,0861173428054
12.3973822 ,Left ,61,9815705068475 ,47,2186790614002 ,18,1377404561126
12.4185161 ,Left ,62,0437446144516 ,47,1955609967824 ,18,1688419901855
12.4349011 ,Left ,62,0728470551934 ,47,1747829494697 ,18,1782765163406
12.4570617 ,Left ,62,0728400388822 ,47,150356486702 ,18,1716089909657
12.4782692 ,Left ,62,0304510732057 ,47,1262632790831 ,18,1467525596485
12.4939888 ,Left ,61,9506154269332 ,47,0889880234626 ,18,1142374472681
12.5171105 ,Left ,61,8629040563618 ,47,0098031686817 ,18,0776826029118
12.5384071 ,Left ,61,7436851888679 ,46,8448714410578 ,18,0077168484809
12.5542497 ,Left ,61,7141686763307 ,46,6754165158092 ,18,0308374300438
12.5773907 ,Left ,61,8020215123292 ,46,7181602058798 ,18,0164359721462
12.5986887 ,Left ,61,9109664915434 ,46,9287429862087 ,18,0190370394047
12.6142157 ,Left ,61,9779306835477 ,47,0412127424626 ,18,0715816220443
12.6372537 ,Left ,62,1710887808841 ,47,0999468940498 ,18,1229475378149
12.6584107 ,Left ,62,2659320277823 ,47,1488330350427 ,18,1570001069749
12.6739162 ,Left ,62,2417483144832 ,47,1957705703116 ,18,2018979173959
12.6973935 ,Left ,62,1743715012636 ,47,2278784386519 ,18,2303326676922
12.7198238 ,Left ,62,1939056631265 ,47,2640262262828 ,18,2573374320492
12.734899 ,Left ,62,2391685516534 ,47,2947460549365 ,18,3015692926842
12.7571578 ,Left ,62,2584062538908 ,47,316179966475 ,18,3617383086969
12.7797918 ,Left ,62,2231487839046 ,47,3273323252957 ,18,4386823842621
12.7942439 ,Left ,62,1753071575798 ,47,3328799258586 ,18,5094438963265
12.8173548 ,Left ,62,1565802241851 ,47,331358448379 ,18,5795119841043
12.8398477 ,Left ,62,1665081373256 ,47,3076822274471 ,18,6446489873524
12.854192 ,Left ,62,1744693399046 ,47,2734308988973 ,18,7088298948541
12.8773966 ,Left ,62,1656898370791 ,47,2434421154421 ,18,7673069219437
12.8999018 ,Left ,62,1367464432086 ,47,2188343949164 ,18,8121462793203
12.9142857 ,Left ,62,1322761255793 ,47,2010166138916 ,18,8467851782758
12.937552 ,Left ,62,1356979536963 ,47,1781707005687 ,18,8758512428185
12.9598768 ,Left ,62,1555871697216 ,47,1594550726478 ,18,8986023364193
12.9741819 ,Left ,62,1489214745029 ,47,1390069682957 ,18,9041787382656
12.9972621 ,Left ,62,157294919118 ,47,1287788978008 ,18,9034881466561
13.0198049 ,Left ,62,156139599125 ,47,1273034064202 ,18,9032264985975
13.033902 ,Left ,62,1619619155199 ,47,1401531222862 ,18,8973328692767
13.0632795 ,Left ,62,1680599263018 ,47,1508093475622 ,18,9087272588876
13.0796558 ,Left ,62,1794381265089 ,47,148453433344 ,18,9243458918164
13.1022867 ,Left ,62,1987373821213 ,47,1455238171213 ,18,9392126629293
13.1174457 ,Left ,62,1995099138304 ,47,1541458407708 ,18,9681615768265
13.1398932 ,Left ,62,1946238994589 ,47,1676444073629 ,19,0063518893315
13.1607127 ,Left ,62,1982925794129 ,47,1831154215339 ,19,0543437158209
13.1774972 ,Left ,62,1960788053916 ,47,1963962768619 ,19,1052076283523
13.1998885 ,Left ,62,1823416909094 ,47,2025270060197 ,19,1627756685406
13.2211664 ,Left ,62,176909027435 ,47,2021915930149 ,19,2158327427742
13.2373477 ,Left ,62,1666666471817 ,47,209049545971 ,19,2609237962574
13.2599065 ,Left ,62,1644655954792 ,47,2101021884408 ,19,3010426313483
13.2810755 ,Left ,62,1701200664373 ,47,2006124252182 ,19,3350373019559
13.2969962 ,Left ,62,1765117102391 ,47,1786587159374 ,19,3622252404974
13.3196911 ,Left ,62,1676963066266 ,47,1463498076631 ,19,3758343238943
13.3407318 ,Left ,62,165824086395 ,47,1221309736763 ,19,382448752841
13.3573104 ,Left ,62,1707401161108 ,47,1053392396312 ,19,3736417578779
13.3799194 ,Left ,62,1779960611954 ,47,0884317345514 ,19,3607395941174
13.4011196 ,Left ,62,1918587690954 ,47,0731458256174 ,19,3508261000194
13.4174416 ,Left ,62,2103696587782 ,47,0551640858327 ,19,3444166320563
13.4399386 ,Left ,62,2263706882733 ,47,0448560747456 ,19,3423593650875
13.4612233 ,Left ,62,2304265509632 ,47,0358047664224 ,19,339099026615
13.4774158 ,Left ,62,2528621603174 ,47,0262192041231 ,19,3350544167157
13.4998142 ,Left ,62,2745707991954 ,47,0145640723389 ,19,3445045397817
13.5211501 ,Left ,62,2978517135321 ,46,9999141701091 ,19,3505971717372
13.5374609 ,Left ,62,3168786249272 ,46,9840482561595 ,19,3658287371786
13.5599768 ,Left ,62,3336039137831 ,46,9712845807072 ,19,3896812857229
13.5811658 ,Left ,62,3360063066215 ,46,9489219269973 ,19,4228246396723
13.597347 ,Left ,62,3393843698217 ,46,9218557018611 ,19,4548098832903
13.6198404 ,Left ,62,3630281090698 ,46,8937423947176 ,19,4840699844664
13.6423384 ,Left ,62,370565133231 ,46,8661127276609 ,19,5101033201035
13.6573059 ,Left ,62,3781241802568 ,46,8414723512253 ,19,5406616222348
13.6798729 ,Left ,62,388391530656 ,46,8168586622524 ,19,5725058171416
13.7022307 ,Left ,62,4038113241933 ,46,7897085417905 ,19,6053245147895
13.7170746 ,Left ,62,415321040606 ,46,7656268788806 ,19,6455357364007
13.7395098 ,Left ,62,433496531287 ,46,7414243468524 ,19,6840810208556
13.7622604 ,Left ,62,4316489054933 ,46,7155014864289 ,19,726248176257
13.776751 ,Left ,62,4334042319969 ,46,6896123219272 ,19,7566311598232
13.7999593 ,Left ,62,4319450677464 ,46,6782846424173 ,19,7781940095525
13.8223941 ,Left ,62,432963092687 ,46,6792682554181 ,19,7895712302616
13.8368021 ,Left ,62,4340408392473 ,46,6912829323532 ,19,7947960193396
13.8599176 ,Left ,62,4351842140515 ,46,7020244927479 ,19,7921652939847
13.8823983 ,Left ,62,4322938458923 ,46,7095715503595 ,19,791268340536
13.8966263 ,Left ,62,4367313585354 ,46,7113220473241 ,19,7904572155361
13.9199362 ,Left ,62,4392972727295 ,46,7146556098679 ,19,7797815239374
13.9423669 ,Left ,62,4595652047061 ,46,715478225555 ,19,757043164831
13.9567413 ,Left ,62,4665703330393 ,46,7094615371587 ,19,732218907204
13.9798437 ,Left ,62,4728293278375 ,46,7047494783553 ,19,7010084953095
14.0023074 ,Left ,62,4828719867743 ,46,6937970798213 ,19,6654532986028
14.01674 ,Left ,62,4838878457972 ,46,6839004572653 ,19,6273018727924
14.0399129 ,Left ,62,486542625614 ,46,6709884135 ,19,5856994363542
14.0622671 ,Left ,62,4795256348752 ,46,6639293344958 ,19,5480820216223
14.0766914 ,Left ,62,4822297103926 ,46,6564577199891 ,19,5071656119392
14.0997575 ,Left ,62,4795184576596 ,46,6548767849129 ,19,4727789721507
14.1222578 ,Left ,62,4856310338777 ,46,6598660919334 ,19,4414128399455
14.1433685 ,Left ,62,4920914025601 ,46,665030124255 ,19,415462563776
14.1598246 ,Left ,62,4819604579771 ,46,6679618072625 ,19,3926996449003
14.182484 ,Left ,62,4645648357134 ,46,6702895664618 ,19,3773278133817
14.2035548 ,Left ,62,4496176769929 ,46,6802451891703 ,19,363708160216
14.2202668 ,Left ,62,4507475904942 ,46,6819600044743 ,19,3471966340469
14.2427214 ,Left ,62,4344591078591 ,46,6809501250458 ,19,3307566903964
14.2637785 ,Left ,62,4218745195217 ,46,681368283679 ,19,3236682043367
14.2797705 ,Left ,62,4177074106712 ,46,6882228451668 ,19,3142334529885
14.3023879 ,Left ,62,4137685496478 ,46,6891367638144 ,19,3087804825597
14.3236805 ,Left ,62,4101994940884 ,46,688024086694 ,19,295848610306
14.3399554 ,Left ,62,4036559518718 ,46,6828063680184 ,19,2798035189443
14.3624112 ,Left ,62,4003516594433 ,46,6577633999203 ,19,2629298825452
14.3836888 ,Left ,62,3880131411604 ,46,6288839629301 ,19,24208605833
14.3998807 ,Left ,62,388499727801 ,46,5969340173756 ,19,2200946768074
14.4222853 ,Left ,62,3969084474658 ,46,5486877484482 ,19,1930220199942
14.4436432 ,Left ,62,3868833191221 ,46,5071776059589 ,19,159408977081
14.4598443 ,Left ,62,3798301069059 ,46,468809994175 ,19,1239044961974
14.4824294 ,Left ,62,3394009851319 ,46,4395178040593 ,19,1101560072418
14.5034454 ,Left ,62,2718117138604 ,46,4597216269172 ,19,1164416699259
14.5199493 ,Left ,62,2896431194805 ,46,513665560251 ,19,0910205367558
14.5422691 ,Left ,62,2008116603132 ,46,5058275552898 ,19,09328673513
14.563418 ,Left ,62,0852328653028 ,46,4440371760842 ,19,1041810453046
14.5791908 ,Left ,62,0006689556136 ,46,4517285830635 ,19,0981606720505
14.6023769 ,Left ,61,9482322619664 ,46,6099107446466 ,19,0878681561457
14.6248533 ,Left ,61,995346203007 ,46,7484098513343 ,19,1016368457461
14.6391318 ,Left ,62,0645832907167 ,46,8118441299374 ,19,1215980415918
14.6636602 ,Left ,62,1715592913737 ,46,8178688138625 ,19,1116097242302
14.6850241 ,Left ,62,2218092895778 ,46,822022047183 ,19,0587069352679
14.7061413 ,Left ,62,2361380782485 ,46,8654990754212 ,18,9967988641713
14.7223767 ,Left ,62,2350570567075 ,46,9197975350232 ,18,9062297910915
14.744709 ,Left ,62,2787108986818 ,46,9647533976156 ,18,8119366354471
14.7591105 ,Left ,62,3063290641436 ,46,9905858858211 ,18,7139596123537
14.7823675 ,Left ,62,3185615391873 ,47,0129345276884 ,18,6308682875612
14.8049294 ,Left ,62,2758009994959 ,46,998720743026 ,18,5755188729565
14.8259046 ,Left ,62,2024219764282 ,46,925505367009 ,18,5373979815793
14.8422812 ,Left ,62,1501378205001 ,46,8225024714276 ,18,5400070963397
14.8648799 ,Left ,62,0543584407665 ,46,6507931639035 ,18,5601210854217
14.8858165 ,Left ,62,1292925099505 ,46,542051165343 ,18,599892291527
14.9022037 ,Left ,62,1002376486307 ,46,6495424124525 ,18,5582335839481
14.9248738 ,Left ,62,0808279769337 ,46,8479230349861 ,18,5558039102104
14.9457044 ,Left ,62,1381766985678 ,46,9455167160119 ,18,5575359577509
14.9621783 ,Left ,62,2852588445699 ,46,9891729523693 ,18,5607063566159
14.9851563 ,Left ,62,2644546508135 ,47,0017528063245 ,18,5421480429705
15.0064389 ,Left ,62,1442478782294 ,46,9743201816809 ,18,543930398661
15.022714 ,Left ,62,0357703219419 ,46,9190905228018 ,18,5425438743164
15.0448873 ,Left ,62,0227170946555 ,46,8371976097928 ,18,5421460557019
15.0656683 ,Left ,61,9843696047668 ,46,7342012940088 ,18,53532116041
15.0823247 ,Left ,62,0230380172664 ,46,6680059337733 ,18,6013186149547
15.1048228 ,Left ,62,083707608123 ,46,7319400590294 ,18,6122878214902
15.1257462 ,Left ,62,1187894552969 ,46,866840035484 ,18,5870543910759
15.1421212 ,Left ,62,1924384221342 ,46,9449656359276 ,18,5749484435857
15.1647943 ,Left ,62,2382314221681 ,47,0130812978403 ,18,5727057798871
15.1863815 ,Left ,62,207388732947 ,47,1087261789403 ,18,5923604215533
15.2025754 ,Left ,62,1198350174405 ,47,1745216435701 ,18,5896924613544
15.2248627 ,Left ,62,0839536350927 ,47,2045478879737 ,18,5993205396917
15.2458742 ,Left ,62,0685505725894 ,47,1993873225389 ,18,6177645991085
15.2623489 ,Left ,62,0432551549937 ,47,1390608414848 ,18,6649016458311
15.2849896 ,Left ,62,0008332562397 ,47,0641196035939 ,18,7267198275001
15.3059218 ,Left ,61,9413526100586 ,46,986372730532 ,18,7673925303645
15.3215723 ,Left ,61,8238759421396 ,46,9261301616645 ,18,7744500242232
15.3451415 ,Left ,61,6925178895083 ,46,9160218177982 ,18,7855823013445
15.3660217 ,Left ,61,6468047723597 ,46,9850780502862 ,18,8112350287692
15.3817013 ,Left ,61,622758653743 ,47,2167838505289 ,18,8321544191208
15.4049926 ,Left ,61,7296419200757 ,47,401158213717 ,18,8953915044926
15.426208 ,Left ,61,8712931934672 ,47,487581782216 ,18,9485849455949
15.4418631 ,Left ,61,9654890140535 ,47,5526123369102 ,18,9627309422672
15.4648703 ,Left ,61,9319809884212 ,47,6016559873197 ,18,9544538381912
15.4861836 ,Left ,61,9221733910274 ,47,615540994728 ,18,9495167286986
15.5017133 ,Left ,61,9744331499446 ,47,6312812819669 ,18,9273628909352
15.5248902 ,Left ,62,0707380785 ,47,6589489348306 ,18,904771686827
15.5475005 ,Left ,62,1493212835016 ,47,6730054182528 ,18,9014729074053
15.5623829 ,Left ,62,2111991280032 ,47,6567083438035 ,18,9037038802861
15.5848732 ,Left ,62,2763839434236 ,47,6132114636957 ,18,9054398778456
15.6074036 ,Left ,62,348680769694 ,47,5713816589899 ,18,8875815772013
15.6224049 ,Left ,62,4131225132619 ,47,5224327078657 ,18,8642668564576
15.6449585 ,Left ,62,4731032223071 ,47,4646560751774 ,18,8348877832761
15.6674169 ,Left ,62,5321520272186 ,47,4208543969648 ,18,8031086120079
15.6817209 ,Left ,62,5742407593742 ,47,3895416798068 ,18,7823550213073
15.7049536 ,Left ,62,6085136699857 ,47,3602071422971 ,18,7624615402767
15.7274789 ,Left ,62,662995313206 ,47,331049002512 ,18,7393618054468
15.7418409 ,Left ,62,7068190751026 ,47,3061999186169 ,18,7117752453102
15.7648593 ,Left ,62,7204506848466 ,47,2999208362523 ,18,6842551829726
15.787469 ,Left ,62,7214845398522 ,47,30851948934 ,18,6483103624653
15.8017888 ,Left ,62,7069458314362 ,47,3222509565616 ,18,6078948753174
15.8249457 ,Left ,62,6908426772244 ,47,3505476393868 ,18,5650177318123
15.8473894 ,Left ,62,6903266996584 ,47,383979837683 ,18,5205704146521
15.8618346 ,Left ,62,6820146509378 ,47,4171456559529 ,18,4773637154784
15.8848158 ,Left ,62,668226255834 ,47,4632421240273 ,18,4299281404001
15.907406 ,Left ,62,6437453628526 ,47,5198236782217 ,18,3755827946912
15.9215678 ,Left ,62,617280168347 ,47,580427165892 ,18,3190239583028
15.9449526 ,Left ,62,5915230666246 ,47,6438044039218 ,18,2612379601251
15.9674071 ,Left ,62,5614529601142 ,47,704601875576 ,18,1871431059688
15.9816554 ,Left ,62,538498692804 ,47,7646469647014 ,18,1049437551272
16.0048344 ,Left ,62,5314668465825 ,47,8153267303207 ,18,0239346493019
16.0273567 ,Left ,62,5011894773458 ,47,8616974233842 ,17,9493098143593
16.0484099 ,Left ,62,4553670166154 ,47,8943119425704 ,17,8816467614986
16.0648688 ,Left ,62,402356440784 ,47,9055101255659 ,17,8240391293079
16.087675 ,Left ,62,3720975913067 ,47,8788897116361 ,17,7902014293817
16.1083634 ,Left ,62,3474809805377 ,47,8222007428272 ,17,7608236188644
16.1249844 ,Left ,62,3063388610374 ,47,7448672712822 ,17,7362228196342
16.1474256 ,Left ,62,2325871429431 ,47,6697743441349 ,17,7219998727301
16.1529315 ,Left ,62,0916718235544 ,47,6465087532711 ,17,7042174481837
16.1753127 ,Left ,61,8875124196114 ,47,676432478261 ,17,6953106079497
16.1903615 ,Left ,61,8680791739931 ,47,7501020174521 ,17,7620043130846
16.2128561 ,Left ,61,8966365838502 ,47,9831602720547 ,17,8374331569842
16.2354244 ,Left ,62,0187118067654 ,48,180942388644 ,17,9210700040015
16.2504578 ,Left ,62,1928955156659 ,48,2378144462144 ,17,9990048922371
16.2726899 ,Left ,62,3052944598404 ,48,27076273705 ,18,0440378638321
16.2953143 ,Left ,62,2967178091653 ,48,2862926854686 ,18,0996817281094
16.3104021 ,Left ,62,2240436435234 ,48,2533754772963 ,18,1660487254068
16.3327134 ,Left ,62,2013801570801 ,48,1885200097609 ,18,2201981675618
16.354934 ,Left ,62,2518460926692 ,48,1399248390155 ,18,2660327050333
16.3702401 ,Left ,62,3184070000153 ,48,0945832368016 ,18,3084106358188
16.3956848 ,Left ,62,366149445405 ,48,0222992293295 ,18,3561778551904
16.4106027 ,Left ,62,3715157707835 ,47,9306375655758 ,18,4044275228226
16.4302681 ,Left ,62,3671765372043 ,47,8339930811104 ,18,4338578313683
16.4529937 ,Left ,62,3689185107948 ,47,7424040863929 ,18,4366052446867
16.4754051 ,Left ,62,3794069773764 ,47,6759863781104 ,18,4211605841685
16.4901679 ,Left ,62,4001943037247 ,47,6114709675817 ,18,3967411161785
16.5126366 ,Left ,62,4256986397754 ,47,5420748610049 ,18,3705926492683
16.5353729 ,Left ,62,4478961415812 ,47,4714100468886 ,18,3307802322003
16.5504975 ,Left ,62,4223952171997 ,47,3980060054113 ,18,2918704226739
16.5727532 ,Left ,62,3917347020972 ,47,3278170182662 ,18,2634784895292
16.5954245 ,Left ,62,353149953985 ,47,2585497318704 ,18,25227523374
16.6103583 ,Left ,62,3052259550251 ,47,2330240080565 ,18,2432625440613
16.6328777 ,Left ,62,2072059954969 ,47,2382860613414 ,18,1912939949825
16.6551476 ,Left ,61,97527813514 ,47,1107867071962 ,18,1822139691305
16.6705017 ,Left ,61,9892539068709 ,47,0544840417687 ,18,2170665494026
16.6929406 ,Left ,61,9353623595916 ,47,2864945854599 ,18,1756019620198
16.7153347 ,Left ,61,9915967562365 ,47,5440248516098 ,18,2155116661208
16.7302935 ,Left ,62,1160654237148 ,47,6493704431044 ,18,2843593973734
16.7525967 ,Left ,62,3096916927499 ,47,6858533681722 ,18,3215200417346
16.7751461 ,Left ,62,3142628431498 ,47,6944374768207 ,18,3560730723752
16.7904754 ,Left ,62,2480743331583 ,47,6981767395255 ,18,3865641183401
16.8125875 ,Left ,62,2048695024919 ,47,6858652327573 ,18,4017772851933
16.835268 ,Left ,62,2480154824515 ,47,6829336820983 ,18,4204604430214
16.8503255 ,Left ,62,3122278356853 ,47,6691225321005 ,18,4547878131007
16.8725893 ,Left ,62,3206426874464 ,47,6644091833604 ,18,4959865749255
16.8905756 ,Left ,62,3007332164132 ,47,6493752384986 ,18,5488735950869
16.910691 ,Left ,62,2995111591222 ,47,625976302989 ,18,6095182265009
16.9332185 ,Left ,62,3080203949804 ,47,6102315076517 ,18,6650416603666
16.9509517 ,Left ,62,3298794797521 ,47,6027182807121 ,18,7200223551545
16.9705296 ,Left ,62,3497057442954 ,47,5901325835469 ,18,7668736474628
16.9932363 ,Left ,62,3491328072055 ,47,5672271240976 ,18,8133039781371
17.0109092 ,Left ,62,3473058135051 ,47,5466600220418 ,18,8556253345699
17.0314994 ,Left ,62,3409836967706 ,47,5419489725867 ,18,892711087648
17.0525964 ,Left ,62,3337146998317 ,47,5350811582189 ,18,9300540450683
17.0704057 ,Left ,62,3430601060114 ,47,5299622198238 ,18,9651715566615
17.0914921 ,Left ,62,3310936076069 ,47,5172203431706 ,19,0014189722684
17.112803 ,Left ,62,3363667790035 ,47,5125264164836 ,19,042226541169
17.1304088 ,Left ,62,338312842566 ,47,5013937480786 ,19,0747914849441
17.1517895 ,Left ,62,3546503238274 ,47,4936852493728 ,19,1057541646031
17.1728408 ,Left ,62,3625262786254 ,47,4829932203966 ,19,1387187487488
17.1907601 ,Left ,62,3760157895765 ,47,4649070845264 ,19,1741918418448
17.2132409 ,Left ,62,3863415153486 ,47,453242763787 ,19,2113254538339
17.2327239 ,Left ,62,4003200531524 ,47,4298459397521 ,19,2514724447335
17.2508423 ,Left ,62,4235991308914 ,47,4012240714076 ,19,2951625543518
17.2717344 ,Left ,62,4400208752369 ,47,376776717033 ,19,3393542170888
17.292619 ,Left ,62,4493032357002 ,47,3503920462229 ,19,3827821173547
17.310695 ,Left ,62,4710483613417 ,47,3107160631061 ,19,4234784157892
17.3316123 ,Left ,62,4676042822547 ,47,2750020615114 ,19,4737495451724
17.352836 ,Left ,62,4572782275197 ,47,2596748579381 ,19,5223884015484
17.3707785 ,Left ,62,4409776865075 ,47,2599117248212 ,19,5761428495602
17.3930924 ,Left ,62,4356243000221 ,47,2626509350739 ,19,627094700694
17.4127197 ,Left ,62,4239641286368 ,47,2610338252069 ,19,675898029096
17.4308031 ,Left ,62,4004423734667 ,47,2587159500178 ,19,7238730939403
17.4530988 ,Left ,62,3776726205438 ,47,2706944173339 ,19,7675976523802
17.4728721 ,Left ,62,3717920512383 ,47,2820413978077 ,19,8015304754112
17.4908646 ,Left ,62,3648413982208 ,47,2899706878436 ,19,8278665654924
17.5133102 ,Left ,62,3461085864559 ,47,2952354890908 ,19,846085993844
17.5328655 ,Left ,62,3362810830778 ,47,3022750906745 ,19,8521440750091
17.5508835 ,Left ,62,3264289344814 ,47,3021653735651 ,19,8468674042951
17.5731948 ,Left ,62,3248587148926 ,47,3039774938443 ,19,8346316779751
17.5928997 ,Left ,62,3174394044054 ,47,3072996828717 ,19,8108971632913
17.610673 ,Left ,62,3107568728886 ,47,311742877438 ,19,7897408288141
17.6331896 ,Left ,62,3017499195028 ,47,3112874525132 ,19,7607848351028
17.6529299 ,Left ,62,3008254851886 ,47,3134476337376 ,19,724371328632
17.6706318 ,Left ,62,3006464925015 ,47,3167403765114 ,19,6905141870411
17.6933368 ,Left ,62,297218627391 ,47,3126148668208 ,19,6602078792268
17.7130058 ,Left ,62,2977853827547 ,47,2972578065248 ,19,6271732637684
17.7306739 ,Left ,62,2909954073585 ,47,2631175518983 ,19,5908028966387
17.7532021 ,Left ,62,2830678182257 ,47,2168001067164 ,19,5571324609516
17.7726118 ,Left ,62,2836943214032 ,47,1631970450485 ,19,5193959244263
17.7904675 ,Left ,62,2405862052818 ,47,1192697908676 ,19,490668074146
17.8137927 ,Left ,62,2298816639841 ,47,1155343801548 ,19,4776617940546
17.8331959 ,Left ,62,1142419146259 ,47,0762507212693 ,19,4101851828926
17.8509995 ,Left ,61,9760907084818 ,47,0013490123994 ,19,398497577479
17.8737269 ,Left ,61,8944998383922 ,47,0580921822348 ,19,3848627256196
17.8934358 ,Left ,61,9615848751809 ,47,2462093862459 ,19,3700766464945
17.9109588 ,Left ,62,0821142492322 ,47,338239838206 ,19,3746125368551
17.9336711 ,Left ,62,2354839925111 ,47,365393228197 ,19,3546655651088
17.9526524 ,Left ,62,3027486203567 ,47,3992391874204 ,19,3010625027076
17.971 ,Left ,62,2960600750067 ,47,4371706532856 ,19,2438545138529
17.992754 ,Left ,62,2625845935014 ,47,4692094540921 ,19,142523525208
18.0142718 ,Left ,62,2852654664277 ,47,5027398082385 ,19,0162635561069
18.0361787 ,Left ,62,3283189656024 ,47,5166450028525 ,18,8852390244797
18.0524253 ,Left ,62,3345574845286 ,47,5243758727923 ,18,7763334869204
18.0735962 ,Left ,62,2968454667404 ,47,4776804603413 ,18,7012074953529
18.095941 ,Left ,62,2405641847665 ,47,357193297251 ,18,6639039129894
18.1123326 ,Left ,62,2440535535942 ,47,2069137553781 ,18,6469698139902
18.1333293 ,Left ,62,1833842583033 ,47,056220875821 ,18,5766468760956
18.1491401 ,Left ,62,1527745281474 ,46,9876218731854 ,18,5621190439396
18.1724234 ,Left ,62,1888995513955 ,47,0855419408701 ,18,5305062967718
18.193525 ,Left ,62,2605672664588 ,47,2650296089766 ,18,5207709677489
18.2089958 ,Left ,62,3194139565619 ,47,3683196545323 ,18,5260921669313
18.2322545 ,Left ,62,4275608108153 ,47,4223435730359 ,18,5441175048746
18.2532683 ,Left ,62,4365848568908 ,47,4613895328176 ,18,542867232018
18.2693363 ,Left ,62,3553118728368 ,47,46911698105 ,18,5385799863679
18.2924576 ,Left ,62,3048685022402 ,47,4668809086132 ,18,526604283264
18.3133673 ,Left ,62,3010251082952 ,47,4452783906538 ,18,5084628937202
18.3373404 ,Left ,62,2322333135448 ,47,373063395427 ,18,4988950957101
18.3521538 ,Left ,62,0901809679131 ,47,2514532229074 ,18,4957470129085
18.3748854 ,Left ,62,1603150783266 ,47,1171649803336 ,18,5302021371262
18.38919 ,Left ,62,1747479956028 ,47,1950212824603 ,18,4943208820377
18.4125004 ,Left ,62,23169768157 ,47,3548249084545 ,18,5015737155461
18.4346861 ,Left ,62,3258755519044 ,47,4264850065496 ,18,5404321076224
18.4492408 ,Left ,62,416278455941 ,47,5020497325548 ,18,5812710798426
18.472408 ,Left ,62,3969970459792 ,47,5830899570697 ,18,6011372200525
18.4949726 ,Left ,62,3037653269446 ,47,6421382642595 ,18,6269629208153
18.5161564 ,Left ,62,2450920744225 ,47,7007144856731 ,18,6353646698472
18.532449 ,Left ,62,2042794656103 ,47,7103674014834 ,18,6421229618339
18.5550245 ,Left ,62,1615177743049 ,47,6578410522645 ,18,6650732096117
18.5760397 ,Left ,62,0812548190348 ,47,5876837324253 ,18,7061302684363
18.5925321 ,Left ,61,9717676136569 ,47,5094107761944 ,18,7516933836263
18.614951 ,Left ,61,8393357208399 ,47,4238578377352 ,18,7829783499175
18.6362555 ,Left ,61,7235802971135 ,47,3187024467481 ,18,8052056843305
18.6524923 ,Left ,61,6052946247855 ,47,3220101596259 ,18,8205466879623
18.6749533 ,Left ,61,5150763573012 ,47,5540971518461 ,18,8324216479683
18.6961361 ,Left ,61,6044716899735 ,47,7700132353157 ,18,9049658570284
18.7125606 ,Left ,61,7902306252968 ,47,8679454401711 ,18,9728122898604
18.7349293 ,Left ,61,9401080437884 ,47,91860451085 ,19,0006448170758
18.756293 ,Left ,61,9187131630243 ,47,9366682953693 ,18,9982967123828
18.7725036 ,Left ,61,9072286754377 ,47,9295231095131 ,19,0049567293508
18.7950458 ,Left ,61,9623043156618 ,47,9034321739384 ,18,9942387403872
18.8161384 ,Left ,62,0834518344965 ,47,8927137401795 ,18,9807418529125
18.8324263 ,Left ,62,1646724072884 ,47,8876227966476 ,18,977489484121
18.8549928 ,Left ,62,211115183906 ,47,8603742376545 ,18,9777607956552
18.8762578 ,Left ,62,2653975511697 ,47,8121684925315 ,18,9673485540571
18.8924965 ,Left ,62,3381141977393 ,47,7571674104218 ,18,9441300004462
18.9150291 ,Left ,62,4049859952128 ,47,7079306476292 ,18,912108050915
18.9360421 ,Left ,62,4670354010887 ,47,6833337323886 ,18,8772466802298
18.9524699 ,Left ,62,5126286023137 ,47,6583399724456 ,18,8523437274732
18.9749902 ,Left ,62,5637535281015 ,47,6391695529642 ,18,8228950789765
18.9963181 ,Left ,62,6141372955647 ,47,6268958980656 ,18,7795097322799
19.0125563 ,Left ,62,645034536193 ,47,6263294409134 ,18,7184583880635
19.0349992 ,Left ,62,6410793851744 ,47,6375367924301 ,18,6508959943908
19.0556101 ,Left ,62,6497477287205 ,47,6612530110774 ,18,5807465034133
19.0721051 ,Left ,62,6549327764827 ,47,699335856215 ,18,50097491399
19.0952339 ,Left ,62,6431392079975 ,47,7501829849664 ,18,4127615858247
19.116544 ,Left ,62,6252177447845 ,47,8083990354584 ,18,3326935210791
19.1328185 ,Left ,62,5953740991201 ,47,8767420235651 ,18,253132111754
19.1551845 ,Left ,62,5761719841496 ,47,9493744265226 ,18,1751210211306
19.176473 ,Left ,62,554544808347 ,48,0141788702649 ,18,0950517399225
19.192729 ,Left ,62,5218031077556 ,48,0654667626226 ,18,0175772590374
19.2152883 ,Left ,62,4797111853972 ,48,0947914111126 ,17,9470213756655
19.2373419 ,Left ,62,438722454688 ,48,0980250578154 ,17,8828163404359
19.2524081 ,Left ,62,3801994091621 ,48,0864066117917 ,17,8174837091142
19.2750109 ,Left ,62,294096158741 ,48,0707009638806 ,17,7619913461069
19.2973225 ,Left ,62,1897950710906 ,48,078023906631 ,17,7187488881786
19.3182624 ,Left ,61,8820289291647 ,48,0064629124274 ,17,6854769160442
19.3346877 ,Left ,61,7840779425873 ,47,8941055890467 ,17,7547018143198
19.3572926 ,Left ,61,7777173253741 ,47,9622050189788 ,17,74112060031
19.3784779 ,Left ,61,8595912488429 ,48,1494361600891 ,17,7535103345909
19.394746 ,Left ,62,0104616715272 ,48,2073801591833 ,17,7975437560294
19.4172916 ,Left ,62,211938548583 ,48,1908503364817 ,17,8356459380906
19.4383799 ,Left ,62,2298499924872 ,48,1044189067454 ,17,8795672376991
19.4550438 ,Left ,62,2077150572366 ,48,0373101954346 ,17,9263289570051
19.4773341 ,Left ,62,1846461306548 ,47,9628770545924 ,17,9516932076158
19.4985395 ,Left ,62,2315086119476 ,47,8830962010974 ,17,9815532932398
19.5146021 ,Left ,62,3424898800866 ,47,8036146108204 ,18,0192078600214
19.5371637 ,Left ,62,4165395475992 ,47,7172674701024 ,18,0776842108753
19.5584507 ,Left ,62,4418598177282 ,47,6321427974069 ,18,1468537576291
19.5749403 ,Left ,62,4457325923293 ,47,5616874442914 ,18,2378192038997
19.5973974 ,Left ,62,4616101081519 ,47,5028084793941 ,18,328883322519
19.6184959 ,Left ,62,5018411542553 ,47,4466554814653 ,18,4248043957049
19.6350165 ,Left ,62,5315351093152 ,47,3922241051882 ,18,5160167126179
19.6575226 ,Left ,62,5452035654661 ,47,3423681904253 ,18,6045453681584
19.6788488 ,Left ,62,5605619371759 ,47,3044068491766 ,18,6847556545614
19.6949253 ,Left ,62,546405825015 ,47,273947161631 ,18,7565422443237
19.7174731 ,Left ,62,5348729797743 ,47,2530045405209 ,18,8187440462215
19.7387602 ,Left ,62,526237523342 ,47,2374835541308 ,18,8920112127673
19.7549613 ,Left ,62,5170759462329 ,47,2255142055574 ,18,9637470405683
19.7774615 ,Left ,62,4930572329968 ,47,2183329918133 ,19,0368875603483
19.7987424 ,Left ,62,4891219957653 ,47,2124334688369 ,19,1148251814061
19.8149817 ,Left ,62,4806676324464 ,47,2122354947937 ,19,1936414808365
19.8370758 ,Left ,62,4711621341828 ,47,2174257870824 ,19,2728875859423
19.8583679 ,Left ,62,4480833495676 ,47,226005454842 ,19,3491429919151
19.8746411 ,Left ,62,4247961472642 ,47,2416247089711 ,19,4171069547206
19.897248 ,Left ,62,4000280437379 ,47,2662556297584 ,19,4840564028562
19.9184393 ,Left ,62,372482344308 ,47,2793714758971 ,19,5474463950394
19.9349043 ,Left ,62,3425019481561 ,47,2959213903774 ,19,6026260430783
19.9574827 ,Left ,62,3228879478191 ,47,308254357221 ,19,6454167962345
19.9787554 ,Left ,62,307479667549 ,47,3217945003064 ,19,6790732468713
19.9947863 ,Left ,62,2990407155147 ,47,3290113006908 ,19,7047695508448
20.0173228 ,Left ,62,2917499939143 ,47,3271374852328 ,19,7259209176765
20.038804 ,Left ,62,2933582748951 ,47,3270383812431 ,19,7348951683119
20.054938 ,Left ,62,3047532244616 ,47,3182361099719 ,19,7411336484535
20.0775231 ,Left ,62,3266284665261 ,47,3022487441436 ,19,7360832088249
20.0988301 ,Left ,62,3642659837454 ,47,2910306986225 ,19,721790985021
20.114816 ,Left ,62,4012832514132 ,47,2857867151604 ,19,7022587651186
20.1376492 ,Left ,62,4411173988411 ,47,2861802979729 ,19,6769757836218
20.1587678 ,Left ,62,4826080488831 ,47,2959229544335 ,19,649810129274
20.1754133 ,Left ,62,5085855758156 ,47,3062198881995 ,19,614108139184
20.1974042 ,Left ,62,5375880926148 ,47,3176148452184 ,19,576903866559
20.2184004 ,Left ,62,5637803907808 ,47,3327031369954 ,19,5423490037555
20.2349401 ,Left ,62,5896410067823 ,47,345099561984 ,19,5139330339511
20.257449 ,Left ,62,6212383460607 ,47,3515129365504 ,19,4879944163476
20.2799714 ,Left ,62,6403547316325 ,47,3390259586993 ,19,4691248446908
20.2950672 ,Left ,62,6607563764188 ,47,324132928082 ,19,454169979864
20.3174414 ,Left ,62,6730217968414 ,47,3103508532223 ,19,4429888283963
20.3397819 ,Left ,62,6778830173936 ,47,294929773517 ,19,4419057458262
20.3548655 ,Left ,62,6751797808761 ,47,2787757026217 ,19,4426700003437
20.3772398 ,Left ,62,6759156904923 ,47,2688956047596 ,19,4515594138517
20.4000468 ,Left ,62,6626370462481 ,47,2588101923235 ,19,4721786565321
20.4144177 ,Left ,62,6471120766959 ,47,2556453790603 ,19,4977126943855
20.4374664 ,Left ,62,6355455745194 ,47,2539822855875 ,19,5248234437884
20.4599426 ,Left ,62,6217535407125 ,47,2526067229919 ,19,5482111876698
20.4742969 ,Left ,62,6073477013645 ,47,2584861813331 ,19,5742732416213
20.4974523 ,Left ,62,5949951916201 ,47,2742815876227 ,19,5927822727365
20.5199696 ,Left ,62,5798096482737 ,47,296549777861 ,19,5946003619877
20.5342217 ,Left ,62,5740543809122 ,47,3208367167501 ,19,5895340155288
20.5574749 ,Left ,62,5629510665176 ,47,3341101025671 ,19,5739534122913
20.5799261 ,Left ,62,5476058916813 ,47,3328300161111 ,19,5502719336243
20.5939868 ,Left ,62,5332400581186 ,47,3285494651793 ,19,5221916117283
20.6172695 ,Left ,62,5154802799459 ,47,3140664001291 ,19,489715194508
20.6397597 ,Left ,62,4995730717968 ,47,2920370358796 ,19,4581032689209
20.6540743 ,Left ,62,4895191422249 ,47,26722757687 ,19,4300843459062
20.6773643 ,Left ,62,4585972941682 ,47,2299673790876 ,19,4004084316628
20.699972 ,Left ,62,3915902869564 ,47,2013645567326 ,19,3869299244154
20.7142617 ,Left ,62,3393171201108 ,47,1806554430761 ,19,4313510134611
20.7378227 ,Left ,62,270621931445 ,47,0875573178077 ,19,4476196380087
20.7604106 ,Left ,62,2492387542716 ,47,0124588506183 ,19,4646887623006
20.7816226 ,Left ,62,1758380539729 ,47,1324284049062 ,19,437431748181
20.7977452 ,Left ,62,1835754200259 ,47,3112512445725 ,19,4344331118355
20.819821 ,Left ,62,2435882975158 ,47,3694757978062 ,19,4433109386055
20.8409131 ,Left ,62,391656897348 ,47,3870053380034 ,19,4143047688215
20.8570726 ,Left ,62,4122329124206 ,47,4091302737273 ,19,3389194528062
20.8798984 ,Left ,62,3437452962739 ,47,4408530464177 ,19,2608141665709
20.900708 ,Left ,62,2860436838817 ,47,4679865211677 ,19,1477151341184
20.9170931 ,Left ,62,3189341376416 ,47,4872727147227 ,19,0151848186778
20.9400054 ,Left ,62,3771001018376 ,47,4848923586909 ,18,8977917060711
20.9614228 ,Left ,62,3929307711221 ,47,4544179540089 ,18,8038491444196
20.9765241 ,Left ,62,368072371864 ,47,3740407258456 ,18,7352357929575
20.9998844 ,Left ,62,3187423040937 ,47,2431432095274 ,18,699250697672
21.0209702 ,Left ,62,2401158616021 ,47,1205783401195 ,18,6479868776704
21.0365384 ,Left ,62,1725139467294 ,47,0724214181883 ,18,6606442475322
21.0598426 ,Left ,62,2112628166784 ,47,2180120875469 ,18,655858587339
21.0810024 ,Left ,62,2356082778325 ,47,4785529910122 ,18,6595611577068
21.0968205 ,Left ,62,2990405081544 ,47,6296247785583 ,18,6847977069326
21.1199496 ,Left ,62,426507989177 ,47,7024870864438 ,18,6988246468864
21.1412062 ,Left ,62,3838062446569 ,47,7282805659471 ,18,6941712386509
21.1569268 ,Left ,62,2644870422227 ,47,724803734918 ,18,6901105090599
21.180027 ,Left ,62,1954832117109 ,47,6920750269417 ,18,6686255459944
21.2024148 ,Left ,62,192820014576 ,47,6323498718228 ,18,6466627428063
21.216894 ,Left ,62,1119724996439 ,47,5293641474138 ,18,6237756282384
21.2400647 ,Left ,62,0234905001823 ,47,3971058362892 ,18,6078885669424
21.2625065 ,Left ,62,0288300098339 ,47,3726293036428 ,18,6104482376862
21.276853 ,Left ,62,0180863971787 ,47,5350996407078 ,18,5994092658972
21.2998999 ,Left ,62,107863989238 ,47,6878658948777 ,18,6174029412736
21.3223826 ,Left ,62,2265539924654 ,47,7760125938132 ,18,6333865839808
21.3433347 ,Left ,62,2175660210949 ,47,8508454963592 ,18,6398549334895
21.3596974 ,Left ,62,1629037569113 ,47,9348081645451 ,18,6348537927721
21.3822901 ,Left ,62,0923472106966 ,47,9905512190485 ,18,6098523603058
21.4033315 ,Left ,62,0868948383579 ,48,0318721036822 ,18,5919310866852
21.4197319 ,Left ,62,0813361487127 ,48,0115596897875 ,18,5900839307107
21.4421934 ,Left ,62,0375170626324 ,47,9437617648303 ,18,6152455711212
21.4564773 ,Left ,61,9580424540533 ,47,8826137066081 ,18,6472727338083
21.4796001 ,Left ,61,864350529328 ,47,7635205064083 ,18,6821934187759
21.502146 ,Left ,61,929632083217 ,47,6199715787808 ,18,7344622784045
21.5232291 ,Left ,61,9122514629037 ,47,6391767467429 ,18,7117154496303
21.5395528 ,Left ,61,8667150928341 ,47,8528384480811 ,18,7119963905184
21.5625437 ,Left ,61,9681110075511 ,47,9608700233228 ,18,7477474889322
21.5840358 ,Left ,62,1516928219015 ,47,992946599891 ,18,7686380818856
21.6003699 ,Left ,62,1853349977823 ,47,9961616455176 ,18,7709219945413
21.6224066 ,Left ,62,1812722552588 ,47,9949522778316 ,18,7801006184623
21.6449142 ,Left ,62,1647238491496 ,48,0178908768204 ,18,7650001994582
21.659214 ,Left ,62,2077117188837 ,48,0910239189449 ,18,7627549265606
21.6824046 ,Left ,62,2732384925599 ,48,168053465012 ,18,7636430402673
21.7049048 ,Left ,62,324659909146 ,48,2254462103107 ,18,7462179800679
21.719965 ,Left ,62,3516838485492 ,48,2728111705008 ,18,7152033407994
21.7423613 ,Left ,62,3753344378561 ,48,3079322411761 ,18,6723979694161
21.7649942 ,Left ,62,3998759521545 ,48,3331061039975 ,18,6056609270582
21.7800603 ,Left ,62,4077875429583 ,48,3429037609198 ,18,5314542006382
21.8024539 ,Left ,62,4078216802049 ,48,3396302751662 ,18,4483464865742
21.8250204 ,Left ,62,4112237174336 ,48,3316472809832 ,18,3599891697501
21.8392661 ,Left ,62,4008107697111 ,48,347895643599 ,18,2656027475017
21.8623644 ,Left ,62,3833710125142 ,48,3673824588929 ,18,1625540779006
21.8679004 ,Left ,62,3718930474815 ,48,3742274914156 ,18,0616945503166
21.8905481 ,Left ,62,3372407827317 ,48,360883313391 ,17,9751841173705
21.9068077 ,Left ,62,3179095201966 ,48,320486788706 ,17,9047966964647
21.9277747 ,Left ,62,2730537960368 ,48,2363227024018 ,17,8556700955089
21.9501261 ,Left ,62,2170532771928 ,48,1361614832008 ,17,8311291967213
21.9667031 ,Left ,62,0763876681859 ,48,0298509975434 ,17,8177646963416
21.9877667 ,Left ,61,9052162096786 ,47,8900562028721 ,17,8158738942988
22.0104355 ,Left ,61,86793144875 ,47,9003514236753 ,17,8648233744847
22.0268223 ,Left ,61,9164930600847 ,48,1399248390155 ,17,87430571367
22.0479789 ,Left ,62,0306367045232 ,48,3144694280673 ,17,9451501782721
22.0703311 ,Left ,62,2280656615868 ,48,351240721728 ,18,0246081141792
22.0871323 ,Left ,62,285601034943 ,48,3346207134609 ,18,0957796808713
22.1081689 ,Left ,62,2414994057938 ,48,3288447751221 ,18,181721545309
22.1307281 ,Left ,62,2154271678409 ,48,3448305492314 ,18,2573006938918
22.1468994 ,Left ,62,2242891948461 ,48,3780177999138 ,18,3218599747478
22.1680982 ,Left ,62,2810761722339 ,48,3986188862408 ,18,3811093145753
22.1905682 ,Left ,62,3381621299371 ,48,3859457046864 ,18,4261421853476
22.2057867 ,Left ,62,3447814106073 ,48,3430536270809 ,18,4399328947913
22.2281943 ,Left ,62,3105800123117 ,48,2829585625909 ,18,425926889117
22.2504329 ,Left ,62,2727459010833 ,48,2024407621111 ,18,3967131062601
22.2657246 ,Left ,62,2331663586476 ,48,0829224431718 ,18,3628044363159
22.2879949 ,Left ,62,2072451754316 ,47,9238172070668 ,18,3325011013896
22.3106317 ,Left ,62,1170319413118 ,47,7536990266033 ,18,2909024705272
22.3254414 ,Left ,61,898564442943 ,47,6068745186739 ,18,2120548837568
22.3480166 ,Left ,61,8653059943557 ,47,5803766613319 ,18,1882488952117
22.3707287 ,Left ,61,9003881221736 ,47,8197131411599 ,18,1753277219786
22.3856041 ,Left ,62,0467763363424 ,48,0601431100423 ,18,2401237925214
22.4081386 ,Left ,62,2246049933529 ,48,1518893966669 ,18,3307601819319
22.4307022 ,Left ,62,4064205766471 ,48,1982320533681 ,18,38913001638
22.4455078 ,Left ,62,4181835968947 ,48,22949183683 ,18,4135092378764
22.4681206 ,Left ,62,3814892927911 ,48,2604895990901 ,18,4204015175323
22.4906167 ,Left ,62,3919796305663 ,48,2829200373695 ,18,4046605825546
22.5054718 ,Left ,62,4338655502083 ,48,2992758915669 ,18,382289604445
22.5281554 ,Left ,62,4623447273748 ,48,3089033151608 ,18,3792837042346
22.5458095 ,Left ,62,4621136373739 ,48,3095794737144 ,18,3786817668471
22.5657307 ,Left ,62,4582918687767 ,48,3075827102355 ,18,3885280772241
22.5879437 ,Left ,62,4572319316356 ,48,296862885655 ,18,4142445832951
22.6058927 ,Left ,62,4623236038442 ,48,263536509946 ,18,4541164266147
22.6256967 ,Left ,62,4767178817463 ,48,2185877355665 ,18,4893332594377
22.6478983 ,Left ,62,4809187752329 ,48,1725410907155 ,18,5246345568954
22.6658707 ,Left ,62,4865123360788 ,48,1356202534051 ,18,5657450555759
22.686899 ,Left ,62,4940434523895 ,48,1115165467303 ,18,6033985119823
22.708087 ,Left ,62,4994941875795 ,48,0939533373216 ,18,634825486185
22.7259125 ,Left ,62,5104087871757 ,48,0767866418752 ,18,6613114481769
22.7467776 ,Left ,62,514492384094 ,48,0669156979018 ,18,689097672042
22.7676574 ,Left ,62,5172528410181 ,48,0560206327396 ,18,7197035864016
22.7855718 ,Left ,62,5141454279468 ,48,0390331875694 ,18,7569757159379
22.8067591 ,Left ,62,5170872667496 ,48,025564913651 ,18,7993249812809
22.8277317 ,Left ,62,5340070485909 ,48,0099319367408 ,18,8419543853136
22.845852 ,Left ,62,5387225348161 ,47,9943542831648 ,18,8859165478325
22.866911 ,Left ,62,5423995552901 ,47,9697692441381 ,18,9293664261133
22.887917 ,Left ,62,5446874231678 ,47,9495174331052 ,18,9761066564913
22.9056771 ,Left ,62,5556720966707 ,47,9315232393373 ,19,0213144444167
22.9281634 ,Left ,62,571378960656 ,47,9108044816947 ,19,0701085743558
22.9479141 ,Left ,62,5776741725693 ,47,8881374516688 ,19,1220711695141
22.9657164 ,Left ,62,5780813481426 ,47,8613182265345 ,19,1694390641306
22.9915663 ,Left ,62,5786173107427 ,47,8357447973879 ,19,2246363611733
23.0076865 ,Left ,62,5781862024028 ,47,8097152709393 ,19,2766299275096
23.022501 ,Left ,62,5847023513019 ,47,8115469620057 ,19,323191677887
23.045344 ,Left ,62,3620967109131 ,47,7720615959898 ,19,3988703962989
23.0675193 ,Left ,62,2045908909163 ,47,791926437483 ,19,4651039694293
23.0826033 ,Left ,62,4187285190409 ,47,7816231952422 ,19,4838641624343
23.1055372 ,Left ,62,2222672887884 ,47,8020261831865 ,19,5611312672096
23.1277905 ,Left ,62,3417108853405 ,47,7658874210419 ,19,585073045586
23.1443811 ,Left ,62,3084653071262 ,47,8159897780753 ,19,6228193902413
23.1655495 ,Left ,62,2184174341829 ,47,7778884132608 ,19,6671616583944
23.1878737 ,Left ,62,3855708916746 ,47,8444876650484 ,19,6660499561811
23.2043257 ,Left ,62,4059513082593 ,47,8535809796746 ,19,6579629599854
23.2255903 ,Left ,62,4012298358668 ,47,8471194209445 ,19,657547689408
23.2478266 ,Left ,62,3831003228855 ,47,8393340817144 ,19,6476530359329
23.2640917 ,Left ,62,3712276940027 ,47,8324214689693 ,19,6325563371198
23.2850883 ,Left ,62,3692803450993 ,47,8200574010375 ,19,6116067853958
23.3075286 ,Left ,62,420277930257 ,47,8440088420976 ,19,5666952900549
23.3240908 ,Left ,62,6510505673602 ,47,8261138610295 ,19,503054995102
23.345068 ,Left ,62,7506184261222 ,47,7954050230017 ,19,4419904025479
23.3676925 ,Left ,62,7771890295809 ,47,8231027874436 ,19,3959336509802
23.3841488 ,Left ,62,7581572157266 ,47,7911096357557 ,19,374319773958
23.4050824 ,Left ,62,744094318581 ,47,7522573383277 ,19,3492517476963
23.4275936 ,Left ,62,7226581341615 ,47,7002318175539 ,19,313707547548
23.4441152 ,Left ,62,6992278375736 ,47,6355518599833 ,19,2776883711548
23.4650545 ,Left ,62,6596879894853 ,47,5948582299221 ,19,2362048318918
23.4876592 ,Left ,62,603114477265 ,47,5784142822326 ,19,2053769308317
23.504154 ,Left ,62,4476475695895 ,47,470924513171 ,19,2091987101663
23.5253078 ,Left ,62,4488926589505 ,47,41390480747 ,19,2223314792589
23.5477214 ,Left ,62,3727732034123 ,47,576773859351 ,19,1752552122364
23.5643647 ,Left ,62,4188006629899 ,47,7633612253016 ,19,1842022844137
23.585571 ,Left ,62,5459839208951 ,47,8250812521182 ,19,2156177419816
23.6079454 ,Left ,62,6714030378847 ,47,8315461875245 ,19,2059417668942
23.6243317 ,Left ,62,6971524956219 ,47,8471726753633 ,19,1820971488629
23.6455319 ,Left ,62,6589834579828 ,47,8673078146906 ,19,1247252652537
23.6679194 ,Left ,62,628422423961 ,47,8883106776849 ,19,0432554553915
23.6845446 ,Left ,62,6379700790685 ,47,9232344152007 ,18,9463183473208
23.7053355 ,Left ,62,6830555366376 ,47,9529935419389 ,18,8512995299968
23.7279992 ,Left ,62,7103809319424 ,47,9674712127536 ,18,756555500763
23.744465 ,Left ,62,6676035338727 ,47,9234956134611 ,18,6821536454464
23.7651008 ,Left ,62,6130956015701 ,47,819696981509 ,18,6476924772828
23.7876292 ,Left ,62,5958123025767 ,47,6821496367792 ,18,6422277128217
23.8040961 ,Left ,62,5394116775897 ,47,5702799340621 ,18,6282645652739
23.8250597 ,Left ,62,3917883214289 ,47,4940301964865 ,18,6035170891948
23.8476234 ,Left ,62,3970005279925 ,47,4939451904859 ,18,6179052204203
23.8641354 ,Left ,62,3850537155895 ,47,6502825232103 ,18,6068892862876
23.8877823 ,Left ,62,4503942989205 ,47,7853063673413 ,18,6268685554486
23.9088528 ,Left ,62,5306499885674 ,47,8409479669453 ,18,6413771651037
23.9243314 ,Left ,62,554187784889 ,47,8808148331288 ,18,644709415519
23.9475379 ,Left ,62,4866632260409 ,47,9126505081982 ,18,6427917919319
23.968845 ,Left ,62,399733245669 ,47,9248899768946 ,18,6301418923917
23.984464 ,Left ,62,3802704686224 ,47,9460603577542 ,18,6173569689037
24.0076021 ,Left ,62,3491507874662 ,47,9326749882758 ,18,6229319080728
24.0285755 ,Left ,62,3012449424949 ,47,8855038588384 ,18,6411073100511
24.0444396 ,Left ,62,2122864175307 ,47,7709995187338 ,18,6267748564814
24.0673697 ,Left ,62,1648553849889 ,47,6191457001644 ,18,6630072755357
24.0898365 ,Left ,62,1566496196786 ,47,6645264142587 ,18,6288737296806
24.1041825 ,Left ,62,1559568016237 ,47,8508561469058 ,18,6282155153639
24.1286972 ,Left ,62,2554937903953 ,47,9529026707792 ,18,6646557689416
24.1498472 ,Left ,62,3877381596096 ,47,9963337625269 ,18,6833800069945
24.1707254 ,Left ,62,3924470194808 ,48,014096409211 ,18,6971706172804
24.1872599 ,Left ,62,3627376024923 ,48,0446715836733 ,18,6970173431715
24.2100994 ,Left ,62,3373073795612 ,48,0694549094925 ,18,6681051826945
24.2312623 ,Left ,62,3530703651748 ,48,1102484264773 ,18,6524105566197
24.2473857 ,Left ,62,373401968927 ,48,1469826405668 ,18,6403308341373
24.2699435 ,Left ,62,3639349355971 ,48,1749941529781 ,18,6306720131553
24.2845399 ,Left ,62,3401786765073 ,48,1993714222344 ,18,6222958588445
24.3074891 ,Left ,62,3230097404308 ,48,1907941226569 ,18,6289118277744
24.3298961 ,Left ,62,3218536742484 ,48,1631274723329 ,18,637647894992
24.3442999 ,Left ,62,3285100107065 ,48,1248276806142 ,18,6521432127075
24.3674462 ,Left ,62,318234036423 ,48,1068059667329 ,18,6579033288733
24.3899862 ,Left ,62,2902958210733 ,48,1010594186327 ,18,6516783807784
24.4043267 ,Left ,62,2539601800719 ,48,1009236280803 ,18,6409075065081
24.4274755 ,Left ,62,2262475878027 ,48,0947565362652 ,18,6236943968202
24.4498852 ,Left ,62,2005443090299 ,48,0806742275069 ,18,6046727941128
24.4640755 ,Left ,62,1487935321224 ,48,0378930520873 ,18,5906568101623
24.487339 ,Left ,62,0694246876816 ,47,9666048072814 ,18,5870717831753
24.5098571 ,Left ,61,9996568909007 ,47,8784284961785 ,18,6259998381912
24.5307043 ,Left ,61,8538505573091 ,47,7692266932597 ,18,6738083948348
24.5471926 ,Left ,61,8895155097757 ,47,7354334714378 ,18,7074678089656
24.5699693 ,Left ,61,8411312918501 ,47,9275463868672 ,18,6584469412076
24.5912476 ,Left ,61,8088151661785 ,48,1739547312054 ,18,6878709870103
24.6137462 ,Left ,61,9126131937517 ,48,24491585493 ,18,73476252734
24.6300869 ,Left ,62,1060812134932 ,48,2575381786728 ,18,7512084757248
24.6510656 ,Left ,62,1228086507019 ,48,2443760017675 ,18,7493991366444
24.6672739 ,Left ,62,0953833773914 ,48,2179483834757 ,18,7617792609575
24.6895936 ,Left ,62,1138718259088 ,48,2043964929337 ,18,7582790457078
24.718507 ,Left ,62,1800491347064 ,48,2089780569709 ,18,7521381818721
24.7272876 ,Left ,62,2478373768734 ,48,2227304476456 ,18,7517181401987
24.7499394 ,Left ,62,2602136200001 ,48,2341762725419 ,18,7521826583991
24.7708878 ,Left ,62,2743291145677 ,48,2419350050136 ,18,7579200465428
24.7873361 ,Left ,62,3219591877737 ,48,2446958575546 ,18,7574260407553
24.8097965 ,Left ,62,3504681651838 ,48,234637656266 ,18,7417265961049
24.8309762 ,Left ,62,3628393484018 ,48,2250667703167 ,18,7105566438633
24.8473055 ,Left ,62,3718437173426 ,48,2159087140586 ,18,6717950451224
24.8699438 ,Left ,62,3956114107187 ,48,2160546528872 ,18,629805857066
24.8909142 ,Left ,62,4128684496452 ,48,2230262487444 ,18,5817429803989
24.9074441 ,Left ,62,4380624174905 ,48,2244479707192 ,18,5289332319483
24.9300217 ,Left ,62,4534882178735 ,48,2325914253976 ,18,459306777224
24.951205 ,Left ,62,4580478648897 ,48,2540632248127 ,18,381312555948
24.967359 ,Left ,62,4576735144603 ,48,2924068370852 ,18,3001035140315
24.9971709 ,Left ,62,4505674811393 ,48,334254194383 ,18,2158630440409
25.0124025 ,Left ,62,446742737791 ,48,3727029026033 ,18,1344108366245
25.0274817 ,Left ,62,4460621199075 ,48,4001047269503 ,18,0501683947534
25.0500448 ,Left ,62,4219393061423 ,48,4026948736709 ,17,9793217144245
25.0722325 ,Left ,62,403034887547 ,48,389387814863 ,17,9314219864778
25.0866431 ,Left ,62,3568802523014 ,48,3148245475317 ,17,9168690347828
25.1100129 ,Left ,62,4326941839381 ,48,3438712713684 ,17,8678974700071
25.1322789 ,Left ,62,5661347661346 ,48,4096655221645 ,17,8307846437596
25.1467066 ,Left ,62,6754434349817 ,48,4417238438425 ,17,7782419957637
25.169734 ,Left ,62,5250214340051 ,48,3534646133869 ,17,7398806784139
25.1923007 ,Left ,62,2129451871682 ,48,2392086989917 ,17,8075094840771
25.2133715 ,Left ,62,0278657499332 ,48,3631994529005 ,17,8466760726549
25.2301635 ,Left ,62,3380720343795 ,48,5749470520799 ,17,8764991530238
25.2526322 ,Left ,62,558780328942 ,48,5659005431085 ,17,9333154773402
25.2736798 ,Left ,62,4569085490367 ,48,483547285077 ,17,9902134780638
25.2899171 ,Left ,62,3803194017632 ,48,4759058009577 ,18,0309001997686
25.3125413 ,Left ,62,5771214131867 ,48,5187742751575 ,18,0584015414673
25.333795 ,Left ,62,5917080784213 ,48,4515532090901 ,18,0710694427895
25.3500373 ,Left ,62,3869869848747 ,48,3725063380297 ,18,1172473606298
25.3724516 ,Left ,62,4439144797865 ,48,3758625634995 ,18,1485692566326
25.3868922 ,Left ,62,4522871634013 ,48,3293567752654 ,18,1355183015694
25.4100129 ,Left ,62,4105138307121 ,48,2744845593536 ,18,1486748130866
25.4326007 ,Left ,62,3719473372841 ,48,2072589139207 ,18,1510941790874
25.453477 ,Left ,62,3481801813279 ,48,0861573361465 ,18,1602792076493
25.4700676 ,Left ,62,2941201624416 ,47,9031191383917 ,18,1425294925272
25.4923662 ,Left ,62,233219460661 ,47,7519870122236 ,18,1486715486249
25.5135012 ,Left ,62,2173623644713 ,47,8133965800533 ,18,1158309063262
25.5298773 ,Left ,62,1593913951636 ,48,0532061337149 ,18,0911399451811
25.5524768 ,Left ,62,2374916897188 ,48,2071811068664 ,18,1389424849148
25.5734964 ,Left ,62,3606527709659 ,48,2508984854188 ,18,209123482412
25.5899941 ,Left ,62,455950403116 ,48,283312564772 ,18,2621966570985
25.6124399 ,Left ,62,4510641658735 ,48,2926385697088 ,18,2816959856582
25.6332155 ,Left ,62,4291011106845 ,48,2800547106082 ,18,2869016736224
25.6499047 ,Left ,62,4298684837205 ,48,2575367471459 ,18,2865448548715
25.6724975 ,Left ,62,4665317849719 ,48,2355234324807 ,18,287760487492
25.6938456 ,Left ,62,4991471625281 ,48,2288074317175 ,18,304247246146
25.7102346 ,Left ,62,4988398693913 ,48,2138625713771 ,18,3321246793896
25.7327976 ,Left ,62,4696889453438 ,48,1953083429143 ,18,3629202786823
25.7538585 ,Left ,62,46958827367 ,48,171192013223 ,18,3941210706306
25.77023 ,Left ,62,4852552263232 ,48,1375645155489 ,18,434831097911
25.7928472 ,Left ,62,4843851313629 ,48,0967535842131 ,18,4731223385411
25.8137976 ,Left ,62,4805856414131 ,48,0481222464043 ,18,5042233304904
25.8301901 ,Left ,62,4670439710208 ,48,0002792413571 ,18,537519061078
25.852275 ,Left ,62,4608606644731 ,47,9571985315088 ,18,5652342920876
25.8732146 ,Left ,62,4693325451631 ,47,9217704268071 ,18,5931087430704
25.8897276 ,Left ,62,479191602588 ,47,8871095749925 ,18,6217565770587
25.9124457 ,Left ,62,4722190417333 ,47,8512125208178 ,18,651826352643
25.9348928 ,Left ,62,4782226772407 ,47,8179087525313 ,18,6832199583527
25.9498325 ,Left ,62,4838007898231 ,47,7885691557706 ,18,7294831298248
25.9725015 ,Left ,62,4919968563459 ,47,7631510457519 ,18,7733049360382
25.9949694 ,Left ,62,4966321609193 ,47,7401134576615 ,18,817049373285
26.0093957 ,Left ,62,4986236817541 ,47,7199380005242 ,18,8638733261531
26.0324821 ,Left ,62,5033320951868 ,47,699845010483 ,18,9120411508261
26.0548366 ,Left ,62,5059721475068 ,47,6790844709567 ,18,9647238780394
26.0696997 ,Left ,62,4964773772096 ,47,6558979746094 ,19,0305952519567
26.0920839 ,Left ,62,4970658205091 ,47,6289216410976 ,19,0948484154076
26.1159791 ,Left ,62,4974919318964 ,47,5972323076634 ,19,1578162805399
26.1289364 ,Left ,62,5007452456613 ,47,5741290217006 ,19,2194485781546
26.1520586 ,Left ,62,5023119409212 ,47,5492243249584 ,19,2830545120246
26.1745831 ,Left ,62,4922972083533 ,47,5295711867255 ,19,3469396998447
26.1890992 ,Left ,62,4772534383589 ,47,5138193897817 ,19,4096073032655
26.2121044 ,Left ,62,4576571350179 ,47,4933146069985 ,19,468370183129
26.2347734 ,Left ,62,4434320897306 ,47,4804866771566 ,19,5300908618878
26.2491244 ,Left ,62,4314095639745 ,47,4695794654933 ,19,5950252751452
26.272234 ,Left ,62,4041798322931 ,47,4673025704712 ,19,6597816675401
26.2953419 ,Left ,62,3912054886856 ,47,4749811627572 ,19,7181289893705
26.3097094 ,Left ,62,3737349433234 ,47,4757592087515 ,19,7731086473361
26.332806 ,Left ,62,3628721576028 ,47,476954426378 ,19,8154370002526
26.3552868 ,Left ,62,3531364913866 ,47,4875419180864 ,19,8470916110438
26.3696123 ,Left ,62,3418351863456 ,47,5055144697956 ,19,8593893178375
26.3925798 ,Left ,62,3393539480363 ,47,529108618314 ,19,8557891348133
26.4150783 ,Left ,62,340199268155 ,47,5505565515471 ,19,8411041077364
26.4363941 ,Left ,62,3534980422034 ,47,5763995600172 ,19,8182869324547
26.4525697 ,Left ,62,3595940694051 ,47,596791872516 ,19,7908013651185
26.4750472 ,Left ,62,3681941482534 ,47,610361150927 ,19,7640392801454
26.4964816 ,Left ,62,3830122301169 ,47,6214451211063 ,19,7386616399239
26.5125704 ,Left ,62,3930501160297 ,47,6302422982342 ,19,7196753824254
26.5350088 ,Left ,62,4119989772591 ,47,6424232494805 ,19,7070084304818
26.5562877 ,Left ,62,4264384878079 ,47,6494381780273 ,19,7017091156317
26.572544 ,Left ,62,4465991415572 ,47,6519457786185 ,19,7034857538953
26.5950553 ,Left ,62,4589989492515 ,47,6474393203895 ,19,7090939206042
26.6159459 ,Left ,62,4679462763706 ,47,6432674103221 ,19,7151904604288
26.6322867 ,Left ,62,4721377582422 ,47,638468756698 ,19,7243827816853
26.6549124 ,Left ,62,4661125663634 ,47,6383622880165 ,19,7345772395655
26.6759779 ,Left ,62,4673337766471 ,47,6342294703513 ,19,7418972734607
26.692447 ,Left ,62,4663384722426 ,47,6282259333118 ,19,7459325719429
26.7152702 ,Left ,62,4656335861673 ,47,6212774779224 ,19,73981343594
26.7360259 ,Left ,62,4721628202864 ,47,6178320997553 ,19,7310347195719
26.7526007 ,Left ,62,4732742714768 ,47,6177485151703 ,19,7128420506758
26.775004 ,Left ,62,4677427744935 ,47,6195736900489 ,19,6849922342988
26.7963444 ,Left ,62,4650595814988 ,47,6119214150051 ,19,6509538189216
26.812536 ,Left ,62,457983216177 ,47,6026652682452 ,19,6098071165482
26.8349958 ,Left ,62,4657545899725 ,47,5900693687648 ,19,5639893310039
26.8561278 ,Left ,62,4731747820237 ,47,5734978545591 ,19,5164348494074
26.8725005 ,Left ,62,4705779959371 ,47,5557208961302 ,19,466230783942
26.8950298 ,Left ,62,4756475386811 ,47,5332692579529 ,19,4134967539375
26.9175604 ,Left ,62,4921802031713 ,47,4940039022652 ,19,3582981075187
26.9326036 ,Left ,62,4674638413932 ,47,4527382829034 ,19,3112655146399
26.955096 ,Left ,62,4523200707217 ,47,4359660639648 ,19,2670505127523
26.9774921 ,Left ,62,4116889205248 ,47,4202392070436 ,19,2110046772192
26.9986551 ,Left ,62,330163003097 ,47,3455806763562 ,19,1337084029561
27.0150404 ,Left ,62,2063225488853 ,47,2067508142071 ,19,1384289744065
27.0375426 ,Left ,62,2125823245645 ,47,1969675389031 ,19,1226410170213
27.0585861 ,Left ,62,1967398559263 ,47,3437316013147 ,19,0477247725888
27.0749873 ,Left ,62,265970571766 ,47,503615722122 ,19,0329868282253
27.097484 ,Left ,62,382680355308 ,47,5570082820141 ,19,0597027104475
27.1187907 ,Left ,62,4939752117347 ,47,5736433796565 ,19,0665978972712
27.135078 ,Left ,62,5030669185454 ,47,6308209648664 ,19,0534415163262
27.1574179 ,Left ,62,4721752738095 ,47,7121922056031 ,19,0099148824891
27.1785126 ,Left ,62,4457625369782 ,47,7924055963703 ,18,9385039012894
27.1950262 ,Left ,62,4732602182844 ,47,8767848556719 ,18,8594408831519
27.217442 ,Left ,62,5087102500587 ,47,9121743523231 ,18,7706860288294
27.2318623 ,Left ,62,4866924731214 ,47,905953294461 ,18,6845895514704
27.2552326 ,Left ,62,4063785499048 ,47,8302525829529 ,18,6204312069384
27.2773794 ,Left ,62,352109037696 ,47,6855489632235 ,18,590007909761
27.2986578 ,Left ,62,3204269156254 ,47,502740168402 ,18,5931848082269
27.314902 ,Left ,62,2464708599903 ,47,3574884700062 ,18,6271356023824
27.3373944 ,Left ,62,3073445934102 ,47,308923200864 ,18,6377044187507
27.3585661 ,Left ,62,2881967477536 ,47,4327848293336 ,18,6050504701442
27.3746337 ,Left ,62,3162680454677 ,47,5810370575013 ,18,600262137039
27.3973563 ,Left ,62,4154317029458 ,47,6654091180698 ,18,6109433802919
27.4183058 ,Left ,62,4065417866713 ,47,7021255707235 ,18,6139001435658
27.4349847 ,Left ,62,3447796690529 ,47,7110378977065 ,18,6203843690469
27.4573535 ,Left ,62,2623013368975 ,47,6865186218468 ,18,613303367475
27.4785247 ,Left ,62,2207992525481 ,47,6435997496134 ,18,6057660437746
27.4950484 ,Left ,62,1568312875505 ,47,5355923058171 ,18,5970055164896
27.5172693 ,Left ,62,0894092474047 ,47,4173269749342 ,18,5891869602658
27.5383299 ,Left ,62,075508266395 ,47,4193314343445 ,18,58893376632
27.5609335 ,Left ,62,0604531320394 ,47,5760925615744 ,18,5574374091675
27.5775768 ,Left ,62,1374821289905 ,47,7465410656522 ,18,5615786725355
27.5985388 ,Left ,62,2255113338551 ,47,8509432659475 ,18,5766740778851
27.6055792 ,Left ,62,2571446013758 ,47,945079249 ,18,5837830171122
27.6220128 ,Left ,62,1999020496829 ,48,0403141849881 ,18,578822748905
27.643033 ,Left ,62,1265674616808 ,48,1161379961993 ,18,5696997355247
27.6682111 ,Left ,62,0922374170214 ,48,1789869257141 ,18,5518656961105
27.6805217 ,Left ,62,0498909116928 ,48,1808564505488 ,18,5390886036256
27.7028967 ,Left ,62,0092826917943 ,48,1221912565616 ,18,5491068722891
27.7254756 ,Left ,61,9706480810209 ,48,0332659719978 ,18,5705719379187
27.7404207 ,Left ,61,9371113508099 ,47,9613843677955 ,18,5837341092585
27.7630397 ,Left ,61,8445586514142 ,47,8982642915281 ,18,5770721258846
27.7855188 ,Left ,61,7413303164714 ,47,8488624434324 ,18,5613501417366
27.8004179 ,Left ,61,7384471804877 ,47,8186070976094 ,18,5674947976196
27.8230471 ,Left ,61,7569783758633 ,47,9377441806632 ,18,5708091495395
27.8454423 ,Left ,61,9117116935667 ,48,0284531486873 ,18,6042176549995
27.8603123 ,Left ,62,0590967933566 ,48,0647504720699 ,18,6396069840532
27.8830264 ,Left ,62,1068549913739 ,48,1027353516346 ,18,6551687500653
27.9055952 ,Left ,62,123429501362 ,48,1287169654932 ,18,6367818488354
27.9228336 ,Left ,62,1600799288084 ,48,1588064293089 ,18,6256117526447
27.9454522 ,Left ,62,209951962612 ,48,2065261893416 ,18,6028619692228
27.9651604 ,Left ,62,2821335896682 ,48,2465284826807 ,18,5931502076699
27.980331 ,Left ,62,3429867506475 ,48,2548529672729 ,18,5878131650098
28.0028528 ,Left ,62,3756123152271 ,48,2478943762958 ,18,5818238058258
28.0253231 ,Left ,62,3982235523259 ,48,2187300918448 ,18,5744595144487
28.0402009 ,Left ,62,4237334581069 ,48,1877074595263 ,18,5610180978891
28.0627649 ,Left ,62,4527862748376 ,48,1598377285483 ,18,5402220891688
28.0852914 ,Left ,62,4852958526793 ,48,1404994818314 ,18,5125553117306
28.1002699 ,Left ,62,5083321963942 ,48,1268297712666 ,18,4802979679883
28.1231127 ,Left ,62,5182815994313 ,48,1295305822319 ,18,4485056500091
28.140683 ,Left ,62,5238101311776 ,48,1443394851991 ,18,4071931516884
28.160589 ,Left ,62,5429625404076 ,48,170651399719 ,18,3474737575613
28.1830886 ,Left ,62,5552160045556 ,48,2116411001151 ,18,2702366548739
28.2009496 ,Left ,62,5435740063813 ,48,2690851305817 ,18,1922564053943
28.220523 ,Left ,62,52373536015 ,48,3361210001097 ,18,103192558123
28.2429937 ,Left ,62,4988428560943 ,48,391321413515 ,18,014463619243
28.2608417 ,Left ,62,4734785158666 ,48,4358484351103 ,17,9340480878371
28.280294 ,Left ,62,4605605812466 ,48,4564826808825 ,17,8609890740286
28.303093 ,Left ,62,4194559114304 ,48,4580754493112 ,17,8052907909343
28.3206536 ,Left ,62,3735490155283 ,48,446125315937 ,17,7538158121429
28.3404292 ,Left ,62,3194498492241 ,48,4144262192442 ,17,7093338073735
28.3629613 ,Left ,62,2380613100404 ,48,3629506623946 ,17,6926190722243
28.3855979 ,Left ,62,1453156966857 ,48,2982624171705 ,17,6804904978054
28.4018499 ,Left ,61,9172168826154 ,48,1593599821404 ,17,6433258038162
28.4231188 ,Left ,61,7322089634032 ,48,01036265992 ,17,6722766762115
28.4455499 ,Left ,61,7240300377645 ,47,964957221388 ,17,6653265850427
28.4617723 ,Left ,61,8047138045964 ,48,070344864228 ,17,6792146186011
28.4828073 ,Left ,61,9924223107504 ,48,128874220535 ,17,7282734420537
28.5052803 ,Left ,62,1867613459309 ,48,1183140823492 ,17,7707331625327
28.5217836 ,Left ,62,1954122493432 ,48,119755393068 ,17,8110369724697
28.5428847 ,Left ,62,1583205829752 ,48,1520147494362 ,17,8641422358724
28.56551 ,Left ,62,1510183712091 ,48,1970794279783 ,17,9074755790181
28.5818333 ,Left ,62,197628246602 ,48,2325933344313 ,17,9425122669826
28.6030553 ,Left ,62,2819053829321 ,48,2391743379705 ,17,976662778514
28.6209502 ,Left ,62,3310142454057 ,48,224322086553 ,17,9987916007611
28.641915 ,Left ,62,3176322282893 ,48,1900789757986 ,18,0019765617296
28.6631126 ,Left ,62,2869725865659 ,48,148676506173 ,17,9909627650637
28.6855966 ,Left ,62,2629156691512 ,48,0628192394495 ,17,9704530191656
28.7023997 ,Left ,62,2107913418305 ,47,9380754227545 ,17,9589382935919
28.723121 ,Left ,62,18174099686 ,47,7968806420548 ,17,9557559183141
28.7455555 ,Left ,62,0142413278457 ,47,6667252491036 ,17,9333720523497
28.7634661 ,Left ,61,9447241466638 ,47,5684092663162 ,17,9564281277181
28.7830647 ,Left ,61,8693606986689 ,47,6530357399686 ,17,9181194969858
28.8056211 ,Left ,61,8850245112612 ,47,8683274873412 ,17,9139026290549
28.8234627 ,Left ,62,0415483403729 ,48,0060560792529 ,17,9475105982214
28.8429569 ,Left ,62,2311589512397 ,48,0378948443854 ,17,9907849700348
28.865518 ,Left ,62,3494031774407 ,48,0796464999126 ,18,0220161265192
28.8836907 ,Left ,62,361367745203 ,48,1350712605458 ,18,0017032474963
28.9030676 ,Left ,62,3677572193298 ,48,1655218519905 ,17,9610339574385
28.9254242 ,Left ,62,4064049281597 ,48,1832444355514 ,17,9150217576097
28.9434969 ,Left ,62,4526746780612 ,48,1950956679832 ,17,8704154803432
28.9627807 ,Left ,62,4842192944357 ,48,2162268438051 ,17,8483948260984
28.9809628 ,Left ,62,5160682114364 ,48,2372196833895 ,17,8436888354833
29.0032506 ,Left ,62,5358010010979 ,48,2477316484502 ,17,8466970917898
29.0230308 ,Left ,62,5361220552181 ,48,2415430815796 ,17,8547459452867
29.0408206 ,Left ,62,5531437433542 ,48,2189550216323 ,17,8700123522487
29.0634945 ,Left ,62,5650320018938 ,48,1806432760994 ,17,8841972889847
29.0829771 ,Left ,62,5937685949033 ,48,1336970970482 ,17,9033132487555
29.100727 ,Left ,62,6033174816891 ,48,0859458038322 ,17,9191991250114
29.1232873 ,Left ,62,6115932084891 ,48,0481819849141 ,17,9366389609283
29.1426096 ,Left ,62,6242855069167 ,48,0187972013478 ,17,9510047137708
29.1605815 ,Left ,62,6288719482722 ,47,9965322944234 ,17,9667192023083
29.1831778 ,Left ,62,6327670503338 ,47,9760630883088 ,17,9844796059742
29.2028157 ,Left ,62,6334401782279 ,47,9503974699499 ,18,0019578617266
29.2210277 ,Left ,62,6407521651625 ,47,9252998274792 ,18,0143836004434
29.2434948 ,Left ,62,6479856377811 ,47,906175416556 ,18,0360784422451
29.263436 ,Left ,62,6408014471606 ,47,8886579663777 ,18,0520211670514
29.2810323 ,Left ,62,6380072871906 ,47,8752858423689 ,18,0804522200635
29.3036314 ,Left ,62,6319852657279 ,47,8567346223396 ,18,1086051115415
29.3228839 ,Left ,62,6263491584863 ,47,8397766606965 ,18,1426307939747
29.340818 ,Left ,62,6067072857561 ,47,8221456814895 ,18,1883271046777
29.3635043 ,Left ,62,5964756262487 ,47,8041279598724 ,18,242686877953
29.3843307 ,Left ,62,5810866031756 ,47,7855793675407 ,18,3112519147095
29.4009972 ,Left ,62,5592036766923 ,47,7657555678166 ,18,3930681918594
29.4234162 ,Left ,62,533996953228 ,47,7434557738181 ,18,4906883000694
29.4443408 ,Left ,62,5127143666573 ,47,7241721384196 ,18,5978491419571
29.4599234 ,Left ,62,4870383856832 ,47,7052081818894 ,18,7050269879355
29.482478 ,Left ,62,4606119253095 ,47,695974228154 ,18,8104549185863
29.5037255 ,Left ,62,4412616381665 ,47,6879856170518 ,18,9114566767331
29.5199867 ,Left ,62,4214705864451 ,47,6889896482776 ,19,0112894904518
29.5425163 ,Left ,62,4106852781051 ,47,695703165197 ,19,1025397690847
29.5636971 ,Left ,62,3854535091308 ,47,6930596069785 ,19,1859929238608
29.5799956 ,Left ,62,370873160798 ,47,694019971394 ,19,2626986326012
29.6028142 ,Left ,62,3573136103586 ,47,6904886072385 ,19,3304502386773
29.6233772 ,Left ,62,3458149809875 ,47,6896443368413 ,19,378924410356
29.6399922 ,Left ,62,3415409556681 ,47,6798655421618 ,19,4126371451508
29.6627023 ,Left ,62,3357006951597 ,47,6735379482915 ,19,4305536134521
29.6835628 ,Left ,62,3382120239496 ,47,6689174466244 ,19,4308306223397
29.7000109 ,Left ,62,3498091944847 ,47,6671460959907 ,19,416062039678
29.7225324 ,Left ,62,3753968974486 ,47,6702167542163 ,19,3909777886795
29.7525061 ,Left ,62,3835950193806 ,47,6671751033203 ,19,3579996674116
29.7599814 ,Left ,62,3891783885057 ,47,6659444425228 ,19,312374400496
29.7824656 ,Left ,62,3961001668216 ,47,6640157756706 ,19,2673568508753
29.8050033 ,Left ,62,4235410764316 ,47,6744616893147 ,19,2185944956986
29.8199552 ,Left ,62,4438771817428 ,47,6815276218649 ,19,1646141599286
29.8426577 ,Left ,62,4531496159664 ,47,6727773272715 ,19,1145954023031
29.8649896 ,Left ,62,4437027487301 ,47,6587373567556 ,19,0666999451816
29.8793779 ,Left ,62,4501814969672 ,47,6298444481054 ,19,0158028018743
29.9024707 ,Left ,62,4157278251355 ,47,5718976648568 ,18,9704929745536
29.9250078 ,Left ,62,3612905510146 ,47,5280474875491 ,18,9367148860571
29.9462251 ,Left ,62,2123282962906 ,47,4623800278743 ,18,9144793182124
29.9625482 ,Left ,62,0763234173176 ,47,2679464211766 ,18,9493538705548
29.984973 ,Left ,62,1138567449518 ,47,1924375702776 ,18,9608382421441
30.006114 ,Left ,62,0764827026573 ,47,3809274365688 ,18,9015844309957
30.0224961 ,Left ,62,1492384917685 ,47,5565837548308 ,18,8951507227608
30.0450245 ,Left ,62,2824959705869 ,47,5993606915857 ,18,9049901999054
30.0662368 ,Left ,62,4169710582635 ,47,6423322509167 ,18,8899439798498
30.0824584 ,Left ,62,4227646497756 ,47,6973580527807 ,18,8307389902337
30.1049697 ,Left ,62,3635188860629 ,47,743158235922 ,18,7645595686415
30.1256579 ,Left ,62,3204381068995 ,47,8100645885652 ,18,6693879825248
30.1423073 ,Left ,62,3527388735453 ,47,8611204310379 ,18,566897872224
30.1646439 ,Left ,62,3877649491651 ,47,8670254348826 ,18,4668131432843
30.1858014 ,Left ,62,3567760624996 ,47,8215055316635 ,18,3832068191054
30.2025578 ,Left ,62,2747733781569 ,47,6905662630087 ,18,3246857127486
30.2250354 ,Left ,62,2647733401942 ,47,509940780359 ,18,2929060368757
30.2457695 ,Left ,62,1432571087137 ,47,3411505076455 ,18,3192771441614
30.2624439 ,Left ,62,2512628245983 ,47,2866011926879 ,18,3667857609055
30.2849455 ,Left ,62,2500316071767 ,47,427066876543 ,18,3303945742244
30.306095 ,Left ,62,2525321743526 ,47,644438865751 ,18,3347669194208
30.3223482 ,Left ,62,3601842421213 ,47,7524505306641 ,18,3505374319159
30.3450121 ,Left ,62,3925426403251 ,47,8108891559129 ,18,3537204040572
30.3658214 ,Left ,62,3314611999308 ,47,8578520306907 ,18,3446102006296
30.3816253 ,Left ,62,2023362047321 ,47,8443362753499 ,18,3304357666681
30.4049441 ,Left ,62,1439779427924 ,47,8041338260213 ,18,3024738473591
30.4258138 ,Left ,62,145296949751 ,47,7061306956753 ,18,2894976843405
30.4419825 ,Left ,62,1155027808889 ,47,5232821644296 ,18,2818279754721
30.4649209 ,Left ,62,0724061292451 ,47,374064527864 ,18,2972397953392
30.4860921 ,Left ,62,054655384039 ,47,3873701320677 ,18,2592374068218
30.5017723 ,Left ,62,0603056052877 ,47,5676968391834 ,18,2303794545299
30.5250644 ,Left ,62,1928547940174 ,47,7102329662586 ,18,2306804175025
30.5462784 ,Left ,62,3213474653431 ,47,802214382124 ,18,2415961210526
30.5619639 ,Left ,62,2754857946936 ,47,8732115518846 ,18,2503085839629
30.5848435 ,Left ,62,1913013634936 ,47,9476036899144 ,18,2800278195632
30.6062993 ,Left ,62,1294556183456 ,48,0002974086805 ,18,2868054587526
30.621735 ,Left ,62,1173260564976 ,48,0131219306107 ,18,2979702715524
30.6450907 ,Left ,62,0994704064624 ,47,9542230460487 ,18,3303079139145
30.667441 ,Left ,62,0219922648851 ,47,8531743529637 ,18,3825985725219
30.6887515 ,Left ,61,9747240659192 ,47,7578015744605 ,18,4261168915568
30.7049508 ,Left ,61,8639510003811 ,47,6543045503458 ,18,4272894663268
30.7274425 ,Left ,61,7492923659024 ,47,6053208960311 ,18,4469372035014
30.7420155 ,Left ,61,6097860498694 ,47,6689108541567 ,18,437150708959
30.764919 ,Left ,61,6086691427794 ,47,8253545167382 ,18,4504448242142
30.7875 ,Left ,61,8110985571948 ,47,9480804246068 ,18,5012160119342
30.8083714 ,Left ,61,9864137801585 ,48,0428892845643 ,18,5401910597143
30.8249632 ,Left ,62,004910026415 ,48,1186152423404 ,18,5531908281413
30.8472567 ,Left ,61,9616750580598 ,48,1802847221427 ,18,53510826342
30.868358 ,Left ,62,0012674929345 ,48,2043307374766 ,18,5030807488643
30.8848973 ,Left ,62,0881001658061 ,48,2286296481219 ,18,4663162871284
30.9074283 ,Left ,62,1675917083502 ,48,252421334035 ,18,4194522191494
30.9285289 ,Left ,62,2319790802807 ,48,2483439050486 ,18,3756090029839
30.9450712 ,Left ,62,2829078872811 ,48,2336444922455 ,18,3266962470666
30.9676105 ,Left ,62,3271079645673 ,48,2132616224593 ,18,2726829441923
30.9886316 ,Left ,62,3986893135164 ,48,1897825086351 ,18,21335282404
31.0049037 ,Left ,62,4441194441749 ,48,165529014296 ,18,1610233777089
31.0274241 ,Left ,62,4984670247496 ,48,1282232288429 ,18,1207065305194
31.0485715 ,Left ,62,5511670423452 ,48,0777599227575 ,18,0952066182951
31.0652314 ,Left ,62,5770262435743 ,48,0319244412321 ,18,0885092016391
31.0874712 ,Left ,62,5968102524714 ,47,9948277307061 ,18,0982632791542
31.1099177 ,Left ,62,6236979676281 ,47,9675430642394 ,18,1145411256458
31.1252097 ,Left ,62,6484200904024 ,47,9480499337301 ,18,1327421500847
31.1474455 ,Left ,62,6626321863889 ,47,936551940862 ,18,1479771418556
31.1697931 ,Left ,62,6681904083158 ,47,9404379779407 ,18,1642698466939
31.1849151 ,Left ,62,6644501342769 ,47,9585407405763 ,18,1790472348765
31.2072433 ,Left ,62,6547579004682 ,47,9815473329408 ,18,185925125856
31.2296269 ,Left ,62,6430271123214 ,48,0128150292511 ,18,1830786413091
31.2446537 ,Left ,62,6300819243215 ,48,0481191400011 ,18,1725778569089
31.2671837 ,Left ,62,6163639934964 ,48,08931881394 ,18,1563539275931
31.289606 ,Left ,62,6011292995843 ,48,1437341752105 ,18,1290673480939
31.304041 ,Left ,62,5819150620016 ,48,2121714115378 ,18,0862233957166
31.327106 ,Left ,62,5592049020827 ,48,2879319288923 ,18,0323610856428
31.3495959 ,Left ,62,5473858073442 ,48,3546489113443 ,17,9708974074185
31.3646315 ,Left ,62,5149525322596 ,48,4081879943454 ,17,9031504940936
31.3874291 ,Left ,62,4953455291536 ,48,4584950540633 ,17,8275558534726
31.4084581 ,Left ,62,4725355503626 ,48,4965264511566 ,17,7584981140187
31.4248501 ,Left ,62,4479046956947 ,48,5122110570207 ,17,6907902762488
31.4474783 ,Left ,62,4073064652778 ,48,5000048060155 ,17,6253984203769
31.4700007 ,Left ,62,3577402131882 ,48,4495100110722 ,17,5724197205566
31.4844699 ,Left ,62,3026011859796 ,48,3518926088295 ,17,529146157155
31.5077437 ,Left ,62,222198928109 ,48,2061681792014 ,17,4881427751469
31.528541 ,Left ,62,0842472097908 ,48,0202994821717 ,17,4510743220862
31.5443229 ,Left ,61,949764786135 ,47,8624218307589 ,17,4571209560451
31.5674887 ,Left ,61,9551129026025 ,47,8840543649868 ,17,4441329290296
31.5900133 ,Left ,61,9882791152953 ,48,0628225844274 ,17,4409552769079
31.6049939 ,Left ,62,1523708570334 ,48,1502866618216 ,17,4764483273756
31.6275991 ,Left ,62,3432221189677 ,48,1540819790744 ,17,5113194950204
31.6500431 ,Left ,62,3399640791029 ,48,1249278634694 ,17,5431459143483
31.6711408 ,Left ,62,2792747738353 ,48,116431518526 ,17,5951670301425
31.6876492 ,Left ,62,278962190332 ,48,1020018275144 ,17,6118115643513
31.7100279 ,Left ,62,3229594543026 ,48,095584691974 ,17,6129208306156
31.7250006 ,Left ,62,3739399336961 ,48,0545916471369 ,17,6270823665857
31.7475354 ,Left ,62,3919784329108 ,47,9898249458386 ,17,6483988347964
31.7699678 ,Left ,62,3295788078685 ,47,9097409164657 ,17,6553471641501
31.7912581 ,Left ,62,2386253808608 ,47,7931018218991 ,17,6649695380298
31.8074679 ,Left ,62,2529776240603 ,47,597102048442 ,17,6866331659163
31.8300081 ,Left ,62,2017582531647 ,47,3589882460391 ,17,7498238438937
31.8510632 ,Left ,62,3559884454825 ,47,2550791820037 ,17,803092389261
31.867525 ,Left ,62,2883669076002 ,47,4218271580943 ,17,7401155143733
31.8900339 ,Left ,62,2678511183158 ,47,6595637675631 ,17,7713381638284
31.9112247 ,Left ,62,4119116815177 ,47,7756551487896 ,17,8488779438959
31.9274529 ,Left ,62,5975979619333 ,47,8343856516881 ,17,9034646826459
31.9500673 ,Left ,62,5788881207376 ,47,8649670331812 ,17,9437178716361
31.9713236 ,Left ,62,5123735463798 ,47,9247483766044 ,17,999971609328
31.9874884 ,Left ,62,5076172223937 ,48,0086237435392 ,18,0334294682462
32.010523 ,Left ,62,5652923215611 ,48,0750433664191 ,18,0756847765609
32.0243778 ,Left ,62,5999630999514 ,48,1247623646958 ,18,1176416081135
32.0475406 ,Left ,62,5763237817805 ,48,1649636684995 ,18,1502579759839
32.0700001 ,Left ,62,542504326844 ,48,1863948132688 ,18,1797030430782
32.0912053 ,Left ,62,5413910402983 ,48,2003086168906 ,18,2056863830659
32.1073082 ,Left ,62,5518082429344 ,48,211501242675 ,18,2312321513714
32.1299248 ,Left ,62,5499161715017 ,48,2177032858092 ,18,2648436861018
32.151003 ,Left ,62,5353051827212 ,48,220476778606 ,18,2974897484641
32.1671431 ,Left ,62,5101896281064 ,48,2164713473887 ,18,3321786784534
32.1900408 ,Left ,62,5002258057235 ,48,203559212436 ,18,3703256577055
32.2110501 ,Left ,62,50063298316 ,48,180878770587 ,18,4150774066082
32.2274275 ,Left ,62,4914541708842 ,48,1378749453861 ,18,4750805027484
32.2499831 ,Left ,62,489763323582 ,48,0902834025255 ,18,5405769479895
32.2707749 ,Left ,62,4984115332903 ,48,0481621517319 ,18,610476553838
32.2873063 ,Left ,62,5098811930696 ,48,0107737816769 ,18,6827186921157
32.3099807 ,Left ,62,5242679079914 ,47,9799655732521 ,18,7460507807091
32.3311034 ,Left ,62,5354041054328 ,47,9541978176038 ,18,8028533420879
32.3473327 ,Left ,62,5553407114145 ,47,9409231110464 ,18,8519450389212
32.3700286 ,Left ,62,5760832147204 ,47,9306134085723 ,18,892291735804
32.390869 ,Left ,62,5901590423581 ,47,9256641113719 ,18,9265987532679
32.4073341 ,Left ,62,6013405652403 ,47,9264032000877 ,18,9630706144983
32.4300713 ,Left ,62,6165814969119 ,47,9250015587637 ,18,9971695730043
32.4510759 ,Left ,62,6278915561873 ,47,9113266921361 ,19,0325711403365
32.4674073 ,Left ,62,6260025250716 ,47,8973566025885 ,19,066280738998
32.4899322 ,Left ,62,6372622037886 ,47,8875020880701 ,19,0978088675187
32.5115092 ,Left ,62,6584698673428 ,47,8813274837383 ,19,1280567576534
32.5278696 ,Left ,62,6789304105383 ,47,879343148692 ,19,1562893536121
32.5504966 ,Left ,62,6888753474815 ,47,8666997400448 ,19,1795150253704
32.5728766 ,Left ,62,6863192733406 ,47,8549638350109 ,19,2037048342197
32.5878322 ,Left ,62,6811617053671 ,47,8517168036082 ,19,2238545845275
32.6104125 ,Left ,62,6760320351582 ,47,8501926997705 ,19,2406195221493
32.6328088 ,Left ,62,6731371011638 ,47,8539910752858 ,19,2539822134434
32.6474427 ,Left ,62,6755047223876 ,47,8588254764049 ,19,2618554868193
32.6700596 ,Left ,62,6657688385986 ,47,872460768701 ,19,2686004668335
32.6925131 ,Left ,62,6548438673052 ,47,8863604348935 ,19,2717124218091
32.7067839 ,Left ,62,6599276156266 ,47,9041490306404 ,19,2633098764251
32.7299281 ,Left ,62,6723600569272 ,47,9141533591181 ,19,2558230292333
32.7521519 ,Left ,62,6792878039713 ,47,9223367212854 ,19,2488798202405
32.7665707 ,Left ,62,6725580999584 ,47,9280808430292 ,19,235272357982
32.7900159 ,Left ,62,672304956501 ,47,9360793466973 ,19,224217489819
32.8123261 ,Left ,62,6725447769285 ,47,9264223350109 ,19,2058486788252
32.8267099 ,Left ,62,6642227385744 ,47,9104403922702 ,19,1819561008229
32.8497104 ,Left ,62,667074961046 ,47,8908383372567 ,19,1489071575187
32.8725519 ,Left ,62,6771056479208 ,47,8680522890657 ,19,1123878187306
32.8868861 ,Left ,62,67131600152 ,47,8288881065416 ,19,075147652257
32.9100528 ,Left ,62,6761761671191 ,47,7776911932336 ,19,0365768217201
32.9324311 ,Left ,62,6633560051559 ,47,7181991079807 ,18,9956214899777
32.9537611 ,Left ,62,6369123598009 ,47,6719114641138 ,18,9678094347103
32.9699198 ,Left ,62,5893595682241 ,47,6443933073931 ,18,9527860016971
32.9924073 ,Left ,62,4229705360034 ,47,5551880103705 ,18,9576283672372
33.0134633 ,Left ,62,4018387330092 ,47,5466059008666 ,18,9985089588866
33.0300885 ,Left ,62,3051056382459 ,47,7872699186475 ,18,9789442674811
33.0525198 ,Left ,62,393588764409 ,48,0261165154257 ,18,9995445498213
33.0735969 ,Left ,62,4987455596725 ,48,1146468498454 ,19,0188149165301
33.0900704 ,Left ,62,6536471785073 ,48,1613263479818 ,19,00568227864
33.1124128 ,Left ,62,6106300075191 ,48,1889119609105 ,18,9664604992832
33.1338296 ,Left ,62,5505955568404 ,48,2142283184241 ,18,9126716392523
33.1500613 ,Left ,62,527534045666 ,48,2467026649617 ,18,8192879339035
33.1725818 ,Left ,62,5660211094361 ,48,2737397730678 ,18,716203202147
33.1936957 ,Left ,62,6251982318271 ,48,2658570197703 ,18,6280701217508
33.2100639 ,Left ,62,6603484822164 ,48,183731289649 ,18,5532279163272
33.2325419 ,Left ,62,6698087756763 ,48,0554486102961 ,18,5143306504474
33.2534329 ,Left ,62,6848914156606 ,47,8992828615327 ,18,5029287454806
33.2700167 ,Left ,62,7216683582862 ,47,7711968701849 ,18,4999792437145
33.2926361 ,Left ,62,7356569338294 ,47,7038038467377 ,18,4918647475329
33.313439 ,Left ,62,7321498780055 ,47,6904539737058 ,18,477127111249
33.3292602 ,Left ,62,7470305943834 ,47,7059996102825 ,18,4752425335662
33.3367453 ,Left ,62,737116249045 ,47,7383479296666 ,18,4792111761416
33.3578142 ,Left ,62,7399377821763 ,47,7705751161435 ,18,4908085050958
33.3804662 ,Left ,62,7482258718448 ,47,7927872937128 ,18,5112554590346
33.3954949 ,Left ,62,7491654334208 ,47,8004145076061 ,18,5317455211969
33.4179068 ,Left ,62,7372574485345 ,47,8017620816114 ,18,5468812639123
33.4402291 ,Left ,62,715622581453 ,47,8065892020032 ,18,5727928411204
33.4553578 ,Left ,62,6823043504373 ,47,8265318334104 ,18,600745584839
33.4777185 ,Left ,62,6426364868661 ,47,8581966565241 ,18,6161955091326
33.5005093 ,Left ,62,606846808443 ,47,8794140952831 ,18,6079246273668
33.5153636 ,Left ,62,6134580841563 ,47,8578850573768 ,18,5682285566464
33.5377296 ,Left ,62,6253461891191 ,47,7887275632634 ,18,5066390879865
33.5603842 ,Left ,62,5940095962792 ,47,6844499823548 ,18,4390876208492
33.5755117 ,Left ,62,5511715983515 ,47,6033334392565 ,18,3652504323683
33.5977453 ,Left ,62,5127643167286 ,47,5860971964452 ,18,3190930082012
33.6202901 ,Left ,62,4278827853916 ,47,6147485402207 ,18,2392983174815
