timestamp,event,roll,pitch,yaw
0.0275807 ,Left ,53,6058374767362 ,50,7578330333604 ,13,8951278270979
0.0426318 ,Left ,53,5380786418412 ,50,6548433038865 ,13,7734336832785
0.0658071 ,Left ,53,4854437907062 ,50,5445536515263 ,13,6554063630244
0.0883676 ,Left ,53,4532997381042 ,50,4475218445263 ,13,5492040621882
0.1033891 ,Left ,53,4716644201719 ,50,3599530671723 ,13,444464355769
0.1256829 ,Left ,53,5432847895775 ,50,2847403922106 ,13,3471950528273
0.148361 ,Left ,53,6606677511246 ,50,2003956877835 ,13,2520558930877
0.1630848 ,Left ,53,8226913676321 ,50,1148662774205 ,13,1534503033611
0.185218 ,Left ,54,031520077752 ,50,0182449091494 ,13,0589099273399
0.2078397 ,Left ,54,2864574194604 ,49,9280769166029 ,12,9694997764125
0.2227753 ,Left ,54,6024527590398 ,49,8443959739677 ,12,886702971682
0.2453691 ,Left ,54,986189320987 ,49,7602658865755 ,12,8240788899503
0.2678733 ,Left ,55,4336655068733 ,49,6780068391918 ,12,8007729432565
0.290282 ,Left ,55,9416328604317 ,49,626286019778 ,12,8222322210579
0.3052569 ,Left ,56,5154904619211 ,49,6067302302629 ,12,881891052332
0.3276576 ,Left ,57,1171284766342 ,49,6226892087675 ,12,9725444169029
0.3500924 ,Left ,57,7790177003427 ,49,6622273726916 ,13,0903723693251
0.3650787 ,Left ,58,4876840251166 ,49,6989873655678 ,13,2031737113166
0.3878278 ,Left ,59,2049926144229 ,49,7058328622072 ,13,2985937301196
0.4101418 ,Left ,59,9126055538771 ,49,6647167978702 ,13,3761966383989
0.4250005 ,Left ,60,6300053831433 ,49,6006462742715 ,13,4050629914311
0.4476748 ,Left ,61,2512488246169 ,49,4888842877276 ,13,3755152375193
0.470302 ,Left ,61,5894544557334 ,49,3297705789926 ,13,2974048284175
0.4850258 ,Left ,61,681309262174 ,49,1422756717631 ,13,2021933823492
0.5078252 ,Left ,61,5665488139417 ,48,9500650306233 ,13,120739268595
0.5303076 ,Left ,61,3177699692734 ,48,8027224774495 ,13,0554962298446
0.5452925 ,Left ,60,9983808635937 ,48,701611386922 ,12,9816037937825
0.5679791 ,Left ,60,6928677308929 ,48,6187083407935 ,12,8833564496846
0.5904544 ,Left ,60,4527401233922 ,48,5491469076781 ,12,7773663693516
0.6053872 ,Left ,60,2684087695273 ,48,4853561121605 ,12,6716318298443
0.628005 ,Left ,60,1361684722606 ,48,4182397509498 ,12,5976547399443
0.6503589 ,Left ,60,0662838241843 ,48,3483860005308 ,12,5304527753958
0.6652644 ,Left ,60,0771327048172 ,48,3096755905371 ,12,4698164584563
0.687934 ,Left ,60,1462468135243 ,48,2892633236761 ,12,4309149193824
0.7104372 ,Left ,60,2751310490893 ,48,2843415278619 ,12,4201828815761
0.7253842 ,Left ,60,4270684912561 ,48,2819939977378 ,12,4306638152854
0.7476257 ,Left ,60,5883985759532 ,48,2744326725396 ,12,4620054064672
0.7701947 ,Left ,60,741874733172 ,48,2623327599551 ,12,4960465538902
0.7851022 ,Left ,60,8470742405453 ,48,2564769362118 ,12,5152315503959
0.8076384 ,Left ,60,9044440635007 ,48,2534534977343 ,12,5402803224159
0.8302314 ,Left ,60,906807601036 ,48,2638869805192 ,12,5688033958437
0.8453025 ,Left ,60,8637212591219 ,48,2775454909774 ,12,6060944284829
0.868032 ,Left ,60,7890053442141 ,48,2853399503327 ,12,6425837949667
0.8902291 ,Left ,60,716933493323 ,48,2872646168507 ,12,6557124072984
0.9053725 ,Left ,60,6396978294775 ,48,292852769999 ,12,6543096124837
0.928066 ,Left ,60,5720669087597 ,48,2871854217983 ,12,6462971423309
0.9504082 ,Left ,60,5178432385166 ,48,2822303984151 ,12,6393034981443
0.9650625 ,Left ,60,4735696909058 ,48,2811859148497 ,12,6353614631406
0.9876095 ,Left ,60,4546008919334 ,48,2848192114209 ,12,6292452369923
1.0101473 ,Left ,60,4490578567541 ,48,2885944671705 ,12,6254272472598
1.0250391 ,Left ,60,4644093045863 ,48,295523330198 ,12,6189006944004
1.0476031 ,Left ,60,4852005072055 ,48,3072348480253 ,12,6157113809804
1.0702729 ,Left ,60,5015642105143 ,48,3216763521154 ,12,6117053355096
1.0850522 ,Left ,60,5065916629352 ,48,3352279599369 ,12,6046180615723
1.1077482 ,Left ,60,4945254670674 ,48,3504066646144 ,12,6014518217636
1.1301865 ,Left ,60,4678418181547 ,48,3698668176131 ,12,5916853528228
1.1452611 ,Left ,60,4405776730688 ,48,378291120998 ,12,5765371924419
1.1679165 ,Left ,60,4088045180936 ,48,3759141769987 ,12,5599447348682
1.1907174 ,Left ,60,3773612141196 ,48,3679941052509 ,12,5459675554962
1.2056464 ,Left ,60,356864220623 ,48,3530006197864 ,12,5319327908172
1.2282869 ,Left ,60,3289435511272 ,48,3349765008136 ,12,5229068920563
1.2510253 ,Left ,60,3102509011038 ,48,318621578199 ,12,5177732760044
1.265403 ,Left ,60,3056721002047 ,48,3013972721455 ,12,5155230529923
1.2880059 ,Left ,60,3028194504792 ,48,2826737381145 ,12,5155843397538
1.3105327 ,Left ,60,3094879536713 ,48,2708567320635 ,12,5227740880261
1.3254021 ,Left ,60,2998678614587 ,48,2704597577874 ,12,5415566380463
1.3479582 ,Left ,60,2810345524122 ,48,2673118375653 ,12,5488485354783
1.370346 ,Left ,60,2607947845332 ,48,2683050083701 ,12,563730392826
1.3853732 ,Left ,60,2187475248901 ,48,2433285018892 ,12,6112545697204
1.4079305 ,Left ,60,2295166006112 ,48,1854194510706 ,12,6431426646484
1.430434 ,Left ,60,2655400119669 ,48,2040079266644 ,12,6333920844731
1.4529419 ,Left ,60,1930131127082 ,48,3236785320727 ,12,6084346308597
1.4679997 ,Left ,60,1118490667434 ,48,4147638291046 ,12,568376105759
1.4830785 ,Left ,60,0532400464115 ,48,4358893051483 ,12,5164860452962
1.5200602 ,Left ,60,0167999098114 ,48,4009472175633 ,12,3819165654433
1.5426365 ,Left ,59,970949587356 ,48,3922639492965 ,12,2969991389516
1.5802451 ,Left ,59,8887750117146 ,48,3746179935375 ,12,1348588879022
1.6026559 ,Left ,59,8390362017951 ,48,379966677228 ,12,0631648463073
1.640128 ,Left ,59,7123194184372 ,48,3117724959969 ,11,8689041215709
1.6627969 ,Left ,59,7907125494886 ,48,2638424858336 ,11,8909166070703
1.7076397 ,Left ,59,7648922009275 ,48,4154702691656 ,11,8984586452968
1.730088 ,Left ,59,7812813533901 ,48,3771769739957 ,11,9278150176187
1.760155 ,Left ,59,8752546578754 ,48,3285150861744 ,11,9842040071412
1.7829334 ,Left ,59,7853204064006 ,48,4171991750523 ,12,0188184488788
1.8204234 ,Left ,59,644966283139 ,48,4617273566487 ,12,0904539989132
1.8429783 ,Left ,59,5469556797093 ,48,3934001574566 ,12,1698335690662
1.8808461 ,Left ,59,4905044955884 ,48,571247686764 ,12,1711432572631
1.9033201 ,Left ,59,3750549300674 ,48,6792202377004 ,12,1526430073758
1.9407352 ,Left ,59,3657978026089 ,48,6198122000526 ,12,132057933253
1.9631527 ,Left ,59,3488631834289 ,48,61973280906 ,12,1132032101031
2.0004357 ,Left ,59,2672648057987 ,48,6139346738256 ,12,0866910759043
2.0230277 ,Left ,59,2233222045143 ,48,5905095693048 ,12,0866738717693
2.0607616 ,Left ,59,2649027890539 ,48,488895924646 ,12,1484292917608
2.0828331 ,Left ,59,2161167374917 ,48,4432598032871 ,12,1701737114189
2.1209763 ,Left ,59,1188051930218 ,48,3509927463886 ,12,1427112913777
2.1433179 ,Left ,59,114015758265 ,48,390523447904 ,12,1683216494687
2.180321 ,Left ,58,7920076281554 ,48,7992215616116 ,12,1752111151313
2.2029066 ,Left ,58,6950826463206 ,48,9522498603917 ,12,1815329711678
2.2400503 ,Left ,58,6379999263065 ,48,9352787301937 ,12,1185309976867
2.2627525 ,Left ,58,5755859618241 ,48,9370169582826 ,12,0357530019389
2.3004941 ,Left ,58,4236363974123 ,48,9586321597167 ,11,7800839077322
2.3228159 ,Left ,58,3713984088273 ,48,9542262319282 ,11,6471201296615
2.3603704 ,Left ,58,2921784866753 ,48,9680736911166 ,11,4005855168869
2.3827496 ,Left ,58,2915322865622 ,48,9613316957185 ,11,2942928052612
2.420205 ,Left ,58,4277430593987 ,48,9019740763387 ,11,1109631240823
2.4426198 ,Left ,58,4240846504092 ,48,8798745803878 ,11,0346630848329
2.4801076 ,Left ,58,348368050247 ,48,8690061475981 ,10,9530204298012
2.5031729 ,Left ,58,2838868699188 ,48,8191874223323 ,10,9868414657015
2.540862 ,Left ,58,2615320554337 ,48,7970932760132 ,11,073464456131
2.5629224 ,Left ,58,1363748214084 ,48,8751618920039 ,11,136980715156
2.6004098 ,Left ,58,0341261446886 ,48,7206471131772 ,11,3283326206969
2.6225792 ,Left ,58,1748010661789 ,48,5532456276832 ,11,3539907002538
2.6603161 ,Left ,58,3343263514515 ,48,4255238308652 ,11,2345499908104
2.6825405 ,Left ,58,2903546219003 ,48,4589145386027 ,11,2440062609898
2.7201575 ,Left ,58,3511491910544 ,48,3561518621782 ,11,2537235729427
2.7427612 ,Left ,58,4878964021817 ,48,2291775549743 ,11,312217522045
2.7801832 ,Left ,58,856203756765 ,48,2318927173415 ,11,4922948305458
2.8027444 ,Left ,58,930064568308 ,48,2065135396655 ,11,5862700137147
2.8407161 ,Left ,59,1570345024106 ,48,0546734847947 ,11,7278593421078
2.8633737 ,Left ,59,2756098954806 ,47,9799123773879 ,11,7913578976888
2.9002006 ,Left ,59,3582916774101 ,47,8257327531679 ,11,9953791182196
2.9226636 ,Left ,59,3830640905368 ,47,7628163145472 ,12,0830700958605
2.9602955 ,Left ,59,465821176541 ,47,6390838270646 ,12,2004954320919
2.9829133 ,Left ,59,540403583004 ,47,605190886733 ,12,2346743913697
3.0203804 ,Left ,59,6083187337418 ,47,6008772211944 ,12,3292839215535
3.0427875 ,Left ,59,6311261581308 ,47,581014984382 ,12,3660472703963
3.0801475 ,Left ,59,699446853811 ,47,5352443800831 ,12,3809527108691
3.1027884 ,Left ,59,7077305435067 ,47,5002127491317 ,12,3844914261356
3.140574 ,Left ,59,7414151555302 ,47,4564518023765 ,12,3605445987477
3.1629284 ,Left ,59,7397247028795 ,47,4635167969978 ,12,3681449134977
3.193008 ,Left ,59,7830286405623 ,47,4984331206598 ,12,377240414603
3.2227251 ,Left ,59,8055818178231 ,47,5056079896365 ,12,379863423767
3.2603153 ,Left ,59,804649994243 ,47,5514258134693 ,12,4068728217482
3.2826621 ,Left ,59,7792769354799 ,47,4323067942394 ,12,421930699211
3.3204028 ,Left ,59,7007800227834 ,47,4862585727935 ,12,4399540891651
3.3427517 ,Left ,59,761903539703 ,47,5812761426727 ,12,4306443295458
3.3801741 ,Left ,59,6014692324526 ,47,9024038305646 ,12,4418225725453
3.4028624 ,Left ,59,441239386767 ,47,7755328867652 ,12,4584854163939
3.4406457 ,Left ,59,4486609507609 ,47,6731522448252 ,12,4738466665526
3.4629209 ,Left ,59,4181838365333 ,47,7001774154029 ,12,4982246274811
3.5003754 ,Left ,59,3888336941066 ,47,6846685809618 ,12,563709106587
3.5375945 ,Left ,59,3682957008853 ,47,6868855822289 ,12,6240940834688
3.5603104 ,Left ,59,2159036496278 ,47,5531680350732 ,12,6485343638965
3.5977397 ,Left ,59,027870083136 ,47,4802333055258 ,12,6296853401086
3.6202211 ,Left ,58,9774954669508 ,47,6086730174727 ,12,58984302182
3.6427973 ,Left ,58,9025337058387 ,47,5894886786223 ,12,5673308863566
3.6804812 ,Left ,58,8838249256535 ,47,5157396724887 ,12,4477216521647
3.7182148 ,Left ,58,8329742611768 ,47,5246764244744 ,12,309813143078
3.740915 ,Left ,58,7790009566278 ,47,5424803670673 ,12,2149973292245
3.7631467 ,Left ,58,7291919191688 ,47,5654630639228 ,12,117803608066
3.8003274 ,Left ,58,7060331942699 ,47,4995727204213 ,12,0478529299004
3.8226339 ,Left ,58,7480295810718 ,47,5760227399964 ,12,0370652350374
3.8601641 ,Left ,58,7603917338042 ,47,6013233962418 ,12,0502215636024
3.8979996 ,Left ,58,7634452045414 ,47,63749003214 ,12,0546639282593
3.9206771 ,Left ,58,772069563606 ,47,6472712386521 ,12,0191043044565
3.9431124 ,Left ,58,6205386615357 ,47,6081611512493 ,11,9914521480096
3.9808556 ,Left ,58,6639189008041 ,47,8291377829867 ,11,9722025621551
4.0028422 ,Left ,58,6119990475425 ,47,9636252443666 ,11,9765318822357
4.0407349 ,Left ,58,5731155449042 ,47,9746354738942 ,11,9931691334135
4.0630792 ,Left ,58,5773377272204 ,47,9597418534691 ,11,9646198487459
4.0925909 ,Left ,58,5997895269669 ,47,8741188266283 ,11,9175481896897
4.1152233 ,Left ,58,5709554041057 ,47,8118388136223 ,11,9567371651389
4.1379566 ,Left ,58,5055293115556 ,47,7799508806985 ,11,9949106273584
4.1529992 ,Left ,58,5011683243311 ,47,8083554599649 ,11,999659275036
4.1754605 ,Left ,58,433232847789 ,47,9361318439633 ,11,97453634072
4.2050176 ,Left ,58,3554783864398 ,48,0958966523713 ,11,9490589249228
4.2276636 ,Left ,58,2917087109096 ,48,1992797670531 ,11,9425893308432
4.2428519 ,Left ,58,2622500938902 ,48,2513746084797 ,11,906916697732
4.2578824 ,Left ,58,2493763737346 ,48,3292365853551 ,11,8403099460368
4.2801067 ,Left ,58,1336241586265 ,48,4074132341788 ,11,7660894125383
4.2952515 ,Left ,58,0525851819573 ,48,4696412317813 ,11,673100070173
4.3178067 ,Left ,57,9638118586077 ,48,5118780540061 ,11,5674994536367
4.3402966 ,Left ,57,874638753934 ,48,5474085364076 ,11,4614057717434
4.3551435 ,Left ,57,7925918542681 ,48,5679184061177 ,11,3514781355156
4.3776354 ,Left ,57,7227763684799 ,48,586185163639 ,11,2292428155318
4.4001973 ,Left ,57,673595699965 ,48,5746964377592 ,11,0927019523725
4.4154649 ,Left ,57,6578855087829 ,48,54817549857 ,10,9884875837317
4.4379372 ,Left ,57,647491011549 ,48,5543720384286 ,10,8983873880561
4.4605172 ,Left ,57,6139043244828 ,48,5516815002447 ,10,8250393168416
4.4753909 ,Left ,57,5302104529459 ,48,4929372489504 ,10,7857004327417
4.4978834 ,Left ,57,61207467089 ,48,4880288758576 ,10,7960477024781
4.52072 ,Left ,57,5879508043147 ,48,600245499488 ,10,8295694615766
4.5433756 ,Left ,57,5569822035591 ,48,6302303332501 ,10,9046120753727
4.5584159 ,Left ,57,5787853740147 ,48,4972676756362 ,11,0032573226732
4.5808804 ,Left ,57,71422679704 ,48,2847787783408 ,11,0720205918575
4.5957798 ,Left ,57,8337738534533 ,48,0558543307356 ,11,0693301331766
4.618338 ,Left ,57,9433332171798 ,47,9820431827423 ,11,0804593184077
4.6403527 ,Left ,57,8387421515537 ,48,0383192598597 ,11,1584483865805
4.6553953 ,Left ,57,8153701356925 ,48,0452535706225 ,11,2281594010696
4.6780206 ,Left ,57,8540186297585 ,47,9439180509048 ,11,2721645594094
4.7006617 ,Left ,57,9480973934211 ,47,8392972200035 ,11,2659669153691
4.7230078 ,Left ,58,0278757171518 ,47,798666085695 ,11,2490015253788
4.7380084 ,Left ,58,0152727821053 ,47,8642821277372 ,11,2669153677684
4.7606082 ,Left ,58,0324339849185 ,47,913984835024 ,11,324551291829
4.7754827 ,Left ,58,0781772373441 ,47,8791860610637 ,11,4009372374462
4.7978392 ,Left ,58,2053614259629 ,47,8152891427367 ,11,4952817122663
4.8204669 ,Left ,58,2976040911678 ,47,7498943283234 ,11,5950639169804
4.8353987 ,Left ,58,3881610138101 ,47,6727762485427 ,11,7050017216489
4.8580864 ,Left ,58,4350648202396 ,47,5837989195728 ,11,8176214604013
4.8805411 ,Left ,58,5164993240419 ,47,478818495319 ,11,9136044773983
4.8953894 ,Left ,58,5931844381621 ,47,3615425239187 ,11,9965613069503
4.9180541 ,Left ,58,6682677141824 ,47,2461634021826 ,12,0655988953315
4.9401172 ,Left ,58,8026370932085 ,47,1442363699102 ,12,1073839059596
4.9626156 ,Left ,58,9139213577464 ,47,0581385059562 ,12,1288519681135
4.9851317 ,Left ,58,9803624178495 ,46,9978199272555 ,12,1613702063198
5.0228423 ,Left ,59,107618328516 ,47,0001756449746 ,12,2534937253372
5.0451914 ,Left ,59,1210802416726 ,46,9917956072557 ,12,3081119227612
5.067682 ,Left ,59,1595884319844 ,46,9567502356305 ,12,3374665927397
5.0827466 ,Left ,59,1891873710907 ,46,9378483725564 ,12,3817283677216
5.0979914 ,Left ,59,1784449910953 ,46,9698120241005 ,12,4441541502375
5.1204876 ,Left ,59,1834073088274 ,47,0122516085839 ,12,5064567071711
5.1350447 ,Left ,59,1789318393169 ,47,0488447865229 ,12,5394254411344
5.157857 ,Left ,59,1885542154318 ,47,0615247741209 ,12,5477747765166
5.1802647 ,Left ,59,1979242161582 ,47,0731154310234 ,12,5525999394237
5.2026349 ,Left ,59,2240254123923 ,47,1229919018701 ,12,5592218516639
5.217833 ,Left ,59,2722994588455 ,47,1645571095909 ,12,5735590747744
5.2402069 ,Left ,59,2226381278355 ,47,1721755182149 ,12,6035486141334
5.2628424 ,Left ,59,2266101780653 ,47,2019998590564 ,12,6263088296355
5.2777297 ,Left ,59,2302207635436 ,47,2486140074293 ,12,6456023661138
5.3003406 ,Left ,59,1892521472739 ,47,2992561386713 ,12,6720861462541
5.3227678 ,Left ,59,1536075611819 ,47,3327951394044 ,12,6781570032917
5.3377904 ,Left ,59,1839621167945 ,47,3268052940201 ,12,6623778184681
5.3601682 ,Left ,59,2537849847291 ,47,5107247972693 ,12,6270264491072
5.3829295 ,Left ,59,3336650637921 ,47,4808567666942 ,12,5920234927391
5.3977601 ,Left ,59,2323304106807 ,47,3102228610143 ,12,588576505944
5.4201855 ,Left ,59,208079033312 ,47,535810973953 ,12,5780936298989
5.4428752 ,Left ,59,2426556267735 ,47,3891413167757 ,12,5599626661014
5.4576793 ,Left ,59,1257343344607 ,47,4730476098441 ,12,5862819750295
5.480298 ,Left ,59,2126195170572 ,47,4621220461225 ,12,5979861020196
5.5025628 ,Left ,59,0891997890734 ,47,4588705536304 ,12,6459048775646
5.5178131 ,Left ,59,1933519750331 ,47,5391306635308 ,12,6684369587176
5.5404569 ,Left ,59,0704945038943 ,47,3121350270716 ,12,6926417657622
5.5629694 ,Left ,59,1973266549279 ,47,5114475855986 ,12,6539163856944
5.5780321 ,Left ,59,071166662842 ,47,4328578739475 ,12,6226197178928
5.6004419 ,Left ,59,0227784169658 ,47,7838197021116 ,12,5798788902288
5.6230851 ,Left ,59,0324365412317 ,47,8368067535591 ,12,5302707716065
5.6380559 ,Left ,59,0149301071827 ,47,7947004306253 ,12,4740369275653
5.6607462 ,Left ,58,9917493429872 ,47,7327941018061 ,12,412638822755
5.6829798 ,Left ,59,0060003332314 ,47,694252930991 ,12,329761605957
5.6978973 ,Left ,58,9559282743601 ,47,6561636229367 ,12,2364099403234
5.7205405 ,Left ,58,9079266413136 ,47,6313202511531 ,12,1591002633066
5.7427291 ,Left ,58,8629634241144 ,47,6196307712249 ,12,083894637228
5.7576093 ,Left ,58,8324256779932 ,47,6149076791871 ,12,0219113129158
5.780191 ,Left ,58,7187820151038 ,47,591741128968 ,11,9766627658614
5.8027947 ,Left ,58,7368145336918 ,47,5629334812397 ,11,9826317698895
5.8177355 ,Left ,58,7589945273053 ,47,6624924760257 ,11,9799117000767
5.8403762 ,Left ,58,7523223120993 ,47,7887857537156 ,11,992625210654
5.8628206 ,Left ,58,7419340423578 ,47,7896406470533 ,12,0042484940719
5.8778981 ,Left ,58,7545414460668 ,47,7302708713911 ,11,9972220372454
5.9004754 ,Left ,58,7216071268172 ,47,7030261824121 ,11,9827899762458
5.9227007 ,Left ,58,7165141294555 ,47,6828282162279 ,11,943661533608
5.9376277 ,Left ,58,690994335291 ,47,6221671349561 ,11,9219732989887
5.9600937 ,Left ,58,6299130548424 ,47,5464939383447 ,11,9196958595027
5.9828249 ,Left ,58,6885932771722 ,47,5194467701529 ,11,9429779180528
6.0053633 ,Left ,58,6918811833101 ,47,5930738878303 ,11,945235192414
6.0202322 ,Left ,58,6532508655831 ,47,6863142883735 ,11,9597641811037
6.0428118 ,Left ,58,6966477818826 ,47,7365487129376 ,11,97004578295
6.0580608 ,Left ,58,7310479440623 ,47,7123054311246 ,11,9605564583606
6.0803844 ,Left ,58,7248528105607 ,47,7349152576686 ,11,9875050469613
6.1031278 ,Left ,58,7029605595949 ,47,7924912030059 ,12,0402740722477
6.1180337 ,Left ,58,5913906574843 ,47,8348056289267 ,12,0739858340064
6.1402902 ,Left ,58,4814927800475 ,47,7993664633341 ,12,1282886064671
6.1626554 ,Left ,58,4601751065968 ,47,7305526307757 ,12,1579751909632
6.1851421 ,Left ,58,4513477973809 ,47,7030760297826 ,12,1389130036199
6.2003724 ,Left ,58,3429419504514 ,47,772812432719 ,12,0998273773498
6.2228057 ,Left ,58,2473129145133 ,47,8672595947966 ,12,0818669248688
6.2450722 ,Left ,58,205625157712 ,47,9619996175767 ,12,0889767690165
6.2602309 ,Left ,58,251732256123 ,48,0151968415865 ,12,0857525029756
6.2827184 ,Left ,58,2332683001952 ,48,0326836917762 ,12,0507591045473
6.3052171 ,Left ,58,1887848216493 ,48,083492673037 ,11,9901268328416
6.3205717 ,Left ,58,0929034968801 ,48,1730138973575 ,11,9026296068324
6.3427905 ,Left ,58,0178966176052 ,48,255785859908 ,11,7980372083101
6.365232 ,Left ,57,9712987337768 ,48,3321555753879 ,11,6743715364785
6.3878909 ,Left ,57,9132145606908 ,48,396989176877 ,11,5364764724168
6.4104227 ,Left ,57,8501021859502 ,48,4651265013405 ,11,3980666311566
6.4329811 ,Left ,57,7646020241068 ,48,5237006911284 ,11,2773203017116
6.4555593 ,Left ,57,6814035135234 ,48,5559791258419 ,11,1687278574547
6.4705896 ,Left ,57,6121759289565 ,48,5673434580062 ,11,0615241425625
6.4855985 ,Left ,57,5525162181998 ,48,5796059138095 ,10,9684570671994
6.5079734 ,Left ,57,5007518291447 ,48,5936745038267 ,10,8884221462461
6.5228637 ,Left ,57,4808118284272 ,48,6056750595882 ,10,8198625605451
6.545057 ,Left ,57,4287961895889 ,48,5900529074753 ,10,8224183322087
6.5600636 ,Left ,57,3993615593946 ,48,4909169563417 ,10,8981318322812
6.5828098 ,Left ,57,5525807202046 ,48,4573625238373 ,10,9658935155735
6.605213 ,Left ,57,5785241403367 ,48,5363281089782 ,11,0244218515029
6.6203836 ,Left ,57,536200607695 ,48,5533129029476 ,11,1025018729257
6.6429918 ,Left ,57,5301070405602 ,48,4177658202356 ,11,184278080592
6.6650859 ,Left ,57,683574948784 ,48,1935125304453 ,11,2434981538862
6.6879208 ,Left ,57,874464995471 ,47,9834746570795 ,11,2004553932106
6.7028064 ,Left ,57,9123663060974 ,47,8811656132013 ,11,1571212982437
6.7252929 ,Left ,57,8140777263012 ,47,8947490519891 ,11,1664196222394
6.747588 ,Left ,57,830528466519 ,47,8726848675108 ,11,1851906484816
6.7626328 ,Left ,57,8563968352869 ,47,7972345483418 ,11,2229491164567
6.7857114 ,Left ,57,9610040495051 ,47,704586777787 ,11,2810683966719
6.8081765 ,Left ,58,0968679387512 ,47,726652619487 ,11,3115017525788
6.8231706 ,Left ,58,136562197484 ,47,8147760829592 ,11,3667688689053
6.8457159 ,Left ,58,1543180136825 ,47,8319381679289 ,11,4026724321731
6.8682219 ,Left ,58,2438717625359 ,47,7883306461139 ,11,4398235460257
6.8830475 ,Left ,58,2898594608512 ,47,7258220448924 ,11,4824616681785
6.9056298 ,Left ,58,3644217917071 ,47,6555177223391 ,11,5635408603778
6.9284043 ,Left ,58,4303107689088 ,47,5312415284731 ,11,6558932434036
6.9433242 ,Left ,58,4720260167945 ,47,4122632537951 ,11,7382076063912
6.9656993 ,Left ,58,4916491884585 ,47,317200826803 ,11,819418733036
6.9882682 ,Left ,58,518077043715 ,47,2596896621362 ,11,916964805507
7.0032653 ,Left ,58,5728957040729 ,47,2237466492736 ,12,0304549849391
7.0257181 ,Left ,58,6376596516971 ,47,1911485167424 ,12,1318941794229
7.0476376 ,Left ,58,7297022385459 ,47,1728904219802 ,12,218171476946
7.0627055 ,Left ,58,8355891464561 ,47,1432906873475 ,12,2913349890529
7.0851387 ,Left ,58,8994333896361 ,47,1276956357121 ,12,3501971847247
7.1077532 ,Left ,58,9451023462145 ,47,121488586956 ,12,3954832957565
7.1226175 ,Left ,58,9622137063075 ,47,0979331332773 ,12,4658955863247
7.1451988 ,Left ,58,9617471202205 ,47,0801698234756 ,12,5417803804788
7.1678971 ,Left ,58,9535354700065 ,47,0776455538415 ,12,6010607645036
7.1826006 ,Left ,58,9686700944425 ,47,0506052617149 ,12,650600999722
7.2050992 ,Left ,58,9966675148911 ,47,0121807575203 ,12,6766691692385
7.2280901 ,Left ,59,0133475596952 ,46,9629913556822 ,12,6907914744385
7.2430967 ,Left ,59,0594291084397 ,46,9106062580016 ,12,7024118546881
7.2730389 ,Left ,59,1233462609063 ,46,8684670528926 ,12,7038529863524
7.3028544 ,Left ,59,1519293067202 ,46,9109011297726 ,12,7146913833662
7.3179758 ,Left ,59,1690399793888 ,46,9477544592822 ,12,7326333965952
7.3404027 ,Left ,59,136798488958 ,46,7697795073458 ,12,7525942945604
7.3555634 ,Left ,59,108046030692 ,46,5953382184498 ,12,7776609454224
7.3706556 ,Left ,59,1427833721733 ,46,8111704032567 ,12,7912871073605
7.3930228 ,Left ,59,0319789211108 ,46,9890740714825 ,12,8257760654044
7.4153981 ,Left ,58,8935642789214 ,46,9204674448719 ,12,8724919723449
7.4303472 ,Left ,58,8454889276773 ,46,7498614417969 ,12,8854643710936
7.4530189 ,Left ,58,923243237402 ,46,7221988684445 ,12,8629406100308
7.4753459 ,Left ,58,8593262841393 ,46,5752748499291 ,12,8675517656765
7.4905313 ,Left ,58,8566400587263 ,46,6747840150289 ,12,8607104971711
7.5127163 ,Left ,58,8632868368493 ,46,7133058466344 ,12,8393289972973
7.535114 ,Left ,58,8494541781714 ,46,7310203571435 ,12,8254370730908
7.5503156 ,Left ,58,8561147133078 ,46,7533163517573 ,12,8003461619938
7.5728058 ,Left ,58,8573385641953 ,46,7629319093758 ,12,7755875271468
7.5951575 ,Left ,58,844307100486 ,46,7871479141028 ,12,7664198419369
7.6101424 ,Left ,58,8196444101508 ,46,5458392192032 ,12,7717629848886
7.6324338 ,Left ,58,7273128705706 ,46,4148460496078 ,12,7866381718173
7.6556721 ,Left ,58,8153498589055 ,46,4404191723533 ,12,7677380932864
7.670944 ,Left ,58,8317470039096 ,46,4537675995895 ,12,7576985818826
7.693077 ,Left ,58,8057520178131 ,46,4607674080667 ,12,7579655117761
7.7153414 ,Left ,58,7786975819229 ,46,4996929587687 ,12,7628926507195
7.7305931 ,Left ,58,758339786979 ,46,5204773758156 ,12,7800826119931
7.7529754 ,Left ,58,7246578916344 ,46,5041883125481 ,12,7702065728656
7.7754787 ,Left ,58,7213565256015 ,46,4846587126522 ,12,7815283756958
7.7904749 ,Left ,58,6772688480549 ,46,581340389694 ,12,7793907423695
7.8129214 ,Left ,58,6721096694926 ,46,72488582086 ,12,7804054073699
7.8351848 ,Left ,58,7130296273829 ,46,7890312351582 ,12,753792207728
7.850302 ,Left ,58,7535307660009 ,46,7752586986713 ,12,6993594982209
7.8728082 ,Left ,58,7788480549535 ,46,7637523116887 ,12,6259374545055
7.8952803 ,Left ,58,7344233181176 ,46,7910127882818 ,12,5277678183906
7.9179314 ,Left ,58,6958390033688 ,46,8090250388651 ,12,4280513968751
7.9330426 ,Left ,58,6842589428745 ,46,8349391282671 ,12,3143290456847
7.955512 ,Left ,58,6262206537052 ,46,8486629662321 ,12,2266442349264
7.9781612 ,Left ,58,581413814145 ,46,8604790413618 ,12,1599033311797
7.9930486 ,Left ,58,4779801600142 ,46,8098035721371 ,12,1525138511832
8.0154874 ,Left ,58,5268273870582 ,46,7345487883834 ,12,175351997582
8.0380188 ,Left ,58,550233137968 ,46,7716936365832 ,12,1894733957976
8.0530286 ,Left ,58,5147315471454 ,46,8761486280486 ,12,2084653739697
8.0755004 ,Left ,58,4792956817381 ,46,8930622307358 ,12,2166638123192
8.0980376 ,Left ,58,5102858461745 ,46,8585657465164 ,12,2085121596196
8.1130239 ,Left ,58,5150722041687 ,46,859344758854 ,12,2061476567005
8.1355 ,Left ,58,4969659535359 ,46,8747557149565 ,12,2085223056857
8.1580081 ,Left ,58,3686561640674 ,46,8687717522285 ,12,1954951635967
8.1954263 ,Left ,58,4226853352411 ,46,955970832318 ,12,2508316283368
8.2182085 ,Left ,58,4666421199603 ,47,0747947161663 ,12,3031290857432
8.2555744 ,Left ,58,4673634961016 ,47,1600944097969 ,12,3337068426374
8.2781969 ,Left ,58,4227874948633 ,47,2210084339945 ,12,338237080224
8.3152883 ,Left ,58,3303625104072 ,47,2772345681452 ,12,3396771247591
8.3376952 ,Left ,58,2816643518978 ,47,2701425140434 ,12,3765521171784
8.3753792 ,Left ,58,1951033181086 ,47,277696899161 ,12,3877322305772
8.397914 ,Left ,58,1615347535427 ,47,3463878992443 ,12,3580737536161
8.4353727 ,Left ,58,0937131052596 ,47,6050878626453 ,12,3544076114812
8.4579194 ,Left ,58,1552570678235 ,47,6551456204517 ,12,3513428137021
8.4955338 ,Left ,58,2060973610253 ,47,6276827456722 ,12,2314308520801
8.5179973 ,Left ,58,1283664962422 ,47,5803108014292 ,12,1428918568557
8.5553655 ,Left ,58,0419152594302 ,47,5467499039303 ,12,0111281268553
8.57815 ,Left ,58,0266517418592 ,47,5851982366297 ,11,9590345591231
8.6153671 ,Left ,57,9897316504861 ,47,5918412873893 ,11,8444723034091
8.6378832 ,Left ,58,0128953693504 ,47,5950635784416 ,11,770272629185
8.6755164 ,Left ,58,0167295837295 ,47,5542404244325 ,11,6529273715208
8.6979861 ,Left ,57,9867888247569 ,47,5714610815903 ,11,5895026826649
8.7353858 ,Left ,57,8887295966298 ,47,641116171748 ,11,494978978207
8.7504755 ,Left ,57,8490086883989 ,47,6648122988897 ,11,4580370597335
8.7730068 ,Left ,57,8156876208967 ,47,7117752471219 ,11,4357041205573
8.7955639 ,Left ,57,7902970560122 ,47,7620904414175 ,11,4204200062805
8.818022 ,Left ,57,7607078365829 ,47,7997687295774 ,11,4099029591243
8.8328447 ,Left ,57,7291066415611 ,47,8338388052979 ,11,3848765695979
8.8553511 ,Left ,57,7074960480688 ,47,8716030155183 ,11,3464556637433
8.8779832 ,Left ,57,6754337277997 ,47,9124693036594 ,11,304719457493
8.9153367 ,Left ,57,6333240476841 ,47,9762793450011 ,11,2055764984898
8.9381013 ,Left ,57,6195928549873 ,47,9958886483336 ,11,1512504856077
8.9754475 ,Left ,57,5852560933075 ,48,0457937372304 ,11,0684209498022
8.9979766 ,Left ,57,571496031193 ,48,0980749801633 ,11,0661917049445
9.035385 ,Left ,57,511875709431 ,48,0839434562708 ,11,0276657417836
9.0580609 ,Left ,57,5038917080239 ,48,0151991122342 ,10,97803499091
9.0955264 ,Left ,57,6308226847138 ,47,9955799121876 ,11,0172732112326
9.1178905 ,Left ,57,6003445434533 ,47,9764103660095 ,11,0841642439512
9.15553 ,Left ,57,6724369837396 ,47,6728505609496 ,11,2128723563269
9.1781222 ,Left ,57,8041730047634 ,47,4653599806473 ,11,1962243390974
9.2156841 ,Left ,57,8006871808053 ,47,3979950688275 ,11,2521126659325
9.2383382 ,Left ,57,7882414101608 ,47,3855527587705 ,11,3300673817352
9.2758472 ,Left ,57,9260807565967 ,47,1857184361871 ,11,3935757507101
9.2978771 ,Left ,58,0651618427746 ,47,1506152129766 ,11,4076659649164
9.3354141 ,Left ,58,161481901028 ,47,2054699152886 ,11,5065295580638
9.3580181 ,Left ,58,2249323743692 ,47,1853086371783 ,11,5756267104749
9.3955187 ,Left ,58,2892109390393 ,47,171170498822 ,11,6941339831777
9.418042 ,Left ,58,2751273678193 ,47,2842940692965 ,11,7728242290895
9.4554641 ,Left ,58,4038512380326 ,47,0716235497601 ,11,9058058612578
9.4778343 ,Left ,58,4506400652404 ,47,2052850529437 ,11,9679186631224
9.5152923 ,Left ,58,5112773187514 ,47,0864739018033 ,12,0837304250433
9.5378697 ,Left ,58,6073768104707 ,46,9658149523336 ,12,1337731340995
9.575403 ,Left ,58,7288804029576 ,47,0312409177255 ,12,2148957817758
9.6126814 ,Left ,58,8064763027945 ,47,1123468698192 ,12,2306535211832
9.6352355 ,Left ,58,7493094356871 ,47,0002678732173 ,12,2854561706805
9.6501946 ,Left ,58,804885614796 ,47,1945367291998 ,12,3078608726832
9.6730465 ,Left ,58,8177758220047 ,47,3045614358594 ,12,3540453216094
9.6881335 ,Left ,58,8031347216166 ,47,2850193983275 ,12,4154774306589
9.7106752 ,Left ,58,823692405407 ,47,2866768765257 ,12,4778361231869
9.7328427 ,Left ,58,827532103084 ,47,2976029760594 ,12,5343457412554
9.7480173 ,Left ,58,8183783975167 ,47,2949201484531 ,12,5552438531581
9.7705402 ,Left ,58,8548956313995 ,47,2857656582522 ,12,5760015401158
9.7931851 ,Left ,58,8932556000026 ,47,2682557162582 ,12,5838317932018
9.8081493 ,Left ,58,9042372282678 ,47,2772042433853 ,12,6090941934121
9.8305628 ,Left ,58,9306810554863 ,47,2797350028009 ,12,6399328898932
9.8531087 ,Left ,58,9686767918973 ,47,2673157929569 ,12,6605404053224
9.8678783 ,Left ,58,9864810198733 ,47,2612090656431 ,12,6688371802562
9.8905009 ,Left ,58,998714570675 ,47,2640939853495 ,12,6704211676254
9.9130492 ,Left ,58,989670983785 ,47,2967958139224 ,12,6688460707454
9.9353833 ,Left ,58,9583969090863 ,47,3519975052856 ,12,6760846146374
9.9505254 ,Left ,58,9472984949364 ,47,3968985197805 ,12,6664292068285
9.9728999 ,Left ,58,9198204421665 ,47,4135019018005 ,12,6527376208291
9.9955651 ,Left ,58,9053306831021 ,47,4354395094965 ,12,6241357443005
10.0105499 ,Left ,58,8855181061301 ,47,4602532196782 ,12,600528770869
10.0326357 ,Left ,58,8320990977141 ,47,4711002086785 ,12,5911829824225
10.055154 ,Left ,58,8048933558598 ,47,4642144653195 ,12,5960082713741
10.0702841 ,Left ,58,7594893500508 ,47,4377226666804 ,12,611873228339
10.0927139 ,Left ,58,742848910012 ,47,4000109847705 ,12,6231331990219
10.1153955 ,Left ,58,7729753051074 ,47,3645867680721 ,12,6324481080773
10.1303282 ,Left ,58,7757584999225 ,47,3195169969249 ,12,6466767583223
10.1528522 ,Left ,58,8014976682534 ,47,2785978483304 ,12,6440016500136
10.1753017 ,Left ,58,7786763796399 ,47,2701478092498 ,12,6612412507544
10.1905008 ,Left ,58,7765665111184 ,47,2960441085432 ,12,6929357685917
10.2133306 ,Left ,58,7506641642624 ,47,2993498583106 ,12,6698718015585
10.2356173 ,Left ,58,7381921158845 ,47,2472801342441 ,12,6669936054528
10.2506444 ,Left ,58,7422653807408 ,47,272098711045 ,12,6783005110592
10.272999 ,Left ,58,7315809908977 ,47,3604958133081 ,12,7037440078616
10.2955605 ,Left ,58,7790134954058 ,47,3987535360026 ,12,715306797025
10.3105488 ,Left ,58,8333664642401 ,47,365566589783 ,12,689739695653
10.3330054 ,Left ,58,8817004488606 ,47,3308384151775 ,12,6292639148544
10.3554172 ,Left ,58,8138879336387 ,47,3293658541209 ,12,556534364381
10.3703634 ,Left ,58,7698406370447 ,47,3511127746945 ,12,4920033117984
10.3929645 ,Left ,58,7438793712954 ,47,3593585574648 ,12,4262622437846
10.4156814 ,Left ,58,7428316641307 ,47,3492145079086 ,12,3692963592196
10.4302706 ,Left ,58,7455025948066 ,47,342850160468 ,12,3237167047725
10.4526478 ,Left ,58,7307095717027 ,47,3428095153847 ,12,2821621015649
10.4752064 ,Left ,58,7058914398338 ,47,3388829735258 ,12,2381366625175
10.4903906 ,Left ,58,6938521931044 ,47,3737805862281 ,12,2053593830438
10.5128317 ,Left ,58,6885093337528 ,47,4345593895456 ,12,1975375824291
10.5353072 ,Left ,58,6119317244107 ,47,4401500471267 ,12,2065485057555
10.5504246 ,Left ,58,6300156848684 ,47,3728601142527 ,12,2037121003481
10.5800682 ,Left ,58,6786119447614 ,47,4204785548344 ,12,1935552283568
10.6027009 ,Left ,58,6615935607237 ,47,4971278236274 ,12,193077862275
10.6178471 ,Left ,58,6079638386515 ,47,4795140147801 ,12,1687964550226
10.6328388 ,Left ,58,5493615834474 ,47,4614614752564 ,12,1315762910625
10.6558353 ,Left ,58,5395299678891 ,47,4786232398461 ,12,0955744739445
10.6709433 ,Left ,58,4919987847641 ,47,4996572414226 ,12,0852429847558
10.6934173 ,Left ,58,3756920625479 ,47,4655380879952 ,12,0806059018117
10.7157878 ,Left ,58,4740179460846 ,47,44267262834 ,12,1266821294931
10.7303892 ,Left ,58,5330151510797 ,47,4723056900477 ,12,1749699486177
10.752996 ,Left ,58,5927984753696 ,47,5072448729222 ,12,1911478845033
10.7755255 ,Left ,58,6124146866622 ,47,5208132352803 ,12,162253222554
10.7905499 ,Left ,58,5442112435509 ,47,5233222544746 ,12,1347471445954
10.8129433 ,Left ,58,5099250448734 ,47,5694159901894 ,12,1506694287487
10.8355538 ,Left ,58,5017673243567 ,47,6091514206471 ,12,1735551498681
10.8578563 ,Left ,58,461322949398 ,47,6401637285677 ,12,18448443915
10.8730343 ,Left ,58,3549603486875 ,47,6032776685487 ,12,1826769674013
10.8955241 ,Left ,58,3514560015575 ,47,5175846556593 ,12,2146009306813
10.918024 ,Left ,58,358126557238 ,47,5136500113415 ,12,1889969317455
10.932842 ,Left ,58,2948640238029 ,47,6143714986358 ,12,1494585993074
10.9553087 ,Left ,58,2606530165686 ,47,7102672340766 ,12,1211160219869
10.9781102 ,Left ,58,2528734022885 ,47,7605228700095 ,12,1004464375699
10.993053 ,Left ,58,2602863208782 ,47,7677696359555 ,12,0505153348577
11.0154541 ,Left ,58,2439599308728 ,47,7919518202632 ,12,0051134849766
11.0378857 ,Left ,58,1696955622113 ,47,8306400195135 ,11,9622127397668
11.0529649 ,Left ,58,0987715562125 ,47,8667861294317 ,11,9067935265845
11.0755033 ,Left ,58,0430032928403 ,47,8856945552139 ,11,8356506503163
11.0979887 ,Left ,57,9760242649905 ,47,9214676046825 ,11,7823718668811
11.112752 ,Left ,57,934808657045 ,47,9667500654174 ,11,7330169320135
11.1353064 ,Left ,57,9141709206342 ,47,9895864796389 ,11,6950425228138
11.1578311 ,Left ,57,8798364804368 ,48,0113908203446 ,11,657737632442
11.1727701 ,Left ,57,8489876375718 ,48,0411008671258 ,11,6326946618936
11.1953244 ,Left ,57,8145363835375 ,48,0848543346896 ,11,6169153491545
11.2179393 ,Left ,57,7716596523261 ,48,1334713121358 ,11,6019632672899
11.2327397 ,Left ,57,7478156817802 ,48,182800309498 ,11,5809649810054
11.2554707 ,Left ,57,7458865160703 ,48,2165252837007 ,11,54570343562
11.2779552 ,Left ,57,7543833178344 ,48,2562253433046 ,11,4962756928125
11.2925907 ,Left ,57,7452345580204 ,48,2957629292817 ,11,4498465072853
11.3152731 ,Left ,57,7347077407227 ,48,3192931615851 ,11,4006488628422
11.3377244 ,Left ,57,734493996198 ,48,3288179469345 ,11,3566997706343
11.3532071 ,Left ,57,7298371807602 ,48,345407233752 ,11,3093283427451
11.3757649 ,Left ,57,7140387731623 ,48,365715230473 ,11,2630450340605
11.3984934 ,Left ,57,6844843654772 ,48,3770648079037 ,11,2306687359852
11.4134136 ,Left ,57,6552065715776 ,48,4013250199287 ,11,1970022403544
11.4358514 ,Left ,57,6359097292722 ,48,419281392566 ,11,1396686745051
11.4584714 ,Left ,57,5762944985556 ,48,4400272536092 ,11,1300549114652
11.4731543 ,Left ,57,5238560615274 ,48,432648624548 ,11,1691247888097
11.4954146 ,Left ,57,5355929754708 ,48,3613928217702 ,11,2383212130758
11.5178322 ,Left ,57,5867456131856 ,48,3819574868553 ,11,3128609923115
11.5404657 ,Left ,57,5468380030805 ,48,4819139038919 ,11,3966814053557
11.5554568 ,Left ,57,5263719369736 ,48,4646388882741 ,11,4696026374004
11.5779649 ,Left ,57,6079174487718 ,48,3068234226973 ,11,5122170031245
11.6004999 ,Left ,57,7489382890572 ,48,1000316108748 ,11,4901172330553
11.6154829 ,Left ,57,8748657449513 ,47,980953219085 ,11,4491799133146
11.6379369 ,Left ,57,8178835806847 ,47,9048454289677 ,11,4118977827296
11.660497 ,Left ,57,815440816842 ,47,7912458895143 ,11,394525057794
11.675144 ,Left ,57,8953233008021 ,47,6298588369245 ,11,3728629436176
11.697673 ,Left ,57,9643658849492 ,47,4906830907582 ,11,3553510574902
11.7202081 ,Left ,58,0348095207674 ,47,3890490082811 ,11,3988226266071
11.7352629 ,Left ,58,0844017794835 ,47,384934940173 ,11,4558303176496
11.7579995 ,Left ,58,1238631717362 ,47,4136486207005 ,11,5246673230164
11.7805365 ,Left ,58,1978921005477 ,47,4106112178546 ,11,5880364923141
11.7956857 ,Left ,58,3631952778409 ,47,3393630372705 ,11,6697548640185
11.8182792 ,Left ,58,561243430983 ,47,220356167568 ,11,7491724394479
11.8405425 ,Left ,58,7467260756674 ,47,1193767177403 ,11,7882917259914
11.8554386 ,Left ,58,8386390204197 ,47,0379401733806 ,11,8167368199542
11.8780727 ,Left ,58,9023128788949 ,46,9941699664447 ,11,8725830557051
11.9006604 ,Left ,58,934681207122 ,46,9891648632169 ,11,9335687707962
11.9153482 ,Left ,58,9994228413724 ,46,9801191282054 ,12,0107624024925
11.9378946 ,Left ,59,0243895733341 ,46,9555309426671 ,12,0746915617543
11.9605805 ,Left ,59,0441433099228 ,46,9636760082534 ,12,1302363857019
11.97554 ,Left ,59,037791596298 ,46,9967232898271 ,12,1904710014439
11.9976178 ,Left ,58,9768205662625 ,47,0520877388244 ,12,2662517375294
12.0202453 ,Left ,58,9614266882647 ,47,1166217718148 ,12,3350929138453
12.0350242 ,Left ,58,9638351948203 ,47,130484945044 ,12,3899250518946
12.0579463 ,Left ,58,9665574334634 ,47,1181296312122 ,12,4176440339463
12.0807941 ,Left ,58,9607780861124 ,47,1299269938814 ,12,4426688132724
12.09583 ,Left ,58,9806644585329 ,47,1432859872303 ,12,4890165374662
12.1183682 ,Left ,58,947610647548 ,47,152191896376 ,12,540435174343
12.1408246 ,Left ,58,9295980485579 ,47,1323482519029 ,12,5653243021939
12.1557288 ,Left ,58,9665200177408 ,47,0956457257145 ,12,5750206090032
12.1783978 ,Left ,58,9700312500151 ,47,0856288905513 ,12,5939568519461
12.2010202 ,Left ,59,0872656763158 ,47,1039688491262 ,12,6199847410147
12.2155878 ,Left ,59,0872781827472 ,47,0691005961693 ,12,63312633931
12.2382492 ,Left ,59,124134819145 ,47,0326700355173 ,12,6490035762843
12.2608928 ,Left ,59,1925361113126 ,47,0181952806007 ,12,6603890121533
12.2757886 ,Left ,59,22507207003 ,47,0418500594171 ,12,6906363953291
12.2981423 ,Left ,59,2269543838108 ,47,0705354695701 ,12,7256469354367
12.3206547 ,Left ,59,2299278807661 ,47,0885204901879 ,12,7403520457523
12.3354731 ,Left ,59,234115033567 ,47,0934725720436 ,12,7395815619635
12.3581392 ,Left ,59,2215512232753 ,47,1114751063423 ,12,7481609352539
12.3804771 ,Left ,59,1948421983387 ,47,1335184784518 ,12,7501927407758
12.3955292 ,Left ,59,1683017048421 ,47,1622195158485 ,12,7451338760126
12.4181495 ,Left ,59,1271531735079 ,47,1948503702381 ,12,7353267336457
12.447651 ,Left ,59,1110680911674 ,47,2171974792768 ,12,7150829812555
12.4627471 ,Left ,59,1185945334977 ,47,2374557443478 ,12,7033501494414
12.485277 ,Left ,59,1657761291877 ,47,2506706930519 ,12,6856122499071
12.5001581 ,Left ,59,1860348601315 ,47,2475438769849 ,12,6682023808444
12.5150623 ,Left ,59,2182881562819 ,47,2287869831676 ,12,6553371686041
12.5376816 ,Left ,59,2512333707701 ,47,2102703018037 ,12,6608797804185
12.5601587 ,Left ,59,2632291925312 ,47,2120636520074 ,12,658875755156
12.5751962 ,Left ,59,289503306388 ,47,2157681340306 ,12,6654238699661
12.5977199 ,Left ,59,2672611475081 ,47,2270533239904 ,12,6676517951131
12.6203196 ,Left ,59,2649305923 ,47,2507267860168 ,12,6592086280945
12.6352419 ,Left ,59,2549246186738 ,47,2596885789023 ,12,6518766017581
12.6575808 ,Left ,59,2454376139127 ,47,2656007992584 ,12,6405309152737
12.6801964 ,Left ,59,2429227774074 ,47,2774113420428 ,12,6280391952657
12.6953329 ,Left ,59,2348465714595 ,47,2802395579592 ,12,6166924953818
12.7175622 ,Left ,59,221444258648 ,47,2853512573226 ,12,6117003560586
12.7404171 ,Left ,59,2046834477795 ,47,2835165121745 ,12,6069778516398
12.7629 ,Left ,59,2019177261329 ,47,2832996806243 ,12,5983019994352
12.777968 ,Left ,59,1946958341647 ,47,2770408264518 ,12,5868686018121
12.8003668 ,Left ,59,1806592897048 ,47,2702072599564 ,12,5797716412869
12.830174 ,Left ,59,1598860684424 ,47,2687292847242 ,12,5790035946636
12.8452688 ,Left ,59,1401782402815 ,47,2694721865737 ,12,5833623482933
12.8829733 ,Left ,59,1028190214566 ,47,2314030010348 ,12,5832219898381
12.8980138 ,Left ,59,0956773405857 ,47,2129134697871 ,12,5894462126974
12.9204023 ,Left ,59,0738225153796 ,47,2375640941036 ,12,6294503341444
12.9430131 ,Left ,59,0235509938265 ,47,25240137384 ,12,6861761739918
12.9579064 ,Left ,58,9917046444087 ,47,1920331019236 ,12,7207180175006
12.9805271 ,Left ,58,9750482608184 ,47,2044457610631 ,12,738838260372
13.0035074 ,Left ,58,9177755422055 ,47,3105385106534 ,12,7381958069627
13.0181862 ,Left ,58,9309255767715 ,47,3780411849404 ,12,7203025562824
13.0409136 ,Left ,58,9459108058826 ,47,3826778251159 ,12,6652897621074
13.0709699 ,Left ,58,9455433690853 ,47,3608640749709 ,12,4755903302634
13.0933811 ,Left ,58,8900047888277 ,47,3731001807382 ,12,3888927161056
13.1158186 ,Left ,58,858627208321 ,47,3814017587207 ,12,2964310603975
13.1304807 ,Left ,58,8308117189667 ,47,3862413694055 ,12,2018429791492
13.1528615 ,Left ,58,8121621970121 ,47,3901202861776 ,12,1250701348791
13.1754155 ,Left ,58,7332912042361 ,47,3752704890382 ,12,1053963917937
13.1906203 ,Left ,58,6508224523258 ,47,3000754303926 ,12,1384845935019
13.2128498 ,Left ,58,7577512444239 ,47,255178363034 ,12,165886017673
13.2506612 ,Left ,58,773317566128 ,47,374932456001 ,12,1219025340155
13.2730886 ,Left ,58,7664633876034 ,47,3527422693751 ,12,1055526952685
13.3105304 ,Left ,58,74832198394 ,47,3757301735842 ,12,0761275848187
13.3329701 ,Left ,58,739729293059 ,47,3997195484707 ,12,0730369377246
13.3704738 ,Left ,58,6580830119053 ,47,4280065357922 ,12,0782087842535
13.3929987 ,Left ,58,6754204430966 ,47,4888108383659 ,12,0950650168229
13.430655 ,Left ,58,690135205022 ,47,523257078136 ,12,0829006299311
13.4530243 ,Left ,58,5957177166021 ,47,5228176468849 ,12,0857597391361
13.4904563 ,Left ,58,4821636602117 ,47,598278813479 ,12,1724617176099
13.5128811 ,Left ,58,4722053066755 ,47,6291670922381 ,12,2265503912132
13.5502812 ,Left ,58,3371672626535 ,47,7189039414374 ,12,3277516254145
13.5727945 ,Left ,58,2864809853835 ,47,7234747663943 ,12,3259245633057
13.6104481 ,Left ,58,2340702553167 ,47,8503158398638 ,12,2926713412724
13.6330067 ,Left ,58,1730987798186 ,47,9536276055452 ,12,2781501093716
13.6706091 ,Left ,58,1441949920223 ,48,004533192092 ,12,2102933824014
13.6930471 ,Left ,58,11860678432 ,48,0246857635202 ,12,1468380404617
13.7304931 ,Left ,57,9760207198179 ,48,1648598146058 ,11,9323849690746
13.7529079 ,Left ,57,9607738035433 ,48,227695027757 ,11,781403194844
13.7903637 ,Left ,57,8731254101875 ,48,3456419843827 ,11,4917455713864
13.8126695 ,Left ,57,8134684575981 ,48,3753482155668 ,11,3563927029771
13.8503796 ,Left ,57,684378842218 ,48,3969801189162 ,11,1072126150868
13.8727863 ,Left ,57,6612692892507 ,48,4093667523238 ,11,0038840766499
13.9103474 ,Left ,57,4942473982903 ,48,4168712230192 ,10,9274096710955
13.932936 ,Left ,57,4972226814101 ,48,3402994998461 ,10,9736418910842
13.9706069 ,Left ,57,5092763290879 ,48,4076941313572 ,11,1307799832603
13.9931585 ,Left ,57,5110041617588 ,48,3488094730846 ,11,2251765026633
14.0304807 ,Left ,57,7939951544326 ,47,9880754659671 ,11,2735828082455
14.053099 ,Left ,57,9193032714568 ,47,818109494256 ,11,1985705809478
14.0904572 ,Left ,57,8938550227825 ,47,7416360368687 ,11,1723313057137
14.1127545 ,Left ,57,9368024757366 ,47,7212298718726 ,11,1941708481447
14.1505397 ,Left ,58,105178269621 ,47,4749699945886 ,11,315527262413
14.1730193 ,Left ,58,2749921963774 ,47,4015538398985 ,11,3623785904528
14.2106404 ,Left ,58,3768158962265 ,47,4067327641812 ,11,4690795751945
14.2328435 ,Left ,58,4218313091643 ,47,396410933632 ,11,5158392875794
14.2703871 ,Left ,58,5568382460299 ,47,3399515689982 ,11,644695833998
14.2934446 ,Left ,58,5624951673833 ,47,3139108668943 ,11,7439437487423
14.3307965 ,Left ,58,5882847515934 ,47,2293877782005 ,11,9427189205176
14.3533649 ,Left ,58,6111710975168 ,47,1804840214446 ,12,0215558192742
14.3902048 ,Left ,58,6400855378899 ,47,1205606196853 ,12,1539059906674
14.4127333 ,Left ,58,6556707519304 ,47,1064174755012 ,12,2202876434302
14.4505241 ,Left ,58,7872613614811 ,46,9956457123973 ,12,2759113521653
14.4727538 ,Left ,58,837649695778 ,46,9485554417675 ,12,2748005942936
14.5103375 ,Left ,58,8825062121879 ,46,973704327659 ,12,3516746288889
14.5327229 ,Left ,58,8773610154533 ,46,9931969062947 ,12,3930558481174
14.5703701 ,Left ,58,8927658156808 ,46,9771924159844 ,12,4552602505871
14.5928929 ,Left ,58,9369459554362 ,46,9865525087443 ,12,4812479211938
14.6304804 ,Left ,58,9948587538515 ,46,9782855680191 ,12,5153259193089
14.6529722 ,Left ,58,9754804968483 ,46,9745991258171 ,12,5339349045537
14.6905857 ,Left ,58,9676845740415 ,46,9961271592002 ,12,5776958783595
14.7129173 ,Left ,58,954356814344 ,47,0056728256029 ,12,6066636478753
14.7504359 ,Left ,58,94574765795 ,47,0480292031249 ,12,6699964939762
14.7731038 ,Left ,58,9281901277906 ,47,0575011906699 ,12,6980996281725
14.8104809 ,Left ,58,9164277716977 ,47,102814984223 ,12,7427266767797
14.8329911 ,Left ,58,9009234630376 ,47,1073936996149 ,12,756537098043
14.8704057 ,Left ,58,898385024 ,47,1447520500411 ,12,7659815164228
14.8928004 ,Left ,58,8989641109495 ,47,168057540933 ,12,7671502689111
14.9228921 ,Left ,58,8929989916581 ,47,1591347998654 ,12,7624390881924
14.9454199 ,Left ,58,9071000011112 ,47,1390948285803 ,12,757726075951
14.9680611 ,Left ,58,9177633238684 ,47,1158275673617 ,12,7541658918084
14.9830562 ,Left ,58,9009848380453 ,47,108046679739 ,12,7474936742928
15.005328 ,Left ,58,8991278076235 ,47,1148628909229 ,12,7423859912421
15.0279145 ,Left ,58,888719676522 ,47,1292789994619 ,12,7183985183854
15.0430031 ,Left ,58,8574540738681 ,47,1247717131368 ,12,7081497587594
15.0654019 ,Left ,58,7988341073338 ,47,078126533644 ,12,7176496886198
15.0879955 ,Left ,58,858359577474 ,47,0646446877869 ,12,7317792605532
15.103078 ,Left ,58,8363388020825 ,47,1491299667841 ,12,7155840134034
15.1254135 ,Left ,58,8116341845886 ,47,2505279326896 ,12,6914860113041
15.1480167 ,Left ,58,8274651011983 ,47,276529274221 ,12,6489050968274
15.162936 ,Left ,58,8469149887949 ,47,2531387508847 ,12,5792897898286
15.1853278 ,Left ,58,8139862814107 ,47,2379374182162 ,12,5013033679994
15.2079071 ,Left ,58,803834216842 ,47,2365279039758 ,12,4030129631728
15.2226673 ,Left ,58,7704746032695 ,47,2263486053318 ,12,3019627142053
15.245202 ,Left ,58,7545713897555 ,47,2149237620514 ,12,2233451880383
15.2680105 ,Left ,58,7121688752893 ,47,2351263136977 ,12,1535453651414
15.2827932 ,Left ,58,6875191318821 ,47,2494583062041 ,12,0921183224959
15.3052226 ,Left ,58,6149799458595 ,47,2250557038158 ,12,0253578870658
15.3279393 ,Left ,58,6001483635622 ,47,1568462254011 ,12,0148221832787
15.3427587 ,Left ,58,6956165741266 ,47,1646638607589 ,12,0065760415072
15.3651476 ,Left ,58,7223726878299 ,47,219759406484 ,11,9953451387075
15.3879457 ,Left ,58,7276377269193 ,47,2092589675298 ,12,0078824737372
15.4029925 ,Left ,58,7418934953698 ,47,1406392991658 ,12,0217734477013
15.4252909 ,Left ,58,7718078940534 ,47,154974642323 ,12,0323867234811
15.4479128 ,Left ,58,7025798489382 ,47,2043623011312 ,12,0501165898038
15.4628079 ,Left ,58,5725595573884 ,47,2270547688206 ,12,062434896432
15.4851459 ,Left ,58,5384129204857 ,47,1746876554295 ,12,0961709621099
15.507623 ,Left ,58,6063963507144 ,47,1614195797376 ,12,1166216168773
15.5227433 ,Left ,58,6286472345509 ,47,2086002333195 ,12,1300379273136
15.5452084 ,Left ,58,6214274755852 ,47,2398676997037 ,12,1426107858599
15.5678945 ,Left ,58,6277773417881 ,47,2398723947378 ,12,1414305365554
15.5826243 ,Left ,58,5787575764449 ,47,2494445837031 ,12,1419632728705
15.6058236 ,Left ,58,5179147756189 ,47,3139453897615 ,12,163421145463
15.6283802 ,Left ,58,4806003701967 ,47,3791931236253 ,12,1982074561521
15.6509736 ,Left ,58,3915190587138 ,47,4083074771545 ,12,2415546354689
15.6656911 ,Left ,58,3213388349985 ,47,3621645814873 ,12,3285957619552
15.687853 ,Left ,58,299661781318 ,47,3161969267765 ,12,3620904620185
15.7102924 ,Left ,58,3120195252983 ,47,327650924009 ,12,3278871025352
15.7253518 ,Left ,58,2134913939795 ,47,4226618553344 ,12,280188956024
15.7476357 ,Left ,58,1293744127255 ,47,5301766992796 ,12,2478602632929
15.7702032 ,Left ,58,1077360869424 ,47,5946743514953 ,12,2199323637086
15.7852446 ,Left ,58,083047309912 ,47,6253468871779 ,12,1720683947673
15.8079065 ,Left ,58,05809815743 ,47,6684862983877 ,12,1032057866414
15.8303342 ,Left ,57,9744728111027 ,47,7427360038489 ,12,0091107869419
15.8452644 ,Left ,57,891783539841 ,47,8268235274458 ,11,8908275049862
15.8678925 ,Left ,57,8266901336988 ,47,9014820580397 ,11,7459556974165
15.8903334 ,Left ,57,7847261615369 ,47,9769764086539 ,11,5938946531662
15.905175 ,Left ,57,7228118540345 ,48,043539622881 ,11,4528895037298
15.9279978 ,Left ,57,639351379678 ,48,1031540628711 ,11,3349568987215
15.9507134 ,Left ,57,5625893317672 ,48,1387747103091 ,11,2228903465849
15.9655425 ,Left ,57,4765952152824 ,48,1577058827545 ,11,1370760927437
15.9878349 ,Left ,57,4094986580477 ,48,1963424731381 ,11,0761848770847
16.0101064 ,Left ,57,3627434243137 ,48,2328341111043 ,11,0096295909323
16.0251406 ,Left ,57,2838310792391 ,48,2376459800443 ,10,9650031667403
16.0553498 ,Left ,57,2429721750621 ,48,1792906968684 ,10,9038809300197
16.0779427 ,Left ,57,2852558051 ,48,0730146920665 ,10,9034680698449
16.092618 ,Left ,57,3373882196579 ,48,0590452132371 ,10,9654776709698
16.1152042 ,Left ,57,366484177638 ,48,0452963443492 ,11,0516340721923
16.130113 ,Left ,57,4233435867344 ,47,9267747758386 ,11,1406941834376
16.1450525 ,Left ,57,5620705329179 ,47,7441338554047 ,11,1906249498696
16.1679253 ,Left ,57,6939291712651 ,47,5513763746949 ,11,1843024156058
16.1906782 ,Left ,57,779385343785 ,47,3823733545241 ,11,1929666545303
16.2056813 ,Left ,57,7727459295918 ,47,3304990210048 ,11,2584873736115
16.2284254 ,Left ,57,7386257318265 ,47,3552244534642 ,11,3249185733651
16.2510116 ,Left ,57,8460682751599 ,47,3038950872286 ,11,3355229944672
16.2733495 ,Left ,57,9107384960396 ,47,1803240436856 ,11,3518243054415
16.2884946 ,Left ,57,9816506841425 ,47,0433113335477 ,11,4132562812055
16.3105208 ,Left ,58,0875159190513 ,47,0350843847179 ,11,4661858409757
16.3331094 ,Left ,58,1169630974416 ,47,1532373795118 ,11,5263288502932
16.3481151 ,Left ,58,1288043439627 ,47,2201153443612 ,11,573080302061
16.3705997 ,Left ,58,1680031404603 ,47,2484871332278 ,11,612190745654
16.3930772 ,Left ,58,1840959950259 ,47,2617403213446 ,11,662478028877
16.408197 ,Left ,58,205258760204 ,47,2747285299977 ,11,742448479342
16.4305802 ,Left ,58,2311020266951 ,47,2631786921263 ,11,8402367707685
16.4455324 ,Left ,58,2917672767102 ,47,2213128314071 ,11,9402521216501
16.4675368 ,Left ,58,3448341890092 ,47,1671529578305 ,12,0195495210374
16.4904859 ,Left ,58,4201894473151 ,47,090329710471 ,12,0838066494939
16.5127272 ,Left ,58,49226226196 ,46,9875198513167 ,12,1370720223725
16.5276592 ,Left ,58,5553165233255 ,46,9017581546044 ,12,1738197244501
16.5503 ,Left ,58,6112442244877 ,46,8619014668371 ,12,2186652052977
16.5728706 ,Left ,58,6675181659183 ,46,8512238878109 ,12,2724799489298
16.5878692 ,Left ,58,7022561329927 ,46,8584928270886 ,12,317937843801
16.6102633 ,Left ,58,7501819504436 ,46,8678865490747 ,12,3400391540198
16.6328635 ,Left ,58,7872917077133 ,46,8531279263242 ,12,362550628715
16.6478529 ,Left ,58,8282532250085 ,46,821707126349 ,12,36522381395
16.6703458 ,Left ,58,855730013222 ,46,7999584400646 ,12,3752060283692
16.6928267 ,Left ,58,8269155324181 ,46,8109365093603 ,12,4144255485352
16.707748 ,Left ,58,8394119791034 ,46,8461740461547 ,12,4769170855571
16.7302198 ,Left ,58,8213561516755 ,46,8760272433047 ,12,5363287753328
16.7530299 ,Left ,58,8162717546622 ,46,8656910916442 ,12,5814939832118
16.768021 ,Left ,58,8420812750724 ,46,8558004450746 ,12,6172604235383
16.7903779 ,Left ,58,9029901951736 ,46,8787859200678 ,12,6516568587458
16.8127847 ,Left ,58,9008396108884 ,46,9104449240166 ,12,7054977772713
16.8279144 ,Left ,58,8750549104481 ,46,9483002057009 ,12,7582785066635
16.8501797 ,Left ,58,8888918657649 ,47,0024160139921 ,12,79418521216
16.872813 ,Left ,58,8848379376164 ,47,0236886239062 ,12,8217692237459
16.8951437 ,Left ,58,8739813067171 ,47,0391741888435 ,12,8426630924598
16.9176932 ,Left ,58,8659195205284 ,47,05738176138 ,12,8517269272073
16.9476821 ,Left ,58,8253534113886 ,47,0737993067778 ,12,8439377214483
16.9704924 ,Left ,58,808907145205 ,47,0780140077686 ,12,8333393463511
16.9931972 ,Left ,58,8048504388602 ,47,0743332567646 ,12,8160658161537
17.0081802 ,Left ,58,8022476440421 ,47,0626645980672 ,12,808233585833
17.0305308 ,Left ,58,7883042821009 ,47,0725677234132 ,12,8035040817249
17.0526507 ,Left ,58,7937505703081 ,47,0858007395237 ,12,8019058333074
17.0679134 ,Left ,58,782444735739 ,47,0827476858153 ,12,7806392036336
17.0901564 ,Left ,58,7627567739277 ,47,0771049910725 ,12,7842085632405
17.1127579 ,Left ,58,725342233687 ,47,0882221454702 ,12,8092812138816
17.1278563 ,Left ,58,6958477502269 ,47,0740291939435 ,12,8336871808705
17.1503719 ,Left ,58,7068488771373 ,47,1544239564967 ,12,8457913605551
17.1728697 ,Left ,58,6750194755207 ,47,3290947675956 ,12,8348224196145
17.1876107 ,Left ,58,6750258067843 ,47,4247771025586 ,12,8001814609551
17.2104461 ,Left ,58,66402937737 ,47,4191576889285 ,12,7502019553817
17.2328519 ,Left ,58,6524359558076 ,47,3919441835678 ,12,6720978958535
17.2554413 ,Left ,58,6202615897406 ,47,3701420434995 ,12,5705493198379
17.2703936 ,Left ,58,5882228551709 ,47,3366947562131 ,12,4637303152738
17.2928595 ,Left ,58,5763447100541 ,47,3018486128068 ,12,3755425692267
17.3154326 ,Left ,58,5292247532918 ,47,3048931046309 ,12,3044402089925
17.3303601 ,Left ,58,5143682953629 ,47,293021464737 ,12,2359389667065
17.3529003 ,Left ,58,4425927268025 ,47,2477464684485 ,12,1874282859731
17.3753194 ,Left ,58,4484181404839 ,47,1697928254464 ,12,2085144866653
17.3904779 ,Left ,58,5214579293089 ,47,1983650258339 ,12,2255375791659
17.4128816 ,Left ,58,5592102461687 ,47,256143085523 ,12,2389310841059
17.427716 ,Left ,58,5397570797624 ,47,2512502785688 ,12,2319885909132
17.4505527 ,Left ,58,5164351660011 ,47,2267192063978 ,12,2107620849362
17.4729485 ,Left ,58,5374124371926 ,47,2604777716024 ,12,1847027323214
17.4952604 ,Left ,58,4885689850575 ,47,2987326784594 ,12,1751930235597
17.5104541 ,Left ,58,3729210430985 ,47,2840618376631 ,12,1784523027267
17.532864 ,Left ,58,333464535409 ,47,2252087386631 ,12,2146441501322
17.5553088 ,Left ,58,4130465409354 ,47,2133072468779 ,12,234989926382
17.5702752 ,Left ,58,3833333129792 ,47,3070403215681 ,12,2603701785844
17.5928563 ,Left ,58,3934307412073 ,47,3868213178032 ,12,2961728807543
17.6153787 ,Left ,58,4305909076938 ,47,4016706526654 ,12,3086608077322
17.6302846 ,Left ,58,4058582874354 ,47,3667905713126 ,12,3091682768936
17.6527587 ,Left ,58,3734881294647 ,47,3833045530904 ,12,3435355582649
17.6753875 ,Left ,58,3097204240742 ,47,435933146885 ,12,3961094927569
17.690299 ,Left ,58,2300086939127 ,47,457002026048 ,12,4538972893306
17.7127666 ,Left ,58,1708287452402 ,47,4544342893426 ,12,4979265266972
17.7353246 ,Left ,58,1037599016803 ,47,4184058699521 ,12,5062104798239
17.7504714 ,Left ,58,1046286835428 ,47,3551798459044 ,12,4922620844131
17.7727766 ,Left ,58,036680873311 ,47,407871982172 ,12,4561617139697
17.7950979 ,Left ,57,9350083049201 ,47,5312673329196 ,12,4110304511616
17.810654 ,Left ,57,869990706152 ,47,6184896215213 ,12,3755531623327
17.8333657 ,Left ,57,8448093944012 ,47,6636006702636 ,12,337875554691
17.855873 ,Left ,57,8648401915737 ,47,7132480140894 ,12,2839976222132
17.8707197 ,Left ,57,8085808303814 ,47,7651236043018 ,12,2135774874441
17.893226 ,Left ,57,7527260386118 ,47,8306141665117 ,12,1141375288603
17.9153666 ,Left ,57,7183675538006 ,47,9052449411301 ,11,9874009244617
17.9303693 ,Left ,57,6867486220179 ,47,9820348149944 ,11,854061833228
17.9528657 ,Left ,57,653195223773 ,48,0539264305049 ,11,7238430379564
17.9751414 ,Left ,57,6078279826266 ,48,1172655101032 ,11,5927501021472
17.9977141 ,Left ,57,5443636797215 ,48,1617188537656 ,11,4703009529634
18.0127674 ,Left ,57,4793302566639 ,48,176886887959 ,11,3538331627092
18.0353317 ,Left ,57,4380135666968 ,48,1723048658358 ,11,2433630859967
18.0580036 ,Left ,57,4033965326199 ,48,1536475482777 ,11,1605504131348
18.0729448 ,Left ,57,3689865862705 ,48,1082414304697 ,11,115702056502
18.0953441 ,Left ,57,33447700291 ,48,0562055717867 ,11,0723379902714
18.1178449 ,Left ,57,3708700424912 ,48,1091017459172 ,11,1017293363399
18.1329042 ,Left ,57,3360928410041 ,48,2303817017413 ,11,1592541261368
18.1554313 ,Left ,57,332100770303 ,48,2716163240623 ,11,2448466694842
18.1781513 ,Left ,57,354827010758 ,48,2007909958048 ,11,3386867394044
18.1931774 ,Left ,57,5161074370654 ,48,0590716154345 ,11,416824874223
18.2153765 ,Left ,57,6517875834501 ,47,8962301161184 ,11,4467368942908
18.2381732 ,Left ,57,7732196417384 ,47,7494808653109 ,11,4198479525002
18.2531248 ,Left ,57,8341912670101 ,47,5924694644226 ,11,3473864690548
18.2756763 ,Left ,57,8354571545163 ,47,5180350329101 ,11,3540410325997
18.2981066 ,Left ,57,8633016866329 ,47,54872044552 ,11,4331314593728
18.3130249 ,Left ,57,868311681471 ,47,4859412160596 ,11,5364374394697
18.3355883 ,Left ,57,9352807899572 ,47,3497007718037 ,11,6372327191243
18.3580444 ,Left ,58,1237896533041 ,47,2631187554465 ,11,6749960111537
18.3731905 ,Left ,58,182534409289 ,47,2976165710688 ,11,7106185522576
18.3956426 ,Left ,58,2512750932071 ,47,3223067655533 ,11,7427658640736
18.4183125 ,Left ,58,3298723809628 ,47,2916876345129 ,11,7750319811582
18.43315 ,Left ,58,3909400070676 ,47,2364639769056 ,11,8045826561246
18.455853 ,Left ,58,4572533879404 ,47,1761782545297 ,11,8496539919713
18.4783951 ,Left ,58,4770048179972 ,47,1076324189165 ,11,9278357533491
18.4934011 ,Left ,58,4655632378664 ,47,0614139152054 ,12,0316536743462
18.5153523 ,Left ,58,5122586967879 ,47,034346258597 ,12,1397398309316
18.5379333 ,Left ,58,5481275901311 ,46,9849919629326 ,12,2429943085341
18.5528597 ,Left ,58,6080495728345 ,46,9359800426001 ,12,3318940005929
18.5751906 ,Left ,58,6647439189822 ,46,8958031585992 ,12,4163105100305
18.5977414 ,Left ,58,6828750469486 ,46,8806203911475 ,12,5072561832034
18.6127022 ,Left ,58,7295203493205 ,46,8767319734782 ,12,5989818805096
18.6353188 ,Left ,58,76077190886 ,46,8399370705786 ,12,6710797518767
18.6579075 ,Left ,58,8108363622826 ,46,7944766331172 ,12,7222486304269
18.6728287 ,Left ,58,8539279715394 ,46,7555190770711 ,12,7633353563416
18.6955544 ,Left ,58,8481856124419 ,46,7331282785824 ,12,8062081150059
18.7180918 ,Left ,58,8406409548231 ,46,7504774542554 ,12,8638897898813
18.7330501 ,Left ,58,8602648502244 ,46,7845462900573 ,12,9334129545611
18.7555115 ,Left ,58,8840466304849 ,46,8005925698543 ,13,0053877379436
18.7781148 ,Left ,58,9204033609125 ,46,7935730467914 ,13,0565699186045
18.7930273 ,Left ,58,964917869308 ,46,7836398044228 ,13,1110055942143
18.8154749 ,Left ,58,9854340313849 ,46,7900689788355 ,13,1817991140357
18.8454359 ,Left ,59,0972267339282 ,46,8332747707579 ,13,3189840967224
18.8678289 ,Left ,59,1876393221819 ,46,8153896905985 ,13,3442876407336
18.9056038 ,Left ,59,2961231940653 ,46,792020974245 ,13,3668254868648
18.9281055 ,Left ,59,2856830963986 ,46,8235320284863 ,13,3915993250226
18.9656176 ,Left ,59,268471568888 ,46,8568162664572 ,13,4017667490919
18.9877724 ,Left ,59,3045924817771 ,46,8525637580861 ,13,3834944122298
19.02519 ,Left ,59,2965342742417 ,46,878462398866 ,13,3712997231119
19.0477615 ,Left ,59,2610988883573 ,46,9073258579418 ,13,3607502279488
19.085308 ,Left ,59,209990169795 ,46,9935162306374 ,13,3129320847142
19.1077754 ,Left ,59,1865297780931 ,47,03769884626 ,13,2868970103917
19.1453837 ,Left ,59,1525112309069 ,47,0789895889307 ,13,2292899365771
19.168074 ,Left ,59,1036833387772 ,47,0988630309212 ,13,2186075654455
19.2127779 ,Left ,59,0645528716793 ,47,1608159177746 ,13,2112918651313
19.235291 ,Left ,59,0342479859045 ,47,1814140069329 ,13,1982550429265
19.2651543 ,Left ,58,9504259321092 ,47,2161467260835 ,13,2030998086159
19.2876789 ,Left ,58,8690702130979 ,47,1968675713204 ,13,1611621116056
19.3255269 ,Left ,58,8118505838443 ,47,2660144466371 ,13,1442575440487
19.3481894 ,Left ,58,8292161330309 ,47,3982899956091 ,13,1364850412284
19.3853556 ,Left ,58,9182812860283 ,47,4255327170951 ,13,0273575379634
19.4078196 ,Left ,58,8765954052994 ,47,4085513006151 ,12,9474973833925
19.4304762 ,Left ,58,8261165051901 ,47,4084354575097 ,12,8609414747114
19.4455374 ,Left ,58,7789449393626 ,47,4107246550309 ,12,7603930349401
19.4677544 ,Left ,58,7590790238328 ,47,3989044835993 ,12,6674275398356
19.5052669 ,Left ,58,7351412923016 ,47,4076538734358 ,12,519884245551
19.5277138 ,Left ,58,6264246024353 ,47,3637394245549 ,12,498365135053
19.565765 ,Left ,58,723946852225 ,47,2975046828789 ,12,4844241374585
19.5883154 ,Left ,58,7095512117362 ,47,3401300278321 ,12,4791427187317
19.6257401 ,Left ,58,6308832338448 ,47,3711339499347 ,12,4123575819966
19.6482219 ,Left ,58,6075168866083 ,47,3982276211938 ,12,3775677845166
19.6856282 ,Left ,58,4579862715345 ,47,2805446001037 ,12,3847746017663
19.7081949 ,Left ,58,5086217400694 ,47,2607122292483 ,12,4207917379767
19.7531083 ,Left ,58,5199109946051 ,47,4360579674319 ,12,4907181824633
19.7755374 ,Left ,58,5461713126482 ,47,4520800515834 ,12,485818339275
19.8055639 ,Left ,58,5253186344271 ,47,4088053378113 ,12,4445545875212
19.8279297 ,Left ,58,4553178447232 ,47,412809039527 ,12,472900308587
19.8654519 ,Left ,58,3342479092868 ,47,4310424348137 ,12,6087363697409
19.8881247 ,Left ,58,2738024753437 ,47,4389607511404 ,12,6927601258314
19.9253744 ,Left ,58,2352759544996 ,47,4155732493284 ,12,6668397688808
19.9477127 ,Left ,58,124688076357 ,47,5104013955336 ,12,6498601255536
19.9853484 ,Left ,58,1118211724534 ,47,7129339804182 ,12,5900850400343
20.0079079 ,Left ,58,1076110822717 ,47,7480415182083 ,12,5201693079087
20.0455918 ,Left ,58,011976187483 ,47,872506114944 ,12,3321901111994
20.0682081 ,Left ,57,9377319391282 ,47,9545920264096 ,12,2270127317009
20.105709 ,Left ,57,8632963848458 ,48,089480295829 ,11,9520280438729
20.1284586 ,Left ,57,8049795333168 ,48,139121791598 ,11,8093166402046
20.1656045 ,Left ,57,6830925215311 ,48,1911731776482 ,11,5570209579301
20.1881808 ,Left ,57,6129825031141 ,48,2035868991001 ,11,4608621338878
20.2256329 ,Left ,57,5249045003388 ,48,201599651043 ,11,2893170898549
20.2481875 ,Left ,57,5077105483717 ,48,194003764488 ,11,2374954915924
20.2855525 ,Left ,57,4720266586488 ,48,08132091297 ,11,2414749527782
20.3080691 ,Left ,57,5674570667019 ,48,0928057994235 ,11,2856288488298
20.3455831 ,Left ,57,5807774905096 ,48,1187817039959 ,11,4093784013648
20.3682123 ,Left ,57,7019846847068 ,47,9683319932056 ,11,4623232273723
20.3831062 ,Left ,57,8351725890086 ,47,7672848641333 ,11,5002642072043
20.4056061 ,Left ,57,9503272420573 ,47,5945346132703 ,11,5133427713939
20.4283058 ,Left ,58,0096966737354 ,47,5050193774321 ,11,5504289796259
20.4432802 ,Left ,57,9565225373629 ,47,5040942540906 ,11,620582413432
20.4655163 ,Left ,57,9832475923519 ,47,4688186648307 ,11,6547311737612
20.4883228 ,Left ,58,0763305693682 ,47,3599504515948 ,11,6728542482542
20.5257169 ,Left ,58,2624104391723 ,47,1149222040049 ,11,7476518359919
20.5406387 ,Left ,58,347844291906 ,47,1008322779886 ,11,7919351760635
20.5630963 ,Left ,58,4142850702615 ,47,1299989527864 ,11,8612193463814
20.5855533 ,Left ,58,4830751414207 ,47,1235089127645 ,11,9454274914556
20.6007763 ,Left ,58,6117095506731 ,47,1040771211348 ,12,029721737968
20.6229398 ,Left ,58,6665076186314 ,47,0886702651168 ,12,1029933708285
20.6457431 ,Left ,58,7299262935505 ,47,0585855768262 ,12,1957012979457
20.6608037 ,Left ,58,7576542075755 ,47,0222552503845 ,12,2799125460362
20.6830507 ,Left ,58,7909689395142 ,46,9893894274533 ,12,3515457614941
20.7056076 ,Left ,58,8203949780112 ,46,9649574973656 ,12,4299970614424
20.7208162 ,Left ,58,8474255157337 ,46,9490817353041 ,12,5096173355533
20.7426844 ,Left ,58,8619797500688 ,46,9372073583783 ,12,5811143249109
20.7578125 ,Left ,58,9469760599157 ,46,940357412673 ,12,6300063074215
20.7802165 ,Left ,58,9623458780362 ,46,9150544779817 ,12,6738788884567
20.8034388 ,Left ,58,9765326825096 ,46,8875875896937 ,12,6987585600634
20.8182695 ,Left ,59,0025487768291 ,46,883578378283 ,12,7146552310036
20.8410656 ,Left ,59,0061951613612 ,46,8863960292072 ,12,7488594479835
20.8633671 ,Left ,59,0518201216768 ,46,8975219324269 ,12,7716979014615
20.8784352 ,Left ,59,0695338583824 ,46,8859387176936 ,12,7764572851926
20.9007623 ,Left ,59,0767559046932 ,46,8592807887088 ,12,7815503141172
20.9235258 ,Left ,59,0982878378659 ,46,8664249327622 ,12,7959240303647
20.945777 ,Left ,59,1544622799574 ,46,8889747193647 ,12,8036502657719
20.9606241 ,Left ,59,1257134066366 ,46,8901331205109 ,12,8134828512273
20.9832793 ,Left ,59,1438150977869 ,46,8893602102352 ,12,8167824094217
20.9979775 ,Left ,59,1634623418387 ,46,9044879096652 ,12,8237621808101
21.0207906 ,Left ,59,1639724417844 ,46,9376434805202 ,12,8485183169553
21.0432543 ,Left ,59,1140913988029 ,46,9769722865285 ,12,88255664344
21.0582279 ,Left ,59,0788975905572 ,47,021191035898 ,12,9169857981479
21.0806824 ,Left ,59,0487810271171 ,47,0547833486874 ,12,9495709310753
21.102888 ,Left ,59,0185987702574 ,47,0766664597344 ,12,9702462054897
21.1182033 ,Left ,58,9881866221514 ,47,0943594694184 ,12,9853382218875
21.1407956 ,Left ,58,9537549257155 ,47,1238888637899 ,13,0035153192254
21.1629584 ,Left ,58,9311658184437 ,47,1504126425394 ,13,0074817811632
21.1782449 ,Left ,58,9034623597697 ,47,1427813860025 ,13,0091057373956
21.2008478 ,Left ,58,8953654943012 ,47,1328103661027 ,13,0243843444674
21.2232052 ,Left ,58,8794854722589 ,47,1298177898018 ,13,0416106609179
21.2382188 ,Left ,58,8922799337368 ,47,1390330009818 ,13,0497783017204
21.2606296 ,Left ,58,8915411312315 ,47,1500083438112 ,13,0306102935267
21.2830046 ,Left ,58,8310680319469 ,47,1431432963726 ,13,0420036663159
21.3054678 ,Left ,58,8111533353768 ,47,0925505749671 ,13,0711311561987
21.3204998 ,Left ,58,794541847436 ,47,1819904244031 ,13,0753695347115
21.3427074 ,Left ,58,7448491877386 ,47,3423975319852 ,13,0682151096177
21.3653789 ,Left ,58,738335592229 ,47,433058986632 ,13,018197317799
21.3802721 ,Left ,58,7623593794928 ,47,4405650960185 ,12,931983454011
21.4029557 ,Left ,58,7452357044175 ,47,4418322156089 ,12,8271603516527
21.4328635 ,Left ,58,7083872349137 ,47,4539823040747 ,12,7216509243083
21.4478576 ,Left ,58,6622385772715 ,47,4535723565704 ,12,6201610231952
21.4703166 ,Left ,58,6275302752383 ,47,44158090726 ,12,5250359318172
21.4854243 ,Left ,58,5760906676846 ,47,4590176850145 ,12,4423108901331
21.5006103 ,Left ,58,5355319146455 ,47,456305267723 ,12,388027302246
21.5230407 ,Left ,58,4679198145553 ,47,3918237533201 ,12,3676015952253
21.5453925 ,Left ,58,4666869575623 ,47,2748893035683 ,12,3766724641663
21.5603253 ,Left ,58,541206448904 ,47,2556457401542 ,12,399045100327
21.5828937 ,Left ,58,5415673117333 ,47,3173445666988 ,12,4085998594831
21.605497 ,Left ,58,5293475044474 ,47,3326712668589 ,12,3974352451877
21.6280957 ,Left ,58,4987357963328 ,47,3287741291961 ,12,3823034624617
21.6506425 ,Left ,58,5024067131282 ,47,3661179304279 ,12,3821908664284
21.6730263 ,Left ,58,4848599822064 ,47,3832867634 ,12,3863250593441
21.688065 ,Left ,58,3611433843858 ,47,3540709024393 ,12,3939328394698
21.7030842 ,Left ,58,3685767788088 ,47,2965375061186 ,12,4223130698652
21.7250651 ,Left ,58,448128902615 ,47,3073465988004 ,12,4532264485405
21.7401738 ,Left ,58,4596097196769 ,47,3773855726169 ,12,4981909515204
21.7627736 ,Left ,58,4595808281433 ,47,4190395755121 ,12,5322311052392
21.7852303 ,Left ,58,43747192555 ,47,4350149481165 ,12,5397639169196
21.8005679 ,Left ,58,4242046981533 ,47,4567173658542 ,12,5520445991621
21.8229905 ,Left ,58,3691913321204 ,47,5145655638533 ,12,5826313466218
21.8455812 ,Left ,58,3078248087748 ,47,5574682044841 ,12,6161873116403
21.8606576 ,Left ,58,255345988128 ,47,5682457372486 ,12,6274240297435
21.8829737 ,Left ,58,1524462934647 ,47,5607745941825 ,12,6731060410058
21.9054651 ,Left ,58,0782188939568 ,47,514838295344 ,12,7189249966797
21.9204453 ,Left ,58,0844348074335 ,47,4719108298593 ,12,7008709092326
21.9431995 ,Left ,57,9964768734307 ,47,5514927717713 ,12,6635989667183
21.9655543 ,Left ,57,8888926696132 ,47,6836308328936 ,12,6532273783045
21.9805467 ,Left ,57,8573745995724 ,47,7689213199422 ,12,6443670283041
22.0031208 ,Left ,57,8568175989387 ,47,7868959856112 ,12,6035946898383
22.0255927 ,Left ,57,8670075373029 ,47,8022258751789 ,12,532938023886
22.0480243 ,Left ,57,801033590836 ,47,8698710984818 ,12,4455704381276
22.062953 ,Left ,57,7412342363046 ,47,9606653370607 ,12,3323800632095
22.0852158 ,Left ,57,7148779355661 ,48,0403879067719 ,12,1902412484825
22.107692 ,Left ,57,6992262525926 ,48,1057561098725 ,12,0360467343056
22.122823 ,Left ,57,6747745598984 ,48,1583071912588 ,11,8930544407101
22.1452027 ,Left ,57,6489734881832 ,48,1998379318568 ,11,7590228550889
22.1678394 ,Left ,57,5826529332207 ,48,2385751663385 ,11,6231484689951
22.1828449 ,Left ,57,5247783353642 ,48,2533179759679 ,11,4822226019305
22.2052892 ,Left ,57,4896206047048 ,48,2461346629242 ,11,3579489995907
22.2277471 ,Left ,57,466532551724 ,48,2216412642629 ,11,2485064683102
22.2503432 ,Left ,57,4191199508304 ,48,1957293953586 ,11,1969519681526
22.2730223 ,Left ,57,3493662840073 ,48,1544964718031 ,11,2037921550801
22.2959553 ,Left ,57,3735919430582 ,48,0812701481568 ,11,2472297155831
22.3110219 ,Left ,57,4422424074286 ,48,0957275345749 ,11,2951802036305
22.3258166 ,Left ,57,4172407276127 ,48,1577107772756 ,11,3635577071278
22.3483819 ,Left ,57,4348453474048 ,48,11805161167 ,11,4337250526847
22.3633765 ,Left ,57,5043188058118 ,47,959932074437 ,11,5033676825626
22.3858552 ,Left ,57,6731141816125 ,47,7474245468225 ,11,5334109501129
22.4079797 ,Left ,57,8000452082198 ,47,5619804473046 ,11,5138598886299
22.4229805 ,Left ,57,8500868010141 ,47,4250702658343 ,11,5056004433646
22.4455174 ,Left ,57,8558341510257 ,47,3677986220893 ,11,5499555036084
22.4680723 ,Left ,57,8596952954275 ,47,3811332248764 ,11,609971983406
22.4830011 ,Left ,57,9089235179345 ,47,3965420545271 ,11,6295866682337
22.5054617 ,Left ,57,9765392513751 ,47,3608513307125 ,11,6602162564641
22.5281299 ,Left ,58,0002966630588 ,47,2648761596537 ,11,6785687448141
22.5428971 ,Left ,58,0859060276431 ,47,1563937570861 ,11,740375946106
22.565415 ,Left ,58,1469053183122 ,47,1613537916283 ,11,8006189837325
22.5880329 ,Left ,58,2045254704607 ,47,2134126150732 ,11,8784614729072
22.602776 ,Left ,58,2129319237493 ,47,2092478883107 ,11,9308020468932
22.625384 ,Left ,58,2750327646344 ,47,174986548277 ,11,9820685284902
22.6479982 ,Left ,58,3312016689045 ,47,1127636398313 ,12,025744897038
22.6629306 ,Left ,58,3927876387059 ,47,0460371438967 ,12,0896073956151
22.6854431 ,Left ,58,4239698201702 ,46,9800231344574 ,12,1782218617115
22.7079305 ,Left ,58,4365562658541 ,46,9340676934501 ,12,2750263615885
22.722847 ,Left ,58,4602282439808 ,46,9001119900969 ,12,373092585626
22.7453919 ,Left ,58,4796407644934 ,46,8897235781123 ,12,4778157489192
22.7677094 ,Left ,58,5101956297105 ,46,8900446363204 ,12,5802541183836
22.782675 ,Left ,58,5531701333484 ,46,8990142866991 ,12,6858865402298
22.8053506 ,Left ,58,6292062155187 ,46,895714076284 ,12,7683431285808
22.8279196 ,Left ,58,6516904366184 ,46,8664140503431 ,12,8156361416377
22.8506926 ,Left ,58,6524941233204 ,46,8501501853909 ,12,8593545834214
22.865289 ,Left ,58,6569465057685 ,46,8684110703088 ,12,9112195870622
22.8879509 ,Left ,58,6749399611273 ,46,9150433604552 ,12,9726490436223
22.910245 ,Left ,58,6874005884723 ,46,9472453101108 ,13,0320640310571
22.9251579 ,Left ,58,7066312173931 ,46,9588603729351 ,13,0636619551605
22.9478872 ,Left ,58,7189811183401 ,46,9555985809873 ,13,0769340402453
22.9629277 ,Left ,58,7284009224898 ,46,9658831860432 ,13,0995391878001
22.9851689 ,Left ,58,7440278716177 ,46,9801826409889 ,13,1283460184355
23.007749 ,Left ,58,7618376228311 ,47,0050760346351 ,13,1477069288694
23.0227098 ,Left ,58,7944303995573 ,46,9964094103203 ,13,1550169399946
23.0455063 ,Left ,58,8231350828257 ,46,9762005609217 ,13,1369747919948
23.0678429 ,Left ,58,8631071057874 ,46,9812625923511 ,13,1179856313631
23.0907201 ,Left ,58,8715645027002 ,47,0132460518577 ,13,1159919894182
23.1054116 ,Left ,58,8986870484657 ,47,0509095287403 ,13,1162262246052
23.1204412 ,Left ,58,9167015080706 ,47,0841203433129 ,13,1173129370824
23.1427692 ,Left ,58,9111804031168 ,47,1290922903556 ,13,1282048540053
23.1653583 ,Left ,58,8980700598921 ,47,1496544152018 ,13,1511942552374
23.1804852 ,Left ,58,9648983654748 ,47,3460245115126 ,13,1609709728261
23.2028257 ,Left ,59,0227822308198 ,47,3229267964038 ,13,1634882148102
23.2252464 ,Left ,58,9887983648147 ,47,5293749494752 ,13,1703251736613
23.2405287 ,Left ,58,8655434897335 ,47,4733635665609 ,13,1927667433144
23.2629001 ,Left ,58,8314418139292 ,47,2701372188365 ,13,1917880053315
23.2857333 ,Left ,58,9053292934169 ,47,1714001290478 ,13,1690542118495
23.300821 ,Left ,59,0503884478916 ,47,3174822921658 ,13,1351147032925
23.3234582 ,Left ,59,1537646619871 ,47,4437781517438 ,13,1144082549189
23.3458246 ,Left ,59,1598510808144 ,47,4195892883112 ,13,0794039665641
23.360531 ,Left ,59,1773062101725 ,47,4325384234987 ,13,0416302900322
23.3829308 ,Left ,59,189482658785 ,47,4447317052383 ,13,008130983512
23.4051801 ,Left ,59,1657995173849 ,47,4399834264264 ,12,9823466548842
23.4202188 ,Left ,59,1613412897808 ,47,4265158843135 ,12,9557919330367
23.4427434 ,Left ,59,1655449032891 ,47,3306570523206 ,12,9282905378458
23.4652496 ,Left ,59,1050404220392 ,47,0667648949544 ,12,9276799741588
23.4805013 ,Left ,59,0042062400966 ,47,1428029584574 ,12,9348966068116
23.5027991 ,Left ,59,003520475771 ,47,1881082905617 ,12,9650905692088
23.5255862 ,Left ,58,9605666033245 ,47,2004598302715 ,13,0007429615083
23.5403772 ,Left ,58,9229944970922 ,47,1877736666254 ,13,0316679952125
23.5628356 ,Left ,58,9103651625355 ,47,1711331507227 ,13,0531962194903
23.5854717 ,Left ,58,871504091772 ,47,1143492041826 ,13,067448466156
23.600601 ,Left ,58,8585996192045 ,47,1510937400982 ,13,0939062116457
23.6230767 ,Left ,58,8507886235627 ,47,2826737300847 ,13,0974854189925
23.645197 ,Left ,58,9172255554353 ,47,3643579812565 ,13,0691348806575
23.6602766 ,Left ,58,921042886191 ,47,3516322152382 ,13,0216315944347
23.6828169 ,Left ,58,9440417454153 ,47,3278639239047 ,12,9546406331112
23.7053291 ,Left ,58,8741985121164 ,47,3169869606748 ,12,8745336107102
23.7207659 ,Left ,58,8371262724893 ,47,2985226198201 ,12,7995126592905
23.7434775 ,Left ,58,8113213255311 ,47,2649044424894 ,12,708338832931
23.7658811 ,Left ,58,7894710781483 ,47,2552789883384 ,12,6314339579852
23.7812248 ,Left ,58,758913934808 ,47,2660729372128 ,12,5920554590761
23.8035278 ,Left ,58,7188510642693 ,47,2461197052633 ,12,5445137176722
23.8254046 ,Left ,58,6613035009204 ,47,1372608323097 ,12,5084006006353
23.8405253 ,Left ,58,7199772607918 ,47,0375762518188 ,12,5232998079345
23.8630253 ,Left ,58,7344133140885 ,47,0391989244734 ,12,5391704937838
23.8854932 ,Left ,58,7437025155811 ,47,0556987556506 ,12,5561900249591
23.9006063 ,Left ,58,7566463187149 ,47,050228726745 ,12,5348546586226
23.9231391 ,Left ,58,7333390502498 ,47,0613981126714 ,12,5050487671895
23.9453134 ,Left ,58,6923174406659 ,47,1264624097642 ,12,4924252718041
23.9606666 ,Left ,58,5937464260636 ,47,1850862704367 ,12,5047348704077
23.9828338 ,Left ,58,5305910265362 ,47,1935309987825 ,12,5031982763144
24.0056095 ,Left ,58,5609268853618 ,47,2221041635469 ,12,5503298634442
24.028119 ,Left ,58,5833663588669 ,47,3136065358402 ,12,6016302498353
24.0507195 ,Left ,58,6315304162568 ,47,3549786907985 ,12,6171268631188
24.0654055 ,Left ,58,6584728657017 ,47,3569896215032 ,12,60796837559
24.0880962 ,Left ,58,5776849424697 ,47,3440589228201 ,12,5952109985429
24.1104521 ,Left ,58,5043607014385 ,47,3591929995804 ,12,608047518139
24.1329541 ,Left ,58,4377193224541 ,47,3678459887927 ,12,6327812522101
24.1479343 ,Left ,58,4071452621837 ,47,3497174855777 ,12,6574720552057
24.1702561 ,Left ,58,3420790053927 ,47,3506943344077 ,12,6917137722165
24.1928132 ,Left ,58,2970420578359 ,47,320588699369 ,12,691138511982
24.2079032 ,Left ,58,2878259398645 ,47,2784443013185 ,12,6575676426503
24.2303766 ,Left ,58,2492433992654 ,47,3169746916244 ,12,621505015756
24.2531338 ,Left ,58,1991337460197 ,47,4131416524879 ,12,6043658822548
24.2682416 ,Left ,58,208387268113 ,47,5058835065066 ,12,5627573411957
24.2907938 ,Left ,58,2595747867011 ,47,5733171776079 ,12,5012940016393
24.3129886 ,Left ,58,2688104920797 ,47,6135329840153 ,12,4239587291177
24.3281418 ,Left ,58,251984227805 ,47,667800556983 ,12,345126208688
24.3506277 ,Left ,58,1395976720775 ,47,751313170364 ,12,2733685162695
24.3730009 ,Left ,58,0669217183298 ,47,8255620681472 ,12,1802762157187
24.3878153 ,Left ,58,0248201767196 ,47,8731567538468 ,12,0738048429778
24.4106786 ,Left ,57,9553507787251 ,47,9242081651961 ,11,9715801087453
24.4329571 ,Left ,57,8853567353865 ,47,9715054717539 ,11,8722322926893
24.4479589 ,Left ,57,8164688996636 ,48,0114784221431 ,11,7737202107593
24.4704684 ,Left ,57,7526329840247 ,48,052324663721 ,11,6693900898763
24.4928786 ,Left ,57,7039389526281 ,48,0754048286195 ,11,5760455896109
24.5078837 ,Left ,57,6679524424568 ,48,1084212803268 ,11,4891651740179
24.5302792 ,Left ,57,6243791476651 ,48,1260377507755 ,11,4148224762228
24.552901 ,Left ,57,5611744111762 ,48,1314772006517 ,11,3897620875297
24.5678315 ,Left ,57,5256558509149 ,48,097500872027 ,11,4099446947878
24.5905551 ,Left ,57,5794097064486 ,48,0102408767945 ,11,4514704318155
24.6054197 ,Left ,57,5862610409549 ,48,0375637467677 ,11,499431909257
24.6206546 ,Left ,57,554373955615 ,48,0758969698663 ,11,5553475361531
24.6428448 ,Left ,57,5550822750083 ,48,0093948453521 ,11,5959020738288
24.6651629 ,Left ,57,6566717737857 ,47,8368716219754 ,11,6364010784585
24.6802864 ,Left ,57,7616327630633 ,47,6221854820301 ,11,6366664856915
24.7029225 ,Left ,57,8161541769254 ,47,4516582046744 ,11,6183666019878
24.7253451 ,Left ,57,7878410484092 ,47,3503886794437 ,11,6243921403754
24.7405539 ,Left ,57,7169988205345 ,47,3562673746425 ,11,7060260583475
24.7628998 ,Left ,57,7753756863146 ,47,362748523208 ,11,8042082932561
24.785111 ,Left ,57,8827937752995 ,47,280973462383 ,11,8709767575991
24.8004412 ,Left ,57,958175003039 ,47,1364224625397 ,11,9156868693359
24.822848 ,Left ,58,0596285715195 ,47,0272129993351 ,11,9631737728582
24.8452826 ,Left ,58,1246392818589 ,47,0120630746163 ,12,009850018407
24.8604984 ,Left ,58,2061823068201 ,47,0115002462979 ,12,0558909628415
24.8829836 ,Left ,58,2929830113883 ,46,9847793400682 ,12,0883530069303
24.9054907 ,Left ,58,3926696562469 ,46,9567601396697 ,12,1205580738862
24.9207323 ,Left ,58,5051329029989 ,46,9378594869682 ,12,18189188956
24.9428895 ,Left ,58,5765837296853 ,46,9263483734811 ,12,268001300026
24.9651678 ,Left ,58,6441965469577 ,46,9076837064542 ,12,3582777381953
24.980236 ,Left ,58,7150253052369 ,46,8815333796907 ,12,4332969702918
25.0030293 ,Left ,58,7801554806756 ,46,8633434560292 ,12,4964901377681
25.0250597 ,Left ,58,8683249884268 ,46,8418965348356 ,12,5583312639255
25.0404548 ,Left ,58,9304782663007 ,46,8149204753431 ,12,6235918692385
25.0627516 ,Left ,58,9736833504895 ,46,7909796256406 ,12,6706729272386
25.0852006 ,Left ,58,9942446269291 ,46,7786058265623 ,12,73450500261
25.1002693 ,Left ,59,0529808487366 ,46,776515976752 ,12,7930804293175
25.1228501 ,Left ,59,0781459350963 ,46,7589981915394 ,12,8246944287377
25.1605149 ,Left ,59,1272209509192 ,46,7783915662852 ,12,857142232239
25.1830414 ,Left ,59,1613412494755 ,46,82819741064 ,12,884757114665
25.228227 ,Left ,59,3197365571657 ,46,9192132927559 ,12,9026351065497
25.2507484 ,Left ,59,2674002694079 ,46,8385654167194 ,12,9127902229595
25.2803087 ,Left ,59,142606633519 ,47,0980147649938 ,13,0007261626557
25.3027117 ,Left ,59,295622907916 ,47,0859284502216 ,13,0185249358272
25.3405871 ,Left ,59,1922440581144 ,47,1296809831737 ,13,02240645553
25.3629764 ,Left ,59,2644180349979 ,46,9081468163969 ,12,9966007305299
25.4006537 ,Left ,59,253542334028 ,46,9523367803675 ,13,0107211423978
25.4228876 ,Left ,59,1371698149035 ,46,9228687556187 ,13,0406421255283
25.4455658 ,Left ,59,2365208856924 ,47,0345850612638 ,13,0229642572458
25.4606555 ,Left ,59,1453444858314 ,46,8767204879616 ,13,0497599719449
25.4829786 ,Left ,59,1757075331735 ,47,1192232589518 ,13,0497976046285
25.5205615 ,Left ,59,197615878962 ,47,1239080300573 ,13,0453436439271
25.5430956 ,Left ,59,1900578806784 ,47,1008894303375 ,13,0393714836631
25.5804626 ,Left ,59,1680135742597 ,47,0484234831786 ,13,0297719766904
25.6029905 ,Left ,59,1505048321519 ,47,0329820899352 ,13,0345132781733
25.6406012 ,Left ,59,085533508953 ,47,0206203033897 ,13,0483778427867
25.6630494 ,Left ,59,0505705628195 ,47,0012725991588 ,13,0493761236956
25.7006402 ,Left ,58,9815716650486 ,46,9581435531293 ,13,0634794075618
25.7232927 ,Left ,58,9710812049286 ,46,9580836467599 ,13,0776428325421
25.7605837 ,Left ,58,8832463469235 ,46,9953180662167 ,13,0803779350573
25.783036 ,Left ,58,820538596183 ,47,069068149611 ,13,1106408095332
25.8204158 ,Left ,58,811924259282 ,47,1473583636357 ,13,1446463532742
25.8428249 ,Left ,58,885016960281 ,47,0885198872287 ,13,1143017152838
25.8804647 ,Left ,58,8762018527157 ,47,0478762200402 ,12,9552375751644
25.902956 ,Left ,58,8326395772227 ,47,0722419436714 ,12,886330623648
25.9409379 ,Left ,58,7926246215941 ,47,1435554602102 ,12,7316907311892
25.9634617 ,Left ,58,7603094116907 ,47,1911945288783 ,12,6615922455483
26.0007748 ,Left ,58,5979445125395 ,47,1326296910714 ,12,6116980745224
26.0235463 ,Left ,58,6705870816894 ,47,0739259498363 ,12,6275208997516
26.0603773 ,Left ,58,7297566670323 ,47,2289686668959 ,12,6260580481325
26.0828948 ,Left ,58,6915226412389 ,47,2334711523948 ,12,6088094884501
26.1202917 ,Left ,58,6599352364089 ,47,2358340942127 ,12,562282875475
26.14284 ,Left ,58,6452200995437 ,47,2390094674781 ,12,544723169223
26.1803027 ,Left ,58,5263529538546 ,47,1745279081742 ,12,5425967080484
26.2032208 ,Left ,58,5219111928903 ,47,226312243482 ,12,5913835847037
26.2409301 ,Left ,58,606779069129 ,47,3823138546311 ,12,6763325579919
26.2633095 ,Left ,58,6219808026269 ,47,3980908540302 ,12,6814286323071
26.3009026 ,Left ,58,4779540641896 ,47,4797966882566 ,12,6770492810343
26.3234351 ,Left ,58,441917241935 ,47,5001817742852 ,12,6762217265755
26.3610097 ,Left ,58,254018256541 ,47,4979426757795 ,12,7717557334365
26.3832289 ,Left ,58,1870202890756 ,47,4596874002862 ,12,7593263981469
26.4204246 ,Left ,58,0616616143179 ,47,5387228639478 ,12,7211004007714
26.4428828 ,Left ,58,0323759540675 ,47,6466709617016 ,12,7148092957578
26.4728482 ,Left ,58,1350849491812 ,47,7326888036357 ,12,5838943924669
26.4953491 ,Left ,58,14334930838 ,47,7425245877561 ,12,4786096356416
26.5178119 ,Left ,58,1115369819328 ,47,7755033091547 ,12,3802371646744
26.5328528 ,Left ,58,0613317661686 ,47,8303893887814 ,12,2777852991921
26.5553488 ,Left ,57,995690502322 ,47,9088898900681 ,12,1582553409392
26.5780545 ,Left ,57,9646244272677 ,47,981571958122 ,12,0367306751201
26.5929139 ,Left ,57,9263214159215 ,48,0369040582078 ,11,9097803142948
26.6153316 ,Left ,57,8504229240807 ,48,0774751540375 ,11,7876661032798
26.6379577 ,Left ,57,7683152443524 ,48,1242603743846 ,11,6648490305869
26.65298 ,Left ,57,6933282136995 ,48,1711541739277 ,11,5606009706246
26.6754929 ,Left ,57,5726619636242 ,48,1935017891568 ,11,5094514456022
26.697955 ,Left ,57,491395058014 ,48,1507012854615 ,11,4854150449519
26.7129551 ,Left ,57,4388233261745 ,48,0088762763149 ,11,4551565353451
26.7351662 ,Left ,57,4774140572946 ,47,9006285807998 ,11,4784399267931
26.7577328 ,Left ,57,4357482637547 ,47,9112652135163 ,11,5313781515134
26.7802048 ,Left ,57,4061478168632 ,47,9041101556578 ,11,5792995884854
26.7954151 ,Left ,57,4434433223251 ,47,797806111864 ,11,6200240672504
26.8180249 ,Left ,57,6254181266529 ,47,6213981138884 ,11,6505626198436
26.8405808 ,Left ,57,7318716710544 ,47,4531168840368 ,11,6117468608158
26.8554652 ,Left ,57,7667854230844 ,47,3423597727629 ,11,584686638119
26.8784252 ,Left ,57,7325537496443 ,47,3590660356044 ,11,6344283286964
26.900911 ,Left ,57,7799530071955 ,47,4158221012539 ,11,6845751847056
26.9158501 ,Left ,57,8615952478993 ,47,3647371683539 ,11,7268211357596
26.9385006 ,Left ,57,9339271168735 ,47,2517081665792 ,11,7802008769129
26.9611229 ,Left ,58,0713023036293 ,47,143777087859 ,11,8336375086957
26.9757647 ,Left ,58,1558261992365 ,47,1348606821359 ,11,8925668146026
26.9981063 ,Left ,58,2355403357029 ,47,1596091839298 ,11,9300379260152
27.0208643 ,Left ,58,3547747087781 ,47,1426802725819 ,11,9575172132536
27.0356634 ,Left ,58,4710877859485 ,47,0956346321826 ,11,9824796028404
27.0583795 ,Left ,58,5267633959143 ,47,036624570221 ,12,0140793193692
27.0806407 ,Left ,58,5564709013729 ,46,9801705663189 ,12,0597448701999
27.0957313 ,Left ,58,5417898282869 ,46,9382359263707 ,12,1096203283774
27.1182513 ,Left ,58,5850345074252 ,46,8888555299035 ,12,1621545028942
27.1407194 ,Left ,58,6118299935407 ,46,8359036871643 ,12,1981709071815
27.1631766 ,Left ,58,647354159653 ,46,8054566824756 ,12,2253179220627
27.1853147 ,Left ,58,6687673567159 ,46,796559343974 ,12,2655554991219
27.2153023 ,Left ,58,6522902870456 ,46,8243317103957 ,12,3777435066746
27.2454216 ,Left ,58,6749388479708 ,46,8349916265087 ,12,4222715044326
27.2680369 ,Left ,58,6805312002276 ,46,8477748785868 ,12,4774523435324
27.2830267 ,Left ,58,6854364553287 ,46,8479548432219 ,12,5257803818777
27.3053056 ,Left ,58,6793518117033 ,46,8523096694316 ,12,5603697898963
27.3202659 ,Left ,58,6888120451158 ,46,8645688542646 ,12,5915826453749
27.3353393 ,Left ,58,6992661073079 ,46,8660290535842 ,12,6264107836265
27.3578541 ,Left ,58,7086206112979 ,46,8722821191182 ,12,641789276033
27.3803095 ,Left ,58,7338680272499 ,46,8787243834376 ,12,6614542595163
27.3955835 ,Left ,58,7697978701709 ,46,8947348895535 ,12,7051041954623
27.4182011 ,Left ,58,7978990523153 ,46,9180898682502 ,12,7495605374608
27.4407303 ,Left ,58,824966941218 ,46,9151455933049 ,12,7947270764978
27.4554984 ,Left ,58,8944429159827 ,46,897277897785 ,12,8279817083422
27.4778342 ,Left ,58,9280351491611 ,46,8742868511586 ,12,8456205103336
27.5007161 ,Left ,58,9611167031926 ,46,8943844777818 ,12,8728995584621
27.5153254 ,Left ,58,9408764193848 ,46,918043828902 ,12,9074236656051
27.537903 ,Left ,58,9193367302427 ,46,9568737944729 ,12,9320999685971
27.5604519 ,Left ,58,9036739854313 ,46,9837131990365 ,12,9456165576472
27.5753971 ,Left ,58,8928536461554 ,47,0010195778817 ,12,9551174638374
27.5978111 ,Left ,58,8603262563399 ,47,0124557124201 ,12,9713648226318
27.6202177 ,Left ,58,8216700022656 ,47,0263132139115 ,12,9899164533342
27.6352364 ,Left ,58,7790497583868 ,47,0298746473707 ,13,011954705905
27.657937 ,Left ,58,7570118999647 ,47,0287666029863 ,13,0327465313454
27.6805014 ,Left ,58,7461523886649 ,47,0238315133855 ,13,0582247283184
27.6958227 ,Left ,58,7473417055549 ,47,0080697240849 ,13,0848695981088
27.7184069 ,Left ,58,7485723708597 ,46,9929284072982 ,13,10250198916
27.7407854 ,Left ,58,754831403853 ,46,990289006385 ,13,1294484361837
27.7556898 ,Left ,58,7658117462137 ,46,9937829168341 ,13,1434457121634
27.7780939 ,Left ,58,6937486097629 ,46,9872294806968 ,13,1515087350615
27.8006867 ,Left ,58,6917920507326 ,47,0558529310252 ,13,1795640740041
27.82298 ,Left ,58,6852547527649 ,47,2102771660246 ,13,1847445204433
27.8381774 ,Left ,58,6997293245967 ,47,3163990067282 ,13,1680038316185
27.8607251 ,Left ,58,7297607525737 ,47,3213068895075 ,13,1362120526273
27.8830087 ,Left ,58,7907301379908 ,47,3017230150027 ,13,0755931645601
27.8981823 ,Left ,58,7623489552057 ,47,3123369955193 ,12,9791964215439
27.9208076 ,Left ,58,7207351969781 ,47,3283465695375 ,12,8839196786556
27.943161 ,Left ,58,7090823705306 ,47,3451659393187 ,12,7902249323195
27.9581471 ,Left ,58,7156780223871 ,47,3418776799642 ,12,7085167487551
27.9806092 ,Left ,58,6987473790417 ,47,3423656651267 ,12,6536005371246
28.0030554 ,Left ,58,7071721527331 ,47,3778376739315 ,12,626462737986
28.0179423 ,Left ,58,657061185042 ,47,3696925505695 ,12,6184282629482
28.0407787 ,Left ,58,6102898043471 ,47,2949829519773 ,12,6302609967904
28.062967 ,Left ,58,6973146619789 ,47,2091315564269 ,12,6780995251281
28.0779527 ,Left ,58,7097835955976 ,47,2574432481202 ,12,6879957141909
28.1004376 ,Left ,58,741028278131 ,47,3098347933401 ,12,6645472404182
28.1226227 ,Left ,58,737959173772 ,47,305981937111 ,12,6038662046987
28.1379201 ,Left ,58,7020591135198 ,47,3039969826975 ,12,5568979560063
28.1602003 ,Left ,58,6809208839319 ,47,326273809689 ,12,5220473410009
28.1828254 ,Left ,58,6526178737187 ,47,3391849377545 ,12,5053841355078
28.1977375 ,Left ,58,5543612400899 ,47,3107968998831 ,12,490113634646
28.2202963 ,Left ,58,5530821327481 ,47,2424808700054 ,12,5227263261779
28.2428805 ,Left ,58,591610866072 ,47,2706467607479 ,12,5529087279561
28.2581267 ,Left ,58,6205409678162 ,47,3366777996155 ,12,5800798456435
28.2804578 ,Left ,58,6162257072965 ,47,3532838248644 ,12,5813955117843
28.3028923 ,Left ,58,6243219637853 ,47,3421732612238 ,12,5642439249192
28.3181653 ,Left ,58,6143894102768 ,47,3276702876558 ,12,5536917746513
28.3403674 ,Left ,58,5478348089519 ,47,3653825283384 ,12,5754678311165
28.362751 ,Left ,58,532595200074 ,47,4126615983737 ,12,6127363759326
28.3778931 ,Left ,58,4679889353495 ,47,4507691011462 ,12,6656299117081
28.4003259 ,Left ,58,3847892681451 ,47,4209949769284 ,12,7276200097647
28.4229186 ,Left ,58,3410214824021 ,47,3638772025471 ,12,7721695133225
28.4378007 ,Left ,58,3642950119939 ,47,3672993467518 ,12,7548394568533
28.460797 ,Left ,58,2926774373334 ,47,4624478860911 ,12,7099301321194
28.4829547 ,Left ,58,2357297697817 ,47,5699208481435 ,12,6804437693628
28.4979441 ,Left ,58,2052134073027 ,47,615729153829 ,12,6658197929661
28.520545 ,Left ,58,2079199980533 ,47,6137630005608 ,12,6387559597761
28.5430798 ,Left ,58,2117501582228 ,47,6294010317069 ,12,5724151083875
28.5581577 ,Left ,58,1334630150766 ,47,6490033550418 ,12,4943554841578
28.5804808 ,Left ,58,071441259115 ,47,6663438364638 ,12,4066124625051
28.603021 ,Left ,58,0374647193833 ,47,6923049947643 ,12,3205128913552
28.6253792 ,Left ,57,9958260924915 ,47,7384459154676 ,12,243272039548
28.6402657 ,Left ,57,9381094062204 ,47,8161255234351 ,12,1683452588523
28.6628271 ,Left ,57,8730984079181 ,47,8901958102877 ,12,0990817208729
28.6853374 ,Left ,57,8421290879293 ,47,9462153255855 ,12,027911518722
28.7004858 ,Left ,57,8136903832263 ,47,9810201616326 ,11,9596094729925
28.7228531 ,Left ,57,77998821842 ,48,0121530615231 ,11,8954760727116
28.7455134 ,Left ,57,7495319583431 ,48,0406066821893 ,11,8362279126896
28.7607282 ,Left ,57,7166129684254 ,48,05017962477 ,11,7781660836134
28.7830482 ,Left ,57,6864723238078 ,48,0603935104517 ,11,7289872386035
28.8053718 ,Left ,57,6501313388746 ,48,0835918120365 ,11,6892453791435
28.8204107 ,Left ,57,626886732044 ,48,110961842631 ,11,6526428412996
28.8429579 ,Left ,57,605373845367 ,48,136318013188 ,11,6290814068745
28.8654023 ,Left ,57,5917682520213 ,48,1444392954234 ,11,5951513117987
28.8804425 ,Left ,57,5934647435401 ,48,1518621771932 ,11,5644570121579
28.8956031 ,Left ,57,5681972020721 ,48,161303905403 ,11,5418445643657
28.9180598 ,Left ,57,5559131240754 ,48,1819824740897 ,11,5215139181745
28.9403833 ,Left ,57,548863496893 ,48,1935069211058 ,11,5040917834721
28.9556649 ,Left ,57,5974964700276 ,48,4294676967648 ,11,4833125962735
28.9778237 ,Left ,57,6723681695276 ,48,422053191543 ,11,4816646218993
29.0003888 ,Left ,57,6558324626427 ,48,587072434252 ,11,4863020725316
29.0155235 ,Left ,57,5763260964365 ,48,5078157457015 ,11,4669929613731
29.0375764 ,Left ,57,5543732850366 ,48,2794517718444 ,11,4441867696316
29.0601385 ,Left ,57,6309621795014 ,48,1623966637251 ,11,4127071626487
29.0753702 ,Left ,57,7141111059609 ,48,2836037094579 ,11,3727822343347
29.0978432 ,Left ,57,7017778537976 ,48,4477751372358 ,11,3491947617689
29.1204123 ,Left ,57,6931524431121 ,48,4620373474535 ,11,3233121836788
29.135261 ,Left ,57,6829809446056 ,48,4477583376666 ,11,3119316199191
29.158045 ,Left ,57,6731761873999 ,48,4340146347095 ,11,2974186496439
29.1807239 ,Left ,57,671428943304 ,48,4177581934789 ,11,2886368970987
29.1956423 ,Left ,57,6887821573768 ,48,3897321528284 ,11,2814920587766
29.2181968 ,Left ,57,7324775439411 ,48,4051400581237 ,11,264456352603
29.24038 ,Left ,57,8167194760331 ,48,4920156669306 ,11,2493636774716
29.2556421 ,Left ,57,7757548422472 ,48,3121552877779 ,11,2571251160621
29.2780911 ,Left ,57,6995076965459 ,48,2237407508328 ,11,2581625315709
29.3003666 ,Left ,57,7110002897093 ,48,2035348672613 ,11,2461703062256
29.3153678 ,Left ,57,7059153462795 ,48,2258447405346 ,11,2500906880085
29.3381528 ,Left ,57,6956574542205 ,48,267805322392 ,11,2584268873253
29.3609911 ,Left ,57,6475428316336 ,48,2820163019552 ,11,2655274740775
29.3759219 ,Left ,57,576366907811 ,48,2774330122363 ,11,2404299054426
29.3982703 ,Left ,57,6493975571699 ,48,2618736121756 ,11,2831206066815
29.4211495 ,Left ,57,6245758526479 ,48,3303241336318 ,11,3333186441083
29.4355327 ,Left ,57,5994492627831 ,48,3489226134979 ,11,3964911324278
29.4579787 ,Left ,57,6154050655223 ,48,2367058110908 ,11,4846666700506
29.4804299 ,Left ,57,7384817676278 ,48,0714759939194 ,11,5645980552034
29.4953274 ,Left ,57,8729827386017 ,47,899863616011 ,11,592480452027
29.5180626 ,Left ,57,954320381801 ,47,7411528289494 ,11,5405936400389
29.5402806 ,Left ,57,9608765803495 ,47,6185862767557 ,11,5043778384184
29.5551838 ,Left ,57,9442693451694 ,47,5961498078254 ,11,5165818141138
29.5779557 ,Left ,58,0150777189897 ,47,5727675866177 ,11,5518755996178
29.6009091 ,Left ,58,0075616551599 ,47,4961750133099 ,11,6070053663022
29.6157663 ,Left ,58,1433793559426 ,47,3763236490312 ,11,6705806751132
29.6385937 ,Left ,58,3173181730905 ,47,2658481213806 ,11,7202736947581
29.6608367 ,Left ,58,4126628776012 ,47,2483400359724 ,11,7851607911211
29.6830294 ,Left ,58,4803693816277 ,47,2678068168296 ,11,8638998308704
29.6981882 ,Left ,58,5362885089863 ,47,2603291289953 ,11,9397246039453
29.7208039 ,Left ,58,6117929950033 ,47,2293475647898 ,12,0088480291268
29.7430846 ,Left ,58,6753033846996 ,47,1785655944756 ,12,0662930993553
29.7582688 ,Left ,58,6849289954664 ,47,1303022161296 ,12,1245970849669
29.7807201 ,Left ,58,6751158660138 ,47,0890489219869 ,12,1937672521454
29.8030495 ,Left ,58,7027030592844 ,47,028988647463 ,12,2782108627374
29.8256547 ,Left ,58,7085461637077 ,46,960414286392 ,12,3506806047872
29.8481673 ,Left ,58,7364694003748 ,46,9082778209204 ,12,4218015255073
29.8631303 ,Left ,58,7614655428735 ,46,8717556887781 ,12,5093071907984
29.8856985 ,Left ,58,7646499074448 ,46,8641746587423 ,12,6106285658672
29.9080991 ,Left ,58,7785674880317 ,46,8602338055321 ,12,7120871167341
29.922746 ,Left ,58,816565495189 ,46,8548594684747 ,12,7969753566255
29.9453506 ,Left ,58,8850372115329 ,46,8386989544367 ,12,8599971395047
29.9678183 ,Left ,58,9136514071045 ,46,7981035808645 ,12,8853228140678
29.9826702 ,Left ,58,9359442231655 ,46,7758433972545 ,12,8824943017825
30.0056903 ,Left ,58,9566795545477 ,46,7939271725494 ,12,8855130117503
30.0288886 ,Left ,58,9719369343733 ,46,8466499694178 ,12,9101156170834
30.04349 ,Left ,59,0086338478566 ,46,890412231889 ,12,931622899296
30.0656972 ,Left ,59,032015075089 ,46,8998947953997 ,12,9176890504635
30.0877434 ,Left ,59,0573393833602 ,46,8812357407649 ,12,886210384723
30.1027534 ,Left ,59,0607516538627 ,46,8803782395019 ,12,8716142557849
30.1254079 ,Left ,59,0401043426463 ,46,9102657039395 ,12,8808302251301
30.1477587 ,Left ,59,0436929576718 ,46,9414317255796 ,12,8951566405788
30.1628754 ,Left ,59,0497627769706 ,46,9562537035516 ,12,9018737515687
30.1854806 ,Left ,59,0483141072675 ,46,9528202911518 ,12,9010754388965
30.2080574 ,Left ,59,0805844329453 ,46,9319035159221 ,12,8993711137913
30.2229421 ,Left ,59,0977468999339 ,46,9285259890368 ,12,9191220592755
30.2455917 ,Left ,59,117346868862 ,46,947364413854 ,12,9550936463251
30.2682384 ,Left ,59,09569924345 ,46,9788535715093 ,12,9881414792567
30.2830861 ,Left ,59,0969054179383 ,47,0125134069684 ,13,0173352831292
30.305897 ,Left ,59,064754208976 ,47,0404575361696 ,13,0498683431425
30.3285603 ,Left ,59,0403237008769 ,47,0669124160855 ,13,0775328323984
30.343458 ,Left ,59,0227678436823 ,47,0881747527016 ,13,083191529365
30.3655166 ,Left ,58,9986476352754 ,47,1119097233044 ,13,0853459319651
30.3808171 ,Left ,59,0075695887888 ,47,1331486938591 ,13,0810401579456
30.3957931 ,Left ,59,0124095774489 ,47,1453256939274 ,13,0701076375962
30.4183351 ,Left ,58,9863153900355 ,47,1478120835102 ,13,0655309546631
30.4408222 ,Left ,58,9349648673869 ,47,1746864507001 ,13,0754104309931
30.455684 ,Left ,58,9002072161645 ,47,2092046552576 ,13,0858840360013
30.4782442 ,Left ,58,8867914333615 ,47,2186506437668 ,13,088165795352
30.5006672 ,Left ,58,8571117795538 ,47,2082570152261 ,13,081955152065
30.5156637 ,Left ,58,7931397705645 ,47,2139433076392 ,13,0930963294545
30.5377448 ,Left ,58,7615693679877 ,47,1893249957355 ,13,126755576196
30.560671 ,Left ,58,6848436006363 ,47,1173018066222 ,13,1408362278427
30.5755685 ,Left ,58,6861906186848 ,47,1790026501151 ,13,1367325198931
30.5978187 ,Left ,58,6359188383329 ,47,3479222410509 ,13,1318693201046
30.620878 ,Left ,58,6566091686287 ,47,4623519237496 ,13,112675450908
30.6358902 ,Left ,58,7145950047213 ,47,4632626614729 ,13,061200229983
30.658559 ,Left ,58,7522132072648 ,47,4279285615995 ,12,9727038784418
30.6808418 ,Left ,58,7069408244992 ,47,4149434864893 ,12,8627275366334
30.696035 ,Left ,58,6289236524892 ,47,4025529930981 ,12,7625341281292
30.7180295 ,Left ,58,597585930571 ,47,3825565418416 ,12,6753785499271
30.7404699 ,Left ,58,6219311501268 ,47,3659806365665 ,12,6026207218186
30.7554283 ,Left ,58,6552208722614 ,47,3637134559058 ,12,5553534296705
30.7781266 ,Left ,58,584806764323 ,47,2847699618298 ,12,5174076197752
30.800469 ,Left ,58,5044580022504 ,47,1472529171141 ,12,527681495657
30.8154127 ,Left ,58,616246154013 ,47,1317408946508 ,12,5462208899796
30.837937 ,Left ,58,6426413426096 ,47,2278270272331 ,12,5356915871805
30.8606134 ,Left ,58,6093387920851 ,47,2794240616385 ,12,5138401858594
30.8755482 ,Left ,58,5792476793948 ,47,2893161461818 ,12,4891828574089
30.8978895 ,Left ,58,5428791687813 ,47,3402979038933 ,12,4522922752661
30.9200808 ,Left ,58,5203267553414 ,47,3766324663764 ,12,4081065767605
30.9354445 ,Left ,58,4202796293422 ,47,3326811285627 ,12,358986816752
30.9579098 ,Left ,58,3525151108123 ,47,2496761807237 ,12,3580128390695
30.9957526 ,Left ,58,3341716160934 ,47,2804768531584 ,12,4612148436378
31.0183355 ,Left ,58,4466422124385 ,47,3839625289169 ,12,4950467711553
31.0552478 ,Left ,58,5402236977438 ,47,1062398803795 ,12,4693963587857
31.0779501 ,Left ,58,4074471644516 ,47,2951996358407 ,12,5157591109575
31.100177 ,Left ,58,4476959316318 ,47,399410805303 ,12,5501565551781
31.115187 ,Left ,58,3105214876254 ,47,2754150648788 ,12,6493512145258
31.1378801 ,Left ,58,2973387106148 ,47,5180660022743 ,12,6978872384636
31.1605018 ,Left ,58,2304855341651 ,47,2671890650456 ,12,7506644119268
31.1981465 ,Left ,58,1904161239161 ,47,3895939636581 ,12,7043404808222
31.2207448 ,Left ,57,9774603281414 ,47,5937535151324 ,12,695616557461
31.2582074 ,Left ,57,921202201818 ,47,6299255050941 ,12,6169766388498
31.2806925 ,Left ,57,9833046908896 ,47,8193994041256 ,12,5409240600137
31.3178067 ,Left ,57,8052030817651 ,47,882553289977 ,12,3534655198813
31.3404051 ,Left ,57,767473445207 ,47,9328337998595 ,12,2210399119705
31.3779421 ,Left ,57,6961107046591 ,48,0547592649412 ,11,9426991689441
31.400489 ,Left ,57,6524989860128 ,48,1004487780555 ,11,8226744699919
31.4381693 ,Left ,57,5322796519769 ,48,1756470700979 ,11,5978856597216
31.4604714 ,Left ,57,4913806562937 ,48,2118943228748 ,11,5200509601885
31.4979168 ,Left ,57,3385016157831 ,48,1808554956808 ,11,4580960621929
31.52024 ,Left ,57,4127376349619 ,48,1461083598461 ,11,4893303602481
31.5579563 ,Left ,57,3377659862101 ,48,2150092120493 ,11,5842498885528
31.5801309 ,Left ,57,3736167111135 ,48,0918310771121 ,11,6356103832959
31.6179439 ,Left ,57,6400754053289 ,47,7087512922656 ,11,6535689827913
31.6559805 ,Left ,57,7505953676354 ,47,4642150658238 ,11,5913579035114
31.678276 ,Left ,57,7105737767016 ,47,5347433121328 ,11,6477465627958
31.715603 ,Left ,57,9185057753014 ,47,4526633312376 ,11,758019394501
31.738283 ,Left ,58,0216429878763 ,47,2829697395193 ,11,7936998089534
31.7757717 ,Left ,58,1340124992598 ,47,1888088526617 ,11,855967834317
31.7981917 ,Left ,58,2021773997678 ,47,2532098883159 ,11,8845465994774
31.8356557 ,Left ,58,3008476206758 ,47,21561809361 ,11,9614037455683
31.8582855 ,Left ,58,3429515686411 ,47,1787194315598 ,12,0186520035922
31.8953665 ,Left ,58,3928702807692 ,47,0590395214515 ,12,2027475099907
31.9177185 ,Left ,58,4284034616009 ,47,0093779282677 ,12,3014663176374
31.955948 ,Left ,58,5232378543131 ,46,9206472465748 ,12,5198058802238
31.9782774 ,Left ,58,5689369212678 ,46,8915962384206 ,12,6036674473741
32.0154084 ,Left ,58,6969252078111 ,46,9197820680639 ,12,7756072897325
32.0304941 ,Left ,58,7296078963771 ,46,9085009148514 ,12,8400759067394
32.0755344 ,Left ,58,7864004098421 ,46,8878471268003 ,12,8661000695397
32.0980881 ,Left ,58,7776278482778 ,46,9032428163267 ,12,8771925086374
32.1355533 ,Left ,58,8370070616282 ,46,6857614753961 ,12,8945242090185
32.1582384 ,Left ,58,829156755264 ,46,8380969443023 ,12,8793920764214
32.1957523 ,Left ,58,7727111940514 ,46,5797341765028 ,12,9336314503641
32.2183465 ,Left ,58,859975792866 ,46,6287459343772 ,12,9565712105867
32.2557503 ,Left ,58,9021179231997 ,46,9876165608072 ,13,0039889603562
32.2782464 ,Left ,58,9316681829547 ,46,8677757921908 ,13,0079633048277
32.3154995 ,Left ,58,9517451609853 ,46,9050871236344 ,13,012657731056
32.3380973 ,Left ,58,9139165041226 ,46,9267348945262 ,13,0260345846665
32.3757689 ,Left ,58,8502721216997 ,46,9778185078087 ,13,038731836229
32.3981992 ,Left ,58,7395856205808 ,46,8913338123405 ,13,0844243119656
32.4357407 ,Left ,58,782737726392 ,47,042323278027 ,13,1112103372915
32.4583526 ,Left ,58,7506982014355 ,47,1778957916933 ,13,1514018027853
32.4955844 ,Left ,58,6560981675914 ,47,0307280560738 ,13,1512589066455
32.5181339 ,Left ,58,6421808061605 ,47,0503135407593 ,13,1725786374647
32.5555906 ,Left ,58,7055985221313 ,47,2361072606194 ,13,1354451903612
32.578377 ,Left ,58,7475123811615 ,47,2450488232415 ,13,081342595201
32.6156201 ,Left ,58,6959918858555 ,47,2305496250164 ,12,931395406944
32.6380642 ,Left ,58,6616665372448 ,47,2407537326037 ,12,8435681278392
32.6757402 ,Left ,58,6604526264182 ,47,2219010331498 ,12,689530094401
32.6981064 ,Left ,58,6209146958263 ,47,2473598229117 ,12,6640613604774
32.7356562 ,Left ,58,4582251379061 ,47,2149300238237 ,12,6282678107045
32.7582372 ,Left ,58,5300476534735 ,47,1438158937302 ,12,6363532775714
32.7957535 ,Left ,58,5667958333556 ,47,296964489613 ,12,6442635238581
32.8183037 ,Left ,58,5707367354397 ,47,2927519570209 ,12,6100280886308
32.8556885 ,Left ,58,5369429522985 ,47,3139989182238 ,12,5250731605636
32.8780247 ,Left ,58,5304983811149 ,47,3621300762745 ,12,490576760399
32.9155104 ,Left ,58,4102071003974 ,47,3440495433071 ,12,4717184617365
32.9306441 ,Left ,58,4198213348395 ,47,4489111107181 ,12,5200534933534
32.9530585 ,Left ,58,4761722887054 ,47,5576396699662 ,12,5664142479724
32.9755729 ,Left ,58,4996019903242 ,47,5839349534499 ,12,5608424622866
32.9905845 ,Left ,58,4562208068429 ,47,5776684532806 ,12,5365938343882
33.0130131 ,Left ,58,4064861140692 ,47,6134736209566 ,12,5241702556498
33.0356104 ,Left ,58,3284754339274 ,47,6378452899322 ,12,5335218949645
33.0506321 ,Left ,58,3107357395719 ,47,6297936075957 ,12,5573334729243
33.0731097 ,Left ,58,2687050658839 ,47,608940223124 ,12,6017186778476
33.095547 ,Left ,58,1882075759622 ,47,5845391864312 ,12,664350590963
33.1105744 ,Left ,58,1142068695479 ,47,530225188137 ,12,6863759892132
33.1329837 ,Left ,58,1646309803098 ,47,5195177106004 ,12,6693235928103
33.155515 ,Left ,58,0951643034378 ,47,6172946149406 ,12,6463688868452
33.1703913 ,Left ,58,0466974860477 ,47,731317163049 ,12,6386077598954
33.1929038 ,Left ,58,0475229271771 ,47,7801342066599 ,12,619232420962
33.2155026 ,Left ,58,0524351707717 ,47,7743635474071 ,12,5707212685151
33.2304616 ,Left ,58,0600440107288 ,47,7632121236103 ,12,4931467083341
33.2605166 ,Left ,57,9962015240067 ,47,7747678180703 ,12,4111598820687
33.2827737 ,Left ,57,9433194323925 ,47,8535401734674 ,12,334196876994
33.3051161 ,Left ,57,9297689212954 ,47,9329983514026 ,12,2391840838641
33.3202902 ,Left ,57,9063092719084 ,47,9963513327916 ,12,1323658468483
33.3353688 ,Left ,57,8633668114193 ,48,0474861490388 ,12,0263378945832
33.3579144 ,Left ,57,8114949062686 ,48,1038595154708 ,11,9293232751263
33.3726732 ,Left ,57,7623742598897 ,48,1499626504174 ,11,823811298975
33.3955228 ,Left ,57,7018273075807 ,48,1892417289435 ,11,7197517281763
33.4181056 ,Left ,57,6325094305431 ,48,223590643645 ,11,614228078071
33.4328758 ,Left ,57,5997809434203 ,48,2365487975012 ,11,524160193584
33.4555417 ,Left ,57,5313331256351 ,48,2627543300595 ,11,4528254883818
33.4777939 ,Left ,57,4202294718124 ,48,2497602454917 ,11,4227100356708
33.4930046 ,Left ,57,3753444235815 ,48,1728360429914 ,11,425320825415
33.5155524 ,Left ,57,4156933930516 ,48,1852660803519 ,11,4823166483407
33.5377384 ,Left ,57,3440999089144 ,48,2754763692822 ,11,5541346863175
33.5529028 ,Left ,57,3030997588592 ,48,26344334523 ,11,6144945586339
33.5757953 ,Left ,57,3368556202182 ,48,1310614436209 ,11,647209161667
33.5985432 ,Left ,57,4507324703922 ,47,9260487250902 ,11,6559724992032
33.6133908 ,Left ,57,5571420686569 ,47,7367171361914 ,11,6406236837871
33.6360867 ,Left ,57,5999620216785 ,47,6011336521393 ,11,6297723946789
33.6582112 ,Left ,57,5973008984731 ,47,5286977780253 ,11,6334021954152
33.6731722 ,Left ,57,6480705106439 ,47,5124816404894 ,11,6331463827585
33.6956652 ,Left ,57,7434986722996 ,47,476776819844 ,11,6717350603069
33.7182892 ,Left ,57,8149159553067 ,47,4092998312005 ,11,734726109647
33.7330378 ,Left ,57,9436230618361 ,47,3364440147241 ,11,7998151846045
33.7555203 ,Left ,58,0322749370795 ,47,3612748960441 ,11,8637392557911
33.7783837 ,Left ,58,1633869657402 ,47,4166028985712 ,11,9315304366507
33.7930976 ,Left ,58,216588136351 ,47,3809047180896 ,11,9861299516077
33.8155816 ,Left ,58,2887606349476 ,47,3476425501906 ,12,0326116179988
33.8382133 ,Left ,58,35863242995 ,47,2822428301012 ,12,0685532236635
33.8531921 ,Left ,58,3796582744855 ,47,2185723748147 ,12,1141055605978
33.8757912 ,Left ,58,3618721694862 ,47,1809368484952 ,12,178683034537
33.897972 ,Left ,58,3561156062006 ,47,1552842057758 ,12,2640893894841
33.9128107 ,Left ,58,3709994563935 ,47,1380350758101 ,12,3649315999865
33.9354181 ,Left ,58,4135570305734 ,47,1287070584259 ,12,4483687459557
33.9579306 ,Left ,58,4445015415029 ,47,129745469144 ,12,5359644798166
33.9729209 ,Left ,58,5094257198562 ,47,1525326799335 ,12,6368737993822
33.9952142 ,Left ,58,530359806968 ,47,1482095233237 ,12,7554436305746
34.0178605 ,Left ,58,5316039078882 ,47,1115801138577 ,12,8428939440328
34.0328422 ,Left ,58,5647759761071 ,47,0693003412536 ,12,9181834731571
34.0553524 ,Left ,58,5682039052507 ,47,029644399312 ,12,9766569916544
34.0703511 ,Left ,58,5536837107503 ,47,0134336175755 ,13,0218525424751
34.0929022 ,Left ,58,5700141303836 ,47,0291269422598 ,13,0522784689294
34.1078563 ,Left ,58,596397034453 ,47,052608554108 ,13,092404112786
34.1305142 ,Left ,58,6119140166232 ,47,07128956453 ,13,1285972921729
34.1528575 ,Left ,58,648444061185 ,47,0820049075975 ,13,1598095552352
34.1681251 ,Left ,58,6269041037673 ,47,1193599614521 ,13,1909853525022
34.1902031 ,Left ,58,6141172213016 ,46,942574035846 ,13,2222363891393
34.2127947 ,Left ,58,5678300689916 ,46,7853613797407 ,13,2811593651314
34.2280884 ,Left ,58,5332619286898 ,46,9783822882763 ,13,317829659173
34.2505991 ,Left ,58,648403379813 ,46,9048000864364 ,13,3248038929276
34.2728335 ,Left ,58,583393255087 ,46,8972186718318 ,13,3612990821077
34.2878267 ,Left ,58,7244582206386 ,46,9607890522061 ,13,3544774500296
34.3102984 ,Left ,58,6527318178763 ,46,8067004042583 ,13,3723717382777
34.3329985 ,Left ,58,7139131947284 ,47,0094872863552 ,13,3690217129035
34.3479264 ,Left ,58,6637504853434 ,46,8528565455754 ,13,3829572615485
34.370324 ,Left ,58,6592415404014 ,47,1100342842947 ,13,4019462012394
34.3929731 ,Left ,58,6739027685814 ,46,9658284783124 ,13,3919432737022
34.415385 ,Left ,58,5911843110281 ,47,0922088330265 ,13,3988996882089
34.4305801 ,Left ,58,681551388251 ,47,0916102387242 ,13,3722948719575
34.4529542 ,Left ,58,5513944383046 ,47,0213902905087 ,13,3912169564287
34.4753445 ,Left ,58,5470476593997 ,47,0892703269516 ,13,3976849507696
34.490508 ,Left ,58,5481172263859 ,47,0764877177695 ,13,3951612777035
34.5126444 ,Left ,58,5403451023194 ,47,0534454470324 ,13,3818274068142
34.5351674 ,Left ,58,5234306341431 ,47,0302888026732 ,13,3688784898636
34.5503728 ,Left ,58,4889620207624 ,47,0387445116986 ,13,3799848206228
34.5727655 ,Left ,58,4962039843522 ,47,0553351515869 ,13,3711609608662
34.5954743 ,Left ,58,5019289673524 ,47,0044764630427 ,13,3229232197405
34.6103002 ,Left ,58,4441144414208 ,46,944033671581 ,13,2870099102099
34.6328911 ,Left ,58,4465836256224 ,46,8547236602394 ,13,2896822615051
34.6558748 ,Left ,58,4713066012545 ,46,875818809311 ,13,2679071759472
34.670912 ,Left ,58,4906413659505 ,46,971890792054 ,13,2328830741761
34.6931094 ,Left ,58,5345636565614 ,47,027063478255 ,13,1882507042859
34.7154453 ,Left ,58,5796964032745 ,47,0210067460827 ,13,1270808514173
34.7304647 ,Left ,58,6127145854937 ,47,0026523724956 ,13,0537465422249
34.7530145 ,Left ,58,5675266547894 ,47,0301628185833 ,12,9558614521128
34.7756581 ,Left ,58,5079765349319 ,47,0697776287943 ,12,86563086397
34.7906453 ,Left ,58,5213864157849 ,47,1095674677649 ,12,7452028801898
34.8131086 ,Left ,58,4844175260947 ,47,1287622638569 ,12,6593990748206
34.8355628 ,Left ,58,4210985985248 ,47,1599965695835 ,12,6263043700894
34.850331 ,Left ,58,3339733510241 ,47,1130491207093 ,12,6354768365674
34.8731743 ,Left ,58,4096337821321 ,47,079467787288 ,12,665288231619
34.8956807 ,Left ,58,3804664396002 ,47,1723441849414 ,12,6733867701397
34.9103815 ,Left ,58,3694784049341 ,47,2997733399688 ,12,6775166931361
34.9331601 ,Left ,58,3657947454176 ,47,3347370307041 ,12,6593851189287
34.9556471 ,Left ,58,3850353960111 ,47,3019855190322 ,12,6398583331548
34.9780185 ,Left ,58,3815339794977 ,47,2560176661571 ,12,6252620301859
35.0005373 ,Left ,58,360695436808 ,47,2331070802733 ,12,5870296629389
35.0156208 ,Left ,58,3517208893159 ,47,200207030336 ,12,5649569492453
35.0381366 ,Left ,58,3511556056573 ,47,1886985169053 ,12,5540485807681
35.0606129 ,Left ,58,3580087073107 ,47,2006562646023 ,12,5626186647611
35.0756017 ,Left ,58,3435450685072 ,47,217488764292 ,12,5917970605978
35.098175 ,Left ,58,3340254777127 ,47,23077609311 ,12,6190730839333
35.1206342 ,Left ,58,3415892353221 ,47,2093555493608 ,12,6354423910355
35.135517 ,Left ,58,3708761565854 ,47,1728303047471 ,12,6357083094073
35.1581314 ,Left ,58,3746434876904 ,47,1593651843169 ,12,6383795817691
35.1806313 ,Left ,58,3555403743368 ,47,178585592107 ,12,6389514587453
35.1959323 ,Left ,58,3520129130677 ,47,2058591486352 ,12,6830421913074
35.2185283 ,Left ,58,3612241805705 ,47,1756796240285 ,12,6398892221939
35.241191 ,Left ,58,3061292609162 ,47,0719572924556 ,12,6334249331225
35.2558077 ,Left ,58,2673188091593 ,47,083986720616 ,12,656874377004
35.2780901 ,Left ,58,2495936627246 ,47,1485329690738 ,12,6842184507978
35.3005546 ,Left ,58,2713989334682 ,47,1899097936716 ,12,7089831870263
35.3155995 ,Left ,58,3320928577664 ,47,2040594119813 ,12,7108068153366
35.3381256 ,Left ,58,413023835173 ,47,1865691064173 ,12,6865976338768
35.3606557 ,Left ,58,3788623451283 ,47,1466686808357 ,12,6674744958768
35.3756032 ,Left ,58,3406234326059 ,47,1770705780824 ,12,6794830699664
35.397946 ,Left ,58,3085180527237 ,47,2265012767802 ,12,7281370709317
35.4205128 ,Left ,58,2848427184721 ,47,2701195280298 ,12,7626415572216
35.4426726 ,Left ,58,2485814109813 ,47,3085435484786 ,12,788221842537
35.4577294 ,Left ,58,1459464066639 ,47,2939120377858 ,12,8155945292928
35.4802782 ,Left ,58,0296535953455 ,47,2088583083764 ,12,84665380264
35.502838 ,Left ,58,0386660817518 ,47,1710632735914 ,12,8274743484771
35.5177335 ,Left ,57,9626617805703 ,47,2532369710797 ,12,7806018874657
35.5402876 ,Left ,57,8702701970077 ,47,3755676493842 ,12,7538617047634
35.5631897 ,Left ,57,8305228643514 ,47,4582556021276 ,12,7219707193923
35.5782752 ,Left ,57,8300501960332 ,47,5042869387992 ,12,6587738280229
35.6005638 ,Left ,57,8303281891251 ,47,5477311594176 ,12,5963870662028
35.623272 ,Left ,57,7884950365796 ,47,6129693334227 ,12,5121679794882
35.6380867 ,Left ,57,7545349677116 ,47,6901348413621 ,12,4117227234323
35.6606483 ,Left ,57,7499960181662 ,47,7667864379663 ,12,273239870957
35.6827428 ,Left ,57,7538355282381 ,47,8493562053306 ,12,1220798222509
35.6977971 ,Left ,57,7318701020431 ,47,9303781765097 ,11,9688395502495
35.7209511 ,Left ,57,6697183847913 ,48,0131766660555 ,11,8268237331125
35.7434478 ,Left ,57,5964137580011 ,48,0955930523311 ,11,6922292363194
35.7585346 ,Left ,57,5265924334885 ,48,1504560690989 ,11,5720058452558
35.7809616 ,Left ,57,4456100376919 ,48,1970569911919 ,11,464891092311
35.8035143 ,Left ,57,3855538877324 ,48,2374797805759 ,11,3572390549266
35.8182817 ,Left ,57,2835252581213 ,48,2908712861979 ,11,3085160555402
35.8404689 ,Left ,57,1967482927435 ,48,2615487842255 ,11,2701470004034
35.8628684 ,Left ,57,2123771984131 ,48,1440542615582 ,11,2670203131041
35.8781198 ,Left ,57,3081005946674 ,48,1371848350112 ,11,3251513139257
35.900698 ,Left ,57,3396219369029 ,48,1707402089718 ,11,4043704894053
35.923156 ,Left ,57,3724256494618 ,48,1309274745402 ,11,4859588939365
35.9380824 ,Left ,57,5062066299643 ,48,0345913576219 ,11,524579024972
35.9607373 ,Left ,57,660478264197 ,47,8737772384433 ,11,5178802487394
35.98315 ,Left ,57,7550413051359 ,47,7048949639874 ,11,5313534908291
35.9979091 ,Left ,57,7860618564096 ,47,6562463382112 ,11,5861633416733
36.0204973 ,Left ,57,7675533005966 ,47,671800234235 ,11,66483061267
36.0431687 ,Left ,57,7795147432776 ,47,6009403095019 ,11,7182430263029
36.0581503 ,Left ,57,8200337734658 ,47,439472991099 ,11,7328288234196
36.0805916 ,Left ,57,9091531141792 ,47,2861562330371 ,11,7395658453773
36.1033185 ,Left ,58,0077562431945 ,47,2525590569931 ,11,7629256361467
36.1185518 ,Left ,58,0337765412567 ,47,2845857417746 ,11,8147391667734
36.140721 ,Left ,58,0306807385886 ,47,2809060767473 ,11,8698872513441
36.1628577 ,Left ,58,1011632943279 ,47,2507582028769 ,11,9178254250949
36.1702721 ,Left ,58,1490313122969 ,47,2243751712061 ,11,9619638181334
36.1928821 ,Left ,58,2125664787931 ,47,1819304337935 ,12,0244544257665
36.2151177 ,Left ,58,2528904478976 ,47,129283097656 ,12,094369327954
36.2302931 ,Left ,58,2959166314195 ,47,0768622070859 ,12,1648910535485
36.2527665 ,Left ,58,3344381879547 ,47,0198603264253 ,12,2504541029612
36.2755294 ,Left ,58,365754785999 ,46,9647560545387 ,12,3512417202162
36.2903572 ,Left ,58,3966591597159 ,46,9169102376567 ,12,4438335375765
36.3127443 ,Left ,58,4519617566428 ,46,8910161438811 ,12,52694667786
36.3353611 ,Left ,58,5353885779225 ,46,8799752965751 ,12,6195053021549
36.3505026 ,Left ,58,5987447760899 ,46,8116241530049 ,12,6916647700257
36.3729488 ,Left ,58,6529206805785 ,46,7124254163871 ,12,7023757962634
36.3954177 ,Left ,58,6947871367249 ,46,6503881725188 ,12,7028845941013
36.4333256 ,Left ,58,7750290213242 ,46,6298876338144 ,12,7827344989246
36.455613 ,Left ,58,8243397418079 ,46,5968798983858 ,12,7966554759256
36.4934744 ,Left ,58,8600965765308 ,46,5514101326755 ,12,8199664605131
36.5158184 ,Left ,58,8862035345387 ,46,6021811855485 ,12,8949097639913
36.5309052 ,Left ,58,8760748825351 ,46,6569045078268 ,12,9683425069103
36.5533802 ,Left ,58,8733597675753 ,46,6815418491305 ,13,0105779928396
36.5759491 ,Left ,58,9069812736523 ,46,6907367310421 ,13,0352083867481
36.5908919 ,Left ,58,9532935333347 ,46,7146352563773 ,13,05738298186
36.613155 ,Left ,58,9111825082887 ,46,7529272870756 ,13,0865403498519
36.6354825 ,Left ,58,8805079597636 ,46,8140552389262 ,13,103742988892
36.6506856 ,Left ,58,8668002425748 ,46,8666726887683 ,13,1158229856664
36.6731361 ,Left ,58,8405035491406 ,46,9063574473899 ,13,118887920489
36.6955385 ,Left ,58,8122750391764 ,46,9348982884045 ,13,1245762225311
36.7106124 ,Left ,58,7954506399505 ,46,9585012995317 ,13,129339941792
36.7330588 ,Left ,58,7538241648944 ,46,9813553245491 ,13,1451005650733
36.7551083 ,Left ,58,7201114964267 ,46,9961059118574 ,13,1611548436589
36.7703535 ,Left ,58,6950077253835 ,46,9942778957409 ,13,168637728949
36.792766 ,Left ,58,655667808019 ,46,9899857270704 ,13,1765266208639
36.8151656 ,Left ,58,647095771471 ,46,9920615745894 ,13,1839781524734
36.8530072 ,Left ,58,5488412935605 ,46,8122162017267 ,13,2311666537051
36.8755279 ,Left ,58,5872629615101 ,46,835242262794 ,13,2199076653704
36.9134659 ,Left ,58,5937607405298 ,47,0368397161173 ,13,1535072001396
36.9352002 ,Left ,58,6269268703846 ,47,0460676688082 ,13,0827448804849
36.9729835 ,Left ,58,5889215528551 ,47,0485467858058 ,12,8870509660221
36.995518 ,Left ,58,531356000332 ,47,0759208548201 ,12,8047231426943
37.0330379 ,Left ,58,5090536848733 ,47,1194876225878 ,12,6253874701517
37.0559958 ,Left ,58,4737871895482 ,47,1094317143455 ,12,5254171566742
37.0930861 ,Left ,58,465464113011 ,47,0200295326267 ,12,4337934080104
37.1155187 ,Left ,58,4083342648242 ,47,1603559992927 ,12,4514219449674
37.1527293 ,Left ,58,4116379441252 ,47,263257765156 ,12,4791536477851
37.1754422 ,Left ,58,4204955345253 ,47,2072720322268 ,12,4647819342721
37.2128541 ,Left ,58,4328017652714 ,47,1605316771094 ,12,4588727539482
37.2504729 ,Left ,58,423664660525 ,47,0924766556009 ,12,4537097075809
37.2729928 ,Left ,58,4061126635626 ,47,2035085485348 ,12,4911702596362
37.3104771 ,Left ,58,4560582020286 ,47,3186617912228 ,12,5605502506902
37.3329614 ,Left ,58,4408315902604 ,47,3303426731706 ,12,5656058021261
37.3705099 ,Left ,58,33591909218 ,47,3835894280887 ,12,5699484038854
37.3930314 ,Left ,58,2836702820402 ,47,3948725633392 ,12,5784351877207
37.4302811 ,Left ,58,2807883229995 ,47,39819457115 ,12,578303757057
37.452903 ,Left ,58,1344737422004 ,47,3714557673213 ,12,6288116190126
37.4906505 ,Left ,58,0929518125657 ,47,4454916103553 ,12,6000809741286
37.5130616 ,Left ,58,0040977598044 ,47,6365400744118 ,12,5811404651657
37.5356828 ,Left ,57,9780891593224 ,47,7719842367705 ,12,5558433778509
37.5730752 ,Left ,58,0261335958862 ,47,8467346720074 ,12,3943052813962
