timestamp,event,roll,pitch,yaw
0.0190735 ,Left ,70,4393562813591 ,44,9461152229663 ,18,0481012254932
0.0336544 ,Left ,70,4046165317098 ,44,8820173390963 ,18,0499211550194
0.0568746 ,Left ,70,3895448658353 ,44,8145069611029 ,18,0433725449349
0.0795672 ,Left ,70,3920407584503 ,44,7372136091476 ,18,0352874469861
0.093608 ,Left ,70,3772027015748 ,44,660080149642 ,18,033248339321
0.1170581 ,Left ,70,3460836150181 ,44,5911278567997 ,18,0360557466886
0.1394666 ,Left ,70,3166705526749 ,44,5023845911249 ,18,0494897864568
0.1603724 ,Left ,70,3035157777352 ,44,3972703372191 ,18,098294627197
0.1767533 ,Left ,70,2856934008198 ,44,2613888371977 ,18,1878047604596
0.1994643 ,Left ,70,2275439263123 ,44,0721335214571 ,18,3284901738485
0.220322 ,Left ,70,1924724097362 ,43,8891427788037 ,18,4899399848249
0.2369933 ,Left ,70,1537013670961 ,43,7441518380954 ,18,6385913486932
0.2592975 ,Left ,70,1387832409078 ,43,6310695566187 ,18,765271761112
0.2806252 ,Left ,70,18319387575 ,43,5424678577512 ,18,8800766087687
0.2970623 ,Left ,70,2541502422732 ,43,4587172055129 ,18,9822747054582
0.3194441 ,Left ,70,3312292368118 ,43,3816183500104 ,19,0703899618574
0.3405825 ,Left ,70,3564352116612 ,43,321146720321 ,19,1419596441876
0.3570974 ,Left ,70,3676169313968 ,43,2809589341941 ,19,1936427197803
0.3868483 ,Left ,70,3988753715444 ,43,2430113666828 ,19,2462495206831
0.4003764 ,Left ,70,4345240003672 ,43,2081074631781 ,19,3026517869503
0.4170146 ,Left ,70,4629001826847 ,43,187052615231 ,19,3615808733465
0.4396485 ,Left ,70,5035023243247 ,43,1803649860444 ,19,4015285701799
0.4606452 ,Left ,70,5320013069287 ,43,167442064878 ,19,4375176261591
0.4770587 ,Left ,70,5634568227867 ,43,1628724527483 ,19,4772727489904
0.4996483 ,Left ,70,5890366489598 ,43,1782543049134 ,19,5049589168161
0.520705 ,Left ,70,6004967921866 ,43,1952753484953 ,19,5261683990703
0.5370065 ,Left ,70,592611430459 ,43,2180167820115 ,19,54300444644
0.5595907 ,Left ,70,5776125796854 ,43,241658743381 ,19,5535536874474
0.5806567 ,Left ,70,5507129407985 ,43,2707586223862 ,19,5537682405419
0.5969785 ,Left ,70,5177932305894 ,43,2892648891261 ,19,5567857439354
0.6193685 ,Left ,70,4950258553733 ,43,3141624037649 ,19,5641872355845
0.6403324 ,Left ,70,465844517266 ,43,3500597546776 ,19,5650838321629
0.6567243 ,Left ,70,431966214772 ,43,3892858857462 ,19,5561333374329
0.6795616 ,Left ,70,3859363764755 ,43,4443327655451 ,19,5318192190103
0.7019478 ,Left ,70,3243591325602 ,43,4924095047 ,19,4932673118626
0.7162071 ,Left ,70,2169301852407 ,43,5437933859635 ,19,4555896330848
0.7396545 ,Left ,70,1127785449657 ,43,5762257495467 ,19,4050912991113
0.7621775 ,Left ,70,0182053878265 ,43,5989680541372 ,19,3516237934767
0.7763821 ,Left ,69,9229043133494 ,43,601133904397 ,19,310439808824
0.7994931 ,Left ,69,7682205553119 ,43,5798147654293 ,19,3023688092318
0.8220019 ,Left ,69,5317963521637 ,43,5716910218711 ,19,3306207979515
0.8431035 ,Left ,69,2628259579361 ,43,6136010859558 ,19,3626570840266
0.8593721 ,Left ,68,9715301603743 ,43,687335024612 ,19,3697334316318
0.881858 ,Left ,68,7876035372569 ,43,6517087413085 ,19,2811430161682
0.9034123 ,Left ,68,7612130522932 ,43,3860677852853 ,19,2617685828986
0.919887 ,Left ,68,8368673415674 ,43,2437829138858 ,19,3014128606458
0.9424899 ,Left ,68,7090605041926 ,43,4042130582708 ,19,2192372763874
0.9635024 ,Left ,68,6882730261692 ,43,5357379182674 ,19,0776544138966
0.9794463 ,Left ,68,8771638116823 ,43,5228551791817 ,18,9471216620884
1.0020149 ,Left ,69,0050598815183 ,43,4688009950158 ,18,851636088118
1.0230478 ,Left ,68,9833808959606 ,43,3975162041339 ,18,7658332178309
1.0395619 ,Left ,68,8691226947977 ,43,2724566464237 ,18,6996993132359
1.062013 ,Left ,68,7582681973748 ,43,1420270940394 ,18,6471535092977
1.0907601 ,Left ,68,689002896228 ,43,039865151287 ,18,6039923853154
1.0995295 ,Left ,68,6213151187171 ,42,9464640264814 ,18,6350597237642
1.1217802 ,Left ,68,6463964995533 ,42,768150978658 ,18,6994284665343
1.1429152 ,Left ,68,8132294191789 ,42,6091936843835 ,18,7432623019794
1.1597064 ,Left ,68,760901993848 ,42,6557086733314 ,18,7505751665637
1.1821065 ,Left ,68,6886994356722 ,42,7437569086841 ,18,6793341280821
1.2033413 ,Left ,68,7224831997352 ,42,7437843792254 ,18,6455518176719
1.2195431 ,Left ,68,6892900443881 ,42,790574896255 ,18,6225977178939
1.2420608 ,Left ,68,7418293994717 ,42,8327814471252 ,18,5849200658112
1.2630604 ,Left ,68,8613337537797 ,42,7315897943555 ,18,5555244214252
1.2793251 ,Left ,68,9105508008522 ,42,6469097896887 ,18,5577857459166
1.3019745 ,Left ,68,739173249967 ,42,8483505882 ,18,5343912448308
1.3229249 ,Left ,68,6738808404877 ,43,1073621888652 ,18,4750533165529
1.339596 ,Left ,68,7426152629802 ,43,2326380164056 ,18,4521368422244
1.3618115 ,Left ,68,7092361257034 ,43,3261900985641 ,18,4613696117782
1.3831417 ,Left ,68,6062994444015 ,43,4426730055861 ,18,4857677387963
1.3995881 ,Left ,68,5148716706005 ,43,5296304541126 ,18,512800357978
1.4219764 ,Left ,68,454357175267 ,43,6003637327162 ,18,5442112741226
1.4428905 ,Left ,68,4414058411551 ,43,6534201643935 ,18,5656966366094
1.4585629 ,Left ,68,3565072362717 ,43,6594588096659 ,18,6109542442033
1.4818051 ,Left ,68,2375620853229 ,43,5880407618185 ,18,7110781088683
1.5028947 ,Left ,68,2047226732923 ,43,3111525080113 ,18,8222431511723
1.5187526 ,Left ,68,385609076319 ,43,064242548418 ,18,8266052042484
1.5420016 ,Left ,68,3370473681625 ,43,1125198847999 ,18,755779372162
1.5630722 ,Left ,68,2028705665404 ,43,3718418428801 ,18,6281130120965
1.5788628 ,Left ,68,2945081377096 ,43,4981871860199 ,18,5361774696778
1.6016355 ,Left ,68,4388523220918 ,43,5471726166845 ,18,4781809797998
1.624978 ,Left ,68,4817602123215 ,43,6247989489655 ,18,4312887548721
1.6391646 ,Left ,68,4832143090573 ,43,7590768711038 ,18,3672162228842
1.6623186 ,Left ,68,4378005712767 ,43,9068980465503 ,18,2692339013348
1.6842927 ,Left ,68,3739434254212 ,44,0486869731482 ,18,1462625677291
1.7054062 ,Left ,68,3568213188255 ,44,1793925146051 ,18,0020770965409
1.7218144 ,Left ,68,3642063898249 ,44,2608869883936 ,17,8733478570983
1.7449609 ,Left ,68,3205909329267 ,44,3092414245761 ,17,7721366807495
1.7659474 ,Left ,68,206196184195 ,44,331628072746 ,17,6908730405117
1.7820665 ,Left ,68,0933053563158 ,44,3490024998413 ,17,6108875004532
1.8044273 ,Left ,67,9964690383998 ,44,2926131554777 ,17,5553943147044
1.8255822 ,Left ,67,927930807402 ,43,9634349794795 ,17,6172878303809
1.8418326 ,Left ,68,0775182399582 ,43,6957028699094 ,17,7309786246192
1.8644379 ,Left ,68,2546624140744 ,43,5842301632543 ,17,7351701531153
1.8854632 ,Left ,68,3203807883734 ,43,5946995136942 ,17,6931901026943
1.9019806 ,Left ,68,3888379098036 ,43,5937513555381 ,17,6453480322327
1.9278434 ,Left ,68,3586941628607 ,43,5181177521342 ,17,6610123443063
1.9316382 ,Left ,68,3436088100529 ,43,5074845416651 ,17,7060745320909
1.9538042 ,Left ,68,4304341129378 ,43,5411280852527 ,17,7287333437946
1.9770326 ,Left ,68,3791826656622 ,43,4485157343674 ,17,7885150428778
1.9912594 ,Left ,68,4484161468789 ,42,9921050941486 ,17,8854539266642
2.0137876 ,Left ,68,4334772014305 ,42,6073477619218 ,18,0258312685436
2.0370088 ,Left ,68,5057911629749 ,42,7785981028029 ,17,9590304831879
2.0578328 ,Left ,68,2989550630007 ,42,7609495847331 ,18,0176114090183
2.0736056 ,Left ,68,6648631291544 ,42,961969171674 ,17,9004711358339
2.0967928 ,Left ,68,5638235296926 ,42,7605902784282 ,17,9237631871561
2.1181145 ,Left ,68,5270944433133 ,42,6131953789788 ,17,9431855741111
2.1336596 ,Left ,68,5850567832618 ,42,6312707983004 ,18,0129025118299
2.1569912 ,Left ,68,6449369160853 ,42,6357996462516 ,18,0456967580046
2.171409 ,Left ,68,7222526994835 ,42,6250670056004 ,18,0649713253044
2.1936172 ,Left ,68,7947167205837 ,42,5991339760499 ,18,0857087132267
2.2170269 ,Left ,68,8411962908685 ,42,5777775400414 ,18,1173095484587
2.2311416 ,Left ,68,8433926266373 ,42,5687236048095 ,18,1791184277128
2.2537132 ,Left ,68,8741866382012 ,42,3944916477229 ,18,222309011568
2.2768628 ,Left ,68,9928220592054 ,42,3928524118727 ,18,2138585426116
2.2913335 ,Left ,68,9150039993436 ,42,3638650720036 ,18,2646379710425
2.3150847 ,Left ,68,9604613434256 ,42,3554157999812 ,18,2548422036497
2.3370951 ,Left ,68,9819465050041 ,42,3726308636231 ,18,2844446276516
2.3579979 ,Left ,69,0191028803303 ,42,3875768840209 ,18,3148814315241
2.3736481 ,Left ,69,0694084927244 ,42,4067057766776 ,18,3330894864974
2.3970184 ,Left ,69,1024687924854 ,42,4281112410823 ,18,346397110834
2.417849 ,Left ,69,1071723982712 ,42,465179079369 ,18,3605552648835
2.433629 ,Left ,69,0887328438389 ,42,5224185245986 ,18,3728119196742
2.4570701 ,Left ,69,0743647884185 ,42,5817808123157 ,18,3759435969675
2.4781244 ,Left ,69,0652567740828 ,42,6492493486109 ,18,3712820241793
2.4935662 ,Left ,69,0466729131858 ,42,7130775923382 ,18,3643424190446
2.5244714 ,Left ,69,0182338866463 ,42,7858833137667 ,18,3566308158761
2.5382274 ,Left ,68,9675779640931 ,42,8575645692265 ,18,3565165593818
2.5539573 ,Left ,68,9172945082498 ,42,9259030603503 ,18,3637721251628
2.5770694 ,Left ,68,8848621650143 ,42,9813050180899 ,18,3671272513751
2.5982335 ,Left ,68,8546615484843 ,43,0052582786429 ,18,3807437484711
2.6139408 ,Left ,68,8299177482027 ,43,0135553839392 ,18,4189638631701
2.6363792 ,Left ,68,7571596933458 ,43,0204815555848 ,18,500069438787
2.6583205 ,Left ,68,6841958929022 ,43,0399825669756 ,18,583997339673
2.6742812 ,Left ,68,5422503049849 ,43,0016797382018 ,18,596775948095
2.6966926 ,Left ,68,469837019274 ,42,8531625185124 ,18,5960442483317
2.7184964 ,Left ,68,4271607757682 ,42,7482440718558 ,18,5544189388114
2.733828 ,Left ,68,3213985736681 ,42,7223192249382 ,18,399954498313
2.7562456 ,Left ,68,3477339203717 ,42,7405102023653 ,18,234259294374
2.7779829 ,Left ,68,5007123212949 ,42,7702086044163 ,18,1560399472684
2.7936569 ,Left ,68,5994038378252 ,42,8030874159359 ,18,1511311658727
2.8244235 ,Left ,68,6543196078128 ,42,8050350128301 ,18,1223897750392
2.8468531 ,Left ,68,5899445504255 ,42,7546970623504 ,18,0960872622038
2.8678654 ,Left ,68,4725258612612 ,42,6841077601241 ,18,1072838601271
2.8846165 ,Left ,68,4944578088386 ,42,6654093831153 ,18,1116435529036
2.9070421 ,Left ,68,6007090256086 ,42,6061280520414 ,18,0768044507715
2.9285843 ,Left ,68,6737233390789 ,42,4602266462319 ,18,0559678986414
2.9449447 ,Left ,68,7665381263951 ,42,353766047663 ,18,0392537913797
2.9673849 ,Left ,68,6749642147549 ,42,4345382688208 ,18,0511119242507
2.9884015 ,Left ,68,6018752748936 ,42,5837395854727 ,18,0323893072481
3.0047973 ,Left ,68,6769668122796 ,42,666453932369 ,18,0015148173197
3.0271243 ,Left ,68,7033037184163 ,42,7014099207859 ,17,9906295743403
3.048093 ,Left ,68,670763835027 ,42,7563736108681 ,17,9971913292338
3.0645731 ,Left ,68,6725168005266 ,42,7840312642478 ,18,0107211546735
3.0871165 ,Left ,68,6716386692045 ,42,7928515984103 ,18,0270745302006
3.1079605 ,Left ,68,6419924381086 ,42,7946670176656 ,18,0930624876622
3.1245803 ,Left ,68,5942689874414 ,42,792867027327 ,18,2263406326425
3.1468769 ,Left ,68,7156872098426 ,42,7488449015978 ,18,2673930901437
3.1685569 ,Left ,68,802501351872 ,42,8092485657915 ,18,2698012638942
3.1849014 ,Left ,68,7056222869288 ,42,9650034330882 ,18,2732709902933
3.2073226 ,Left ,68,6310390875514 ,43,1080037588024 ,18,3046451012797
3.2280631 ,Left ,68,5968908855216 ,43,1911377679921 ,18,3101864556319
3.2445163 ,Left ,68,6071764355829 ,43,2326056038388 ,18,3063956931713
3.2670519 ,Left ,68,658217506404 ,43,263007190781 ,18,2930279243237
3.2882312 ,Left ,68,657586447251 ,43,2895172750617 ,18,2776887304395
3.3045043 ,Left ,68,6496545841622 ,43,2864789073602 ,18,2650010245672
3.3268166 ,Left ,68,620021268406 ,43,2592043283797 ,18,271752469005
3.3555781 ,Left ,68,5953219932783 ,43,2445333636342 ,18,2857576227574
3.3645419 ,Left ,68,5658084256675 ,43,250179767323 ,18,2875735457965
3.3875562 ,Left ,68,5423092454923 ,43,2730114544406 ,18,2795879874646
3.4084691 ,Left ,68,5474836321428 ,43,3043022446882 ,18,2578701218025
3.4246359 ,Left ,68,5781493348853 ,43,3313481647234 ,18,2287729800619
3.4471954 ,Left ,68,6200379187642 ,43,3634772623049 ,18,1959605045183
3.4711548 ,Left ,68,6460801414717 ,43,3782162554865 ,18,1689502112525
3.4767002 ,Left ,68,6589600138486 ,43,3840923281669 ,18,1452585406982
3.4998667 ,Left ,68,7000461757039 ,43,3865500650226 ,18,1159997249626
3.5207186 ,Left ,68,7232224703376 ,43,3846797531367 ,18,0846728123185
3.5363407 ,Left ,68,7437781241732 ,43,3740986742609 ,18,0652521834551
3.5588039 ,Left ,68,7570538793968 ,43,3716597965377 ,18,048968501305
3.5881319 ,Left ,68,7432274044609 ,43,3490537290548 ,18,0297946377131
3.5962948 ,Left ,68,7289289049404 ,43,3326779015257 ,18,0201138393917
3.6187015 ,Left ,68,7233226773119 ,43,3275875351329 ,17,9932940286466
3.6404774 ,Left ,68,7186531666318 ,43,3114720171025 ,17,9703582422204
3.6561888 ,Left ,68,7323816292582 ,43,3001200221158 ,17,9474976922982
3.6697686 ,Left ,68,7044256256044 ,43,2815879636322 ,17,9360864912813
3.6922515 ,Left ,68,6803590277111 ,43,2664375838459 ,17,9340928546355
3.7153969 ,Left ,68,6812730495528 ,43,2652826253604 ,17,928024550996
3.7296939 ,Left ,68,6735371066223 ,43,2590114299582 ,17,9231430475232
3.7524211 ,Left ,68,6680888152642 ,43,2605484746343 ,17,9227764321083
3.7762555 ,Left ,68,6553432013728 ,43,2530218190794 ,17,923597340008
3.7900298 ,Left ,68,6392382131051 ,43,243685186376 ,17,9314049736441
3.8126406 ,Left ,68,64119661036 ,43,243274884031 ,17,9404103438132
3.835693 ,Left ,68,6361429733934 ,43,2457024041767 ,17,9521107993466
3.8502308 ,Left ,68,6459777228043 ,43,2418691751072 ,17,9663332030708
3.8724951 ,Left ,68,6427102997278 ,43,2357988140473 ,17,9818798616612
3.8956919 ,Left ,68,649561303783 ,43,2364622291721 ,17,9947964268331
3.9100245 ,Left ,68,6528538430981 ,43,242508791339 ,18,0077734552817
3.9326589 ,Left ,68,6450282487475 ,43,2540037665985 ,18,0188822777652
3.9556773 ,Left ,68,6585884525157 ,43,2601727067537 ,18,0216022967857
3.9701924 ,Left ,68,6600449183313 ,43,26180802877 ,18,0201725052413
3.9925284 ,Left ,68,6573933252625 ,43,2556267561193 ,18,0102009432079
4.0155504 ,Left ,68,6227856316152 ,43,2383227704587 ,18,0355217586633
4.0300276 ,Left ,68,5410078392596 ,43,2161103646365 ,18,0574111278072
4.0525434 ,Left ,68,6462084870022 ,43,1713138379755 ,18,0131169561243
4.0756863 ,Left ,68,7520230136582 ,43,2725087860054 ,17,9768555486198
4.0898865 ,Left ,68,7588598397009 ,43,3032715450227 ,17,9738768483785
4.1125313 ,Left ,68,7324732770502 ,43,4314585196544 ,17,9916979251953
4.1356331 ,Left ,68,6881548052162 ,43,55615758085 ,18,0125676062579
4.1501527 ,Left ,68,6457448862983 ,43,6838555072572 ,18,0367253417864
4.1725654 ,Left ,68,6271307260421 ,43,8206956988364 ,18,0513161543252
4.1956182 ,Left ,68,6251744761823 ,43,9735556175671 ,18,0616630666539
4.209721 ,Left ,68,682824426744 ,44,1316999116441 ,18,0491787205282
4.2324506 ,Left ,68,7896611460847 ,44,2627702846168 ,18,0281100749476
4.2554668 ,Left ,68,9224829341455 ,44,3392818147585 ,17,9998200494123
4.2698634 ,Left ,69,0497111362298 ,44,3412791531192 ,17,9685939641416
4.2921946 ,Left ,69,1625107695909 ,44,2462629502821 ,17,9441233666418
4.3153807 ,Left ,69,1701516719715 ,44,2474941635845 ,17,9814222439353
4.3297312 ,Left ,69,172873595047 ,44,2071918484245 ,17,9785020133035
4.3522748 ,Left ,69,1646282242188 ,44,1789623140069 ,17,9871000236772
4.3749115 ,Left ,69,1594123576348 ,44,1499994790644 ,17,9918629503871
4.3912456 ,Left ,69,1588970246507 ,44,1196456912025 ,17,994109270597
4.4202771 ,Left ,69,1472063182857 ,44,0909279500223 ,17,9979080460298
4.435542 ,Left ,69,1346069661524 ,44,059740950408 ,18,0017715345891
4.4532418 ,Left ,69,1352512140484 ,44,0373815190532 ,18,002444330951
4.4729445 ,Left ,69,13990896971 ,44,0117771379754 ,18,0049465067418
4.4948784 ,Left ,69,1477271025886 ,43,9900949186921 ,18,0088922368577
4.5129322 ,Left ,69,1536908809263 ,43,9693042482933 ,18,0177069101873
4.5323837 ,Left ,69,1546072519662 ,43,9504372378948 ,18,0241859531304
4.5547525 ,Left ,69,1558184668371 ,43,933070037645 ,18,0281944554526
4.5729441 ,Left ,69,1491805086348 ,43,9131594959327 ,18,0332707944836
4.5924751 ,Left ,69,1494885072384 ,43,8904073493629 ,18,0357444973672
4.615006 ,Left ,69,1475912393678 ,43,8690975918554 ,18,0382526044754
4.6325778 ,Left ,69,1493095223107 ,43,8655255185482 ,18,0363607687044
4.6522675 ,Left ,69,1469334399675 ,43,8614003704616 ,18,0378373078777
4.6748408 ,Left ,69,1428972576938 ,43,8462191716196 ,18,0457221707011
4.6924428 ,Left ,69,1382236536331 ,43,8329795015455 ,18,0527981096622
4.7123846 ,Left ,69,1363922774295 ,43,8192527099717 ,18,0622157609026
4.7348091 ,Left ,69,138864014859 ,43,8066896665816 ,18,0725542682539
4.7528587 ,Left ,69,1341276047932 ,43,7992977643213 ,18,0844125952604
4.7723095 ,Left ,69,1434697107364 ,43,7917793186955 ,18,0895869896326
4.7949338 ,Left ,69,1572507466392 ,43,7842526160446 ,18,0962183078895
4.812896 ,Left ,69,161377923145 ,43,7730902666801 ,18,100513648394
4.8323051 ,Left ,69,1601654105308 ,43,7691080898192 ,18,1030286520243
4.854906 ,Left ,69,143552053125 ,43,7691873704892 ,18,1122486709658
4.8728824 ,Left ,69,1426334643951 ,43,7667154815638 ,18,1123087099145
4.8923387 ,Left ,69,15153724853 ,43,7520907843332 ,18,121328006865
4.9148026 ,Left ,69,1610091413955 ,43,7374787522148 ,18,137859482328
4.9327986 ,Left ,69,1553313106333 ,43,7216955324369 ,18,1606097769772
4.9522767 ,Left ,69,1468652824972 ,43,7022846863214 ,18,1956269966263
4.9748119 ,Left ,69,1477938733387 ,43,6937678986287 ,18,2261008175737
4.9972633 ,Left ,69,1520198997048 ,43,6821656458586 ,18,2553839287187
5.0121827 ,Left ,69,1648806627112 ,43,671979625267 ,18,2775511332123
5.0349851 ,Left ,69,1733363904935 ,43,6559579462806 ,18,293466546336
5.0572711 ,Left ,69,1750660851257 ,43,6406160662003 ,18,2991831841886
5.0739231 ,Left ,69,1830879434224 ,43,6167366182069 ,18,294456837527
5.0950771 ,Left ,69,184131380649 ,43,5920297368124 ,18,2819621388262
5.1175208 ,Left ,69,1863673232013 ,43,5598545685007 ,18,2634929673105
5.1339532 ,Left ,69,1853824643386 ,43,5299082816552 ,18,2372851894702
5.1551249 ,Left ,69,1804476805906 ,43,5079141918914 ,18,2146805282654
5.1774645 ,Left ,69,1814216062178 ,43,497266146644 ,18,1933515712699
5.1940651 ,Left ,69,1761121122076 ,43,489279865593 ,18,1776873793543
5.2149727 ,Left ,69,1670560887902 ,43,488713514055 ,18,1705365280824
5.2373096 ,Left ,69,1688179038429 ,43,4965820713205 ,18,1720552540998
5.2536813 ,Left ,69,1753296504832 ,43,5106406617673 ,18,1779287798378
5.2749403 ,Left ,69,1847155574986 ,43,5241939351553 ,18,1860942239338
5.3003749 ,Left ,69,1870755667398 ,43,533848379613 ,18,1989041771719
5.3138014 ,Left ,69,1801915928157 ,43,540253290006 ,18,2075499009155
5.3347474 ,Left ,69,1721235885456 ,43,5418332754687 ,18,2097920143448
5.35728 ,Left ,69,1710851194383 ,43,5405289727679 ,18,209305089128
5.3737507 ,Left ,69,1640628297863 ,43,5290435494747 ,18,2069751982685
5.39509 ,Left ,69,15319520036 ,43,5070789141814 ,18,2021626456893
5.417581 ,Left ,69,1441077372433 ,43,4814889862536 ,18,1953875092431
5.4353991 ,Left ,69,141793502623 ,43,458259814264 ,18,1863858132991
5.4548278 ,Left ,69,1367676485568 ,43,4390506719836 ,18,1810006764871
5.4851505 ,Left ,69,1284521281525 ,43,4294359563583 ,18,1860037004939
5.49553 ,Left ,69,1299039764821 ,43,4222446143801 ,18,1937969100592
5.5150661 ,Left ,69,1325068136818 ,43,4151756558299 ,18,2026177182982
5.537515 ,Left ,69,1261714746556 ,43,4090196739375 ,18,2175271948712
5.5553828 ,Left ,69,1189248689134 ,43,4071568719905 ,18,2305782711535
5.5748712 ,Left ,69,1128958129855 ,43,4025208884883 ,18,2430365910125
5.5973165 ,Left ,69,1173276676691 ,43,3957007529496 ,18,2463534967048
5.6200101 ,Left ,69,114227123835 ,43,3850015884876 ,18,2468018921521
5.6346747 ,Left ,69,1014050565826 ,43,3736119491857 ,18,246644925759
5.6571682 ,Left ,69,0892065061658 ,43,3652459647759 ,18,2415854393619
5.6749976 ,Left ,69,0785470195758 ,43,3556075684796 ,18,2334768794559
5.6948327 ,Left ,69,0741432663641 ,43,3509085100767 ,18,2266700490586
5.7172419 ,Left ,69,0862346998842 ,43,344551956882 ,18,212837533966
5.7352117 ,Left ,69,0957779411028 ,43,3381552103023 ,18,201553066446
5.7547414 ,Left ,69,1014326813393 ,43,3288922272734 ,18,1947821348328
5.7771095 ,Left ,69,1005268805418 ,43,3263976922378 ,18,1948332188994
5.7954216 ,Left ,69,1062533911962 ,43,3274716034658 ,18,1921053635599
5.8150294 ,Left ,69,1140299529339 ,43,3311633164871 ,18,1903608469503
5.8375553 ,Left ,69,1192417002833 ,43,3348070129546 ,18,1911809886906
5.8552588 ,Left ,69,1209827121513 ,43,3359079278737 ,18,1946158730528
5.8749483 ,Left ,69,1298032399156 ,43,334119735159 ,18,1952574160206
5.8973502 ,Left ,69,1369839605571 ,43,3279886843577 ,18,200301954052
5.9152164 ,Left ,69,1386424432887 ,43,3166970128244 ,18,2069724780808
5.9347299 ,Left ,69,1377539011404 ,43,3074126097631 ,18,2089096082426
5.9572791 ,Left ,69,12463482335 ,43,3012724169574 ,18,209305842016
5.9753892 ,Left ,69,1239584396876 ,43,287901038285 ,18,2101408772523
5.9963557 ,Left ,69,1167880880419 ,43,2784011040869 ,18,2161843449012
6.0171512 ,Left ,69,1136619079993 ,43,2637901357679 ,18,2201272250891
6.03532 ,Left ,69,1110989795448 ,43,248103864419 ,18,2337684332967
6.0562929 ,Left ,69,1053652255013 ,43,2313893950375 ,18,2475797238902
6.0848898 ,Left ,69,1016945726928 ,43,2104893523823 ,18,2642496342072
6.0950308 ,Left ,69,0934396746087 ,43,1972810189875 ,18,2865870107024
6.1163562 ,Left ,69,0786026038906 ,43,1844183346854 ,18,3082054913892
6.1374692 ,Left ,69,0612204581746 ,43,1735808877481 ,18,3251046696103
6.1554851 ,Left ,69,0483481445006 ,43,1665947554541 ,18,3398676461236
6.1762462 ,Left ,69,0305222636111 ,43,1622526388829 ,18,3568003241718
6.1970571 ,Left ,69,0191160849726 ,43,1501127778733 ,18,3720161257347
6.2153981 ,Left ,69,0194676613568 ,43,1327320054462 ,18,3884819380681
6.236227 ,Left ,69,0276726035627 ,43,1142459983569 ,18,3977308691219
6.2572968 ,Left ,69,0380268047753 ,43,1022638236488 ,18,4044195660643
6.2752684 ,Left ,69,0379006291007 ,43,1031098363833 ,18,4133345277567
6.2963661 ,Left ,69,0290123974179 ,43,1161738141343 ,18,4257355061483
6.3174993 ,Left ,69,0286861833039 ,43,1394771061216 ,18,4373589922307
6.3352647 ,Left ,69,0196218981312 ,43,1802865059343 ,18,4372790938257
6.363748 ,Left ,69,0064641231405 ,43,2323509884187 ,18,4329848218585
6.3772183 ,Left ,68,9821463795896 ,43,292651935541 ,18,4379416922713
6.3951896 ,Left ,68,9466148024617 ,43,3606289729055 ,18,449357150468
6.4176321 ,Left ,68,9125508981871 ,43,4286783723087 ,18,4614058505573
6.4370919 ,Left ,68,8935527062946 ,43,4894334071334 ,18,4712439590222
6.4553896 ,Left ,68,8579175336352 ,43,5419003865759 ,18,4900782025044
6.4776311 ,Left ,68,8252129025423 ,43,5911391243576 ,18,4983724798796
6.4974178 ,Left ,68,8067850748846 ,43,6260372125525 ,18,5087295045436
6.5153057 ,Left ,68,7750489891299 ,43,6484897689714 ,18,5414275591056
6.537922 ,Left ,68,7536529474011 ,43,6687704811855 ,18,5806695956439
6.5574201 ,Left ,68,7366655287367 ,43,6691103024255 ,18,6117362459945
6.575148 ,Left ,68,6913708645062 ,43,6318206872497 ,18,6546850884513
6.5978652 ,Left ,68,6489556733966 ,43,6090066063263 ,18,6998034700871
6.6171858 ,Left ,68,5674934941975 ,43,6481016309506 ,18,7312281052726
6.635028 ,Left ,68,5107196331266 ,43,6118541009585 ,18,726639503635
6.6579096 ,Left ,68,5700120044644 ,43,4989925597079 ,18,6789307475483
6.6773798 ,Left ,68,6983341566777 ,43,4307851211025 ,18,5573090204979
6.695114 ,Left ,68,6616602586929 ,43,5857051550598 ,18,3968344733604
6.7177652 ,Left ,68,6911250295491 ,43,7648985395418 ,18,2476000871827
6.7372542 ,Left ,68,797124316944 ,43,8141032260219 ,18,1307742823123
6.755323 ,Left ,68,8443976249615 ,43,8823928558886 ,18,0251163764383
6.7779089 ,Left ,68,8610845136186 ,43,957946581989 ,17,9122000746061
6.7972388 ,Left ,68,8399257711414 ,44,0400782213567 ,17,784972552595
6.8198842 ,Left ,68,825615127232 ,44,1124419096566 ,17,6471684783443
6.837706 ,Left ,68,8394414592347 ,44,1706277583735 ,17,5147776579237
6.8573331 ,Left ,68,849447209452 ,44,2221811186201 ,17,3805752110513
6.8797228 ,Left ,68,7886840245335 ,44,2308497039836 ,17,2727401876238
6.8981461 ,Left ,68,7304839202347 ,44,2573011303596 ,17,1983997647561
6.9207095 ,Left ,68,6919389410236 ,44,3198805201175 ,17,0867701210958
6.940616 ,Left ,68,6294386578033 ,44,2582848826891 ,17,0402547457533
6.9579052 ,Left ,68,6425834897168 ,43,9786257588164 ,17,1099130422181
6.9789306 ,Left ,68,7812169522159 ,43,81170904104 ,17,153754779788
7.0075248 ,Left ,68,6813815255031 ,43,8293724904739 ,17,1946036130202
7.0178418 ,Left ,68,7433627127056 ,43,8915611322794 ,17,1823784260595
7.0391478 ,Left ,68,9218033061954 ,43,8050021282783 ,17,1632780306659
7.0600571 ,Left ,68,9298331639369 ,43,6418234328258 ,17,1604770899097
7.0778697 ,Left ,68,906720343881 ,43,5506890847599 ,17,2210134096994
7.0992049 ,Left ,68,9032816672268 ,43,4635334360354 ,17,297779869702
7.1205635 ,Left ,68,9654672061983 ,43,3311443642964 ,17,3421933142132
7.1381054 ,Left ,69,1220518377171 ,43,0832458407179 ,17,4144051639891
7.1592398 ,Left ,69,2790607854243 ,42,944960268858 ,17,4531563151919
7.1805817 ,Left ,69,1830021118069 ,43,0283043323858 ,17,5065199387805
7.198034 ,Left ,69,1797477215024 ,43,1558351151847 ,17,5361404995832
7.2188864 ,Left ,69,3159293301426 ,43,1647443487107 ,17,5398159668841
7.2406332 ,Left ,69,3602719067421 ,43,1037710837414 ,17,5504615011237
7.2573055 ,Left ,69,3131926869636 ,43,099573299489 ,17,6178257106274
7.2778379 ,Left ,69,3294836339228 ,43,0846386346232 ,17,694461484747
7.3001896 ,Left ,69,3775871519486 ,43,0464726556529 ,17,7544247155749
7.317031 ,Left ,69,4338337334162 ,43,0059247005321 ,17,7994461303711
7.3393751 ,Left ,69,4612670714018 ,42,9672679304171 ,17,8513561732061
7.3604883 ,Left ,69,4282268989739 ,42,9355707586577 ,17,9173198809884
7.3767531 ,Left ,69,3878195971962 ,42,9100906636611 ,17,978502166724
7.3995453 ,Left ,69,3942648994437 ,42,8952424144359 ,18,0267524033722
7.4204705 ,Left ,69,4266426421862 ,42,8846402585847 ,18,0593869367977
7.436808 ,Left ,69,4430373071147 ,42,8889299143129 ,18,0941521560452
7.459601 ,Left ,69,4374030868748 ,42,8988767548581 ,18,1271728380922
7.4855874 ,Left ,69,4440295208112 ,42,9080205967367 ,18,1602957232246
7.4984195 ,Left ,69,4404165508159 ,42,9217660733708 ,18,1936955048205
7.5176426 ,Left ,69,4138775774098 ,42,9310282681813 ,18,2337812821734
7.5341346 ,Left ,69,4787795104339 ,43,1296435752795 ,18,2282140910242
7.5565299 ,Left ,69,3710327532741 ,43,141713086834 ,18,2941045701334
7.5775536 ,Left ,69,5250419870231 ,43,3625974177679 ,18,2480554208881
7.5941016 ,Left ,69,4377390940085 ,43,2860756003028 ,18,2829557366262
7.6164904 ,Left ,69,3795723972743 ,43,4030358543692 ,18,3029289594383
7.6376211 ,Left ,69,4505103813783 ,43,450476946286 ,18,2564779474603
7.6540576 ,Left ,69,3083299730984 ,43,4862587922172 ,18,302435960381
7.6764141 ,Left ,69,2831842841758 ,43,4032314747068 ,18,2875123324389
7.6974606 ,Left ,69,256947467465 ,43,4128605180329 ,18,2509337339008
7.7138194 ,Left ,69,2315041338876 ,43,4052431936141 ,18,2444182956386
7.7363954 ,Left ,69,2109463572801 ,43,3711105400251 ,18,2354631034245
7.7573971 ,Left ,69,1749690412413 ,43,3219656490986 ,18,2229540837189
7.780044 ,Left ,69,150991534762 ,43,2597425653336 ,18,1284155634115
7.7964348 ,Left ,69,0643778162629 ,43,1010682643787 ,17,9908161953055
7.8172218 ,Left ,68,9976096188026 ,43,0658219813013 ,17,94977405063
7.8397509 ,Left ,68,9548499491078 ,43,0591741360298 ,17,93030015339
7.8561627 ,Left ,68,8977574115932 ,43,0344891209029 ,17,8845037790831
7.8774239 ,Left ,68,7603147737961 ,43,1723412395253 ,17,8237610367118
7.8998531 ,Left ,68,7803663474506 ,43,3543188978613 ,17,813815786306
7.9164206 ,Left ,68,9541104189856 ,43,4665406066732 ,17,7836320589448
7.9373537 ,Left ,69,0823560305156 ,43,5213701982403 ,17,7469049532893
7.9599026 ,Left ,69,1636190665255 ,43,5113044550128 ,17,7330403375051
7.9763797 ,Left ,69,1553169244671 ,43,4815359117566 ,17,7484202616154
7.9976882 ,Left ,69,0956961445045 ,43,4558535004385 ,17,7902460594709
8.019853 ,Left ,69,118599181036 ,43,4522698659208 ,17,8150181258345
8.0362594 ,Left ,69,1863680400244 ,43,4498161908662 ,17,8317363976727
8.0573564 ,Left ,69,2253701310203 ,43,4312462231108 ,17,8501332657382
8.0799022 ,Left ,69,196331394317 ,43,4056235279226 ,17,8914377092557
8.0963635 ,Left ,69,1666723702172 ,43,3754856879355 ,17,9243586607736
8.1175081 ,Left ,69,1301854852048 ,43,3337465617942 ,17,9313860574014
8.1401614 ,Left ,69,1377998022944 ,43,2833964748117 ,17,918239084688
8.1564314 ,Left ,69,1463605685369 ,43,2514860077033 ,17,9077712558455
8.1771594 ,Left ,69,1114611853854 ,43,2367429761243 ,17,9113683114298
8.1999015 ,Left ,69,0726454616911 ,43,2226918126727 ,17,9255208803991
8.2163585 ,Left ,69,0709514408965 ,43,2343282447877 ,17,9327574066385
8.2372393 ,Left ,69,0716499085427 ,43,243322772404 ,17,9404313902963
8.2597433 ,Left ,69,0528113668274 ,43,2622679291218 ,17,9504265515916
8.2762215 ,Left ,69,027176657038 ,43,2799674654533 ,17,9620420103136
8.2987712 ,Left ,69,0375565508417 ,43,3089132662878 ,17,9651527491774
8.3201675 ,Left ,69,0315592347478 ,43,31694881458 ,17,9648520109574
8.3364305 ,Left ,69,0313183457829 ,43,3246223962905 ,17,9719665151022
8.3588264 ,Left ,69,0311482138129 ,43,3342988569905 ,17,9717345378099
8.3819714 ,Left ,69,022377021165 ,43,3360037144354 ,17,9710310459591
8.3963817 ,Left ,69,0194368299196 ,43,3376332148096 ,17,9681598217103
8.4195486 ,Left ,69,0007760749474 ,43,3373057632272 ,17,9596757918052
8.4420125 ,Left ,68,9940131854831 ,43,3344551335656 ,17,9479869474996
8.4564161 ,Left ,68,9899630233726 ,43,3287447540135 ,17,9320389820639
8.4797131 ,Left ,68,9928045331559 ,43,317513446605 ,17,9163449593956
8.5021713 ,Left ,69,0050539464636 ,43,3111967978572 ,17,9024125861718
8.5162886 ,Left ,69,0059190322186 ,43,3009195568453 ,17,8916742919819
8.5395623 ,Left ,69,0086121090138 ,43,2997905368585 ,17,8896694837338
8.5621555 ,Left ,69,0079370917551 ,43,2999660634936 ,17,8866860074047
8.5832132 ,Left ,69,0123928916222 ,43,3038571794016 ,17,8845630855916
8.6072196 ,Left ,69,0201586177628 ,43,3132174472691 ,17,8815091897572
8.6219373 ,Left ,69,02165931878 ,43,3223228452193 ,17,8825215118911
8.6364904 ,Left ,69,0207772562803 ,43,3198139569661 ,17,8825808031086
8.6595168 ,Left ,69,0247085492781 ,43,3195188049552 ,17,8859712071819
8.6818445 ,Left ,69,0149285141434 ,43,3234712759835 ,17,8907571297477
8.6963412 ,Left ,69,0091369889604 ,43,3203581573718 ,17,9008460047722
8.7193317 ,Left ,69,0116608964586 ,43,3133691407098 ,17,9098043093772
8.742547 ,Left ,69,003907711476 ,43,3044366985176 ,17,9267913200699
8.7635298 ,Left ,68,9882510790588 ,43,3014254604974 ,17,9452711892399
8.7796929 ,Left ,69,0009907833081 ,43,2962508462026 ,17,9572738843931
8.8019957 ,Left ,69,03510752295 ,43,2761527753972 ,17,9766891311369
8.8232216 ,Left ,69,0596613436925 ,43,2519933987845 ,18,0032780977488
8.8398478 ,Left ,69,0756764635127 ,43,2183031458822 ,18,0394533250601
8.8624966 ,Left ,69,0641753081424 ,43,1881482400821 ,18,0827184545272
8.8834399 ,Left ,69,0566601266588 ,43,1647580432302 ,18,1178589010498
8.9073507 ,Left ,69,0617615193887 ,43,1436555528924 ,18,1484982960882
8.9222865 ,Left ,69,0688945832667 ,43,125146535118 ,18,1800960686908
8.9432291 ,Left ,69,0603551988035 ,43,1196142272342 ,18,2096057424319
8.9598654 ,Left ,69,0400316192477 ,43,1175586141739 ,18,235697990233
8.9821198 ,Left ,69,0373259294417 ,43,1151514060245 ,18,2551043796244
9.003292 ,Left ,69,0469502623125 ,43,1134784991381 ,18,2724527924894
9.0195382 ,Left ,69,0563651185914 ,43,1158832119502 ,18,2908956492785
9.04211 ,Left ,69,051238661259 ,43,120887366034 ,18,3152917567581
9.0632293 ,Left ,69,0554739141043 ,43,1196289843691 ,18,3329073920094
9.0795849 ,Left ,69,0626594690805 ,43,113456816645 ,18,337889584421
9.1020458 ,Left ,69,0642556064055 ,43,0985696072767 ,18,3385644985768
9.1233493 ,Left ,69,074189448965 ,43,0744034036165 ,18,3297735963046
9.1396051 ,Left ,69,0890349900302 ,43,0487896840558 ,18,3181996777828
9.1620882 ,Left ,69,1055559018091 ,43,0343439312987 ,18,3003154360665
9.1845461 ,Left ,69,1289164907699 ,43,0222865788503 ,18,2800875071436
9.1988423 ,Left ,69,1388729627704 ,43,0150277902699 ,18,2596110151629
9.221836 ,Left ,69,1437043258021 ,43,0257390635212 ,18,2398957852474
9.2443726 ,Left ,69,1398633510762 ,43,044544579494 ,18,2226588897263
9.2594031 ,Left ,69,1319011714629 ,43,0701629203798 ,18,2097923664618
9.2820166 ,Left ,69,1300513691434 ,43,1019272419855 ,18,1976491366063
9.3043931 ,Left ,69,1249446903441 ,43,1373926535729 ,18,1911057057777
9.3195007 ,Left ,69,1064052160704 ,43,1736552104732 ,18,1877302083869
9.3419112 ,Left ,69,0882355329724 ,43,2025690678537 ,18,1909918768695
9.3646221 ,Left ,69,0814298258634 ,43,2241284957329 ,18,1935697813704
9.37873 ,Left ,69,079648657517 ,43,229482792699 ,18,1977486151019
9.4021185 ,Left ,69,0744032135164 ,43,223789446958 ,18,2042439840968
9.4243797 ,Left ,69,0689584463162 ,43,215392777853 ,18,213736580549
9.4389561 ,Left ,69,0650927886988 ,43,1989342553934 ,18,222048316454
9.462382 ,Left ,69,0806756830403 ,43,1735233853203 ,18,2273769042711
9.4849847 ,Left ,69,1101936004429 ,43,1492769192452 ,18,2297224427292
9.4991903 ,Left ,69,1169258407146 ,43,1200212867743 ,18,2356775461522
9.5220771 ,Left ,69,1243954131997 ,43,0818616189149 ,18,2426118388722
9.5443141 ,Left ,69,121364274156 ,43,0498220556536 ,18,255278526143
9.5590615 ,Left ,69,1219349135234 ,43,020810951333 ,18,2680366979295
9.5819243 ,Left ,69,1179391991725 ,42,989422900048 ,18,2962079495733
9.6051537 ,Left ,69,1737797700885 ,42,8969830615744 ,18,2611310670046
9.618999 ,Left ,69,1510380943437 ,42,8865211111169 ,18,3110848612255
9.6419657 ,Left ,69,1765535511646 ,42,7703793635686 ,18,3458212001416
9.6642407 ,Left ,69,3303155910668 ,42,6813181938099 ,18,3563179899822
9.6854456 ,Left ,69,4868135664063 ,42,6213994332639 ,18,3824208637063
9.7019352 ,Left ,69,5872451845005 ,42,6037240412551 ,18,4412024466071
9.7245868 ,Left ,69,6652494190349 ,42,5726283081011 ,18,5194859476473
9.7455711 ,Left ,69,7151425427045 ,42,5080302500892 ,18,5817389536238
9.7618286 ,Left ,69,6996115169604 ,42,4035553445125 ,18,6424420002785
9.7848861 ,Left ,69,6600826963685 ,42,2988898383108 ,18,6980759850002
9.805867 ,Left ,69,6052528101911 ,42,2028166092312 ,18,732114044896
9.8224133 ,Left ,69,4773698842267 ,42,1188649761678 ,18,7588657152944
9.8449168 ,Left ,69,3230822793492 ,42,0862296636092 ,18,7749008909797
9.8659663 ,Left ,69,2039832343722 ,42,1229848147515 ,18,7767967742037
9.882197 ,Left ,69,1109880464669 ,42,1504236961148 ,18,7497736407167
9.9046846 ,Left ,69,1633809285577 ,42,129524274116 ,18,6712411413687
9.9259574 ,Left ,69,184101591088 ,42,1154388402996 ,18,6074736963981
9.9422721 ,Left ,69,1484347491746 ,42,0837470733877 ,18,5713572664134
9.9647442 ,Left ,69,1001447409008 ,42,0713829357297 ,18,5452112268714
9.9858262 ,Left ,69,0336422340917 ,42,0645053969554 ,18,5132287971964
10.002293 ,Left ,68,9508226347087 ,42,0767822853762 ,18,4926749954829
10.0246822 ,Left ,68,8516936860224 ,42,1138301535317 ,18,4385047866368
10.0459873 ,Left ,68,852997828923 ,42,0208130558205 ,18,3442201354436
10.0616651 ,Left ,68,8752122269138 ,41,9032411739733 ,18,3776855266158
10.0846727 ,Left ,68,7555816280099 ,42,0396204615887 ,18,3915363789901
10.105588 ,Left ,68,6529432244167 ,42,2550003229239 ,18,3696727040354
10.1214218 ,Left ,68,8068962465225 ,42,3870379278064 ,18,3145185187044
10.1443894 ,Left ,68,9546542018521 ,42,482488408417 ,18,2727163346255
10.1670978 ,Left ,69,0031706047037 ,42,5496581653015 ,18,2260483687175
10.1813889 ,Left ,68,9671661649268 ,42,5788635990342 ,18,1807561446924
10.2051016 ,Left ,68,9025731451765 ,42,5732532866965 ,18,1468367734522
10.2270669 ,Left ,68,8700238854505 ,42,5421501271651 ,18,12053657883
10.2416062 ,Left ,68,9073581987346 ,42,4720605155948 ,18,0808350806372
10.2646678 ,Left ,68,9311996415366 ,42,3790308753996 ,18,0466749645415
10.2932912 ,Left ,68,8821836296347 ,42,2798383301217 ,18,0291760225792
10.3082 ,Left ,68,8143989955119 ,42,2172014239116 ,17,9995462971723
10.3247858 ,Left ,68,7828956259396 ,42,1537899143018 ,17,9553501972649
10.3473847 ,Left ,68,7550441326278 ,42,1053547574299 ,17,9274398012698
10.3685113 ,Left ,68,7183168064725 ,42,0239212019797 ,17,9369538133294
10.3845903 ,Left ,68,8099403118618 ,41,9166026744156 ,17,9202870786772
10.4071965 ,Left ,68,8193404632978 ,42,0431620828921 ,17,8922139819871
10.4287706 ,Left ,68,7727530130647 ,42,2027925539471 ,17,8033660003984
10.4448259 ,Left ,68,797979786114 ,42,2359029198532 ,17,7495557482358
10.4674432 ,Left ,68,8157865816608 ,42,2810724355802 ,17,7070117632507
10.4885438 ,Left ,68,9042906601871 ,42,2725113398998 ,17,6613830342104
10.5044116 ,Left ,68,9649911370572 ,42,2186174163036 ,17,6890036144523
10.5269836 ,Left ,68,9719275817424 ,42,1636925039884 ,17,716446531404
10.5479656 ,Left ,68,9362508808618 ,42,3012842469768 ,17,7199540125516
10.5640928 ,Left ,69,0087625827933 ,42,5334459583479 ,17,646539723274
10.5901741 ,Left ,69,1303963626648 ,42,7154303163376 ,17,5755471814455
10.6023788 ,Left ,69,1157245808308 ,42,8433196503145 ,17,5437909930328
10.6230362 ,Left ,69,0234722991658 ,42,951488970336 ,17,5401434451219
10.6394025 ,Left ,68,8311566188729 ,42,9572263431813 ,17,5754443050851
10.6603787 ,Left ,68,9507900295195 ,43,1679052919596 ,17,5257761466684
10.6830056 ,Left ,68,855697777077 ,43,104272922937 ,17,583518638233
10.6999091 ,Left ,68,7296242488429 ,43,1656837802335 ,17,6876856043658
10.7209986 ,Left ,68,7586319008285 ,43,1378889134655 ,17,7281202464153
10.7430765 ,Left ,68,5473324283058 ,43,1251121943473 ,17,8858020238739
10.7596152 ,Left ,68,5598341500587 ,43,1435014281157 ,17,954065575497
10.7804644 ,Left ,68,5368166494611 ,42,9239376088271 ,18,0376951510048
10.8032193 ,Left ,68,6761616696213 ,42,7576627477911 ,18,0498251284709
10.8200469 ,Left ,68,6899164544993 ,42,7928639942927 ,17,9819671301149
10.8405266 ,Left ,68,59323321309 ,42,9891559929732 ,17,8577746460671
10.8630064 ,Left ,68,6821793291531 ,43,108827683761 ,17,7323281738049
10.8793258 ,Left ,68,79887071551 ,43,1654558044603 ,17,6220847107514
10.9002937 ,Left ,68,8137905179015 ,43,204484690507 ,17,5225691343044
10.9231551 ,Left ,68,8296547873155 ,43,4306981298375 ,17,4140943486364
10.9394956 ,Left ,68,6381092897845 ,43,4191944181317 ,17,3609326567988
10.9605929 ,Left ,68,6867879154084 ,43,583140189099 ,17,2235187985755
10.983263 ,Left ,68,6592280449861 ,43,6827083691877 ,17,1313892344906
10.9995551 ,Left ,68,6831295585649 ,43,7359372517962 ,17,0320190895253
11.0210241 ,Left ,68,7198810656122 ,43,7805645098365 ,16,9572875996158
11.0432782 ,Left ,68,7015863878679 ,43,810572123118 ,16,9158892489394
11.0596114 ,Left ,68,6672273344236 ,43,8269923105128 ,16,8956582146385
11.0805425 ,Left ,68,6472082866585 ,43,8443715062671 ,16,8861978935685
11.1031018 ,Left ,68,6583698565314 ,43,8524179625123 ,16,8794997333689
11.1189219 ,Left ,68,6714186310831 ,43,8543223380309 ,16,8642755023323
11.1409292 ,Left ,68,6898622545962 ,43,8349999582134 ,16,8427236660882
11.1633511 ,Left ,68,7090510900126 ,43,8012201200186 ,16,8158941411858
11.1788951 ,Left ,68,7063563902768 ,43,7568218479003 ,16,7910056432095
11.2007099 ,Left ,68,6999382821873 ,43,7213250966131 ,16,7721074261914
11.2235352 ,Left ,68,7021342493596 ,43,6845249765535 ,16,7542190148348
11.2393077 ,Left ,68,7095701474757 ,43,6437960682703 ,16,7399793926472
11.2609423 ,Left ,68,7213303077359 ,43,608464625168 ,16,7310846581378
11.2834489 ,Left ,68,7199665848996 ,43,5804648153432 ,16,7323182544952
11.2992448 ,Left ,68,7112591135398 ,43,5587743296728 ,16,7423779868976
11.3225757 ,Left ,68,7230794012323 ,43,5456502846609 ,16,742292254876
11.3434769 ,Left ,68,7458192007464 ,43,5295566074071 ,16,7481011332813
11.3589185 ,Left ,68,7588024624907 ,43,5162690272619 ,16,7541854140584
11.381944 ,Left ,68,7584350648068 ,43,5106812207947 ,16,7655574202422
11.4031509 ,Left ,68,7563494180143 ,43,5011775622275 ,16,7764420135861
11.4187034 ,Left ,68,7611017074901 ,43,5021459196243 ,16,7856109188556
11.4420897 ,Left ,68,7758456692178 ,43,5127784750164 ,16,7893029312611
11.4631092 ,Left ,68,7947896640408 ,43,5277715895339 ,16,7859391198055
11.4869373 ,Left ,68,7951809061411 ,43,5343945459734 ,16,787062792831
11.5096195 ,Left ,68,7787274439816 ,43,5662616976529 ,16,7801433910014
11.5237438 ,Left ,68,7676269679614 ,43,5907929268691 ,16,7657198009343
11.5469337 ,Left ,68,7699339672429 ,43,6177367441717 ,16,7450983425941
11.5695237 ,Left ,68,7839189015322 ,43,6319097816263 ,16,7194356880738
11.5907292 ,Left ,68,7701081955798 ,43,6531000183626 ,16,7074827327661
11.6070785 ,Left ,68,7136078013762 ,43,7470409362516 ,16,7024525066954
11.6370355 ,Left ,68,6707853588605 ,43,9230557679107 ,16,6620249761209
11.6504283 ,Left ,68,6366737035469 ,43,8958157186283 ,16,6265357869156
11.6668056 ,Left ,68,6778078003285 ,43,7179380883183 ,16,6701725073909
11.689522 ,Left ,68,6357073897277 ,43,6389930110346 ,16,7401097570149
11.7105041 ,Left ,68,5877009835586 ,43,6977003347044 ,16,7728230357945
11.7267597 ,Left ,68,8144464268494 ,43,6986830268096 ,16,712860026048
11.7496061 ,Left ,68,9280662213304 ,43,588805387027 ,16,6442937325042
11.7703614 ,Left ,68,8753106773404 ,43,5402442554239 ,16,6466768976693
11.7864147 ,Left ,68,8489434538224 ,43,5535274876745 ,16,6811540408129
11.8096808 ,Left ,68,8732840970252 ,43,5388927861724 ,16,6987458787791
11.8306963 ,Left ,68,9512507140557 ,43,4661252148906 ,16,7384910008052
11.8463872 ,Left ,69,0483739093067 ,43,2587524527397 ,16,8274390817805
11.869832 ,Left ,69,1443839224732 ,43,0979034248541 ,16,8928017525671
11.8905467 ,Left ,69,0293029349031 ,43,1468856207181 ,16,9531437777693
11.9066946 ,Left ,69,0364041606387 ,43,2720747639033 ,16,9750093390318
11.9295553 ,Left ,69,2110901340513 ,43,3155131701063 ,16,9929158249405
11.9508529 ,Left ,69,2865257289764 ,43,3014661247568 ,17,0461273773707
11.9667458 ,Left ,69,2724841587862 ,43,3098530116192 ,17,1475304485283
11.9898914 ,Left ,69,2643115807777 ,43,3040873773204 ,17,2618165783137
12.0122498 ,Left ,69,2624307939694 ,43,285935228095 ,17,3496504592532
12.0332708 ,Left ,69,2665618073326 ,43,2459272552548 ,17,416136570652
12.0497041 ,Left ,69,2677207320171 ,43,1848325855548 ,17,4753417599514
12.0717784 ,Left ,69,2621183482505 ,43,1178909944757 ,17,544643490423
12.0869985 ,Left ,69,2375594044499 ,43,0706825144042 ,17,6268097784546
12.1092841 ,Left ,69,2301510471604 ,43,0461826397639 ,17,7034366682203
12.1319141 ,Left ,69,2194560190667 ,43,0381042600711 ,17,7729247251164
12.1469055 ,Left ,69,2222251176729 ,43,0214616131417 ,17,846125195151
12.1695332 ,Left ,69,2393927709291 ,43,016056209823 ,17,9344884539022
12.1919829 ,Left ,69,2845484397074 ,43,00614771177 ,18,0107101501492
12.2063792 ,Left ,69,305968319765 ,43,0109110488231 ,18,077750212881
12.2295444 ,Left ,69,3265837326068 ,43,0251996645757 ,18,1277800926524
12.2520154 ,Left ,69,3359175899545 ,43,0415766052335 ,18,170286833402
12.2664001 ,Left ,69,345461488164 ,43,0569135477213 ,18,189937657981
12.2895782 ,Left ,69,3681761675031 ,43,0656924901713 ,18,1983141490215
12.3118979 ,Left ,69,3512113278659 ,43,0840810793706 ,18,2175931139915
12.3263774 ,Left ,69,3225231895642 ,43,1083451145983 ,18,2400913837608
12.3496202 ,Left ,69,3046162019159 ,43,1322773158233 ,18,2569264262908
12.3721575 ,Left ,69,2945643112096 ,43,1584673865194 ,18,2586619354514
12.3931556 ,Left ,69,2909796708319 ,43,1798781979248 ,18,2617888839841
12.4096371 ,Left ,69,2938025478797 ,43,2054203162683 ,18,2572495003689
12.4320373 ,Left ,69,2905573466957 ,43,2308571033203 ,18,2411771845423
12.4531119 ,Left ,69,2713117966947 ,43,2459565326333 ,18,2178447728369
12.4696996 ,Left ,69,2703228777078 ,43,2791627785402 ,18,1829677338857
12.4920581 ,Left ,69,2724459895547 ,43,311528515363 ,18,1441157593809
12.513221 ,Left ,69,2568439693204 ,43,3453558167464 ,18,1112925920157
12.5295372 ,Left ,69,2289215540925 ,43,3851090391191 ,18,0784827253888
12.5518269 ,Left ,69,2071188848711 ,43,4294200332744 ,18,0330229937436
12.5733528 ,Left ,69,1966604551259 ,43,4663459731907 ,17,9868610220257
12.5893136 ,Left ,69,1959148982961 ,43,5039706775631 ,17,9412494587113
12.6120626 ,Left ,69,1996182734049 ,43,5351123855499 ,17,8893990342788
12.6347713 ,Left ,69,2007962235627 ,43,5470461559488 ,17,845199366783
12.6560073 ,Left ,69,1866899721471 ,43,5502338672543 ,17,8048868094175
12.6725144 ,Left ,69,192602878291 ,43,5263082391978 ,17,7789570288064
12.6933007 ,Left ,69,2137385398274 ,43,5084681051715 ,17,7755904953963
12.7097279 ,Left ,69,2025176515166 ,43,5696197982587 ,17,826624759929
12.7321704 ,Left ,69,3591493861579 ,43,5445565982037 ,17,7685568615746
12.7529331 ,Left ,69,4457880698792 ,43,4581176544481 ,17,7330006051995
12.7686903 ,Left ,69,4364581369441 ,43,438646356297 ,17,7650875198929
12.7920289 ,Left ,69,360095824199 ,43,5804931790243 ,17,7247631490343
12.8134166 ,Left ,69,4899873726639 ,43,7813318095819 ,17,5737557502954
12.8292141 ,Left ,69,8097574207514 ,43,86566436394 ,17,404151051299
12.8525196 ,Left ,70,0152584043628 ,43,8256111707408 ,17,3141418957421
12.8734472 ,Left ,70,0490484615598 ,43,7218319402861 ,17,3046923428467
12.8893015 ,Left ,69,9290647742546 ,43,5266284408012 ,17,3320499938502
12.9124391 ,Left ,69,7448067434782 ,43,3483340284521 ,17,3914691112739
12.9348727 ,Left ,69,5381534931605 ,43,2139050733618 ,17,4963040152773
12.9488208 ,Left ,69,4282012504313 ,43,1194347904158 ,17,5809240746387
12.9733421 ,Left ,69,4175087281217 ,43,1626678058326 ,17,6026590725696
12.9943263 ,Left ,69,2610135013501 ,43,3875089024928 ,17,5873875713479
13.009289 ,Left ,69,2410420567973 ,43,5000117527207 ,17,5463200268205
13.0325576 ,Left ,69,3398439290353 ,43,4631485334437 ,17,5081086372526
13.0549142 ,Left ,69,3149801819196 ,43,4572548527908 ,17,5077764478295
13.0694142 ,Left ,69,2928279552031 ,43,4267909457981 ,17,5348059689831
13.0926061 ,Left ,69,3128208994698 ,43,295141818698 ,17,5772397930509
13.1147077 ,Left ,69,3431703064487 ,43,1372271450084 ,17,5810973750902
13.135557 ,Left ,69,3051355661257 ,43,2314280571445 ,17,5747522727441
13.1518884 ,Left ,69,2238703109784 ,43,480131610992 ,17,5724067199458
13.1745823 ,Left ,69,2648958830719 ,43,632864571704 ,17,580591844803
13.1954532 ,Left ,69,2711281829518 ,43,7341228343303 ,17,6169599832548
13.2120347 ,Left ,69,1771385018564 ,43,8325180450921 ,17,6876833146583
13.2342934 ,Left ,69,0611246418066 ,43,9440585526742 ,17,772622535175
13.255576 ,Left ,68,9926914191596 ,44,03307992928 ,17,84855372192
13.272079 ,Left ,68,9441361953785 ,44,1077223823793 ,17,9168145576341
13.2942906 ,Left ,68,8886946665498 ,44,0956760048104 ,18,0105825907433
13.3155483 ,Left ,68,8228795410472 ,43,8981494017065 ,18,0731367659899
13.3320361 ,Left ,68,8839819392407 ,43,7819461000835 ,17,9953978793726
13.3548093 ,Left ,68,7728375950784 ,43,897247451034 ,17,8626895465627
13.3760096 ,Left ,68,6921408162283 ,44,105804323016 ,17,7320413934436
13.3922467 ,Left ,68,7990949975627 ,44,2348942026888 ,17,6029942935105
13.4148431 ,Left ,68,8852965532131 ,44,2792806682444 ,17,4692957516062
13.4356333 ,Left ,68,8358281500418 ,44,3554120600606 ,17,3701147644104
13.4518426 ,Left ,68,7808921768702 ,44,4205328449648 ,17,2891901047744
13.4742681 ,Left ,68,7289372795828 ,44,4848507112412 ,17,2101359247795
13.4959568 ,Left ,68,7184528421084 ,44,5453519681462 ,17,1208382081956
13.5119504 ,Left ,68,7244469168015 ,44,5875039308203 ,17,0574354461806
13.5342065 ,Left ,68,7096315637838 ,44,6202099665618 ,17,0109128736781
13.5553537 ,Left ,68,6669194834357 ,44,663710207212 ,16,9862431048536
13.5718268 ,Left ,68,6493042187744 ,44,7299492539696 ,16,931981199199
13.5942637 ,Left ,68,6411543614317 ,44,6463228155208 ,16,8905436335016
13.6155061 ,Left ,68,6319737215511 ,44,3663659782961 ,16,9661061424619
13.6317199 ,Left ,68,6723006574877 ,44,2390302391652 ,17,014331951381
13.6542099 ,Left ,68,6058350995933 ,44,2735378418568 ,17,0587694894976
13.6754409 ,Left ,68,8069409738516 ,44,258924017908 ,17,0121247456915
13.691158 ,Left ,68,9945293506958 ,44,109000063627 ,16,9329074182951
13.7145227 ,Left ,68,9588922685605 ,43,981805004878 ,16,9199370376661
13.7359613 ,Left ,68,8868099453683 ,43,9768318666778 ,16,9859768678425
13.7514419 ,Left ,68,978325113347 ,43,9626011470879 ,17,0093557557406
13.7746668 ,Left ,69,0995820190061 ,43,7524741421492 ,17,0473972583527
13.7961438 ,Left ,69,2731465878788 ,43,3997043164309 ,17,116742966682
13.8117258 ,Left ,69,2866993331718 ,43,2986514765567 ,17,1528281626154
13.8348681 ,Left ,69,155585617278 ,43,4071884786362 ,17,1926558884718
13.8559718 ,Left ,69,2834499065914 ,43,4606662282177 ,17,1769938664484
13.8716533 ,Left ,69,4001766898876 ,43,4057753496298 ,17,1433513222554
13.8948853 ,Left ,69,3922895041537 ,43,3387270345147 ,17,147227976718
13.9173884 ,Left ,69,4278943166111 ,43,318202991986 ,17,187279346261
13.931595 ,Left ,69,4869577969489 ,43,269568435654 ,17,2388985840416
13.9543742 ,Left ,69,5268485410914 ,43,2112471567183 ,17,2784808791447
13.976767 ,Left ,69,5423773943472 ,43,1679639773825 ,17,317863315834
13.9920584 ,Left ,69,534915531644 ,43,1295997083661 ,17,3540324445489
14.0145787 ,Left ,69,5412624986238 ,43,1085389791462 ,17,3856949861842
14.0370454 ,Left ,69,5529206881712 ,43,0876609100619 ,17,4120282362905
14.059803 ,Left ,69,5792339531733 ,43,0782437877313 ,17,4379331368018
14.0676858 ,Left ,69,5909919055825 ,43,082608514709 ,17,4657472502028
14.0881345 ,Left ,69,5712946686953 ,43,0947454817439 ,17,4924431974212
14.1036966 ,Left ,69,7058864738468 ,43,1541453886759 ,17,4784964589603
14.1262153 ,Left ,69,554221511427 ,43,0046871055959 ,17,5747485676723
14.1488381 ,Left ,69,6317345087189 ,43,1280963190241 ,17,5794026971696
14.1637715 ,Left ,69,6936268936234 ,43,0943314579966 ,17,5811710279454
14.1864613 ,Left ,69,6132273656488 ,43,1278264462033 ,17,6475986470126
14.2097192 ,Left ,69,6416013241861 ,43,0980978709599 ,17,6479576357685
14.2238819 ,Left ,69,5706166859468 ,43,1596740057841 ,17,6936927169218
14.2464581 ,Left ,69,6927812843833 ,43,3268063846986 ,17,632724991932
14.2696618 ,Left ,69,6257868481935 ,43,3370277579852 ,17,6377412082246
14.2838892 ,Left ,69,5905204015793 ,43,4092261422953 ,17,6230764964096
14.3064605 ,Left ,69,554355341374 ,43,486775936349 ,17,6057078254101
14.3295394 ,Left ,69,52629133599 ,43,5405560762994 ,17,5953714996254
14.3439688 ,Left ,69,4868825990526 ,43,5786866273163 ,17,6001135501426
14.3664574 ,Left ,69,4527318435698 ,43,6024015541783 ,17,6086320187364
14.3896759 ,Left ,69,5821407538738 ,43,7177082777673 ,17,6004762930156
14.4106765 ,Left ,69,4904389795558 ,43,7444723747921 ,17,6488607263673
14.4264588 ,Left ,69,4725146248951 ,43,6308567292554 ,17,6822030243809
14.4588011 ,Left ,69,4384508020151 ,43,5921477961465 ,17,6645581524998
14.471035 ,Left ,69,4459814316919 ,43,3982279252571 ,17,6709031998993
14.4866669 ,Left ,69,3830810627437 ,43,3029293575617 ,17,6927532085921
14.5098709 ,Left ,69,1898979306677 ,43,3622372511336 ,17,6459232805628
14.5309197 ,Left ,69,1943932131453 ,43,4508962681191 ,17,5384569247522
14.5465475 ,Left ,69,4257498909318 ,43,4098134178751 ,17,3976477445129
14.5695774 ,Left ,69,6005416306039 ,43,2908350591849 ,17,319422718572
14.5906595 ,Left ,69,5392221045954 ,43,2313273012614 ,17,3157849285839
14.6063171 ,Left ,69,3654078663759 ,43,139483240518 ,17,3142246902008
14.6296569 ,Left ,69,2492274585346 ,43,0554326170411 ,17,3025660305166
14.6506654 ,Left ,69,2526099998146 ,43,0129620804287 ,17,2878542482651
14.6664379 ,Left ,69,3397001010276 ,42,9576706468486 ,17,2539062640023
14.6898287 ,Left ,69,440652074482 ,42,8299130571964 ,17,2279272157315
14.7105589 ,Left ,69,3475399484821 ,42,8584870236394 ,17,3117062973008
14.7257348 ,Left ,69,1842147657246 ,43,0329221139617 ,17,3720759356993
14.7397974 ,Left ,69,2679690734379 ,43,1251919745644 ,17,3710845058481
14.7622904 ,Left ,69,4044467612419 ,43,1332079675618 ,17,353113491143
14.7855376 ,Left ,69,3230568640355 ,43,1519942341758 ,17,3919848894431
14.8001422 ,Left ,69,245189717122 ,43,1644237649895 ,17,4468424545738
14.8225411 ,Left ,69,2615675297827 ,43,0757871422052 ,17,4840482603884
14.8456921 ,Left ,69,2323566854422 ,42,9554313542619 ,17,4849074004356
14.8600336 ,Left ,69,2210616222046 ,42,979247212653 ,17,4503022512145
14.8826322 ,Left ,69,0775540207305 ,43,1697683101837 ,17,4231598847832
14.9056274 ,Left ,69,0914544238967 ,43,3522850027911 ,17,4058467109495
14.9199724 ,Left ,69,2612961249332 ,43,4465190920658 ,17,3957201739382
14.9423841 ,Left ,69,297759654001 ,43,5150370521965 ,17,4164542875067
14.9663279 ,Left ,69,2202680520464 ,43,5990003984918 ,17,478834176506
14.9815782 ,Left ,69,1635708627386 ,43,6664726848067 ,17,5353581274111
15.0100006 ,Left ,69,1439334821476 ,43,7353884801457 ,17,57262857696
15.0248958 ,Left ,69,1518781237604 ,43,7820484381367 ,17,6083129184196
15.0416482 ,Left ,69,1633099611552 ,43,8135285274426 ,17,6349328456684
15.0623966 ,Left ,69,1369527100225 ,43,8111585267786 ,17,6693604443687
15.0849266 ,Left ,69,0834202141338 ,43,8065476634519 ,17,7116279537267
15.1014926 ,Left ,69,0431289647384 ,43,8215433001262 ,17,7449988203166
15.1222982 ,Left ,69,0239521776998 ,43,8512043980102 ,17,7503184722295
15.145084 ,Left ,69,0135687633119 ,43,8628897942701 ,17,7588564534204
15.1601056 ,Left ,68,991155138827 ,43,8599993287355 ,17,7826565176525
15.1827296 ,Left ,68,9758975294935 ,43,8339126438169 ,17,8052229205184
15.2051228 ,Left ,68,959700826076 ,43,7851843653502 ,17,8339052053662
15.2214756 ,Left ,68,9167022611372 ,43,7883061902437 ,17,877747205211
15.2424605 ,Left ,68,9091603508505 ,43,8236357047509 ,17,8931109110758
15.2648394 ,Left ,68,9247820907948 ,43,705406962838 ,17,9142594694432
15.2813176 ,Left ,68,9272838543287 ,43,5969863614093 ,17,9251142038569
15.3024592 ,Left ,68,9262074062472 ,43,6453611290713 ,17,8399743522394
15.3256739 ,Left ,68,8356378837437 ,43,8642898368941 ,17,7314576244545
15.3400562 ,Left ,68,9158255865188 ,44,0169653494975 ,17,6139341544317
15.3626855 ,Left ,69,0184299966542 ,44,1164678202472 ,17,4954555606476
15.3858156 ,Left ,69,0139373806297 ,44,2061160407703 ,17,3844551812025
15.4000639 ,Left ,69,0041659402417 ,44,3175945098481 ,17,270551304591
15.4226882 ,Left ,68,9593093058439 ,44,4252613677891 ,17,1536138366522
15.4456004 ,Left ,68,8965607834503 ,44,5215214392001 ,17,0363569550975
15.4599019 ,Left ,68,8634841210853 ,44,5930773006092 ,16,9222435148105
15.4826252 ,Left ,68,8350791802118 ,44,6302450078875 ,16,8110191465038
15.5055542 ,Left ,68,7715981962076 ,44,6189684867367 ,16,7268425489698
15.5198105 ,Left ,68,721311296302 ,44,639689469535 ,16,6537447027516
15.5421317 ,Left ,68,6654845115562 ,44,6910830195403 ,16,5686534083319
15.565305 ,Left ,68,6326003199673 ,44,6273917063844 ,16,5224876005203
15.579743 ,Left ,68,639427298788 ,44,2870776917754 ,16,6201933681812
15.6021993 ,Left ,68,7436490924291 ,44,0456077788547 ,16,72255047732
15.625402 ,Left ,68,6548123674983 ,44,0689538667563 ,16,8204508757104
15.6397156 ,Left ,68,845553977039 ,44,1237049717461 ,16,8370113329139
15.6622059 ,Left ,69,1306978996676 ,44,0277990952198 ,16,8118992683611
15.6849888 ,Left ,69,1188200799925 ,43,8860295216045 ,16,8254028520917
15.6998678 ,Left ,69,0622545180296 ,43,8099722547932 ,16,8749038789476
15.7223189 ,Left ,69,0863735066423 ,43,772237243391 ,16,890162100533
15.7455606 ,Left ,69,0799661989058 ,43,7510744248347 ,16,8925820958427
15.7685305 ,Left ,69,111371647123 ,43,5976747724868 ,16,9074785384013
15.7823142 ,Left ,69,2556598187921 ,43,2776985654575 ,16,9674325247716
15.80565 ,Left ,69,2362362431365 ,43,2239130100437 ,17,029632243968
15.8282445 ,Left ,69,0149403541969 ,43,367528367562 ,17,10137536074
15.8427057 ,Left ,69,1132654949135 ,43,4509908445154 ,17,1242972887605
15.8657806 ,Left ,69,3012452393876 ,43,4149156052093 ,17,0985485421948
15.8882912 ,Left ,69,3255867153971 ,43,3466623262777 ,17,0946027162592
15.9025987 ,Left ,69,3037668788771 ,43,3305772218311 ,17,1285090919431
15.9259361 ,Left ,69,356070027878 ,43,3023036942217 ,17,1634211740865
15.9482653 ,Left ,69,4137566563806 ,43,2710069792562 ,17,1737237007219
15.9627599 ,Left ,69,4704869309773 ,43,2419771884299 ,17,1703769766449
15.9856943 ,Left ,69,4824026361202 ,43,218671157136 ,17,1761075595515
16.000089 ,Left ,69,4270927817248 ,43,1931078387305 ,17,1955658358994
16.0225285 ,Left ,69,4112083686907 ,43,1778012544591 ,17,2125044713426
16.0449527 ,Left ,69,4329666088902 ,43,1625806772705 ,17,215201241067
16.0598357 ,Left ,69,4923762153441 ,43,1536069602289 ,17,2256284353342
16.0824728 ,Left ,69,5160547429861 ,43,1473074960769 ,17,2324609126413
16.1054863 ,Left ,69,5368672257215 ,43,1411893436242 ,17,2560119154154
16.1226335 ,Left ,69,5565677678721 ,43,1466999312969 ,17,2883723920697
16.1423687 ,Left ,69,5843962732674 ,43,1543050760487 ,17,3243781895738
16.1649569 ,Left ,69,6123717414463 ,43,1059850789047 ,17,3312964141913
16.1797951 ,Left ,69,5115069368899 ,43,0358249932823 ,17,3765051114216
16.2021928 ,Left ,69,5900635270973 ,42,980576087039 ,17,3828361514309
16.2247348 ,Left ,69,7084281101683 ,42,9623762834455 ,17,3737998742398
16.2429658 ,Left ,69,8337700742005 ,42,9214680213432 ,17,3568684299088
16.262654 ,Left ,69,9300521798733 ,42,8364227845158 ,17,3452589714647
16.2847328 ,Left ,69,9388182325165 ,42,7049792257807 ,17,3725442578612
16.3025646 ,Left ,69,833240301619 ,42,5627030735335 ,17,4384412391722
16.3237822 ,Left ,69,6477978539097 ,42,4718348664758 ,17,5301206151358
16.3450672 ,Left ,69,4612254483272 ,42,4850604171129 ,17,6183098002981
16.3629805 ,Left ,69,3372349363953 ,42,6159987185448 ,17,6847531884643
16.3838476 ,Left ,69,3176428373587 ,42,806019576961 ,17,7153359514354
16.4050417 ,Left ,69,3918561933107 ,42,9772467212422 ,17,7127698007865
16.4230367 ,Left ,69,5109519004794 ,43,0492135503816 ,17,6948675136063
16.4438239 ,Left ,69,5919692730649 ,43,0005010917706 ,17,6870337169364
16.4647884 ,Left ,69,5609374084171 ,42,9623272151272 ,17,7084944335185
16.4828232 ,Left ,69,553642007632 ,42,9737795771833 ,17,7432223312891
16.5035953 ,Left ,69,5257540081234 ,42,9994462509496 ,17,774345708797
16.5246245 ,Left ,69,5027685707572 ,43,0382926321344 ,17,7923634742555
16.5431971 ,Left ,69,5025272494639 ,43,0801291711437 ,17,7921370660527
16.5638931 ,Left ,69,4954113052135 ,43,1183785233227 ,17,7869450702773
16.585542 ,Left ,69,4884232120573 ,43,1530773952396 ,17,7756134503931
16.6027765 ,Left ,69,4781761024622 ,43,1724850654977 ,17,7559258508036
16.6236154 ,Left ,69,4615424966139 ,43,1622385520756 ,17,7377674550725
16.6454399 ,Left ,69,4559400133434 ,43,1341925069067 ,17,72106634771
16.6630368 ,Left ,69,4267302579563 ,43,0987650949997 ,17,7109240434495
16.6840527 ,Left ,69,4326822375037 ,43,0901189269674 ,17,7316559253098
16.7051696 ,Left ,69,4780882667896 ,43,0897312503788 ,17,7329810400055
16.7278429 ,Left ,69,4509761378933 ,42,9277880199336 ,17,7093180511238
16.7455813 ,Left ,69,4000060093907 ,42,8338407796239 ,17,7349342470549
16.7652152 ,Left ,69,2897303660713 ,42,9083110157083 ,17,6959515795904
16.7877241 ,Left ,69,324876572064 ,43,0317150936391 ,17,60020295156
16.8055928 ,Left ,69,5606366831523 ,43,0476431640157 ,17,4962620474011
16.8249482 ,Left ,69,7381035715185 ,43,0089744025952 ,17,441351247551
16.8472371 ,Left ,69,690441432374 ,43,0098151318512 ,17,4533145988479
16.8653534 ,Left ,69,5342117801586 ,42,9873629677104 ,17,4687937723886
16.8849842 ,Left ,69,4144515521592 ,42,9186287092254 ,17,46757143778
16.9074139 ,Left ,69,4027999276211 ,42,831750267532 ,17,4567851008268
16.925411 ,Left ,69,4009852192578 ,42,7670677432646 ,17,4957025152159
16.9450036 ,Left ,69,3221134885572 ,42,7098120742724 ,17,5676643772973
16.9675986 ,Left ,69,2579495514157 ,42,6070277186141 ,17,6169472281374
16.9854442 ,Left ,69,3137521814264 ,42,5128793129876 ,17,610849295566
17.0053 ,Left ,69,1907510362243 ,42,6435543391259 ,17,5876349357721
17.0276258 ,Left ,69,112738304262 ,42,7533975094436 ,17,5348592555503
17.0454573 ,Left ,69,1831533584643 ,42,7655243873442 ,17,4981225045438
17.0652505 ,Left ,69,182605735761 ,42,7446405767966 ,17,4850391812983
17.0878277 ,Left ,69,1528198914827 ,42,7554061635434 ,17,4991669117061
17.1055185 ,Left ,69,2045720977438 ,42,6585889237436 ,17,5098769942904
17.1252552 ,Left ,69,2066275711179 ,42,4973683948522 ,17,5255993258162
17.1476205 ,Left ,69,1711414429366 ,42,5028794259964 ,17,5417566665893
17.1655619 ,Left ,69,1011308092009 ,42,6860491459004 ,17,5352122727194
17.1849692 ,Left ,69,1644054442893 ,42,87153695091 ,17,5249810925009
17.2077031 ,Left ,69,2915124579013 ,42,9869404254804 ,17,5125997412427
17.2253819 ,Left ,69,2997299667913 ,43,0851755262724 ,17,5089155663028
17.2451325 ,Left ,69,2422896200369 ,43,2043179375351 ,17,5240489304947
17.2675517 ,Left ,69,2002724231038 ,43,3180788488301 ,17,522666724638
17.2856715 ,Left ,69,1636248255833 ,43,4152733038381 ,17,5240661725096
17.3052797 ,Left ,69,1370733809095 ,43,4939118073298 ,17,5404579961433
17.327563 ,Left ,69,0977513573612 ,43,5273816783089 ,17,5785510287781
17.3456532 ,Left ,69,0121930083718 ,43,5214918397948 ,17,6352270107845
17.366533 ,Left ,68,9053370826075 ,43,5556686293275 ,17,7069871114088
17.3876131 ,Left ,68,8300031876869 ,43,5504637992435 ,17,7784900384202
17.4055795 ,Left ,68,7861307148632 ,43,3676838509799 ,17,8363047934796
17.4265565 ,Left ,68,9623207167419 ,43,2273110197489 ,17,7491014683831
17.4474609 ,Left ,68,9444345131203 ,43,3207518567124 ,17,6055792446299
17.465655 ,Left ,68,869598186821 ,43,5371128655266 ,17,4609744186317
17.4865413 ,Left ,69,0079927475087 ,43,6921036726247 ,17,3283207777528
17.5075689 ,Left ,69,122570109965 ,43,7750860109513 ,17,1905282274991
17.5254471 ,Left ,69,0640123577555 ,43,8976343691725 ,17,0938670277197
17.5479859 ,Left ,69,0166668298993 ,44,035153944404 ,16,9676794314392
17.5675759 ,Left ,68,9524090729309 ,44,1669846188074 ,16,8178325358969
17.5855994 ,Left ,68,8891917757355 ,44,2899848848917 ,16,6492744494194
17.6079723 ,Left ,68,8534400812458 ,44,3745461577846 ,16,4915535485287
17.6276875 ,Left ,68,809824989678 ,44,4300998299623 ,16,3583237010278
17.645522 ,Left ,68,7384105879074 ,44,4758817936252 ,16,261613300822
17.6671328 ,Left ,68,7009488402123 ,44,4711114454198 ,16,2345010916366
17.6884555 ,Left ,68,6601911445306 ,44,2162833349421 ,16,2814450690706
17.7046196 ,Left ,68,7417439875703 ,43,9075543405159 ,16,3709965074357
17.7279188 ,Left ,68,810698431373 ,43,7999135643072 ,16,3954469682099
17.7475727 ,Left ,68,7250040235099 ,43,8700774718854 ,16,4388500864957
17.7654512 ,Left ,68,9363138625073 ,43,8492335556203 ,16,4326974439084
17.7872112 ,Left ,69,1883195969586 ,43,679790352469 ,16,3742517896795
17.8084258 ,Left ,69,1892694290945 ,43,5167807129548 ,16,3605690152399
17.8240058 ,Left ,69,129820437023 ,43,4485139229341 ,16,4195073662829
17.8472045 ,Left ,69,1331732924404 ,43,3999651241555 ,16,4752408778937
17.8678971 ,Left ,69,2505143642525 ,43,2089085650774 ,16,5340779854597
17.8836809 ,Left ,69,4843752745777 ,42,9012176293336 ,16,6310999202742
17.9077629 ,Left ,69,5333729809704 ,42,8522466287106 ,16,683505453156
17.928951 ,Left ,69,3864637324763 ,42,9881194139056 ,16,7333462125589
17.9454668 ,Left ,69,467749757538 ,43,0893957222981 ,16,7479315555958
17.9677014 ,Left ,69,5981988742861 ,43,0985032248291 ,16,7410294704047
17.9874906 ,Left ,69,5950750932231 ,43,0629577583742 ,16,7950323779134
18.0200348 ,Left ,69,6056041371708 ,43,0696048678704 ,16,8882075542279
18.0268687 ,Left ,69,6378379377544 ,43,062324240473 ,16,9797785099886
18.0471995 ,Left ,69,6453841719678 ,43,0389553950468 ,17,0503241641516
18.0636022 ,Left ,69,547580432566 ,43,0701723367022 ,17,1212988341921
18.0848177 ,Left ,69,3755946587064 ,42,8270787996821 ,17,235596882586
18.1073963 ,Left ,69,3654772794751 ,42,8873540016371 ,17,2713147194389
18.1239317 ,Left ,69,3527949465056 ,42,808058871263 ,17,291969913498
18.1453267 ,Left ,69,3117791491923 ,42,8372145324573 ,17,3424955710033
18.1673502 ,Left ,69,4018451660056 ,42,7774578235151 ,17,310265167945
18.1836391 ,Left ,69,3652831073105 ,42,8324263530348 ,17,3541946425776
18.2051008 ,Left ,69,2539233500516 ,42,7751833466778 ,17,4102073525545
18.2273952 ,Left ,69,25088622448 ,42,7813117624326 ,17,4511621638661
18.2437558 ,Left ,69,2775683927676 ,42,8339485153725 ,17,4840623769438
18.2647225 ,Left ,69,300866091084 ,42,8831312125927 ,17,5072982427423
18.2871751 ,Left ,69,2980811312178 ,42,9448851842197 ,17,5374801950762
18.3036636 ,Left ,69,2735447113017 ,43,0142078879091 ,17,5642248168509
18.324745 ,Left ,69,2221304986047 ,43,0595267057612 ,17,5973826165809
18.3472922 ,Left ,69,305263484087 ,42,9935564130473 ,17,5733575129297
18.3635979 ,Left ,69,4097799275668 ,43,1119040011803 ,17,5194627262539
18.3846361 ,Left ,69,4451074524253 ,43,1872912678297 ,17,5028178569892
18.4073068 ,Left ,69,3915306049481 ,43,2456489237611 ,17,5378922331339
18.4242474 ,Left ,69,3623198441493 ,43,2821240402508 ,17,5478329676847
18.4448003 ,Left ,69,3526969913307 ,43,2875072351192 ,17,5503001045353
18.4671852 ,Left ,69,3722915208203 ,43,2607996346675 ,17,5422721004461
18.4837534 ,Left ,69,3847153911651 ,43,1935763283095 ,17,5400129758501
18.5050127 ,Left ,69,3622152250643 ,43,1463273750294 ,17,5755154047014
18.5274677 ,Left ,69,355851209775 ,43,1442717841376 ,17,6088392495499
18.5437673 ,Left ,69,3688516177412 ,42,9986080162967 ,17,5478377106346
18.5650295 ,Left ,69,3902288435752 ,42,8483962702147 ,17,5621464967971
18.587329 ,Left ,69,2587432303815 ,42,8724273117173 ,17,5527356580115
18.6036067 ,Left ,69,1590374208129 ,42,987582823924 ,17,4492028243088
18.6248066 ,Left ,69,3276478910992 ,43,063542865755 ,17,3162267316573
18.6473698 ,Left ,69,5353510350413 ,43,0450188869241 ,17,2238987573054
18.6637959 ,Left ,69,5389437752336 ,43,0464661120003 ,17,2218199742597
18.6863328 ,Left ,69,4362596559207 ,43,0310562485443 ,17,2292983201687
18.7074488 ,Left ,69,3272724796161 ,42,9575967716019 ,17,2110230293536
18.723898 ,Left ,69,2969575692288 ,42,8594284033509 ,17,1908907357705
18.7464174 ,Left ,69,319281556755 ,42,8136485843814 ,17,1797773908286
18.7676726 ,Left ,69,3124405526155 ,42,7644526793567 ,17,2165784264931
18.7901578 ,Left ,69,2510497200828 ,42,6766557615237 ,17,262031007623
18.8067684 ,Left ,69,2839287628671 ,42,5114972310212 ,17,2625904953434
18.8279693 ,Left ,69,2153659959886 ,42,579569032845 ,17,260618528259
18.8504669 ,Left ,69,1276119720455 ,42,737259868648 ,17,2043941966457
18.8666982 ,Left ,69,2198494902842 ,42,8047397300996 ,17,1252350043906
18.8875411 ,Left ,69,3122307940301 ,42,7558909469687 ,17,0694207992534
18.9106222 ,Left ,69,2526679285078 ,42,7588825292336 ,17,057361267737
18.9269551 ,Left ,69,2312851535737 ,42,7393286967864 ,17,0754375795634
18.9495611 ,Left ,69,2446580891587 ,42,651816281757 ,17,0870018874501
18.9638596 ,Left ,69,2934887064178 ,42,5817522733542 ,17,0901525938632
18.9872151 ,Left ,69,2382377721698 ,42,7524885969049 ,17,109341335741
19.0096172 ,Left ,69,1790804602457 ,43,0073703166093 ,17,1303606981249
19.0307132 ,Left ,69,2468190906349 ,43,1777823500675 ,17,1437374355063
19.0471544 ,Left ,69,3002895920565 ,43,274953539041 ,17,167967806964
19.0693853 ,Left ,69,2121993048899 ,43,371950499731 ,17,236471233133
19.0904966 ,Left ,69,1115879936027 ,43,4462081541262 ,17,3095212351912
19.1071694 ,Left ,69,0420097193236 ,43,4924277265452 ,17,374339294353
19.1298504 ,Left ,68,9807217525098 ,43,5112610550025 ,17,4265266158706
19.1509626 ,Left ,68,9366835147425 ,43,494784988465 ,17,4863491523665
19.1672211 ,Left ,68,8749031985447 ,43,495975903269 ,17,5496297858471
19.1896608 ,Left ,68,8054219418568 ,43,4280315911973 ,17,6159884792475
19.2110237 ,Left ,68,7659831433643 ,43,310996389112 ,17,6577341307693
19.2274198 ,Left ,68,8350794555091 ,43,2792224481973 ,17,5453958869352
19.2500575 ,Left ,68,6950271073549 ,43,4524000167077 ,17,4205883853666
19.2710527 ,Left ,68,6416611286574 ,43,666134254851 ,17,297080113354
19.287465 ,Left ,68,8001582048745 ,43,7835096113083 ,17,1965072301496
19.3101644 ,Left ,68,880451962476 ,43,8022211890336 ,17,1357364263804
19.3310607 ,Left ,68,8519704585844 ,43,8227889176771 ,17,1231118756929
19.3467739 ,Left ,68,836101155864 ,43,8289245686705 ,17,1042996419655
19.3695188 ,Left ,68,8298502063672 ,43,8202584390173 ,17,0837547718149
19.3905258 ,Left ,68,8281742950479 ,43,8102033096372 ,17,0705054100393
19.4074437 ,Left ,68,8655883947859 ,43,7877876559868 ,17,0601281914806
19.4312804 ,Left ,68,9292026886108 ,43,7569065435864 ,17,0323341642167
19.4444878 ,Left ,68,9632311748712 ,43,7080740019988 ,17,0130102320859
19.4667354 ,Left ,68,9986247654667 ,43,6786789680792 ,16,9875729932486
19.4879726 ,Left ,68,9972609765977 ,43,648792580776 ,16,9670599724136
19.5042332 ,Left ,69,0075184763524 ,43,6339847712008 ,16,9359389177307
19.5265723 ,Left ,69,0366159378008 ,43,6143000117438 ,16,8910719526918
19.5475128 ,Left ,69,0776393712255 ,43,6082117322999 ,16,8411349528004
19.5639724 ,Left ,69,1284220610758 ,43,6240346717015 ,16,7743488918699
19.5865744 ,Left ,69,1460837247052 ,43,6665773903832 ,16,7048882385833
19.6089418 ,Left ,69,1263559033833 ,43,7366804049975 ,16,6383431769833
19.6242544 ,Left ,69,1142837110619 ,43,8281187575765 ,16,5603796215149
19.6467075 ,Left ,69,1024977933236 ,43,9249566037559 ,16,470736348883
19.6691968 ,Left ,69,0803876065377 ,44,009355233929 ,16,3760363272913
19.6899615 ,Left ,69,0206381932991 ,44,0721088235944 ,16,3051137638462
19.7063623 ,Left ,68,972327332083 ,44,1344402226062 ,16,2447880893854
19.7288343 ,Left ,68,9311336756912 ,44,2109290432892 ,16,186685810535
19.74976 ,Left ,68,8787218680506 ,44,3457652987799 ,16,1377624351563
19.7661665 ,Left ,68,8545788500241 ,44,3721576411094 ,16,1481783142116
19.7888731 ,Left ,68,866886803679 ,44,0830513120606 ,16,2370735607662
19.8096681 ,Left ,68,9337546037097 ,43,8955213612011 ,16,3257503746667
19.8263079 ,Left ,68,853351424242 ,43,9818418793855 ,16,355009002803
19.8488246 ,Left ,68,998613432534 ,44,0645557944731 ,16,3181214947692
19.8699845 ,Left ,69,2251284687827 ,44,0053537686194 ,16,2416370110028
19.8865496 ,Left ,69,219964702672 ,43,8807023160917 ,16,2069276055017
19.9089288 ,Left ,69,1548337350506 ,43,7997642298636 ,16,2584608631979
19.9299586 ,Left ,69,126603981314 ,43,7756392187916 ,16,3368388922518
19.9464182 ,Left ,69,1657929554795 ,43,7065814287779 ,16,405177206306
19.9687398 ,Left ,69,2609047311278 ,43,4409677453782 ,16,5203554208294
19.98976 ,Left ,69,4219515941622 ,43,1822165178275 ,16,6114807371103
20.0067817 ,Left ,69,3597072386683 ,43,1720846201759 ,16,6589909531381
20.0291891 ,Left ,69,2459806264883 ,43,2759183658475 ,16,7047798062763
20.0506212 ,Left ,69,3563476337985 ,43,3354383363838 ,16,7191036964204
20.0667416 ,Left ,69,446394258599 ,43,2813643793289 ,16,727017691915
20.0893944 ,Left ,69,4479919303715 ,43,2512510441291 ,16,7899113473973
20.1102053 ,Left ,69,5207506541288 ,43,2164471434951 ,16,8765712136667
20.1264884 ,Left ,69,5063534041904 ,43,1728384341292 ,17,0346385326366
20.1503813 ,Left ,69,6413709997823 ,43,1048551047198 ,17,073038250993
20.1700197 ,Left ,69,7274856027 ,43,120338364153 ,17,131940641574
20.1863424 ,Left ,69,7570271002304 ,43,1571463186095 ,17,2095848173418
20.2093353 ,Left ,69,7873845332458 ,43,2655934443837 ,17,2577623240709
20.2308142 ,Left ,69,8966140440591 ,43,3522966787522 ,17,2706583829585
20.2469109 ,Left ,70,0663816021651 ,43,3770485749122 ,17,2561538315374
20.2695931 ,Left ,70,2095513456692 ,43,323436998879 ,17,2530700528321
20.2914883 ,Left ,70,2406385961905 ,43,1895821715147 ,17,2811398350417
20.3058972 ,Left ,70,1532776346603 ,43,0213601117685 ,17,3513133841307
20.3296181 ,Left ,70,0112690488758 ,42,9218536888642 ,17,431290380668
20.3520897 ,Left ,69,8721018869614 ,42,95736490987 ,17,4976821651606
20.3732538 ,Left ,69,7886366397985 ,43,1288641459325 ,17,5350867932849
20.3894571 ,Left ,69,8173227689397 ,43,3360166936245 ,17,5320658687368
20.4121162 ,Left ,69,8250734114728 ,43,4499776610854 ,17,5432416244975
20.4335662 ,Left ,69,8007393479149 ,43,4756257988799 ,17,5694348107756
20.4499297 ,Left ,69,7795687074345 ,43,4930679408131 ,17,5626459251582
20.4722162 ,Left ,69,75653941543 ,43,5196843496461 ,17,5566069573946
20.4930637 ,Left ,69,744491792767 ,43,5532783506754 ,17,5413330274839
20.5092265 ,Left ,69,731572638238 ,43,5959644174432 ,17,5140087070701
20.532121 ,Left ,69,7144937194836 ,43,6642747012684 ,17,4814774725133
20.5606584 ,Left ,69,7025493492441 ,43,7338983855221 ,17,4429872014223
20.568993 ,Left ,69,6791928345162 ,43,7919399664237 ,17,4049692953958
20.5919445 ,Left ,69,6759295880444 ,43,8281266992073 ,17,3814638070953
20.6145718 ,Left ,69,6537952368051 ,43,8273986242619 ,17,3820664247415
20.628956 ,Left ,69,6329006270205 ,43,8050020001113 ,17,3917572493112
20.6519505 ,Left ,69,6133969698393 ,43,7747276337292 ,17,3923173529926
20.6743728 ,Left ,69,6209259122706 ,43,6746445092816 ,17,421776252712
20.6887576 ,Left ,69,626774684032 ,43,5889183006841 ,17,4613672157719
20.7119087 ,Left ,69,6379350415426 ,43,5626814361346 ,17,4860542982364
20.7346529 ,Left ,69,6156370151848 ,43,5824668514844 ,17,5032441761332
20.7556223 ,Left ,69,6061027223828 ,43,6388480667098 ,17,5002074300506
20.7720239 ,Left ,69,6034152093466 ,43,6907034143228 ,17,4827403657911
20.7943859 ,Left ,69,6210557745826 ,43,7268298863526 ,17,4531924796598
20.8086764 ,Left ,69,6127116401938 ,43,7316979985067 ,17,4239862091763
20.8316727 ,Left ,69,5727072551257 ,43,7130917344928 ,17,4026480592095
20.8545854 ,Left ,69,5638245523668 ,43,6751442586689 ,17,3576987591022
20.8692163 ,Left ,69,5717302687204 ,43,5949090666765 ,17,3012749781007
20.8924905 ,Left ,69,5528592680733 ,43,4904109915786 ,17,2746606172731
20.9148303 ,Left ,69,5523487397936 ,43,4527732596795 ,17,2592474614965
20.9291768 ,Left ,69,4842413519464 ,43,4696919730363 ,17,2506811367467
20.9521372 ,Left ,69,414219558129 ,43,2944914589864 ,17,2757459030343
20.9745521 ,Left ,69,495439996155 ,43,1585155216478 ,17,3389086084637
20.9956604 ,Left ,69,4371811156958 ,43,1833516616647 ,17,3139126539167
21.0121612 ,Left ,69,4381076922233 ,43,3471447456996 ,17,2622520910405
21.0346901 ,Left ,69,6038959855909 ,43,4513113156515 ,17,2186656276116
21.0565062 ,Left ,69,6664641112301 ,43,4944517166576 ,17,2082835874506
21.0720781 ,Left ,69,6447255490122 ,43,5226068687013 ,17,2147749800559
21.0946611 ,Left ,69,5908877211743 ,43,53881818353 ,17,2139368635434
21.1154968 ,Left ,69,5587535305429 ,43,5224869094778 ,17,2072210052359
21.1320639 ,Left ,69,5435960734291 ,43,4854522344583 ,17,2079705879219
21.1546381 ,Left ,69,5345802832171 ,43,4321645261929 ,17,2131658342275
21.1756045 ,Left ,69,5269426515978 ,43,3539271245157 ,17,2271913247159
21.1921235 ,Left ,69,4926247737367 ,43,2775373592169 ,17,2423113163931
21.214311 ,Left ,69,4209495727862 ,43,2102025338815 ,17,2526895357546
21.2354377 ,Left ,69,3903529185543 ,43,1637928924553 ,17,2322572522373
21.2519558 ,Left ,69,3440038971293 ,43,1432276298268 ,17,2093766416058
21.2746735 ,Left ,69,2878931771015 ,43,1625999812223 ,17,2396512688746
21.295722 ,Left ,69,2396878107555 ,43,0722378490063 ,17,2928454483506
21.3116383 ,Left ,69,2927164397646 ,42,9131376450366 ,17,2975162693546
21.3359296 ,Left ,69,3533513456608 ,42,8364296327166 ,17,2442761752432
21.3556474 ,Left ,69,2299310937384 ,42,9490103896163 ,17,1808646919413
21.3714829 ,Left ,69,2511543839885 ,43,051725494727 ,17,0869700170914
21.3946352 ,Left ,69,3727353365496 ,43,0475960513071 ,17,0272229435858
21.4155534 ,Left ,69,3663748496877 ,43,0540299977689 ,17,0104289479164
21.4313805 ,Left ,69,3542735262125 ,43,0494487095129 ,17,0508659848545
21.4543746 ,Left ,69,3886302818568 ,42,9453519664116 ,17,1173260815347
21.4770526 ,Left ,69,5043931337182 ,42,8347113481436 ,17,1469012194348
21.4915715 ,Left ,69,4808558466357 ,42,948905520024 ,17,1438108429567
21.5148036 ,Left ,69,3813396716055 ,43,1844149455768 ,17,1314697901049
21.5372308 ,Left ,69,3910915994708 ,43,37068497716 ,17,1265344771081
21.5512661 ,Left ,69,3851519454488 ,43,4811166826127 ,17,1338769401437
21.5746232 ,Left ,69,3048004925239 ,43,5813502677239 ,17,1557375903782
21.5969852 ,Left ,69,2159604837922 ,43,6493417024879 ,17,2079372642008
21.6257085 ,Left ,69,1304971102664 ,43,7274161524436 ,17,2657399363414
21.6346683 ,Left ,69,0461563660255 ,43,7754248885706 ,17,3482936127117
21.6571441 ,Left ,68,9691111182113 ,43,6595347160126 ,17,4808621592657
21.6782573 ,Left ,68,9683936496795 ,43,4459296922628 ,17,5467708056993
21.6945888 ,Left ,68,9988926459943 ,43,3940285290949 ,17,4451884586655
21.7171287 ,Left ,68,8432898947467 ,43,5513288055906 ,17,3219681539807
21.7382696 ,Left ,68,821941805835 ,43,7392867199541 ,17,2050578462144
21.7548699 ,Left ,68,9524550567145 ,43,8486458041848 ,17,0837416712456
21.7772674 ,Left ,68,9702919824446 ,43,9440222818261 ,16,9755265311841
21.7981548 ,Left ,68,9345048719949 ,44,0574305498079 ,16,8702457143194
21.8148887 ,Left ,68,9066414456475 ,44,1566845777826 ,16,7576040815198
21.8373922 ,Left ,68,8697910581624 ,44,2443133710357 ,16,624274138497
21.8597215 ,Left ,68,8558211061079 ,44,3184757450524 ,16,4785637981933
21.8739578 ,Left ,68,8470944914073 ,44,3369076565045 ,16,3542149590121
21.9031833 ,Left ,68,8304322576001 ,44,3327143549012 ,16,2728316291005
21.9196413 ,Left ,68,766529441227 ,44,3421753320042 ,16,2379729649282
21.9409513 ,Left ,68,7122887250936 ,44,3272631822449 ,16,250363095172
21.9570884 ,Left ,68,7103892394257 ,44,0187946738851 ,16,3047265790508
21.9781257 ,Left ,68,8714002339219 ,43,7416821908663 ,16,3894783091649
21.9946456 ,Left ,68,8717075330402 ,43,7212496988681 ,16,4105447207225
22.0169265 ,Left ,68,9413090687507 ,43,7446794321164 ,16,3757072858435
22.0396501 ,Left ,69,1763375024974 ,43,6516436284928 ,16,3006404633983
22.0608392 ,Left ,69,2352662264241 ,43,4566539841201 ,16,2605548146519
22.0770872 ,Left ,69,1529512784026 ,43,3894437376591 ,16,3072131105718
22.0996405 ,Left ,69,1679168516716 ,43,3452587576268 ,16,3631716420649
22.114831 ,Left ,69,3105409267851 ,43,1212118789749 ,16,4198941219777
22.1371389 ,Left ,69,4861080570536 ,42,8654244144795 ,16,5016821058934
22.1580574 ,Left ,69,4632397772906 ,42,8288879788586 ,16,5543592846272
22.1743918 ,Left ,69,3050817778631 ,42,9798146198377 ,16,6196064664478
22.1975032 ,Left ,69,3739782371057 ,43,0635190587645 ,16,648057670948
22.2181655 ,Left ,69,4737867235218 ,43,0556176224067 ,16,6713127010621
22.2339155 ,Left ,69,4666393599229 ,43,0436858620737 ,16,7234365160833
22.2570928 ,Left ,69,4717195413088 ,43,0391984790585 ,16,8070875903187
22.2781153 ,Left ,69,5390778379356 ,43,0243979492209 ,16,8946075664222
22.2938038 ,Left ,69,6157971616295 ,43,011344820393 ,16,9610865231976
22.3169841 ,Left ,69,664405427547 ,42,9772757033158 ,17,0163807922315
22.3394308 ,Left ,69,6606286135889 ,42,9426438565703 ,17,0744743478719
22.3606624 ,Left ,69,5993901951368 ,42,9162936557734 ,17,126912327032
22.3716567 ,Left ,69,5452338491211 ,42,8935720121294 ,17,1621940347664
22.3906978 ,Left ,69,5759023918677 ,42,8802852083985 ,17,1711463101683
22.4063878 ,Left ,69,5522664921123 ,42,7070186513056 ,17,201975201914
22.4369531 ,Left ,69,6308458950183 ,42,6777103996233 ,17,1803938273541
22.4505067 ,Left ,69,3975508143639 ,42,545337587837 ,17,2898667704909
22.4664639 ,Left ,69,6122589366796 ,42,7236712988305 ,17,211270594595
22.4890543 ,Left ,69,389574166455 ,42,5784155594155 ,17,3290843255951
22.5105702 ,Left ,69,6303847726228 ,42,7714514044542 ,17,2425467323451
22.5263295 ,Left ,69,3798564527256 ,42,6787672528062 ,17,3612617100643
22.5487239 ,Left ,69,2685730713955 ,42,6266727777868 ,17,3943382115389
22.5710528 ,Left ,69,2358979018172 ,42,7059703942262 ,17,4248842579455
22.5868904 ,Left ,69,2026194966165 ,42,8078840908768 ,17,4312335877574
22.609083 ,Left ,69,1726149680442 ,42,8926181913318 ,17,4286910670691
22.6323915 ,Left ,69,1562161195944 ,42,9506253924377 ,17,4357376873111
22.6466926 ,Left ,69,1214875163522 ,42,981390511399 ,17,4603943290007
22.6691145 ,Left ,69,1037884119817 ,43,0167499267577 ,17,4855812387402
22.6922506 ,Left ,68,9252822196063 ,42,910575671225 ,17,5732843664076
22.706645 ,Left ,68,7446396258867 ,42,7075767470413 ,17,6757780859133
22.7371375 ,Left ,68,6681728152566 ,42,7471294042079 ,17,7821401778348
22.7533319 ,Left ,68,7430733169694 ,42,707180488163 ,17,8373445062004
22.7731159 ,Left ,68,7232190671911 ,42,5671142315111 ,17,8550047362772
22.7886869 ,Left ,68,649198588221 ,42,5183612763969 ,17,8455237771032
22.811852 ,Left ,68,5553829963329 ,42,5828229313651 ,17,7675752181264
22.8328399 ,Left ,68,6088330902062 ,42,7141554937899 ,17,6640460537321
22.8485956 ,Left ,68,8497821797595 ,42,7392024204192 ,17,5438337914838
22.8719287 ,Left ,68,9511740552551 ,42,7531226202151 ,17,484783226351
22.8929737 ,Left ,68,9182430247238 ,42,7670607485721 ,17,4680564770553
22.9087886 ,Left ,68,8559975384255 ,42,7341650980819 ,17,4433688790722
22.9318315 ,Left ,68,7869671463032 ,42,6618976475337 ,17,4190618906102
22.9529653 ,Left ,68,7734290254784 ,42,6092843994633 ,17,4193415706592
22.9686534 ,Left ,68,7594132065182 ,42,5465653597823 ,17,4971249715771
22.9919161 ,Left ,68,7736459335471 ,42,4136351927637 ,17,545077219116
23.013195 ,Left ,68,8711406447463 ,42,361791339569 ,17,4975809503827
23.0372625 ,Left ,68,7321927345206 ,42,4925125314031 ,17,4648945595313
23.0519441 ,Left ,68,6729704726038 ,42,6310986379705 ,17,4226388590521
23.0732246 ,Left ,68,8124609475395 ,42,6449682840862 ,17,3874513492651
23.0889815 ,Left ,68,849388710934 ,42,6702492387162 ,17,384267886775
23.1119991 ,Left ,68,8585875143497 ,42,7099498352799 ,17,4388322521791
23.1330192 ,Left ,68,8415609420171 ,42,7185810695692 ,17,5240731734297
23.1489258 ,Left ,68,8191046284725 ,42,7736096309488 ,17,5187635455247
23.1721121 ,Left ,68,7193143449961 ,42,9974158944525 ,17,5054820298766
23.1928344 ,Left ,68,6688493049164 ,43,2070101192085 ,17,4979765936146
23.2093503 ,Left ,68,6988225033691 ,43,3093706077846 ,17,4962778963431
23.2324218 ,Left ,68,6263951802872 ,43,348367243725 ,17,5225425296614
23.2616361 ,Left ,68,5441230789977 ,43,3952914183648 ,17,5638722665907
23.2771791 ,Left ,68,5042951287163 ,43,4279148172394 ,17,6005992666828
23.3000597 ,Left ,68,4798678710012 ,43,4066174821934 ,17,6628196332791
23.3208493 ,Left ,68,430740913777 ,43,2155231427147 ,17,7654663822561
23.3363425 ,Left ,68,5159731367427 ,43,1373199499871 ,17,7232586060212
23.3595957 ,Left ,68,4103714786727 ,43,2736151412122 ,17,6369178641209
23.3819991 ,Left ,68,2759586240128 ,43,4975823365841 ,17,5662369413604
23.3964569 ,Left ,68,3759855916855 ,43,6069561319427 ,17,5103124295108
23.4195391 ,Left ,68,495507234438 ,43,6141062820521 ,17,4336131230904
23.4420997 ,Left ,68,5030447640685 ,43,6582040170791 ,17,3758133309342
23.4565369 ,Left ,68,5269306947132 ,43,7158407106861 ,17,3047083556384
23.4796602 ,Left ,68,5391213445375 ,43,7827250423058 ,17,2193627008562
23.5020891 ,Left ,68,5661490730318 ,43,866252627858 ,17,1162410848398
23.5233753 ,Left ,68,6146917377426 ,43,9628408820667 ,17,0047657234213
23.5473879 ,Left ,68,6369645805788 ,44,0332304251084 ,16,8760130195352
23.5695776 ,Left ,68,6268577609489 ,44,0700793464957 ,16,7554362486332
23.5830731 ,Left ,68,6000685478035 ,44,0911451650447 ,16,6519836461461
23.5997478 ,Left ,68,5681610388223 ,44,0881151211823 ,16,5603802422088
23.62213 ,Left ,68,5474653430578 ,44,0768384458578 ,16,4843992715797
23.6432344 ,Left ,68,5335816788976 ,44,119369751368 ,16,416168569347
23.6596306 ,Left ,68,4909217241916 ,44,1988048140987 ,16,3650397156423
23.6821071 ,Left ,68,4592158527416 ,44,0415975457549 ,16,3423858830207
23.7032359 ,Left ,68,5432329418205 ,43,7735319072676 ,16,4182871296197
23.7203022 ,Left ,68,5718478540244 ,43,698468137373 ,16,4299509651176
23.7347296 ,Left ,68,5082219717679 ,43,8174994763006 ,16,4211639860432
23.7557712 ,Left ,68,7192265553512 ,43,8444246417896 ,16,3809961488269
23.7715094 ,Left ,68,9119526326865 ,43,6821908471137 ,16,3577813281071
23.7943811 ,Left ,68,9170768432886 ,43,4894412909831 ,16,3518146687958
23.8154773 ,Left ,68,8964793064952 ,43,3277078803735 ,16,3994333478701
23.8315377 ,Left ,68,8671881861687 ,43,2475426795724 ,16,4893500288453
23.8543509 ,Left ,68,870753341905 ,43,1878244830013 ,16,5776700999564
23.8755698 ,Left ,68,9570896696743 ,42,9154902618623 ,16,681285132372
23.8913223 ,Left ,69,1611154854375 ,42,7073706189895 ,16,7353362516542
23.9145305 ,Left ,69,0679289170014 ,42,7248583971736 ,16,806996121302
23.9360431 ,Left ,69,0312493973383 ,42,8164264142197 ,16,8578844599708
23.9519909 ,Left ,69,1496091428532 ,42,8681449937068 ,16,8788927208168
23.9747411 ,Left ,69,1789199276548 ,42,8407164587947 ,16,9107494561116
23.9954945 ,Left ,69,1645747713144 ,42,8285146643189 ,16,9771426877326
24.0112956 ,Left ,69,19487035295 ,42,8227572592245 ,17,0664379601536
24.0345871 ,Left ,69,2598060557793 ,42,7972149226149 ,17,1264317998569
24.055547 ,Left ,69,3542043002495 ,42,7812682295665 ,17,1665409941487
24.0715381 ,Left ,69,3669542138575 ,42,7675068221856 ,17,1874817296631
24.094436 ,Left ,69,3201026034614 ,42,7330660643967 ,17,2197350315817
24.1157511 ,Left ,69,2668345043522 ,42,7253692734712 ,17,2554033556152
24.1313231 ,Left ,69,2584863290757 ,42,70591750447 ,17,2922216501329
24.1547061 ,Left ,69,3299975139898 ,42,6957678091102 ,17,2979066739145
24.1755957 ,Left ,69,4157239669396 ,42,6735842896966 ,17,2926338739114
24.1914116 ,Left ,69,462162129852 ,42,669597171644 ,17,2953169167274
24.2145155 ,Left ,69,4456552669361 ,42,6803346028979 ,17,3266227746571
24.2356784 ,Left ,69,4226129971589 ,42,7099112305271 ,17,3606652589855
24.2515174 ,Left ,69,4423068561671 ,42,7331429543707 ,17,3699328846118
24.2745054 ,Left ,69,4884980829776 ,42,7596096239475 ,17,3782033762645
24.2956855 ,Left ,69,5019041621713 ,42,7958196188117 ,17,3993506074025
24.3114873 ,Left ,69,4761998565386 ,42,8313091514643 ,17,429866830738
24.3337677 ,Left ,69,4346043598585 ,42,8644697838155 ,17,4565358869561
24.3556956 ,Left ,69,3926942768891 ,42,8998561592333 ,17,4726935838016
24.3716109 ,Left ,69,3583603338944 ,42,9452050803653 ,17,4808614822688
24.3938491 ,Left ,69,3170059296869 ,42,9940225206661 ,17,4960812540776
24.4185341 ,Left ,69,2923403325713 ,43,0462924430014 ,17,509243561122
24.4313057 ,Left ,69,2896480645752 ,43,0946423683417 ,17,5127240317765
24.4538057 ,Left ,69,2697030970592 ,43,1630403171005 ,17,5472445447432
24.47575 ,Left ,69,261528036185 ,43,2802474766125 ,17,5884777063794
24.4917001 ,Left ,69,1286524014088 ,43,2417014284587 ,17,6110226690695
24.5139168 ,Left ,69,0730335435772 ,43,1655620976985 ,17,6095166194582
24.5371549 ,Left ,69,0072660101657 ,43,0615120174982 ,17,6088353901249
24.5515692 ,Left ,68,8804431128086 ,42,9911565648311 ,17,6266756217107
24.5739658 ,Left ,68,7228939211551 ,42,9708165432139 ,17,6636412318264
24.5971043 ,Left ,68,5947116115584 ,43,0324570646714 ,17,6810374475073
24.6187145 ,Left ,68,574345408954 ,43,1504794219583 ,17,6593119137877
24.6419114 ,Left ,68,6352467455224 ,43,2621164071843 ,17,6138283528539
24.6645285 ,Left ,68,8018006524206 ,43,326809370681 ,17,5468045585763
24.6789375 ,Left ,68,9414579824444 ,43,3123698742569 ,17,5013416401698
24.7021947 ,Left ,69,027530326669 ,43,1635140371452 ,17,4642566180317
24.7246588 ,Left ,69,0794921814853 ,42,792280064008 ,17,5075249098193
24.7458325 ,Left ,69,0222365042158 ,42,5989256887956 ,17,5813849263437
24.7621785 ,Left ,68,9892238974618 ,42,7612505436108 ,17,4962169949988
24.7845519 ,Left ,69,0409694063542 ,42,9238221526863 ,17,4092210426757
24.8059509 ,Left ,69,2460633372871 ,42,9789150514382 ,17,321906087952
24.8222372 ,Left ,69,3745442257471 ,42,9860771013751 ,17,2627952983923
24.8446332 ,Left ,69,3160435708214 ,42,9778138998288 ,17,2417213332662
24.8656939 ,Left ,69,2093984158997 ,42,9336811165638 ,17,2235759712043
24.8821189 ,Left ,69,1085640661269 ,42,8429925838229 ,17,2075806053966
24.9043539 ,Left ,69,0689079985106 ,42,7223157888461 ,17,1961679730943
24.9253837 ,Left ,69,038601765213 ,42,6384260941151 ,17,2023919328461
24.9419056 ,Left ,68,9673796221794 ,42,5611773392092 ,17,2548020222771
24.9646658 ,Left ,68,8943603148682 ,42,461371553525 ,17,3259373386878
24.9857283 ,Left ,69,03111912627 ,42,3020388985717 ,17,2975355721297
25.0023434 ,Left ,69,0388004617657 ,42,3559320479842 ,17,2499748281622
25.0246618 ,Left ,68,9532597193128 ,42,4806788472147 ,17,1694174448131
25.0459779 ,Left ,68,9752648600383 ,42,5071103227248 ,17,1168750330553
25.0616226 ,Left ,69,009496113709 ,42,5301019974187 ,17,0757824863321
25.084788 ,Left ,69,0407062207376 ,42,5821041635882 ,17,0598560972578
25.1058388 ,Left ,69,1074293747833 ,42,5369357845991 ,17,0825523820929
25.1215109 ,Left ,69,1521337450035 ,42,3943323351953 ,17,1186875663616
25.1446141 ,Left ,69,1531682102542 ,42,4086747665581 ,17,1352439072809
25.1658097 ,Left ,69,0477664166447 ,42,6272546745897 ,17,1467766863045
25.1815945 ,Left ,69,0869360661961 ,42,8413487754028 ,17,1333897364973
25.2045511 ,Left ,69,1600267528343 ,42,9988125967459 ,17,1179310421107
25.2332848 ,Left ,69,1462401922054 ,43,1064679424409 ,17,1237662775758
25.2415006 ,Left ,69,0709908082551 ,43,210701403787 ,17,1536432649434
25.2646125 ,Left ,69,0306546770737 ,43,297793551783 ,17,1949829844826
25.2871127 ,Left ,69,0010427682716 ,43,3763592535305 ,17,2445264666213
25.3015581 ,Left ,68,9607715152024 ,43,3462532118714 ,17,3391776352678
25.3246005 ,Left ,68,9375926041745 ,43,1505489664664 ,17,4377350683747
25.347114 ,Left ,69,0458646037365 ,43,020092825197 ,17,3658491054702
25.3615383 ,Left ,68,9456864863574 ,43,1703486083694 ,17,254754956289
25.3843981 ,Left ,68,8668813226335 ,43,4058077347238 ,17,1473885045837
25.40688 ,Left ,68,9752647490029 ,43,5135702262345 ,17,062049258653
25.4286202 ,Left ,69,0532702848361 ,43,5517202711071 ,16,9574086588716
25.4443596 ,Left ,68,9867307397039 ,43,6418007789679 ,16,8646443006976
25.4674357 ,Left ,68,9442543847417 ,43,7578990091416 ,16,7659799775475
25.4885966 ,Left ,68,8940213794898 ,43,8850339231152 ,16,6625809041453
25.5111972 ,Left ,68,8617197175867 ,44,006909594166 ,16,5285129521505
25.5274581 ,Left ,68,8342615076768 ,44,0896031297209 ,16,4171610724538
25.5487836 ,Left ,68,7782865959555 ,44,1462827242595 ,16,3336926150551
25.564315 ,Left ,68,7083154646704 ,44,2151886041098 ,16,2751606456626
25.5871907 ,Left ,68,6553436969556 ,44,3153247043323 ,16,2153169994116
25.6080597 ,Left ,68,6430386674534 ,44,3427332682097 ,16,1914807066982
25.630676 ,Left ,68,6149954987515 ,44,0697428516845 ,16,2063947737527
25.6471648 ,Left ,68,6880415553324 ,43,8444526819519 ,16,2323332617595
25.6683105 ,Left ,68,6486042814253 ,43,8238200482399 ,16,1971977834338
25.6845749 ,Left ,68,661276790724 ,43,854742959938 ,16,1619148272304
25.7075177 ,Left ,68,8764613938604 ,43,767404670602 ,16,0910628575856
25.7284062 ,Left ,68,9933442772614 ,43,5728398751999 ,16,0157171481778
25.7447503 ,Left ,68,930559977623 ,43,4243931680889 ,15,9992419581722
25.7671258 ,Left ,68,9142218201993 ,43,3293838436811 ,16,0468711060202
25.7884227 ,Left ,69,0271489649631 ,43,2447353199824 ,16,1034125453702
25.7952195 ,Left ,69,1666467255881 ,43,0108640161748 ,16,1863899008399
25.8113172 ,Left ,69,342526560582 ,42,7559310812203 ,16,2698930402728
25.832509 ,Left ,69,3718599907129 ,42,7179343422815 ,16,3206727749022
25.8550237 ,Left ,69,2745049345595 ,42,8286641750612 ,16,3740945104314
25.8699178 ,Left ,69,3747278595384 ,42,9079108676429 ,16,4117538944715
25.8925001 ,Left ,69,5085342329342 ,42,9038257971013 ,16,4318659847245
25.9152081 ,Left ,69,5057299468332 ,42,8879902927766 ,16,4846209602783
25.9313034 ,Left ,69,5394609254562 ,42,8707407628514 ,16,5594459298379
25.9523467 ,Left ,69,5908380706762 ,42,8410077315087 ,16,6367585189331
25.975003 ,Left ,69,6237272056447 ,42,8207062290849 ,16,7079452641703
25.9897989 ,Left ,69,6240579022263 ,42,8159442412513 ,16,7677097775267
26.0123437 ,Left ,69,609642613613 ,42,8085945422999 ,16,8246875329554
26.0348253 ,Left ,69,5883065770396 ,42,807373584459 ,16,8750371764412
26.0561256 ,Left ,69,5892205878566 ,42,7954949799692 ,16,9188630443478
26.0736645 ,Left ,69,5962977565668 ,42,7962337857875 ,16,9697734792373
26.0956813 ,Left ,69,5826380887671 ,42,8047879773704 ,17,0344566606703
26.1099311 ,Left ,69,765952978523 ,42,8983131012083 ,17,0347182112867
26.1332268 ,Left ,69,854226332378 ,43,1042283704693 ,17,0470184379751
26.1557296 ,Left ,69,8753766059007 ,43,0933749238226 ,17,0788119744189
26.170097 ,Left ,69,7638420975456 ,43,1113521130791 ,17,171255834671
26.1931765 ,Left ,69,8681440304854 ,43,159267021054 ,17,1548398936911
26.2155373 ,Left ,69,729624898361 ,43,2297729684726 ,17,2205086800171
26.2298531 ,Left ,69,7695892533801 ,43,2615257905776 ,17,1911627491449
26.2530374 ,Left ,69,818009322462 ,43,444648766161 ,17,1749167684723
26.2757396 ,Left ,69,7857621810009 ,43,5352983942167 ,17,1905722784545
26.2899109 ,Left ,69,7536043475015 ,43,5911221110042 ,17,1871379900476
26.3126126 ,Left ,69,716825891666 ,43,6287232390045 ,17,1927236462908
26.3356481 ,Left ,69,6890810997203 ,43,6337048853804 ,17,1926417660742
26.3499929 ,Left ,69,6985740497343 ,43,6072366036793 ,17,1851766537184
26.3724098 ,Left ,69,7320963448456 ,43,5746432287844 ,17,1608449059783
26.3956335 ,Left ,69,6233716366494 ,43,6332145008369 ,17,2044520160256
26.4100587 ,Left ,69,557435578988 ,43,6105032941945 ,17,2496962642131
26.4323853 ,Left ,69,5001482203057 ,43,4932311587739 ,17,2296040594635
26.4562615 ,Left ,69,4898274987233 ,43,3295253427927 ,17,2012047291076
26.4706664 ,Left ,69,4389342777595 ,43,2722123305024 ,17,1955079117854
26.4933553 ,Left ,69,3408114226514 ,43,3355805902889 ,17,1201380159187
26.5160348 ,Left ,69,4050078358081 ,43,4612336603976 ,17,0047405404242
26.5301641 ,Left ,69,6021708187178 ,43,4800872692189 ,16,8830212098859
26.5525368 ,Left ,69,6550877441396 ,43,5008813004961 ,16,8387845662029
26.5756555 ,Left ,69,5813880297134 ,43,5277643594294 ,16,8248328723717
26.5901833 ,Left ,69,4944120033613 ,43,5193895280744 ,16,7968278784041
26.6124453 ,Left ,69,439317899723 ,43,4765396242356 ,16,7796704646073
26.6355764 ,Left ,69,440708613613 ,43,4549113443582 ,16,807911916212
26.6501954 ,Left ,69,4353935414296 ,43,3533141592895 ,16,8911144693855
26.6725289 ,Left ,69,4393976462672 ,43,1797998470859 ,16,952705557572
26.695683 ,Left ,69,4904990535975 ,43,0280406122992 ,16,9367069243262
26.7098663 ,Left ,69,3475293656076 ,43,1085219964464 ,16,8970264150073
26.7324387 ,Left ,69,2624250738421 ,43,2126848298165 ,16,8299052429603
26.7558522 ,Left ,69,3771578750024 ,43,2082385064665 ,16,7706590970701
26.7702103 ,Left ,69,4465797976664 ,43,1734390221761 ,16,7371722345933
26.792456 ,Left ,69,4450497376986 ,43,1276504467303 ,16,7625750028034
26.8157415 ,Left ,69,4430538582021 ,43,0179434639252 ,16,8061895933709
26.8297605 ,Left ,69,4453799971618 ,42,9421960719058 ,16,8387349369675
26.8523494 ,Left ,69,3965151160194 ,43,0959344653832 ,16,8674219024845
26.8755065 ,Left ,69,3472852144807 ,43,3439948889297 ,16,9042075985372
26.8904063 ,Left ,69,3699166665046 ,43,5237935272145 ,16,9610878773208
26.9128927 ,Left ,69,3271594419543 ,43,6167247685186 ,17,030299606827
26.9356311 ,Left ,69,2032416244398 ,43,7203983491042 ,17,1174954556347
26.9518672 ,Left ,69,1125425959056 ,43,7958658204907 ,17,1972831956379
26.9730604 ,Left ,69,0529828939136 ,43,8335148507888 ,17,2636292951277
26.9951756 ,Left ,68,9690403709403 ,43,7157623474354 ,17,3183194761654
27.0114649 ,Left ,68,979477554035 ,43,5072481414773 ,17,3077642861886
27.032569 ,Left ,68,9501914037999 ,43,5173882174937 ,17,2056008439187
27.0549754 ,Left ,68,7731501724081 ,43,7420272680847 ,17,0980047816559
27.0715929 ,Left ,68,8366314535993 ,43,9238577181061 ,16,9886906585754
27.0923946 ,Left ,68,9576811397622 ,44,005332090435 ,16,8797865372551
27.1148876 ,Left ,68,9071358158987 ,44,0822555844364 ,16,7877472120414
27.1330091 ,Left ,68,8424230996213 ,44,1805128183473 ,16,6938297316931
27.1524053 ,Left ,68,8200365305185 ,44,2749732414378 ,16,5838186213855
27.178401 ,Left ,68,8119155338895 ,44,3879133191452 ,16,4462316744621
27.1931223 ,Left ,68,843674359364 ,44,4974672509938 ,16,2988377788844
27.2127371 ,Left ,68,8651757797953 ,44,5711837129969 ,16,1568256440815
27.2427807 ,Left ,68,8564018757589 ,44,5898560193078 ,16,0459549373169
27.2530221 ,Left ,68,8336418487085 ,44,5953118882557 ,15,9799272475681
27.2724974 ,Left ,68,7895787821326 ,44,6255177668799 ,15,9371104568963
27.2950963 ,Left ,68,7373263149138 ,44,6180453677907 ,15,9404103002719
27.3130686 ,Left ,68,7166226973715 ,44,2949117774265 ,15,9733282536563
27.3325599 ,Left ,68,7983536740311 ,43,9650908485227 ,16,0595753279793
27.3552554 ,Left ,68,7795152092145 ,43,9154553467056 ,16,0774042970399
27.3733217 ,Left ,68,8125259940745 ,43,9775440481606 ,16,0445006601409
27.3927163 ,Left ,69,073580250964 ,43,9449313419133 ,15,9931238223832
27.4152398 ,Left ,69,2009328238408 ,43,7875018437032 ,15,9667566150612
27.4331455 ,Left ,69,1429039296288 ,43,6506204675073 ,16,0117692199926
27.4525036 ,Left ,69,1260251153252 ,43,5402194748443 ,16,1024824616436
27.4752763 ,Left ,69,1761611040619 ,43,4362691635829 ,16,1888649418869
27.4928187 ,Left ,69,2472418633475 ,43,1390119329811 ,16,2687580617097
27.5126171 ,Left ,69,4304602152628 ,42,8829538047701 ,16,3078624687919
27.5350323 ,Left ,69,3097518879833 ,42,9279164643977 ,16,3620460173452
27.5530956 ,Left ,69,2115686670053 ,43,1034921358526 ,16,3917406455725
27.5739535 ,Left ,69,3615604882005 ,43,164996457428 ,16,409412380808
27.5948097 ,Left ,69,4460796583486 ,43,1438524818586 ,16,4203418977679
27.6127179 ,Left ,69,386625256439 ,43,1625735035019 ,16,4778674253929
27.6338557 ,Left ,69,3981006229704 ,43,1798336122777 ,16,5439856423743
27.6548416 ,Left ,69,4579320844619 ,43,1712146039053 ,16,5877245796267
27.6727237 ,Left ,69,5202899236767 ,43,1780438816368 ,16,6094223111161
27.6970423 ,Left ,69,5525131826179 ,43,1591695788098 ,16,6119647430345
27.7147195 ,Left ,69,5589997481897 ,43,1308092919858 ,16,6159335871829
27.7329903 ,Left ,69,5038421802127 ,43,1139540737624 ,16,6080817057487
27.7523681 ,Left ,69,4999055638354 ,43,092269367668 ,16,5802035004947
27.7764004 ,Left ,69,5454695820052 ,43,0880976277615 ,16,5557248594744
27.7900034 ,Left ,69,5601708772297 ,43,0995922466581 ,16,5412278254944
27.812517 ,Left ,69,5758185793535 ,43,1203121152714 ,16,5280738884252
27.8349148 ,Left ,69,5940548809582 ,43,1259675696849 ,16,4975675569929
27.8501181 ,Left ,69,6334188322749 ,43,1050236429395 ,16,4630148210966
27.872395 ,Left ,69,655183341248 ,43,1020098197793 ,16,4418818215694
27.8951038 ,Left ,69,6454598202174 ,43,1134666129538 ,16,4284727084988
27.9098007 ,Left ,69,6339687753658 ,43,1295613247713 ,16,427802169996
27.9324081 ,Left ,69,628336884924 ,43,1453114700688 ,16,4381506054646
27.9549079 ,Left ,69,6048857199065 ,43,1735430743709 ,16,4597823961624
27.9698372 ,Left ,69,6077480567236 ,43,1715381241871 ,16,4759458096913
27.9923632 ,Left ,69,6232206842062 ,43,1653720738524 ,16,4910192877524
28.0148681 ,Left ,69,6065356209032 ,43,164059224577 ,16,5171887665786
28.029846 ,Left ,69,5877924062292 ,43,1585579170307 ,16,5445593607323
28.0523662 ,Left ,69,5880498531092 ,43,1566619448835 ,16,5807615412982
28.0751384 ,Left ,69,5640679056124 ,43,1496547935158 ,16,6141184378905
28.0899033 ,Left ,69,5572323512347 ,43,1356705686972 ,16,6543372387909
28.112364 ,Left ,69,5573111686744 ,43,136921709143 ,16,7016119442579
28.1350634 ,Left ,69,5298255886717 ,43,1362759775188 ,16,7459447696401
28.1515074 ,Left ,69,4831402108106 ,43,0977767990768 ,16,8180530616625
28.1723638 ,Left ,69,3865246204814 ,43,0640179556376 ,16,8906416599734
28.1954601 ,Left ,69,4166654405215 ,42,942636505126 ,16,9117862973996
28.2118301 ,Left ,69,5222499757709 ,42,8262565084216 ,16,9183836743867
28.2330855 ,Left ,69,6010359100789 ,42,6942931401749 ,16,9320605911276
28.2555183 ,Left ,69,6046441650628 ,42,5414053120172 ,16,963560780286
28.2718259 ,Left ,69,5356099364452 ,42,3937941652266 ,17,0129858298937
28.2924718 ,Left ,69,4165967663191 ,42,2967233883582 ,17,075708773965
28.3151629 ,Left ,69,2993804499667 ,42,3134615255766 ,17,1336817581204
28.331405 ,Left ,69,2692378670791 ,42,4466312406698 ,17,1553343683906
28.3524373 ,Left ,69,3535570256926 ,42,6291398677211 ,17,122907523996
28.3751937 ,Left ,69,5280137302493 ,42,7465393715371 ,17,0542060188997
28.3915132 ,Left ,69,6974627501527 ,42,7337044306086 ,16,9894932787874
28.4125162 ,Left ,69,771138036263 ,42,6007547225692 ,16,962625060212
28.4352134 ,Left ,69,7080637280713 ,42,4548753236271 ,16,9862066089791
28.4514054 ,Left ,69,7133669936953 ,42,5105654320039 ,17,0271553314617
28.4724308 ,Left ,69,7168055606278 ,42,5243274014738 ,17,0255960418097
28.4950994 ,Left ,69,7048919850197 ,42,5532235172622 ,17,0433555099484
28.5114258 ,Left ,69,7020796678933 ,42,5759106686579 ,17,052642681963
28.5327036 ,Left ,69,6984929052254 ,42,6005428641158 ,17,0533748619228
28.5633541 ,Left ,69,700867351303 ,42,6356786609263 ,17,0512221396212
28.5713598 ,Left ,69,6972709714674 ,42,6803713905075 ,17,0359118137917
28.595707 ,Left ,69,6737272500394 ,42,7226345509087 ,17,0216067839955
28.6152601 ,Left ,69,6423882316298 ,42,763347278562 ,17,0076717963801
28.6328236 ,Left ,69,6119905487805 ,42,7851718415981 ,16,9929876402171
28.65575 ,Left ,69,6012315379348 ,42,7799536415849 ,16,9695027861339
28.6765287 ,Left ,69,6168522259553 ,42,7579860471326 ,16,9265183710991
28.6932023 ,Left ,69,5641623960204 ,42,673301572991 ,16,9263710009511
28.7155904 ,Left ,69,507317814057 ,42,6237439125624 ,16,9776873075223
28.7364411 ,Left ,69,5453076279047 ,42,5506972266005 ,17,0079770764032
28.7577378 ,Left ,69,5650987834226 ,42,3298726125187 ,17,0429847172498
28.7755327 ,Left ,69,5320196852964 ,42,2725648358559 ,17,0552599867305
28.7964783 ,Left ,69,392366644856 ,42,3617051148117 ,16,9691640596898
28.8175777 ,Left ,69,4508174173988 ,42,4835054664333 ,16,8448598523134
28.8352297 ,Left ,69,6505219477388 ,42,4687757873353 ,16,7061294162246
28.8563876 ,Left ,69,7402059768878 ,42,4464864617616 ,16,6318762942039
28.8774942 ,Left ,69,6765281456512 ,42,4171767789999 ,16,6005313022014
28.8954585 ,Left ,69,5520546134799 ,42,374720965817 ,16,5882683387917
28.9165017 ,Left ,69,5165339165552 ,42,349828906197 ,16,5709657312057
28.9371137 ,Left ,69,4794808668827 ,42,3093734707473 ,16,611534288827
28.9558562 ,Left ,69,5177617884881 ,42,1695899846052 ,16,6655929504408
28.9768434 ,Left ,69,5696330241126 ,42,1279645878507 ,16,6695778410752
28.9980652 ,Left ,69,3676512532492 ,42,2930153340889 ,16,6750323927681
29.0157258 ,Left ,69,2909496799633 ,42,4454109972525 ,16,6605126447475
29.048996 ,Left ,69,4294388167036 ,42,4631955626819 ,16,6252291697558
29.0573959 ,Left ,69,4903148304922 ,42,4328642172345 ,16,6035232924619
29.0753846 ,Left ,69,4352721615164 ,42,4444624190936 ,16,6176671282684
29.097677 ,Left ,69,4497148840558 ,42,3634676609571 ,16,656635405116
29.1173784 ,Left ,69,4779282732369 ,42,214839003946 ,16,6983810122013
29.1355725 ,Left ,69,5022420418846 ,42,2739279451679 ,16,7196446069319
29.1657867 ,Left ,69,3927798660956 ,42,5358933439754 ,16,7582031263946
29.1778623 ,Left ,69,3885147818576 ,42,7438410371434 ,16,7850406232682
29.1958702 ,Left ,69,3862282531655 ,42,8453299056426 ,16,8153542178758
29.2174936 ,Left ,69,3245094749883 ,42,9225146727046 ,16,8719242193125
29.2378141 ,Left ,69,2218482208628 ,42,9959757510067 ,16,9374706406964
29.2555544 ,Left ,69,1526433703753 ,43,0589836552838 ,16,9822765054897
29.2778294 ,Left ,69,1130208194994 ,43,0941870451306 ,17,0495489086354
29.2974306 ,Left ,69,0444845278583 ,42,9565252342111 ,17,1351702441186
29.315835 ,Left ,69,1295928978956 ,42,8271870845032 ,17,1034927327854
29.3383972 ,Left ,69,0140236630335 ,42,9570457857291 ,17,0288856106486
29.3588456 ,Left ,68,8807873245434 ,43,2130540722616 ,16,951343852468
29.3750027 ,Left ,69,0220021391102 ,43,3265476418892 ,16,8803643441074
29.398033 ,Left ,69,1699247855886 ,43,3781032097939 ,16,7851706529912
29.418159 ,Left ,69,1314180074227 ,43,4571022110946 ,16,710247010981
29.4345922 ,Left ,69,084314485245 ,43,5476978112477 ,16,6363876979894
29.4568095 ,Left ,69,0346391284467 ,43,6484757415063 ,16,5454251126281
29.4854891 ,Left ,68,9990712477856 ,43,7455424370697 ,16,4376715290351
29.4945644 ,Left ,68,9878877517621 ,43,8287343572538 ,16,3381576519276
29.5171153 ,Left ,68,9670410901481 ,43,8767696367687 ,16,2427339527758
29.5396421 ,Left ,68,9522131222654 ,43,9409484627325 ,16,1359347426971
29.553948 ,Left ,68,8392432804776 ,44,0128541021775 ,16,0390385806524
29.5767831 ,Left ,68,8143223132449 ,43,9691965255809 ,15,9938955649654
29.5997204 ,Left ,68,8120888173097 ,43,7467760011281 ,16,0823396534924
29.6147119 ,Left ,68,8217285626582 ,43,677202086776 ,16,1447930942914
29.6372558 ,Left ,68,676022981813 ,43,7594773539233 ,16,2198260358878
29.6580797 ,Left ,68,8331549752405 ,43,7727676593381 ,16,2414227468311
29.6751814 ,Left ,69,1161703147908 ,43,6153631886651 ,16,1719433572922
29.6972316 ,Left ,69,12151248427 ,43,4304841459737 ,16,1039946091239
29.7180383 ,Left ,69,0491459901684 ,43,324414922127 ,16,0972907689302
29.7338465 ,Left ,69,0263329461427 ,43,2618759216761 ,16,1092250883462
29.757175 ,Left ,69,0843468188264 ,43,1429068471899 ,16,1048350984055
29.7798179 ,Left ,69,1812067709569 ,42,7624829939818 ,16,1445349510649
29.8009138 ,Left ,69,3415863438428 ,42,4981145237428 ,16,1832424099776
29.817205 ,Left ,69,1795431240703 ,42,5577024219143 ,16,2324133769897
29.8383369 ,Left ,69,1380963461351 ,42,7307935001329 ,16,2788027829118
29.8620886 ,Left ,69,3444368062124 ,42,763289334727 ,16,2949042705339
29.877096 ,Left ,69,4824886229668 ,42,7132702001304 ,16,2975515839387
29.8982104 ,Left ,69,503696506961 ,42,7033903308527 ,16,3398286608767
29.9139423 ,Left ,69,5614114627772 ,42,7106002919808 ,16,4002029608647
29.9369792 ,Left ,69,6383302334706 ,42,717919142118 ,16,4478456293978
29.9580241 ,Left ,69,7175090361059 ,42,7206354960962 ,16,4774235145283
29.9807936 ,Left ,69,7571759083159 ,42,7130651659895 ,16,5106212533017
29.9964309 ,Left ,69,7375204748875 ,42,6947498728244 ,16,548005623407
30.0177629 ,Left ,69,6843641908754 ,42,7566950747807 ,16,6104444704862
30.0339844 ,Left ,69,847083997644 ,42,9084049742455 ,16,5664260742744
30.056546 ,Left ,70,0067116287121 ,42,9408203864201 ,16,5261456502216
30.07755 ,Left ,69,8065557378098 ,42,8029766786423 ,16,6349243401972
30.0941318 ,Left ,70,0463252213033 ,42,9412663515351 ,16,5519473862183
30.1165332 ,Left ,69,8189903505019 ,42,8014060143885 ,16,6819826538456
30.1376227 ,Left ,70,0478574646955 ,42,9337970639052 ,16,620020640401
30.1540842 ,Left ,69,8218396322432 ,42,8321713572893 ,16,7502720252664
30.176498 ,Left ,69,7245615464554 ,42,8435761398024 ,16,7839778591897
30.1975644 ,Left ,69,7128086375917 ,42,9111174364347 ,16,7872491400071
30.2136334 ,Left ,69,6855339271319 ,42,9942086473338 ,16,8012861967423
30.236393 ,Left ,69,6530990668481 ,43,0735147058718 ,16,8109029148645
30.2573671 ,Left ,69,6169014913015 ,43,1553041491523 ,16,8235716469242
30.2753275 ,Left ,69,5796187133843 ,43,2192413976598 ,16,8404730372238
30.2963444 ,Left ,69,4536120802091 ,43,3096800016257 ,16,9019540259067
30.3173941 ,Left ,69,554006529377 ,43,3873862950673 ,16,8539368539214
30.3340292 ,Left ,69,6524469671186 ,43,4977522536344 ,16,8221771377481
30.3563465 ,Left ,69,6232388101464 ,43,4359892019337 ,16,8101373534011
30.3773949 ,Left ,69,5876024283308 ,43,4335636834585 ,16,8611714940644
30.3938368 ,Left ,69,6071703142465 ,43,4911318852742 ,16,9217094011433
30.4183276 ,Left ,69,5702377827002 ,43,3413554135248 ,16,8857622109919
30.43809 ,Left ,69,5448906866728 ,43,174528425411 ,16,9237803049699
30.4544677 ,Left ,69,4819321601905 ,43,1743374074407 ,16,9187953323981
30.4782242 ,Left ,69,4376007499181 ,43,2816563385503 ,16,8295308700051
30.4979232 ,Left ,69,5952527143026 ,43,3654474964006 ,16,7109253756816
30.5141107 ,Left ,69,7404971186995 ,43,3209433810408 ,16,6337096382971
30.5364571 ,Left ,69,7066210149252 ,43,2770554261842 ,16,6299262636796
30.5577504 ,Left ,69,6285637919626 ,43,2302844478832 ,16,6104213742656
30.5739796 ,Left ,69,521823651714 ,43,145954684261 ,16,5818179480337
30.5965178 ,Left ,69,4811633302889 ,43,0952682318728 ,16,5727211627547
30.6175268 ,Left ,69,4509504197501 ,43,0019194201156 ,16,6377913774427
30.6400487 ,Left ,69,4959322190065 ,42,8603755466868 ,16,6616143765297
30.6565557 ,Left ,69,5181854268853 ,42,7980041883349 ,16,6360589394424
30.6775497 ,Left ,69,3578620189371 ,42,8910339074638 ,16,6127781938275
30.7002328 ,Left ,69,3283543147282 ,42,9391713010518 ,16,5638473336703
30.7164872 ,Left ,69,4437230334146 ,42,879368227502 ,16,5203346468666
30.7377627 ,Left ,69,4438520363831 ,42,862554649806 ,16,4995533522642
30.7600717 ,Left ,69,4426593957976 ,42,8264084006816 ,16,5264695922047
30.7765105 ,Left ,69,5101354354502 ,42,7233302130925 ,16,5588302920535
30.7976599 ,Left ,69,5535778175512 ,42,7707227266365 ,16,5298755529394
30.8200456 ,Left ,69,4519198749445 ,42,9971304395148 ,16,5108680289548
30.8365308 ,Left ,69,4355149388337 ,43,2153714193279 ,16,4989672842942
30.8572993 ,Left ,69,4323623311544 ,43,345320003519 ,16,5025515450505
30.8807628 ,Left ,69,3282391779219 ,43,4284634703345 ,16,548403760725
30.8963508 ,Left ,69,1959104600704 ,43,5327203934045 ,16,626157798269
30.9196832 ,Left ,69,1063767978727 ,43,6337186608581 ,16,6911041904492
30.9419945 ,Left ,69,0401949666126 ,43,6432336086795 ,16,7868480842577
30.9562919 ,Left ,69,0294583223028 ,43,5043967514548 ,16,8378399743408
30.9794826 ,Left ,69,0710270720604 ,43,4709611589759 ,16,7341566104475
31.0025944 ,Left ,68,9021449721707 ,43,6558291505249 ,16,6116475396791
31.023015 ,Left ,68,8715651887512 ,43,8933138662148 ,16,4790355649351
31.0400544 ,Left ,68,9825077384179 ,44,0257226634284 ,16,338735747992
31.06249 ,Left ,68,9935520717529 ,44,0764313581395 ,16,2079443710163
31.0838309 ,Left ,68,9206024543908 ,44,1294514162556 ,16,0908872023113
31.107484 ,Left ,68,8515460467053 ,44,173997034816 ,15,9629521534222
31.1224901 ,Left ,68,7839294465488 ,44,2055268600098 ,15,8137730512098
31.1434161 ,Left ,68,7844980782523 ,44,2249330996982 ,15,649416255247
31.1590736 ,Left ,68,8275145804083 ,44,2172378549472 ,15,5245156856189
31.1820423 ,Left ,68,8480645952914 ,44,2304744397645 ,15,4327662810205
31.2031063 ,Left ,68,8268553883537 ,44,2413901006503 ,15,3821827752148
31.2190731 ,Left ,68,7845509276154 ,44,0594889292974 ,15,3911869769867
31.2420965 ,Left ,68,8547529378339 ,43,8596956159074 ,15,4544382050965
31.2630551 ,Left ,68,9092223026575 ,43,8638954240934 ,15,4583664819265
31.2793718 ,Left ,68,8944989104976 ,43,9597819191145 ,15,4706220911598
31.302506 ,Left ,69,1671659931652 ,43,919417909877 ,15,4657061828368
31.3238719 ,Left ,69,3942502985172 ,43,7770690825964 ,15,417141399791
31.3398177 ,Left ,69,36502988469 ,43,6378532650353 ,15,3960561053965
31.3626453 ,Left ,69,3282842086934 ,43,5343191597467 ,15,416102153242
31.3831268 ,Left ,69,29979673164 ,43,4624920168465 ,15,4747362139311
31.3997439 ,Left ,69,3247311439643 ,43,4520884820416 ,15,5768895173627
31.4218086 ,Left ,69,40876499667 ,43,2810874968119 ,15,6990767573224
31.4429906 ,Left ,69,5702698903706 ,42,9662684587036 ,15,8132544087627
31.460052 ,Left ,69,557313514956 ,42,9030709951173 ,15,8732819323987
31.4825586 ,Left ,69,402670652704 ,43,022241133571 ,15,8994134195871
31.5033766 ,Left ,69,564742179002 ,43,0779014788377 ,15,8927060634088
31.518873 ,Left ,69,7565431684598 ,43,038044567247 ,15,8529410635366
31.5419491 ,Left ,69,7771234986633 ,42,9874428083256 ,15,8480063886107
31.5632665 ,Left ,69,8220917495881 ,42,9291224786853 ,15,8753236002702
31.579415 ,Left ,69,8797381425875 ,42,8607435000151 ,15,9120990245639
31.6021324 ,Left ,69,9044912391384 ,42,8001331067482 ,15,9373021848476
31.6232313 ,Left ,69,9263117908893 ,42,7314204166693 ,15,9610058813662
31.6397384 ,Left ,69,9335790342495 ,42,6755106942166 ,15,9935434053321
31.6633349 ,Left ,69,9134684726108 ,42,6338619706811 ,16,0311454794116
31.6755177 ,Left ,69,9179200363438 ,42,6145266015949 ,16,0647807371121
31.6980383 ,Left ,69,9679061602659 ,42,5939287726468 ,16,0989054381781
31.7208211 ,Left ,70,0080165025219 ,42,5959742307905 ,16,1405129429649
31.735746 ,Left ,70,0290065720806 ,42,6159238016102 ,16,1934778709928
31.7582899 ,Left ,70,0283269101276 ,42,6394576124513 ,16,2531334415056
31.780607 ,Left ,70,0232831550373 ,42,6792234119755 ,16,3147525460919
31.7956382 ,Left ,70,0188988347146 ,42,7383402672712 ,16,3682241391096
31.8183071 ,Left ,70,00262749883 ,42,8203709004247 ,16,4023524981857
31.8410988 ,Left ,69,9653978841368 ,42,8930941191206 ,16,4310403114419
31.8560623 ,Left ,69,9319682577219 ,42,9645029457503 ,16,4603482824178
31.8782161 ,Left ,69,9044417081096 ,43,0519873303303 ,16,4854464501959
31.900522 ,Left ,69,8728105407193 ,43,1519514393557 ,16,5040422223808
31.9154611 ,Left ,69,8400131902076 ,43,2452666210041 ,16,5162380243554
31.9379131 ,Left ,69,7827309690461 ,43,3097798851254 ,16,5420517102111
31.9608251 ,Left ,69,7275554620557 ,43,3537809219093 ,16,575535615016
31.9753881 ,Left ,69,7138716837784 ,43,3840573312316 ,16,5877290634089
31.9981132 ,Left ,69,718590227664 ,43,3691963751859 ,16,5870210624395
32.0204935 ,Left ,69,6989548726282 ,43,308849230216 ,16,5862039147798
32.0381795 ,Left ,69,6710712793526 ,43,241259088816 ,16,6002632072389
32.0580475 ,Left ,69,564441287645 ,43,1875605483753 ,16,6349327140793
32.0805015 ,Left ,69,600568192209 ,43,1243014549753 ,16,6085222205316
32.0971058 ,Left ,69,4679720732458 ,42,8572072411886 ,16,6191486217366
32.1179984 ,Left ,69,4377982802724 ,42,5939492066514 ,16,6217773539127
32.1405677 ,Left ,69,4626192508234 ,42,4968703445603 ,16,4600706367995
32.1574614 ,Left ,69,5025890324097 ,42,4342756706424 ,16,2400098433023
32.1785564 ,Left ,69,6116808886136 ,42,2759110271784 ,16,0697637628163
32.2013019 ,Left ,69,5926821377153 ,42,1393187618212 ,16,0505091868399
32.2175765 ,Left ,69,4419200335467 ,42,1594343300976 ,16,1047991126534
32.2387415 ,Left ,69,2361898156628 ,42,2629651494608 ,16,1726106749616
32.2623617 ,Left ,69,1600141589061 ,42,3796250171025 ,16,2499030256595
32.277064 ,Left ,69,2789782632767 ,42,4281930111511 ,16,2865027180493
32.2982889 ,Left ,69,4971253619504 ,42,414469948952 ,16,2568379487701
32.3204752 ,Left ,69,4976849653489 ,42,4902326863669 ,16,2352986905653
32.3371549 ,Left ,69,4933213251487 ,42,5064262805101 ,16,2045044053269
32.3580305 ,Left ,69,566636437604 ,42,4562198044681 ,16,1589199699579
32.3807013 ,Left ,69,5594219421118 ,42,4209591907062 ,16,1153516166343
32.3970405 ,Left ,69,4636034554918 ,42,4636672372942 ,16,1359052561495
32.4185042 ,Left ,69,4573076323042 ,42,4530916108549 ,16,1615999666199
32.440441 ,Left ,69,4602227159258 ,42,3007054537028 ,16,2179164572265
32.457165 ,Left ,69,5269613024045 ,42,27783231523 ,16,2292408770866
32.4779372 ,Left ,69,4124165726377 ,42,5175487262225 ,16,2430368428028
32.5007754 ,Left ,69,3153139203238 ,42,8073855794079 ,16,2620354509417
32.5169734 ,Left ,69,3939691879545 ,42,9669096772034 ,16,2898971601633
32.5382 ,Left ,69,3791439067642 ,43,0422111630089 ,16,3250558353513
32.5621945 ,Left ,69,2336953844637 ,43,1207774096491 ,16,4040018348205
32.5842697 ,Left ,69,1497045723852 ,43,1846044744515 ,16,477614957329
32.6055612 ,Left ,69,0864239390032 ,43,2352280613749 ,16,5485806816054
32.6212932 ,Left ,69,021414905394 ,43,1366118325645 ,16,5916347677943
32.6446086 ,Left ,69,0272665154285 ,43,040475263399 ,16,5327041068624
32.6657423 ,Left ,68,9089385901557 ,43,1613823765075 ,16,4108238947694
32.6816673 ,Left ,68,7156539298322 ,43,3988295020162 ,16,2941980719027
32.7046927 ,Left ,68,7850903122694 ,43,5776808150559 ,16,1429794337114
32.7270016 ,Left ,68,9166941538028 ,43,6629679680464 ,15,9598715195467
32.7414936 ,Left ,68,9150549047406 ,43,7648205330515 ,15,7967517384384
32.7644918 ,Left ,68,8383155663385 ,43,8434214565361 ,15,6511280633477
32.7856124 ,Left ,68,7531489477436 ,43,891263034432 ,15,5073100067105
32.8012982 ,Left ,68,7528824278184 ,43,9278805134918 ,15,367121029918
32.8244505 ,Left ,68,8406152785733 ,43,9581633645194 ,15,2474975641143
32.846969 ,Left ,68,8974270113466 ,44,0027187634914 ,15,1309697075212
32.8612668 ,Left ,68,8807166554847 ,44,0475370796495 ,15,0415461713774
32.8847193 ,Left ,68,8852288032737 ,44,070009068581 ,14,9790496690244
32.907196 ,Left ,68,8714983000811 ,44,0503921999675 ,14,9620698204326
32.9279954 ,Left ,68,88949304972 ,44,0228986876159 ,14,9985677250256
32.9444019 ,Left ,68,9116094695566 ,44,0101258729466 ,15,0779031231971
32.9675238 ,Left ,68,9205104564328 ,43,9740238518906 ,15,1815990392135
32.9888561 ,Left ,68,8877979753567 ,43,8166926598876 ,15,243050970691
33.0050445 ,Left ,68,9804423143449 ,43,5814143423062 ,15,2876977381217
33.0276493 ,Left ,68,9811550399579 ,43,4960392212265 ,15,3440370526807
33.0487395 ,Left ,68,9207584309137 ,43,5495083205511 ,15,4334129235198
33.0646611 ,Left ,69,1343286773455 ,43,5223353135184 ,15,5160955393432
33.0869358 ,Left ,69,379319742185 ,43,4929177744794 ,15,5332072441716
33.1082967 ,Left ,69,3739636030006 ,43,4195093424367 ,15,5110345610691
33.124696 ,Left ,69,2696298060918 ,43,2927484882019 ,15,5366143197993
33.1471233 ,Left ,69,2456147323709 ,43,17677010269 ,15,5769064105955
33.1682911 ,Left ,69,2639894455075 ,43,0678122898307 ,15,6185228865189
33.1843341 ,Left ,69,2592700414366 ,43,0088900271808 ,15,65120729928
33.2070203 ,Left ,69,2095451008535 ,42,8888817899262 ,15,6872995048518
33.2281183 ,Left ,69,2301976110895 ,42,6796246467144 ,15,7592005488679
33.2438619 ,Left ,69,3852085651992 ,42,6254890688029 ,15,7928940803863
33.2670206 ,Left ,69,3259141093017 ,42,756333213125 ,15,8585821541025
33.2901184 ,Left ,69,410385646311 ,42,8979154620001 ,15,914881154256
33.3046382 ,Left ,69,5847675496683 ,42,9530205196411 ,15,9622887339805
33.3274368 ,Left ,69,6166615424066 ,42,9548830886451 ,16,0329353811639
33.3483064 ,Left ,69,5950342423926 ,42,965449601759 ,16,1251383671085
33.3636716 ,Left ,69,631973320079 ,42,941157650547 ,16,1984919732793
33.387145 ,Left ,69,698497079518 ,42,9233185543409 ,16,2182200699734
33.4093266 ,Left ,69,7398313340705 ,42,9120309143722 ,16,2049812018504
33.4241022 ,Left ,69,7338181331534 ,42,8851898104499 ,16,2012195894523
33.4501266 ,Left ,69,7094937107437 ,42,8699360040839 ,16,2050248253615
33.4624333 ,Left ,69,7029455034724 ,42,858792879571 ,16,2114568117557
33.4761788 ,Left ,69,7018904785084 ,42,8431752095143 ,16,2260784993822
33.4996902 ,Left ,69,630080374127 ,42,8581576067921 ,16,2683431326142
33.5204866 ,Left ,69,5433470903271 ,42,6319363701394 ,16,3376977605869
33.536251 ,Left ,69,438074845608 ,42,596040570633 ,16,4266250939562
33.5595548 ,Left ,69,5954070142099 ,42,6326893958397 ,16,3853299881093
33.5805667 ,Left ,69,4374509824044 ,42,5756232334228 ,16,4905438286295
33.5963639 ,Left ,69,6296551185314 ,42,5925551527244 ,16,4306846903925
33.6196966 ,Left ,69,5237394616741 ,42,6022712534903 ,16,5071621085532
33.6404809 ,Left ,69,5281753525278 ,42,7970544564746 ,16,5150618126656
33.6565414 ,Left ,69,5327856884948 ,42,8295588542217 ,16,4907585832687
33.6799089 ,Left ,69,5200001490893 ,42,870696164177 ,16,5056054400342
