timestamp,event,roll,pitch,yaw
3.0510546 ,Left ,45.0251318022197 ,49.1584954564869 ,67.3714205608405
3.0731712 ,Left ,45.0660104856002 ,48.9633983053546 ,67.6467677361771
3.0881942 ,Left ,45.0868041343989 ,48.7645984568974 ,67.9079588931157
3.1257207 ,Left ,45.0350799641953 ,48.5551263485414 ,68.4663521599744
3.1406797 ,Left ,45.1034247402136 ,48.4986081366096 ,68.7483460082308
3.1634433 ,Left ,45.1549751052672 ,48.4389877720249 ,68.9522976993809
3.1858781 ,Left ,45.2239623714396 ,48.4055315558536 ,69.0640905548553
3.200823 ,Left ,45.4292070667438 ,48.3696105279534 ,69.1106245478638
3.2233662 ,Left ,45.6943308525582 ,48.3022399484213 ,69.1189544046856
3.2461169 ,Left ,45.907744752125 ,48.1959543619185 ,69.1012014572759
3.2607885 ,Left ,45.994258288314 ,48.1022150061401 ,69.0544631892476
3.2833855 ,Left ,45.9939029512172 ,48.0357777644887 ,69.0045640915721
3.3058277 ,Left ,45.8998931360331 ,47.9712418651169 ,68.9278086953986
3.3208583 ,Left ,45.7483273594874 ,47.9140807586323 ,68.8340019991567
3.3507499 ,Left ,45.6270921986078 ,47.8588963156555 ,68.7547773012619
3.3734132 ,Left ,45.565745726675 ,47.8152575404273 ,68.6900919851294
3.388259 ,Left ,45.533992858922 ,47.7709821546636 ,68.6308556448312
3.4032642 ,Left ,45.5288640137001 ,47.7288951277819 ,68.5762074243482
3.425986 ,Left ,45.4987650512278 ,47.6892165067595 ,68.5279348167431
3.4407182 ,Left ,45.4489077688541 ,47.6559592320212 ,68.483963962141
3.4637433 ,Left ,45.4018146203884 ,47.6320188163532 ,68.4615805189522
3.4858641 ,Left ,45.3575807396797 ,47.6127158095981 ,68.4539907861137
3.5009007 ,Left ,45.3062991937769 ,47.5914500092742 ,68.4527839203839
3.5231734 ,Left ,45.260689113306 ,47.5685508393279 ,68.4537954920745
3.5458153 ,Left ,45.2297231775967 ,47.5549675837262 ,68.4451809129952
3.5608983 ,Left ,45.2161975494325 ,47.5421828681038 ,68.448145400505
3.5831156 ,Left ,45.2142146901056 ,47.5299867043509 ,68.4530762838283
3.6056878 ,Left ,45.2103893597093 ,47.5169333336274 ,68.4658874177503
3.6207678 ,Left ,45.1880118406701 ,47.5028698271876 ,68.4865584643852
3.6432637 ,Left ,45.1487931102089 ,47.4855979221126 ,68.5111626165917
3.6659091 ,Left ,45.1380872432507 ,47.460160377958 ,68.5415694795335
3.6809293 ,Left ,45.159740617088 ,47.4292560367037 ,68.5677110049711
3.703175 ,Left ,45.1795333775284 ,47.3896342282138 ,68.5837531387732
3.7256416 ,Left ,45.219009546241 ,47.3379517006149 ,68.5896981962465
3.7409006 ,Left ,45.2985395300718 ,47.2902254043679 ,68.5824817044455
3.7633165 ,Left ,45.3270409015638 ,47.2543337560807 ,68.5776694348862
3.7858252 ,Left ,45.2599932329943 ,47.2407662525719 ,68.5996546118238
3.8009041 ,Left ,45.2047897852418 ,47.2457803612557 ,68.5995061004858
3.8232977 ,Left ,45.1966137242252 ,47.2655687857379 ,68.5758106274569
3.8461878 ,Left ,45.2397955489464 ,47.276413389376 ,68.5584671898982
3.8608053 ,Left ,45.2746050868533 ,47.2800061127963 ,68.5350316104001
3.8835591 ,Left ,45.2209338680833 ,47.2733298121488 ,68.4970015067474
3.9058351 ,Left ,45.1910084787395 ,47.2393328253887 ,68.4861748372816
3.9206393 ,Left ,45.2218744711334 ,47.2051735331951 ,68.4875208024032
3.9431882 ,Left ,45.2207148291988 ,47.1838305986299 ,68.4804780701746
3.9658434 ,Left ,45.0996166599706 ,47.1977044049389 ,68.4768632648027
3.9883521 ,Left ,45.0162077657661 ,47.222527400576 ,68.4735203801916
4.0033415 ,Left ,45.0561379324104 ,47.2160066809263 ,68.4742257832539
4.0258245 ,Left ,45.0992243055909 ,47.1981534108841 ,68.4558828422436
4.0481206 ,Left ,45.0887440079314 ,47.1806561658651 ,68.4497735780024
4.064306 ,Left ,45.0385091538212 ,47.1907226022317 ,68.4667186851237
4.0857899 ,Left ,45.001362316932 ,47.2147579453459 ,68.4871521803547
4.1082935 ,Left ,44.9771891484711 ,47.2406225136024 ,68.4957242752205
4.1230529 ,Left ,44.957476024003 ,47.2791166091097 ,68.512183612193
4.1456683 ,Left ,44.962748991922 ,47.3030109859673 ,68.5434175069901
4.1682296 ,Left ,44.9795753139793 ,47.3100539687718 ,68.5785827807534
4.1833262 ,Left ,45.0040855439486 ,47.3121361096911 ,68.6183446290639
4.2058546 ,Left ,45.0251323123057 ,47.3246510740225 ,68.6632631692671
4.2282861 ,Left ,45.0392854303255 ,47.3365562171132 ,68.730999838612
4.2433639 ,Left ,45.0997190125876 ,47.3497713544118 ,68.7828023586222
4.2658884 ,Left ,45.1458666837228 ,47.3497743604842 ,68.8260723259669
4.2885146 ,Left ,45.191841316311 ,47.349283888444 ,68.8438983144896
4.3034812 ,Left ,45.2304183768156 ,47.3628288344511 ,68.8503350688189
4.325758 ,Left ,45.2598350829435 ,47.3891279753191 ,68.8511690413119
4.348292 ,Left ,45.2885409588154 ,47.4212524660277 ,68.8397241839226
4.3633864 ,Left ,45.3081171017021 ,47.4535228696775 ,68.8132714454476
4.3857754 ,Left ,45.3240890604353 ,47.4884280507117 ,68.7634012343484
4.4082719 ,Left ,45.3665504034811 ,47.5194300853365 ,68.7075214032697
4.4230891 ,Left ,45.4171398045874 ,47.5164152499315 ,68.6475026249681
4.4458683 ,Left ,45.4445645097702 ,47.4940938308749 ,68.5794427464632
4.4683713 ,Left ,45.4352540727234 ,47.4689173830992 ,68.522642921675
4.483376 ,Left ,45.4286395456292 ,47.4480976583077 ,68.4810105334661
4.5057809 ,Left ,45.3983250287518 ,47.4311187245433 ,68.4427874312094
4.5283407 ,Left ,45.3404701031862 ,47.4117955723414 ,68.3936624782086
4.5431643 ,Left ,45.3079278301022 ,47.3892349473067 ,68.3621001784197
4.5657977 ,Left ,45.30489112005 ,47.3552317878588 ,68.3320867085817
4.5883022 ,Left ,45.2988531297508 ,47.3119740775134 ,68.3117349289809
4.6033433 ,Left ,45.2955060514706 ,47.2718692165729 ,68.3132746390844
4.6256477 ,Left ,45.244927680825 ,47.2505024139504 ,68.3222754115671
4.6485187 ,Left ,45.1540712144894 ,47.2541055411473 ,68.3477277511921
4.6633561 ,Left ,45.0949621222635 ,47.2677961057977 ,68.336723196531
4.6859701 ,Left ,45.1682954159172 ,47.2689506034316 ,68.297397011897
4.7156384 ,Left ,45.331951187164 ,47.2445647794706 ,68.2446544637658
4.738471 ,Left ,45.4452813142043 ,47.207675709168 ,68.1922679038017
4.7456981 ,Left ,45.3935140143485 ,47.2028374877469 ,68.1652636289589
4.8057023 ,Left ,45.0571932401459 ,47.3411395645432 ,68.3099480534662
4.820766 ,Left ,45.1495358030867 ,47.3796621653354 ,68.3388167547767
4.8356212 ,Left ,45.2135428040537 ,47.428242620603 ,68.3544109607008
4.858441 ,Left ,45.2358108345599 ,47.4780852646075 ,68.3618491174313
4.8819696 ,Left ,45.322647165718 ,47.5005203360432 ,68.3631586092419
4.8981775 ,Left ,45.4556372119134 ,47.4927924395652 ,68.3603427327352
4.91806 ,Left ,45.5137667749064 ,47.4744330804008 ,68.3583338383474
4.9407748 ,Left ,45.4556321161718 ,47.4607337612639 ,68.3736944094859
4.9556406 ,Left ,45.3936963720941 ,47.4549230268623 ,68.3850937584711
4.978129 ,Left ,45.3695776587092 ,47.4373214211265 ,68.3908631287889
5.0083114 ,Left ,45.3657282828867 ,47.4178074866228 ,68.3786763483713
5.0233705 ,Left ,45.3609685217087 ,47.4008332510241 ,68.3690211217635
5.0606411 ,Left ,45.3342616899891 ,47.3811108670559 ,68.3543267281822
5.0757826 ,Left ,45.3037945709987 ,47.3802629488764 ,68.3389253626943
5.0986539 ,Left ,45.25722431866 ,47.3878098062359 ,68.3269519948135
5.1208394 ,Left ,45.229283599845 ,47.4001838030764 ,68.3202336962661
5.1356216 ,Left ,45.2249946980249 ,47.4092214815049 ,68.3121943326649
5.1582531 ,Left ,45.2214797636631 ,47.4154195640207 ,68.3020777776867
5.1809463 ,Left ,45.2212298837569 ,47.417190595215 ,68.2973244969185
5.1958497 ,Left ,45.2333753307371 ,47.413972458929 ,68.2958351496382
5.2181352 ,Left ,45.23939701875 ,47.4071296894393 ,68.2891222961502
5.2408357 ,Left ,45.233050828819 ,47.4060188233734 ,68.2808621411661
5.2557981 ,Left ,45.2156623445266 ,47.4141033157027 ,68.2779637126999
5.2782211 ,Left ,45.2080012677013 ,47.4235891815242 ,68.2774842193829
5.3011498 ,Left ,45.2186383928007 ,47.4284054166667 ,68.2745581537012
5.3382413 ,Left ,45.2446426153257 ,47.4425432513769 ,68.2715183771612
5.3607014 ,Left ,45.257273076615 ,47.4475687664899 ,68.284601227503
5.3756326 ,Left ,45.2738546281084 ,47.4473878639347 ,68.2957998147419
5.3981662 ,Left ,45.2803354957274 ,47.4471503837806 ,68.3109708052549
5.4206469 ,Left ,45.2558549937643 ,47.4433675611074 ,68.330082208294
5.4580188 ,Left ,45.2016722757867 ,47.4482050459426 ,68.3645679170173
5.4809704 ,Left ,45.2026289889803 ,47.4632847602401 ,68.3750266018522
5.5212561 ,Left ,45.17702216114 ,47.52051411255 ,68.403074888587
5.5488749 ,Left ,45.1547583994589 ,47.5469584680086 ,68.4298407671639
5.5858764 ,Left ,45.165499339081 ,47.5849681573295 ,68.4715103172683
5.6007201 ,Left ,45.1738080280559 ,47.6045246465208 ,68.4849980766857
5.6381724 ,Left ,45.2169709924578 ,47.6319660584141 ,68.5164966071686
5.6608745 ,Left ,45.2374552544077 ,47.6359499285352 ,68.5213845185103
5.6982489 ,Left ,45.2486867770937 ,47.6343128021266 ,68.531566946041
5.7371067 ,Left ,45.2686935836724 ,47.6150593826503 ,68.5179460524126
5.7581498 ,Left ,45.2860700041463 ,47.6005884057959 ,68.5108409828559
5.8033592 ,Left ,45.3232566311096 ,47.5481328030465 ,68.4864872333714
5.8333799 ,Left ,45.32178488117 ,47.5161463639277 ,68.467521796928
5.8632841 ,Left ,45.2558233373498 ,47.4538816490879 ,68.4352484788395
5.8783284 ,Left ,45.2016890948552 ,47.4247960861089 ,68.4343448176587
5.9158267 ,Left ,45.0730336897105 ,47.3835078120892 ,68.4524173356138
5.9382443 ,Left ,45.0635364423768 ,47.3716511172792 ,68.4612240125016
5.9759096 ,Left ,45.1692257852231 ,47.3808868077503 ,68.4799913244566
5.9983852 ,Left ,45.252669806236 ,47.3951275979871 ,68.4711843820479
6.0358967 ,Left ,45.3010263100685 ,47.4329245511378 ,68.4711200745931
6.0584459 ,Left ,45.2680836504928 ,47.444837294682 ,68.4515090617337
6.0958106 ,Left ,45.2107552601699 ,47.4279939205573 ,68.4089263014644
6.1183296 ,Left ,45.2074896579658 ,47.399459358206 ,68.3872990544829
6.1559078 ,Left ,45.1843981806648 ,47.3695163112553 ,68.3673180009364
6.1781176 ,Left ,45.181817599444 ,47.3665705659693 ,68.3450708505836
6.2158982 ,Left ,45.1724841395322 ,47.3985745858786 ,68.3190921041908
6.2384075 ,Left ,45.1591914556796 ,47.4127107454497 ,68.3279372243345
6.2758361 ,Left ,45.1238806519005 ,47.4114831425704 ,68.325136943501
6.2984443 ,Left ,45.1493803961942 ,47.3904674002527 ,68.3272850931667
6.343115 ,Left ,45.1685325607223 ,47.3454208663302 ,68.3281414157353
6.3658303 ,Left ,45.1650044746123 ,47.3455958276313 ,68.3361327222625
6.4187015 ,Left ,45.060277355415 ,47.4355539989932 ,68.3898785813826
6.4555801 ,Left ,45.0869956188261 ,47.4994628670251 ,68.4631374546061
6.4782655 ,Left ,45.1606799779551 ,47.4986644753447 ,68.5064769893856
6.5161851 ,Left ,45.2007235367666 ,47.4775325160399 ,68.6228500958418
6.5384295 ,Left ,45.2161536895725 ,47.4652090155037 ,68.6743501199831
6.5758406 ,Left ,45.3444123072888 ,47.4324314992718 ,68.7402122762319
6.601066 ,Left ,45.4319627257892 ,47.4346772439045 ,68.7454523333795
6.6152996 ,Left ,45.4538934856205 ,47.4480487692673 ,68.7391220520773
6.6357815 ,Left ,45.4533067488049 ,47.4671387578747 ,68.7355334588368
6.6580421 ,Left ,45.4704440872008 ,47.4799174906957 ,68.7137318535986
6.6809759 ,Left ,45.4991942495201 ,47.4758077238427 ,68.6673168258475
6.6957609 ,Left ,45.5287968894421 ,47.4634868916698 ,68.6104031130072
6.7183615 ,Left ,45.5375792098755 ,47.4570037075826 ,68.5749718305655
6.7332694 ,Left ,45.5454782957783 ,47.4537838767231 ,68.5438459842203
6.7484073 ,Left ,45.5324364845252 ,47.4476569353438 ,68.5146526923845
6.7710003 ,Left ,45.4923818663345 ,47.442458201247 ,68.4827419288171
6.7932709 ,Left ,45.4557932660449 ,47.4471220350744 ,68.4554404961615
6.8082998 ,Left ,45.4467992301974 ,47.4409860294833 ,68.4303047231708
6.8309654 ,Left ,45.4721355687066 ,47.429056838495 ,68.4001472730167
6.8534435 ,Left ,45.4976464555698 ,47.4062340516651 ,68.3814471682288
6.8683852 ,Left ,45.4863767849358 ,47.409297067332 ,68.3643924592013
6.8908823 ,Left ,45.4433371972598 ,47.426964632036 ,68.3566414654209
6.9208815 ,Left ,45.3833661545119 ,47.4420441213841 ,68.3287981508381
6.9583684 ,Left ,45.3866812549436 ,47.4428665132748 ,68.2862239109231
6.9733743 ,Left ,45.4893001363036 ,47.4413035303285 ,68.2385865880261
6.9882619 ,Left ,45.5732467564115 ,47.4351175446119 ,68.1857940042601
7.0032499 ,Left ,45.4791965971707 ,47.4475610787387 ,68.1856804252933
7.0183777 ,Left ,45.4041255274929 ,47.4880181252944 ,68.2350262188958
7.0332248 ,Left ,45.3961685632848 ,47.5093349067408 ,68.2810877335871
7.0558461 ,Left ,45.4306210782885 ,47.5316267941809 ,68.3012180113095
7.0708802 ,Left ,45.4820580654249 ,47.5553736387566 ,68.3225420967547
7.0932941 ,Left ,45.521989068914 ,47.5875632976064 ,68.3353869856703
7.1158669 ,Left ,45.5585902768601 ,47.6167546090328 ,68.3423378643071
7.1311546 ,Left ,45.5920748997571 ,47.6256188470691 ,68.3449412654345
7.1533559 ,Left ,45.5977973921669 ,47.6122597290148 ,68.3417816308708
7.1758412 ,Left ,45.5863243826369 ,47.5932305407563 ,68.3354586177732
7.1908809 ,Left ,45.5627587259441 ,47.575736255091 ,68.3378220794985
7.22072 ,Left ,45.5326532800992 ,47.552876206916 ,68.3451635910713
7.2433523 ,Left ,45.512750084805 ,47.5377718853132 ,68.348968057925
7.2583565 ,Left ,45.4952560005209 ,47.5238452240592 ,68.3568403614863
7.2733147 ,Left ,45.4782851739316 ,47.5213895121768 ,68.3647981858861
7.2957882 ,Left ,45.4808176187538 ,47.5204642986869 ,68.3739970281277
7.3107868 ,Left ,45.4836294210865 ,47.5210614632642 ,68.3733148520285
7.333279 ,Left ,45.4892605074084 ,47.5289745522965 ,68.3708914150348
7.355757 ,Left ,45.4637925120494 ,47.5443156249181 ,68.3607008928453
7.3710603 ,Left ,45.4258392375913 ,47.5725431184697 ,68.3499704870993
7.3933103 ,Left ,45.3901623814711 ,47.6040084423753 ,68.3381069785978
7.4158264 ,Left ,45.3680720901349 ,47.6308951864876 ,68.3251681134351
7.4308954 ,Left ,45.3555370403589 ,47.6470649125631 ,68.310027698573
7.4532932 ,Left ,45.3482157129812 ,47.6575999826006 ,68.2975752445971
7.4757694 ,Left ,45.3467900597573 ,47.6651841275762 ,68.2940721935508
7.4905992 ,Left ,45.3318472741954 ,47.6768524483507 ,68.2895077699641
7.5133241 ,Left ,45.282667537543 ,47.6937227794164 ,68.2877444694009
7.5357836 ,Left ,45.2325998479176 ,47.7161910926649 ,68.2846646195091
7.5508883 ,Left ,45.2137072421787 ,47.7381088343669 ,68.2882218830626
7.573209 ,Left ,45.2061215379651 ,47.7585012466601 ,68.3019004508288
7.5957598 ,Left ,45.18258935847 ,47.7868574308062 ,68.316736630369
7.610885 ,Left ,45.1561343382052 ,47.8240965126318 ,68.3277454865925
7.6339769 ,Left ,45.1542199550774 ,47.8598211708076 ,68.3396658462585
7.6558362 ,Left ,45.1660082738598 ,47.8917203557072 ,68.3522856730509
7.6708705 ,Left ,45.1743561097524 ,47.9187110752699 ,68.3666469231353
7.6932538 ,Left ,45.1709983792032 ,47.939295868717 ,68.3843050856625
7.7158644 ,Left ,45.1742211981197 ,47.9561662186051 ,68.4036903852189
7.7308096 ,Left ,45.1715240737866 ,47.9669351347959 ,68.4207285587673
7.7535782 ,Left ,45.1728258193546 ,47.9720632878539 ,68.433726424291
7.7758776 ,Left ,45.1819226248566 ,47.9746470698904 ,68.4457493480476
7.7907743 ,Left ,45.1889340960229 ,47.9804928685567 ,68.4552910704441
7.8134641 ,Left ,45.1759222568056 ,47.9874984765051 ,68.4630221856889
7.8357502 ,Left ,45.1481493278741 ,48.004165554675 ,68.471286524885
7.8581354 ,Left ,45.1345291875939 ,48.0209990506922 ,68.4796693681653
7.8733071 ,Left ,45.1242338257687 ,48.035749326221 ,68.4878417091312
7.895834 ,Left ,45.1282740886882 ,48.0430610994158 ,68.492890266183
7.9183544 ,Left ,45.1324925307128 ,48.0450814002549 ,68.4891126686031
7.9333797 ,Left ,45.1162581128933 ,48.0458951750338 ,68.4920667392375
7.9556835 ,Left ,45.0932592342112 ,48.0529472368752 ,68.5036195080142
7.9783563 ,Left ,45.0977911093319 ,48.0479107718579 ,68.5273562016211
7.9933461 ,Left ,45.11126876338 ,48.0329212404398 ,68.5562145375467
8.0157731 ,Left ,45.054333759943 ,48.013961244672 ,68.5832981614391
8.038606 ,Left ,45.0105779564349 ,47.9933775006245 ,68.6086339744125
8.0535974 ,Left ,45.0112193314214 ,48.0009642193479 ,68.6775481840721
8.0757152 ,Left ,45.0426431218526 ,48.0159413728509 ,68.7187921947277
8.0982882 ,Left ,45.0544436663824 ,48.014933804698 ,68.7570557553862
8.1132647 ,Left ,45.0508358657013 ,48.0138435283116 ,68.7884599282088
8.1358894 ,Left ,45.0833857654075 ,47.9969910321886 ,68.807403387983
8.1583553 ,Left ,45.160619875089 ,47.9699271709619 ,68.8142525848036
8.1734273 ,Left ,45.2552501660308 ,47.922514323127 ,68.8030292389914
8.1958268 ,Left ,45.3417921541422 ,47.8752048431855 ,68.7834457163668
8.2183383 ,Left ,45.4247294175134 ,47.8390494802802 ,68.7604071876001
8.2333355 ,Left ,45.3895309794383 ,47.8050294278076 ,68.7350457653451
8.2560426 ,Left ,45.2296284238439 ,47.7856279806653 ,68.6996861839414
8.2861971 ,Left ,45.0936316955135 ,47.7630172731502 ,68.6783107253113
8.3014754 ,Left ,45.0290223212511 ,47.735336680885 ,68.6456531216558
8.3310924 ,Left ,45.0472964864185 ,47.7078993745848 ,68.6101856199412
8.3455629 ,Left ,45.0992682929651 ,47.6998551959408 ,68.5914223516257
8.3606681 ,Left ,45.1695311636399 ,47.7039438017651 ,68.5664513697042
8.3834185 ,Left ,45.1623269335018 ,47.6975546963364 ,68.5291320385843
8.3983745 ,Left ,45.0737506027671 ,47.7116109794239 ,68.4994723654202
8.4151819 ,Left ,45.0028155203498 ,47.7340700106044 ,68.4816967494106
8.4359286 ,Left ,44.9677282384788 ,47.7343487655555 ,68.4687718428409
8.4582871 ,Left ,44.9866589524649 ,47.7145080936369 ,68.446326805877
8.4732216 ,Left ,45.0352227002617 ,47.6974310302293 ,68.4248637658569
8.4956786 ,Left ,45.0710326310934 ,47.688365395529 ,68.3992182303866
8.5255539 ,Left ,45.1049557512828 ,47.6840839725179 ,68.3897837160628
8.5408317 ,Left ,45.1557861134824 ,47.6900883435937 ,68.375096319539
8.5705899 ,Left ,45.1269206499371 ,47.7147752760932 ,68.3657971917339
8.5859881 ,Left ,45.1121787911853 ,47.7526392911122 ,68.3654438313396
8.6081873 ,Left ,45.0719924125213 ,47.7902207495911 ,68.3622951762244
8.6234259 ,Left ,45.053133547337 ,47.825184429637 ,68.3747894495416
8.6455492 ,Left ,45.0964764540411 ,47.8343530971053 ,68.3889940755741
8.6607502 ,Left ,45.1237540122709 ,47.8417771015196 ,68.4226787057686
8.6758059 ,Left ,45.1443039210301 ,47.848694544765 ,68.4813860576007
8.6982378 ,Left ,45.1598162925137 ,47.8441085322164 ,68.5521855131618
8.7213688 ,Left ,45.2060207911757 ,47.8368743746933 ,68.6115588021241
8.7359219 ,Left ,45.2839618139972 ,47.8289215004981 ,68.6611542905909
8.758281 ,Left ,45.3899422839595 ,47.8306880151172 ,68.708958224879
8.7809331 ,Left ,45.4891769903037 ,47.8475078784628 ,68.7457775687974
8.7958257 ,Left ,45.493134920718 ,47.8822719035997 ,68.7646727204659
8.8183249 ,Left ,45.4525335148241 ,47.9421808368688 ,68.7860467617925
8.8407504 ,Left ,45.4594839379237 ,48.0040457973919 ,68.782781098065
8.8556341 ,Left ,45.5503457326476 ,48.025602436031 ,68.745835545625
8.8856684 ,Left ,45.6245655538059 ,48.0217237107168 ,68.673984269191
8.9081793 ,Left ,45.6213837058326 ,48.0269037627044 ,68.6104044305255
8.9233569 ,Left ,45.6010754512367 ,48.0376232512022 ,68.5600782595962
8.9383417 ,Left ,45.5830803771835 ,48.0302682700316 ,68.5077419918855
8.9607875 ,Left ,45.5621482048705 ,48.0165649592415 ,68.4480517030495
8.975686 ,Left ,45.5206253036497 ,47.9996170884424 ,68.3874433222107
8.9984569 ,Left ,45.499390382939 ,47.9892138977058 ,68.3600517942391
9.0209556 ,Left ,45.5260217440545 ,47.9710643338012 ,68.3524072664995
9.0433559 ,Left ,45.5590069589432 ,47.9426090442418 ,68.3500121478971
9.0656818 ,Left ,45.5790919559105 ,47.9065059076376 ,68.3533396716723
9.0957196 ,Left ,45.432954640593 ,47.9177979192004 ,68.3951730705324
9.1182648 ,Left ,45.394814543635 ,47.915860354999 ,68.3925539240067
9.1407686 ,Left ,45.4630567575984 ,47.8775025902676 ,68.3769532115443
9.1558764 ,Left ,45.5765304738258 ,47.8207650697184 ,68.3531230895453
9.1783761 ,Left ,45.6251964457535 ,47.7665877614721 ,68.3366925288295
9.2008425 ,Left ,45.5222705415346 ,47.7388323476264 ,68.3421582336147
9.2163186 ,Left ,45.4282721276589 ,47.7334542795255 ,68.3677845489527
9.2383243 ,Left ,45.3994647630834 ,47.7238099751426 ,68.3904918814068
9.2608755 ,Left ,45.3699783190873 ,47.7098948405719 ,68.41427388655
9.2757697 ,Left ,45.3610174846531 ,47.7062942526413 ,68.4399294789506
9.2983909 ,Left ,45.3155036184021 ,47.7233962952931 ,68.4583091381401
9.320871 ,Left ,45.25371722957 ,47.7665622532531 ,68.4675000897369
9.3358153 ,Left ,45.2439594156578 ,47.8214339514886 ,68.47708576723
9.3584022 ,Left ,45.3187791344236 ,47.8482582225117 ,68.471075315466
9.380833 ,Left ,45.4683623851046 ,47.8582701287066 ,68.4543217693297
9.3958397 ,Left ,45.5976794866361 ,47.8675889973029 ,68.444045452741
9.4184506 ,Left ,45.6080056862996 ,47.8798992348336 ,68.444835026116
9.4408055 ,Left ,45.5673834239529 ,47.883441471182 ,68.450319979211
9.4559894 ,Left ,45.5423440428089 ,47.871713809486 ,68.4566182699465
9.4783934 ,Left ,45.543997691674 ,47.8706679629424 ,68.4565151252369
9.501118 ,Left ,45.5737666298411 ,47.872688456917 ,68.453454440326
9.5157019 ,Left ,45.6270723363696 ,47.883002286504 ,68.4550080928683
9.5382393 ,Left ,45.6987963338665 ,47.8933771881671 ,68.4584082401126
9.560794 ,Left ,45.7673859112905 ,47.8982812777342 ,68.458829509868
9.5757394 ,Left ,45.8051298884623 ,47.9129453387638 ,68.4738002730035
9.5982842 ,Left ,45.8177913947239 ,47.9357439137469 ,68.5054298821188
9.6207362 ,Left ,45.8469843281688 ,47.9621081766839 ,68.5360884316214
9.6373048 ,Left ,45.9039933623539 ,47.9747973395574 ,68.5394186743999
9.6583781 ,Left ,45.9626559068797 ,47.9570518273875 ,68.5058505992175
9.681262 ,Left ,45.9504121463617 ,47.915819928946 ,68.4513120467446
9.6958365 ,Left ,45.8286360527344 ,47.874418418397 ,68.3975600470007
9.7258249 ,Left ,45.6342903292488 ,47.8381993819484 ,68.3545809350837
9.7495625 ,Left ,45.459275180232 ,47.8081725384822 ,68.3205436696272
9.7859561 ,Left ,45.3650751208536 ,47.7409805793132 ,68.2717586083131
9.8079655 ,Left ,45.3795264369739 ,47.7053792890722 ,68.2693165946735
9.838289 ,Left ,45.3455319938476 ,47.6639831714343 ,68.2967765581703
9.8624645 ,Left ,45.3045342232847 ,47.655209755373 ,68.3265966567162
9.8834102 ,Left ,45.2853937763433 ,47.6453427155747 ,68.3593420616671
9.9001738 ,Left ,45.3100911626354 ,47.6351768109 ,68.3946140731937
9.9210272 ,Left ,45.3522185486301 ,47.6230230885193 ,68.4297391237135
9.9431954 ,Left ,45.3812831484037 ,47.6055389370939 ,68.465403380446
9.9581376 ,Left ,45.4002863054526 ,47.5817796232946 ,68.4948645786976
9.9881598 ,Left ,45.413703737368 ,47.5513235759776 ,68.5173109321684
10.0105813 ,Left ,45.411336873119 ,47.5146353073195 ,68.538820388944
10.0256339 ,Left ,45.3713263108848 ,47.4825825522051 ,68.5520498221127
10.0633081 ,Left ,45.3051120392981 ,47.4445390252328 ,68.5711370509263
10.0783469 ,Left ,45.270847030163 ,47.4396261580154 ,68.5878599535516
10.1006933 ,Left ,45.244311500911 ,47.4400594689296 ,68.6063290562931
10.1234829 ,Left ,45.2457274751333 ,47.4412771019962 ,68.6293655826577
10.1381084 ,Left ,45.2499036008864 ,47.4451436115391 ,68.6464825816768
10.1606733 ,Left ,45.234159056642 ,47.4491318900559 ,68.6581382354131
10.1832969 ,Left ,45.2093540943166 ,47.4552819212925 ,68.6753744627849
10.1982817 ,Left ,45.1877208825334 ,47.4597978980657 ,68.6945653179524
10.2208526 ,Left ,45.1759640508678 ,47.4464208824832 ,68.7229821560241
10.2433568 ,Left ,45.1308958618711 ,47.4341226904545 ,68.7572860485427
10.2664411 ,Left ,45.0876000808475 ,47.4333920110285 ,68.7983700936088
10.2884196 ,Left ,45.0780959496735 ,47.4347781588391 ,68.842113124516
10.3108584 ,Left ,45.0707766518836 ,47.441181839812 ,68.8798161800328
10.325784 ,Left ,45.0888735733771 ,47.4566179147576 ,68.915868370571
10.3408525 ,Left ,45.1518456077579 ,47.4720360852532 ,68.9389264732759
10.3633658 ,Left ,45.2679467909399 ,47.4794967229187 ,68.9518217333852
10.378321 ,Left ,45.3760729724768 ,47.5029146074515 ,68.9514627487657
10.4007473 ,Left ,45.452314438928 ,47.5263600495732 ,68.9313154402036
10.423341 ,Left ,45.4391937768878 ,47.5405508686732 ,68.8860118836965
10.4460484 ,Left ,45.3731394258987 ,47.5312223251598 ,68.8496833827107
10.468359 ,Left ,45.3097365141247 ,47.4998207605442 ,68.8084187532661
10.4909644 ,Left ,45.2872076348629 ,47.4578266952103 ,68.7619101851147
10.5133414 ,Left ,45.2822532390289 ,47.4286918409642 ,68.7449385100918
10.5281767 ,Left ,45.2962769910387 ,47.4162064927148 ,68.7380113026029
10.5357681 ,Left ,45.3053687226283 ,47.4068989610586 ,68.7314192958813
10.5507294 ,Left ,45.2784108238886 ,47.4096722317252 ,68.721406819315
10.5734144 ,Left ,45.2567667819521 ,47.4280244374086 ,68.7145701986791
10.5957493 ,Left ,45.2537706349167 ,47.4429419529106 ,68.7212252031917
10.6106549 ,Left ,45.2678484280985 ,47.4484856466368 ,68.7295592829724
10.6334025 ,Left ,45.3324341448917 ,47.4425272744514 ,68.7405068304273
10.6556912 ,Left ,45.3836089205057 ,47.4424709347457 ,68.7431169444169
10.6708237 ,Left ,45.3705799430934 ,47.4474712281017 ,68.7562333956158
10.6931056 ,Left ,45.3606326533403 ,47.4600433948643 ,68.7671068281545
10.7156876 ,Left ,45.3637482585081 ,47.472655634779 ,68.7711340375145
10.7307409 ,Left ,45.355969757971 ,47.4902909448533 ,68.7760049711714
10.7533631 ,Left ,45.3031844833439 ,47.542501008351 ,68.7820474024047
10.7756236 ,Left ,45.2435348086278 ,47.598203009627 ,68.800261581437
10.7907116 ,Left ,45.22667944301 ,47.6378367771876 ,68.8211927879825
10.8206674 ,Left ,45.2653208974625 ,47.6527142193069 ,68.8470628522636
10.8433328 ,Left ,45.31346012035 ,47.6624421305324 ,68.8789627176358
10.8583649 ,Left ,45.3071658474664 ,47.6762709139911 ,68.9293738499437
10.8733644 ,Left ,45.2738036370437 ,47.6881589083737 ,68.9918558270446
10.8960287 ,Left ,45.3051514838958 ,47.6837820793895 ,69.0393109594311
10.9108742 ,Left ,45.3658879473757 ,47.6772663042683 ,69.0726588715563
10.9332304 ,Left ,45.4267650009092 ,47.6663995740959 ,69.0879253704297
10.9556543 ,Left ,45.4881497503088 ,47.6654196663606 ,69.0846533936139
10.9710162 ,Left ,45.4679225987233 ,47.6866876011446 ,69.06779946945
10.9931687 ,Left ,45.4098308582162 ,47.7182511050274 ,69.0360138025654
11.0156701 ,Left ,45.3919586771171 ,47.7405306687147 ,68.99465691116
11.0307446 ,Left ,45.4231390862104 ,47.7404528086023 ,68.9347982676039
11.0531992 ,Left ,45.4418786373315 ,47.7311851492348 ,68.8697342278094
11.075792 ,Left ,45.436402848795 ,47.7213757949974 ,68.8067411778399
11.0910578 ,Left ,45.4442438471488 ,47.713826595717 ,68.757439627437
11.1132252 ,Left ,45.4888310446117 ,47.6897044965667 ,68.7172289114814
11.135703 ,Left ,45.4808792581349 ,47.667006093563 ,68.6735742490801
11.1731928 ,Left ,45.3835934822939 ,47.6686699291512 ,68.61666701367
11.1957841 ,Left ,45.3787603105483 ,47.6730515637685 ,68.6074689653652
11.2332551 ,Left ,45.4578097388166 ,47.6471803641077 ,68.6062237213007
11.2557507 ,Left ,45.4724006724262 ,47.6239959508372 ,68.6078022713534
11.2932953 ,Left ,45.3528878348299 ,47.6328257697462 ,68.6289294847996
11.3184362 ,Left ,45.3869127061277 ,47.630288821901 ,68.6118639648955
11.353198 ,Left ,45.5527086158148 ,47.550653029904 ,68.5638170291885
11.3830757 ,Left ,45.5619789885205 ,47.5125998826831 ,68.5532623012557
11.4206875 ,Left ,45.3617892499577 ,47.5078512392918 ,68.6493143093397
11.4355765 ,Left ,45.3324033551325 ,47.5006749695447 ,68.6957707141099
11.473095 ,Left ,45.4149718585231 ,47.4848176714611 ,68.726772723263
11.4958422 ,Left ,45.4736909830257 ,47.5018934203904 ,68.7391610780046
11.5334061 ,Left ,45.45660982965 ,47.6033062135599 ,68.7576006381832
11.5556513 ,Left ,45.525281261788 ,47.6311706094001 ,68.7550002618521
11.5931354 ,Left ,45.6428432690895 ,47.6556299280672 ,68.7260622188341
11.615716 ,Left ,45.5792878408207 ,47.6817946452746 ,68.7339566722935
11.653114 ,Left ,45.5559860789001 ,47.7090316687905 ,68.7585406226183
11.6758244 ,Left ,45.5735986293292 ,47.712197237851 ,68.7644440192766
11.7130653 ,Left ,45.5865677859891 ,47.7383654185811 ,68.7784914263802
11.7358654 ,Left ,45.6107047953777 ,47.7443956960869 ,68.7851853147532
11.7732979 ,Left ,45.6052413776788 ,47.7645454090685 ,68.7873486303799
11.7955526 ,Left ,45.6105981297351 ,47.775335183643 ,68.7841937364821
11.8333412 ,Left ,45.6264226603048 ,47.7809907217406 ,68.783301535813
11.870741 ,Left ,45.6126370828948 ,47.7875781161336 ,68.7794725036741
11.8932728 ,Left ,45.6321390572835 ,47.7834180980016 ,68.7724648354194
11.9381385 ,Left ,45.6176182795318 ,47.800641259353 ,68.7737152448503
11.9606337 ,Left ,45.5926843415447 ,47.817813349216 ,68.7817400428137
12.0131472 ,Left ,45.6017534196992 ,47.8366344092516 ,68.8192559219204
12.0507056 ,Left ,45.5795100795444 ,47.842952935409 ,68.8520053634635
12.0730731 ,Left ,45.5495141127853 ,47.8458587800466 ,68.8753795888916
12.1110849 ,Left ,45.5506086799058 ,47.8359580750617 ,68.9288579778065
12.1332956 ,Left ,45.5612243525033 ,47.8320199151259 ,68.9633249079234
12.1780955 ,Left ,45.6208649500633 ,47.8045819270812 ,69.076984900114
12.2083124 ,Left ,45.6277566531226 ,47.7911407658027 ,69.1374381046454
12.2382085 ,Left ,45.5889040729733 ,47.7604726891594 ,69.2727789552868
12.2907264 ,Left ,45.6595105244244 ,47.6862869639855 ,69.3652442168202
12.3133962 ,Left ,45.7324562718248 ,47.6629168156761 ,69.3717076671588
12.3508059 ,Left ,45.7668258464426 ,47.6472959354147 ,69.3857266053587
12.3732965 ,Left ,45.7492033458692 ,47.6527415521971 ,69.3848281569112
12.4033851 ,Left ,45.7413492837626 ,47.6595824678212 ,69.3755366438556
12.4255997 ,Left ,45.763430321682 ,47.6650277007707 ,69.3662839584323
12.4556711 ,Left ,45.7684675201036 ,47.6706490941507 ,69.3596524549795
12.4859149 ,Left ,45.7668506569001 ,47.6717427014942 ,69.3597444625095
12.5006844 ,Left ,45.7594489191488 ,47.6804041508206 ,69.3685760922223
12.5156483 ,Left ,45.7417448278606 ,47.6887715377223 ,69.3820151386863
12.5458202 ,Left ,45.7456745887635 ,47.6944782206631 ,69.3970405648381
12.5696111 ,Left ,45.7456745887635 ,47.6944782206631 ,69.3970405648381
12.5907208 ,Left ,45.7563093969532 ,47.689641220998 ,69.3985587656098
12.605947 ,Left ,45.8007482413745 ,47.685877936251 ,69.4012242191367
12.6281618 ,Left ,45.8294110078792 ,47.6918862827955 ,69.3981437697745
12.6521422 ,Left ,45.8437691600764 ,47.7029474570717 ,69.3864482987549
12.6663177 ,Left ,45.8486981134957 ,47.7069518330585 ,69.3587304950066
12.6885069 ,Left ,45.7858446161243 ,47.7058830232338 ,69.3169149071256
12.7105994 ,Left ,45.677663430118 ,47.6952637350033 ,69.27970642409
12.7255492 ,Left ,45.6481508367689 ,47.6808986520976 ,69.239673890812
12.748444 ,Left ,45.677703988651 ,47.6501517298661 ,69.2051226357482
12.7781938 ,Left ,45.7336925660419 ,47.6194678019873 ,69.1826281479168
12.7933006 ,Left ,45.776390450453 ,47.5972772866386 ,69.1461802047696
12.8305922 ,Left ,45.6291842225916 ,47.5629562781163 ,69.1207218864994
12.8456164 ,Left ,45.5550200920722 ,47.5561171088814 ,69.1252194517607
12.8683801 ,Left ,45.5217613145516 ,47.5487080855027 ,69.1369784960004
12.890794 ,Left ,45.5062787577724 ,47.5384192334182 ,69.1438658881023
12.9057098 ,Left ,45.5415558877863 ,47.5274880519739 ,69.1564938872323
12.9281353 ,Left ,45.6132329540782 ,47.5200151325794 ,69.1646912534222
12.9507671 ,Left ,45.6417212519652 ,47.510217125707 ,69.1665229765569
12.9657885 ,Left ,45.6115967731279 ,47.5103603400053 ,69.1760776592837
12.9883661 ,Left ,45.585578085352 ,47.5169615424642 ,69.1889671110998
13.0108151 ,Left ,45.5489216663394 ,47.5376079474144 ,69.1962362610213
13.0257433 ,Left ,45.527036784781 ,47.5634857641535 ,69.2066064802818
13.0483906 ,Left ,45.4958359136483 ,47.5924839783021 ,69.2162107443583
13.0708448 ,Left ,45.4346189981108 ,47.6234094525126 ,69.2279138387858
13.0858725 ,Left ,45.4291836164215 ,47.6413848541423 ,69.2489319240232
13.1083149 ,Left ,45.4672327467452 ,47.6439009162158 ,69.2728629180247
13.1308261 ,Left ,45.4853714180078 ,47.6459757295988 ,69.3002783729846
13.1556197 ,Left ,45.4622601370078 ,47.6519848601344 ,69.3481903677319
13.1686715 ,Left ,45.4587109930816 ,47.6499506842398 ,69.4014106318741
13.2030558 ,Left ,45.4492155127331 ,47.6394939918981 ,69.4553482781429
13.2061304 ,Left ,45.482708606408 ,47.6204915420258 ,69.5008405825282
13.2385043 ,Left ,45.5170344248775 ,47.5937264068919 ,69.5239607726517
13.2509391 ,Left ,45.5134012874592 ,47.5853513026604 ,69.5382031626688
13.26587 ,Left ,45.4791274150202 ,47.61185761373 ,69.5415648779093
13.2886102 ,Left ,45.4458804220648 ,47.6406292805966 ,69.5200994026648
13.3108007 ,Left ,45.427584021984 ,47.6688671041335 ,69.4796804788249
13.3330836 ,Left ,45.4663544365527 ,47.6828461933722 ,69.4223496438671
13.3483212 ,Left ,45.5120346404192 ,47.6887691409006 ,69.3612021956137
13.3781484 ,Left ,45.5190454278568 ,47.6978328247344 ,69.3010927418027
13.3932402 ,Left ,45.5073848145206 ,47.7206675029522 ,69.2536129100895
13.4156682 ,Left ,45.5026864327995 ,47.7360104995059 ,69.2040834785235
13.4309456 ,Left ,45.510682254821 ,47.7373951390277 ,69.1478724048947
13.4457765 ,Left ,45.5274027060109 ,47.7320034646382 ,69.0820648140268
13.4682275 ,Left ,45.5099413377145 ,47.724253604028 ,69.0273684548282
13.4908226 ,Left ,45.4819331724644 ,47.7120557357455 ,69.0037496865692
13.5056129 ,Left ,45.4809745113014 ,47.6898711939588 ,68.9891587804862
13.5282162 ,Left ,45.4537617850588 ,47.6545788339103 ,68.9792606059958
13.5580934 ,Left ,45.4312846961688 ,47.6219353379895 ,68.9798897805279
13.5806858 ,Left ,45.4044480553147 ,47.6027023289998 ,68.9905828008366
13.6031855 ,Left ,45.365742123832 ,47.6079621847695 ,69.0037115474627
13.6182855 ,Left ,45.3214798438002 ,47.6019031810865 ,69.0030322974714
13.6409152 ,Left ,45.3892536553923 ,47.5713336694737 ,69.0089428126049
13.6557367 ,Left ,45.4986049472231 ,47.5277294222168 ,68.996016909562
13.6707906 ,Left ,45.5180184587378 ,47.4891292666283 ,68.9763634183641
13.6931116 ,Left ,45.3900306583411 ,47.4871766562551 ,68.9851022270019
13.7081514 ,Left ,45.2704126391241 ,47.4994589050971 ,69.0278026384559
13.7308498 ,Left ,45.2949685791672 ,47.4959454538265 ,69.0618375079105
13.7533893 ,Left ,45.3567001911205 ,47.4923881751651 ,69.087221242878
13.7683603 ,Left ,45.4184469444104 ,47.4965716985433 ,69.115598954527
13.7910135 ,Left ,45.4176772333218 ,47.5202994926473 ,69.1323671516303
13.8132989 ,Left ,45.4186775184923 ,47.5538857224214 ,69.1373448979898
13.83572 ,Left ,45.4600512781348 ,47.5760294582258 ,69.1378669199031
13.8582515 ,Left ,45.5259158284175 ,47.5929385855734 ,69.1253598034289
13.8958767 ,Left ,45.5312992631939 ,47.6032570393762 ,69.0940615323014
13.9182014 ,Left ,45.4763993443011 ,47.6146548795712 ,69.1013455731573
13.9406865 ,Left ,45.4726702131069 ,47.624946140774 ,69.1096341540388
13.955805 ,Left ,45.488331019541 ,47.627958176927 ,69.0991150362021
13.9707396 ,Left ,45.5038309398252 ,47.6399656615199 ,69.0848348688419
13.9933333 ,Left ,45.5290104319621 ,47.6530817741678 ,69.0732960055446
14.0087084 ,Left ,45.5614306014921 ,47.6662079084399 ,69.0603919797841
14.0309487 ,Left ,45.57377972307 ,47.6878191564557 ,69.0471501385448
14.0535091 ,Left ,45.5667151688601 ,47.7133460221252 ,69.0388480710027
14.0683019 ,Left ,45.5619713971507 ,47.7349552677868 ,69.0283234498703
14.0909511 ,Left ,45.5650878717303 ,47.7506520204789 ,69.0181116917011
14.1136913 ,Left ,45.5708860922526 ,47.7547434215727 ,68.9997505922479
14.1281948 ,Left ,45.5730025413918 ,47.7526955838238 ,68.9926710779918
14.1508171 ,Left ,45.5518863211526 ,47.7526400097428 ,68.9912751681796
14.1732125 ,Left ,45.5238759267646 ,47.7645784625629 ,68.9962023376914
14.1882998 ,Left ,45.5143419037027 ,47.778004206523 ,68.9953338555408
14.2108872 ,Left ,45.5310504058781 ,47.7792779245948 ,68.9992686035335
14.2332364 ,Left ,45.5502724283765 ,47.7723889949475 ,69.0114523950294
14.2480749 ,Left ,45.5487822136329 ,47.7675073708264 ,69.0294670730686
14.2707742 ,Left ,45.5258261652004 ,47.763852840322 ,69.0526958453082
14.2931653 ,Left ,45.4989383224792 ,47.7505269764743 ,69.0738445842066
14.3081618 ,Left ,45.4618218472982 ,47.737133521462 ,69.0993277698529
14.3305639 ,Left ,45.4367513549972 ,47.728097993704 ,69.1264855912091
14.3532411 ,Left ,45.4299698163049 ,47.718532775239 ,69.1556616501873
14.3683312 ,Left ,45.4497611740671 ,47.703250735051 ,69.1859620717177
14.3907745 ,Left ,45.4574339140136 ,47.6929070551767 ,69.2105251608055
14.4132256 ,Left ,45.4365897661918 ,47.6869169811328 ,69.2246708938437
14.4433697 ,Left ,45.4261393100908 ,47.6877104595863 ,69.2334036433054
14.4584255 ,Left ,45.4286972208034 ,47.6883831320742 ,69.2353351529791
14.4957901 ,Left ,45.4578171109011 ,47.6946618074348 ,69.2288966436309
14.5108585 ,Left ,45.4410573425023 ,47.7010574327795 ,69.2283053361882
14.5332632 ,Left ,45.4195131422386 ,47.7185415212613 ,69.230928239396
14.563365 ,Left ,45.4174246912883 ,47.7391297772921 ,69.2296798805725
14.5784339 ,Left ,45.447528283065 ,47.7543036270795 ,69.226428347354
14.6007818 ,Left ,45.4742978130917 ,47.764510439419 ,69.22231462371
14.6308115 ,Left ,45.444495829814 ,47.7823821108935 ,69.2190184317942
14.6533053 ,Left ,45.4311590582745 ,47.784068279257 ,69.2212714288556
14.675718 ,Left ,45.4187086990903 ,47.7756187456149 ,69.2176945368141
14.6908797 ,Left ,45.411745692521 ,47.7586926317572 ,69.2173707686214
14.7206766 ,Left ,45.4195370815101 ,47.7315887372525 ,69.2139790120486
14.7433567 ,Left ,45.4055954572556 ,47.6977279724487 ,69.21341132771
14.7582929 ,Left ,45.3500472031657 ,47.6638214686609 ,69.2203396045801
14.7733822 ,Left ,45.2969140351976 ,47.6347859335293 ,69.2188445226519
14.8031473 ,Left ,45.2965989990152 ,47.6168300397376 ,69.2033138064826
14.8183478 ,Left ,45.3174542399939 ,47.5892368972808 ,69.1647718826339
14.8409217 ,Left ,45.345990423853 ,47.5624667440794 ,69.1128892578643
14.855779 ,Left ,45.3507185235883 ,47.5255207010761 ,69.0626499104413
14.8708426 ,Left ,45.3284262974083 ,47.5016543895679 ,69.0285222683539
14.893323 ,Left ,45.2887869156497 ,47.4757837064738 ,69.005281750253
14.9156074 ,Left ,45.2711858267799 ,47.457204050211 ,68.9936451729666
14.9308194 ,Left ,45.302369040595 ,47.4470182499109 ,68.9780827014069
14.953303 ,Left ,45.3445489394471 ,47.4405744661324 ,68.9552511519201
14.9757557 ,Left ,45.3009670939827 ,47.4472604151221 ,68.947745317464
14.9908359 ,Left ,45.259804885902 ,47.4721863194628 ,68.9428897140463
15.0133937 ,Left ,45.2369050241945 ,47.4950262501295 ,68.9472007258611
15.0357865 ,Left ,45.2483305731519 ,47.5002047052772 ,68.9559168381676
15.0511093 ,Left ,45.2763005300678 ,47.4921487615021 ,68.9666466255662
15.0731873 ,Left ,45.2839871260732 ,47.485748616173 ,68.9783448253607
15.0956926 ,Left ,45.2739481054351 ,47.4817289093189 ,68.9928915096561
15.1107942 ,Left ,45.2754537483748 ,47.4811017311096 ,68.9949771421693
15.1333131 ,Left ,45.2202593481068 ,47.4999195682251 ,69.0059572887463
15.1557454 ,Left ,45.1620728737234 ,47.5433787390799 ,69.0215748747443
15.1707831 ,Left ,45.1335903380431 ,47.5912879558914 ,69.0480050313575
15.1932672 ,Left ,45.1252516879569 ,47.6299361767936 ,69.0839569476207
15.2160085 ,Left ,45.1501880817628 ,47.6521722354255 ,69.1366395520284
15.2308457 ,Left ,45.2003416684115 ,47.6671804972444 ,69.1935734029752
15.2532936 ,Left ,45.2141124152277 ,47.6588121583436 ,69.2310727245002
15.2757301 ,Left ,45.181058985317 ,47.6682415367926 ,69.2394895477183
15.2910785 ,Left ,45.2013861952829 ,47.6903575030809 ,69.2386260204356
15.3133403 ,Left ,45.2446030545815 ,47.6998797608644 ,69.2196052306204
15.3358647 ,Left ,45.2338901349338 ,47.7113346832382 ,69.1908249298104
15.3507442 ,Left ,45.2031676793981 ,47.7336125251347 ,69.1560918537935
15.3732276 ,Left ,45.2212634375934 ,47.751522174361 ,69.1233591470745
15.3957685 ,Left ,45.2848556182034 ,47.7383529607245 ,69.0864686055245
15.4185409 ,Left ,45.3577042213078 ,47.7345937387101 ,69.0604088560336
15.4332146 ,Left ,45.3774855069232 ,47.7419493902148 ,69.0297825587228
15.4559172 ,Left ,45.3502385393282 ,47.7741040518211 ,68.9998322581737
15.4783251 ,Left ,45.3227018223035 ,47.8070621940404 ,68.9742998919377
15.4932611 ,Left ,45.3956689795242 ,47.7972407740176 ,68.9356127186315
15.5158739 ,Left ,45.5246733962637 ,47.7703205217246 ,68.8865244076465
15.5383575 ,Left ,45.5952897708854 ,47.7539217997416 ,68.8333161684679
15.553587 ,Left ,45.5396153657633 ,47.7606439506797 ,68.8127890811179
15.5756579 ,Left ,45.4791742828978 ,47.7795365701181 ,68.8144989805983
15.5982748 ,Left ,45.489710490109 ,47.7713184183888 ,68.8025944658551
15.6131544 ,Left ,45.497622235593 ,47.7512260952312 ,68.7721419026192
15.6359823 ,Left ,45.4817263825274 ,47.7299239421855 ,68.7388844843379
15.6583949 ,Left ,45.4601538450098 ,47.7085672498497 ,68.710960128961
15.6731454 ,Left ,45.4238719923488 ,47.6912402360721 ,68.7040120641716
15.6957812 ,Left ,45.4014781908611 ,47.6731231192434 ,68.7089514026396
15.7182286 ,Left ,45.3989344115289 ,47.6619278859298 ,68.7207214728289
15.7331449 ,Left ,45.3847892076544 ,47.6724323732071 ,68.7354100945528
15.7558602 ,Left ,45.3656710828164 ,47.6994626357296 ,68.7617399580518
15.7783297 ,Left ,45.3454951575283 ,47.7139169351706 ,68.771693419924
15.7932348 ,Left ,45.3490043867812 ,47.7109287446509 ,68.767135850863
15.8158632 ,Left ,45.4084969765951 ,47.6812466952702 ,68.7413838528147
15.8384245 ,Left ,45.4647986691859 ,47.6404485991725 ,68.7045154942307
15.8532714 ,Left ,45.4088375978579 ,47.606889390356 ,68.6666173935462
15.8758581 ,Left ,45.2748457449552 ,47.5941608575803 ,68.65944596527
15.8983614 ,Left ,45.1963740000401 ,47.5906890399101 ,68.6784059659384
15.9134088 ,Left ,45.2272091368563 ,47.5873916417623 ,68.7041269500076
15.935697 ,Left ,45.2733242144639 ,47.5840521535699 ,68.736693333406
15.9589305 ,Left ,45.3134972203489 ,47.5928810100918 ,68.7561076902905
15.9734157 ,Left ,45.2771025393633 ,47.6177868897369 ,68.7645920184157
15.9958114 ,Left ,45.2497368746351 ,47.6571897673382 ,68.7640018101906
16.0182817 ,Left ,45.2911720230329 ,47.6709017611012 ,68.7681347238539
16.0332362 ,Left ,45.3667515852559 ,47.6760609280217 ,68.7731114345569
16.0557662 ,Left ,45.4164614648624 ,47.6839846199295 ,68.7747756730705
16.0783566 ,Left ,45.3979552777681 ,47.6823850187571 ,68.7806746734216
16.1008346 ,Left ,45.3627193523524 ,47.6872159893252 ,68.7856826884418
16.1233306 ,Left ,45.3627193523524 ,47.6872159893252 ,68.7856826884418
16.1531557 ,Left ,45.3643628536221 ,47.6861548960133 ,68.7855778613006
16.1757475 ,Left ,45.3736997916735 ,47.6967569755854 ,68.7866529694167
16.1983081 ,Left ,45.3823305292577 ,47.7030542215608 ,68.7887686211558
16.213176 ,Left ,45.3823305292577 ,47.7030542215608 ,68.7887686211558
16.2357953 ,Left ,45.3579690162467 ,47.7116717261504 ,68.7866662814215
16.2582857 ,Left ,45.3291821036459 ,47.7214930844628 ,68.7871202339754
16.2733863 ,Left ,45.3280075920843 ,47.7198725858813 ,68.7876895547393
16.2956995 ,Left ,45.3239454604041 ,47.7126333651253 ,68.7826365690633
16.3108023 ,Left ,45.3056762919255 ,47.7030270211902 ,68.7831480749718
16.355798 ,Left ,45.1725867333979 ,47.6879385191552 ,68.7996819425823
16.4158397 ,Left ,45.0161346490254 ,47.6854214484561 ,68.8086836626293
16.4307771 ,Left ,45.0672103769721 ,47.6728235927433 ,68.8043786957784
16.4682468 ,Left ,45.1157148317471 ,47.6613839107582 ,68.8193033376897
16.4908669 ,Left ,45.1003588399766 ,47.6616634505686 ,68.8410140844836
16.5057636 ,Left ,45.0768281900862 ,47.6608675033995 ,68.8640501660879
16.528162 ,Left ,45.0710906785364 ,47.6637189808618 ,68.8813087889639
16.5506922 ,Left ,45.0977059203104 ,47.6643223988504 ,68.8927098304398
16.5657711 ,Left ,45.1180697769887 ,47.6606519733179 ,68.8970050494832
16.5881366 ,Left ,45.1337736532248 ,47.6600016644181 ,68.8990494083936
16.6105638 ,Left ,45.1337736532248 ,47.6600016644181 ,68.8990494083936
16.6257585 ,Left ,45.1437039816281 ,47.6586963597093 ,68.9046767430955
16.6483016 ,Left ,45.164345640602 ,47.6440118153278 ,68.9180697393045
16.6710507 ,Left ,45.1747763404424 ,47.6307941059794 ,68.9284171800513
16.6862466 ,Left ,45.1453705595501 ,47.6251573062584 ,68.9395733320846
16.7081156 ,Left ,45.1109748026314 ,47.6310828386584 ,68.9560689469726
16.7308539 ,Left ,45.1110932379302 ,47.6269608893572 ,68.9665857610494
16.7458465 ,Left ,45.0969517046234 ,47.6214850532417 ,68.9581904159842
16.7682004 ,Left ,45.0592132592791 ,47.6324848836449 ,68.9604486723966
16.7906168 ,Left ,45.0575392316702 ,47.6391069670695 ,68.9689961833184
16.8282223 ,Left ,45.0471887332247 ,47.6421160840568 ,68.9985481136262
16.8506525 ,Left ,45.0440971028727 ,47.6444036179705 ,69.0248048104647
16.8960644 ,Left ,45.0654864892663 ,47.6372053934177 ,69.0884363381105
16.9190983 ,Left ,45.1050205820679 ,47.6414242992025 ,69.1089488949918
16.948151 ,Left ,45.2985546378672 ,47.6514650508289 ,69.1534447664452
16.9708255 ,Left ,45.4003547869483 ,47.6355946644141 ,69.1316299126537
17.0081121 ,Left ,45.4027661620766 ,47.5893501329856 ,69.0433385307041
17.0305741 ,Left ,45.3900667858357 ,47.5642826877084 ,69.0173509833658
17.0681503 ,Left ,45.2907891281097 ,47.5724677757647 ,68.9550561245606
17.0907401 ,Left ,45.3245690315886 ,47.5827232380206 ,68.9234554093585
17.1279997 ,Left ,45.3372265203575 ,47.581194688228 ,68.8720548946523
17.1514385 ,Left ,45.3351286687453 ,47.5849451253798 ,68.8716856108115
17.1880082 ,Left ,45.2913224951857 ,47.583156295052 ,68.8726301928381
17.2183372 ,Left ,45.2998349427788 ,47.5677168755137 ,68.8719354378279
17.2708375 ,Left ,45.3871586010768 ,47.5278536478519 ,68.8645483756542
17.3083107 ,Left ,45.2881047901229 ,47.5760535718674 ,68.8770475773931
17.3305378 ,Left ,45.2437915052349 ,47.6083427273224 ,68.8782476821982
17.3682796 ,Left ,45.2060396112318 ,47.634485820266 ,68.9128244870915
17.3905831 ,Left ,45.190456563622 ,47.6275580399492 ,68.9075481546182
17.4281288 ,Left ,44.9692864040972 ,47.5577434610394 ,68.8882826819175
17.4507752 ,Left ,44.8091460696221 ,47.5222020078219 ,68.8831041002915
17.4957576 ,Left ,44.6583385088848 ,47.4267148474138 ,68.8499405843185
17.5108884 ,Left ,44.6464830979295 ,47.3883542878607 ,68.8254393216278
17.5483208 ,Left ,44.7518290039196 ,47.3374052469379 ,68.7361122303985
17.5705463 ,Left ,44.6997301806501 ,47.3607823193217 ,68.661041266903
17.6085911 ,Left ,44.6281866579276 ,47.4175836326358 ,68.5586313368929
17.6305129 ,Left ,44.6687297736104 ,47.4078361715151 ,68.4967408439701
17.6682185 ,Left ,44.7383972957035 ,47.4004316129308 ,68.4127419147554
17.6910266 ,Left ,44.7522279401306 ,47.3900125940216 ,68.3772098361432
17.728286 ,Left ,44.6244242881122 ,47.3893968473807 ,68.3222898727772
17.7509757 ,Left ,44.5949627683131 ,47.397169172896 ,68.3073837605409
17.7883068 ,Left ,44.6999252417472 ,47.3708483165603 ,68.2908751421664
17.8105941 ,Left ,44.7123862293819 ,47.3889610266647 ,68.3126875725584
17.8480169 ,Left ,44.7589392286367 ,47.4856914605243 ,68.3786252020418
17.870734 ,Left ,44.7731149955042 ,47.5319100415593 ,68.4033514481208
17.9081235 ,Left ,44.9874638285932 ,47.5394239709937 ,68.4354298886053
17.9306681 ,Left ,45.0222984944518 ,47.5416673131907 ,68.4451038617015
17.9680723 ,Left ,44.9463412254243 ,47.5720681465832 ,68.5108996895482
17.9906277 ,Left ,44.9422267659968 ,47.5853990457807 ,68.5441397364084
18.0282336 ,Left ,45.011837162783 ,47.6047037102373 ,68.6330546044044
18.0506396 ,Left ,45.0302718590828 ,47.6360945277667 ,68.6609556101448
18.0881338 ,Left ,45.0970918396957 ,47.697926532635 ,68.6906348243815
18.1258342 ,Left ,45.2451511044394 ,47.6907872461014 ,68.6899932804175
18.1482296 ,Left ,45.2230590460537 ,47.6886993933655 ,68.6868854277521
18.1856058 ,Left ,45.1083783154 ,47.6907204958327 ,68.6924407724201
18.2010418 ,Left ,45.0946846686629 ,47.6895802223563 ,68.685577139989
18.2231809 ,Left ,45.0998107302334 ,47.6942505342899 ,68.6745662789373
18.2456584 ,Left ,45.116880653273 ,47.7110618610412 ,68.6681133397313
18.2606534 ,Left ,45.1330863221199 ,47.7311765240074 ,68.665954630451
18.283295 ,Left ,45.1371796074084 ,47.7562418478611 ,68.6578695549033
18.3057925 ,Left ,45.1280507608394 ,47.7758803931722 ,68.6507381247609
18.3207836 ,Left ,45.1248719060973 ,47.7937027395355 ,68.6431195194803
18.3433114 ,Left ,45.1096522558806 ,47.8077135575104 ,68.6358500349515
18.3659055 ,Left ,45.1047028271502 ,47.8270305974478 ,68.6305089550325
18.3882754 ,Left ,45.142398452609 ,47.8468825880783 ,68.6248894708815
18.4108224 ,Left ,45.1964273762688 ,47.8559569295309 ,68.6187226463789
18.4408377 ,Left ,45.1812751337778 ,47.8695266264312 ,68.6092980255382
18.4630334 ,Left ,45.165721157487 ,47.8825485045 ,68.6141052934512
18.4856673 ,Left ,45.1645564808814 ,47.8809256184887 ,68.6146724814457
18.5007877 ,Left ,45.1782487806941 ,47.8753822755935 ,68.6227146872736
18.5232777 ,Left ,45.2107846472846 ,47.8669293538023 ,68.6331011002759
18.5458108 ,Left ,45.2457137079305 ,47.8584451933471 ,68.6570917923851
18.5607947 ,Left ,45.3072061689745 ,47.844356620222 ,68.6825291122989
18.5908106 ,Left ,45.3365874048394 ,47.813166262269 ,68.704634736713
18.6132326 ,Left ,45.3438550625937 ,47.7937332702335 ,68.7235188797174
18.6284308 ,Left ,45.3822877127105 ,47.7744646152084 ,68.7398183966923
18.6509973 ,Left ,45.4223763837543 ,47.7564546752286 ,68.7504234632199
18.665583 ,Left ,45.4312480399403 ,47.7514174927517 ,68.7618907306938
18.6805926 ,Left ,45.3996909701439 ,47.7518521483582 ,68.7692265745267
18.7032031 ,Left ,45.3609899284317 ,47.7446650823138 ,68.7747613428992
18.7257913 ,Left ,45.3314811670005 ,47.7406717750565 ,68.7807567771088
18.7408091 ,Left ,45.3167583016638 ,47.7437822979867 ,68.782382215437
18.7634267 ,Left ,45.3293597516215 ,47.7427631944448 ,68.7877891858851
18.7857868 ,Left ,45.3609489950883 ,47.7484931951582 ,68.7906350686518
18.8008311 ,Left ,45.403630899512 ,47.7545063974675 ,68.7986632943729
18.8232349 ,Left ,45.4081267365928 ,47.7794992102457 ,68.8167126612902
18.8456411 ,Left ,45.3978017832904 ,47.8189875107536 ,68.8555745701625
18.8609917 ,Left ,45.4105465839075 ,47.8533679735098 ,68.9061853170491
18.8832644 ,Left ,45.4309774332345 ,47.8799882466592 ,68.9496240310014
18.9060022 ,Left ,45.4569120411484 ,47.9002168521172 ,68.9911508105756
18.9208643 ,Left ,45.4878525889065 ,47.9095870982253 ,69.0291592848265
18.9432042 ,Left ,45.4951449211403 ,47.9082426753837 ,69.0661077497212
18.9656961 ,Left ,45.4640989509725 ,47.8995174364403 ,69.1034868075214
18.9806569 ,Left ,45.424920308479 ,47.8886957697018 ,69.1380884906437
19.0031635 ,Left ,45.4006674244162 ,47.8669423959461 ,69.1653140889517
19.025632 ,Left ,45.4136799005239 ,47.845691595113 ,69.1836255195207
19.0408167 ,Left ,45.4607614516857 ,47.8351913747089 ,69.1850041211371
19.0632076 ,Left ,45.531390799236 ,47.8246666259875 ,69.2013179928288
19.0857593 ,Left ,45.6355801346023 ,47.8074923265901 ,69.1873847858367
19.1007211 ,Left ,45.6799233416526 ,47.7826614643354 ,69.1447187654792
19.1232346 ,Left ,45.5967432146808 ,47.7713952990571 ,69.0846301877363
19.1458727 ,Left ,45.5441825297223 ,47.7541855338198 ,69.0301398895116
19.1683086 ,Left ,45.5990105741627 ,47.7237414479186 ,68.9725543846462
19.1834892 ,Left ,45.7012600399003 ,47.6892287304994 ,68.9242021630927
19.2060498 ,Left ,45.7591371835731 ,47.675742232784 ,68.8892557149468
19.2282304 ,Left ,45.7136058524562 ,47.6808949367547 ,68.8721449037729
19.2432663 ,Left ,45.6312624249601 ,47.6919662144834 ,68.8599675467504
19.265652 ,Left ,45.5593696869664 ,47.7001687877465 ,68.8445557318671
19.2883636 ,Left ,45.5409430439433 ,47.7098247470588 ,68.8384685706993
19.3032904 ,Left ,45.5400596499598 ,47.7096731771722 ,68.8575921213657
19.3258097 ,Left ,45.5546365945112 ,47.6981022047742 ,68.8644904706322
19.3482056 ,Left ,45.574700134767 ,47.6951811693836 ,68.8733987563218
19.3632741 ,Left ,45.6013136750724 ,47.6890107402641 ,68.8727212957781
19.3930908 ,Left ,45.6143974379895 ,47.6876082340962 ,68.873054980251
19.4157792 ,Left ,45.6278124312047 ,47.6910650322381 ,68.8771699133433
19.4308418 ,Left ,45.5960652921026 ,47.7023061489935 ,68.8733086974589
19.4457104 ,Left ,45.567603970824 ,47.7280674451694 ,68.8659054892421
19.4688651 ,Left ,45.5187592635993 ,47.7446289086564 ,68.8732575325629
19.4836003 ,Left ,45.4662555969904 ,47.7550857223014 ,68.8918960761644
19.5056356 ,Left ,45.4593345227678 ,47.7643959496685 ,68.9148019734094
19.528285 ,Left ,45.4675222521788 ,47.7777884262225 ,68.9342866489705
19.5433115 ,Left ,45.4429141336245 ,47.7844316846538 ,68.9821191569056
19.5659029 ,Left ,45.4587330406507 ,47.7696172106388 ,69.0390876456369
19.5882926 ,Left ,45.4668030553337 ,47.7372844547481 ,69.0841179051724
19.6032711 ,Left ,45.4259701269105 ,47.7054872494192 ,69.1397556677842
19.6257246 ,Left ,45.4247106881814 ,47.6822504292263 ,69.1920526717926
19.6482759 ,Left ,45.4489505118498 ,47.6474448351924 ,69.2278032270757
19.6633405 ,Left ,45.497481894794 ,47.6216672059446 ,69.2552075715584
19.685778 ,Left ,45.5305227476836 ,47.600120878185 ,69.2653937240279
19.7156172 ,Left ,45.4637035563156 ,47.6206399996966 ,69.2540950483798
19.7307292 ,Left ,45.387442196335 ,47.6751890983548 ,69.2282245582753
19.7531263 ,Left ,45.3599097015573 ,47.7213192468143 ,69.1884712675941
19.7684156 ,Left ,45.3984457144888 ,47.7404983268285 ,69.1379626483691
19.7831857 ,Left ,45.4556425964593 ,47.7556113878301 ,69.0706182897732
19.8057812 ,Left ,45.4639578024331 ,47.7777544186349 ,69.0131980639853
19.8286246 ,Left ,45.425585820741 ,47.8131174214322 ,68.9632259192929
19.8432477 ,Left ,45.3770375657344 ,47.8396541078962 ,68.923501702719
19.8658005 ,Left ,45.3589756523329 ,47.8542227481576 ,68.8790374591919
19.9044555 ,Left ,45.3433403270851 ,47.8572496510257 ,68.8291288297671
19.9049527 ,Left ,45.3191692073506 ,47.8556811040246 ,68.7982256571632
19.9258854 ,Left ,45.3299597643492 ,47.8417592694437 ,68.7752694802618
19.9488009 ,Left ,45.3299632022491 ,47.815083009335 ,68.7525598418054
19.9649899 ,Left ,45.3095921390648 ,47.7914982818107 ,68.7367597670188
19.9932198 ,Left ,45.2796516613292 ,47.7830090686225 ,68.7412072822263
20.0155502 ,Left ,45.2738538769866 ,47.7739816683708 ,68.7531957373897
20.0309011 ,Left ,45.2661323584844 ,47.7694515911979 ,68.7531066675606
20.0457405 ,Left ,45.2603734267273 ,47.7736654107199 ,68.7344819147496
20.0687037 ,Left ,45.3247296258686 ,47.770616071542 ,68.7032436842685
20.082995 ,Left ,45.4216604539806 ,47.7209436559224 ,68.6542789933118
20.1058582 ,Left ,45.4624451917661 ,47.6391175179508 ,68.573834057334
20.1281004 ,Left ,45.4255977924673 ,47.5284946977253 ,68.4822118303981
20.1507259 ,Left ,45.2334182866324 ,47.4299589940844 ,68.4066604685319
20.1655311 ,Left ,44.990662585621 ,47.3547050325998 ,68.4149400418663
20.1882709 ,Left ,44.9090239194741 ,47.2887929908041 ,68.4185795590525
20.2182408 ,Left ,44.8089188412098 ,47.2346371605749 ,68.4003933219273
20.233325 ,Left ,44.7695626015903 ,47.2081520022701 ,68.4043917905912
20.2630693 ,Left ,44.7743437256702 ,47.2325108849368 ,68.4143696108541
20.2782127 ,Left ,44.8199107220602 ,47.2752890701668 ,68.4220469677742
20.2931076 ,Left ,44.892342773486 ,47.326897903564 ,68.4299503548485
20.3156823 ,Left ,45.0022722070252 ,47.3686971428027 ,68.4403833676727
20.3309705 ,Left ,45.111923707586 ,47.4057113020525 ,68.4474963472022
20.3456259 ,Left ,45.1793122568657 ,47.4387129192618 ,68.4543704517391
20.3682667 ,Left ,45.1412126385833 ,47.4676895226123 ,68.4740633405408
20.3907807 ,Left ,45.0675844495203 ,47.4870797571824 ,68.4998164747443
20.4056904 ,Left ,45.0493936725911 ,47.4890105165389 ,68.5165764485729
20.4296826 ,Left ,45.0688899330502 ,47.482215591128 ,68.526074086503
20.4508389 ,Left ,45.0846247751617 ,47.4817614509104 ,68.527960936028
20.4656492 ,Left ,45.092850472216 ,47.4887918671176 ,68.5345489897718
20.4881971 ,Left ,45.0971643428319 ,47.5010487062102 ,68.5430415103897
20.5107606 ,Left ,45.1063823170224 ,47.5173148124658 ,68.5521880305379
20.5332898 ,Left ,45.1231931724232 ,47.5335250166435 ,68.5572459475969
20.5557805 ,Left ,45.1496331688091 ,47.5479535216212 ,68.5686926192767
20.578305 ,Left ,45.1849758416603 ,47.5547256778392 ,68.5796998124532
20.5932339 ,Left ,45.2213575343298 ,47.5505769512072 ,68.583332004566
20.6082684 ,Left ,45.2358012878697 ,47.5410058245868 ,68.5853031779152
20.6307578 ,Left ,45.2222027109727 ,47.5327008496663 ,68.5774501598949
20.64745 ,Left ,45.1820282739452 ,47.5312465693422 ,68.5873030321328
20.6682431 ,Left ,45.1430407172958 ,47.5356734363109 ,68.6119424812986
20.6907904 ,Left ,45.108960794376 ,47.5362497489957 ,68.6345340738633
20.7058125 ,Left ,45.122993806166 ,47.5264365063989 ,68.6503610102237
20.7282739 ,Left ,45.1602819156505 ,47.5240159057685 ,68.6559023968883
20.7507626 ,Left ,45.1854421450342 ,47.5283987985537 ,68.6765552939306
20.7657335 ,Left ,45.1878136424605 ,47.5393268819964 ,68.7043724497846
20.7882878 ,Left ,45.1930232961118 ,47.5508137069661 ,68.7315110629772
20.8109127 ,Left ,45.1758692143665 ,47.5612847737627 ,68.7491015606842
20.8256026 ,Left ,45.156419898067 ,47.5780266725841 ,68.7632593195802
20.8484636 ,Left ,45.148551767008 ,47.5889799573337 ,68.7692435166441
20.8708503 ,Left ,45.1500407911412 ,47.5876339511176 ,68.7695376024182
20.8857403 ,Left ,45.1493230589764 ,47.5833307169591 ,68.7706180533507
20.9082472 ,Left ,45.1308250256649 ,47.5840964184734 ,68.7710949500276
20.9305318 ,Left ,45.1001699352057 ,47.5946603177077 ,68.7722687203379
20.9456409 ,Left ,45.0451628697685 ,47.6160989952135 ,68.765904072567
20.9684579 ,Left ,44.9775556949209 ,47.643562942968 ,68.7605491014982
20.9906939 ,Left ,44.931400994248 ,47.6782408310259 ,68.7545513041676
21.0057471 ,Left ,44.926735011143 ,47.7065509107732 ,68.7422266460592
21.0283402 ,Left ,44.9464121436452 ,47.7327602003583 ,68.7310640445189
21.0657305 ,Left ,44.9652125429146 ,47.7623002636648 ,68.7242194993392
21.0805864 ,Left ,33.7501918881153 ,35.84320884396645 ,51.53574852637162
21.1106592 ,Left ,22.54559602116685 ,23.9093498735594 ,34.3454537265128
21.1330762 ,Left ,11.273604808569026 ,11.9563326144967 ,17.17109317847685
25.3783915 ,Left ,45.0400425153689 ,47.7635257758546 ,68.6638318631481
25.4006935 ,Left ,45.045442447972 ,47.7632639798836 ,68.6723772947157
25.4231742 ,Left ,45.0547435908549 ,47.7656474265002 ,68.6818059215037
25.438233 ,Left ,45.0605715851432 ,47.7698507300449 ,68.6918657467185
25.460686 ,Left ,45.080264674045 ,47.7770602544821 ,68.7010402022757
25.4832475 ,Left ,45.1058152043954 ,47.7828857368753 ,68.7119083062703
25.4984179 ,Left ,45.1171948307209 ,47.7886473418094 ,68.7227910853595
25.5283067 ,Left ,45.111055991198 ,47.7941474093648 ,68.7394973567832
25.5507649 ,Left ,45.1100217849713 ,47.7983552842607 ,68.7481008007567
25.5657077 ,Left ,45.1188141755841 ,47.7954889512175 ,68.754304951983
25.5884487 ,Left ,45.1313652107868 ,47.789428600579 ,68.7533868221029
25.6038142 ,Left ,45.1368838946698 ,47.7831286883153 ,68.7513720107741
25.6185747 ,Left ,45.1336220653943 ,47.7780967692007 ,68.7505368895792
25.6408641 ,Left ,45.1286042859113 ,47.7761748507293 ,68.744594288906
25.6633062 ,Left ,45.1265184727313 ,47.7727620178413 ,68.7431821759476
25.6781865 ,Left ,45.1263535962776 ,47.7724834782304 ,68.74358706714
25.7006968 ,Left ,45.12048884378 ,47.7754604395679 ,68.7345321512988
25.7232981 ,Left ,45.12048884378 ,47.7754604395679 ,68.7345321512988
25.7382274 ,Left ,45.1276222103886 ,47.7752535157473 ,68.7334556288902
25.7605247 ,Left ,45.1292715733314 ,47.7741970966844 ,68.7333488606577
25.7934746 ,Left ,45.1292715733314 ,47.7741970966844 ,68.7333488606577
25.7981988 ,Left ,45.1309208969574 ,47.7731406677504 ,68.7332420889769
25.8220467 ,Left ,45.1270861857905 ,47.7712347118072 ,68.7341047513362
25.8441475 ,Left ,45.105519091731 ,47.7715791178882 ,68.7377473535303
25.8662294 ,Left ,45.1175007173854 ,47.7686539080404 ,68.7385136157543
25.880848 ,Left ,45.1513537734546 ,47.762426132873 ,68.7365278178227
25.903355 ,Left ,45.1513537734546 ,47.762426132873 ,68.7365278178227
25.9257879 ,Left ,45.1462408696182 ,47.7593496622176 ,68.7401377677813
25.94076 ,Left ,45.1462408696182 ,47.7593496622176 ,68.7401377677813
25.9633952 ,Left ,45.1310707141248 ,47.7623381082751 ,68.7447965060863
25.9856843 ,Left ,45.1077519185046 ,47.7641991851077 ,68.7507183834954
26.0006657 ,Left ,45.1072796936168 ,47.766876135678 ,68.750242327882
26.0237493 ,Left ,45.1146843121487 ,47.764893308586 ,68.7539742161098
26.045759 ,Left ,45.1179834533916 ,47.7611789316637 ,68.7611490597524
26.0682192 ,Left ,45.116777130609 ,47.7635067339907 ,68.7775532787894
26.0906604 ,Left ,45.1349451584852 ,47.762495115367 ,68.7910825356999
26.1206273 ,Left ,45.2535370953769 ,47.7352376142294 ,68.8018667779969
26.1432937 ,Left ,45.3101608206026 ,47.7326499906331 ,68.8186993023002
26.165695 ,Left ,45.3336173912241 ,47.7382742605784 ,68.8420640955209
26.180465 ,Left ,45.3406345171364 ,47.7384800547545 ,68.8431998278109
26.2033159 ,Left ,45.2810075526336 ,47.7430975064712 ,68.8239183938697
26.2258524 ,Left ,45.218837526351 ,47.7591237859746 ,68.8101936848896
26.2408335 ,Left ,45.2189758555177 ,47.7547843827367 ,68.7921644193568
26.2632204 ,Left ,45.2466216890004 ,47.749873247975 ,68.762681150042
26.2864999 ,Left ,45.2503533334618 ,47.7554822772269 ,68.7492341438056
26.3006262 ,Left ,45.2556167581322 ,47.7621079266197 ,68.7304795723754
26.3233745 ,Left ,45.2587797441861 ,47.7574674261503 ,68.7074705659829
26.3456185 ,Left ,45.2418327011754 ,47.7545927514315 ,68.6849028024656
26.3683619 ,Left ,45.2472513330161 ,47.7503773786261 ,68.677679522553
26.3906662 ,Left ,45.2355963145069 ,47.7364890579828 ,68.6778006182781
26.4207466 ,Left ,45.145511791041 ,47.7263316755645 ,68.69771924834
26.4436168 ,Left ,45.1890176932721 ,47.7234711722993 ,68.6930719612135
26.4657746 ,Left ,45.2524109558145 ,47.7197307342148 ,68.6923516216767
26.4807812 ,Left ,45.2865111272759 ,47.7117419383014 ,68.6952258926707
26.5045641 ,Left ,45.28007209974 ,47.7146053816736 ,68.7026207344403
26.5257541 ,Left ,45.2416787145368 ,47.7323334964441 ,68.7222220237433
26.5406267 ,Left ,45.1824144431689 ,47.7729895432393 ,68.7335035582038
26.5631374 ,Left ,45.1117276937506 ,47.8190151618804 ,68.7507338363695
26.5858512 ,Left ,45.0896577621757 ,47.8537305624243 ,68.7830448496265
26.6007845 ,Left ,45.159455623523 ,47.8559546559176 ,68.8106543425335
26.6232846 ,Left ,45.2195796027752 ,47.8476100787169 ,68.8399476837464
26.6457566 ,Left ,45.1885516299761 ,47.8595185504825 ,68.8898715044498
26.6613378 ,Left ,45.1464208933849 ,47.8735263409948 ,68.958072995109
26.6833892 ,Left ,45.1970756057174 ,47.8720628217708 ,69.0159677354922
26.7057697 ,Left ,45.2352726150821 ,47.8722663420006 ,69.0567494419381
26.7217154 ,Left ,45.2429642510149 ,47.8848889387094 ,69.0910340784861
26.7431988 ,Left ,45.341140420196 ,47.8945631550752 ,69.110787976715
26.7655471 ,Left ,45.3828298833752 ,47.9004662579522 ,69.1118462173131
26.7885175 ,Left ,45.3052747474439 ,47.9288880838405 ,69.1123929668556
26.8030903 ,Left ,45.2395767085175 ,47.9574771134267 ,69.0989920052972
26.8257019 ,Left ,45.1901451783588 ,47.9784879152021 ,69.0697845360442
26.8483872 ,Left ,45.1726227438719 ,47.9888488452281 ,69.0326581605998
26.863254 ,Left ,45.1743267280118 ,47.9933680578781 ,68.9984718198558
26.8857322 ,Left ,45.2060432860757 ,47.9957667317115 ,68.9737358045961
26.9082738 ,Left ,45.230129844545 ,47.9845214459262 ,68.9529968167672
26.9233217 ,Left ,45.2065656999781 ,47.9689940727709 ,68.9317857844218
26.9457062 ,Left ,45.1526048892733 ,47.957252693622 ,68.9100303286863
26.9683225 ,Left ,45.0983536418991 ,47.9467715819596 ,68.8949629150152
26.9832151 ,Left ,45.0858717019301 ,47.93027497084 ,68.8886841173417
27.0058296 ,Left ,45.0969549883522 ,47.9100395816484 ,68.8814114728448
27.0282387 ,Left ,45.1245728883376 ,47.8858667080786 ,68.8719980594079
27.0430656 ,Left ,45.1140143816062 ,47.8681227638156 ,68.8630709196455
27.065788 ,Left ,45.0939416386477 ,47.861666312297 ,68.8584956672038
27.0882239 ,Left ,45.0292192033001 ,47.8732677856525 ,68.8555701692295
27.1033062 ,Left ,44.9825640535363 ,47.8747340418131 ,68.8441682291379
27.125736 ,Left ,44.9835177309267 ,47.845870029418 ,68.8074815591985
27.1482795 ,Left ,45.0539970460866 ,47.7835796258839 ,68.7561918057822
27.1631634 ,Left ,45.120623221124 ,47.7181146426797 ,68.6869402071261
27.1932828 ,Left ,45.0455932795833 ,47.6848896958816 ,68.6528851035047
27.215494 ,Left ,44.9367357765725 ,47.6841043463788 ,68.6676420715312
27.2306985 ,Left ,44.9097004145935 ,47.6799851533056 ,68.685088605149
27.2535733 ,Left ,44.9044252639833 ,47.6679415172922 ,68.695592766588
27.2680786 ,Left ,44.9417075654993 ,47.6680238639182 ,68.7242239154125
27.2942017 ,Left ,44.9702988771739 ,47.6854565629699 ,68.7483451781998
27.3058623 ,Left ,44.9789108373405 ,47.7195879239069 ,68.7634050250401
27.3282187 ,Left ,44.9560832573653 ,47.7714518218826 ,68.7708907624338
27.3432018 ,Left ,44.9760005787091 ,47.7999151493499 ,68.7804673050418
27.3655801 ,Left ,44.9914785897058 ,47.8161348604117 ,68.7814812142405
27.3881273 ,Left ,44.9787657000765 ,47.8329480948562 ,68.7708244145615
27.4032517 ,Left ,44.9628831343424 ,47.8426879699057 ,68.7645847469254
27.425634 ,Left ,44.9731732640665 ,47.8495359504197 ,68.7590815429785
27.4481236 ,Left ,44.9801005792157 ,47.8518132561206 ,68.7549414420878
27.4632056 ,Left ,44.9922442265669 ,47.8551183222509 ,68.7523953867533
27.4857801 ,Left ,45.028346980755 ,47.8541610006807 ,68.7440116450171
27.5157938 ,Left ,45.0577425369951 ,47.8578965449177 ,68.7382537370983
27.5307786 ,Left ,45.0670069062334 ,47.8634221613363 ,68.7329830833581
27.5532659 ,Left ,45.0666697947404 ,47.8723343016467 ,68.7292294494008
27.5682539 ,Left ,45.0700636696958 ,47.8792310458132 ,68.7222917812977
27.583304 ,Left ,45.0700636696958 ,47.8792310458132 ,68.7222917812977
27.6057169 ,Left ,45.0700636696958 ,47.8792310458132 ,68.7222917812977
27.6283072 ,Left ,45.0646315890805 ,47.8850715009313 ,68.7221377923472
27.6436881 ,Left ,45.0608502213607 ,47.8898563019952 ,68.7218782076039
27.6657485 ,Left ,45.0523325240792 ,47.8909345186168 ,68.7204766371746
27.6882759 ,Left ,45.0382928045818 ,47.888850332535 ,68.7256512412054
27.7180522 ,Left ,45.0180319932723 ,47.888776520433 ,68.7338965391322
27.7332286 ,Left ,44.9866325780291 ,47.8867413460658 ,68.7445020747176
27.7781253 ,Left ,44.9249469151097 ,47.8816908242664 ,68.7821641850646
27.7932906 ,Left ,44.9304498065023 ,47.8711770679808 ,68.8045005285516
27.8081931 ,Left ,44.9289763362302 ,47.8599510017483 ,68.82360996489
27.8306408 ,Left ,44.9122916147556 ,47.8473928731521 ,68.8429623082437
27.8463613 ,Left ,44.9076764256752 ,47.8358077514445 ,68.8653864825868
27.8682777 ,Left ,44.8896589352847 ,47.8292862001777 ,68.8885751872477
27.8982682 ,Left ,44.8634323031512 ,47.8040621153231 ,68.9527462155791
27.9208173 ,Left ,44.9295114601814 ,47.7851860315189 ,68.9875632480138
27.9583009 ,Left ,44.9085651482191 ,47.7837570787854 ,69.0200093033899
27.9883426 ,Left ,44.9104157267039 ,47.7957106842383 ,69.0289431385042
28.025907 ,Left ,44.9854664993033 ,47.8108864025765 ,69.03872564151
28.0407535 ,Left ,44.9887895551515 ,47.821459327743 ,69.0479978322732
28.0783831 ,Left ,44.969676925458 ,47.8518748851657 ,69.0734659810222
28.1005195 ,Left ,44.9878052674094 ,47.8599359246142 ,69.082857478209
28.1385351 ,Left ,45.0063887546486 ,47.8668875950021 ,69.0853014881356
28.1607033 ,Left ,44.9827736341352 ,47.8783670006487 ,69.0895979422441
28.2056826 ,Left ,44.9656639982218 ,47.8947370895194 ,69.0892522507144
28.2282308 ,Left ,44.9679628255129 ,47.8999838336309 ,69.0828182232621
28.2658887 ,Left ,44.9618508808261 ,47.9015966519987 ,69.0837088197207
28.2882827 ,Left ,44.9975531324784 ,47.8937631012239 ,69.0790582896919
28.3256777 ,Left ,45.0319338425857 ,47.8792278155259 ,69.068714367038
28.3494783 ,Left ,45.0647598338554 ,47.8856158361699 ,69.0690626439939
28.3781881 ,Left ,45.2463320743624 ,47.8833516244893 ,69.0503222788698
28.40054 ,Left ,45.2879245945082 ,47.8978769575267 ,69.0452701989855
28.4381466 ,Left ,45.2840923648696 ,47.8926611044079 ,69.0186934675709
28.4605862 ,Left ,45.2484271136736 ,47.8756293405067 ,68.9924711548972
28.4982468 ,Left ,45.242864734688 ,47.8591010552091 ,68.9164959572099
28.5209493 ,Left ,45.2602431543266 ,47.8595948936826 ,68.8708685951239
28.5588302 ,Left ,45.2630819370049 ,47.8646012482216 ,68.7749581501433
28.5882031 ,Left ,45.277950589895 ,47.8583912260797 ,68.7457885534791
28.6257849 ,Left ,45.3114985291734 ,47.8329695189043 ,68.7380788595206
28.640529 ,Left ,45.271573743538 ,47.8174202436311 ,68.745257822636
28.678034 ,Left ,45.2590831407124 ,47.8052159457863 ,68.7569719052601
28.7004688 ,Left ,45.3002408166184 ,47.786383038005 ,68.7441345259414
28.7398512 ,Left ,45.332648802276 ,47.7826864899638 ,68.732461101905
28.7608261 ,Left ,45.2705973298417 ,47.7994391347512 ,68.7488613966633
28.7982299 ,Left ,45.1303741641265 ,47.8453894170135 ,68.8013500499045
28.8207477 ,Left ,45.1361252979667 ,47.8534912299332 ,68.8408635269034
28.8579602 ,Left ,45.2614815468689 ,47.840971543746 ,68.9284951003235
28.8804943 ,Left ,45.3045864520254 ,47.8188650556839 ,69.0176471755537
28.9179765 ,Left ,45.4889588020614 ,47.6964765676282 ,69.2210354869496
28.9407167 ,Left ,45.5211161686588 ,47.6474299692014 ,69.2912418506387
28.9781821 ,Left ,45.4563504443777 ,47.6914971692289 ,69.391599327835
29.0006855 ,Left ,45.4103711727384 ,47.7528219428926 ,69.3972066541927
29.0382955 ,Left ,45.4103283025635 ,47.8326071048669 ,69.3485631936625
29.0605215 ,Left ,45.4488571798575 ,47.8485699669097 ,69.3127371671306
29.0983845 ,Left ,45.4526615808123 ,47.8590429001179 ,69.2770514151581
29.1207068 ,Left ,45.426618470605 ,47.8542087472791 ,69.2418938267828
29.1656748 ,Left ,45.3228804167669 ,47.8443963525502 ,69.1541216912279
29.2180917 ,Left ,45.338546288903 ,47.8155353771008 ,69.0693837289314
29.2407507 ,Left ,45.3218167948667 ,47.8104310237686 ,69.0495330366294
29.2783145 ,Left ,45.23182206849 ,47.8296979371971 ,69.0446696849138
29.3005365 ,Left ,45.1837937238689 ,47.8409563444893 ,69.024491013066
29.3382511 ,Left ,45.2636750244153 ,47.8192223655678 ,68.9393435889718
29.3612105 ,Left ,45.4031602653111 ,47.780974915845 ,68.895044946228
29.3982163 ,Left ,45.3661063298206 ,47.7761964051361 ,68.8856095717205
29.4205798 ,Left ,45.3855818583614 ,47.7966730388715 ,68.9376912238177
29.4582997 ,Left ,45.4323533778445 ,47.7822154324729 ,69.0078260051913
29.4804944 ,Left ,45.4205402079146 ,47.8040245240543 ,69.0556469842874
29.5182501 ,Left ,45.4863074103592 ,47.827135808018 ,69.082747907571
29.5404713 ,Left ,45.5091924006897 ,47.8444163383849 ,69.0732656850444
29.5783561 ,Left ,45.5973795087152 ,47.8635339202298 ,69.0485054145819
29.6006676 ,Left ,45.589827578822 ,47.8682062805276 ,69.0415957863807
29.6382719 ,Left ,45.5232352960028 ,47.8838746724591 ,69.0378661659732
29.6680542 ,Left ,45.5237074070765 ,47.8900271329269 ,69.032037827885
29.7209 ,Left ,45.5301277195518 ,47.8929531130209 ,69.0041433410472
29.7506089 ,Left ,45.4727393509004 ,47.9123177614368 ,69.0027971575918
29.7732527 ,Left ,45.4525439592179 ,47.9140235872141 ,69.0034000595981
29.7957605 ,Left ,45.4273296342824 ,47.9210475752693 ,68.9990715294881
29.8106923 ,Left ,45.3936673250848 ,47.9264462536607 ,68.9966884028045
29.8330246 ,Left ,45.3641580117174 ,47.9325829061633 ,69.0001581578988
29.8563891 ,Left ,45.3484379512241 ,47.9375651660616 ,69.0160383560049
29.8744425 ,Left ,45.3670500307933 ,47.9319367747852 ,69.0377786247272
29.8932762 ,Left ,45.4006503494134 ,47.9412002949348 ,69.0446258507579
29.915533 ,Left ,45.4661859982304 ,47.9453714898935 ,69.0522727215031
29.9307608 ,Left ,45.625056277319 ,47.9255852988955 ,69.0682798442352
29.9532488 ,Left ,45.7687143443442 ,47.9128173596616 ,69.0762204189047
29.9756076 ,Left ,45.7909488544004 ,47.9368275800853 ,69.0850499569361
29.9906817 ,Left ,45.7563854179421 ,47.9817444537945 ,69.1109071091236
30.013722 ,Left ,45.734168700567 ,48.0137524623822 ,69.1369916371853
30.0357707 ,Left ,45.7287175268473 ,48.0241023687207 ,69.1573628504515
30.0507212 ,Left ,45.7091681914512 ,48.0193426182169 ,69.1708586322901
30.0733423 ,Left ,45.6727772255685 ,48.0067318231781 ,69.1811839003041
30.095792 ,Left ,45.6143391800855 ,47.9924610727985 ,69.1878947875186
30.1106411 ,Left ,45.5258363989271 ,47.9787383568211 ,69.1928241670845
30.1330947 ,Left ,45.4403085530727 ,47.9653656229243 ,69.1948323625391
30.1556952 ,Left ,45.3937128799897 ,47.9492495945535 ,69.1934040492777
30.1711787 ,Left ,45.3619015614685 ,47.9365427329466 ,69.1894654859896
30.2007275 ,Left ,45.337358382636 ,47.9320461976084 ,69.1893373066632
30.223848 ,Left ,45.3209443583841 ,47.9269245060742 ,69.1955204376342
30.2464561 ,Left ,45.2995788708077 ,47.9179138132603 ,69.20089554741
30.2679848 ,Left ,45.2767467005647 ,47.9119072688404 ,69.1985367341387
30.2830278 ,Left ,45.2848385150554 ,47.9057975575617 ,69.1962365301923
30.2983821 ,Left ,45.3278679039708 ,47.895278748947 ,69.1935002643657
30.3130802 ,Left ,45.3575114430718 ,47.8892282449966 ,69.1895920332526
30.3355602 ,Left ,45.3591408824769 ,47.8881466632796 ,69.1894966979193
30.3506229 ,Left ,45.3576190455054 ,47.8970608964301 ,69.1925291554258
30.3730838 ,Left ,45.3576190455054 ,47.8970608964301 ,69.1925291554258
30.3957926 ,Left ,45.3618660658357 ,47.903800231885 ,69.1954951800921
30.4109875 ,Left ,45.3709148577254 ,47.9093909378204 ,69.1929200341792
30.4333697 ,Left ,45.3721035426167 ,47.9109950181989 ,69.1923664744558
30.4567369 ,Left ,45.3510560865326 ,47.9089538817209 ,69.1962341127378
30.4711041 ,Left ,45.2954125159698 ,47.9090830610288 ,69.2032115242454
30.5006818 ,Left ,45.2255647399367 ,47.9169810363508 ,69.2134337118324
30.5231105 ,Left ,45.1775572724723 ,47.9236217873277 ,69.2154494648382
30.5455803 ,Left ,45.1444901933916 ,47.9175734264693 ,69.2175002732592
30.5607397 ,Left ,45.1117500135279 ,47.9092904652943 ,69.2222807112676
30.5756282 ,Left ,45.0688712715847 ,47.9005337230386 ,69.2292411633475
30.5982419 ,Left ,45.0411351042595 ,47.8941124076906 ,69.2401599439935
30.6132604 ,Left ,45.0416146581272 ,47.8905661818691 ,69.249957019483
30.6368171 ,Left ,45.0662812612977 ,47.8913742722064 ,69.2625588487594
30.6582352 ,Left ,45.1281648186689 ,47.8934098460779 ,69.2703565440942
30.6737093 ,Left ,45.1976122397722 ,47.9163201106974 ,69.2778766103629
30.6956025 ,Left ,45.2158996649402 ,47.9445066031011 ,69.2713257980871
30.718206 ,Left ,45.182163400935 ,47.9663104647584 ,69.2371181408986
30.7333039 ,Left ,45.1538541259197 ,47.9632530629625 ,69.2093015130827
30.755712 ,Left ,45.140858871396 ,47.9468518156352 ,69.176736393291
30.7782231 ,Left ,45.1242118140857 ,47.926052312899 ,69.1481430700771
30.7932863 ,Left ,45.1565440014873 ,47.9180183450621 ,69.1203901485291
30.8157631 ,Left ,45.1803108897945 ,47.9105056987985 ,69.0894118322019
30.8400107 ,Left ,45.1968654990468 ,47.9021248832803 ,69.0691391070665
30.8533104 ,Left ,45.1785212153448 ,47.8959306988489 ,69.0546886754635
30.8756594 ,Left ,45.1532387337418 ,47.8990205342311 ,69.0345527538676
30.8981535 ,Left ,45.1407297510461 ,47.8897361938267 ,69.0293036488178
30.9131639 ,Left ,45.1200484972039 ,47.8706290770386 ,69.0316915010634
30.9356511 ,Left ,45.1253073144256 ,47.8536463174431 ,69.043894440148
30.958186 ,Left ,45.1680675141577 ,47.8368181234871 ,69.0446501792391
30.9732837 ,Left ,45.2107286685873 ,47.8220514786617 ,69.040171364812
30.9956607 ,Left ,45.2300298690393 ,47.8169273036136 ,69.0448167344996
31.0182496 ,Left ,45.2368652684571 ,47.8096770829645 ,69.0452791212571
31.0332684 ,Left ,45.2094561855071 ,47.8225138737623 ,69.0354931133902
31.0565037 ,Left ,45.1483024085117 ,47.8545357930056 ,69.0371555106448
31.0855099 ,Left ,45.0715394144933 ,47.890757109406 ,69.0504298446519
31.1004714 ,Left ,45.0740802169176 ,47.9113372176554 ,69.0765730000882
31.1231651 ,Left ,45.1348188488908 ,47.9176590614654 ,69.0934246820323
31.1382533 ,Left ,45.1668798186202 ,47.9231606241983 ,69.1224253924088
31.1531963 ,Left ,45.1640051414303 ,47.9418918169714 ,69.1880649667473
31.1757042 ,Left ,45.1995523085107 ,47.9498455345353 ,69.2636998188029
31.1982086 ,Left ,45.2395923771598 ,47.937586571295 ,69.3138913441051
31.213184 ,Left ,45.2078411414171 ,47.9350323862538 ,69.3366522690491
31.2357804 ,Left ,45.2133486478954 ,47.9575840026308 ,69.3549768016049
31.2583864 ,Left ,45.2993022135616 ,48.0033081282685 ,69.3462247973722
31.2750401 ,Left ,45.3088619193088 ,48.0383909515244 ,69.3070000783957
31.2958029 ,Left ,45.2927715345702 ,48.0829427488442 ,69.2608095255746
31.3181474 ,Left ,45.2919666322623 ,48.1203209271587 ,69.2203673466953
31.3330384 ,Left ,45.2833686497918 ,48.1528388514898 ,69.1775655632346
31.3632084 ,Left ,45.298639146281 ,48.1612436207983 ,69.1334763794269
31.3857047 ,Left ,45.3419419429717 ,48.165485682342 ,69.0876525784784
31.400731 ,Left ,45.397375164008 ,48.1531080594702 ,69.0577939282375
31.4157404 ,Left ,45.4156104327115 ,48.1341387556036 ,69.0394009540071
31.4381683 ,Left ,45.378372672628 ,48.1233970517434 ,69.0190554784508
31.4531932 ,Left ,45.3245878436839 ,48.1181433212287 ,69.0069434549955
31.4758737 ,Left ,45.32116402079 ,48.0998414787042 ,68.9944543975027
31.4983055 ,Left ,45.3384013681463 ,48.0729169785234 ,68.9636937016899
31.5207104 ,Left ,45.3267252077491 ,48.0489829561832 ,68.9346155878864
31.5357789 ,Left ,45.2621709618698 ,48.0679622805136 ,68.9321202589596
31.5581669 ,Left ,45.2156323527334 ,48.0823118381949 ,68.929739911961
31.580692 ,Left ,45.2255604534724 ,48.0723370268349 ,68.8992920144786
31.5954636 ,Left ,45.2748962331632 ,48.0499786674208 ,68.8648248272353
31.6181541 ,Left ,45.3269021418154 ,48.0280033674327 ,68.8301495587756
31.6405546 ,Left ,45.339454616229 ,48.010509779516 ,68.810103120684
31.6558945 ,Left ,45.3155852260103 ,48.0093142933986 ,68.8071695105953
31.681854 ,Left ,45.2578892168753 ,48.0203470443487 ,68.8165794725389
31.7021059 ,Left ,45.230655452779 ,48.031544575287 ,68.8426327657402
31.716951 ,Left ,45.2290463791484 ,48.0341173414561 ,68.8777604526208
31.7387732 ,Left ,45.2610895145064 ,48.0307219865964 ,68.9134615026672
31.7607567 ,Left ,45.2694437494056 ,48.0442269969229 ,68.9329501588044
31.7756565 ,Left ,45.2493125690205 ,48.0806386322412 ,68.9484328809416
31.7983445 ,Left ,45.2724194284968 ,48.0944930636622 ,68.951245463924
31.8206371 ,Left ,45.3425012318359 ,48.0924822463986 ,68.9474418444224
31.8357207 ,Left ,45.3912554600377 ,48.0900995865965 ,68.9426530208912
31.8580829 ,Left ,45.3808913529708 ,48.0853441711069 ,68.9426307381551
31.8807873 ,Left ,45.3450702693111 ,48.0694390216548 ,68.95153371427
31.8957403 ,Left ,45.3238372848997 ,48.0531354060648 ,68.9555798096232
31.9257397 ,Left ,45.3149428289732 ,48.0399158237594 ,68.9547653622451
31.9480272 ,Left ,45.3137687498122 ,48.0383058774112 ,68.955310498456
31.9630929 ,Left ,45.3092680828501 ,48.0404831356585 ,68.9486424678772
31.9779567 ,Left ,45.3202249160331 ,48.0444678696983 ,68.9412577101198
32.0079565 ,Left ,45.3461964644502 ,48.0418103585248 ,68.944596505691
32.0230526 ,Left ,45.3509142945108 ,48.0371134000632 ,68.9542975156024
32.0456471 ,Left ,45.3463390143366 ,48.0297015104188 ,68.9656680416358
32.0605995 ,Left ,45.3531494983467 ,48.0212486908002 ,68.9757278084217
32.0757635 ,Left ,45.3682303303547 ,48.0070075457406 ,68.9831221308902
32.0982565 ,Left ,45.3791012897556 ,47.993125893025 ,68.9886679760582
32.1226638 ,Left ,45.3779501570254 ,47.9827121226041 ,68.9954855706557
32.1355079 ,Left ,45.3717911549938 ,47.9759415109984 ,69.0047895469895
32.1581589 ,Left ,45.3641975155311 ,47.9677299257288 ,69.0172360785519
32.1886517 ,Left ,45.3562031713954 ,47.9628945100142 ,69.0310416456711
32.2032217 ,Left ,45.3474951037713 ,47.9609137821409 ,69.0469930411791
32.2257579 ,Left ,45.3508306602492 ,47.9609180862861 ,69.070236722095
32.2556867 ,Left ,45.3432028307346 ,47.9707038906521 ,69.1146469136142
32.2781137 ,Left ,45.3259743242548 ,47.9747349364242 ,69.1359033832713
32.3007293 ,Left ,45.315079237673 ,47.9769837008443 ,69.1537450696077
32.3253404 ,Left ,45.3121802512589 ,47.9735777232222 ,69.1715114078774
32.3384873 ,Left ,45.325723799306 ,47.9660688451297 ,69.1872603883783
32.3605653 ,Left ,45.3416743751215 ,47.954184665332 ,69.1985829649024
32.3764857 ,Left ,45.3439682522744 ,47.9386656771936 ,69.2061362303479
32.3980722 ,Left ,45.3221695985621 ,47.9323460036814 ,69.2110191479754
32.4205978 ,Left ,45.3120541144722 ,47.9346534214295 ,69.2096265251149
32.4354058 ,Left ,45.3303408962338 ,47.9433009170503 ,69.2075192673877
32.4657653 ,Left ,45.3549092342942 ,47.9577078696462 ,69.2053433300707
32.4885238 ,Left ,45.3818215056487 ,47.9653977832925 ,69.2044145504642
32.5181486 ,Left ,45.3994025176338 ,47.9704467380344 ,69.2052133845742
32.5330314 ,Left ,45.3944743546322 ,47.9812546993467 ,69.2088438957681
32.5481241 ,Left ,45.3886102955571 ,47.9902980518734 ,69.2104260184091
32.5787372 ,Left ,45.424304958689 ,47.9955927015048 ,69.217788902111
32.6007139 ,Left ,45.4216116255217 ,48.0012064886342 ,69.2288690497405
32.6232228 ,Left ,45.4101696986162 ,48.0188663943711 ,69.258654210345
32.6382808 ,Left ,45.4102000722976 ,48.0594128125806 ,69.300938157135
32.660701 ,Left ,45.444409390518 ,48.0969238950239 ,69.3550605245119
32.6834725 ,Left ,45.5333801446831 ,48.1295193583185 ,69.4041081725079
32.6982523 ,Left ,45.6050886555611 ,48.1563591665519 ,69.447752560012
32.7208151 ,Left ,45.6295458572703 ,48.1719335180751 ,69.4840958370252
32.7443853 ,Left ,45.6321856781614 ,48.1748937681894 ,69.5121070850206
32.7582446 ,Left ,45.627306809153 ,48.1699741079169 ,69.5204981293088
32.7806805 ,Left ,45.6274576729408 ,48.1616484224576 ,69.5125532518963
32.8032496 ,Left ,45.6148382681824 ,48.1623653876083 ,69.5049051318886
32.8180134 ,Left ,45.5995652979848 ,48.1813486841394 ,69.4893990485108
32.8405991 ,Left ,45.6009587767928 ,48.1944537028021 ,69.4631392926912
32.8632173 ,Left ,45.5817037184672 ,48.2156823474828 ,69.4218293034659
32.8782431 ,Left ,45.5166079366701 ,48.2416981807834 ,69.3746109819778
32.9005058 ,Left ,45.4808980213184 ,48.2438825563071 ,69.3227405515455
32.9231817 ,Left ,45.4613340839635 ,48.2354800028482 ,69.2723466995838
32.9390947 ,Left ,45.4857974578849 ,48.2331419419382 ,69.2261415096377
32.9616525 ,Left ,45.5095859384328 ,48.2395554107792 ,69.1930427986636
32.983249 ,Left ,45.5064243522129 ,48.2462431096112 ,69.1661056701383
32.998242 ,Left ,45.4927918741738 ,48.2475782259874 ,69.1372270790447
33.028543 ,Left ,45.4874424962471 ,48.2342532295893 ,69.1119392311973
33.0504427 ,Left ,45.4780530018063 ,48.2179218929012 ,69.0996233011574
33.0654729 ,Left ,45.4163807060756 ,48.1974497537789 ,69.1012351968563
33.0807919 ,Left ,45.3693527606009 ,48.1842989457648 ,69.1011699389344
33.1032621 ,Left ,45.3982526939039 ,48.1570132465758 ,69.0995211445909
33.1182628 ,Left ,45.4467351757295 ,48.1327448815439 ,69.0917215570281
33.1408219 ,Left ,45.4635846446246 ,48.1117359199222 ,69.0878579925499
33.1632428 ,Left ,45.4810593642835 ,48.1002084860978 ,69.0920367930542
33.1781165 ,Left ,45.4626716952175 ,48.1059247371951 ,69.0988432039496
33.2007498 ,Left ,45.4158773536307 ,48.1274505601891 ,69.1139961111328
33.2233985 ,Left ,45.358707013976 ,48.1661487910535 ,69.1348463888819
33.2397551 ,Left ,45.2898369748334 ,48.1994722667331 ,69.1606039899587
33.2605672 ,Left ,45.2896568067274 ,48.2161750552905 ,69.205297500006
33.2830766 ,Left ,45.3750759433314 ,48.2075188273576 ,69.243309319437
33.305665 ,Left ,45.3803851593225 ,48.2049608429505 ,69.2736880082438
33.3283158 ,Left ,45.3251362289173 ,48.238297532596 ,69.3190762830645
33.3582646 ,Left ,45.3744264342898 ,48.3105646085879 ,69.3887096882325
33.3806821 ,Left ,45.3591364797605 ,48.3574677516854 ,69.3922489163704
33.4032704 ,Left ,45.3652529907135 ,48.4222785321598 ,69.3843005379839
33.4257315 ,Left ,45.4368095907196 ,48.4754838580396 ,69.37844982843
33.4406554 ,Left ,45.4512008470779 ,48.5120831439228 ,69.3411130324929
33.4632602 ,Left ,45.3332636178473 ,48.559298035533 ,69.3143202546463
33.4857148 ,Left ,45.2596784130552 ,48.5945684038008 ,69.2855643818959
33.5006886 ,Left ,45.2934371290703 ,48.5982463346354 ,69.2515694546234
33.5231933 ,Left ,45.335907710535 ,48.5802595161951 ,69.2007047503367
33.5456426 ,Left ,45.3871681331834 ,48.5748877618831 ,69.1493011166522
33.5607771 ,Left ,45.4289824672122 ,48.5690550809975 ,69.0942630762421
33.5831986 ,Left ,45.4293616310401 ,48.555754084484 ,69.0445810881326
33.6057099 ,Left ,45.416687444335 ,48.5434622178632 ,69.008333134002
33.6206467 ,Left ,45.3775865117811 ,48.5293681687368 ,68.9667303944616
33.6432735 ,Left ,45.3400392389621 ,48.5197649051517 ,68.9363790692959
33.6656363 ,Left ,45.3445467153861 ,48.5139552627867 ,68.9105893248374
33.6734356 ,Left ,45.3697128561203 ,48.4952435045105 ,68.8936030124952
33.6956049 ,Left ,45.3796734521709 ,48.465942681131 ,68.8831858754588
33.7329781 ,Left ,45.3571723868044 ,48.4071729755269 ,68.8615490612476
33.7561096 ,Left ,45.3155368254276 ,48.3785233183846 ,68.86831042184
33.7930766 ,Left ,45.1876554912119 ,48.3764036103916 ,68.8928312313167
33.8232 ,Left ,45.2076519165848 ,48.377592261989 ,68.8754337867246
33.8832792 ,Left ,45.4367506069738 ,48.2528712065682 ,68.7669528560123
33.9132098 ,Left ,45.3015763250242 ,48.2218852812055 ,68.7907004426948
33.93553 ,Left ,45.3089296617977 ,48.1962974799799 ,68.7991769963435
33.9739085 ,Left ,45.3760664016361 ,48.1672078484167 ,68.8316679292403
33.9956388 ,Left ,45.3821728681848 ,48.1667172356159 ,68.8662892973358
34.033131 ,Left ,45.3476758785663 ,48.216156320731 ,68.9096063383771
34.0555362 ,Left ,45.3868793929737 ,48.2243002507099 ,68.9211258582931
34.0930887 ,Left ,45.4895152673451 ,48.189956760748 ,68.9303487852493
34.1158005 ,Left ,45.4544157279958 ,48.1787390145376 ,68.9401502959562
34.1532468 ,Left ,45.3904554104816 ,48.1676069027454 ,68.9685118355278
34.1754767 ,Left ,45.3766531754997 ,48.1635092293498 ,68.978624330436
34.2130172 ,Left ,45.3643340899869 ,48.1604310294901 ,68.9834419209355
34.2356432 ,Left ,45.36526403054 ,48.1622102006639 ,68.9854960939969
34.2731781 ,Left ,45.3361049867771 ,48.1736344759984 ,68.9947947898215
34.2954618 ,Left ,45.3184720433926 ,48.1831730603772 ,68.9984460157554
34.3329883 ,Left ,45.329006554124 ,48.1881641018841 ,68.998090719613
34.3555423 ,Left ,45.329006554124 ,48.1881641018841 ,68.998090719613
34.39335 ,Left ,45.3278348209176 ,48.1865576116772 ,68.9986226281637
34.4156387 ,Left ,45.3278348209176 ,48.1865576116772 ,68.9986226281637
34.4532209 ,Left ,45.3321313248449 ,48.1880989355546 ,68.9926912842783
34.4755775 ,Left ,45.3239414189578 ,48.1863199784526 ,68.9919803598442
34.5130338 ,Left ,45.293203097958 ,48.1830149129122 ,68.992869469609
34.5354562 ,Left ,45.2606653689189 ,48.1887799579974 ,68.9994224326889
34.5732082 ,Left ,45.2682486169273 ,48.2012388834986 ,69.0052145684851
34.5955503 ,Left ,45.2620137763407 ,48.2037110116652 ,69.0104097505282
34.6330038 ,Left ,45.2326148515915 ,48.2153575340823 ,69.0223203313152
34.6560423 ,Left ,45.2165420412106 ,48.2171348103274 ,69.0269217893889
34.7081892 ,Left ,45.2043881597604 ,48.2214868591934 ,69.0325478145412
34.7231475 ,Left ,45.2126629179488 ,48.2299660026003 ,69.0321995467281
34.7529696 ,Left ,45.233523190015 ,48.2472496675349 ,69.0351933443946
34.7755454 ,Left ,45.2346329751942 ,48.2564248043841 ,69.0380162474674
34.813665 ,Left ,45.249104281975 ,48.2782446941097 ,69.0410397199759
34.8354153 ,Left ,45.2588438027017 ,48.2805770169821 ,69.0342586489936
34.8732548 ,Left ,33.944482595286004 ,36.20842498749525 ,51.776023168365526
34.8955855 ,Left ,22.629720970453 ,24.13852011527335 ,34.51515682605475
34.933065 ,Left ,11.310488132836175 ,12.068443382369725 ,17.255402813386
37.1082779 ,Left ,45.2727235957358 ,48.0236684656144 ,69.0735407281741
37.1308352 ,Left ,45.2916908817967 ,48.0278946262436 ,69.0767868270764
37.1529747 ,Left ,45.300646880216 ,48.0322929543341 ,69.0838778964822
37.1679658 ,Left ,45.3019697593742 ,48.0389558804424 ,69.0897036065442
37.1906662 ,Left ,45.3005544324892 ,48.0457805945174 ,69.0979809641881
37.2131606 ,Left ,45.317593168734 ,48.0540049233779 ,69.1005187855253
37.2357877 ,Left ,45.3350053995889 ,48.0588556190188 ,69.1017162256554
37.2506589 ,Left ,45.351027976878 ,48.0646140467048 ,69.1004328636752
37.2731695 ,Left ,45.3566804192415 ,48.0728062443831 ,69.1003187326678
37.2956745 ,Left ,45.3583140969134 ,48.0717290005725 ,69.1002256017914
37.3107567 ,Left ,45.3597868659718 ,48.0703946776226 ,69.1005227279575
37.3332057 ,Left ,45.3594551984139 ,48.0749974967228 ,69.0922511604486
37.3563429 ,Left ,45.3590002841455 ,48.0776792940929 ,69.091804685933
37.3706935 ,Left ,45.3590002841455 ,48.0776792940929 ,69.091804685933
37.3933368 ,Left ,45.3542835818816 ,48.0712594207908 ,69.0939645851862
37.4155029 ,Left ,45.3559175533703 ,48.0701825226016 ,69.093871315754
37.4305371 ,Left ,45.3629074460276 ,48.0631928012791 ,69.0939452507859
37.4530271 ,Left ,45.3747241755392 ,48.0522900164991 ,69.0919304019262
37.4756928 ,Left ,45.3817765766165 ,48.0377391533348 ,69.0886498229964
37.4907303 ,Left ,45.3741269539331 ,48.0328789405591 ,69.0862148893704
37.5134022 ,Left ,45.358041712568 ,48.0346761952181 ,69.0908502296148
37.5460339 ,Left ,45.3439803251873 ,48.0402825216483 ,69.0991914862587
37.5583333 ,Left ,45.3521173462379 ,48.0407980954388 ,69.1095073998921
37.5807441 ,Left ,45.3664201136257 ,48.0392523237479 ,69.1168057110323
37.5957751 ,Left ,45.3697437766948 ,48.0425654882197 ,69.1252122453339
37.6106285 ,Left ,45.3793549025504 ,48.0505327928144 ,69.1295521469668
37.6333433 ,Left ,45.3821682608673 ,48.0510582419963 ,69.1289190155367
37.6555587 ,Left ,45.3776350633502 ,48.0520354188704 ,69.1318471502459
37.6706688 ,Left ,45.3771514586768 ,48.0475819700671 ,69.1302444712454
37.6933743 ,Left ,45.3638805896139 ,48.0368934238236 ,69.1222934175258
37.7160382 ,Left ,45.3575232796042 ,48.0185181582898 ,69.1126258106543
37.7306498 ,Left ,45.4012793098063 ,47.9911369201856 ,69.0919744964908
37.7532358 ,Left ,45.4231745481701 ,47.9435338522632 ,69.0760035532229
37.7754816 ,Left ,45.3739744743026 ,47.9170463393409 ,69.0772288041895
37.7905823 ,Left ,45.3363469022728 ,47.9122719518719 ,69.0842094493014
37.8131505 ,Left ,45.3789738027162 ,47.911722235736 ,69.0821842795051
37.8355075 ,Left ,45.4403017706391 ,47.9124433489276 ,69.0718594365526
37.8506734 ,Left ,45.444143562282 ,47.9143217633718 ,69.0710628601876
37.8731514 ,Left ,45.3974712596696 ,47.9202841752581 ,69.077530884139
37.895774 ,Left ,45.3332442094739 ,47.9047655263759 ,69.0863356170631
37.9107966 ,Left ,45.2913411898236 ,47.877827776808 ,69.0842411494482
37.9331797 ,Left ,45.29620712066 ,47.8536922692585 ,69.0692050801853
37.9557594 ,Left ,45.315512181378 ,47.8364207737661 ,69.052819423873
37.9781119 ,Left ,45.3029058710392 ,47.8204732407032 ,69.0486017889187
37.9930338 ,Left ,45.2611466314604 ,47.7992413534552 ,69.054883997027
38.0230681 ,Left ,45.2175989581112 ,47.7640886471055 ,69.0574682008259
38.0380709 ,Left ,45.2016357755955 ,47.7304637424757 ,69.0430027554774
38.0605614 ,Left ,45.2048527433928 ,47.7103236681172 ,69.0137096963227
38.07565 ,Left ,45.2135693838057 ,47.6937906063665 ,68.980009987158
38.0907694 ,Left ,45.1733713876792 ,47.6633030352252 ,68.955167255644
38.1132824 ,Left ,45.0738382147778 ,47.6333906334735 ,68.9481733763744
38.1357928 ,Left ,44.9837818734188 ,47.6043128400155 ,68.9445874299675
38.1582744 ,Left ,44.9680382724804 ,47.5715902931529 ,68.9211373482282
38.1740953 ,Left ,44.9980841976426 ,47.5570491987586 ,68.8832514540733
38.1956535 ,Left ,45.0333507343872 ,47.5669914858913 ,68.8555865260905
38.2183244 ,Left ,45.065810809076 ,47.5850259770972 ,68.8485991534726
38.2330884 ,Left ,45.0824792172431 ,47.6012429169584 ,68.8563192101157
38.2557612 ,Left ,45.0528862364069 ,47.6087313038621 ,68.8791697594839
38.2780921 ,Left ,45.0016954922072 ,47.5968388907356 ,68.8954894288918
38.2931639 ,Left ,45.0120666291903 ,47.5552483666311 ,68.8646102553107
38.3157259 ,Left ,45.0401974012915 ,47.4905588193349 ,68.792830577393
38.3382728 ,Left ,45.0015359170332 ,47.4322754377466 ,68.725159180037
38.3532968 ,Left ,44.8751472311427 ,47.3959137302311 ,68.6787394342455
38.3756738 ,Left ,44.7598661284405 ,47.3742153940547 ,68.6393089457905
38.3980933 ,Left ,44.7223965244574 ,47.348551843075 ,68.5981660716031
38.4131939 ,Left ,44.7332246961698 ,47.3284975085422 ,68.5701575563047
38.4356753 ,Left ,44.7580787469638 ,47.3120266447763 ,68.5665638508021
38.4582623 ,Left ,44.8061137900901 ,47.3090932981042 ,68.5625780428831
38.4732669 ,Left ,44.873297092377 ,47.3103081490747 ,68.5588535417451
38.4956981 ,Left ,44.9359958019305 ,47.3265991472528 ,68.5575471776615
38.518198 ,Left ,45.0028700082018 ,47.351307805714 ,68.5516800772326
38.5330825 ,Left ,45.0430513269311 ,47.3473806549038 ,68.5356245895452
38.5555984 ,Left ,45.0024084700606 ,47.3248037028171 ,68.522153186944
38.5781242 ,Left ,44.9443001267366 ,47.3000613545165 ,68.5197905106486
38.5932459 ,Left ,44.9268575260944 ,47.2766375776827 ,68.50452992847
38.6155313 ,Left ,44.9255623877753 ,47.2426307455103 ,68.4910621008633
38.6381358 ,Left ,44.9241437345869 ,47.2090962714675 ,68.4797794030032
38.6531115 ,Left ,44.908696905995 ,47.1875263717429 ,68.4733146719898
38.6757003 ,Left ,44.9046891260932 ,47.1891976767064 ,68.4878036964279
38.6982135 ,Left ,44.9530342152514 ,47.2090536404743 ,68.50008601519
38.7133663 ,Left ,45.0471777906251 ,47.2355863295238 ,68.5162147700891
38.7354842 ,Left ,45.1217809155019 ,47.2796113003279 ,68.5116982218419
38.7582613 ,Left ,45.1737341145254 ,47.319840072601 ,68.489064226103
38.7732643 ,Left ,45.2307541722168 ,47.3369143498899 ,68.4821472518264
38.8033011 ,Left ,45.2652776730448 ,47.3356932293825 ,68.480896506916
38.825551 ,Left ,45.2648753716193 ,47.307833320092 ,68.4842306061893
38.840799 ,Left ,45.2490526134405 ,47.2744961539288 ,68.5009511044683
38.8631253 ,Left ,45.2565352292423 ,47.2378429135473 ,68.5189249807191
38.8781227 ,Left ,45.2634003357611 ,47.1971509731046 ,68.5376387803041
38.8930565 ,Left ,45.2334698331989 ,47.1686418764604 ,68.5584013140311
38.9156328 ,Left ,45.237366762142 ,47.1504545786349 ,68.5734210441526
38.9382834 ,Left ,45.2944641807222 ,47.1333896325637 ,68.582440386001
38.9549987 ,Left ,45.3850914123261 ,47.1253348805212 ,68.5953743180517
38.9754911 ,Left ,45.4045074615904 ,47.1266240524342 ,68.6221677806448
38.9982392 ,Left ,45.3602246484117 ,47.1362426386504 ,68.6422464165022
39.0131611 ,Left ,45.2371207035881 ,47.1559610481969 ,68.6566959947476
39.0356818 ,Left ,45.1098971664887 ,47.1671010295641 ,68.6736565358133
39.0580339 ,Left ,45.1027330373281 ,47.1631757185686 ,68.685388457963
39.0880228 ,Left ,45.2072713388086 ,47.1396458515655 ,68.6821961964196
39.1029932 ,Left ,45.2975061047961 ,47.1231877853516 ,68.6803443765327
39.1260564 ,Left ,45.3227534228561 ,47.1222419955583 ,68.6920270511553
39.1406927 ,Left ,45.2956231478087 ,47.1464540501542 ,68.7109883779068
39.1556669 ,Left ,45.2506914339165 ,47.1880022903147 ,68.7366329875752
39.1780259 ,Left ,45.2211819621805 ,47.2404782928667 ,68.7571444743517
39.2006839 ,Left ,45.1354329925168 ,47.3074815721864 ,68.7663497764516
39.2156433 ,Left ,45.0674026083015 ,47.3907898738753 ,68.7898157269456
39.2380699 ,Left ,45.1169344802158 ,47.4566622353674 ,68.8398638746084
39.2605438 ,Left ,45.2208760123339 ,47.5159478199643 ,68.9057963717497
39.275654 ,Left ,45.3004435349051 ,47.5753900247895 ,68.9788410463117
39.298403 ,Left ,45.3743580022915 ,47.6320430370347 ,69.0349543662212
39.3207236 ,Left ,45.4504595519013 ,47.6746916944486 ,69.0656788354255
39.3356553 ,Left ,45.4951102242141 ,47.7168701797436 ,69.0714399293985
39.3583458 ,Left ,45.5122639011009 ,47.7663094461317 ,69.0593378676942
39.3807145 ,Left ,45.4881609308204 ,47.8375041469809 ,69.0283635412313
39.3955562 ,Left ,45.401576199387 ,47.9157805793134 ,68.9902338579928
39.4182676 ,Left ,45.3077571069293 ,47.9871563696267 ,68.9516402966924
39.4407374 ,Left ,45.3090813787645 ,48.0190400340376 ,68.9031155435051
39.4481962 ,Left ,45.4123875789847 ,47.9969524256094 ,68.8269654075913
39.4706713 ,Left ,45.4625585533845 ,47.9720129577857 ,68.7459259000034
39.4931701 ,Left ,45.4683045944624 ,47.9617857271625 ,68.6809946001891
39.5081466 ,Left ,45.3994800321739 ,47.9575976327911 ,68.6388131882852
39.5310967 ,Left ,45.3185788719754 ,47.953673279999 ,68.6149918424708
39.5680362 ,Left ,45.1634754629391 ,47.9213652286271 ,68.5857371406337
39.5911252 ,Left ,45.1755975279451 ,47.8951805374705 ,68.5910365286061
39.635701 ,Left ,45.2708367585952 ,47.802371453774 ,68.6190893682215
39.6587048 ,Left ,45.2262537304946 ,47.7919475099802 ,68.6472671837509
39.7035645 ,Left ,45.0460808060086 ,47.8334824980032 ,68.641527960351
39.7256467 ,Left ,45.1086589439661 ,47.8308177587447 ,68.621894101983
39.7406955 ,Left ,45.2664939682123 ,47.7946368554663 ,68.5861450788218
39.7705337 ,Left ,45.3155757597781 ,47.7981644450568 ,68.5162912780701
39.7933257 ,Left ,45.2179990367247 ,47.8557487142412 ,68.5730814673387
39.8082256 ,Left ,45.195448373363 ,47.8841799821053 ,68.6111362045323
39.8310833 ,Left ,45.2654206846596 ,47.8735803013397 ,68.6271459431953
39.8529879 ,Left ,45.4206755105618 ,47.845088434882 ,68.651915710677
39.8681835 ,Left ,45.495596920032 ,47.8217940065004 ,68.6720222904095
39.8905392 ,Left ,45.460534580732 ,47.8281904220045 ,68.6978567296447
39.9132533 ,Left ,45.3944777749847 ,47.8569364937503 ,68.7174784513546
39.9281979 ,Left ,45.4120031305714 ,47.883945018168 ,68.7211567279431
39.9582362 ,Left ,45.5101822259924 ,47.8978499230499 ,68.7238274757965
39.9958229 ,Left ,45.579026520931 ,47.9133486514582 ,68.7405870354491
40.0105521 ,Left ,45.5574132662206 ,47.9050041574619 ,68.752629188554
40.0482193 ,Left ,45.3974691928077 ,47.8684496512398 ,68.8042233507409
40.0705051 ,Left ,45.330576307536 ,47.8580162067346 ,68.8240707771913
40.1081679 ,Left ,45.3304466531561 ,47.8246605214923 ,68.8444162017424
40.1305655 ,Left ,45.3263401088557 ,47.8029829776279 ,68.8660519128249
40.1682471 ,Left ,45.2895121737157 ,47.7605992789936 ,68.9136145788887
40.1906436 ,Left ,45.2584091779812 ,47.7388733146271 ,68.9395111912359
40.2356234 ,Left ,45.3360294373922 ,47.6800146365933 ,68.9684778751919
40.2582595 ,Left ,45.4121438753528 ,47.6437375046656 ,68.9717731450359
40.2881219 ,Left ,45.5548144539421 ,47.6114317512212 ,68.9607817969666
40.3104188 ,Left ,45.5733567159614 ,47.5958463460262 ,68.9561365311672
40.3481153 ,Left ,45.5188617568468 ,47.5696191094298 ,68.9491536653618
40.3705551 ,Left ,45.5110367093043 ,47.5522799485345 ,68.9398324425239
40.4111206 ,Left ,45.545010874439 ,47.5373357571149 ,68.9152827058725
40.4304906 ,Left ,45.5649808612269 ,47.5396593124201 ,68.9044139949735
40.4680507 ,Left ,45.5006803340578 ,47.5197404944914 ,68.8982366830109
40.4906483 ,Left ,45.4594479490438 ,47.4894292030316 ,68.8949120216888
40.5281988 ,Left ,45.3950713568931 ,47.4153050508852 ,68.8663808631041
40.5504363 ,Left ,45.3549916116331 ,47.4138343922245 ,68.8480355287066
40.5879077 ,Left ,45.3848489592876 ,47.4585263253896 ,68.824593289233
40.6105987 ,Left ,45.374336779683 ,47.474234333752 ,68.8371870118166
40.6481117 ,Left ,45.3939619697505 ,47.4885757387192 ,68.9016762921808
40.6704261 ,Left ,45.4510253100759 ,47.4661604403546 ,68.9198390486808
40.7081662 ,Left ,45.5584098848928 ,47.4339952244102 ,68.8814188547906
40.731271 ,Left ,45.5493142062516 ,47.4435380200966 ,68.8620149892566
40.7680767 ,Left ,45.4539437933672 ,47.4683115011804 ,68.8574825633588
40.790865 ,Left ,45.4478005516095 ,47.4577073071793 ,68.8510347973885
40.8283703 ,Left ,45.4454953132107 ,47.4210907394028 ,68.8307292796543
40.8506006 ,Left ,45.4432766289064 ,47.3889736469835 ,68.7995845643033
40.8882277 ,Left ,45.2945165617053 ,47.3543642813492 ,68.7764990101991
40.9106765 ,Left ,45.3669835290452 ,47.3502720445201 ,68.7903859393294
40.9480705 ,Left ,45.4997431512352 ,47.399463925062 ,68.7193056339921
40.9706287 ,Left ,45.3990709107488 ,47.456027571947 ,68.6674248821052
41.0084136 ,Left ,45.2436158569543 ,47.4843105893225 ,68.6188740337098
41.0305694 ,Left ,45.2784066854889 ,47.4300613555986 ,68.5883679602574
41.0756103 ,Left ,45.3557733493462 ,47.2975689283722 ,68.5005110692558
41.0980803 ,Left ,45.3634588832872 ,47.2700462375083 ,68.4601130400634
41.1581652 ,Left ,45.2107833328335 ,47.297340219026 ,68.4100251206648
41.1881003 ,Left ,45.1548881209778 ,47.3702544464554 ,68.468206151144
41.2109258 ,Left ,45.1555413465707 ,47.3678269940261 ,68.5201005079362
41.2482297 ,Left ,45.3498132736065 ,47.2992475968253 ,68.5783580685631
41.2704481 ,Left ,45.4373730278996 ,47.2480708786775 ,68.565802698888
41.3004742 ,Left ,45.2784699603595 ,47.2718244488377 ,68.5732533494045
41.3231992 ,Left ,45.168679104724 ,47.3381750193505 ,68.5964899674807
41.3455156 ,Left ,45.0905379491141 ,47.4292991682286 ,68.6128998890442
41.3606355 ,Left ,45.0551782469293 ,47.5157681217364 ,68.6484049187508
41.3832699 ,Left ,45.1006857990833 ,47.5503280750764 ,68.6941831256672
41.4057134 ,Left ,45.1807550504162 ,47.5292250407641 ,68.7451396584524
41.4206539 ,Left ,45.1957829583072 ,47.492314934336 ,68.8112319356621
41.4431934 ,Left ,45.1793009398381 ,47.4582280973713 ,68.8661050283666
41.465735 ,Left ,45.2008892989855 ,47.4305666738968 ,68.8772700717057
41.4808064 ,Left ,45.2036594902119 ,47.3946220951015 ,68.8698516840285
41.5032278 ,Left ,45.2506641074512 ,47.372557415641 ,68.8657260418865
41.5256883 ,Left ,45.341333484843 ,47.3705020931426 ,68.8522349461343
41.5406419 ,Left ,45.3359098409118 ,47.407881475599 ,68.8266718365401
41.5633352 ,Left ,45.2638030429289 ,47.476515032759 ,68.8187729584707
41.5856589 ,Left ,45.2097623130316 ,47.5313184617107 ,68.8149007292561
41.6006683 ,Left ,45.2144667049241 ,47.5407700062244 ,68.798092027919
41.6232887 ,Left ,45.267813894706 ,47.5071496739112 ,68.7671141382705
41.645709 ,Left ,45.3209322317164 ,47.4775020145089 ,68.7260871412985
41.660636 ,Left ,45.3553623599771 ,47.457651576701 ,68.6817420319356
41.68327 ,Left ,45.3444564493397 ,47.4405220895868 ,68.6518946776035
41.7056749 ,Left ,45.3282625995366 ,47.4237028438577 ,68.6135513044875
41.7203784 ,Left ,45.2777262428399 ,47.411429548747 ,68.5616552090244
41.7431388 ,Left ,45.2571989002425 ,47.4127679434823 ,68.5112146061265
41.7656649 ,Left ,45.2915551040586 ,47.4152122867352 ,68.4718074701956
41.7807007 ,Left ,45.3033916627303 ,47.4012037612852 ,68.458745292666
41.8032223 ,Left ,45.2428299346774 ,47.4000626620432 ,68.4788224606434
41.8257227 ,Left ,45.177121490511 ,47.4164253031798 ,68.5013391535245
41.8410264 ,Left ,45.155247667326 ,47.4138657546524 ,68.5220730046166
41.8707229 ,Left ,45.115380082888 ,47.3934668560109 ,68.5384992045342
41.9007016 ,Left ,45.0694205068405 ,47.3856903851344 ,68.5439566577631
41.922964 ,Left ,45.1340423204413 ,47.3821773052421 ,68.5233731992124
41.9378985 ,Left ,45.2548449926899 ,47.3789248240029 ,68.490465677094
41.98321 ,Left ,45.2110582038068 ,47.3725798956741 ,68.4504930025311
42.005725 ,Left ,45.1947437593431 ,47.3687940392325 ,68.4753883099068
42.0281275 ,Left ,45.2810460140027 ,47.3477557012358 ,68.4895809501098
42.0432167 ,Left ,45.3145850308966 ,47.3335590565862 ,68.4984009471767
42.0655883 ,Left ,45.2840736949844 ,47.328245061417 ,68.5046497015108
42.0880999 ,Left ,45.2717347412223 ,47.355112633935 ,68.5296556010332
42.1031697 ,Left ,45.247118749001 ,47.4016913232227 ,68.5529407336957
42.1257424 ,Left ,45.232487684959 ,47.4653651449242 ,68.5707817459192
42.1481238 ,Left ,45.2841361000987 ,47.5105838643463 ,68.5943802170594
42.163154 ,Left ,45.3854172337555 ,47.5340074878828 ,68.614461104513
42.1856377 ,Left ,45.4436543821016 ,47.5451820596753 ,68.632667198835
42.2084195 ,Left ,45.4014575220076 ,47.5516086887286 ,68.6572973557413
42.2233213 ,Left ,45.3511192101998 ,47.5446125176541 ,68.691252746593
42.2456685 ,Left ,45.3670049860254 ,47.5246131694619 ,68.7108074091545
42.2683903 ,Left ,45.385076642143 ,47.4996924184661 ,68.7268071587743
42.2832315 ,Left ,45.3854490710094 ,47.486533062141 ,68.7410351135746
42.3055773 ,Left ,45.3715004898537 ,47.473076431479 ,68.7556963496651
42.3282374 ,Left ,45.3712497817037 ,47.4660791336396 ,68.7572381175311
42.3432495 ,Left ,45.390598650263 ,47.4498435937458 ,68.7452294114916
42.3656485 ,Left ,45.3826932256697 ,47.4277748957894 ,68.732056954952
42.3880824 ,Left ,45.3478494909284 ,47.4097930002231 ,68.7277471206809
42.403222 ,Left ,45.3373660338297 ,47.3832281054785 ,68.7254290868142
42.4330422 ,Left ,45.3622221287456 ,47.3330918315276 ,68.7266408327574
42.4557209 ,Left ,45.3966334005438 ,47.2666365389357 ,68.71727154355
42.4709115 ,Left ,45.401317671374 ,47.1679074202962 ,68.7126569134225
42.4931199 ,Left ,45.2700870885629 ,47.0444670868796 ,68.7181655187813
42.5082987 ,Left ,45.0143505100168 ,46.9443694940457 ,68.7427036447458
42.5232176 ,Left ,44.8380200103246 ,46.8606130259044 ,68.7644706771863
42.5457239 ,Left ,44.8197305100928 ,46.7847944248875 ,68.752675932902
42.5684035 ,Left ,44.8773577192967 ,46.7314978331511 ,68.7434287687523
42.5906997 ,Left ,44.9081024348678 ,46.7223363618851 ,68.7578488322905
42.6056832 ,Left ,44.9177061182303 ,46.7470375542222 ,68.7808232641575
42.6282481 ,Left ,44.9216000259264 ,46.7823357973865 ,68.7978075305295
42.6430993 ,Left ,44.9208161872517 ,46.8223612843502 ,68.8077342070752
42.6656483 ,Left ,44.9412781355321 ,46.8533864869773 ,68.8225706261455
42.6882702 ,Left ,44.9820080852857 ,46.8702107154064 ,68.8294477007939
42.7032607 ,Left ,45.0037610155358 ,46.8757189445717 ,68.8330063416533
42.7271951 ,Left ,44.9868334218211 ,46.8708869623183 ,68.8422846977918
42.748209 ,Left ,44.9967160581067 ,46.8527397209569 ,68.8491529413237
42.7632716 ,Left ,45.0773999228206 ,46.8223449516385 ,68.837011818455
42.7860058 ,Left ,45.1220563189334 ,46.7954305552391 ,68.8176678657531
42.8081732 ,Left ,45.1162626535193 ,46.7917521662744 ,68.8099857453569
42.8231029 ,Left ,45.1210669361034 ,46.807218797343 ,68.8032532631333
42.8456348 ,Left ,45.1265581036975 ,46.8287717934243 ,68.7904363133839
42.8682008 ,Left ,45.1039462664192 ,46.8476259962446 ,68.7790100381097
42.8932875 ,Left ,45.0610440904229 ,46.8531723098076 ,68.765206348061
42.9055163 ,Left ,45.014610692307 ,46.8317673955404 ,68.7488221411876
42.9281292 ,Left ,44.9474145034341 ,46.7996494814521 ,68.7298351453532
42.9505397 ,Left ,44.8106899291747 ,46.7685652195375 ,68.7205110719426
42.9655762 ,Left ,44.6684739660901 ,46.7521303824977 ,68.7284521364909
42.9881182 ,Left ,44.6042221127575 ,46.7233905103997 ,68.739463431052
43.0106747 ,Left ,44.613991416382 ,46.6961722699778 ,68.7510485512459
43.0255946 ,Left ,44.6517891330882 ,46.6854382396633 ,68.7713323988234
43.0482118 ,Left ,44.6941104634261 ,46.6945489082948 ,68.7999116975622
43.0706126 ,Left ,44.7174630997514 ,46.7108701302541 ,68.8313424459056
43.0857092 ,Left ,44.7090953117283 ,46.7368075238989 ,68.8646986175402
43.108298 ,Left ,44.6984853648893 ,46.7589790606536 ,68.8973104944818
43.1308722 ,Left ,44.72122899575 ,46.7712207683801 ,68.9297846328861
43.1457448 ,Left ,44.7660877395347 ,46.780714503479 ,68.9605336979333
43.1682174 ,Left ,44.788737824309 ,46.7856404981812 ,68.9924289212808
43.1909445 ,Left ,44.7697019056017 ,46.7975450692476 ,69.0314749823344
43.20566 ,Left ,44.7632458271805 ,46.8084064660354 ,69.0754659349044
43.2281943 ,Left ,44.785602500857 ,46.8230967367934 ,69.107676942305
43.2504053 ,Left ,44.8175458803967 ,46.8449067580243 ,69.129087316274
43.2654842 ,Left ,44.8637689635141 ,46.8665087273394 ,69.1501082674532
43.2956317 ,Left ,44.911792560228 ,46.8910768249394 ,69.1604562124886
43.3212285 ,Left ,44.9595009609015 ,46.91492517622 ,69.1717433440884
43.3332931 ,Left ,45.0282420816322 ,46.9348986508441 ,69.18156274385
43.3481254 ,Left ,45.0504019404097 ,46.9611152649533 ,69.2092915210088
43.3705893 ,Left ,45.0484055417151 ,46.9758541212843 ,69.2230792927901
43.385643 ,Left ,44.9750889596463 ,46.9802500176147 ,69.2012181553297
43.4106458 ,Left ,44.8445953402227 ,46.9860631585411 ,69.1744730751737
43.4306747 ,Left ,44.7709862038045 ,46.9904173443925 ,69.1316852157305
43.4455391 ,Left ,44.7865320315435 ,46.9909832124362 ,69.0687679490253
43.4680615 ,Left ,44.8319687333488 ,46.9770621254995 ,69.0200963370854
43.4909079 ,Left ,44.8894195681109 ,46.9771353007183 ,68.9704854065842
43.5055331 ,Left ,44.880976192429 ,46.9903558918812 ,68.9293250880054
43.5285666 ,Left ,44.8305130732678 ,47.0152858366797 ,68.9125936273396
43.550665 ,Left ,44.7768360288005 ,47.0457066778459 ,68.9071677758553
43.5658204 ,Left ,44.7847845506299 ,47.0645842544158 ,68.9084229326964
43.5880289 ,Left ,44.7858084874022 ,47.0775975521986 ,68.9005287321141
43.6105863 ,Left ,44.7766882376783 ,47.0771773557641 ,68.8860337128881
43.6257805 ,Left ,44.8039146542 ,47.0741013200099 ,68.8695014555461
43.6481658 ,Left ,44.8534185566279 ,47.0779533426319 ,68.8465441893217
43.6704827 ,Left ,44.9040204961025 ,47.0663031509603 ,68.8248419879806
43.6855639 ,Left ,44.9496428199393 ,47.042745456293 ,68.8000765572022
43.7108175 ,Left ,44.9374062357772 ,47.0266047763357 ,68.7705506326397
43.7307625 ,Left ,44.8691471132442 ,47.0349768699365 ,68.763468245141
43.7456145 ,Left ,44.8224505760023 ,47.0524870670202 ,68.7735948338365
43.7681547 ,Left ,44.7777452301836 ,47.0771561287942 ,68.7747982075995
43.7905431 ,Left ,44.7153330740286 ,47.117539895906 ,68.7875550415574
43.8131723 ,Left ,44.7116663324333 ,47.1478017196827 ,68.8028423711304
43.8282615 ,Left ,44.7931307162744 ,47.1581171006796 ,68.81968306817
43.8508607 ,Left ,44.8604034335682 ,47.1645620495462 ,68.8473381890957
43.872976 ,Left ,44.8652990088622 ,47.1858449169819 ,68.8957909404416
43.8880401 ,Left ,44.8401794884943 ,47.2004527244231 ,68.9659537978102
43.910804 ,Left ,44.790656300017 ,47.2049740979641 ,69.0413293778577
43.9331717 ,Left ,44.7142334797071 ,47.199999032903 ,69.121674040799
43.9479707 ,Left ,44.6333774499727 ,47.207069952217 ,69.1933685083259
43.9705122 ,Left ,44.5602583957847 ,47.2185786363333 ,69.2413146673857
43.9930826 ,Left ,44.4831980184914 ,47.2255210686173 ,69.2460252791355
44.0084406 ,Left ,44.4821727354234 ,47.2591610424548 ,69.2145276407569
44.0307478 ,Left ,44.5516397792565 ,47.2877710966634 ,69.1581842773861
44.0531394 ,Left ,44.6594632696338 ,47.2889735928454 ,69.0863792297359
44.0681477 ,Left ,44.7127825416624 ,47.2870906698948 ,69.0266624781265
44.0906917 ,Left ,44.6598080067528 ,47.2863258907012 ,68.9803846865487
44.1132336 ,Left ,44.604636846842 ,47.2779693388398 ,68.9436382995201
44.1281188 ,Left ,44.5915787162907 ,47.2511001765048 ,68.9049552839861
44.1525096 ,Left ,44.62273147257 ,47.2201323224183 ,68.8560569165811
44.1730418 ,Left ,44.6927110856307 ,47.1871026081423 ,68.8073249429923
44.1881934 ,Left ,44.7749400143115 ,47.1588387453224 ,68.759576589942
44.2105985 ,Left ,44.8246191451667 ,47.1344058104585 ,68.7220329394154
44.2331082 ,Left ,44.8610941047876 ,47.0947992369011 ,68.7119327753385
44.2480433 ,Left ,44.8945437667828 ,47.0518372830826 ,68.717086322256
44.2705999 ,Left ,44.9192605389123 ,47.0096378043721 ,68.7214932405741
44.2930467 ,Left ,44.9036826153076 ,46.980330434806 ,68.735950503088
44.3081023 ,Left ,44.8615364223644 ,46.9784270862598 ,68.7519604390549
44.3308974 ,Left ,44.8620414112678 ,46.9648244098936 ,68.7618707651203
44.360705 ,Left ,44.8826410743795 ,46.9505319542761 ,68.7512649483501
44.3757905 ,Left ,44.9030628345922 ,46.933732432728 ,68.7230173607636
44.3981408 ,Left ,44.9960831975458 ,46.8930530441916 ,68.6850080858386
44.4131243 ,Left ,45.0220689886586 ,46.8603068442901 ,68.6447097510686
44.4281566 ,Left ,44.9508893966965 ,46.8608178718722 ,68.6611483677964
44.450503 ,Left ,44.8973593622696 ,46.8784688064361 ,68.7058022559917
44.4733122 ,Left ,44.8765685949887 ,46.887434913305 ,68.7340671019219
44.488207 ,Left ,44.858312997478 ,46.8979925944789 ,68.765885395995
44.5106706 ,Left ,44.8794838193621 ,46.9183856795022 ,68.7994804621154
44.5332296 ,Left ,44.9266378644573 ,46.9439125093967 ,68.8383699644143
44.5480502 ,Left ,44.9252704849254 ,46.9981142447087 ,68.8641620149119
44.570651 ,Left ,44.8793414650373 ,47.0640539829208 ,68.8823957974806
44.5932498 ,Left ,44.8981814383266 ,47.1078056708461 ,68.8900986965183
44.6082582 ,Left ,44.9809945914021 ,47.1413921810439 ,68.8851609127308
44.6306398 ,Left ,45.0386694897216 ,47.1716434930657 ,68.8770030976521
44.6531214 ,Left ,45.0306842123301 ,47.1987495928709 ,68.8798790017992
44.6679605 ,Left ,44.9816808530934 ,47.2299948299723 ,68.8896682435281
44.6906368 ,Left ,44.9729787997178 ,47.2586829712059 ,68.9016612513946
44.7205839 ,Left ,45.0086585617029 ,47.2642331139334 ,68.9078666658884
44.7356626 ,Left ,45.0360810007119 ,47.2699890732679 ,68.9085068988588
44.7595966 ,Left ,45.0233911050908 ,47.2765958206964 ,68.9117339986476
44.7733708 ,Left ,44.9953122872157 ,47.2867327068528 ,68.9220401848817
44.7956272 ,Left ,44.9705152170902 ,47.296801709155 ,68.9268375411044
44.8107056 ,Left ,44.969942309649 ,47.2979120514898 ,68.933785971152
44.8331808 ,Left ,44.9748740949466 ,47.2906160806415 ,68.9440134486354
44.8555537 ,Left ,44.9805710328133 ,47.2876234607236 ,68.9530865712415
44.8704079 ,Left ,44.9793778947149 ,47.2847339841993 ,68.9608039389715
44.8936418 ,Left ,44.9645280706586 ,47.2767035223947 ,68.9724189763027
44.9155505 ,Left ,44.9472703757916 ,47.2465530622141 ,68.9919698893601
44.9305994 ,Left ,44.9524560590666 ,47.2189309664714 ,69.0133910815735
44.9530242 ,Left ,44.965593301015 ,47.1965813984418 ,69.0253124321979
44.9764345 ,Left ,44.9354419828735 ,47.1758841845488 ,69.0212519155092
44.9905947 ,Left ,44.8820135196446 ,47.1703013683278 ,69.021501205562
45.0131244 ,Left ,44.8803733884747 ,47.1713701301696 ,69.0216186437163
45.0355519 ,Left ,44.9100851903621 ,47.1736113437006 ,69.0220744559473
45.0506393 ,Left ,44.9311854752618 ,47.1682848900802 ,69.016889075877
45.0732272 ,Left ,44.9326669351527 ,47.1638379214429 ,69.0056834725616
45.0966239 ,Left ,44.9271042289286 ,47.1591915525764 ,68.9935545887965
45.1106237 ,Left ,44.927167276121 ,47.1456401118535 ,68.9825438030256
45.1331706 ,Left ,44.9326423349926 ,47.1341580044366 ,68.974371800501
45.1557179 ,Left ,44.9467775261671 ,47.1197635580567 ,68.9723073558008
45.1707493 ,Left ,44.9566885223002 ,47.1036670612866 ,68.9738576430521
45.1930967 ,Left ,44.9761891926119 ,47.088480694873 ,68.9781373322092
45.2307048 ,Left ,45.0040470912758 ,47.0733646181304 ,68.9876029695852
45.2382042 ,Left ,45.0475792968357 ,47.0605564727153 ,69.0103121234647
45.2606417 ,Left ,45.1170850091588 ,47.0449908446287 ,69.035549863458
45.2756419 ,Left ,45.1826643180239 ,47.0345855439365 ,69.0628160227026
45.2833637 ,Left ,45.2376751743218 ,47.0451502275353 ,69.0854393769027
45.3057202 ,Left ,45.3047784424361 ,47.0599991545955 ,69.1094071214078
45.3280863 ,Left ,45.3355481516119 ,47.0724001900393 ,69.1291915114618
45.3431784 ,Left ,45.321000309219 ,47.0911397049882 ,69.1494682564356
45.3656655 ,Left ,45.3321149068397 ,47.1132238085029 ,69.159466733143
45.3881681 ,Left ,45.3667339036266 ,47.1262971506172 ,69.1618933887278
45.4031198 ,Left ,34.02573861416752 ,35.34603823423598 ,51.87290289560393
45.4255646 ,Left ,22.6755669166306 ,23.568966255317 ,34.5871624927473
45.463036 ,Left ,11.329014676708425 ,11.7874187856047 ,17.30058090650335
51.3506617 ,Left ,45.5074562257033 ,47.4107752450847 ,68.8263803896007
51.3657861 ,Left ,45.5679889945244 ,47.389688314904 ,68.829442355872
51.4031892 ,Left ,45.5964238794637 ,47.3824724007287 ,68.8540552924959
51.4181751 ,Left ,45.6081684499685 ,47.4091502216807 ,68.863127301499
51.4404623 ,Left ,45.6447272594123 ,47.447532850272 ,68.8706585815758
51.4629902 ,Left ,45.6715578820741 ,47.4815486695366 ,68.8901405746474
51.4780658 ,Left ,45.6594727384089 ,47.5136256429104 ,68.9241753178857
51.5008273 ,Left ,45.6207946838148 ,47.5305538075564 ,68.9556511513776
51.522957 ,Left ,45.5799326257594 ,47.5346199350237 ,68.9902438774446
51.5381664 ,Left ,45.5566669997734 ,47.5220693730638 ,69.0200180892975
51.5607688 ,Left ,45.5416877908263 ,47.5009243275705 ,69.0506035486271
51.5981855 ,Left ,45.5691386285269 ,47.4639191368777 ,69.0860121225284
51.6287736 ,Left ,45.5916033685735 ,47.4543736323914 ,69.0957361206477
51.680442 ,Left ,45.5989146760554 ,47.485168773001 ,69.1217606472769
51.7182458 ,Left ,45.5769368960675 ,47.5017151377866 ,69.1363209577912
51.7405784 ,Left ,45.5785920928926 ,47.4984943510642 ,69.1414979083061
51.7782698 ,Left ,45.5973605558266 ,47.4805154966378 ,69.139511173043
51.8026036 ,Left ,45.5891136280454 ,47.4716411039015 ,69.1378480985996
51.8531777 ,Left ,45.5323185192503 ,47.4703424220063 ,69.1454173940351
51.8756369 ,Left ,45.5023130773934 ,47.4807615426193 ,69.1415685008507
51.9282106 ,Left ,45.2659801809222 ,47.5891958732981 ,69.1737897431946
51.958183 ,Left ,45.1727891866616 ,47.6906851433399 ,69.1462783474776
51.9806412 ,Left ,45.2155269900736 ,47.6857488638922 ,69.0994240192523
52.0184698 ,Left ,45.3030249979648 ,47.642713269418 ,68.9981317521361
52.0405784 ,Left ,45.2879286155441 ,47.6314080216985 ,68.9720487011845
52.0780814 ,Left ,45.307043148572 ,47.6176799205977 ,68.9173431549459
52.100473 ,Left ,45.2771393721996 ,47.6108593346078 ,68.8859992011647
52.1382503 ,Left ,45.234783325851 ,47.6089066425588 ,68.8517060076917
52.168324 ,Left ,45.2036759581169 ,47.6028734799521 ,68.8439894768443
52.2132118 ,Left ,45.2495384511774 ,47.5808811060143 ,68.8332073010398
52.2284795 ,Left ,45.3162604424857 ,47.5726237399022 ,68.8373808486767
52.258094 ,Left ,45.3777188710832 ,47.5701028507512 ,68.8674768907281
52.2807615 ,Left ,45.3200679695413 ,47.6009007293895 ,68.8854806296256
52.3182099 ,Left ,45.2060085063805 ,47.6838632154973 ,68.9029054445711
52.3403962 ,Left ,45.1287170022782 ,47.7266768190283 ,68.9313854574416
52.378236 ,Left ,45.2649958638607 ,47.7284523560899 ,68.9970586163984
52.4005767 ,Left ,45.3657954622647 ,47.7097183486148 ,69.0381458738613
52.4381727 ,Left ,45.2805660643532 ,47.7056382259748 ,69.1860963010028
52.4619672 ,Left ,45.253345843009 ,47.6917322912976 ,69.2458214600705
52.4987262 ,Left ,45.173967797418 ,47.6185890349062 ,69.298474334069
52.5204339 ,Left ,45.157866061051 ,47.577488983265 ,69.3072867227814
52.5581781 ,Left ,45.1599191591911 ,47.4957836092724 ,69.2310249259894
52.580667 ,Left ,45.0858208970983 ,47.4765606654197 ,69.1870084515837
52.6181708 ,Left ,45.0420700622665 ,47.4181357568088 ,69.0767332314263
52.6406095 ,Left ,44.993967741184 ,47.3976970163965 ,69.0308809101754
52.6781083 ,Left ,44.9610832769678 ,47.3711755446224 ,68.9838657876377
52.700634 ,Left ,44.927378135166 ,47.3580903550712 ,68.9646966042586
52.7454616 ,Left ,44.868387718314 ,47.3722205751529 ,68.9278601165451
52.7682026 ,Left ,44.9075056757096 ,47.3976304352034 ,68.9123728548588
52.7982608 ,Left ,44.9818945883835 ,47.4507208140186 ,68.9109635016162
52.8206369 ,Left ,44.9207523725792 ,47.4994176049897 ,68.9354037614305
52.8432372 ,Left ,44.7925038960178 ,47.5490413254487 ,68.9559145277387
52.8805495 ,Left ,44.9122580624417 ,47.5018967819449 ,68.8633543542118
52.895694 ,Left ,45.0028665324172 ,47.4500892354286 ,68.8079972367339
52.9180969 ,Left ,45.0177978369584 ,47.4335509540908 ,68.7687628012929
52.9331629 ,Left ,44.9873135822226 ,47.4365459553772 ,68.7407173496546
52.9556048 ,Left ,44.9068313242101 ,47.4558733495611 ,68.7374253627075
52.9781687 ,Left ,44.8956099773001 ,47.4610527598374 ,68.7409135477269
52.9931115 ,Left ,44.987996176524 ,47.4666259410316 ,68.7577944862572
53.015677 ,Left ,45.1032912044208 ,47.4707873671795 ,68.7735779898594
53.0381489 ,Left ,45.1020261528731 ,47.5011723643576 ,68.8026957772609
