timestamp,event,roll,pitch,yaw
0.0019863 ,Left ,49.3705330007709 ,51.2394725868582 ,85.6273523890832
0.0241772 ,Left ,49.3597194371763 ,51.1715059454235 ,85.614414031469
0.039019 ,Left ,49.3019600404574 ,51.1152483115314 ,85.5953297207246
0.0616916 ,Left ,49.2719655707386 ,51.0637354483369 ,85.57158351001
0.0840998 ,Left ,49.2670281566034 ,51.0135388642087 ,85.541841540529
0.0990883 ,Left ,49.2700540428043 ,50.977966266957 ,85.5090147352568
0.1216375 ,Left ,49.2609618772542 ,50.9537218961659 ,85.4728044533534
0.136783 ,Left ,49.2407511671128 ,50.9348601516404 ,85.440910499624
0.1591248 ,Left ,49.2128909190283 ,50.9186520098887 ,85.4111337812716
0.1823003 ,Left ,49.160629400826 ,50.9032973581996 ,85.3779301828131
0.1993624 ,Left ,49.1160930363038 ,50.8895031672586 ,85.3427964254389
0.2191959 ,Left ,49.0949317270796 ,50.8761953715044 ,85.3002264679508
0.2416086 ,Left ,49.0788792840194 ,50.8653844120996 ,85.2556401737592
0.2640317 ,Left ,49.0488517940301 ,50.8605132340161 ,85.2077329625884
0.2790373 ,Left ,49.0118612590255 ,50.8476144237476 ,85.1566754800816
0.3017457 ,Left ,48.9766424673981 ,50.8354792138425 ,85.1057408452401
0.317897 ,Left ,48.9510170281465 ,50.8258938166957 ,85.0548919379794
0.3390381 ,Left ,48.9230118861406 ,50.8216481962703 ,85.0104386260636
0.3616406 ,Left ,48.8950323539911 ,50.8263607007902 ,84.9758402234962
0.3764896 ,Left ,48.9135065565865 ,50.8264889396793 ,84.9498831281686
0.3997213 ,Left ,48.957366658229 ,50.8200322968964 ,84.9273095879476
0.4216194 ,Left ,48.9960202919688 ,50.8154324503153 ,84.9080672758909
0.4441431 ,Left ,49.0236388169964 ,50.8119304858463 ,84.8984778859134
0.4592111 ,Left ,49.0495813545113 ,50.8120343782374 ,84.8931812751108
0.481548 ,Left ,49.082497287007 ,50.8201687260188 ,84.8921634007171
0.5042731 ,Left ,49.1234656116602 ,50.8259230266156 ,84.8965534793497
0.5207364 ,Left ,49.1558038251209 ,50.8273923129313 ,84.9065839848227
0.5417958 ,Left ,49.1811901532173 ,50.8295804630973 ,84.9143097811744
0.5639872 ,Left ,49.1901922083021 ,50.8299043885484 ,84.9239913917329
0.580798 ,Left ,49.190416882674 ,50.834559311341 ,84.9359046635669
0.601714 ,Left ,49.1987420720269 ,50.828019617457 ,84.9499372599216
0.6242344 ,Left ,49.2069730893845 ,50.8170853713135 ,84.9619656570117
0.639237 ,Left ,49.2004272077128 ,50.8095286221431 ,84.9749194217306
0.661678 ,Left ,49.1956517200044 ,50.8029474271351 ,84.9911907821563
0.6840816 ,Left ,49.2014127843776 ,50.7929856000077 ,85.008554218664
0.7000759 ,Left ,49.2132160931927 ,50.7927049294804 ,85.0292117549138
0.7224635 ,Left ,49.2330567756972 ,50.7943998792812 ,85.0585714550314
0.7441089 ,Left ,49.267644547645 ,50.796911688948 ,85.0847483771914
0.7589081 ,Left ,49.2943682954709 ,50.8020117115719 ,85.1131921054905
0.7816721 ,Left ,49.3158855882357 ,50.8087303796705 ,85.13936035296
0.8040494 ,Left ,49.3313414105486 ,50.8101862861845 ,85.1655176333718
0.8190905 ,Left ,49.3484106229854 ,50.8167482796769 ,85.1873728713922
0.841748 ,Left ,49.3620002423643 ,50.8258947666117 ,85.209223511149
0.8640579 ,Left ,49.376404476904 ,50.83762123077 ,85.2300712419464
0.8791655 ,Left ,49.4038880879224 ,50.849258969805 ,85.2488354372869
0.9016802 ,Left ,49.4242993505607 ,50.8573785223844 ,85.2654606800345
0.9240876 ,Left ,49.4352095428741 ,50.8628934141195 ,85.283024724501
0.9392173 ,Left ,49.4348124081488 ,50.8692926711115 ,85.3004575720106
0.9617367 ,Left ,49.4403917782688 ,50.8721200459705 ,85.3136075988044
0.9840993 ,Left ,49.4553624994784 ,50.8730931500201 ,85.3214760783983
0.999009 ,Left ,49.4685247315842 ,50.8644304533232 ,85.3259720306902
1.0215792 ,Left ,49.4685138149918 ,50.855733218836 ,85.325929645055
1.0517522 ,Left ,49.4536542425085 ,50.8461437329645 ,85.3223856786265
1.0665984 ,Left ,49.4248149378546 ,50.8383234840935 ,85.3176440126356
1.089156 ,Left ,49.3890671202844 ,50.8314569319171 ,85.3161709692694
1.1042832 ,Left ,49.3639017382022 ,50.8297374386579 ,85.3147012869122
1.1193336 ,Left ,49.356118134127 ,50.828095848759 ,85.3179277807026
1.1415586 ,Left ,49.356118134127 ,50.828095848759 ,85.3179277807026
1.1717482 ,Left ,49.3624367841055 ,50.8291225983837 ,85.3267050758832
1.1866189 ,Left ,49.3730448128138 ,50.8301193099503 ,85.3344773725312
1.2092322 ,Left ,49.3730448128138 ,50.8301193099503 ,85.3344773725312
1.2242471 ,Left ,49.368800044385 ,50.8258725623248 ,85.3387876479238
1.2392441 ,Left ,49.3627067123728 ,50.8250244072635 ,85.3387257169679
1.2618034 ,Left ,49.3644485735581 ,50.8258878797204 ,85.3387437298746
1.2841857 ,Left ,49.3644485735581 ,50.8258878797204 ,85.3387437298746
1.2989325 ,Left ,49.3765165484561 ,50.8231507088857 ,85.3345057993918
1.3216387 ,Left ,49.3849899762001 ,50.8186047223228 ,85.3258731970385
1.3440713 ,Left ,49.3882913530424 ,50.8115421067114 ,85.3204909833262
1.3589611 ,Left ,49.3854540884878 ,50.8035552103726 ,85.311743572534
1.3816195 ,Left ,49.3800108473914 ,50.7964428305514 ,85.3029768714926
1.4040925 ,Left ,49.3832134234434 ,50.7892972480068 ,85.2932478213974
1.4265624 ,Left ,49.383870273309 ,50.7743449310477 ,85.2845451245852
1.4417051 ,Left ,49.3757862602458 ,50.7636821345288 ,85.2724697510096
1.4641321 ,Left ,49.3632906815209 ,50.7487162610224 ,85.2615913854672
1.4865964 ,Left ,49.3560328625067 ,50.7406345121783 ,85.2485041270105
1.5017337 ,Left ,49.3461273791709 ,50.7333436519428 ,85.2321043798122
1.5242648 ,Left ,49.3361614673753 ,50.7303744800036 ,85.2146656574485
1.546603 ,Left ,49.3270323435255 ,50.725582050567 ,85.1939452081485
1.5617362 ,Left ,49.3196715749289 ,50.7260733626533 ,85.1765354529974
1.5843007 ,Left ,49.3087595796429 ,50.7291400726317 ,85.1580724714283
1.606585 ,Left ,49.2997561834351 ,50.7331228594844 ,85.1427272562338
1.6217223 ,Left ,49.2863388171528 ,50.7370656880381 ,85.1263298023435
1.6440405 ,Left ,49.2867903744399 ,50.7392884827667 ,85.1089858358993
1.6667227 ,Left ,49.2863578990039 ,50.7432472892342 ,85.0916390052187
1.6814349 ,Left ,49.2815694437916 ,50.7471854860996 ,85.0742773122185
1.7042434 ,Left ,49.2681343857373 ,50.7510920326859 ,85.057903162531
1.7266488 ,Left ,49.2469521378691 ,50.7489373009826 ,85.0448306519426
1.7414772 ,Left ,49.2292008561964 ,50.7528720027007 ,85.0317590735865
1.7640618 ,Left ,49.2245251974821 ,50.7612448976132 ,85.0197451445222
1.7867722 ,Left ,49.2242615665189 ,50.7740958562527 ,85.0120543691141
1.8014862 ,Left ,49.2110476595152 ,50.7913970365702 ,85.0119110701405
1.8242433 ,Left ,49.197936780828 ,50.8043732678028 ,85.0128057204955
1.8465249 ,Left ,49.1979236131643 ,50.8130887395494 ,85.0137847369994
1.8692185 ,Left ,49.1979236131643 ,50.8130887395494 ,85.0137847369994
1.891537 ,Left ,49.1996567095255 ,50.8139695139326 ,85.0137897867582
1.9142424 ,Left ,49.2055640636694 ,50.8147503157417 ,85.0084751361077
1.9293703 ,Left ,49.2054521172942 ,50.8146426229181 ,85.0041523509915
1.9442524 ,Left ,49.2002082816357 ,50.8119111321818 ,85.0008326287121
1.9667328 ,Left ,49.2002082816357 ,50.8119111321818 ,85.0008326287121
1.9892866 ,Left ,49.2182857011999 ,50.8145202069754 ,84.9955802683333
2.0116567 ,Left ,49.2422258075477 ,50.8222769139093 ,84.9850259166879
2.0342742 ,Left ,49.26966327856 ,50.8361186468772 ,84.9732483076689
2.0492393 ,Left ,49.2796148655916 ,50.8498214828754 ,84.9603565860139
2.0641649 ,Left ,49.2748853200948 ,50.8626334613648 ,84.9516721260971
2.0867865 ,Left ,49.2737760809306 ,50.8685325100369 ,84.9440393214086
2.101418 ,Left ,49.2847963166083 ,50.8675541959842 ,84.9344968746895
2.1240233 ,Left ,49.3011782485813 ,50.8605589540031 ,84.9260202436574
2.154226 ,Left ,49.3150580459612 ,50.850082968097 ,84.9185313507056
2.1696726 ,Left ,49.3167621235696 ,50.8422464670177 ,84.9165273579084
2.1916256 ,Left ,49.3046522373248 ,50.831614502153 ,84.9131223278781
2.2065377 ,Left ,49.2977810366732 ,50.8281480945222 ,84.916371032352
2.2216027 ,Left ,49.304858304975 ,50.8186507921636 ,84.9164366981261
2.2442547 ,Left ,49.3040227976381 ,50.8116076478828 ,84.9131347489636
2.2666089 ,Left ,49.3066440586901 ,50.8107636876207 ,84.9131560096261
2.2817804 ,Left ,49.3066440586901 ,50.8107636876207 ,84.9131560096261
2.3041054 ,Left ,49.3117710006723 ,50.8134083732109 ,84.912185012081
2.3267696 ,Left ,49.3411739655265 ,50.8196967456298 ,84.9081207346431
2.3490092 ,Left ,49.3888597698242 ,50.8200808604326 ,84.903257803283
2.3639764 ,Left ,49.4173578274519 ,50.8237635186119 ,84.8982505149337
2.386536 ,Left ,49.4241699102086 ,50.8315924161919 ,84.8950478906338
2.4091845 ,Left ,49.4335403636153 ,50.8429895798162 ,84.8941903332378
2.4240712 ,Left ,49.43526991606 ,50.8438774464651 ,84.8942145417447
2.4472408 ,Left ,49.4237158538521 ,50.8400559692688 ,84.8821453961478
2.4690974 ,Left ,49.4086984068033 ,50.8345105080205 ,84.8723389011067
2.484236 ,Left ,49.4093621553281 ,50.8326223836335 ,84.8637299627079
2.5066467 ,Left ,49.4161061030732 ,50.8316756541505 ,84.8551931912869
2.5291882 ,Left ,49.4019392050135 ,50.8330293131658 ,84.8441338530793
2.5443402 ,Left ,49.3964639948755 ,50.8345437560239 ,84.835472805767
2.5666246 ,Left ,49.4022611482169 ,50.8308999152561 ,84.8226216385965
2.5891789 ,Left ,49.4018031299816 ,50.8305793135043 ,84.8054169441855
2.6055633 ,Left ,49.3995659920987 ,50.8292940600891 ,84.7848980857561
2.6265468 ,Left ,49.4041818257698 ,50.8272200211129 ,84.7624727697867
2.649285 ,Left ,49.4001223306493 ,50.8206016425021 ,84.7366623698886
2.6641315 ,Left ,49.3833017755497 ,50.8050923052337 ,84.7127102607565
2.6865456 ,Left ,49.3612606849666 ,50.7869143145167 ,84.6900813491556
2.7091151 ,Left ,49.3271976357269 ,50.7623440856855 ,84.665125553841
2.7242169 ,Left ,49.2759626265657 ,50.7331559783442 ,84.6444984901745
2.7466274 ,Left ,49.1949856901302 ,50.6996357139427 ,84.6497213218175
2.7690217 ,Left ,49.1459045685323 ,50.6612033049544 ,84.6767288110485
2.7842328 ,Left ,49.1548254216505 ,50.5875063107263 ,84.7121195714568
2.8065774 ,Left ,49.1502022097109 ,50.582547753903 ,84.6917470915115
2.8292112 ,Left ,49.0579807714074 ,50.6286831638249 ,84.6869156017368
2.8441225 ,Left ,49.0065282256469 ,50.7045182384558 ,84.6643493800527
2.8667391 ,Left ,49.0259237849499 ,50.7686985303013 ,84.6184100220681
2.889206 ,Left ,49.0578022876177 ,50.8043542707992 ,84.5677264182129
2.9042447 ,Left ,49.0814394060352 ,50.813825488509 ,84.5164444341608
2.9190838 ,Left ,49.093398771545 ,50.7949660914043 ,84.4545974397411
2.9417331 ,Left ,49.0874254855977 ,50.7689237386403 ,84.3994837079516
2.956745 ,Left ,49.0791917042476 ,50.7349064155071 ,84.3422226650382
2.986695 ,Left ,49.0232502365937 ,50.6949874361661 ,84.281071401194
3.00917 ,Left ,48.9778603064815 ,50.6363269158451 ,84.2289655830558
3.0239573 ,Left ,48.9738990686278 ,50.5665759301378 ,84.1728224321684
3.0391878 ,Left ,48.9763424956029 ,50.478607622756 ,84.1397150303969
3.0617864 ,Left ,48.9594756723202 ,50.4219334761135 ,84.0998604192143
3.0767079 ,Left ,48.9542417668357 ,50.4093826366029 ,84.0674369727555
3.0991136 ,Left ,48.9275463568597 ,50.4454922662912 ,84.05716478231
3.1214112 ,Left ,48.9424260887308 ,50.5017915783067 ,84.0323773732808
3.1366064 ,Left ,48.9394667827438 ,50.5567841642082 ,83.9878534505698
3.1590813 ,Left ,48.9014375662487 ,50.6194996978186 ,83.9562289435824
3.1816311 ,Left ,48.8610646339377 ,50.6589108488469 ,83.9343553903377
3.197815 ,Left ,48.8316687549109 ,50.6867704248511 ,83.9191581018557
3.2196312 ,Left ,48.8630170982809 ,50.6523352451804 ,83.8934345787361
3.2415415 ,Left ,48.797498321865 ,50.6336135511005 ,83.8846580670904
3.2565927 ,Left ,48.7300405381342 ,50.6416557931293 ,83.9174056999741
3.2792677 ,Left ,48.7524517071856 ,50.6638983470137 ,83.9516673003171
3.3015137 ,Left ,48.888759550963 ,50.6747321153438 ,83.9571929000301
3.3167396 ,Left ,49.0145790175421 ,50.664159330827 ,83.9603447496262
3.3391363 ,Left ,49.0413481098081 ,50.6324786761007 ,83.97139616518
3.3615468 ,Left ,48.9864069589117 ,50.595697167749 ,83.9774250130838
3.383909 ,Left ,48.9207809620859 ,50.5618646455522 ,83.9795588642477
3.406707 ,Left ,48.8794409418281 ,50.5326153298602 ,83.9857536408883
3.4365859 ,Left ,49.0201263556315 ,50.4641761944798 ,84.0159030222172
3.4590624 ,Left ,49.1221999739536 ,50.4161928230919 ,84.0278803155705
3.4816308 ,Left ,49.1619176537561 ,50.3803077926162 ,84.0280637068229
3.496572 ,Left ,49.1442198315608 ,50.363876815676 ,84.0243254048592
3.5192118 ,Left ,49.1200056848758 ,50.359399514504 ,84.0213985213056
3.5566692 ,Left ,49.124849879421 ,50.3616149138958 ,84.0002914871612
3.5789902 ,Left ,49.138667777707 ,50.3600703724755 ,83.9875587693755
3.6165634 ,Left ,49.1297262004805 ,50.3637923648852 ,83.976825139677
3.6390643 ,Left ,49.1084113503038 ,50.3743377629504 ,83.9801743313328
3.6839587 ,Left ,49.1263338174268 ,50.3866566123432 ,83.9914353591632
3.7365849 ,Left ,49.1832161003433 ,50.4094833440647 ,84.0147978111897
3.7590847 ,Left ,49.1818390570657 ,50.4243966535608 ,84.0220816550993
3.7967724 ,Left ,49.1614945379487 ,50.4424623255143 ,84.0439282137139
3.8191059 ,Left ,49.1682945871218 ,50.4508375853321 ,84.0554551217808
3.8564862 ,Left ,49.1989368466576 ,50.4523586261326 ,84.0711220094731
3.8790158 ,Left ,49.203222037289 ,50.4571189340791 ,84.081818356391
3.9167409 ,Left ,49.1899134258619 ,50.4455754232205 ,84.09141073761
3.9471408 ,Left ,49.1797390639865 ,50.4401021572547 ,84.0957768664279
3.999057 ,Left ,49.157989423396 ,50.4091838313436 ,84.1409428302771
4.0365745 ,Left ,49.2199852608832 ,50.4100238907566 ,84.1596410298196
4.0592051 ,Left ,49.2201701829043 ,50.4543693672747 ,84.1590579768164
4.0965688 ,Left ,49.1745838676299 ,50.6352499461287 ,84.1492642092067
4.119048 ,Left ,49.2541178163268 ,50.6672235006872 ,84.1363452622868
4.1567214 ,Left ,49.2704015612777 ,50.6802527311752 ,84.1100774545163
4.1790114 ,Left ,49.1983848052459 ,50.6894733656515 ,84.0925544248146
4.2240349 ,Left ,49.1013364577524 ,50.7267719315258 ,84.0556910922831
4.2466511 ,Left ,49.1351990317141 ,50.740618249158 ,84.0387322927529
4.2767538 ,Left ,49.2453478530919 ,50.7383169802165 ,83.9866681791262
4.2990283 ,Left ,49.2324285083372 ,50.7352386743178 ,83.9506848626145
4.3365705 ,Left ,49.1595407256751 ,50.724994945995 ,83.8680565830835
4.3590066 ,Left ,49.1503375470104 ,50.7148725915654 ,83.8280970491378
4.3967548 ,Left ,49.1736647386177 ,50.6799627763446 ,83.7484139684763
4.4193691 ,Left ,49.1623811309188 ,50.6729771049531 ,83.6993672843289
4.4566835 ,Left ,49.1035760437123 ,50.6763495758896 ,83.6066940231227
4.4791869 ,Left ,49.0854665756512 ,50.6745362829805 ,83.5744451959871
4.5166467 ,Left ,49.0489536424465 ,50.6529179612005 ,83.5244405153536
4.5390769 ,Left ,49.0284539649175 ,50.6410401019735 ,83.5131498069744
4.5839443 ,Left ,49.0073150522718 ,50.5904710537107 ,83.4909152429676
4.606449 ,Left ,48.9964984719542 ,50.54598444339 ,83.4793194346219
4.6443394 ,Left ,48.9277440547868 ,50.4348501769642 ,83.4716551541329
4.66657 ,Left ,48.8870178930995 ,50.3740288961312 ,83.4903049256526
4.7190266 ,Left ,48.6899031488001 ,50.3254069455019 ,83.4590929575838
4.7415402 ,Left ,48.6781296945956 ,50.4080121152465 ,83.4502255816914
4.771577 ,Left ,48.8070081377484 ,50.4947240870375 ,83.4336131974931
4.7941406 ,Left ,48.8527253122567 ,50.5320550833029 ,83.431193251244
4.8166719 ,Left ,48.8708980303191 ,50.5625191392919 ,83.4261778108842
4.8316566 ,Left ,48.8057661949461 ,50.6011988845128 ,83.4172604756749
4.8540908 ,Left ,48.6975978229141 ,50.6333171043033 ,83.4149569978207
4.8689104 ,Left ,48.6125674371634 ,50.6562534635646 ,83.4117691995127
4.8914873 ,Left ,48.5710240955559 ,50.666274623695 ,83.4163576278728
4.9139918 ,Left ,48.5191127177391 ,50.6687112069161 ,83.4387608851605
4.9289079 ,Left ,48.4865507095779 ,50.646970026351 ,83.4781309896705
4.9514764 ,Left ,48.3984585681272 ,50.606345624995 ,83.494690075576
4.9742129 ,Left ,48.4390913546659 ,50.5349476806369 ,83.5406807682893
4.9965526 ,Left ,48.5430523903248 ,50.4815490251527 ,83.5869078980345
5.0117396 ,Left ,48.5830793131548 ,50.5385849273892 ,83.6097898792323
5.0415224 ,Left ,48.673093123184 ,50.6102838047726 ,83.6325769751475
5.0645406 ,Left ,48.7818409247006 ,50.6567038565016 ,83.6579661425622
5.079049 ,Left ,48.8425135086159 ,50.6891597840945 ,83.6790203932484
5.1092305 ,Left ,48.8558795953441 ,50.7571338073123 ,83.6869790863548
5.131567 ,Left ,48.8612643416266 ,50.8008690524009 ,83.7104043321726
5.1541795 ,Left ,48.8903443653238 ,50.8358165635817 ,83.7506242838494
5.1767401 ,Left ,48.944486505383 ,50.8580378338929 ,83.7959035291833
5.1917372 ,Left ,49.0220033822572 ,50.8663274484765 ,83.841522957764
5.2140877 ,Left ,49.076861937501 ,50.8596719875238 ,83.8924946612817
5.2365102 ,Left ,49.1057786574509 ,50.8519440085198 ,83.9486095153985
5.2519941 ,Left ,49.1141367174559 ,50.8419137411735 ,84.0164620704989
5.2742165 ,Left ,49.124338515036 ,50.8329244637477 ,84.0895629840251
5.2966043 ,Left ,49.1503453356004 ,50.8237509323119 ,84.170376929125
5.3191627 ,Left ,49.2011407300598 ,50.8211834566158 ,84.2462706376359
5.3415785 ,Left ,49.2437887098512 ,50.8205081961336 ,84.3114692704209
5.3640164 ,Left ,49.256409355941 ,50.8256375769482 ,84.3681117605523
5.3791641 ,Left ,49.2576077850772 ,50.8311487974413 ,84.4181640642273
5.3941744 ,Left ,49.2655711900798 ,50.8357609916875 ,84.4598165724214
5.4166386 ,Left ,49.2646082361782 ,50.8399626356807 ,84.4929276953531
5.4315187 ,Left ,49.2484968605483 ,50.8514850410495 ,84.5183812868611
5.4541416 ,Left ,49.2548841525095 ,50.8616630047832 ,84.5387830382658
5.484299 ,Left ,49.2777425390809 ,50.8650311156633 ,84.5508020102041
5.4990527 ,Left ,49.288454546869 ,50.8618824616443 ,84.5561349565779
5.5216774 ,Left ,49.2800252389633 ,50.857530406155 ,84.5636342396526
5.5365446 ,Left ,49.2627384325551 ,50.8572680831007 ,84.567766573434
5.5517257 ,Left ,49.2523821076171 ,50.8561997929788 ,84.5686610486129
5.5739506 ,Left ,49.2560238173199 ,50.8493160879299 ,84.56869731712
5.5966588 ,Left ,49.2579784640446 ,50.8371644226278 ,84.5677566428267
5.6117294 ,Left ,49.244280876553 ,50.8299402483519 ,84.568650442631
5.6340918 ,Left ,49.2200412463405 ,50.8260484155719 ,84.5718116247167
5.6564978 ,Left ,49.2183205932265 ,50.8251435026737 ,84.5718046416006
5.6715739 ,Left ,49.2255172943055 ,50.8201732380361 ,84.5761334677896
5.6942321 ,Left ,49.2255172943055 ,50.8201732380361 ,84.5761334677896
5.7164762 ,Left ,49.2255172943055 ,50.8201732380361 ,84.5761334677896
5.7313937 ,Left ,49.2255172943055 ,50.8201732380361 ,84.5761334677896
5.7542393 ,Left ,49.2269090619123 ,50.8252181896495 ,84.5675821987458
5.7766974 ,Left ,49.2300849960459 ,50.8311877446719 ,84.5600146452226
5.7914183 ,Left ,49.2322796095686 ,50.83886139652 ,84.5514685377037
5.8141881 ,Left ,49.2249586132986 ,50.8437242634533 ,84.5428712945867
5.836702 ,Left ,49.1975068910438 ,50.8532981151283 ,84.5318094151719
5.8517435 ,Left ,49.1699394924207 ,50.8672016094591 ,84.5207375357801
5.8815725 ,Left ,49.1538596043365 ,50.8762157981554 ,84.5130484347236
5.9044148 ,Left ,49.1431523048703 ,50.8792543973579 ,84.5054131730453
5.9190821 ,Left ,49.1396314073182 ,50.8729550341257 ,84.5001901033254
5.934176 ,Left ,49.1109423596073 ,50.8687340398145 ,84.4967792235094
5.9567043 ,Left ,49.0553379719874 ,50.8657600349638 ,84.4975738413656
5.9716897 ,Left ,48.9983147959262 ,50.8577012903344 ,84.5037359094134
5.9942129 ,Left ,48.9484976798637 ,50.8402654355946 ,84.5101145072152
6.0166321 ,Left ,48.9144434195308 ,50.8135699711863 ,84.5147656051948
6.0317143 ,Left ,48.8981291562275 ,50.7787249032095 ,84.5238348850827
6.0542553 ,Left ,48.8365608825276 ,50.7464823647377 ,84.535158967662
6.0765886 ,Left ,48.7410575039276 ,50.7447526425314 ,84.5431398570134
6.0921652 ,Left ,48.8102225297928 ,50.7411017478969 ,84.5226338749202
6.1141691 ,Left ,48.8225556206019 ,50.7778141899207 ,84.49630411982
6.1367703 ,Left ,48.8583173833184 ,50.8249676499457 ,84.4783326543956
6.1590145 ,Left ,48.9621468735845 ,50.8462443120714 ,84.4427959340998
6.1742498 ,Left ,49.0153431758003 ,50.8582957637962 ,84.395887310589
6.196522 ,Left ,49.0085371726974 ,50.8716445396382 ,84.3542151125944
6.2191947 ,Left ,48.9686939783023 ,50.8803806087463 ,84.3069478502902
6.2340274 ,Left ,48.9333093918512 ,50.8803822714048 ,84.2579549301939
6.2565604 ,Left ,48.8918874938215 ,50.8593878120569 ,84.2144856852638
6.2791718 ,Left ,48.8929890526931 ,50.8169947756738 ,84.1694414942103
6.294198 ,Left ,48.9248767475759 ,50.7471406135464 ,84.1303965945542
6.3165691 ,Left ,48.8748728267886 ,50.6904196904225 ,84.0997108017061
6.3391878 ,Left ,48.8807318745301 ,50.6272189883485 ,84.1031553415269
6.3540359 ,Left ,48.9224268446012 ,50.5789045773334 ,84.0975696923854
6.3767201 ,Left ,48.8718165352744 ,50.6112966280061 ,84.1044735625047
6.3992332 ,Left ,48.870897596909 ,50.6467418091798 ,84.1239772644181
6.4141148 ,Left ,48.9042242553063 ,50.6626312903468 ,84.1224762773916
6.4440891 ,Left ,48.9040616285476 ,50.6669734336875 ,84.1224041907425
6.4666897 ,Left ,48.908890661091 ,50.6633248716131 ,84.138378293909
6.48158 ,Left ,48.9060897003274 ,50.6394669371017 ,84.1303709318421
6.4965437 ,Left ,48.8752469321905 ,50.5935206606385 ,84.1155837251387
6.5191154 ,Left ,48.852214912842 ,50.5449133957778 ,84.092496537742
6.5340508 ,Left ,48.91180706429 ,50.5284028186699 ,84.081813092431
6.5564909 ,Left ,48.9344699861387 ,50.5612743442727 ,84.1043547054112
6.5792345 ,Left ,48.9364301113304 ,50.5963289288495 ,84.1365117701823
6.594298 ,Left ,48.9461830634554 ,50.6043071892352 ,84.1573895349595
6.6163852 ,Left ,48.912763529686 ,50.6172827191665 ,84.1626167610274
6.6392153 ,Left ,48.8642904562308 ,50.6179000353224 ,84.1766885367302
6.6541057 ,Left ,48.8677709346362 ,50.5954518918574 ,84.1780254464138
6.6766349 ,Left ,48.8789073758087 ,50.5553198789049 ,84.1895224140494
6.7065821 ,Left ,48.8539354714094 ,50.5001165222521 ,84.2018663192694
6.7215941 ,Left ,48.8364514425864 ,50.4507768481778 ,84.2000181452344
6.7441341 ,Left ,48.8215479943595 ,50.4004982622858 ,84.1940466324042
6.7740221 ,Left ,48.9016803054445 ,50.3034291308706 ,84.2308407652899
6.796656 ,Left ,48.8521573312965 ,50.3057598853756 ,84.2421033313172
6.8190445 ,Left ,48.8292460257213 ,50.3780036101242 ,84.2626772789591
6.8342107 ,Left ,48.8628821406221 ,50.4472099753776 ,84.2720981779958
6.8565378 ,Left ,48.9098430542683 ,50.4745427867091 ,84.2665441817208
6.8791956 ,Left ,48.9519660373246 ,50.4767720127832 ,84.2428930809587
6.8941954 ,Left ,48.9353103318998 ,50.4842522257119 ,84.1950078515206
6.9165379 ,Left ,48.8799759525118 ,50.5016171795492 ,84.1451209741681
6.9392311 ,Left ,48.8521969051577 ,50.5251772264336 ,84.1004359355854
6.9542012 ,Left ,48.8593066272196 ,50.5454893193778 ,84.0521120529096
6.9764811 ,Left ,48.8887611247734 ,50.5693128312308 ,84.0049854302282
6.9990698 ,Left ,48.9335718825126 ,50.601643163966 ,83.9562392197745
7.0142937 ,Left ,49.0010940137539 ,50.6244831376484 ,83.9040818624787
7.0367481 ,Left ,49.046331739362 ,50.6396098223674 ,83.8509647863766
7.0593412 ,Left ,49.0653907890368 ,50.6536317005087 ,83.7948615323984
7.0816532 ,Left ,49.0601776665599 ,50.6584994994535 ,83.7298515955751
7.1043386 ,Left ,49.0520890659174 ,50.6527325838299 ,83.6635865706695
7.1266222 ,Left ,49.0495855976458 ,50.6256508620657 ,83.6042348454666
7.1490997 ,Left ,49.0442307391553 ,50.5723639511799 ,83.5478121678673
7.1643594 ,Left ,48.9950280489761 ,50.4983002927218 ,83.4884376688466
7.179247 ,Left ,48.9424822194016 ,50.4159724267527 ,83.4553120093816
7.2015603 ,Left ,48.8942212856645 ,50.311733867427 ,83.4397504209091
7.2165722 ,Left ,48.9102512991758 ,50.2552281838775 ,83.4161686657244
7.2389808 ,Left ,48.9154840654147 ,50.253403958508 ,83.4045832244348
7.2615987 ,Left ,48.8898174236116 ,50.3325947649883 ,83.3956114289687
7.2765476 ,Left ,48.9053928399236 ,50.3954536104145 ,83.3987397611084
7.299042 ,Left ,48.9194027832175 ,50.4321038018664 ,83.3770553505389
7.3216928 ,Left ,48.8633240436218 ,50.4779267866473 ,83.3605447070041
7.3366959 ,Left ,48.8041954909856 ,50.5178035419605 ,83.3548690574253
7.3592678 ,Left ,48.7559333970592 ,50.5503566973616 ,83.3459067127986
7.3816836 ,Left ,48.6744730664546 ,50.5805069400103 ,83.3696908823517
7.3964059 ,Left ,48.6698318271926 ,50.5992582526691 ,83.4088459396272
7.4192726 ,Left ,48.635107053993 ,50.5865075463949 ,83.422190736747
7.44161 ,Left ,48.6039151057983 ,50.5711936447369 ,83.431476201137
7.4563958 ,Left ,48.6059157802898 ,50.5512599852837 ,83.471635393832
7.4789519 ,Left ,48.5665940910096 ,50.5840266053769 ,83.512880650482
7.501677 ,Left ,48.6102274462389 ,50.6436224984585 ,83.5483910780298
7.5166106 ,Left ,48.7265557548496 ,50.6862004751721 ,83.5902103344173
7.5390501 ,Left ,48.8241333480367 ,50.7224442694068 ,83.6363476268857
7.561604 ,Left ,48.8531135995179 ,50.7577253595765 ,83.6828250935859
7.5767346 ,Left ,48.851922488067 ,50.7916977707315 ,83.7347205549048
7.5991502 ,Left ,48.8474360335124 ,50.8237877413039 ,83.7867645440191
7.6216419 ,Left ,48.8525272703988 ,50.848043816948 ,83.8515270590397
7.6366284 ,Left ,48.8912281876412 ,50.8642666905147 ,83.9221201281138
7.6591077 ,Left ,48.9470067186176 ,50.8696699616054 ,83.993017491066
7.6816854 ,Left ,48.9771466309216 ,50.8653410664634 ,84.0684202598301
7.6965102 ,Left ,48.9974782443447 ,50.8512654731624 ,84.1534267028947
7.7192336 ,Left ,49.0168176741893 ,50.8343303751512 ,84.2344098836589
7.7426735 ,Left ,49.0123051125762 ,50.8154091781624 ,84.3037904354762
7.7567261 ,Left ,48.9839185776333 ,50.8036094704295 ,84.3699599052488
7.7790899 ,Left ,48.9852712041331 ,50.7857089042882 ,84.4362978072565
7.8014795 ,Left ,48.9897662102484 ,50.7648755917544 ,84.4899924256287
7.816565 ,Left ,49.0212508272845 ,50.7429660675165 ,84.5470125540434
7.8392678 ,Left ,49.0504884215199 ,50.7239133277017 ,84.5879490152511
7.8615101 ,Left ,49.0677275095091 ,50.7224822540297 ,84.6168951348186
7.8767149 ,Left ,49.0794205359046 ,50.7312317659868 ,84.6414896228321
7.8991958 ,Left ,49.0804314219746 ,50.7429454121526 ,84.6552008982315
7.9217037 ,Left ,49.0820491152394 ,50.7615694657833 ,84.6668922329279
7.9364763 ,Left ,49.0887687759067 ,50.7827002067259 ,84.6719787344073
7.9590695 ,Left ,49.0945651070791 ,50.8010844286159 ,84.6728221414781
7.9828026 ,Left ,49.0889749716185 ,50.815745437194 ,84.6717144319431
7.9964323 ,Left ,49.0841983894357 ,50.8284899482704 ,84.6640228742401
8.0188892 ,Left ,49.0951189490008 ,50.8274276974795 ,84.6502259425959
8.0417255 ,Left ,49.0912856293434 ,50.8163243925106 ,84.6288930249882
8.0641257 ,Left ,49.0648609293776 ,50.8065476011845 ,84.6085138790171
8.0792197 ,Left ,49.0297700841505 ,50.796495783377 ,84.5858593167602
8.1014789 ,Left ,49.0076596421239 ,50.7911858223401 ,84.5688279225211
8.1241793 ,Left ,49.0077434724084 ,50.7734046687543 ,84.556204987091
8.139244 ,Left ,48.9722749899622 ,50.7522951793206 ,84.5446954103341
8.1619919 ,Left ,48.9564024648895 ,50.728624421886 ,84.5493389434217
8.1840702 ,Left ,49.0265039368359 ,50.6800656788313 ,84.5629057989697
8.1993362 ,Left ,49.0555117439661 ,50.62040502887 ,84.5540555614125
8.2217279 ,Left ,48.9693868480486 ,50.6032095375778 ,84.535462263067
8.2441663 ,Left ,48.8195250403411 ,50.5984362694965 ,84.5172349140391
8.2588909 ,Left ,48.7430378373824 ,50.6168449497759 ,84.497021840077
8.2816035 ,Left ,48.8054709604441 ,50.63811332725 ,84.4692420261795
8.3042147 ,Left ,48.9462126711605 ,50.6480791898083 ,84.4331573029869
8.3189047 ,Left ,49.0730791103663 ,50.6553660901385 ,84.3954715491809
8.3417386 ,Left ,49.1501674968747 ,50.6739549581791 ,84.3643980066158
8.3641119 ,Left ,49.129887068815 ,50.6890718341298 ,84.3322181249175
8.3792832 ,Left ,49.1105116761183 ,50.6934846695235 ,84.2907393829149
8.401477 ,Left ,49.0959188489486 ,50.6713463661797 ,84.2293623861858
8.4241237 ,Left ,49.0832874848825 ,50.6259792258292 ,84.1768444993141
8.4389021 ,Left ,49.0509705820457 ,50.5613524182468 ,84.1450733214722
8.4690239 ,Left ,49.0765116568545 ,50.5173290910106 ,84.1268146641363
8.4916843 ,Left ,49.0676896477439 ,50.5213151339987 ,84.1244611922666
8.5067325 ,Left ,49.0545210845462 ,50.5587732552105 ,84.1417943858369
8.5291837 ,Left ,49.0716023091792 ,50.5727870800747 ,84.1555669896415
8.5516772 ,Left ,49.0491797725393 ,50.5892395882422 ,84.1488965577385
8.5665286 ,Left ,49.0122772193477 ,50.6048058206999 ,84.1582902174933
8.5891907 ,Left ,49.0106735678547 ,50.599343690596 ,84.1518008088427
8.5965077 ,Left ,48.9907631779547 ,50.5859740503201 ,84.1352834780682
8.6116457 ,Left ,48.933251060047 ,50.5612020843299 ,84.1296723846346
8.6340841 ,Left ,48.9507403803859 ,50.5086943772042 ,84.1286286480058
8.6642257 ,Left ,49.0249987849031 ,50.4736692970694 ,84.1223803627195
8.6788717 ,Left ,49.0130196937868 ,50.505516014629 ,84.1538308959988
8.7166056 ,Left ,48.9887230353801 ,50.5380872009754 ,84.2201639091995
8.7316329 ,Left ,48.9414370680132 ,50.5571871074942 ,84.2381497407323
8.7540866 ,Left ,48.9096722103213 ,50.5512542900437 ,84.2456578345465
8.7765108 ,Left ,48.9483924523971 ,50.5172414143288 ,84.2600026243994
8.7915681 ,Left ,48.9677338650141 ,50.4571388636837 ,84.2666151707976
8.8148869 ,Left ,48.8791000372539 ,50.4200095594773 ,84.2513205794948
8.8367255 ,Left ,48.7950414844392 ,50.3788737565579 ,84.2440250066122
8.8515056 ,Left ,48.9341279469143 ,50.3497323981003 ,84.2323658466303
8.8741998 ,Left ,48.9805885795725 ,50.3323507933764 ,84.2141516894498
8.8965144 ,Left ,48.9581926399027 ,50.372884643055 ,84.1985363105944
8.941628 ,Left ,48.9992119884615 ,50.4004721664971 ,84.1475826918354
8.9656139 ,Left ,49.0150413046697 ,50.4060514707304 ,84.1135134924006
8.9941914 ,Left ,49.0581204198148 ,50.4075467744707 ,84.023088505905
9.0165246 ,Left ,49.0460375788861 ,50.4109982282539 ,83.9787864295684
9.031772 ,Left ,49.0412290329925 ,50.4096602049119 ,83.9396399091138
9.0542533 ,Left ,49.0644823816133 ,50.4015844411375 ,83.8984987852874
9.076753 ,Left ,49.1007910328876 ,50.3941329380751 ,83.8572458727757
9.0915124 ,Left ,49.1495069872211 ,50.3803071995486 ,83.814245568269
9.1142075 ,Left ,49.1617670436415 ,50.3638388602631 ,83.7619165632677
9.1368381 ,Left ,49.1365969068965 ,50.3510170457918 ,83.7159675653167
9.1515471 ,Left ,49.1368050505588 ,50.3369186618613 ,83.6763650520909
9.1740452 ,Left ,49.142478785801 ,50.3168594058479 ,83.6318223048474
9.2117403 ,Left ,49.1256660064926 ,50.2718680236981 ,83.5436324243349
9.23418 ,Left ,49.1135272552025 ,50.2485787074553 ,83.5120525922461
9.2715251 ,Left ,49.0476373265943 ,50.1739847426023 ,83.4655373294664
9.294196 ,Left ,49.0211324300911 ,50.1341487530055 ,83.4638699358352
9.3317112 ,Left ,48.9123187696833 ,50.1948822566478 ,83.4565374455379
9.3553458 ,Left ,48.9231985582352 ,50.2820329077422 ,83.466292569555
9.3916044 ,Left ,48.978439976181 ,50.3227777262754 ,83.4740647310571
9.4140143 ,Left ,48.9838711027599 ,50.332289355715 ,83.4622111047366
9.4516763 ,Left ,48.8720080891224 ,50.3557393407595 ,83.4638269917793
9.4741222 ,Left ,48.7809781561838 ,50.3668271437139 ,83.4762238477466
9.5115172 ,Left ,48.694767955049 ,50.39048242119 ,83.5114023343091
9.5341898 ,Left ,48.6919367848334 ,50.3645287002154 ,83.5196880998785
9.571744 ,Left ,48.6556612734543 ,50.4397313355596 ,83.5729594061471
9.594365 ,Left ,48.7312016447592 ,50.5167852348235 ,83.5948340878305
9.61655 ,Left ,48.8469140342582 ,50.5737869995748 ,83.6113929616475
9.6542457 ,Left ,48.9370563897365 ,50.6658382241529 ,83.6510041520536
9.6766682 ,Left ,48.9252801864992 ,50.7153032332093 ,83.6636983029414
9.7141323 ,Left ,48.9424953025205 ,50.8152221698544 ,83.7122903290586
9.7516831 ,Left ,49.0559404923586 ,50.8669649290161 ,83.8123012275029
9.7740505 ,Left ,49.0812078826898 ,50.8817176267938 ,83.8648649234296
9.8115582 ,Left ,49.0232161190179 ,50.8913397568304 ,83.9793684545515
9.8341488 ,Left ,48.9899085359276 ,50.876260926808 ,84.0406907401031
9.8717048 ,Left ,49.0071095372605 ,50.8391229909229 ,84.1727985556248
9.89421 ,Left ,48.9927831000879 ,50.8257886135112 ,84.2354307816412
9.9315987 ,Left ,48.9690869221482 ,50.8156158966835 ,84.376956129649
9.954166 ,Left ,49.0022739534618 ,50.8035468992049 ,84.4370412902555
9.9917162 ,Left ,49.0384623622601 ,50.8133376073348 ,84.5321080100861
10.0140696 ,Left ,49.0495116080298 ,50.8196407017171 ,84.5609860024411
10.0515754 ,Left ,49.0119927414755 ,50.8358233319541 ,84.6035568765294
10.0741525 ,Left ,49.0148047908517 ,50.8397177835808 ,84.6153797312337
10.1114832 ,Left ,49.0078175268025 ,50.8493108629866 ,84.620542297551
10.1339781 ,Left ,49.0086308114887 ,50.8519348647883 ,84.6205191160457
10.1717129 ,Left ,48.9751364319777 ,50.8650114023285 ,84.6137632479945
10.1940592 ,Left ,48.9801088292471 ,50.8764102076907 ,84.6136582805986
10.2317012 ,Left ,48.9719971045076 ,50.8696565420736 ,84.5975791032657
10.2542253 ,Left ,48.9319450989518 ,50.8661639221167 ,84.5943092266298
10.2915137 ,Left ,48.8308181795695 ,50.8327397008749 ,84.5903297535472
10.3216331 ,Left ,48.8259935154592 ,50.8171141054538 ,84.5938941825779
10.3590836 ,Left ,48.9514259555471 ,50.7574844885804 ,84.5841227398074
10.3965657 ,Left ,48.9531990387575 ,50.7809344412647 ,84.5013128641464
10.426483 ,Left ,48.9544122995724 ,50.8370283421449 ,84.40555011327
10.4498401 ,Left ,49.0074154882387 ,50.8578525805104 ,84.3595311038253
10.4643401 ,Left ,49.069782977522 ,50.8772202686238 ,84.3085699921738
10.4867022 ,Left ,49.0871151033003 ,50.890342362754 ,84.2619263236855
10.509101 ,Left ,49.1032237805682 ,50.8805586320196 ,84.204661999487
10.5316665 ,Left ,49.1061859039329 ,50.8459930424888 ,84.1457074241537
10.5464517 ,Left ,49.0729226399673 ,50.7939284125839 ,84.0981701402878
10.5691815 ,Left ,49.0536946462368 ,50.7297697990862 ,84.0692868625147
10.591675 ,Left ,49.0227336566645 ,50.6591823919077 ,84.044975900101
10.6141158 ,Left ,49.0728806445178 ,50.5956022375371 ,84.0385854460375
10.6367345 ,Left ,49.0533356475749 ,50.5780136928049 ,84.0272533203996
10.6516261 ,Left ,49.0432532164738 ,50.6170172568915 ,84.0351808001581
10.6666522 ,Left ,49.0993146350161 ,50.636825349097 ,84.0463607289571
10.6890232 ,Left ,49.1043994545998 ,50.6395339887357 ,84.0430212158166
10.7042298 ,Left ,49.0659614091642 ,50.6497780697544 ,84.0556796493046
10.7266762 ,Left ,49.0681648538762 ,50.6330935232775 ,84.0474579924747
10.7491278 ,Left ,49.0620197181123 ,50.5982203019004 ,84.0227083072381
10.7641024 ,Left ,49.0514819356014 ,50.547669625007 ,84.0034097942496
10.7864714 ,Left ,49.0185923419504 ,50.5336285686405 ,83.9838247996162
10.8110535 ,Left ,48.9860935949232 ,50.5647045098066 ,83.9887150349274
10.8251925 ,Left ,49.025182127003 ,50.6244710332056 ,84.0159925716084
10.8477307 ,Left ,49.087928904628 ,50.6570704613124 ,84.0386756134717
10.876532 ,Left ,49.0874322522358 ,50.6746826231551 ,84.0468980302073
10.899593 ,Left ,48.985633920242 ,50.7034643387238 ,84.0581191048478
10.9215086 ,Left ,48.9426500231381 ,50.722378508538 ,84.0725504440145
10.936583 ,Left ,48.9663181736464 ,50.7198524221152 ,84.0757582987398
10.958942 ,Left ,48.9416228978197 ,50.6995580878556 ,84.0677527092753
10.9743994 ,Left ,48.9062949976815 ,50.6821302624208 ,84.0532592540141
10.9889936 ,Left ,48.8652020419965 ,50.6348947544409 ,84.0394523651023
11.0114818 ,Left ,48.9748213392909 ,50.5685785911364 ,84.0424926654739
11.0265777 ,Left ,48.9980883805263 ,50.5210594577319 ,84.0253514131112
11.0502482 ,Left ,48.9114996445489 ,50.5486896594174 ,84.0126221752019
11.071536 ,Left ,48.9209582717503 ,50.5866798410866 ,83.9926087847891
11.0865371 ,Left ,48.9743418291232 ,50.6088738070541 ,83.9689136525781
11.10911 ,Left ,49.0189938414712 ,50.6352514888932 ,83.9481233144798
11.1315982 ,Left ,49.0402224141919 ,50.6553006973132 ,83.9201907265943
11.1464427 ,Left ,49.044050820692 ,50.6701624827341 ,83.8873664563242
11.1691483 ,Left ,49.0618409125758 ,50.6838956418257 ,83.8545449093851
11.1916376 ,Left ,49.0695455223935 ,50.6828842922755 ,83.8070422689604
11.2065103 ,Left ,49.0611056206149 ,50.6706626211122 ,83.7580049955206
11.2292299 ,Left ,49.0823679327218 ,50.6415817392463 ,83.710003031698
11.2520602 ,Left ,49.1001416608319 ,50.6104263237446 ,83.6537860458218
11.2667291 ,Left ,49.1050919403063 ,50.5788782352236 ,83.605169347971
11.2890513 ,Left ,49.107454477372 ,50.5479918782775 ,83.5533780223092
11.3115964 ,Left ,49.1032096955265 ,50.5133008441546 ,83.5026554686764
11.3266246 ,Left ,49.0544596765931 ,50.4822354417406 ,83.4532842317759
11.3491091 ,Left ,49.0096344259969 ,50.4490151176761 ,83.4165290408136
11.3715516 ,Left ,48.9942822730647 ,50.3925755113652 ,83.3939738585681
11.3867298 ,Left ,48.979433701425 ,50.3163944815411 ,83.3802724086225
11.4090629 ,Left ,48.958338699204 ,50.2485845185679 ,83.3947175405954
11.4316668 ,Left ,48.9803541317502 ,50.224461917616 ,83.3627784490967
11.4465106 ,Left ,48.9136038364884 ,50.3046462175138 ,83.352238966448
11.4690612 ,Left ,48.9264408231598 ,50.3683337444834 ,83.3586534879929
11.491503 ,Left ,48.9686428467341 ,50.3877212985068 ,83.3418819204587
11.5141047 ,Left ,48.9597137930391 ,50.4134018141907 ,83.3176209198461
11.5291258 ,Left ,48.9188800586942 ,50.4365251494705 ,83.3005531279335
11.5515656 ,Left ,48.8422615929576 ,50.4481547175949 ,83.2925787660273
11.5666233 ,Left ,48.7149479962112 ,50.4669586710453 ,83.3028039972478
11.5892395 ,Left ,48.6122562614844 ,50.4925266975818 ,83.3536449077023
11.6115132 ,Left ,48.6679983380607 ,50.487398424251 ,83.3821820330124
11.6341661 ,Left ,48.7212712434456 ,50.4418842637031 ,83.3872179682093
11.6496103 ,Left ,48.6976916349021 ,50.438523141769 ,83.4240972396192
11.6714912 ,Left ,48.682522846958 ,50.4763853883165 ,83.476193830327
11.6866236 ,Left ,48.7568390647367 ,50.5444664444361 ,83.5100931528664
11.7091359 ,Left ,48.8917405899247 ,50.6039891666215 ,83.5357853829276
11.7315245 ,Left ,49.0248118627836 ,50.6355501919386 ,83.5695206110247
11.7541829 ,Left ,49.087790392739 ,50.6560563352272 ,83.5945085882725
11.7690988 ,Left ,49.1013893187349 ,50.6886490574004 ,83.6148836181995
11.7917887 ,Left ,49.1162763368973 ,50.7199432284408 ,83.650220837013
11.8141359 ,Left ,49.108013720288 ,50.7494407550514 ,83.6939937634199
11.8288601 ,Left ,49.106521358503 ,50.7716676837339 ,83.7462241438816
11.8590781 ,Left ,49.154316495167 ,50.7858124319077 ,83.8043489761357
11.8816753 ,Left ,49.2258980153333 ,50.7928135646172 ,83.856207245169
11.8965865 ,Left ,49.2740974231802 ,50.7978288677321 ,83.9114557325527
11.9340717 ,Left ,49.2585109054511 ,50.7949342723697 ,84.0444803797249
11.9490121 ,Left ,49.2441518627527 ,50.7855499324694 ,84.114192835086
11.9791192 ,Left ,49.23232072955 ,50.7754353775116 ,84.1831396000177
12.0015606 ,Left ,49.2404754955476 ,50.765120860628 ,84.252298706814
12.0166796 ,Left ,49.2596025672654 ,50.7628401995193 ,84.318302433228
12.0541223 ,Left ,49.2730441140394 ,50.7580310487449 ,84.4368254992723
12.0699677 ,Left ,49.2671267967 ,50.7552605060207 ,84.4751281649782
12.0915358 ,Left ,49.2878789142361 ,50.7555872052126 ,84.5073983058713
12.1139834 ,Left ,49.3100943784131 ,50.756521243759 ,84.5278777494461
12.1288713 ,Left ,49.3008027816353 ,50.7627687324891 ,84.5448799809444
12.1515261 ,Left ,49.2729420457156 ,50.7790601736118 ,84.5607871483309
12.1740943 ,Left ,49.2755653203356 ,50.7959378794992 ,84.5745482415517
12.1889797 ,Left ,49.2997312363485 ,50.8130604807199 ,84.579933116617
12.211626 ,Left ,49.3332059599493 ,50.8285007536574 ,84.5782528084902
12.2342457 ,Left ,49.3318155290327 ,50.8386620244514 ,84.5664052426557
12.248931 ,Left ,49.3052227324548 ,50.8465525807135 ,84.5543354259856
12.2716756 ,Left ,49.2741528105186 ,50.8497244650292 ,84.5313772422276
12.2940765 ,Left ,49.235154602454 ,50.8509081561632 ,84.5064591963664
12.3090823 ,Left ,49.2251239202281 ,50.847587349197 ,84.4860467236427
12.3315865 ,Left ,49.2292134351759 ,50.8386522874032 ,84.4713834185286
12.3540881 ,Left ,49.1829647328511 ,50.8248902320312 ,84.4518044129169
12.3689292 ,Left ,49.0998141079263 ,50.8025946783079 ,84.4417748592574
12.3915111 ,Left ,49.06053922714 ,50.7818794742274 ,84.450425515808
12.4140807 ,Left ,49.0897493029501 ,50.7448414373351 ,84.4691740992818
12.4290701 ,Left ,49.1195857102419 ,50.7537149809828 ,84.4497316392168
12.4514389 ,Left ,49.0789864853139 ,50.7914095028445 ,84.4333215839921
12.4742013 ,Left ,49.0236668294096 ,50.8519070773465 ,84.4077570279507
12.4891067 ,Left ,49.0238182435706 ,50.8976642291162 ,84.366789903054
12.5115522 ,Left ,49.1307303813711 ,50.907758429252 ,84.3119893319176
12.5343011 ,Left ,49.2064809804517 ,50.9059599771816 ,84.2555139544481
12.5566633 ,Left ,49.2124205489628 ,50.8909490173667 ,84.2024442808009
12.5715071 ,Left ,49.1703532201097 ,50.8831544115255 ,84.1533477376954
12.5940671 ,Left ,49.1161565231754 ,50.8729036118017 ,84.0986838519382
12.6016065 ,Left ,49.1161565231754 ,50.8729036118017 ,84.0986838519382
12.6166403 ,Left ,49.1292449495506 ,50.8482358328572 ,84.0365950412633
12.6314808 ,Left ,49.1703994725637 ,50.8103276977885 ,83.9906673349407
12.6541076 ,Left ,49.2357830104912 ,50.7461023735366 ,83.9632356228387
12.6691056 ,Left ,49.2128761781412 ,50.6731543028305 ,83.934233352972
12.691533 ,Left ,49.1706438314995 ,50.6317045704887 ,83.9112682248705
12.7141048 ,Left ,49.1053851736 ,50.6380809289646 ,83.9248772401736
12.7289484 ,Left ,49.1227147694497 ,50.6479106670173 ,83.9405808631426
12.752682 ,Left ,49.172603373635 ,50.6576008461639 ,83.9343754166875
12.7752744 ,Left ,49.1798046342071 ,50.6772411523741 ,83.9425960248972
12.7966069 ,Left ,49.1420127551566 ,50.6789851447953 ,83.9677941588082
12.8115501 ,Left ,49.1508679939157 ,50.6794659488217 ,83.9728861223648
12.8341183 ,Left ,49.1646025407094 ,50.6427447665782 ,83.9788573239931
12.8566426 ,Left ,49.1753162968299 ,50.61532919615 ,83.9790901076485
12.8714171 ,Left ,49.1519179655559 ,50.6335492299593 ,83.9789738808903
12.8940793 ,Left ,49.1703285604192 ,50.6906232461137 ,84.0054744165285
12.9174717 ,Left ,49.215504307443 ,50.7069094948872 ,84.0320739800696
12.9391921 ,Left ,49.2316329055157 ,50.7071129411474 ,84.0522174082419
12.9689973 ,Left ,49.1325345496347 ,50.7151758686333 ,84.06748055647
12.999105 ,Left ,49.0002896870911 ,50.6925424910504 ,84.1102010559142
13.0366173 ,Left ,49.0569973997046 ,50.5972779962218 ,84.1168387245747
13.0514603 ,Left ,49.0508885074189 ,50.5275986431715 ,84.12121184716
13.0739211 ,Left ,49.0983977640346 ,50.4801089293832 ,84.1061292667998
13.0965378 ,Left ,49.0212554554035 ,50.4955355646324 ,84.1018739088186
13.111472 ,Left ,49.007369550658 ,50.5608980943527 ,84.0933874419934
13.1340009 ,Left ,49.0477483208918 ,50.5869286717649 ,84.0716153327454
13.1565256 ,Left ,49.1067899883776 ,50.6033591740292 ,84.0533019907301
13.1716568 ,Left ,49.1196758026206 ,50.6142843226562 ,84.0213008061512
13.1940101 ,Left ,49.096137049707 ,50.6184891091226 ,83.9853598035093
13.2166503 ,Left ,49.077387230027 ,50.6295843618484 ,83.9418698915757
13.2314677 ,Left ,49.0759348622149 ,50.6413243309055 ,83.8974334767614
13.2540559 ,Left ,49.0857904369649 ,50.6526815516628 ,83.8530124814649
13.2765218 ,Left ,49.1182383887434 ,50.6633101549544 ,83.8077045771561
13.2915584 ,Left ,49.1622057525906 ,50.669346287757 ,83.762533224803
13.3140875 ,Left ,49.1734933782801 ,50.665988477515 ,83.7119020449809
13.3365852 ,Left ,49.1688806711804 ,50.6626119450968 ,83.6554395359584
13.3514848 ,Left ,49.1698819040971 ,50.6487964805856 ,83.5884465566358
13.3741204 ,Left ,49.185600309355 ,50.620957911935 ,83.5208031340307
13.3965049 ,Left ,49.1961701185438 ,50.594662548245 ,83.4541490589383
13.4113705 ,Left ,49.1768928462274 ,50.5736513749032 ,83.3876873057749
13.4339112 ,Left ,49.1800034496974 ,50.5499576755593 ,83.3377652529448
13.4565015 ,Left ,49.1992294132075 ,50.5175329185941 ,83.2821414330097
13.4716856 ,Left ,49.1643970805186 ,50.47387856432 ,83.2246950898288
13.4938786 ,Left ,49.0897859637318 ,50.4183161288409 ,83.1812608134451
13.516711 ,Left ,49.0471803765147 ,50.3591905238733 ,83.1600258472739
13.5390968 ,Left ,49.0428538296205 ,50.2776610295459 ,83.1528287257104
13.5542168 ,Left ,49.0064157904137 ,50.2468071498094 ,83.1329874232476
13.5766084 ,Left ,48.921653912368 ,50.3032496872389 ,83.1389768638054
13.5992152 ,Left ,48.9325178898703 ,50.4206694483117 ,83.1637912795836
13.6141736 ,Left ,48.9982685266607 ,50.4817095369361 ,83.1681655776925
13.6367908 ,Left ,49.0648454296361 ,50.5135567536517 ,83.1554554736483
13.6591284 ,Left ,49.0201547415017 ,50.5389551080434 ,83.1407752945694
13.6741413 ,Left ,48.924503193205 ,50.559422286434 ,83.1324843077489
13.6966873 ,Left ,48.8137765893665 ,50.5822316460489 ,83.1212267768685
13.719161 ,Left ,48.6815690468792 ,50.6088420044339 ,83.1325138877323
13.7358942 ,Left ,48.6399435368139 ,50.644247806478 ,83.1691801858849
13.7565247 ,Left ,48.7110548242519 ,50.6325647142997 ,83.1994027223199
13.7790205 ,Left ,48.6976730791908 ,50.6027371329213 ,83.2159014312709
13.7939093 ,Left ,48.7013571053953 ,50.6151481082881 ,83.2590274831446
13.8166272 ,Left ,48.6754065319257 ,50.6603479641942 ,83.3175200182319
13.8391165 ,Left ,48.7420928284151 ,50.7221720859634 ,83.3489675564751
13.8542034 ,Left ,48.889628915462 ,50.7607059299545 ,83.382293161326
13.8764735 ,Left ,49.0112239798028 ,50.7817437739728 ,83.4144049066977
13.8990086 ,Left ,49.0263445317598 ,50.8043896527194 ,83.4446458472863
13.9141884 ,Left ,48.9804719620248 ,50.8325789240191 ,83.4816526372696
13.9365635 ,Left ,48.9474571745341 ,50.8705321381307 ,83.5268733670552
13.9591492 ,Left ,48.9513878267982 ,50.8961507657804 ,83.5871170884594
13.974209 ,Left ,48.9879091037733 ,50.9155773532235 ,83.6491144097326
13.9966377 ,Left ,49.0210758457302 ,50.9218937039304 ,83.719696234296
14.0190585 ,Left ,49.0454960986367 ,50.9166017994578 ,83.7988311871274
14.0339839 ,Left ,49.0629655873437 ,50.8918578140549 ,83.8815023151826
14.056652 ,Left ,49.0659061962456 ,50.856896864908 ,83.9643607942951
14.0790467 ,Left ,49.0593825463828 ,50.8145578460138 ,84.0450794251018
14.1017041 ,Left ,49.043612460679 ,50.776087510164 ,84.1184937093973
14.1239858 ,Left ,49.0428208563371 ,50.7503408250072 ,84.1910342541295
14.1541479 ,Left ,49.0922151940837 ,50.6931173169575 ,84.3279938200061
14.1766069 ,Left ,49.1078387265308 ,50.6758882404889 ,84.3814378599739
14.1990425 ,Left ,49.1118757392371 ,50.6589623565631 ,84.4264665608835
14.2142156 ,Left ,49.1075810973707 ,50.6528379712102 ,84.4605983007083
14.2365574 ,Left ,49.0923503182677 ,50.6629641949555 ,84.493650334156
14.2591436 ,Left ,49.0794282872756 ,50.6807843353995 ,84.5190698717531
14.2738714 ,Left ,49.0819126505462 ,50.7066575018092 ,84.5401195342936
14.2890811 ,Left ,49.084326902838 ,50.7324061159068 ,84.5569339178909
14.3114537 ,Left ,49.0849678221875 ,50.7570596110858 ,84.567188897909
14.3265006 ,Left ,49.1073165646443 ,50.7733535005177 ,84.5736615903204
14.3492587 ,Left ,49.0958054136459 ,50.7826162694284 ,84.5712477113522
14.3714455 ,Left ,49.0719071158921 ,50.794181539417 ,84.5668538203838
14.3866988 ,Left ,49.0819746489445 ,50.8037371062676 ,84.5592148844027
14.4091093 ,Left ,49.1094044890643 ,50.804800225762 ,84.5454727985814
14.4315833 ,Left ,49.1349515052398 ,50.8003132779616 ,84.5199557975171
14.4465168 ,Left ,49.148474370898 ,50.7850477292553 ,84.4902345849325
14.4691134 ,Left ,49.1038198093325 ,50.7586431402083 ,84.4529788709148
14.4915479 ,Left ,49.058039071812 ,50.7183471771445 ,84.4212675348032
14.5067268 ,Left ,49.0659105462466 ,50.6693359621956 ,84.4038330706394
14.5290668 ,Left ,49.1150722233543 ,50.5897799707079 ,84.4059900059186
14.551512 ,Left ,49.1511934181574 ,50.5489305193314 ,84.3713726989347
14.5666436 ,Left ,49.0000202455073 ,50.6198239031762 ,84.348206929832
14.5891445 ,Left ,48.9565425028604 ,50.7664390949025 ,84.3459263873175
14.6114536 ,Left ,49.0470108725259 ,50.8629987490838 ,84.3203877712237
14.6491364 ,Left ,49.3287308326656 ,50.9032219386804 ,84.2378241977968
14.6716979 ,Left ,49.3497547754642 ,50.9054465261113 ,84.1849631664335
14.7092241 ,Left ,49.1729938303597 ,50.874609341473 ,84.0516924616425
14.7315116 ,Left ,49.1072696406396 ,50.8399224998718 ,83.9846539383404
14.746573 ,Left ,49.146528763595 ,50.7854211166767 ,83.9379759965832
14.7690689 ,Left ,49.1574725411576 ,50.6755516452219 ,83.9118057242799
14.7915629 ,Left ,49.1449218934054 ,50.5972844040358 ,83.9000302241619
14.8065036 ,Left ,49.1319705596986 ,50.5661601637476 ,83.9279783988603
14.8290953 ,Left ,49.1450399107582 ,50.5806509915639 ,83.9627706995741
14.8667168 ,Left ,49.1917425541944 ,50.6085197063756 ,83.9590357585466
14.8891064 ,Left ,49.17121812273 ,50.6262052950009 ,83.9682224996165
14.9266998 ,Left ,49.084050674428 ,50.6023737815977 ,83.9547636465785
14.9491934 ,Left ,49.0710151433449 ,50.5527602088986 ,83.9420291583542
14.9866606 ,Left ,49.1173698226871 ,50.5495814349795 ,83.9483341172446
15.0092288 ,Left ,49.1442547368156 ,50.587149142748 ,83.9794904661006
15.0466766 ,Left ,49.1740587865642 ,50.5843244409543 ,84.0280006395075
15.0690432 ,Left ,49.0624766640388 ,50.5790571717487 ,84.051500638737
15.1066036 ,Left ,49.0261114119926 ,50.5512572563145 ,84.0975983944222
15.1291608 ,Left ,49.0750228244265 ,50.5028263455083 ,84.1078241573316
15.1666821 ,Left ,49.0952172205528 ,50.4159357731173 ,84.0861575529088
15.1890923 ,Left ,49.1227538749647 ,50.3881810498864 ,84.0526641149445
15.2114242 ,Left ,48.9964085428581 ,50.4560147402006 ,84.0340733911558
15.249169 ,Left ,49.0325638641408 ,50.5464189379861 ,84.0152792954888
15.2717825 ,Left ,49.1019477761913 ,50.5640399272799 ,83.9902165893312
15.3091144 ,Left ,49.1086399716755 ,50.5752147988452 ,83.9121326027325
15.3543063 ,Left ,49.0451973827441 ,50.5870104287525 ,83.8098823202818
15.3691256 ,Left ,49.0392299499249 ,50.5826544284897 ,83.7592811666186
15.4065476 ,Left ,49.0830788135323 ,50.5649454968579 ,83.6452781613455
15.429012 ,Left ,49.0569152740226 ,50.5647517342407 ,83.5925688395926
15.4666547 ,Left ,49.0741146212649 ,50.552775158953 ,83.5073209439621
15.4893256 ,Left ,49.1104327654021 ,50.5459448144656 ,83.4716495754061
15.5265259 ,Left ,49.1222780247565 ,50.538495229813 ,83.4287972055894
15.5491379 ,Left ,49.142526205326 ,50.5297137296609 ,83.4155423558163
15.5864811 ,Left ,49.1269836972759 ,50.4949920880482 ,83.3544179853594
15.609123 ,Left ,49.101333188254 ,50.4797697559048 ,83.3310153209437
15.6464712 ,Left ,49.0743631082217 ,50.4115863426237 ,83.2864631595093
15.6691231 ,Left ,49.0432959691621 ,50.359371285346 ,83.2640783167377
15.7067422 ,Left ,49.0739386618404 ,50.2120091698099 ,83.2224950020858
15.7291294 ,Left ,48.9458824505576 ,50.1951483694037 ,83.1945036527543
15.7516736 ,Left ,48.810717515091 ,50.2649685515698 ,83.1965195347553
15.7891899 ,Left ,48.8581169189106 ,50.369451065088 ,83.2072913910664
15.8115129 ,Left ,48.8969449967892 ,50.387395582168 ,83.2011877067058
15.8490845 ,Left ,48.8254560548554 ,50.4240483799382 ,83.1844252258074
15.8866744 ,Left ,48.6321575608112 ,50.489311184651 ,83.1866575316652
15.9091085 ,Left ,48.6589897811186 ,50.5048971913274 ,83.1848030993629
15.9466162 ,Left ,48.6743966898993 ,50.5084827230163 ,83.227000724505
15.9690816 ,Left ,48.533737166191 ,50.5618869524297 ,83.2925585190805
15.9916197 ,Left ,48.623059092693 ,50.6335825772655 ,83.3561153386773
16.0291745 ,Left ,48.9557824208612 ,50.6872563426619 ,83.4182153705881
16.0515035 ,Left ,49.0626880103676 ,50.7018583909046 ,83.4429883740206
16.0891064 ,Left ,49.0683513968529 ,50.7398587550977 ,83.5136010786173
16.1115555 ,Left ,49.0449747160974 ,50.7563119514687 ,83.5540557972455
16.1266745 ,Left ,49.0591574580189 ,50.774058815594 ,83.6010505264116
16.1489694 ,Left ,49.0973202804114 ,50.7852056323092 ,83.6514691881154
16.1715127 ,Left ,49.1540343421746 ,50.7909417210765 ,83.698803184274
16.1866078 ,Left ,49.2038370176893 ,50.7926805904658 ,83.7445232754557
16.201752 ,Left ,49.2061275484856 ,50.7922908103036 ,83.7970054303692
16.2241955 ,Left ,49.201905136882 ,50.783950839423 ,83.8561486604897
16.2388718 ,Left ,49.2048310611731 ,50.7707051099816 ,83.9154240035784
16.261397 ,Left ,49.2171797929974 ,50.7603715092713 ,83.9724215252296
16.2841327 ,Left ,49.2320424963962 ,50.7537357557172 ,84.0360835674392
16.2989007 ,Left ,49.2491431196868 ,50.7548782493765 ,84.0965316461679
16.3214036 ,Left ,49.2746774401795 ,50.7605025707982 ,84.1528865505265
16.3440433 ,Left ,49.2930852664051 ,50.7665187542206 ,84.2017867416373
16.3591035 ,Left ,49.3026907895321 ,50.767610243149 ,84.23896356714
16.3817811 ,Left ,49.3006841558925 ,50.7690134896081 ,84.2667006714057
16.4041062 ,Left ,49.2793260572236 ,50.7775575143115 ,84.2896278448238
16.4190195 ,Left ,49.2621159303727 ,50.7906515542524 ,84.3139940463599
16.4416749 ,Left ,49.2517773752812 ,50.807443673607 ,84.3384015427113
16.4642375 ,Left ,49.2311428795879 ,50.818605434743 ,84.357135456673
16.4787987 ,Left ,49.2261251160245 ,50.8293888152835 ,84.3773654273769
16.501514 ,Left ,49.2376108133605 ,50.8378990920521 ,84.3934618764087
16.5240407 ,Left ,49.2357083205518 ,50.8501416301174 ,84.3986315742775
16.5466764 ,Left ,49.2188480931879 ,50.8654650468755 ,84.4027404841823
16.5615617 ,Left ,49.1984517717702 ,50.8787893302271 ,84.4002334259636
16.5841291 ,Left ,49.1763951713384 ,50.8779207160497 ,84.3882943070399
16.6070076 ,Left ,49.1657358642636 ,50.8721005696719 ,84.3754997771444
16.621492 ,Left ,49.1551705029345 ,50.8573762660976 ,84.3552103238661
16.6440186 ,Left ,49.1124468087012 ,50.8408775673307 ,84.3348413502935
16.6664515 ,Left ,49.0246063129775 ,50.8311810951444 ,84.3248590965173
16.6814521 ,Left ,48.974856832647 ,50.8135305512463 ,84.3335403897845
16.7040078 ,Left ,49.0353251887538 ,50.7843457145841 ,84.348870875309
16.7264858 ,Left ,49.0704091685319 ,50.7480720170218 ,84.3548410563553
16.7416745 ,Left ,49.1248900871388 ,50.75004226553 ,84.3081376146592
16.7641357 ,Left ,49.0484932468716 ,50.8169466875666 ,84.2910632705021
16.7866157 ,Left ,49.0118185510641 ,50.8722440292681 ,84.2849147476839
16.8015162 ,Left ,49.0885765367825 ,50.8910224145867 ,84.2534577728921
16.8241885 ,Left ,49.1997426105441 ,50.8908478289975 ,84.2150409746198
16.8541197 ,Left ,49.2784744777077 ,50.8733738948271 ,84.1776121370591
16.876581 ,Left ,49.29810065894 ,50.8550313996106 ,84.14305994822
16.8916542 ,Left ,49.2222230929616 ,50.8288136350828 ,84.0998708941467
16.9216367 ,Left ,49.2377448197059 ,50.7255300586544 ,84.0109978988625
16.9441226 ,Left ,49.2762492511428 ,50.6176723093965 ,83.9846165969086
16.9664641 ,Left ,49.2937828204749 ,50.5604794855388 ,83.963101864478
16.9816813 ,Left ,49.2382269902375 ,50.5610195953963 ,83.9692166961125
17.004173 ,Left ,49.2182690985065 ,50.6102097566332 ,83.9856228807154
17.0266173 ,Left ,49.2522463509866 ,50.6333769158092 ,83.9896221369649
17.0416984 ,Left ,49.2904367001191 ,50.6520072156103 ,83.9778593986843
17.0715331 ,Left ,49.2617130076338 ,50.6762781264284 ,83.9851749655247
17.094004 ,Left ,49.2363260876584 ,50.6868879281223 ,83.9976787353467
17.1091249 ,Left ,49.2111708426146 ,50.6750160131089 ,83.9785582981068
17.1241082 ,Left ,49.1984912230752 ,50.6167992622953 ,83.9664310328
17.1466923 ,Left ,49.2273904230546 ,50.568319922484 ,83.9649821014447
17.1616852 ,Left ,49.2303356640275 ,50.5480337617271 ,83.9852423335889
17.1839947 ,Left ,49.2289610408951 ,50.5812053650384 ,84.0293310491249
17.2067449 ,Left ,49.2739604162977 ,50.5910081152062 ,84.0811326101199
17.2214156 ,Left ,49.2881102193624 ,50.5944922676065 ,84.0979509873583
17.2590466 ,Left ,49.1974268376142 ,50.6118163906269 ,84.1199079271435
17.2816632 ,Left ,49.1514816233129 ,50.6203599343409 ,84.141952554717
17.2967508 ,Left ,49.1732948764268 ,50.6059596053984 ,84.1622112638783
17.3115207 ,Left ,49.1861754113056 ,50.5667375380685 ,84.1766722059596
17.3266799 ,Left ,49.169842491088 ,50.5312008331505 ,84.1687032154433
17.3416212 ,Left ,49.1503768212085 ,50.4849551360694 ,84.1544003046983
17.3641883 ,Left ,49.2619771458246 ,50.4458279783628 ,84.142038566496
17.3872 ,Left ,49.2362682798103 ,50.4468841084819 ,84.1135879747147
17.4091998 ,Left ,49.1333554190021 ,50.5165668145658 ,84.0893969462832
17.4314217 ,Left ,49.1621868267047 ,50.5764026772595 ,84.075869563565
17.4539861 ,Left ,49.2340171163393 ,50.5976197464335 ,84.0535001032266
17.469104 ,Left ,49.2754893194837 ,50.6133083977787 ,84.0248318438236
17.4841404 ,Left ,49.2862009165085 ,50.6275394023686 ,83.9803630543585
17.5065286 ,Left ,49.2788744258013 ,50.6340391152219 ,83.9326998461563
17.5366062 ,Left ,49.2770086259514 ,50.6346608478924 ,83.8851295528388
17.5516993 ,Left ,49.2743850044006 ,50.6281600569167 ,83.8316858282042
17.5741298 ,Left ,49.266585776348 ,50.6185845192216 ,83.7685058316239
17.5889562 ,Left ,49.2625116519827 ,50.606642052213 ,83.7096122773793
17.6041362 ,Left ,49.258524421049 ,50.599450369365 ,83.6689344426109
17.6265642 ,Left ,49.2749471546721 ,50.588162978473 ,83.6333438220888
17.6489995 ,Left ,49.3064065953833 ,50.5743411270562 ,83.6043477777638
17.6640002 ,Left ,49.3152921341068 ,50.5612293746189 ,83.5795384301015
17.6942086 ,Left ,49.3181083991798 ,50.5514115024255 ,83.5606093788111
17.7164925 ,Left ,49.3173976542627 ,50.5441061072853 ,83.5458178425603
17.731683 ,Left ,49.3338352908983 ,50.5421832855689 ,83.5366651317754
17.7467817 ,Left ,49.3666500399594 ,50.5428258863414 ,83.5242262727678
17.7691127 ,Left ,49.388046763484 ,50.5436735132345 ,83.5076778195147
17.7841233 ,Left ,49.3894836497542 ,50.5442875216408 ,83.4895775093156
17.806528 ,Left ,49.4031921066538 ,50.5430655567232 ,83.4763358086088
17.8291933 ,Left ,49.4194930658687 ,50.5410123448904 ,83.4565637872369
17.8440189 ,Left ,49.4121988122825 ,50.541142027405 ,83.4376211910634
17.8666831 ,Left ,49.4038549209412 ,50.5271894372425 ,83.4137716223165
17.8967032 ,Left ,49.3960168064225 ,50.5044868179372 ,83.3867262399932
17.9116848 ,Left ,49.3866269329211 ,50.4762444525575 ,83.3482597066625
17.9339697 ,Left ,49.3412338658023 ,50.4407700165087 ,83.3198672578018
17.9490158 ,Left ,49.2932031466582 ,50.3946633892216 ,83.2943476660551
17.9642332 ,Left ,49.2967678009766 ,50.3335850035101 ,83.2786417790361
17.9866501 ,Left ,49.2594921684388 ,50.2736083172985 ,83.2692411458452
18.0091197 ,Left ,49.1749597987311 ,50.2712780039476 ,83.2458126475778
18.0241793 ,Left ,49.0724753268216 ,50.3623521958108 ,83.2439185682971
18.0466023 ,Left ,49.0360574257472 ,50.4338529063171 ,83.2644052921015
18.0690025 ,Left ,49.0670196407589 ,50.4700059470968 ,83.2740581741646
18.0990453 ,Left ,49.0355616056835 ,50.5123249012266 ,83.2679859935334
18.1140041 ,Left ,48.9533568026467 ,50.5615813008415 ,83.2779029417378
18.1438648 ,Left ,48.8170163266368 ,50.6142690144782 ,83.3271117094721
18.1677363 ,Left ,48.7961853763602 ,50.6462807468139 ,83.3785896337983
18.1889595 ,Left ,48.8716709599906 ,50.6296607869514 ,83.4018117872352
18.2040053 ,Left ,48.9227423407315 ,50.5806944206249 ,83.4128259582492
18.2265231 ,Left ,48.9824180961594 ,50.5590662090424 ,83.4206997773554
18.2490692 ,Left ,48.9317606314011 ,50.602444387072 ,83.45022522391
18.2639836 ,Left ,48.9088477997863 ,50.6795341943213 ,83.4756697317222
18.2939128 ,Left ,48.9658059505279 ,50.7351897673201 ,83.5124452540023
18.3165419 ,Left ,49.0296085521999 ,50.7787968485995 ,83.5464454555755
18.3314448 ,Left ,49.0507263545882 ,50.8225194959592 ,83.5750830875842
18.3464451 ,Left ,49.052701606786 ,50.8689080181966 ,83.6103813623768
18.368975 ,Left ,49.0596116784323 ,50.911417012119 ,83.6541288897624
18.3845914 ,Left ,49.070874338633 ,50.9474929450188 ,83.710540451459
18.4064199 ,Left ,49.0925554796546 ,50.9692010641324 ,83.7672099173165
18.4290414 ,Left ,49.1253065660298 ,50.9792067013303 ,83.8265195268814
18.4516189 ,Left ,49.141630192041 ,50.9821192090604 ,83.8783568649868
18.4663982 ,Left ,49.1255078049511 ,50.9760547194519 ,83.9384131468048
18.4891056 ,Left ,49.1098541551861 ,50.9614832248608 ,84.0028038041798
18.5115649 ,Left ,49.1077811607344 ,50.9344382293179 ,84.0683700787606
18.5267433 ,Left ,49.1061164566026 ,50.90542752262 ,84.1238002431959
18.548963 ,Left ,49.1111523580452 ,50.8845941725387 ,84.1835381101875
18.5716185 ,Left ,49.0995007391573 ,50.865775829423 ,84.2409328948136
18.5870332 ,Left ,49.0944598100788 ,50.8504678339114 ,84.2909028608155
18.6091929 ,Left ,49.1256833545014 ,50.8369874942632 ,84.3382033711942
18.6314239 ,Left ,49.1754503573893 ,50.8331761974057 ,84.3737911562162
18.6466968 ,Left ,49.1907279902519 ,50.8394103531705 ,84.398390156529
18.6690262 ,Left ,49.1644987199903 ,50.8563837390573 ,84.4086079164097
18.691672 ,Left ,49.1284099011085 ,50.8791048774808 ,84.4145002143729
18.7063413 ,Left ,49.1279692018494 ,50.8965852190721 ,84.4177218234745
18.7291272 ,Left ,49.1545068760187 ,50.903993712925 ,84.4093435921559
18.7516201 ,Left ,49.1652900591237 ,50.9073347669655 ,84.3933488194537
18.7663497 ,Left ,49.1429654620794 ,50.910683225026 ,84.3771446940939
18.7889634 ,Left ,49.1086275769094 ,50.9120621952507 ,84.3651451280604
18.8116878 ,Left ,49.0774004940836 ,50.919374653016 ,84.3456171511593
18.8267059 ,Left ,49.0884190642434 ,50.9140826781318 ,84.3320096691274
18.849028 ,Left ,49.1074443932871 ,50.9019716404105 ,84.3151839597697
18.8716447 ,Left ,49.0855144670711 ,50.8966684755065 ,84.3033293870338
18.8864943 ,Left ,49.0462357804936 ,50.8953426701834 ,84.2966010993183
18.9164928 ,Left ,49.0420881042403 ,50.8864997322649 ,84.2957034099446
18.9391561 ,Left ,49.0522647848246 ,50.8721269339301 ,84.3000699709285
18.9541559 ,Left ,49.0525064191401 ,50.8482186143569 ,84.3153189571601
18.9765276 ,Left ,49.1093421215511 ,50.8169604609496 ,84.3222502143513
18.9915757 ,Left ,49.055276502184 ,50.8340371993389 ,84.3036527481038
19.0064959 ,Left ,48.9414881285473 ,50.9098360109692 ,84.3000582307929
19.0291675 ,Left ,48.9172965812064 ,50.9891895582734 ,84.2734125784156
19.0526463 ,Left ,49.0335723590571 ,51.0158371013844 ,84.2347173672196
19.0741088 ,Left ,49.181400294941 ,51.0245155088751 ,84.1899239706921
19.0889612 ,Left ,49.2362903057177 ,51.0206222128896 ,84.1332608235567
19.1116563 ,Left ,49.191850352216 ,51.020358305129 ,84.0774151441974
19.1339891 ,Left ,49.1224404737565 ,51.0174780333656 ,84.0289660625057
19.1491075 ,Left ,49.1234260918889 ,50.9953269523294 ,83.9794504545325
19.1714918 ,Left ,49.1810023152774 ,50.9465106713851 ,83.9202797632365
19.186581 ,Left ,49.1962448638308 ,50.8677937270529 ,83.8785859625334
19.2089815 ,Left ,49.2075521925636 ,50.8028485244453 ,83.8719382123121
19.2317179 ,Left ,49.2231326629145 ,50.7515516852391 ,83.8829534060233
19.2466366 ,Left ,49.1644253008745 ,50.7748784598698 ,83.9054370222467
19.2690462 ,Left ,49.1877621062268 ,50.7947951234942 ,83.9329374264734
19.2915608 ,Left ,49.2649576736674 ,50.7996353318266 ,83.9314558631986
19.3066107 ,Left ,49.2517187349016 ,50.8079072053844 ,83.9364662592664
19.3290735 ,Left ,49.1951369582875 ,50.799078847179 ,83.9539218006504
19.3524583 ,Left ,49.1705488577635 ,50.7788334149095 ,83.9488376057386
19.3666904 ,Left ,49.1865484583179 ,50.7299414457412 ,83.9515290540901
19.3889311 ,Left ,49.196737737139 ,50.6801732101799 ,83.9635480583223
19.4115159 ,Left ,49.2137672443672 ,50.6696184316767 ,83.9669119162984
19.4342745 ,Left ,49.252319008791 ,50.7222452063094 ,83.9951576303907
19.4489597 ,Left ,49.2984242925097 ,50.7457460060427 ,84.034547620558
19.4714929 ,Left ,49.2856753471196 ,50.7545077457592 ,84.0597094264325
19.4940212 ,Left ,49.2070688838066 ,50.7692674279946 ,84.0696030051613
19.508902 ,Left ,49.1360489107538 ,50.7750971428297 ,84.0913869091234
19.531567 ,Left ,49.1616174961832 ,50.7583361446211 ,84.1149804614513
19.5540395 ,Left ,49.2328958124194 ,50.7130154257968 ,84.1168202248487
19.5690431 ,Left ,49.1866706842714 ,50.6679156661137 ,84.1170795035037
19.5916931 ,Left ,49.1450712453663 ,50.6188294527118 ,84.1251150091747
19.6141869 ,Left ,49.2108963859384 ,50.5855052245756 ,84.0915430434797
19.6290088 ,Left ,49.1613192031231 ,50.6377379582664 ,84.0602427354255
19.6516109 ,Left ,49.1459477885776 ,50.7133538361426 ,84.0455245015703
19.6747857 ,Left ,49.1589281799469 ,50.7445310117524 ,84.0209815111004
19.6890215 ,Left ,49.1676706756034 ,50.7665925964076 ,83.9857735251489
19.7115617 ,Left ,49.2032004053678 ,50.7879542263696 ,83.9479849688313
19.7341507 ,Left ,49.2217599418918 ,50.795492293215 ,83.903722270578
19.7490355 ,Left ,49.2103992641252 ,50.8041524277065 ,83.8486352684443
19.7716827 ,Left ,49.191352073997 ,50.8062419849134 ,83.7894369213981
19.7941315 ,Left ,49.2085991039506 ,50.7997679526988 ,83.7403464133741
19.8088963 ,Left ,49.2523792699909 ,50.7813878430417 ,83.683157415697
19.8314566 ,Left ,49.2818507158668 ,50.7527252741241 ,83.6194738622038
19.8541218 ,Left ,49.3004052246983 ,50.7202734550407 ,83.5624167745145
19.8690049 ,Left ,49.2628373324582 ,50.6803004437805 ,83.4972529241017
19.8915988 ,Left ,49.2268820102976 ,50.6298846034081 ,83.4348559458532
19.9215321 ,Left ,49.2020693731054 ,50.5722965543547 ,83.3793578740422
19.9368688 ,Left ,49.1754506540048 ,50.490946106279 ,83.3220264526625
19.9590507 ,Left ,49.1300436753479 ,50.3964535464651 ,83.2770169243062
19.9665298 ,Left ,49.084104152448 ,50.2932176272964 ,83.2680830324827
19.9815042 ,Left ,49.027248543878 ,50.2665636705174 ,83.2516186870202
20.0040342 ,Left ,48.9985690486493 ,50.335536188743 ,83.2587526078202
20.0338134 ,Left ,49.0161929544386 ,50.4497613998517 ,83.2840582272244
20.0717019 ,Left ,49.1657542123246 ,50.5569042403209 ,83.3015913712418
20.0864358 ,Left ,49.1118350354238 ,50.5951188057618 ,83.2891988846037
20.1253803 ,Left ,48.9203267963311 ,50.6618043114545 ,83.2872763758686
20.1466808 ,Left ,48.8219891323742 ,50.6928538203526 ,83.2992563566383
20.1914295 ,Left ,48.8640464607319 ,50.7141493569288 ,83.3634269971671
20.2139635 ,Left ,48.9219673678941 ,50.6644521218843 ,83.3653201896835
20.2289142 ,Left ,48.9271021521524 ,50.6565208509286 ,83.3801952170581
20.2438574 ,Left ,48.8622185089446 ,50.6894001332957 ,83.4066747201878
20.2739565 ,Left ,48.8666960999732 ,50.7732477211953 ,83.43093451246
20.2889671 ,Left ,48.9429448199246 ,50.8265810817291 ,83.4669619665132
20.3191338 ,Left ,49.0040817167128 ,50.8599319376583 ,83.5086468429855
20.3340962 ,Left ,48.9876195455939 ,50.8849094886495 ,83.5573033219202
20.3488995 ,Left ,48.9549214158853 ,50.90750876892 ,83.6101974204863
20.3639268 ,Left ,48.939973402085 ,50.9268375630362 ,83.6664954762775
20.3864859 ,Left ,48.9407676862234 ,50.9461709331285 ,83.7253025753577
20.4014752 ,Left ,48.9794116249129 ,50.9574156681197 ,83.7777773670321
20.424062 ,Left ,49.0564532349718 ,50.9586915246679 ,83.822863397851
20.4464184 ,Left ,49.1292928476096 ,50.9596195538083 ,83.8699176367982
20.4615383 ,Left ,49.179558341357 ,50.9612647584041 ,83.9211672942949
20.4839204 ,Left ,49.201217664779 ,50.9780924367171 ,83.9690016521499
20.5066429 ,Left ,49.2163107359656 ,51.0111741093229 ,84.0187254656682
20.5216345 ,Left ,49.2494301892769 ,51.0518208196076 ,84.0679284796827
20.5440106 ,Left ,49.3064715316754 ,51.0853632608025 ,84.1176759472576
20.5815282 ,Left ,49.4080197299039 ,51.1383382427092 ,84.210118145652
20.604253 ,Left ,49.426996856179 ,51.1640159854423 ,84.252204376325
20.6416948 ,Left ,49.4692118219961 ,51.1909014620942 ,84.3321828215047
20.6641379 ,Left ,49.5031040903433 ,51.189042512515 ,84.3768314673451
20.7014978 ,Left ,49.5102039887146 ,51.1771326821119 ,84.4420019156063
20.724136 ,Left ,49.5043047736538 ,51.1738630643384 ,84.4673610903921
20.7616774 ,Left ,49.5142311529907 ,51.1745788612029 ,84.5007449972093
20.7841229 ,Left ,49.5278080131875 ,51.1707148942876 ,84.5128447565258
20.8214892 ,Left ,49.480586311801 ,51.165487703972 ,84.525408420315
20.8441482 ,Left ,49.4391142911795 ,51.1611602045895 ,84.5296524961631
20.8816392 ,Left ,49.4453833815995 ,51.1248744841907 ,84.5359438661445
20.9039986 ,Left ,49.4632998959456 ,51.0947282278246 ,84.5307250690678
20.9415503 ,Left ,49.4325724071199 ,51.0565604072286 ,84.5235180280529
20.9644678 ,Left ,49.4154439391985 ,51.0387014585896 ,84.5187808806324
21.0019367 ,Left ,49.397458971484 ,51.0467809062583 ,84.5067079970137
21.0242723 ,Left ,49.4116536479549 ,51.0564538064771 ,84.4952141997618
21.061669 ,Left ,49.4256422339764 ,51.0726677704563 ,84.4582355096885
21.0840539 ,Left ,49.4099777671686 ,51.0709060708715 ,84.430045006816
21.1215483 ,Left ,49.319453951394 ,51.0711204738691 ,84.3793760789886
21.1439532 ,Left ,49.2833793562529 ,51.0627656749662 ,84.3594340996528
21.1815875 ,Left ,49.2431135398353 ,51.0277524631569 ,84.3214770750362
21.2047577 ,Left ,49.2542678061333 ,50.9983709322913 ,84.3163362516036
21.2415853 ,Left ,49.206891516075 ,50.9553433053157 ,84.3190716077958
21.2716139 ,Left ,49.1905975437421 ,50.9597065121593 ,84.3029018087669
21.3019877 ,Left ,49.0871473042174 ,51.0385074049434 ,84.271314818663
21.3317499 ,Left ,49.2323327148432 ,51.1164140862907 ,84.2171844839059
21.3466924 ,Left ,49.3375811774731 ,51.1223146130144 ,84.1724393639324
21.3841467 ,Left ,49.3391559769536 ,51.136373223961 ,84.0867650312532
21.4065203 ,Left ,49.270135608877 ,51.1295620697924 ,84.0470820890373
21.4439488 ,Left ,49.2400565412836 ,51.0348962290471 ,83.9503817076121
21.4893843 ,Left ,49.3059315952938 ,50.8753318717837 ,83.8925467915647
21.5414509 ,Left ,49.2734692188394 ,50.9177773339257 ,83.9459023578493
21.5714187 ,Left ,49.3259723787473 ,50.9156113232058 ,83.950627470566
21.6088623 ,Left ,49.2799723205428 ,50.8792884817252 ,83.9650821745906
21.6241605 ,Left ,49.2678901251311 ,50.8280698446212 ,83.9533143703195
21.6615213 ,Left ,49.2623968833008 ,50.7604630386474 ,83.9357298166701
21.6916169 ,Left ,49.2540188697807 ,50.8293499870236 ,83.9574209018448
21.7290837 ,Left ,49.3947460647537 ,50.885044522435 ,84.0322098685948
21.7666518 ,Left ,49.2344204493637 ,50.8838129501649 ,84.0511598355913
21.7966813 ,Left ,49.1663973582084 ,50.8293705291911 ,84.0963119378454
21.8191535 ,Left ,49.2005394346519 ,50.7550163128285 ,84.1015114020309
21.8416452 ,Left ,49.1914316391425 ,50.6901783910235 ,84.0958371319983
21.8567384 ,Left ,49.1781677856715 ,50.6252612642054 ,84.0930927553311
21.8791852 ,Left ,49.2800627907621 ,50.5785178705739 ,84.0568828265174
21.8940229 ,Left ,49.1709750626277 ,50.6181278800439 ,84.0276695417792
21.9166159 ,Left ,49.1127384548996 ,50.6991760110731 ,84.0171513161245
21.9392 ,Left ,49.1544700851679 ,50.7351463208184 ,84.0009392694336
21.9616883 ,Left ,49.217629190988 ,50.7518507209017 ,83.9790382136189
21.976678 ,Left ,49.2467390893988 ,50.7652387464581 ,83.9440388221687
21.9990436 ,Left ,49.2685547630048 ,50.7636465196373 ,83.910595776447
22.0138752 ,Left ,49.2734894839721 ,50.7636795227699 ,83.8630723773117
22.0365934 ,Left ,49.2502364685305 ,50.7703163060162 ,83.8154623582686
22.0591474 ,Left ,49.2532494289056 ,50.7737376780074 ,83.7680317862434
22.0814781 ,Left ,49.305840558521 ,50.76048654425 ,83.7257324852874
22.0966939 ,Left ,49.3787937872377 ,50.7385971297406 ,83.6738202358349
22.1191164 ,Left ,49.4162584114244 ,50.7125419367314 ,83.6209040121244
22.1341442 ,Left ,49.4039762835986 ,50.6918657097761 ,83.569497701289
22.1565392 ,Left ,49.377656819607 ,50.6609590573217 ,83.5255630385073
22.1791322 ,Left ,49.3352251215181 ,50.6229311611529 ,83.478499982041
22.1944503 ,Left ,49.2754045510521 ,50.5725676842512 ,83.4359186797317
22.2166581 ,Left ,49.2500242338513 ,50.4903436724698 ,83.40542159932
22.2389713 ,Left ,49.2252459455025 ,50.3883625307833 ,83.3870578725816
22.2616419 ,Left ,49.1993388106468 ,50.3082986741818 ,83.3794656906655
22.276381 ,Left ,49.2407223240682 ,50.2665373421384 ,83.3516850456195
22.2991064 ,Left ,49.1484176850172 ,50.3205936355371 ,83.3306055058501
22.3215448 ,Left ,49.1165198242447 ,50.4033716524583 ,83.3386231460122
22.336515 ,Left ,49.165287663279 ,50.4472601543885 ,83.3407299786438
22.3588845 ,Left ,49.1851750230574 ,50.4741701624738 ,83.3245993080567
22.3816583 ,Left ,49.1400799757137 ,50.4973421746459 ,83.3148210916591
22.396578 ,Left ,49.0780428178445 ,50.5154355629134 ,83.3167621646306
22.4204784 ,Left ,49.0006593005821 ,50.5403297622194 ,83.3146767926059
22.4416376 ,Left ,48.9714286831115 ,50.5529297615283 ,83.3279489034647
22.4566763 ,Left ,48.9699824748936 ,50.5208290525988 ,83.3350795681787
22.4791059 ,Left ,48.935875261798 ,50.4942714871543 ,83.3303122040588
22.5017377 ,Left ,48.8284175083967 ,50.5120604502108 ,83.3735245421593
22.5164905 ,Left ,48.8566088716962 ,50.57248948966 ,83.4352727525053
22.5390992 ,Left ,48.9941826919627 ,50.631860269673 ,83.4723005047311
22.5619184 ,Left ,49.1295003369833 ,50.6716023703367 ,83.5082362067781
22.5789432 ,Left ,49.2089794735268 ,50.6948726602313 ,83.53765475768
22.5991274 ,Left ,49.1694794058184 ,50.7264576050357 ,83.5614360519996
22.6215815 ,Left ,49.1129505635791 ,50.7528278416661 ,83.5837172141581
22.6368928 ,Left ,49.0774328086401 ,50.777806354307 ,83.6084390084097
22.6590762 ,Left ,49.0751989562913 ,50.8038367216228 ,83.640602504622
22.6816835 ,Left ,49.1216119843615 ,50.819354070509 ,83.6795231739203
22.7040578 ,Left ,49.192429267393 ,50.8304913261936 ,83.710375709343
22.726573 ,Left ,49.2537161253567 ,50.8429552621664 ,83.7479418062922
22.7566394 ,Left ,49.3021936551446 ,50.85721891982 ,83.8240580605087
22.7792782 ,Left ,49.3091237743164 ,50.8635686510862 ,83.8641526460909
22.8014287 ,Left ,49.3118548483243 ,50.8653011647328 ,83.9009626305959
22.816356 ,Left ,49.3276220752673 ,50.8676224807259 ,83.9403166102967
22.8390367 ,Left ,49.3601559270556 ,50.8679653297492 ,83.9816988329631
22.8615088 ,Left ,49.3785721837409 ,50.869423778612 ,84.0211807975342
22.8766654 ,Left ,49.3794278496387 ,50.8745491306952 ,84.0605244972923
22.8989274 ,Left ,49.379144229356 ,50.8855904776249 ,84.0942528284898
22.9216232 ,Left ,49.3840337098298 ,50.895061666289 ,84.1262232864924
22.9363421 ,Left ,49.3773248398413 ,50.9092143501446 ,84.1515181668815
22.9589579 ,Left ,49.3505123912614 ,50.9279447232097 ,84.177538546384
22.9817461 ,Left ,49.3247816992222 ,50.9451700144658 ,84.210174767113
22.9967203 ,Left ,49.3144191605678 ,50.9706783448344 ,84.2397582913134
23.0191055 ,Left ,49.3041007701367 ,50.9962091324609 ,84.2693717709255
23.0415275 ,Left ,49.305953644319 ,51.01941544021 ,84.2949304976725
23.0566769 ,Left ,49.3087583809436 ,51.0364671772773 ,84.3162627519194
23.0790627 ,Left ,49.28974009477 ,51.0483866318943 ,84.3297284725358
23.1017126 ,Left ,49.2506797313777 ,51.0606435964288 ,84.3429217712831
23.1165575 ,Left ,49.2343861356212 ,51.0718986965852 ,84.359733866889
23.1389672 ,Left ,49.2319159831612 ,51.0772491067668 ,84.3682191280911
23.1616702 ,Left ,49.2302416843806 ,51.0852335890091 ,84.3767286056141
23.1842293 ,Left ,49.2043016872934 ,51.0890217942153 ,84.3825446545338
23.1989828 ,Left ,49.1993170081817 ,51.0909177028593 ,84.3933329873297
23.221551 ,Left ,49.2253484336514 ,51.0870497138276 ,84.3861233380559
23.2442693 ,Left ,49.2398508560192 ,51.079297407902 ,84.3725877025216
23.2591817 ,Left ,49.2273076826723 ,51.068039816216 ,84.3520780738478
23.2814504 ,Left ,49.1809414356614 ,51.0541800249312 ,84.3344736895195
23.3040748 ,Left ,49.1485743445783 ,51.0279475777252 ,84.3307984791387
23.3188805 ,Left ,49.1586945451406 ,50.9758902961364 ,84.3257179804373
23.3417135 ,Left ,49.209132434745 ,50.896791162993 ,84.3054545153063
23.3718764 ,Left ,49.0694576785327 ,50.8787419447266 ,84.2704024982346
23.3865959 ,Left ,48.8659505368386 ,50.9327544664586 ,84.2706014067191
23.4090135 ,Left ,48.8783346349393 ,51.0276370818377 ,84.26074413072
23.4241924 ,Left ,49.0305642716135 ,51.0982287030661 ,84.2278868508267
23.438972 ,Left ,49.2101164007976 ,51.1307342192724 ,84.1910585784633
23.4615079 ,Left ,49.3352312792252 ,51.1409155357736 ,84.149082576916
23.4840773 ,Left ,49.3288958427704 ,51.1395721392792 ,84.0926672181655
23.4991461 ,Left ,49.2346135977845 ,51.1300970256899 ,84.0516560358312
23.529087 ,Left ,49.1830843720384 ,51.0949975664108 ,84.0096076665216
23.5517339 ,Left ,49.1929197499967 ,51.0400048186247 ,83.9516575973104
23.566538 ,Left ,49.2503344766502 ,50.9491544674938 ,83.9125131927278
23.5816904 ,Left ,49.2928515682292 ,50.8347333884557 ,83.8915065602793
23.6041263 ,Left ,49.3208879505383 ,50.7589618888258 ,83.873184071406
23.6266188 ,Left ,49.2025540987952 ,50.760075077729 ,83.8753846952112
23.6415381 ,Left ,49.1387067614146 ,50.8206119726615 ,83.8976490156432
23.6642555 ,Left ,49.241687207686 ,50.8489151925489 ,83.9204731381248
23.6791248 ,Left ,49.3340164465425 ,50.8665382396708 ,83.9170274705331
23.7017029 ,Left ,49.312645922494 ,50.8904456887222 ,83.9369323062998
23.7240391 ,Left ,49.2929805082206 ,50.8907808451673 ,83.9493316524389
23.7465642 ,Left ,49.2480479252836 ,50.8792454902939 ,83.9423696068579
23.7614486 ,Left ,49.211598030668 ,50.8279602472972 ,83.9329196878778
23.7841496 ,Left ,49.2061930003281 ,50.7557859315483 ,83.9080190358819
23.7991071 ,Left ,49.300062711255 ,50.7053124338877 ,83.8881460380458
23.8233612 ,Left ,49.2651373489115 ,50.7172024308387 ,83.9023573979112
23.843964 ,Left ,49.244955026595 ,50.7442679515186 ,83.9432013916256
23.8589584 ,Left ,49.2632221981198 ,50.7523032517546 ,83.9582063944871
23.8816431 ,Left ,49.2354867929764 ,50.7793481930084 ,83.9715051348806
23.9116877 ,Left ,49.1995450209678 ,50.797497733235 ,83.9890039679838
23.9265099 ,Left ,49.2106877222418 ,50.7904782141311 ,84.0049687039264
23.9491428 ,Left ,49.22678392779 ,50.7616076921943 ,84.0093449448888
23.9791027 ,Left ,49.1227618503511 ,50.6617218272917 ,83.968905301475
24.0017064 ,Left ,49.1853255493537 ,50.5961676659248 ,83.9624575273401
24.026569 ,Left ,49.1977818407906 ,50.5513216837223 ,83.9227430692397
24.0391234 ,Left ,49.0751011795966 ,50.6185540212149 ,83.8935282678581
24.0692378 ,Left ,49.0935969131995 ,50.6886262687752 ,83.8818994974224
24.0916905 ,Left ,49.1813631747724 ,50.7169132773408 ,83.8555699727813
24.1139911 ,Left ,49.2221207261026 ,50.7414000620932 ,83.8229423784509
24.1291926 ,Left ,49.2184213102541 ,50.765650694251 ,83.7879089860006
24.1440875 ,Left ,49.170873221431 ,50.7765587133234 ,83.75284131864
24.1666655 ,Left ,49.1473338577264 ,50.7762286692148 ,83.7146534649173
24.1813969 ,Left ,49.140512747245 ,50.7697221194709 ,83.6772127460434
24.2041321 ,Left ,49.1328335541657 ,50.7648505425234 ,83.6382838142033
24.2265643 ,Left ,49.1527999896915 ,50.7511813040004 ,83.6093110379396
24.2414048 ,Left ,49.1648892930077 ,50.7397734041201 ,83.5812138282604
24.2639343 ,Left ,49.168607106362 ,50.7236139602799 ,83.5540305246166
24.2866075 ,Left ,49.1930476522959 ,50.7102890442755 ,83.5259914654587
24.3017097 ,Left ,49.1955386707092 ,50.7001704323196 ,83.4979458582963
24.3241434 ,Left ,49.1865735438813 ,50.6946859565388 ,83.471609618133
24.3467091 ,Left ,49.1812210700727 ,50.6868404520486 ,83.4477297680705
24.3616732 ,Left ,49.1918629532801 ,50.6747482566825 ,83.4271648457473
24.3843128 ,Left ,49.2009224213238 ,50.6570981139393 ,83.3959829975298
24.4066711 ,Left ,49.1787847625153 ,50.6506216379025 ,83.361517940687
24.4213836 ,Left ,49.153653625713 ,50.653707536871 ,83.3352584821119
24.451702 ,Left ,49.1664390977761 ,50.64951780775 ,83.3114226631809
24.4815257 ,Left ,49.1793151961797 ,50.640797884494 ,83.2794268272132
24.4966336 ,Left ,49.1845608946209 ,50.6299083379283 ,83.2483324155997
24.5117158 ,Left ,49.1920148955202 ,50.6113101560661 ,83.2164961082834
24.5265882 ,Left ,49.1556755515679 ,50.5828056003071 ,83.179258751033
24.5416771 ,Left ,49.1155888621867 ,50.5452381387664 ,83.1414966461543
24.5641604 ,Left ,49.057665126584 ,50.4928052560958 ,83.1166141417191
24.5865952 ,Left ,49.0596719088623 ,50.4079947969244 ,83.1017162766982
24.6016423 ,Left ,49.0702864943746 ,50.3124129851655 ,83.0862857754096
24.6388076 ,Left ,48.955888231553 ,50.254603663231 ,83.100319866387
24.661725 ,Left ,48.9006718111794 ,50.2716476705496 ,83.0953228635299
24.6840524 ,Left ,48.9594868818374 ,50.4486012286549 ,83.1096587273372
24.7067039 ,Left ,48.9995981620469 ,50.4992185502253 ,83.1106148442169
24.7291949 ,Left ,48.9803757241469 ,50.5399038159496 ,83.1150253652667
24.7441807 ,Left ,48.9477279637762 ,50.5615530613031 ,83.1240019832399
24.7664859 ,Left ,48.8636857601571 ,50.5823944463114 ,83.1311718551144
24.7816674 ,Left ,48.7298705847983 ,50.6020785440456 ,83.168696451861
24.8041911 ,Left ,48.726655184569 ,50.5944495491295 ,83.2024948247691
24.8266646 ,Left ,48.7417963408783 ,50.538185085151 ,83.2101497256268
24.8489606 ,Left ,48.7742049693244 ,50.5039943465839 ,83.243189639518
24.8639413 ,Left ,48.8027856899291 ,50.4875028233218 ,83.2668961542724
24.8869421 ,Left ,48.7932826040286 ,50.5588669909239 ,83.2809687196599
24.9090793 ,Left ,48.8651609322916 ,50.6302996016961 ,83.3048083371026
24.9241184 ,Left ,48.9743040574178 ,50.6805301052872 ,83.3358614105303
24.9466601 ,Left ,49.0242456882199 ,50.7119032200923 ,83.3541024062805
24.9631271 ,Left ,48.9908628305736 ,50.7623737646449 ,83.3594764008941
24.9841276 ,Left ,48.9706283258216 ,50.8294536478018 ,83.3696130497172
25.0066848 ,Left ,48.9539103241379 ,50.8830003766465 ,83.3856279139495
25.0291438 ,Left ,48.9585857245915 ,50.9309215228066 ,83.4050175009214
25.0515429 ,Left ,49.0237526789105 ,50.9752674130915 ,83.4247180441199
25.0890553 ,Left ,49.1184642312536 ,51.0458078740397 ,83.4870815997161
25.1041723 ,Left ,49.1192691524195 ,51.0757448041505 ,83.5318103952013
25.1266151 ,Left ,49.1179644545743 ,51.1022862305402 ,83.5840316358948
25.1490784 ,Left ,49.1418507510352 ,51.1206910226054 ,83.6440681300547
25.1641131 ,Left ,49.1691250701105 ,51.129863309245 ,83.7141184368376
25.1941562 ,Left ,49.1915072879075 ,51.1361057383301 ,83.7860099336878
25.216679 ,Left ,49.2136453321957 ,51.1309271608962 ,83.8588898646877
25.2315166 ,Left ,49.2349842646827 ,51.1230987146062 ,83.9342845067211
25.2467316 ,Left ,49.2503989114281 ,51.1097340533705 ,84.0096955908731
25.2766263 ,Left ,49.2557985624997 ,51.0974349403882 ,84.0742978619169
25.2915662 ,Left ,49.2715649449269 ,51.0819043409089 ,84.1349239347221
25.3289621 ,Left ,49.2965888440899 ,51.060511085991 ,84.2352411745001
25.343934 ,Left ,49.304762360924 ,51.0407264942665 ,84.2766606721752
25.3666638 ,Left ,49.2916902114606 ,51.0228431605248 ,84.3126589757576
25.3889645 ,Left ,49.2632769520184 ,51.0165899563068 ,84.3419688357194
25.4039738 ,Left ,49.2637743479983 ,51.0016553112511 ,84.3730545055838
25.4265961 ,Left ,49.2908875119277 ,50.989761743407 ,84.3936497445051
25.4491126 ,Left ,49.3099380832018 ,50.9801548814531 ,84.4099102789653
25.4638331 ,Left ,49.2952432337596 ,50.9834323729131 ,84.4172876916134
25.4863068 ,Left ,49.2777376260402 ,50.9917104616096 ,84.4190119942129
25.5089184 ,Left ,49.3007591239228 ,51.0017667596523 ,84.4141321508044
25.5240142 ,Left ,49.3113100655445 ,51.0139583010129 ,84.4015712209512
25.5465917 ,Left ,49.3020218838045 ,51.0266055443509 ,84.3939543582384
25.5698557 ,Left ,49.2831083097787 ,51.0406610169381 ,84.3838647445804
25.5838218 ,Left ,49.2544531328685 ,51.051813808101 ,84.3707689929697
25.6065362 ,Left ,49.2320734014971 ,51.0595612913575 ,84.3563582698337
25.6289629 ,Left ,49.2287650639678 ,51.0599445601334 ,84.3383792350923
25.6439852 ,Left ,49.2264603317981 ,51.0586207702153 ,84.3213671320276
25.6663997 ,Left ,49.1976259214061 ,51.0496012720397 ,84.3068484970765
25.6890376 ,Left ,49.1342432641321 ,51.0354018546252 ,84.2986032388717
25.7049953 ,Left ,49.0587919921801 ,51.0082537831366 ,84.3074403223622
25.7189188 ,Left ,49.0812221385021 ,50.971806833739 ,84.3194949916266
25.7489487 ,Left ,49.1376849474526 ,50.9293898228471 ,84.3331835454276
25.7638123 ,Left ,49.1831674140319 ,50.9382436313743 ,84.3231172633317
25.8015509 ,Left ,49.1784963010182 ,51.0789234971224 ,84.2831298297339
25.8165209 ,Left ,49.2634097406808 ,51.1112328713509 ,84.253850829465
25.8391627 ,Left ,49.3499431046741 ,51.1224012729865 ,84.201317111115
25.861489 ,Left ,49.3510992660583 ,51.122925156408 ,84.1365409038016
25.8765717 ,Left ,49.3205587974178 ,51.1172586734648 ,84.0796832510835
25.8992083 ,Left ,49.267048847779 ,51.1056630809395 ,84.0333310445772
25.9234717 ,Left ,49.2237564255221 ,51.0705192189485 ,83.9755052584817
25.9380768 ,Left ,49.2228633664187 ,51.0139442801678 ,83.9024995254192
25.9589989 ,Left ,49.2619872940955 ,50.9351555689283 ,83.8473984299166
25.981701 ,Left ,49.2188435017857 ,50.8308379322244 ,83.8202268957749
25.9964747 ,Left ,49.2578812742475 ,50.7367753309756 ,83.8179931719637
26.0266605 ,Left ,49.2316788501425 ,50.6953151471778 ,83.80648280462
26.0490813 ,Left ,49.1474949389218 ,50.7400045284439 ,83.8288077568562
26.0791066 ,Left ,49.2778690373555 ,50.783896345264 ,83.8639498430379
26.1016965 ,Left ,49.266837395206 ,50.8045844908142 ,83.8764110233569
26.1166322 ,Left ,49.2385730547264 ,50.8001767387808 ,83.8879319255847
26.1401756 ,Left ,49.2280839648688 ,50.7787537525966 ,83.8837637282373
26.1615211 ,Left ,49.2257373569858 ,50.7307596767801 ,83.8821556864132
26.1765268 ,Left ,49.18612368114 ,50.6975779160933 ,83.8748291899908
26.1990766 ,Left ,49.1991660629379 ,50.6981309102836 ,83.8748306530547
26.2215243 ,Left ,49.2341700666018 ,50.7444557499138 ,83.8946780869907
26.2366134 ,Left ,49.2797578828971 ,50.7566354464139 ,83.9274307455121
26.2589998 ,Left ,49.2763517085068 ,50.7638048872172 ,83.9432658781215
26.3038815 ,Left ,49.1217675239631 ,50.7967136499156 ,83.9747262289788
26.3267344 ,Left ,49.1391491663092 ,50.7864972347059 ,83.990712356625
26.356515 ,Left ,49.1524053644711 ,50.7029863518802 ,84.0053834710764
26.386644 ,Left ,49.1316310500349 ,50.6315983580463 ,84.0009660570994
26.4390609 ,Left ,49.056419016598 ,50.6420164499792 ,83.9193737633781
26.4614184 ,Left ,49.0945014646991 ,50.7006412937516 ,83.9060095392684
26.4989291 ,Left ,49.2035630014927 ,50.7556934537466 ,83.8362641001945
26.5215928 ,Left ,49.1698059379024 ,50.7899837203966 ,83.8043634455358
26.5591202 ,Left ,49.1002365720657 ,50.8168062228416 ,83.7202650176466
26.5966653 ,Left ,49.1493140364897 ,50.8032270381487 ,83.6431140468275
26.6191385 ,Left ,49.1542381998709 ,50.7876473220192 ,83.6025382621371
26.6567 ,Left ,49.1230145670907 ,50.7667773206646 ,83.5314592768578
26.6790771 ,Left ,49.1289672996408 ,50.7585653822119 ,83.5051210696411
26.7165049 ,Left ,49.1740939430973 ,50.7232146458465 ,83.4557474199171
26.7389556 ,Left ,49.1832780993355 ,50.7058097713329 ,83.4352118175329
26.7764837 ,Left ,49.2412187264797 ,50.6802038316955 ,83.3908604315513
26.7990912 ,Left ,49.2445868504569 ,50.6839737393474 ,83.3563033522333
26.8439756 ,Left ,49.2401464294493 ,50.70313044817 ,83.2904823164581
26.86634 ,Left ,49.2403282511151 ,50.7006071096895 ,83.2552074539323
26.9266156 ,Left ,49.1746443116012 ,50.6565457738615 ,83.1523386984098
26.9645541 ,Left ,49.088797167629 ,50.5853591541932 ,83.1117561187799
26.9792279 ,Left ,49.0772172190884 ,50.5244665478556 ,83.1118552095341
27.0165972 ,Left ,49.0626603006829 ,50.4525727489602 ,83.1000727864209
27.0390866 ,Left ,48.9565865588022 ,50.5366374497303 ,83.0892195121945
27.061626 ,Left ,48.9116808298047 ,50.6097404293905 ,83.0982247655237
27.0991313 ,Left ,48.9473701307409 ,50.6710191511056 ,83.086292187081
27.1293266 ,Left ,48.9125383961071 ,50.6957215519716 ,83.0870160085543
27.1666709 ,Left ,48.6933800577485 ,50.7307378351024 ,83.1311864291892
27.1817312 ,Left ,48.6403893007473 ,50.7486228354758 ,83.1839156425293
27.2266713 ,Left ,48.7250547752227 ,50.6734109016462 ,83.2409147630045
27.2566473 ,Left ,48.7812385881247 ,50.6260017734049 ,83.2780691984146
27.2863455 ,Left ,48.8613660697591 ,50.6737022756294 ,83.3320281488477
27.3165883 ,Left ,49.0029018845354 ,50.7678151500004 ,83.4013387520453
27.3404552 ,Left ,49.0791134240282 ,50.789552508236 ,83.4314890113871
27.3765131 ,Left ,49.1179014667503 ,50.8504623714495 ,83.4790483708826
27.406666 ,Left ,49.1214395113754 ,50.8865421309649 ,83.5194371058363
27.4441308 ,Left ,49.2283910647783 ,50.9459467773893 ,83.6209718016771
27.4966549 ,Left ,49.2909922386255 ,51.013284707236 ,83.7772275570643
27.5116979 ,Left ,49.2704273254494 ,51.0310659858379 ,83.8379412179413
27.5340968 ,Left ,49.2772839411055 ,51.0396130255827 ,83.8981730777635
27.5489529 ,Left ,49.3012386186419 ,51.0530885984315 ,83.9545803539461
27.5719965 ,Left ,49.3301976664385 ,51.0536149401429 ,84.0120083789856
27.5940941 ,Left ,49.3211710839447 ,51.0466554148288 ,84.0722011555179
27.6090359 ,Left ,49.2867248660413 ,51.0369591404506 ,84.1246074079203
27.6315174 ,Left ,49.2651540177105 ,51.0277153890299 ,84.1730827913791
27.6540536 ,Left ,49.2554028729214 ,51.0203926452044 ,84.2109780688639
27.6687961 ,Left ,49.2837895715995 ,51.0116257422703 ,84.2465824632341
27.6916134 ,Left ,49.3048177316429 ,51.0032002661296 ,84.2703532398639
27.7140429 ,Left ,49.2791257822223 ,51.0071464016792 ,84.2869858627482
27.7366712 ,Left ,49.249732465004 ,51.0179780385428 ,84.3036140778328
27.7513759 ,Left ,49.241901568311 ,51.0292683481929 ,84.312981041544
27.7740907 ,Left ,49.2321402153598 ,51.0395330509204 ,84.3171338234066
27.796669 ,Left ,49.2312147947061 ,51.0412478180168 ,84.3171275867808
27.8191225 ,Left ,49.2430658670141 ,51.0475812721643 ,84.3130588115096
27.8415871 ,Left ,49.234647872518 ,51.0540262456793 ,84.3011929081934
27.8564691 ,Left ,49.205175071648 ,51.0623737260171 ,84.2857702063743
27.871474 ,Left ,49.1748266867229 ,51.0680470658938 ,84.2694023964649
27.8940628 ,Left ,49.1506148430187 ,51.0702994683226 ,84.2498240020456
27.9164885 ,Left ,49.1377498627896 ,51.072004115773 ,84.2303872626151
27.9314524 ,Left ,49.1267307557043 ,51.0703539008545 ,84.2133373776433
27.9542538 ,Left ,49.1213863849843 ,51.0629035346651 ,84.2015207687689
27.9765601 ,Left ,49.1093621607371 ,51.0474009964942 ,84.1896481961113
27.9913534 ,Left ,49.1062716616993 ,51.0235431594412 ,84.179317513408
28.0141304 ,Left ,49.1031576636883 ,50.9930910403961 ,84.1835665064701
28.0365076 ,Left ,49.1059892881521 ,50.9528892780876 ,84.2053220063288
28.051682 ,Left ,49.143013445205 ,50.9176074827229 ,84.2089531441251
28.0741311 ,Left ,49.1865090914633 ,50.9254321495727 ,84.1880995597961
28.0966058 ,Left ,49.1226184231755 ,50.9969494532636 ,84.1733972235143
28.1116393 ,Left ,49.1007362306543 ,51.055597912308 ,84.1491642557105
28.1340755 ,Left ,49.176007821329 ,51.0762388685048 ,84.1077867861829
28.1565266 ,Left ,49.2598098397528 ,51.0884247722113 ,84.0541660475723
28.1716642 ,Left ,49.2673756344788 ,51.0901649714304 ,84.0005107485064
28.1940719 ,Left ,49.2197031739732 ,51.0970896461564 ,83.9647868326042
28.2164102 ,Left ,49.1758371933806 ,51.0816156442898 ,83.9365939076338
28.2314671 ,Left ,49.2109683997598 ,51.0428866618325 ,83.8958671520522
28.2539076 ,Left ,49.2501261729946 ,50.9686934327346 ,83.8515317866589
28.2764947 ,Left ,49.2546445450269 ,50.8708203621757 ,83.8254779462029
28.2916557 ,Left ,49.3176499037672 ,50.7967059325698 ,83.8107198761184
28.3141304 ,Left ,49.2595469743449 ,50.7887454117033 ,83.8038169994424
28.3364667 ,Left ,49.2013200535811 ,50.8544687579208 ,83.8218662660367
28.3516877 ,Left ,49.2827816138321 ,50.8777046911365 ,83.8457161831445
28.3738455 ,Left ,49.3481594395875 ,50.8917654140496 ,83.8412902081147
28.3965191 ,Left ,49.315412641108 ,50.9114861388113 ,83.8535557732512
28.4116507 ,Left ,49.2708788609465 ,50.9046216570053 ,83.8665628029279
28.4341094 ,Left ,49.2598709338621 ,50.8917846541511 ,83.8580862072792
28.4565936 ,Left ,49.25875876152 ,50.8378228582903 ,83.8595789961798
28.4716279 ,Left ,49.2681850695219 ,50.7807549328024 ,83.8579258606576
28.4939412 ,Left ,49.3343105743917 ,50.7618270786384 ,83.8574237023849
28.5165892 ,Left ,49.3376227333834 ,50.8016937517573 ,83.8858415305167
28.531317 ,Left ,49.339290906195 ,50.825039843356 ,83.9193881254881
28.5542511 ,Left ,49.3346690748299 ,50.8381418052787 ,83.9310376513513
28.5764854 ,Left ,49.2722785884624 ,50.8638284859156 ,83.9482271004828
28.5915265 ,Left ,49.2344614080643 ,50.8697764865832 ,83.970747644534
28.6138557 ,Left ,49.2447543322901 ,50.855547373143 ,83.9774107688921
28.6439546 ,Left ,49.2529367594278 ,50.8290477917141 ,83.984074282784
28.6588871 ,Left ,49.2378763769487 ,50.7918306257472 ,83.9807848979083
28.6815403 ,Left ,49.2045650440008 ,50.7312640537307 ,83.9767343167747
28.6964572 ,Left ,49.2960788647694 ,50.6817185316705 ,83.9735399785801
28.7115788 ,Left ,49.2970462322846 ,50.6664516997467 ,83.9493369342407
28.7340642 ,Left ,49.2223172145924 ,50.7160899745892 ,83.9306936187751
28.7565826 ,Left ,49.2370491347119 ,50.7684529026153 ,83.9113528674564
28.7713611 ,Left ,49.320680887179 ,50.7922866548674 ,83.8866190992416
28.7940244 ,Left ,49.3440089816703 ,50.8160740975036 ,83.8518347790853
28.8171339 ,Left ,49.3462537079478 ,50.8371495796402 ,83.810978000352
28.838993 ,Left ,49.3635735027437 ,50.8465231313071 ,83.7595638152926
28.8539615 ,Left ,49.3538254699427 ,50.8564096268941 ,83.7079720707782
28.8765158 ,Left ,49.34234748402 ,50.8653150590848 ,83.6564316924791
28.9066494 ,Left ,49.3380630022612 ,50.8647537040378 ,83.5942954079065
28.921609 ,Left ,49.3242949488406 ,50.8610592617538 ,83.531295761973
28.9441745 ,Left ,49.2920159048415 ,50.8513119042164 ,83.4798020422594
28.974198 ,Left ,49.2810377859401 ,50.8377347501347 ,83.4013928220439
28.9964352 ,Left ,49.2965486326681 ,50.8284798553269 ,83.374334049982
29.0189662 ,Left ,49.3244990730431 ,50.8175153150711 ,83.353928974347
29.0341252 ,Left ,49.3462829094007 ,50.8097819989541 ,83.3376165969415
29.0564844 ,Left ,49.3498404329688 ,50.8027980639012 ,83.3252906493545
29.0788824 ,Left ,49.3521659160436 ,50.8017785251792 ,83.3105367730216
29.0941131 ,Left ,49.3373339381094 ,50.8111168018364 ,83.2989447883243
29.1166408 ,Left ,49.3338403265625 ,50.8202647845059 ,83.2874404579309
29.1390345 ,Left ,49.370498034719 ,50.8256963529603 ,83.2713230834775
29.1540505 ,Left ,49.3916284384827 ,50.8265892747735 ,83.2485575575445
29.1765747 ,Left ,49.3904643117725 ,50.8235653438157 ,83.2296898495323
29.1989243 ,Left ,49.3716302897725 ,50.812584236715 ,83.2171929575712
29.2139378 ,Left ,49.352398861613 ,50.7900173198267 ,83.193247468629
29.2364956 ,Left ,49.3145683697956 ,50.76100616095 ,83.1709193563551
29.2590698 ,Left ,49.2767600766576 ,50.720769626432 ,83.1552991674543
29.2741641 ,Left ,49.2519486372167 ,50.6700991050183 ,83.1431938013373
29.2964897 ,Left ,49.230788480862 ,50.605863604884 ,83.1378872449142
29.3188772 ,Left ,49.2154791642304 ,50.5472715547271 ,83.1343532369449
29.3341493 ,Left ,49.1799113150122 ,50.4925945576488 ,83.1318875195284
29.3565807 ,Left ,49.0438251213205 ,50.493959828175 ,83.1281790987492
29.3790088 ,Left ,48.9253692462131 ,50.5463168993497 ,83.129451056821
29.4015764 ,Left ,48.9293098176551 ,50.5827841229892 ,83.1442750729281
29.4165541 ,Left ,49.02675192975 ,50.5968950701836 ,83.1406612780198
29.4390234 ,Left ,49.0706561543666 ,50.6293301654146 ,83.1382946560034
29.4615846 ,Left ,49.028573114162 ,50.6633836195708 ,83.1454985751827
29.4766225 ,Left ,48.9825308289299 ,50.6932115585821 ,83.1650291733136
29.4990959 ,Left ,48.8782896329282 ,50.7228848912863 ,83.1850221619633
29.514131 ,Left ,48.8006521051012 ,50.750523997016 ,83.2188641531171
29.536367 ,Left ,48.8731555808241 ,50.7436932795768 ,83.2429402725414
29.5590819 ,Left ,48.957480048787 ,50.6960674236986 ,83.2520214134746
29.5737619 ,Left ,48.9820270893203 ,50.6748436804934 ,83.2775598158356
29.5966583 ,Left ,48.9468531415288 ,50.7021928737553 ,83.3012377217041
29.6189462 ,Left ,48.9226728093314 ,50.7808481299744 ,83.3266951620777
29.6339099 ,Left ,48.9710676379901 ,50.8430108353867 ,83.3562730691743
29.6564564 ,Left ,49.0849528267376 ,50.8774970983543 ,83.3865320460714
29.6791104 ,Left ,49.1724095180638 ,50.8988451470995 ,83.4123151474928
29.7015822 ,Left ,49.180081356365 ,50.9303559984592 ,83.4371025042156
29.7165472 ,Left ,49.1600365514687 ,50.964087610854 ,83.4724288004946
29.7391493 ,Left ,49.1447310437521 ,50.9937757484677 ,83.5086853211581
29.7615997 ,Left ,49.1210319606162 ,51.0187038083041 ,83.5449119452858
29.776363 ,Left ,49.1175223564153 ,51.0438636038705 ,83.5822173904538
29.7990829 ,Left ,49.1442306710643 ,51.063850133807 ,83.6297301291944
29.8217461 ,Left ,49.1671763423734 ,51.07942172802 ,83.6856345958026
29.8366412 ,Left ,49.1462286360711 ,51.0904794709534 ,83.7494675624769
29.8590782 ,Left ,49.1073302387739 ,51.0982497417368 ,83.8149960383856
29.8816849 ,Left ,49.0975899309802 ,51.0980017945881 ,83.8857527260296
29.8963808 ,Left ,49.1087949003454 ,51.0958373200211 ,83.9511719498328
29.9190632 ,Left ,49.1215187667569 ,51.0945412599616 ,84.0149074233083
29.9413928 ,Left ,49.1228038931829 ,51.0979478310542 ,84.077169797352
29.9564793 ,Left ,49.1123394080268 ,51.1060636610279 ,84.1342732180752
29.9865162 ,Left ,49.1025914721476 ,51.1079135893991 ,84.182074273317
30.0090166 ,Left ,49.1048351247706 ,51.1072434150696 ,84.2192338831813
30.0239136 ,Left ,49.1113538456099 ,51.1021353913632 ,84.2489422071328
30.0391302 ,Left ,49.1009023410233 ,51.0989914452522 ,84.2723677367862
30.0616742 ,Left ,49.070808922638 ,51.0983558860197 ,84.2814722779649
30.076374 ,Left ,49.0457004459923 ,51.10037406306 ,84.2864078641301
30.0989542 ,Left ,49.050066344554 ,51.1049738946427 ,84.290687095125
30.1226771 ,Left ,49.0760269394785 ,51.1056916088751 ,84.2890627850466
30.1367324 ,Left ,49.0878825336768 ,51.1119263558623 ,84.2825969179183
30.1589335 ,Left ,49.0674597151215 ,51.1208054985413 ,84.2790800826249
30.1888938 ,Left ,49.066530485223 ,51.1225195537977 ,84.2790703313881
30.2041424 ,Left ,49.0651992882141 ,51.1239698361321 ,84.2696346850742
30.2265442 ,Left ,49.0693279001679 ,51.123870931335 ,84.2621434758626
30.2415501 ,Left ,49.071874793632 ,51.1185906431754 ,84.2569913106112
30.2564399 ,Left ,49.0630001379872 ,51.1137348459908 ,84.2484239597031
30.2788969 ,Left ,49.0923255369846 ,51.1116785127662 ,84.2369699422043
30.3089634 ,Left ,49.1478230597565 ,51.1017128282392 ,84.2230248456414
30.3241006 ,Left ,49.1824178755872 ,51.0848547956499 ,84.2013193716272
30.3467054 ,Left ,49.1768501581668 ,51.068389821402 ,84.1758415401428
30.3617238 ,Left ,49.1331187012231 ,51.0578354604782 ,84.1593692072815
30.3766677 ,Left ,49.0996264740078 ,51.0462946273322 ,84.1599723774472
30.398964 ,Left ,49.0910594675518 ,51.0306862088347 ,84.1725894812167
30.4217587 ,Left ,49.1402061628716 ,50.988712540292 ,84.1693272391073
30.4364467 ,Left ,49.1648819041025 ,51.0172286252655 ,84.1291821482847
30.4590602 ,Left ,49.1095197822491 ,51.0778710591431 ,84.1248473699582
30.4819968 ,Left ,49.1281360907926 ,51.1322873862377 ,84.1176291876487
30.4963994 ,Left ,49.2550158173161 ,51.1480197422654 ,84.0806621455244
30.5188459 ,Left ,49.3711184385053 ,51.1581594100626 ,84.0290251119673
30.5416948 ,Left ,49.354285916974 ,51.1756299692183 ,83.9718574148568
30.5639149 ,Left ,49.246409398775 ,51.1828018974064 ,83.9357829076426
30.5790834 ,Left ,49.183927056117 ,51.1725578707628 ,83.9047685644637
30.6016588 ,Left ,49.2284015841686 ,51.1324263574629 ,83.859116485428
30.616423 ,Left ,49.2728300265038 ,51.0567902466916 ,83.8148042338031
30.6389917 ,Left ,49.2838481451517 ,50.951450823358 ,83.7909323327965
30.6617197 ,Left ,49.3199395142929 ,50.8623432265834 ,83.780947250686
30.6766217 ,Left ,49.2572266130737 ,50.8384260792373 ,83.7721087803664
30.6991427 ,Left ,49.1751848443207 ,50.9063389790283 ,83.7834004444222
30.7214562 ,Left ,49.233693609037 ,50.9392118579453 ,83.8112988588441
30.744115 ,Left ,49.3311097724205 ,50.9245064953787 ,83.8170331838018
30.759106 ,Left ,49.327126046172 ,50.9266318343796 ,83.8020702117164
30.781428 ,Left ,49.2482505698253 ,50.9205181291791 ,83.8030529872142
30.803946 ,Left ,49.2235030282669 ,50.9134997285282 ,83.8103057999049
30.8190666 ,Left ,49.2141928989417 ,50.861349257759 ,83.7944642272409
30.8490133 ,Left ,49.2078914149671 ,50.7952633858222 ,83.7719527908252
30.8715077 ,Left ,49.2236534882198 ,50.7815757811731 ,83.7512032867363
30.8866512 ,Left ,49.2334642920235 ,50.8095802711015 ,83.7761942554487
30.9240896 ,Left ,49.2547363405586 ,50.861925688015 ,83.8162284514096
30.9390335 ,Left ,49.2295134433396 ,50.8880119564615 ,83.8261814859231
30.9618426 ,Left ,49.137749203252 ,50.9062003719003 ,83.8431876228829
30.983793 ,Left ,49.1241349436653 ,50.9076792077999 ,83.8556625303546
30.9990571 ,Left ,49.1521840427745 ,50.8809017338893 ,83.8508095148831
31.0231936 ,Left ,49.1560322347691 ,50.8540826994144 ,83.8509191145973
31.0439356 ,Left ,49.1535767496282 ,50.8058780715988 ,83.8418591530869
31.0588126 ,Left ,49.1919931484771 ,50.7713390691903 ,83.8203326043244
31.0816821 ,Left ,49.1548790521254 ,50.7927321179429 ,83.801919230177
31.1040173 ,Left ,49.1015448020259 ,50.8675665466146 ,83.7924181476561
31.1267798 ,Left ,49.1313790343196 ,50.9040589183257 ,83.7715182627403
31.1490047 ,Left ,49.2102428457275 ,50.9121946290136 ,83.7427997485217
31.1716834 ,Left ,49.2179991982852 ,50.9273991602968 ,83.7071199098473
31.1864914 ,Left ,49.1715894895494 ,50.9388439765773 ,83.6603300538802
31.2015733 ,Left ,49.1331223434039 ,50.9478718857464 ,83.6112652827351
31.2239705 ,Left ,49.116511702956 ,50.9536344646113 ,83.5639486241351
31.2389662 ,Left ,49.1327470208547 ,50.9489104711949 ,83.516915478015
31.2614208 ,Left ,49.1717990203544 ,50.9393688936709 ,83.4683903382319
31.2841454 ,Left ,49.203212832758 ,50.92786335789 ,83.4231794098425
31.3066853 ,Left ,49.2422747093118 ,50.9072479441878 ,83.3765207948867
31.3290687 ,Left ,49.2795610687083 ,50.8857595968686 ,83.3282225065978
31.3514404 ,Left ,49.2819924118979 ,50.832610271937 ,83.237052717771
31.3739891 ,Left ,49.2772030643831 ,50.7957610933927 ,83.1977069803645
31.3963655 ,Left ,49.2771969344339 ,50.7548638850825 ,83.1593060650323
31.4118525 ,Left ,49.2620219957703 ,50.7097023212508 ,83.1307681523798
31.4340926 ,Left ,49.251740991543 ,50.6605237319953 ,83.1048408586698
31.4564537 ,Left ,49.2327249078773 ,50.5995330780622 ,83.0840324028153
31.4718235 ,Left ,49.2149324131614 ,50.5256862105663 ,83.0700698012504
31.4941174 ,Left ,49.2194383731948 ,50.4447477691322 ,83.0611725279775
31.5165435 ,Left ,49.187287492546 ,50.4030042933484 ,83.0473293028786
31.5316106 ,Left ,49.0843515720819 ,50.427939779868 ,83.0390594285376
31.5615011 ,Left ,49.0502525545027 ,50.5050018312569 ,83.0430483689003
31.5840655 ,Left ,49.0883024175761 ,50.5364995818106 ,83.0471141622733
31.6139632 ,Left ,49.0823051225731 ,50.5961066731937 ,83.0431078937888
31.6362424 ,Left ,49.0361363917642 ,50.6096407493365 ,83.0481390670957
31.6514996 ,Left ,48.9197773811308 ,50.6316760889371 ,83.059398945766
31.6812542 ,Left ,48.8022899986226 ,50.6649372986433 ,83.0910976926882
31.7040994 ,Left ,48.824023336047 ,50.6809633173008 ,83.1330499046841
31.718784 ,Left ,48.9085823349953 ,50.6499075480894 ,83.1597051112848
31.7340812 ,Left ,48.9436760421775 ,50.6145572592585 ,83.1820418163118
31.7565747 ,Left ,49.0147818278184 ,50.6137321605955 ,83.2059815520711
31.7725185 ,Left ,49.0076914564903 ,50.666400072337 ,83.234016581716
31.7940301 ,Left ,49.0126824124795 ,50.73743213657 ,83.2684188638447
31.8164742 ,Left ,49.1126066493173 ,50.7845375723232 ,83.3023183437346
31.8316881 ,Left ,49.1962358726378 ,50.8084041017629 ,83.324527863222
31.8539735 ,Left ,49.2132317003319 ,50.8386197514151 ,83.3442591310927
31.8766251 ,Left ,49.2220029004129 ,50.8686918812461 ,83.3796529024996
31.891534 ,Left ,49.2249916598684 ,50.8977189814146 ,83.4224858597575
31.9139502 ,Left ,49.2095899065587 ,50.9318436352883 ,83.4669610971738
31.9364555 ,Left ,49.2425441279776 ,50.9644197690417 ,83.5193664181124
31.9515674 ,Left ,49.3220524347875 ,50.989781822186 ,83.573197039985
31.9738791 ,Left ,49.3914053450686 ,51.0134404808337 ,83.6265610898622
32.0115741 ,Left ,49.3106578662407 ,51.0664350282612 ,83.7363560021576
32.033877 ,Left ,49.2819616791852 ,51.0751526889406 ,83.8001092829663
32.0715052 ,Left ,49.2619200666655 ,51.0800931291092 ,83.9074597472008
32.0939667 ,Left ,49.2546906633638 ,51.0852159983405 ,83.9559111733214
32.1314696 ,Left ,49.2565541820377 ,51.0888153382939 ,84.0372828318114
32.153932 ,Left ,49.2680249158631 ,51.0908134637331 ,84.0693081280384
32.1914985 ,Left ,49.328080094595 ,51.0860296870059 ,84.1138106148036
32.2141468 ,Left ,49.3478966767849 ,51.0791160385173 ,84.1258131795398
32.2515625 ,Left ,49.3055029868478 ,51.0783326812733 ,84.1579625273551
32.2739624 ,Left ,49.3126366408592 ,51.0866591507108 ,84.1708034545749
32.3115609 ,Left ,49.3943903771235 ,51.0911698024678 ,84.1746087365477
32.3341359 ,Left ,49.398362923891 ,51.0910820846097 ,84.1629398191297
32.3716173 ,Left ,49.3327818149782 ,51.0997386188709 ,84.1383840382442
32.3940965 ,Left ,49.3289190041636 ,51.0931080428024 ,84.1190219391097
32.4314066 ,Left ,49.3771540798299 ,51.0861189480886 ,84.0734207996082
32.4541157 ,Left ,49.3577057265883 ,51.07545409465 ,84.0528570175898
32.4914556 ,Left ,49.2958037459254 ,51.063553140149 ,84.0091787123824
32.5139155 ,Left ,49.3160074858608 ,51.0413446676628 ,83.9906994271209
32.5514039 ,Left ,49.3096971137746 ,50.9688617718929 ,83.947345980902
32.5741003 ,Left ,49.2780044834652 ,50.9136063887348 ,83.9459387643798
32.6116463 ,Left ,49.3408732661766 ,50.8128398719629 ,83.9595155578141
32.6341149 ,Left ,49.3044890261207 ,50.8749581366984 ,83.9620032373494
32.6717017 ,Left ,49.4110617155322 ,51.0336707300753 ,83.9366512932645
32.6939536 ,Left ,49.5563902766453 ,51.0406892993391 ,83.8909853653332
32.7165948 ,Left ,49.5591658512824 ,51.0425866044002 ,83.8217475943459
32.7540362 ,Left ,49.3789310869304 ,51.0311476213343 ,83.7252662589756
32.7767033 ,Left ,49.4080782598994 ,50.9916346606844 ,83.6771891908365
32.8139847 ,Left ,49.51585576924 ,50.8536783538404 ,83.5812399113514
32.8516008 ,Left ,49.4773542883382 ,50.637356537222 ,83.5681696457023
32.8740646 ,Left ,49.4334473173482 ,50.5968782200219 ,83.5745377234967
32.9116535 ,Left ,49.4688037759367 ,50.7110244969571 ,83.6319997967072
32.9341442 ,Left ,49.6008065647947 ,50.7275110984497 ,83.6557111287159
32.95662 ,Left ,49.6232814703134 ,50.7468635434682 ,83.6528652818601
32.9940095 ,Left ,49.4710846904261 ,50.7727004235638 ,83.6737840003179
33.0163862 ,Left ,49.4466902400334 ,50.7522853262029 ,83.668446956619
33.0690937 ,Left ,49.5423386488366 ,50.6343403095117 ,83.6737118236122
33.1516896 ,Left ,49.4362613903153 ,50.7691588007506 ,83.7722714242215
33.1739941 ,Left ,49.3709540230048 ,50.7795377920664 ,83.7893262264971
33.1890645 ,Left ,49.3251728313824 ,50.7785867111188 ,83.8015287391793
33.2040709 ,Left ,49.3374487400699 ,50.7454237086482 ,83.8132618493038
33.2265287 ,Left ,49.3800605540568 ,50.7000740523895 ,83.7992234748386
33.2489784 ,Left ,49.4035470345156 ,50.6373719649485 ,83.7859987852228
33.2656585 ,Left ,49.5063932741664 ,50.5566935138833 ,83.7805691320841
33.2863863 ,Left ,49.432924586124 ,50.535469489041 ,83.7529797973971
33.3100096 ,Left ,49.2919255731115 ,50.6034634805166 ,83.7394128799181
33.3315614 ,Left ,49.2790160345724 ,50.6651167477382 ,83.7208883038824
33.34668 ,Left ,49.364572670989 ,50.6861855202361 ,83.7002613759665
33.3691531 ,Left ,49.4204526073286 ,50.7039949084247 ,83.6690373721711
33.3914186 ,Left ,49.4065108999335 ,50.7227723617234 ,83.6365855994181
33.406551 ,Left ,49.3701410163408 ,50.7377182207298 ,83.6024782857366
33.428836 ,Left ,49.3284766166845 ,50.7541288139344 ,83.571649259052
33.4440633 ,Left ,49.3164619307428 ,50.769421880564 ,83.541012729572
33.4665417 ,Left ,49.3552226285768 ,50.7778367469913 ,83.5090005451306
33.4891047 ,Left ,49.3976992791197 ,50.7839972603805 ,83.4812429191671
33.5040621 ,Left ,49.4285153718427 ,50.783617582259 ,83.4608487247698
33.5266358 ,Left ,49.4295415412282 ,50.7840931891322 ,83.4336629125887
33.5490833 ,Left ,49.4425648007094 ,50.786998727832 ,83.4057685333252
33.5640668 ,Left ,49.4562189148584 ,50.7812580791271 ,83.3795681084049
33.5863628 ,Left ,49.4795286670483 ,50.7744812218166 ,83.3583327070766
33.6090801 ,Left ,49.503876258778 ,50.7615358692828 ,83.3264463563809
33.6312583 ,Left ,49.5118623419688 ,50.7458465533956 ,83.2919754026286
33.6465699 ,Left ,49.5150922680948 ,50.7386455623934 ,83.2616312140197
33.6689303 ,Left ,49.5209408781678 ,50.7307454322075 ,83.2304997870619
33.6916751 ,Left ,49.5180213325352 ,50.7222443753963 ,83.1952128058039
33.7065317 ,Left ,49.5214748532501 ,50.7107195616632 ,83.1632787017335
33.7303071 ,Left ,49.5335732201117 ,50.6884445532782 ,83.1322314653917
33.7514509 ,Left ,49.5037530521549 ,50.6573404602225 ,83.1057572733748
33.7663335 ,Left ,49.4854470115709 ,50.6262596465581 ,83.0892630176456
33.7891195 ,Left ,49.4463468745548 ,50.5806184791004 ,83.0695262233812
33.811566 ,Left ,49.4138759212916 ,50.5209096113327 ,83.0696383298786
33.8263032 ,Left ,49.4350237225144 ,50.4544452892061 ,83.0723898094439
33.8491141 ,Left ,49.4021215754226 ,50.3989280094247 ,83.0646846040686
33.8715963 ,Left ,49.3812035916182 ,50.3954109085539 ,83.0460524994609
33.886437 ,Left ,49.3065571156717 ,50.4528786896965 ,83.0401747398789
33.9165182 ,Left ,49.2526818773562 ,50.5296242710539 ,83.053554923241
33.938964 ,Left ,49.2734845788955 ,50.5712967568807 ,83.0613116317474
33.9539991 ,Left ,49.3142838520958 ,50.5975176959942 ,83.0570316589735
33.9688409 ,Left ,49.3255638447251 ,50.6133137378283 ,83.0675660594368
33.9915871 ,Left ,49.3062083511049 ,50.6312755673327 ,83.0731777372669
34.0063411 ,Left ,49.1888481113632 ,50.6708658099353 ,83.0933753046383
34.029151 ,Left ,49.0746494099744 ,50.7151234034624 ,83.1430896967617
34.0515902 ,Left ,49.0833897491259 ,50.7298340181913 ,83.1822105024605
34.0664694 ,Left ,49.1305016080123 ,50.7080383026092 ,83.1994803858271
34.0900636 ,Left ,49.0671794908978 ,50.6667201623901 ,83.2058208442644
34.1115265 ,Left ,48.9832681803262 ,50.6164616497713 ,83.2463737381657
34.1266588 ,Left ,49.0332405530078 ,50.6006840003374 ,83.2560190217081
34.1491197 ,Left ,49.0202282076185 ,50.6743190872062 ,83.2691197881047
34.1790444 ,Left ,49.0540764902556 ,50.7731940598687 ,83.3032727200184
34.1940905 ,Left ,49.1307943429873 ,50.8291379159421 ,83.3341655919238
34.216557 ,Left ,49.1703480634088 ,50.874634399611 ,83.3530519062278
34.2463638 ,Left ,49.1732409121807 ,50.9507990131283 ,83.397470955487
34.2765703 ,Left ,49.1884000688047 ,50.9888349134378 ,83.4223793036983
34.2991062 ,Left ,49.2109746481092 ,51.0267344714471 ,83.461438342057
34.3139529 ,Left ,49.2563556093153 ,51.0528311917287 ,83.5058732752583
34.3289849 ,Left ,49.2997779002096 ,51.0710158870167 ,83.5569905733234
34.3516392 ,Left ,49.3210134236235 ,51.0854077129279 ,83.6129130859915
34.3666593 ,Left ,49.323428822596 ,51.093584671507 ,83.6685934165621
34.3889434 ,Left ,49.321146194231 ,51.1058167752347 ,83.7201491684228
34.4114082 ,Left ,49.3359238485295 ,51.1119429976146 ,83.7761866056489
34.4266608 ,Left ,49.3468518851883 ,51.1091417323521 ,83.833063387241
34.449024 ,Left ,49.3544780059739 ,51.1000751211773 ,83.8890202397437
34.4791008 ,Left ,49.3690984618859 ,51.0860472777359 ,83.943322140447
34.4940509 ,Left ,49.3755530432087 ,51.0784791074323 ,83.9928429240303
34.5164445 ,Left ,49.3846464471341 ,51.0657729360626 ,84.0406044589843
34.5314566 ,Left ,49.3961212615385 ,51.0521892210888 ,84.0833183728345
34.5542064 ,Left ,49.4119271458545 ,51.0342323222676 ,84.1195168402241
34.5688817 ,Left ,49.4268618544942 ,51.0290680041459 ,84.1441118320131
34.5914423 ,Left ,49.428127943642 ,51.0364205953084 ,84.1643808921451
34.6141432 ,Left ,49.422265405604 ,51.0443408464195 ,84.1803162441358
34.6289473 ,Left ,49.4109818121298 ,51.0536890963043 ,84.189587594629
34.6515437 ,Left ,49.3889177699026 ,51.066032258258 ,84.1911790041031
34.6740171 ,Left ,49.3868251879003 ,51.0782296362958 ,84.1945462800808
34.6890079 ,Left ,49.3932884914199 ,51.0861276246005 ,84.1872158680758
34.7113585 ,Left ,49.3731775001751 ,51.0973619590514 ,84.1709891724781
34.7340215 ,Left ,49.3480028922545 ,51.1057957358703 ,84.1555837209011
34.748879 ,Left ,49.3253830144325 ,51.1134224542657 ,84.1392966962868
34.7717024 ,Left ,49.2951519017607 ,51.1145889328671 ,84.1204775936829
34.7941085 ,Left ,49.2562190026273 ,51.1110569448654 ,84.0996729183007
34.8090397 ,Left ,49.2106134407447 ,51.103852158638 ,84.0830329486018
34.8316037 ,Left ,49.1720765460674 ,51.1004525130817 ,84.0717099099927
34.854143 ,Left ,49.1226348902574 ,51.0979181154572 ,84.0753257533827
34.8687396 ,Left ,49.1094557358836 ,51.0863489351904 ,84.0835975891115
34.8916105 ,Left ,49.1031400885979 ,51.0630643314665 ,84.100390660869
34.9140327 ,Left ,49.0093328403634 ,51.056242506577 ,84.0981722458574
34.9291288 ,Left ,49.1196527711781 ,51.0013301150779 ,84.112826685419
34.9513627 ,Left ,49.2452613755705 ,50.9476394132676 ,84.0858878930501
34.9816886 ,Left ,49.1175025219621 ,50.9594911358588 ,84.048222668141
34.9964073 ,Left ,49.0371633134106 ,50.9996649318769 ,84.0344237634126
35.0266152 ,Left ,49.0839927661813 ,51.0249861782337 ,84.0061430339253
35.0415257 ,Left ,49.149032045027 ,51.0494333540032 ,83.9796874143358
35.0565364 ,Left ,49.2410900495972 ,51.0532319191806 ,83.9513742355271
35.0715546 ,Left ,49.2990032437624 ,51.0383970095211 ,83.9218074773382
35.0939479 ,Left ,49.2810290237276 ,51.0238336874975 ,83.8855774796861
35.1090977 ,Left ,49.2900313532882 ,50.984092343344 ,83.8403736445064
35.131758 ,Left ,49.3224808873533 ,50.9172371361974 ,83.7778247683974
35.1539049 ,Left ,49.3088463924586 ,50.826885174438 ,83.7307707596914
35.1687452 ,Left ,49.2912454767543 ,50.7142744658511 ,83.7132773124474
35.1916042 ,Left ,49.3066875066811 ,50.6315856600244 ,83.7193230042708
35.2139227 ,Left ,49.2369610452423 ,50.6216227017086 ,83.7327528063015
35.2290588 ,Left ,49.2082286194437 ,50.6906061545528 ,83.7623551771269
35.2516026 ,Left ,49.2904878040749 ,50.7323953137212 ,83.7897836319777
35.2741157 ,Left ,49.3722473169176 ,50.7380276904608 ,83.8000547384819
35.2963263 ,Left ,49.3631020673426 ,50.7462527792501 ,83.796712038893
35.3190672 ,Left ,49.296279664744 ,50.7469160134485 ,83.805584752736
35.348949 ,Left ,49.1931564320625 ,50.7160599435418 ,83.7997485718373
35.3715955 ,Left ,49.2102037152743 ,50.6608153334474 ,83.7867044193798
35.3940815 ,Left ,49.2172293382292 ,50.6109450172698 ,83.7620441313239
35.4089908 ,Left ,49.2867688794913 ,50.5740675042771 ,83.7595649839765
35.4315809 ,Left ,49.2281450028114 ,50.5883040660541 ,83.7771224015137
35.4540873 ,Left ,49.1764429710698 ,50.6112279197085 ,83.8137277519593
35.4766832 ,Left ,49.1847107037817 ,50.6248524419985 ,83.821937408168
35.4913864 ,Left ,49.172338563918 ,50.6560485023152 ,83.8384070896918
35.5139871 ,Left ,49.1794128569386 ,50.6647066971859 ,83.8592384257264
35.5366742 ,Left ,49.1972798956232 ,50.6414771856307 ,83.8743471642107
35.551616 ,Left ,49.1891868940654 ,50.6080751822909 ,83.8746527896899
35.5742101 ,Left ,49.152699709367 ,50.5609665573391 ,83.8627284079744
35.5965867 ,Left ,49.1714898325835 ,50.5020914968551 ,83.8424255918831
35.6115774 ,Left ,49.2372416475866 ,50.4780530123383 ,83.8080049303793
35.6339501 ,Left ,49.1571232886999 ,50.5288160595696 ,83.7896600398014
35.656605 ,Left ,49.1284786422957 ,50.5995016321424 ,83.7800114845323
35.6715853 ,Left ,49.2072515115936 ,50.6365101493298 ,83.758569948066
35.6939864 ,Left ,49.2711790706336 ,50.672054205636 ,83.7366235763937
35.7166818 ,Left ,49.2727141829345 ,50.6993771977722 ,83.7091121962187
35.7315307 ,Left ,49.2829328249761 ,50.7070204763508 ,83.6775767774554
35.7554805 ,Left ,49.3151495024615 ,50.7069779829093 ,83.6411465654806
35.7767142 ,Left ,49.3376558024185 ,50.7036072482486 ,83.5898911271013
35.7913726 ,Left ,49.3755043246269 ,50.688863412975 ,83.5346586316486
35.8140118 ,Left ,49.4301409947375 ,50.6570138505759 ,83.4861614821477
35.8441234 ,Left ,49.477738553704 ,50.6145504951753 ,83.4418222477358
35.8588798 ,Left ,49.4811601702589 ,50.5669354544685 ,83.389093743308
35.881546 ,Left ,49.4522772921555 ,50.5252632435278 ,83.3389581060727
35.9113289 ,Left ,49.3989269051598 ,50.4398574338892 ,83.2696358472163
35.9340877 ,Left ,49.4044422317515 ,50.4023899726044 ,83.2493795579422
35.9564538 ,Left ,49.416907821969 ,50.380184315941 ,83.2298393944312
35.9715876 ,Left ,49.45172501045 ,50.3778231995889 ,83.2174414387922
35.9940555 ,Left ,49.4633269910967 ,50.3844188317532 ,83.2026390682879
36.0165858 ,Left ,49.4609905418346 ,50.3920260834345 ,83.1976756432618
36.0316781 ,Left ,49.4565046129408 ,50.4074133286077 ,83.1975922141967
36.054128 ,Left ,49.4633931573262 ,50.4226722503513 ,83.1983216306948
36.0765401 ,Left ,49.4649639964221 ,50.4393310951369 ,83.1990629010656
36.0914478 ,Left ,49.4579522136004 ,50.4555594447395 ,83.2071815953331
36.1216959 ,Left ,49.4504190715811 ,50.464712877405 ,83.2104107603516
36.1440609 ,Left ,49.4504190715811 ,50.464712877405 ,83.2104107603516
36.1589777 ,Left ,49.4529425604839 ,50.4638703661171 ,83.2022231676553
36.1815825 ,Left ,49.4456660286175 ,50.4527236433234 ,83.1883857864314
36.1964348 ,Left ,49.4139247686063 ,50.4408162803223 ,83.1721352432334
36.2116379 ,Left ,49.4013942261742 ,50.4311633564106 ,83.1648747176199
36.2341341 ,Left ,49.3749978951821 ,50.4066484767827 ,83.1569811711523
36.2568016 ,Left ,49.2718171234914 ,50.3819657746319 ,83.1333706647514
36.2789551 ,Left ,49.1014100808106 ,50.3828581070597 ,83.1000010690213
36.2940378 ,Left ,48.9814458797638 ,50.4407044167998 ,83.0890877599042
36.3166436 ,Left ,48.9766721248587 ,50.4828279008858 ,83.0809876461526
36.3389093 ,Left ,49.0244604696459 ,50.4973380223303 ,83.0793364899972
36.3539425 ,Left ,49.1240043866877 ,50.4974179840714 ,83.0914221932749
36.3765601 ,Left ,49.1868377733823 ,50.4984629451896 ,83.1039962702498
36.3990483 ,Left ,49.1803104293636 ,50.5218722833043 ,83.1168339971157
36.4138243 ,Left ,49.181310164641 ,50.5633352406871 ,83.1351681129882
36.4365498 ,Left ,49.1902399139792 ,50.6183442139775 ,83.1517937232638
36.4590235 ,Left ,49.204102940751 ,50.6761580154046 ,83.1636099716243
36.4740002 ,Left ,49.2406821231159 ,50.7337472514254 ,83.1780677259459
36.4965304 ,Left ,49.2876680376149 ,50.7816052244278 ,83.1969475464419
36.5190435 ,Left ,49.2780862347467 ,50.8143687009871 ,83.209990843874
36.5337634 ,Left ,49.2229491768816 ,50.836353402854 ,83.2195252588194
36.5567013 ,Left ,49.2132507800529 ,50.8466501912665 ,83.2391364839352
36.5789248 ,Left ,49.2382636294389 ,50.8433164882821 ,83.254025878981
36.5939447 ,Left ,49.2362439992949 ,50.8399747476714 ,83.2663345948709
36.6163543 ,Left ,49.2356864840683 ,50.8262588221555 ,83.2778358569453
36.638782 ,Left ,49.2222958924915 ,50.8073968930303 ,83.2884634749228
36.6538115 ,Left ,49.2091159069845 ,50.799895230795 ,83.29992503192
36.6765883 ,Left ,49.2153246764095 ,50.8012479199202 ,83.3048937091679
36.698991 ,Left ,49.2316106393536 ,50.7927255879626 ,83.3082527537197
36.7141097 ,Left ,49.2457613651356 ,50.7874553437022 ,83.3066451313252
36.736684 ,Left ,49.2234023587231 ,50.7835075255512 ,83.307408932098
36.7589182 ,Left ,49.196859528119 ,50.7748589897328 ,83.3040887335596
36.7756071 ,Left ,49.1736900537812 ,50.7523738855601 ,83.2967714704602
36.7964665 ,Left ,49.1259963080004 ,50.7179395596702 ,83.2896224864892
36.8188383 ,Left ,49.0750519502237 ,50.6864253927348 ,83.3015280564315
36.8338936 ,Left ,49.0251547072645 ,50.643891063918 ,83.2907827786927
36.856658 ,Left ,48.9458651804159 ,50.5914904743703 ,83.3012835835678
36.8790618 ,Left ,48.9480562785295 ,50.5457512972221 ,83.3102898527468
36.8941309 ,Left ,48.8915636378549 ,50.611828257361 ,83.3040163367838
36.9165972 ,Left ,48.9566183980628 ,50.6789215282142 ,83.317952652824
36.939092 ,Left ,49.0692573602766 ,50.7217136597257 ,83.3299867956484
36.961501 ,Left ,49.1088035930822 ,50.7784546926129 ,83.3442522426666
