timestamp,event,roll,pitch,yaw
0.0110464 ,Left ,72,5472133752742 ,42,1986034134895 ,76,0586054591514
0.0337662 ,Left ,72,5144029930938 ,42,1903073938935 ,76,0597181909228
0.048761 ,Left ,72,4931635982132 ,42,1863093166057 ,76,0579672277292
0.0794458 ,Left ,72,4791327320602 ,42,1852017370287 ,76,0548614522208
0.1016424 ,Left ,72,4658664719625 ,42,1872271363234 ,76,0545783704989
0.1168866 ,Left ,72,4564803807058 ,42,1872153040781 ,76,055821526356
0.1319625 ,Left ,72,4562823445505 ,42,1864819646083 ,76,0559160061955
0.1540505 ,Left ,72,4546073508347 ,42,1856240931647 ,76,0545348308574
0.1689389 ,Left ,72,4651109224474 ,42,1840871237203 ,76,0517659003293
0.1912352 ,Left ,72,4787409398067 ,42,1773759705274 ,76,0477072058498
0.2142735 ,Left ,72,496146959117 ,42,1698752018504 ,76,0423826577089
0.2296401 ,Left ,72,5088771179205 ,42,1654454150405 ,76,0397561968767
0.2517103 ,Left ,72,5177128127095 ,42,1724359802213 ,76,0341009281179
0.2740612 ,Left ,72,5204700654787 ,42,1749771680568 ,76,0282954091019
0.2891698 ,Left ,72,5170535381956 ,42,1804654516248 ,76,0237114501661
0.3117932 ,Left ,72,5088160116921 ,42,1841130767065 ,76,0148811602545
0.3337714 ,Left ,72,4982170944762 ,42,1866832515529 ,76,0116751158008
0.3489112 ,Left ,72,4899116153799 ,42,1883377329594 ,76,0057322960737
0.3714056 ,Left ,72,4814151045734 ,42,1892544145731 ,75,9998837973054
0.3937101 ,Left ,72,4814151045734 ,42,1892544145731 ,75,9998837973054
0.4087751 ,Left ,72,4834438990785 ,42,1948028420406 ,75,995428554156
0.4315193 ,Left ,72,4834438990785 ,42,1948028420406 ,75,995428554156
0.454066 ,Left ,72,4834438990785 ,42,1948028420406 ,75,995428554156
0.4692172 ,Left ,72,480847730316 ,42,1962250047187 ,75,9954743363136
0.491423 ,Left ,72,4834438990785 ,42,1948028420406 ,75,995428554156
0.5137527 ,Left ,72,4895236869568 ,42,1898877930868 ,75,9970771550899
0.5287307 ,Left ,72,4958020223537 ,42,1857036960696 ,75,9986373645349
0.5512934 ,Left ,72,4958020223537 ,42,1857036960696 ,75,9986373645349
0.5738184 ,Left ,72,4956066313605 ,42,1849708572315 ,75,9987265877771
0.5964176 ,Left ,72,4994846965369 ,42,1829410011409 ,76,0002441384533
0.6113325 ,Left ,72,5007654801422 ,42,1823332948668 ,76,0018082159706
0.6337594 ,Left ,72,505859077754 ,42,1868887053607 ,76,0030890919884
0.6562744 ,Left ,72,5104496380297 ,42,1912233426964 ,76,0017664985817
0.671052 ,Left ,72,5080471121286 ,42,1933789983538 ,76,0017232029971
0.693773 ,Left ,72,5080471121286 ,42,1933789983538 ,76,0017232029971
0.716444 ,Left ,72,5080471121286 ,42,1933789983538 ,76,0017232029971
0.7314983 ,Left ,72,5097186482899 ,42,1942371841876 ,76,0031096808074
0.7543227 ,Left ,72,5097186482899 ,42,1942371841876 ,76,0031096808074
0.776956 ,Left ,72,5097186482899 ,42,1942371841876 ,76,0031096808074
0.7920803 ,Left ,72,5097186482899 ,42,1942371841876 ,76,0031096808074
0.8138377 ,Left ,72,5097186482899 ,42,1942371841876 ,76,0031096808074
0.836026 ,Left ,72,5097186482899 ,42,1942371841876 ,76,0031096808074
0.8512066 ,Left ,72,5118437620574 ,42,1923909248476 ,75,9972815752946
0.8739135 ,Left ,72,5207621963789 ,42,185839907979 ,75,9861021500501
0.896368 ,Left ,72,5251062856392 ,42,1749529557631 ,75,9762422627406
0.9113173 ,Left ,72,5251243451724 ,42,1656674313906 ,75,9590903606872
0.933779 ,Left ,72,5258010720036 ,42,1370817318578 ,75,9380300058422
0.9637227 ,Left ,72,5226781259715 ,42,1104999532939 ,75,9154845878335
0.9796385 ,Left ,72,5024158602354 ,42,1154001573673 ,75,9266635053785
1.0010897 ,Left ,72,4420534612171 ,42,144166919715 ,75,9714641019321
1.0169408 ,Left ,72,3673267463879 ,42,1936104851243 ,76,0300680657747
1.0319711 ,Left ,72,3156449404132 ,42,2557695473226 ,76,0870304069119
1.054061 ,Left ,72,2821581675965 ,42,3451711316827 ,76,1162017346416
1.0764519 ,Left ,72,2647269779127 ,42,4285505025482 ,76,1140415039695
1.0911402 ,Left ,72,2648553998411 ,42,4585345259876 ,76,0976613351213
1.1136732 ,Left ,72,2800333818516 ,42,4389156881269 ,76,0953820199663
1.1363536 ,Left ,72,3021802552182 ,42,4037315636392 ,76,0979257972273
1.1513433 ,Left ,72,5226781259715 ,42,1104999532939 ,75,9154845878335
1.1739039 ,Left ,72,3592932756981 ,42,304471765203 ,76,0678612361366
1.1963689 ,Left ,72,4182529645599 ,42,2245143805412 ,76,0430588897192
1.2113788 ,Left ,72,4774734405167 ,42,1397917352757 ,76,0240377943418
1.2338562 ,Left ,72,5136696106666 ,42,0530782246873 ,76,0032889861431
1.2563247 ,Left ,72,5188535300837 ,41,9941810634772 ,75,9788427987612
1.2710197 ,Left ,72,5054071980558 ,41,951475283314 ,75,9595848646803
1.2937832 ,Left ,72,4941977562016 ,41,9331194211185 ,75,9818057757785
1.3164121 ,Left ,72,4843405433973 ,41,9723696041588 ,76,0081395193417
1.3313355 ,Left ,72,4491897393667 ,42,0183972419975 ,76,0021735738403
1.3538064 ,Left ,72,4362065914082 ,42,0345013076453 ,75,9945073613264
1.3764616 ,Left ,72,4801369970037 ,42,0047249355552 ,75,989914750505
1.3915175 ,Left ,72,5233275545615 ,41,9902713658013 ,75,9949326825157
1.4139324 ,Left ,72,5344108203286 ,41,9829940082 ,75,9937656447456
1.436403 ,Left ,72,5423915365864 ,41,9377782758143 ,75,9965102535879
1.4512264 ,Left ,72,5578485537535 ,41,8721056187583 ,75,9694194127473
1.4743974 ,Left ,72,5058907918852 ,41,8118123710277 ,75,9204071332233
1.4966639 ,Left ,72,386557373912 ,41,7721035895523 ,75,901914849682
1.5188682 ,Left ,72,2948811495212 ,41,7779082601596 ,75,960156300937
1.5336625 ,Left ,72,2606698529853 ,41,8545282651571 ,76,0398050381701
1.5562657 ,Left ,72,2647258468895 ,41,9559736822142 ,76,121043736897
1.5788898 ,Left ,72,2953773341151 ,42,0491710443442 ,76,1815670280451
1.5936458 ,Left ,72,3285060205305 ,42,1040787001804 ,76,2249027134468
1.6163256 ,Left ,72,3499624488389 ,42,1885053944947 ,76,2559165722668
1.6390319 ,Left ,72,3823677094998 ,42,2681117436042 ,76,2934902424388
1.6538018 ,Left ,72,4037895359678 ,42,3112562136171 ,76,3248945952125
1.6763789 ,Left ,72,3705300173378 ,42,3331303242805 ,76,367340965821
1.6990408 ,Left ,72,3045945986295 ,42,3613040662333 ,76,4265034552007
1.7140095 ,Left ,72,2936675142729 ,42,3928606917358 ,76,480905396268
1.7361849 ,Left ,72,3493202434365 ,42,4044220124954 ,76,5124942024179
1.758889 ,Left ,72,3708734990385 ,42,3950157841167 ,76,5148000437179
1.7736983 ,Left ,72,3126123763514 ,42,3643591217255 ,76,511356370577
1.7964031 ,Left ,72,2123466408121 ,42,3265270231256 ,76,539573882895
1.8187428 ,Left ,72,1853757867928 ,42,3259234154713 ,76,5902776336487
1.8337728 ,Left ,72,2306646698206 ,42,3950869591465 ,76,6228473480425
1.8564442 ,Left ,72,2302405896219 ,42,4907878198851 ,76,6271370668867
1.8789903 ,Left ,72,1213374800583 ,42,5810251184782 ,76,611378398235
1.8936647 ,Left ,72,0141705542584 ,42,6729788811233 ,76,6149093070873
1.9162408 ,Left ,71,9599849087566 ,42,7764200199469 ,76,6570930919212
1.9389094 ,Left ,72,0152221492437 ,42,8639480477676 ,76,7436710624365
1.9536634 ,Left ,72,1432610929327 ,42,9416927500732 ,76,8170703556501
1.976273 ,Left ,72,2426322539813 ,43,0154924233715 ,76,8629686964056
1.9988359 ,Left ,72,2872555991158 ,43,0775694960895 ,76,8678947016884
2.0212918 ,Left ,72,3032547298594 ,43,118959944375 ,76,8433913903122
2.0362204 ,Left ,72,3156195606108 ,43,136260313776 ,76,8132343485542
2.0588358 ,Left ,72,3116222326751 ,43,1754451666935 ,76,7851844714451
2.0735855 ,Left ,72,3061647245587 ,43,1935527410845 ,76,7190759202339
2.0963553 ,Left ,72,3058190309301 ,43,1888053899425 ,76,6378580465148
2.1189422 ,Left ,72,3267028188115 ,43,1663039241555 ,76,5503125337675
2.133797 ,Left ,72,3374006871223 ,43,132867771501 ,76,4628678545624
2.1563259 ,Left ,72,3324926455124 ,43,1149754724957 ,76,3818928908967
2.1789089 ,Left ,72,3327320950843 ,43,116005199862 ,76,297366749197
2.1937075 ,Left ,72,3353978568475 ,43,1124621502602 ,76,2285667233659
2.2162392 ,Left ,72,333568802924 ,43,1230464623419 ,76,1787018762035
2.238665 ,Left ,72,3117887063924 ,43,1357787807543 ,76,1491184386883
2.2464029 ,Left ,72,2661087114602 ,43,1337127726614 ,76,1372274735821
2.2686294 ,Left ,72,1995193183297 ,43,0997898192755 ,76,125880971555
2.2917763 ,Left ,72,086694015672 ,43,0336339465174 ,76,1008882254674
2.3292631 ,Left ,71,8365466767384 ,42,87737582419 ,76,111002500668
2.3519317 ,Left ,71,814835917567 ,42,9163374050417 ,76,1228500325814
2.3892066 ,Left ,72,0457111859967 ,42,7605306136614 ,76,1124974150364
2.4113876 ,Left ,72,1243215228567 ,42,662196618144 ,76,0829470252253
2.4487705 ,Left ,72,1110922795089 ,42,5571079548402 ,76,0274566734103
2.4714521 ,Left ,72,1482514815161 ,42,5215511533918 ,76,002966725716
2.5094502 ,Left ,72,2591372956479 ,42,4179756781464 ,75,9750676099972
2.5313755 ,Left ,72,2146793913982 ,42,3504583854748 ,75,9702078416668
2.5689439 ,Left ,72,0379044154232 ,42,2762799582904 ,76,0143656615323
2.5913139 ,Left ,72,0038025306662 ,42,4063963544411 ,76,0574718901764
2.6294565 ,Left ,72,1155919973092 ,42,6967775129838 ,76,0906973938069
2.6523762 ,Left ,72,2058941515906 ,42,7015335677364 ,76,0883396294793
2.6891574 ,Left ,72,1318874046746 ,42,6178836501077 ,76,0123950417743
2.7117713 ,Left ,72,0926621178944 ,42,521071974368 ,75,9766846420945
2.7486383 ,Left ,72,1908493726318 ,42,2769318774962 ,75,9261177954767
2.7713621 ,Left ,72,2079397041018 ,42,1898290404354 ,75,9199815878492
2.8094094 ,Left ,72,1963777883577 ,42,079074916036 ,75,9463362679061
2.8314116 ,Left ,72,1924819300169 ,42,0925396240118 ,75,9588877508898
2.8688878 ,Left ,72,1845917505576 ,42,108212471801 ,75,9641326330155
2.8911613 ,Left ,72,1760289040872 ,42,1092349041763 ,75,9525920052765
2.9287527 ,Left ,72,1590227243029 ,42,0584373363003 ,75,9457773886427
2.951159 ,Left ,72,1412169628338 ,42,0490005618458 ,75,9432654393177
2.9887914 ,Left ,72,1645180801564 ,42,0295537428987 ,75,9079327546766
3.0113829 ,Left ,72,1905874307814 ,42,0034451474177 ,75,8958648004192
3.0486285 ,Left ,72,1951694908386 ,41,9613698839004 ,75,9089185573262
3.0711761 ,Left ,72,1863215156482 ,41,9451972202893 ,75,9196664293403
3.1163228 ,Left ,72,194596957703 ,41,9238743321208 ,75,9347688658175
3.1388433 ,Left ,72,199722768865 ,41,9069175571324 ,75,9326008280658
3.1688134 ,Left ,72,2257939862053 ,41,8562303371221 ,75,9358198255901
3.191445 ,Left ,72,2269138442797 ,41,8536973884171 ,75,9402682529576
3.229053 ,Left ,72,2048126291017 ,41,8680214006952 ,75,9672490312299
3.2517704 ,Left ,72,2095943197316 ,41,879151777837 ,75,9754870534911
3.2891925 ,Left ,72,2598055816304 ,41,8889817632508 ,75,9934886064376
3.3118943 ,Left ,72,2438301227692 ,41,886209097642 ,76,0081328479509
3.34891 ,Left ,72,1250602856717 ,41,9616792258872 ,76,0404217535446
3.3714063 ,Left ,72,0854408945934 ,42,0414696983501 ,76,0300630621684
3.416206 ,Left ,72,0498595004693 ,42,1659643924817 ,76,1117019646136
3.4388683 ,Left ,72,0135594937006 ,42,247362550098 ,76,154605666628
3.453634 ,Left ,71,9535482757746 ,42,3467341453451 ,76,1666338402271
3.4687425 ,Left ,71,9292807997509 ,42,3970668408672 ,76,163344115783
3.4913492 ,Left ,71,9768497237919 ,42,358987640377 ,76,1605341020623
3.5137545 ,Left ,72,08212452305 ,42,2853755265281 ,76,1505855256126
3.5287888 ,Left ,72,2067761901114 ,42,2199953320347 ,76,1333162578397
3.5515291 ,Left ,72,2969147257434 ,42,1883209264183 ,76,1060714546697
3.5738481 ,Left ,72,3453496773699 ,42,1556965861814 ,76,0828656733174
3.5890533 ,Left ,72,3813823109411 ,42,1294896512418 ,76,0593961000452
3.6115127 ,Left ,72,4121077591981 ,42,1125636299623 ,76,0529268360343
3.648844 ,Left ,72,4403736210162 ,42,0535086916926 ,76,0518456000464
3.6710668 ,Left ,72,4460144053991 ,42,0027910928269 ,76,0592132687704
3.7087201 ,Left ,72,3663968248078 ,41,9490100139194 ,76,0417225633195
3.7312426 ,Left ,72,2884753231877 ,41,9764290720584 ,76,0507207385785
3.7686888 ,Left ,72,3120574220069 ,41,9919785143242 ,75,9924020343038
3.7915702 ,Left ,72,3589640337588 ,42,0147903884357 ,75,9643606038111
3.8290976 ,Left ,72,388129364555 ,42,0107229101327 ,75,9155019661925
3.8515104 ,Left ,72,3620269003377 ,42,0182909496861 ,75,9152917195668
3.8888931 ,Left ,72,2674328300775 ,42,1971614712089 ,76,0478413772671
3.9114467 ,Left ,72,229110562949 ,42,3625799171928 ,76,1237039390494
3.9337802 ,Left ,72,2179726999128 ,42,4960887808915 ,76,1837919063446
3.9714583 ,Left ,72,2636696248494 ,42,585253479951 ,76,2983057027023
3.9937195 ,Left ,72,2754901820951 ,42,6045949922539 ,76,3720138937495
4.0313853 ,Left ,72,3339056919623 ,42,6109888399229 ,76,5030295840891
4.0688036 ,Left ,72,2976609050609 ,42,6793979602894 ,76,5575201251805
4.0912974 ,Left ,72,2317355753419 ,42,7215581216344 ,76,5561063674602
4.1287145 ,Left ,72,0881601955773 ,42,6765083291191 ,76,5772325465957
4.1514953 ,Left ,72,0450587197224 ,42,7040955316465 ,76,6147552712568
4.1738956 ,Left ,71,9526866483483 ,42,8623052820939 ,76,6632609496697
4.2114766 ,Left ,71,9316557711827 ,43,1367157342035 ,76,8049421431918
4.2337677 ,Left ,72,013714048255 ,43,2024312286081 ,76,8585749574579
4.2791854 ,Left ,72,0891413827416 ,43,3182007844231 ,76,8553982086506
4.3018307 ,Left ,72,0670570140966 ,43,3617379143921 ,76,8003671099813
4.33124 ,Left ,72,0274218190901 ,43,4268617632834 ,76,6162167280981
4.3538089 ,Left ,72,01931695169 ,43,4591924413699 ,76,509775723597
4.3914359 ,Left ,72,0061829000848 ,43,5173257111109 ,76,2972766822893
4.4137067 ,Left ,72,0114559997284 ,43,5191569492549 ,76,2014185043992
4.4515393 ,Left ,71,9975514620788 ,43,4666166492408 ,76,0438418372086
4.4737857 ,Left ,71,9810967126805 ,43,4129212605593 ,75,9668429496157
4.5119073 ,Left ,71,9089544368184 ,43,2577463127683 ,75,812628271676
4.5343296 ,Left ,71,8033890871152 ,43,1597616634093 ,75,7825039361014
4.5715272 ,Left ,71,7310006107748 ,43,1517351159508 ,75,8244107652077
4.5940714 ,Left ,71,8230831163173 ,43,1834698928257 ,75,8050323798145
4.6317556 ,Left ,72,0736186897501 ,42,9756992259036 ,75,7606275990956
4.653961 ,Left ,72,0841649761827 ,42,8845570162668 ,75,7386059247516
4.6917191 ,Left ,72,0424334707815 ,42,667406706363 ,75,7187681109335
4.714123 ,Left ,72,0660961514295 ,42,565697081101 ,75,7247051791351
4.7514858 ,Left ,72,061622322777 ,42,4407991547431 ,75,7199415758783
4.7739509 ,Left ,71,9861528455352 ,42,4325493221628 ,75,7497191369533
4.8113418 ,Left ,71,9121088968993 ,42,7573935712451 ,75,7992624390712
4.8337422 ,Left ,71,9361171884553 ,42,9150635289872 ,75,8158515290894
4.8712669 ,Left ,72,0901900081628 ,42,9258753472891 ,75,8017708747489
4.8938847 ,Left ,72,0366407939894 ,42,929262868897 ,75,7530102055268
4.9313992 ,Left ,72,0002710790772 ,42,7861355041126 ,75,6650895106838
4.9537266 ,Left ,72,059417649362 ,42,6988714168014 ,75,6328915889166
4.9912409 ,Left ,72,0988572870971 ,42,5491495176757 ,75,615366290133
5.0138151 ,Left ,72,0837418161311 ,42,4713673120277 ,75,6278329078744
5.0511416 ,Left ,72,0862712003745 ,42,3321050758877 ,75,6560074253899
5.0737075 ,Left ,72,0967144794433 ,42,3090086925416 ,75,6706237931962
5.1113706 ,Left ,72,052326650135 ,42,3269158150603 ,75,7055914298828
5.1338099 ,Left ,71,9947775596162 ,42,2995464944225 ,75,7362460693351
5.1713369 ,Left ,71,940553288387 ,42,2532801618907 ,75,766372200132
5.19376 ,Left ,71,9479460913068 ,42,2133138832615 ,75,7520017186512
5.2313301 ,Left ,71,9281522381069 ,42,165349341996 ,75,7255319274145
5.254142 ,Left ,71,9279146017398 ,42,1646530049603 ,75,725597070309
5.2915078 ,Left ,71,9272278622966 ,42,157340142529 ,75,7400889797934
5.3138592 ,Left ,71,9217792002243 ,42,1449843839556 ,75,7505079792481
5.3439235 ,Left ,71,9226368815924 ,42,140724596671 ,75,7520275853234
5.3739301 ,Left ,71,9410309499913 ,42,1173041869208 ,75,7456199568599
5.4115411 ,Left ,71,9931458445637 ,42,0820787625909 ,75,7504851418788
5.4337764 ,Left ,72,009587518755 ,42,0778184989253 ,75,746199984089
5.4714863 ,Left ,72,0381205828916 ,42,0904727872447 ,75,7455088038607
5.493881 ,Left ,72,0532112179413 ,42,0807309830962 ,75,7541736470293
5.5314619 ,Left ,72,0091882553178 ,42,1781793391212 ,75,7612020267445
5.553883 ,Left ,71,9737515535919 ,42,2729891801172 ,75,771057968353
5.5917493 ,Left ,71,9190815313372 ,42,3999709352313 ,75,8780417637224
5.613836 ,Left ,71,9263096898069 ,42,4481168518118 ,75,8993298236775
5.6515061 ,Left ,72,0151391116134 ,42,4726476751695 ,75,8875522182537
5.6737184 ,Left ,72,1317507453902 ,42,4118747239391 ,75,8754503639875
5.7119262 ,Left ,72,3465727210784 ,42,3638005080981 ,75,817110222473
5.7341715 ,Left ,72,378554624524 ,42,3347081384533 ,75,7822477061097
5.7716121 ,Left ,72,4121054939973 ,42,2904723405657 ,75,7219107666836
5.793863 ,Left ,72,4107012945965 ,42,2944439741759 ,75,6905913553918
5.8315921 ,Left ,72,3953436390602 ,42,2052091396258 ,75,6932695039875
5.8539489 ,Left ,72,3715148845359 ,42,1666605641986 ,75,7381090317486
5.8838266 ,Left ,72,2088421680249 ,42,3308485575811 ,75,8108122759103
5.9064472 ,Left ,72,2102339705909 ,42,3507927116589 ,75,821779817361
5.9289486 ,Left ,72,2557468653305 ,42,3624649537606 ,75,8090475728214
5.9513396 ,Left ,72,2756978832236 ,42,3637108135022 ,75,7836554604047
5.9663854 ,Left ,72,2845203919823 ,42,3363927715974 ,75,7599648144876
5.988947 ,Left ,72,284635693881 ,42,2970592438012 ,75,7350506246294
6.0037648 ,Left ,72,2754743981868 ,42,2465128644306 ,75,7189338991311
6.0263368 ,Left ,72,259659223222 ,42,2211851586953 ,75,7265727903642
6.0489305 ,Left ,72,2225014464584 ,42,2568657989627 ,75,7953831232502
6.063959 ,Left ,72,1771442832089 ,42,3656193401286 ,75,8924285979188
6.0863273 ,Left ,72,1538800270603 ,42,4888469394612 ,75,9594673175234
6.1089114 ,Left ,72,1628304740216 ,42,5730781558491 ,75,999311658184
6.1312701 ,Left ,72,2114388401551 ,42,6027599451819 ,76,0055621812501
6.1464781 ,Left ,72,2460348984815 ,42,6227356153962 ,76,0387283453624
6.1764678 ,Left ,72,276911600977 ,42,6539796040393 ,76,0977012210626
6.1989449 ,Left ,72,3372172760452 ,42,6880781280087 ,76,1750398645603
6.2138779 ,Left ,72,4146230817299 ,42,7293221474031 ,76,2678607919518
6.2291467 ,Left ,72,4513982355213 ,42,7908645040997 ,76,3528363309973
6.2515839 ,Left ,72,429467492797 ,42,8720783004995 ,76,4009070053978
6.2664572 ,Left ,72,363882412824 ,42,931023934577 ,76,4064541975485
6.2890505 ,Left ,72,2879005111905 ,42,9483070089411 ,76,4043781328006
6.3115282 ,Left ,72,2373829974154 ,42,9296018254349 ,76,3970871116329
6.3263834 ,Left ,72,1992647783093 ,42,8834292135167 ,76,4077376631826
6.3489726 ,Left ,72,1429313548849 ,42,8704038374554 ,76,4735201095451
6.3716089 ,Left ,72,0443411793963 ,42,9849929657603 ,76,5653946808644
6.3864186 ,Left ,71,9468454626117 ,43,167645118725 ,76,6430027177296
6.408822 ,Left ,71,9301948242117 ,43,2894309805874 ,76,6928615536877
6.43138 ,Left ,71,9833345672592 ,43,3357066195075 ,76,7022873326926
6.4465363 ,Left ,72,0127056594198 ,43,344332530498 ,76,6862906694382
6.4694238 ,Left ,72,0332542476282 ,43,3644452739137 ,76,6407989323402
6.4918672 ,Left ,72,0242844956162 ,43,388661858493 ,76,5758517978041
6.5067166 ,Left ,72,0220934005143 ,43,4157795410856 ,76,4940237878564
6.5293005 ,Left ,72,0094438439906 ,43,4382437186381 ,76,4107727211644
6.5516846 ,Left ,71,9954009947091 ,43,4491146669163 ,76,3361271089474
6.5663008 ,Left ,71,992973491067 ,43,4592930757144 ,76,2706856411869
6.5889484 ,Left ,72,0018989246283 ,43,4672844720722 ,76,2045669078096
6.6113304 ,Left ,72,0057542472682 ,43,4585712962571 ,76,1369885815971
6.6262407 ,Left ,72,0055413683486 ,43,4297272310523 ,76,0691202668181
6.6494867 ,Left ,71,9915940474647 ,43,4060300252269 ,76,0063592922328
6.6719013 ,Left ,71,9645793680679 ,43,3977613497843 ,75,9381694343656
6.686733 ,Left ,71,9611313317547 ,43,3882771983114 ,75,8679605729189
6.709527 ,Left ,71,9580834145418 ,43,3566914999957 ,75,7923126614896
6.7313695 ,Left ,71,9066247992057 ,43,297949728636 ,75,7263914840117
6.7462872 ,Left ,71,8173400218074 ,43,2422896443803 ,75,693593607222
6.7690334 ,Left ,71,7201448583615 ,43,2084237377929 ,75,6973283486048
6.7914916 ,Left ,71,7200116784931 ,43,2137550361013 ,75,713888110201
6.806406 ,Left ,71,8235245709736 ,43,2149349992975 ,75,704736075291
6.8290923 ,Left ,71,9657602900616 ,43,1582008810644 ,75,6939936462944
6.851519 ,Left ,72,0909719436908 ,43,0537489436157 ,75,6965907098693
6.8737232 ,Left ,72,1497341911519 ,42,9382951955241 ,75,6907857677094
6.888862 ,Left ,72,143787620621 ,42,8503003772602 ,75,7006012605722
6.9115028 ,Left ,72,1416993895128 ,42,7583449861654 ,75,7150107281586
6.9338571 ,Left ,72,1455088818336 ,42,6826090036874 ,75,7325393965509
6.9488359 ,Left ,72,1586031351941 ,42,6421265528783 ,75,7373977107027
6.9715326 ,Left ,72,1475096998934 ,42,6134584719197 ,75,7445829797388
6.9938511 ,Left ,72,1131971045714 ,42,5525464582941 ,75,7478628058712
7.0091114 ,Left ,72,0446770329144 ,42,4821449873774 ,75,7855357573783
7.0315375 ,Left ,71,9727707320246 ,42,5357356854448 ,75,8434742385887
7.0464784 ,Left ,71,9122273137834 ,42,7196609021547 ,75,8802011744251
7.069068 ,Left ,71,9567245490934 ,42,8553051117788 ,75,887157632964
7.0913749 ,Left ,72,0688225232624 ,42,8679969774229 ,75,8693050251837
7.1137838 ,Left ,72,1171237008961 ,42,843585751536 ,75,8337608262042
7.1289692 ,Left ,72,0732813577865 ,42,8234027005077 ,75,7598335181822
7.1514875 ,Left ,71,9991872860051 ,42,7557330498929 ,75,6877378155783
7.1739056 ,Left ,71,9855561663692 ,42,662779721972 ,75,6524133453026
7.1888818 ,Left ,72,0492861896663 ,42,5693158611538 ,75,6387092946212
7.2114442 ,Left ,72,121874821424 ,42,4979935418712 ,75,6345779106477
7.2336761 ,Left ,72,1515373015342 ,42,4472860701538 ,75,6496492607588
7.2486816 ,Left ,72,1373777641867 ,42,4033193161012 ,75,6672575379831
7.2712264 ,Left ,72,0973874916834 ,42,3483240945335 ,75,685244672838
7.2936879 ,Left ,72,051452161725 ,42,307534001125 ,75,7244964534836
7.3165742 ,Left ,71,9916267344436 ,42,3028863523178 ,75,7644485212167
7.3389497 ,Left ,71,9458331427834 ,42,3178266870595 ,75,7826540048008
7.3690213 ,Left ,71,9704848630725 ,42,2648337529784 ,75,7402719330939
7.3915214 ,Left ,71,984725809754 ,42,2230520664503 ,75,7117491182569
7.4143058 ,Left ,71,9794568821429 ,42,2022441150874 ,75,7025714747164
7.4297022 ,Left ,71,9795886807003 ,42,2010060925428 ,75,7053797276002
7.4516338 ,Left ,71,9755811433362 ,42,2022372612178 ,75,7040065265371
7.4740863 ,Left ,71,9756258474625 ,42,1960110125535 ,75,6999850742459
7.4892069 ,Left ,71,9869479123858 ,42,1778919150815 ,75,690537715096
7.5113836 ,Left ,72,0020853851839 ,42,1578404191655 ,75,6825205629376
7.5342578 ,Left ,72,021131457278 ,42,1296249092434 ,75,6719075027143
7.5491645 ,Left ,72,0509542083494 ,42,0955830938961 ,75,6571689346711
7.5717842 ,Left ,72,0799191041401 ,42,0770080745472 ,75,651784289996
7.6018121 ,Left ,72,0902331789667 ,42,0818283188676 ,75,6528996564115
7.6241972 ,Left ,72,0902132314396 ,42,1063497847852 ,75,6563819585178
7.6469714 ,Left ,72,0959734049186 ,42,1417290697739 ,75,6638160966511
7.6614967 ,Left ,72,0923011931791 ,42,171038644576 ,75,6813557932277
7.6764395 ,Left ,72,0774312455389 ,42,1834733895116 ,75,6938843932936
7.6913623 ,Left ,72,0434070587304 ,42,2079363151849 ,75,7089727646504
7.7137452 ,Left ,71,9931662462871 ,42,2623216460114 ,75,6991886510209
7.7288771 ,Left ,71,9513132459614 ,42,3077980902567 ,75,6938590847125
7.751392 ,Left ,71,9266039350245 ,42,3441565878184 ,75,7155686502208
7.7737476 ,Left ,71,9130582609694 ,42,3646831370154 ,75,7432655548469
7.7889519 ,Left ,71,8956077222414 ,42,410052090316 ,75,7434730610585
7.8114884 ,Left ,71,8883433613697 ,42,4458417474684 ,75,7396855691171
7.8337933 ,Left ,71,9417545505621 ,42,4393186596151 ,75,7439765326369
7.8488548 ,Left ,72,0664616685053 ,42,4168397059396 ,75,7345757626047
7.8711949 ,Left ,72,198646510367 ,42,4159241456702 ,75,6970228987805
7.8938083 ,Left ,72,2675561668911 ,42,4149420999969 ,75,6466335609084
7.909207 ,Left ,72,2913660949582 ,42,3772561308152 ,75,6076573531859
7.9318762 ,Left ,72,2963239775782 ,42,3410794443708 ,75,5841345001536
7.954324 ,Left ,72,3093154990659 ,42,3068587688604 ,75,5550429973986
7.9694259 ,Left ,72,333387765824 ,42,2797253319566 ,75,5358022550466
7.9913325 ,Left ,72,362318802187 ,42,2695805818393 ,75,5261079645479
8.0137529 ,Left ,72,3644517847731 ,42,2566542517991 ,75,52770518166
8.0287308 ,Left ,72,3312579835447 ,42,2113363361961 ,75,5396350852344
8.0514439 ,Left ,72,3039207096808 ,42,1742647803248 ,75,585556995855
8.0736126 ,Left ,72,2526956253955 ,42,2225027905233 ,75,6200484549304
8.0887925 ,Left ,72,2177835439069 ,42,3070729109866 ,75,6395126637391
8.1114246 ,Left ,72,2395815977477 ,42,343005571345 ,75,6418519258631
8.1337233 ,Left ,72,3089051174972 ,42,3603960728137 ,75,6334896434699
8.1564466 ,Left ,72,3540731446131 ,42,3737527027149 ,75,612453361747
8.1713631 ,Left ,72,3659187946401 ,42,3746012374531 ,75,5842667347591
8.193723 ,Left ,72,3576840965286 ,42,363992060654 ,75,5404909132271
8.216465 ,Left ,72,3402948322456 ,42,3359365343512 ,75,501205474984
8.2313813 ,Left ,72,3219312387088 ,42,2877333486979 ,75,4989377112686
8.2538339 ,Left ,72,3046715958544 ,42,2750912385941 ,75,5851969871226
8.2769604 ,Left ,72,2864125193517 ,42,3788149667698 ,75,6769383168193
8.2919292 ,Left ,72,279156475323 ,42,5095734692587 ,75,7445837901773
8.3139584 ,Left ,72,3255375668555 ,42,5973203717071 ,75,7729949485607
8.336346 ,Left ,72,3606089237671 ,42,6341519271606 ,75,8145679417875
8.3514853 ,Left ,72,374506231619 ,42,6955761549057 ,75,8545369372646
8.3737863 ,Left ,72,3816638174886 ,42,7615858190833 ,75,9099869199403
8.3964307 ,Left ,72,4188544243042 ,42,8203719545084 ,75,9808796457611
8.4113301 ,Left ,72,4755871953784 ,42,8731405829143 ,76,0517468019901
8.4337895 ,Left ,72,5079536412384 ,42,9339093341643 ,76,112077459333
8.4564234 ,Left ,72,4813728171043 ,42,9883033444479 ,76,1297624330625
8.4714054 ,Left ,72,4186148580737 ,42,9923569034967 ,76,1128643310425
8.4937837 ,Left ,72,3501181121971 ,42,972542508434 ,76,097274509828
8.5163815 ,Left ,72,2815795657187 ,42,9467996587061 ,76,0903473167794
8.5313439 ,Left ,72,2143524897925 ,42,9498940899428 ,76,1207207351545
8.5536787 ,Left ,72,1450217400226 ,43,039860962537 ,76,1839503151512
8.5764365 ,Left ,72,0727227199524 ,43,1956803489311 ,76,2521614752131
8.5914692 ,Left ,72,0412063717132 ,43,3023343540605 ,76,3135131945899
8.6138544 ,Left ,72,0799063339012 ,43,3316594449155 ,76,3536453098985
8.636386 ,Left ,72,1312601566551 ,43,3270838203396 ,76,3474794337024
8.6513434 ,Left ,72,1624124539449 ,43,3474543315036 ,76,31334113176
8.6737866 ,Left ,72,1547593887171 ,43,3747124519067 ,76,2520346920605
8.6965001 ,Left ,72,1364156520138 ,43,4029186112094 ,76,1876545201064
8.7114542 ,Left ,72,1303252298784 ,43,4282037738428 ,76,1309951797576
8.7411693 ,Left ,72,1302876319918 ,43,4512514135094 ,76,0733576896506
8.7637358 ,Left ,72,1308953149347 ,43,4868657669411 ,76,0218103469753
8.7787488 ,Left ,72,1468462038133 ,43,5229746207057 ,75,9656248757038
8.7937724 ,Left ,72,1424452085961 ,43,5204494800566 ,75,9035585534975
8.8164119 ,Left ,72,1125796969983 ,43,5080830278154 ,75,8434391324301
8.8313301 ,Left ,72,0936968802918 ,43,4872579169075 ,75,7752671908726
8.8538012 ,Left ,72,0808979085514 ,43,4552746006063 ,75,6948638862856
8.8764838 ,Left ,72,0608743522414 ,43,4242721097777 ,75,6145142978692
8.8912738 ,Left ,72,02792826109 ,43,3988436246327 ,75,5327390558273
8.9138563 ,Left ,71,9820265318594 ,43,3382365848458 ,75,4795267067491
8.936474 ,Left ,71,9265027359087 ,43,2942070122041 ,75,4900870102353
8.9588791 ,Left ,71,9349998617196 ,43,2940669320468 ,75,5136761317743
8.9737787 ,Left ,71,9984221613514 ,43,3212977307989 ,75,5115109249205
8.9965224 ,Left ,72,1216205110214 ,43,2848621421906 ,75,5034744366178
9.0186777 ,Left ,72,2431553760671 ,43,1796895559225 ,75,5069785314323
9.0335639 ,Left ,72,3117299420526 ,43,0614306502415 ,75,4921226743419
9.0563963 ,Left ,72,3000619289954 ,42,9637900500066 ,75,4904843888364
9.0796379 ,Left ,72,277627935741 ,42,855179018788 ,75,4933214046226
9.0944006 ,Left ,72,2807144958286 ,42,7488261505959 ,75,4901810718725
9.1163942 ,Left ,72,292498917064 ,42,6733183825276 ,75,4748841120885
9.1389766 ,Left ,72,2836355847312 ,42,6079708622691 ,75,4608504589793
9.1538057 ,Left ,72,2524848441842 ,42,5506596243408 ,75,4495480188547
9.1764153 ,Left ,72,1908996120112 ,42,5860263266213 ,75,4796061914553
9.1989362 ,Left ,72,1584681631229 ,42,7241728112364 ,75,5050859987876
9.2138434 ,Left ,72,1640202529911 ,42,89395432159 ,75,5106986702555
9.2363661 ,Left ,72,2004684231045 ,42,9654980095888 ,75,5145809203259
9.266115 ,Left ,72,2276625943986 ,42,9656223741002 ,75,4901470857023
9.2818336 ,Left ,72,1748508717226 ,42,965738604652 ,75,4347747140182
9.3043101 ,Left ,72,098249941964 ,42,9432892020716 ,75,3902520236058
9.3195471 ,Left ,72,0937946869223 ,42,8722460315663 ,75,3664444606873
9.3342642 ,Left ,72,1464187164601 ,42,7801934770381 ,75,3558398195301
9.3566734 ,Left ,72,180803593847 ,42,7027341748056 ,75,3479017547622
9.3789533 ,Left ,72,1805974358003 ,42,6406919456312 ,75,3577987365138
9.3936226 ,Left ,72,1652662111941 ,42,5864061732469 ,75,380248920124
9.416409 ,Left ,72,154666559331 ,42,539173817816 ,75,3987214763246
9.4389332 ,Left ,72,1689897104703 ,42,490708078292 ,75,4103590739631
9.4537407 ,Left ,72,1432952633499 ,42,4755064564662 ,75,4216531572779
9.4761914 ,Left ,72,0971003838135 ,42,4852448276787 ,75,4214865448249
9.4988987 ,Left ,72,0687347173466 ,42,4817301872386 ,75,4201261030326
9.5137375 ,Left ,72,0682670588951 ,42,4567591530769 ,75,4107108171593
9.5366498 ,Left ,72,0613980249269 ,42,4331341628491 ,75,4027298743213
9.5593262 ,Left ,72,0520383818762 ,42,4240121889223 ,75,4029060990433
9.5736511 ,Left ,72,0447373427964 ,42,4183096697679 ,75,4072185854735
9.5963594 ,Left ,72,0447373427964 ,42,4183096697679 ,75,4072185854735
9.6190157 ,Left ,72,0539746566767 ,42,4173705342934 ,75,4085853859515
9.6342928 ,Left ,72,0591105526798 ,42,407557272465 ,75,4101321275768
9.656864 ,Left ,72,0541525424844 ,42,391618553773 ,75,4132165437962
9.6796414 ,Left ,72,0474883926432 ,42,3809854740674 ,75,4190287668602
9.6943417 ,Left ,72,0526330065378 ,42,3711652615942 ,75,4205864113596
9.7167904 ,Left ,72,0647567908622 ,42,3481364559526 ,75,4181722934286
9.7393897 ,Left ,72,0900511906448 ,42,3241878763337 ,75,4157003786248
9.7539018 ,Left ,72,1117227279823 ,42,3171752462281 ,75,417097662421
9.7765015 ,Left ,72,1217381295338 ,42,3234179810251 ,75,4099148472971
9.7989 ,Left ,72,1234157738034 ,42,3375744076739 ,75,404102405026
9.8138279 ,Left ,72,1329872961451 ,42,3555364057088 ,75,4051472986865
9.8364354 ,Left ,72,1484026640453 ,42,3668638684739 ,75,4105042148535
9.8589419 ,Left ,72,1463622944554 ,42,3776714005952 ,75,4173596948769
9.8740493 ,Left ,72,1207909500317 ,42,4050681261659 ,75,4323968006808
9.8965274 ,Left ,72,0897542201857 ,42,4714228594626 ,75,4244668130567
9.9191077 ,Left ,72,0367212998596 ,42,5387294671889 ,75,4654079506886
9.9338392 ,Left ,72,0071504791396 ,42,5972178143913 ,75,5176076822516
9.956564 ,Left ,71,9804303841678 ,42,6450484318141 ,75,5560407249624
9.9791721 ,Left ,71,9651919145299 ,42,7165331215202 ,75,5592745366036
9.993918 ,Left ,71,9659109962933 ,42,7528540662454 ,75,5532779377714
10.0170156 ,Left ,72,0271015075186 ,42,7209462127789 ,75,5442424040648
10.0395513 ,Left ,72,135645444503 ,42,6465092048497 ,75,51929962988
10.0618749 ,Left ,72,2247894909015 ,42,599866817914 ,75,4980543749231
10.0764726 ,Left ,72,2859167126829 ,42,5732824972058 ,75,4610389359875
10.098842 ,Left ,72,3113340909784 ,42,54386098209 ,75,4305938077728
10.1213453 ,Left ,72,3382223040983 ,42,5005192905668 ,75,4141975772428
10.1364654 ,Left ,72,3494710787336 ,42,4676270229784 ,75,3990544435404
10.1592378 ,Left ,72,3346031411183 ,42,4666386226775 ,75,3708496096775
10.1820229 ,Left ,72,2897975138051 ,42,4529302013123 ,75,3440482650102
10.1970642 ,Left ,72,2546306560009 ,42,3697740307331 ,75,3726356136385
10.2193031 ,Left ,72,2421567006563 ,42,3319450366092 ,75,4249749266697
10.2413507 ,Left ,72,2127911938664 ,42,424154805107 ,75,4336336839402
10.2563237 ,Left ,72,1994783129312 ,42,4895366920634 ,75,4384895053969
10.2790989 ,Left ,72,2282104914586 ,42,5232745679857 ,75,4299917410831
10.3013808 ,Left ,72,2447926866875 ,42,5279408369481 ,75,4034677518808
10.3163629 ,Left ,72,2285794193047 ,42,5195870447354 ,75,3754783880232
10.338788 ,Left ,72,206690606817 ,42,5003291145765 ,75,3433733125942
10.3615257 ,Left ,72,1986493479358 ,42,4499717660948 ,75,3144969065436
10.3765145 ,Left ,72,2069607335493 ,42,4034880605797 ,75,3568578351583
10.3987217 ,Left ,72,1979058912555 ,42,4752679128466 ,75,4498085576075
10.4219342 ,Left ,72,1625816761746 ,42,6282552736524 ,75,5308408057138
10.4368838 ,Left ,72,1895394451074 ,42,7324379906628 ,75,5740908068896
10.4591363 ,Left ,72,2735653714528 ,42,7530719199305 ,75,6049468330918
10.481428 ,Left ,72,3146336465147 ,42,8265398732075 ,75,6467169993988
10.5036666 ,Left ,72,3207376019644 ,42,8861381901196 ,75,6921180014737
10.5189773 ,Left ,72,3301142274808 ,42,9127669869877 ,75,748893121362
10.5413458 ,Left ,72,3707959097325 ,42,9191171396018 ,75,8066624368984
10.556409 ,Left ,72,3996973520519 ,42,9287479267984 ,75,8572038514601
10.5791941 ,Left ,72,3953970830552 ,42,9483911423942 ,75,8884424464664
10.6018814 ,Left ,72,3583049291592 ,42,9730659598432 ,75,8984724161922
10.6170173 ,Left ,72,3098972927091 ,42,9978999041351 ,75,8871299137344
10.6391582 ,Left ,72,229136637077 ,43,002969073232 ,75,8802514760741
10.6616048 ,Left ,72,1430989253969 ,42,9721987389999 ,75,9030148389658
10.6766101 ,Left ,72,136406124922 ,42,9633825617713 ,75,9523097654874
10.6989038 ,Left ,72,1237732271801 ,43,0981927414429 ,75,9915541154024
10.7215726 ,Left ,72,0938857872992 ,43,275297686588 ,76,0377552785177
10.7440157 ,Left ,72,1205636665903 ,43,3579795665666 ,76,0788823067453
10.7591205 ,Left ,72,178139323324 ,43,3680412398402 ,76,0786744514609
10.7814513 ,Left ,72,1926163398066 ,43,3713255238609 ,76,0469320818061
10.8039224 ,Left ,72,1607849721585 ,43,3757886768004 ,75,9863924723282
10.8191655 ,Left ,72,1366229868626 ,43,3718485853195 ,75,9122349161775
10.8415666 ,Left ,72,1374514479461 ,43,3855269140438 ,75,8395384867122
10.8563884 ,Left ,72,1504378537066 ,43,4143565159586 ,75,7665262492768
10.8790371 ,Left ,72,1673905792609 ,43,4485363070679 ,75,6968768259062
10.9014656 ,Left ,72,16415940996 ,43,4750876810928 ,75,6360953486038
10.9163915 ,Left ,72,1532191313325 ,43,4860784815647 ,75,5803951135166
10.9387252 ,Left ,72,1268347490829 ,43,502050441622 ,75,5314022323361
10.9614213 ,Left ,72,0996169673846 ,43,524554053262 ,75,4852851318511
10.9764871 ,Left ,72,0691991650398 ,43,5268257249237 ,75,4319599823852
10.9989523 ,Left ,72,0396464153509 ,43,5046608166063 ,75,3782159411572
11.0214024 ,Left ,71,9903566758293 ,43,4739677191039 ,75,3211953685891
11.0437117 ,Left ,71,9255129577464 ,43,4108325139898 ,75,2513305134011
11.0588958 ,Left ,71,8231812648957 ,43,3149338312516 ,75,1798462900926
11.0812084 ,Left ,71,6854059413817 ,43,2142957923792 ,75,1734964026479
11.1038809 ,Left ,71,6462545915031 ,43,1989425943448 ,75,2263030374864
11.1193099 ,Left ,71,7111759123294 ,43,2841063094056 ,75,2434868833198
11.1415657 ,Left ,71,8681961868562 ,43,2802804954241 ,75,2279435295743
11.1639664 ,Left ,72,0171771489495 ,43,181440093608 ,75,2144668376803
11.1790652 ,Left ,72,0623684661759 ,43,0913836162423 ,75,204645594374
11.201607 ,Left ,72,0247861976905 ,42,9993275154092 ,75,2018976443037
11.2240283 ,Left ,72,0034070045629 ,42,873768333057 ,75,2108439129837
11.2391115 ,Left ,72,0514925286792 ,42,7485421112071 ,75,2139415080785
11.2616685 ,Left ,72,1108389734029 ,42,6530692093913 ,75,2075357712191
11.283649 ,Left ,72,134188286097 ,42,5747457763894 ,75,2037448448087
11.2989276 ,Left ,72,1109028410056 ,42,4995882289806 ,75,226409637985
11.3213694 ,Left ,72,0455595754951 ,42,5292433481849 ,75,2831342650029
11.3442486 ,Left ,71,9977633457201 ,42,681556775902 ,75,317779833616
11.3589198 ,Left ,72,0223570150754 ,42,8389956323873 ,75,3185821900462
11.3812361 ,Left ,72,1284180631808 ,42,8980076095587 ,75,306069239294
11.4037859 ,Left ,72,2068207924236 ,42,9145523094797 ,75,2783885524312
11.4189173 ,Left ,72,18532438998 ,42,9329806967856 ,75,2257370888819
11.4415447 ,Left ,72,1188135619462 ,42,9035194360398 ,75,1790555890868
11.463956 ,Left ,72,119306589415 ,42,8207503683589 ,75,1455999091779
11.4790395 ,Left ,72,1805185406922 ,42,7210089901383 ,75,1305532198464
11.5015646 ,Left ,72,2249148665135 ,42,654101976905 ,75,1196447928324
11.5237891 ,Left ,72,2310358816048 ,42,6158304535369 ,75,1182181566424
11.538951 ,Left ,72,2065431733782 ,42,5819354532176 ,75,1250206488915
11.5613924 ,Left ,72,1813234337499 ,42,5691697899933 ,75,1332714732902
11.5837256 ,Left ,72,1541928215021 ,42,5811695419524 ,75,1359656112827
11.5988377 ,Left ,72,1413854599741 ,42,5745356026285 ,75,1345829733108
11.6216312 ,Left ,72,1449824191404 ,42,5577722959669 ,75,1249774941232
11.6441287 ,Left ,72,1488141978164 ,42,5286942151894 ,75,1016120786617
11.6590642 ,Left ,72,1574481075942 ,42,4885646969776 ,75,0741663454183
11.6813761 ,Left ,72,171781229024 ,42,456226468086 ,75,0563362843145
11.7039298 ,Left ,72,1869769298852 ,42,4427286391035 ,75,0522092490828
11.7190783 ,Left ,72,199794185442 ,42,441366105753 ,75,0466453925487
11.7414677 ,Left ,72,1987855374737 ,42,4436667375923 ,75,0480192175991
11.7639347 ,Left ,72,1945277618114 ,42,4442247033872 ,75,0411238821291
11.7939149 ,Left ,72,1993402423477 ,42,4352038898655 ,75,0287199250816
11.8091003 ,Left ,72,2041917030872 ,42,4230094544702 ,75,0218595007516
11.8386669 ,Left ,72,22426445474 ,42,408458665691 ,75,0176990511602
11.8612448 ,Left ,72,2427568004108 ,42,3898996970774 ,75,0121851309688
11.88379 ,Left ,72,26004799101 ,42,3729506487447 ,75,0080416614381
11.898924 ,Left ,72,2631145516299 ,42,3760273910075 ,75,008015337258
11.9216059 ,Left ,72,2596861635907 ,42,3804032491614 ,75,0093897969487
11.9441231 ,Left ,72,2613525986211 ,42,4001190033154 ,75,0162183359219
11.9666352 ,Left ,72,2752721146721 ,42,4080005642123 ,75,0369005122373
11.9814788 ,Left ,72,2760187460217 ,42,4226128077028 ,75,0728479267319
12.0039115 ,Left ,72,2463870580832 ,42,4753309119814 ,75,0990056030612
12.0264182 ,Left ,72,186914091399 ,42,5639615130492 ,75,129148442601
12.0416256 ,Left ,72,1177667857974 ,42,6764228338958 ,75,1922797463803
12.0639792 ,Left ,72,0839983277101 ,42,7325426264254 ,75,2542003341743
12.0866556 ,Left ,72,0637408940938 ,42,7855715025098 ,75,3009959497141
12.1013449 ,Left ,72,0516052497256 ,42,8677985687793 ,75,3119529014786
12.1239852 ,Left ,72,0658401001444 ,42,9199321376911 ,75,3149582172082
12.1466458 ,Left ,72,1229386294372 ,42,9105903882231 ,75,3115990303714
12.1614004 ,Left ,72,2165735329057 ,42,8772882230398 ,75,2989999036222
12.1839279 ,Left ,72,2657525076756 ,42,8508275943429 ,75,271955916065
12.2065646 ,Left ,72,2848644623255 ,42,8080106288061 ,75,2456162192052
12.2215296 ,Left ,72,3090894965145 ,42,7577390514778 ,75,2303297859769
12.243982 ,Left ,72,3349768751485 ,42,6933854755821 ,75,2108364390711
12.2667379 ,Left ,72,34431480447 ,42,6417529358453 ,75,1884700654925
12.2814694 ,Left ,72,3372854255847 ,42,5913509305635 ,75,1493432250888
12.3038914 ,Left ,72,2917974747233 ,42,5291642363968 ,75,1364383256963
12.3265317 ,Left ,72,2779989151264 ,42,4500757393191 ,75,1740185893753
12.3417862 ,Left ,72,2563411604943 ,42,464664792182 ,75,20030408666
12.3643874 ,Left ,72,200823055085 ,42,5426256619405 ,75,2067891159181
12.3868835 ,Left ,72,1813381843772 ,42,5791695898515 ,75,2107803624281
12.4018532 ,Left ,72,1999808231859 ,42,5893425975419 ,75,209441939452
12.4244292 ,Left ,72,2216978873191 ,42,6046070628355 ,75,1998130162761
12.4469866 ,Left ,72,2287206856007 ,42,6035827714407 ,75,1859996559127
12.4613958 ,Left ,72,222143429787 ,42,579823510845 ,75,1541346751801
12.4839244 ,Left ,72,2128955772986 ,42,4962288036142 ,75,1072317815785
12.5067171 ,Left ,72,2056278301389 ,42,4028802290195 ,75,129907690542
12.5214531 ,Left ,72,2033632875922 ,42,4404286042449 ,75,1934781893442
12.5438403 ,Left ,72,1769623439525 ,42,5919653218029 ,75,2620063189634
12.5664546 ,Left ,72,1927933964245 ,42,7296363481308 ,75,3216270130901
12.5890743 ,Left ,72,2839761987797 ,42,8010827493149 ,75,3495726674698
12.6038759 ,Left ,72,3386069458038 ,42,8607520539601 ,75,3873026298493
12.6265526 ,Left ,72,3390964371593 ,42,9329336864592 ,75,4284349254185
12.6489538 ,Left ,72,3460735787219 ,42,9750929293247 ,75,4626427867037
12.6638736 ,Left ,72,3791231193171 ,42,9595888532617 ,75,4954070898948
12.6863779 ,Left ,72,4133422507382 ,42,9280338763903 ,75,5267276141359
12.7015565 ,Left ,72,4127129212058 ,42,9281231827752 ,75,5365802605202
12.7240505 ,Left ,72,355282100353 ,42,9353799741205 ,75,5321626330492
12.7464317 ,Left ,72,29890894624 ,42,9306650314001 ,75,515223414999
12.7615296 ,Left ,72,2311530934572 ,42,9201391682081 ,75,5191983081975
12.7838742 ,Left ,72,157926650781 ,42,9679854748139 ,75,5568607792642
12.8063911 ,Left ,72,1172402824646 ,43,0942139673942 ,75,6054297684952
12.8290907 ,Left ,72,15803900407 ,43,2361656007269 ,75,6526192798483
12.8438246 ,Left ,72,2545872668691 ,43,3292187174036 ,75,6952440826994
12.8669602 ,Left ,72,3248405526063 ,43,3694806147466 ,75,7283931215618
12.8893492 ,Left ,72,3251971072814 ,43,4101685763855 ,75,7445548725946
12.9043038 ,Left ,72,3011497068208 ,43,4543771906936 ,75,708254073753
12.9267579 ,Left ,72,2827077371565 ,43,4981193493109 ,75,6502158814203
12.9490457 ,Left ,72,2865323388777 ,43,540155716402 ,75,5669067560179
12.9640788 ,Left ,72,2697463712904 ,43,5776654717284 ,75,4814629079866
12.9867894 ,Left ,72,241675315138 ,43,6078556438807 ,75,401302841042
13.0092443 ,Left ,72,2266940254869 ,43,6071957634146 ,75,3387686921725
13.0242075 ,Left ,72,2351907646872 ,43,5959588759307 ,75,2840040691063
13.0466273 ,Left ,72,2495736615033 ,43,5852333496533 ,75,2321438706437
13.069093 ,Left ,72,2355328728536 ,43,5879589104177 ,75,1702522545738
13.0841036 ,Left ,72,1974376177166 ,43,577998768641 ,75,0935709881037
13.1064965 ,Left ,72,1211467092288 ,43,5526238258794 ,75,0208929278948
13.1292492 ,Left ,72,0251539141793 ,43,499586920121 ,74,959633612904
13.1441358 ,Left ,71,9056849736844 ,43,410064697415 ,74,9413803410282
13.1666494 ,Left ,71,8629479947657 ,43,3562310017361 ,74,9747848055734
13.1890355 ,Left ,71,8997463011932 ,43,4190739899404 ,74,9995333465405
13.204101 ,Left ,71,9998172947048 ,43,4594392407852 ,74,9904462106445
13.2266613 ,Left ,72,1196906372921 ,43,3870265059671 ,74,9943028255613
13.2491644 ,Left ,72,2113255452903 ,43,284276454425 ,74,9913104812322
13.2639633 ,Left ,72,2139267453899 ,43,2227543123438 ,75,0048415067987
13.2867243 ,Left ,72,2087217533448 ,43,1237120280553 ,75,0284928420853
13.3092924 ,Left ,72,2161371984107 ,43,0243828890487 ,75,0446282084872
13.3241707 ,Left ,72,2196862257574 ,42,9513573352015 ,75,0326167715961
13.346776 ,Left ,72,1854716801049 ,42,9187653338269 ,75,0057182591703
13.3690723 ,Left ,72,1505659700174 ,42,8575732556059 ,74,963638421258
13.3841466 ,Left ,72,0730701727356 ,42,8365348577775 ,74,9957931099897
13.4067692 ,Left ,72,0268079170164 ,42,953003721536 ,75,0563629370218
13.429274 ,Left ,72,0082495445932 ,43,1862014815253 ,75,1077031437695
13.4440638 ,Left ,72,0823857035018 ,43,3471181466269 ,75,1448083177119
13.466558 ,Left ,72,2090250813927 ,43,3960946634606 ,75,1455685075206
13.4817153 ,Left ,72,2280278141425 ,43,4415582607791 ,75,105169565191
13.5191745 ,Left ,72,0663513662699 ,43,3844654970797 ,74,996993482582
13.5417508 ,Left ,72,1050428164374 ,43,2850639981599 ,74,9507556788826
13.5791383 ,Left ,72,1926316193513 ,43,1057512221056 ,74,8765679255746
13.6015991 ,Left ,72,1669962625267 ,43,0358499978414 ,74,8680512286368
13.6160469 ,Left ,72,1672808399651 ,42,9637178937246 ,74,8804893113901
13.6387963 ,Left ,72,1924238672353 ,42,8998038444418 ,74,8962131805637
13.6613424 ,Left ,72,2207190587257 ,42,8662317828894 ,74,9110830237456
13.676423 ,Left ,72,2309831486004 ,42,8680173708169 ,74,9235073414146
13.69888 ,Left ,72,1977521714322 ,42,8678461974878 ,74,9395691967221
13.7214697 ,Left ,72,1626699695962 ,42,8610501246612 ,74,9624126326867
13.736606 ,Left ,72,1596448554498 ,42,8447900927583 ,74,9745395465826
13.759084 ,Left ,72,1715472142968 ,42,8140887514691 ,74,9647820748307
13.7813215 ,Left ,72,1714941671112 ,42,7768393145059 ,74,9466917486392
13.7965409 ,Left ,72,1451779526775 ,42,7595317405776 ,74,940965352734
13.8189308 ,Left ,72,1205805031098 ,42,7430569303161 ,74,9421580893684
13.8415358 ,Left ,72,1172299909657 ,42,7292877939006 ,74,943457348091
13.8565588 ,Left ,72,1237900867912 ,42,7117460951117 ,74,9447714790667
13.8791077 ,Left ,72,130337775928 ,42,686158165929 ,74,9392197220192
13.9014696 ,Left ,72,1134744671679 ,42,6617437917744 ,74,9364123474417
13.9163755 ,Left ,72,1012551367396 ,42,6312939914994 ,74,9363985411256
13.9464409 ,Left ,72,1175117492675 ,42,5993024621915 ,74,9336266985118
13.9689454 ,Left ,72,147070749716 ,42,5672808962231 ,74,9308297141479
13.9838944 ,Left ,72,180028568485 ,42,5420899206004 ,74,9280018714834
13.998905 ,Left ,72,2026504158102 ,42,5330665366762 ,74,9334490645639
14.0211422 ,Left ,72,2105267138102 ,42,5488737974631 ,74,941697408083
14.036168 ,Left ,72,2081235980186 ,42,5758975250252 ,74,9513537516312
14.0586949 ,Left ,72,2079669203169 ,42,607040716706 ,74,9651642859941
14.0812416 ,Left ,72,2066234968042 ,42,6197078806698 ,74,9830635741646
14.0962751 ,Left ,72,2029445493344 ,42,6062561794873 ,75,0022795570827
14.1187525 ,Left ,72,2012677081362 ,42,598251730855 ,75,0174011499848
14.1415547 ,Left ,72,2027775693842 ,42,6104354240166 ,75,0146727601259
14.1564585 ,Left ,72,2142037344005 ,42,6289281982854 ,75,0051156035487
14.1793086 ,Left ,72,2420275022846 ,42,6443478941287 ,74,9860186528142
14.2015282 ,Left ,72,2752940087904 ,42,6489701259129 ,74,9559651102751
14.2163735 ,Left ,72,2978007883591 ,42,6423741711206 ,74,9216900508803
14.2387522 ,Left ,72,27690898499 ,42,6433242177361 ,74,8927822022169
14.2614118 ,Left ,72,247584429375 ,42,640104729099 ,74,8638856720934
14.3069897 ,Left ,72,2644769636783 ,42,5789205493932 ,74,8443531886031
14.3593117 ,Left ,72,2102823279457 ,42,5679853935113 ,74,9650895324948
14.3815083 ,Left ,72,1731812413685 ,42,5891372982328 ,75,0352603423008
14.4191419 ,Left ,72,0433412785337 ,42,6907005592051 ,75,183728041783
14.4413752 ,Left ,72,0099759819461 ,42,7647087310234 ,75,2219957393684
14.4787399 ,Left ,72,0742007701696 ,42,8271013261158 ,75,2292404927536
14.5013519 ,Left ,72,1144432497932 ,42,8002516322931 ,75,2088793545375
14.5389262 ,Left ,72,1505187687332 ,42,6871628792333 ,75,1110224883168
14.5615142 ,Left ,72,1838356079869 ,42,6065898920235 ,75,0435449739973
14.5989891 ,Left ,72,2711955104897 ,42,468182160029 ,74,9581079222761
14.6215859 ,Left ,72,2454975189907 ,42,4524622288468 ,74,9319986388475
14.6590942 ,Left ,72,2715500143936 ,42,4999668587171 ,75,0201825370928
14.6815224 ,Left ,72,2874701223842 ,42,5656911047908 ,75,0161845417793
14.7187793 ,Left ,72,341693814786 ,42,591868851224 ,74,9724666657469
14.7414673 ,Left ,72,3546810868681 ,42,5884697676875 ,74,9463436294863
14.7787215 ,Left ,72,3728733216002 ,42,5381678723792 ,74,8896347660998
14.8012025 ,Left ,72,3643793246365 ,42,5057697668668 ,74,8536444211257
14.8388492 ,Left ,72,2683411108269 ,42,6216965295061 ,74,9763990272137
14.861255 ,Left ,72,2529568656016 ,42,7854554298775 ,75,0737318220385
14.8839587 ,Left ,72,2626832177256 ,42,9560961372787 ,75,1240163291262
14.8987911 ,Left ,72,3072181222096 ,43,0714225920431 ,75,1420748511278
14.9213551 ,Left ,72,3124493581033 ,43,1451838436783 ,75,1753790498417
14.9438373 ,Left ,72,2882767863263 ,43,2131610020631 ,75,2078081533227
14.9588411 ,Left ,72,2829153911894 ,43,2468416088294 ,75,233135102284
14.9814815 ,Left ,72,2999973394182 ,43,2380678059816 ,75,2541360672642
15.0189086 ,Left ,72,2546171475523 ,43,2318163681364 ,75,2911704950035
15.0413929 ,Left ,72,1894426676119 ,43,249051599848 ,75,2896206273953
15.0791232 ,Left ,72,0879821674222 ,43,2094277735253 ,75,3165584708502
15.1016132 ,Left ,72,0606688744974 ,43,2779953650279 ,75,3471900926237
15.1239554 ,Left ,71,9877386448755 ,43,4514215456862 ,75,3878775915494
15.1388727 ,Left ,71,9839671483023 ,43,5910438752567 ,75,4440816459745
15.1615286 ,Left ,72,071227764155 ,43,6398998658449 ,75,4732916118314
15.1838583 ,Left ,72,1346141635358 ,43,6678742234112 ,75,4822747070889
15.2214123 ,Left ,72,152850643435 ,43,7017481538156 ,75,4277313173409
15.2439698 ,Left ,72,1396797960924 ,43,7322135650427 ,75,3651516066294
15.2813354 ,Left ,72,1438163398698 ,43,8125503030021 ,75,2481260679099
15.3193428 ,Left ,72,1491234254307 ,43,8243542423022 ,75,1428625414184
15.3417863 ,Left ,72,1540826858515 ,43,7989188450635 ,75,0918848864785
15.3790896 ,Left ,72,1154467721738 ,43,7754552873638 ,74,9920271968457
15.4015916 ,Left ,72,1010186966814 ,43,7470100015761 ,74,9242979770895
15.4388214 ,Left ,72,016048839047 ,43,5914970474279 ,74,7951156413668
15.4612971 ,Left ,71,9455351311196 ,43,5035311625768 ,74,7814710978603
15.4986814 ,Left ,71,9148649807932 ,43,5458767608324 ,74,8128287931154
15.5211577 ,Left ,71,995998191901 ,43,5667454798895 ,74,7884690822014
15.5435517 ,Left ,72,1260554863184 ,43,4513232184413 ,74,7827208355843
15.5810898 ,Left ,72,2455001891464 ,43,1952813427445 ,74,7698419951662
15.6035781 ,Left ,72,2333586652055 ,43,0587995839381 ,74,7825430127236
15.6414034 ,Left ,72,2783580387484 ,42,8171946609756 ,74,767679953052
15.6642685 ,Left ,72,267507835115 ,42,7942190732822 ,74,7413975877714
15.701312 ,Left ,72,1529903589574 ,42,7519502879385 ,74,7649305365051
15.7238804 ,Left ,72,1025081463448 ,42,89224388643 ,74,8150929763539
15.7614403 ,Left ,72,0829098697983 ,43,2795717541732 ,74,9040946179691
15.7839918 ,Left ,72,1785070178509 ,43,3146479894453 ,74,9138403823579
15.821377 ,Left ,72,1062690303156 ,43,3236317547164 ,74,8352803072945
15.8439026 ,Left ,72,0600364778365 ,43,2675882132116 ,74,7939008850883
15.8814875 ,Left ,72,1559172639024 ,43,0692496555791 ,74,7370009555793
15.9039568 ,Left ,72,1807072129931 ,43,0139037107491 ,74,7226608665394
15.9411857 ,Left ,72,1634122030608 ,42,9117794213608 ,74,6950065710623
15.963765 ,Left ,72,1612096324242 ,42,854670298442 ,74,6819572870855
16.0012766 ,Left ,72,1680128649089 ,42,7422461251784 ,74,6874062348722
16.0239143 ,Left ,72,1591686703422 ,42,733593457253 ,74,6927403000274
16.061617 ,Left ,72,1391225370561 ,42,7066004367787 ,74,6708312563907
16.0837879 ,Left ,72,1598281135161 ,42,6725566501946 ,74,6515037185421
16.1215407 ,Left ,72,1671428483642 ,42,6390385166003 ,74,6132524053053
16.1438863 ,Left ,72,1552875689527 ,42,63041290315 ,74,6077965401158
16.1815259 ,Left ,72,1592675279607 ,42,5985321946195 ,74,6184098198189
16.2039231 ,Left ,72,1760565875886 ,42,5773929432836 ,74,6141348215952
16.2415927 ,Left ,72,2182641360891 ,42,5203748043465 ,74,616211127557
16.2641666 ,Left ,72,2501851510839 ,42,4976650650746 ,74,6295667901338
16.3013297 ,Left ,72,2747251984505 ,42,5205366630194 ,74,6567705462762
16.3239707 ,Left ,72,2724504485385 ,42,5476346876517 ,74,6747215012489
16.3615538 ,Left ,72,2529214653661 ,42,5842134318772 ,74,7295550360841
16.3838049 ,Left ,72,2089823716618 ,42,6375384449083 ,74,7654217887648
16.4216198 ,Left ,72,0772835544186 ,42,763037759614 ,74,8493259130139
16.4440191 ,Left ,72,0342434518225 ,42,8007389141201 ,74,8944516828288
16.4813174 ,Left ,71,9679461397662 ,42,9168905064606 ,74,9098753426229
16.5036629 ,Left ,71,9712602223807 ,42,9822846377903 ,74,8804718374686
16.5414149 ,Left ,72,141340350402 ,42,9818865518893 ,74,8084374122028
16.5639652 ,Left ,72,2185467206886 ,42,9661231071479 ,74,7587679824955
16.6016299 ,Left ,72,285403182547 ,42,8692914725374 ,74,7033643880259
16.6235316 ,Left ,72,3139644291993 ,42,8149922615835 ,74,6917692594595
16.6612301 ,Left ,72,359794868999 ,42,7164776054383 ,74,668647904646
16.6836745 ,Left ,72,34465515311 ,42,6447335361959 ,74,6566320745805
16.7215181 ,Left ,72,2562768060782 ,42,6170927508788 ,74,770740627574
16.7437414 ,Left ,72,2194898866977 ,42,7543372908899 ,74,8101197548208
16.7812912 ,Left ,72,2684010786917 ,42,8667990079444 ,74,8419635511736
16.8039693 ,Left ,72,2604373226769 ,42,8791141198761 ,74,8325266516258
16.8415807 ,Left ,72,1739877609991 ,42,8059508996621 ,74,7709804144271
16.8639009 ,Left ,72,1979772974999 ,42,7147405648008 ,74,7156789990221
16.8939453 ,Left ,72,1397451054749 ,42,7248334213796 ,74,7891990642322
16.9259539 ,Left ,72,0655101853502 ,42,8991679108274 ,74,8598297150413
16.9613927 ,Left ,72,1158130260837 ,43,1537734342735 ,74,9849938123971
16.9836875 ,Left ,72,2005926192215 ,43,2232520922091 ,75,0167851777277
17.0212443 ,Left ,72,2290656846501 ,43,3868144671944 ,75,020510344874
17.0437856 ,Left ,72,2693028740625 ,43,4344289878409 ,75,0341507497734
17.0814659 ,Left ,72,3303315056546 ,43,4376579382482 ,75,0745316490394
17.1037788 ,Left ,72,3033135819317 ,43,4238251615857 ,75,0922130458996
17.119071 ,Left ,72,2870000940299 ,43,3985405702112 ,75,1044776161365
17.1337894 ,Left ,72,3048145395339 ,43,3615099032546 ,75,1121394819548
17.156104 ,Left ,72,3266536001068 ,43,3283049269782 ,75,1132774613578
17.1789529 ,Left ,72,3221210330255 ,43,3076811037236 ,75,1166436945807
17.1938188 ,Left ,72,3253316987992 ,43,285982148867 ,75,1202228261166
17.2164006 ,Left ,72,3454348897343 ,43,2654249001814 ,75,1202950645415
17.238797 ,Left ,72,3498312541089 ,43,239858635297 ,75,1128581898175
17.2538265 ,Left ,72,3414512771514 ,43,2323520297943 ,75,1055680841917
17.276395 ,Left ,72,327827959169 ,43,2646625397443 ,75,0978487994661
17.306476 ,Left ,72,2803316509272 ,43,2773612015584 ,75,0967101910772
17.3217977 ,Left ,72,1692064047572 ,43,2788319286179 ,75,1428979601053
17.3443787 ,Left ,72,0646376661403 ,43,3988066985138 ,75,2383956453586
17.3595245 ,Left ,71,9962773423868 ,43,657121205544 ,75,3257291938828
17.3820171 ,Left ,72,0391932279017 ,43,8735740290862 ,75,4064535330521
17.3969885 ,Left ,72,1845969514085 ,43,982638054245 ,75,4413383499357
17.4192632 ,Left ,72,2918705536861 ,44,042801753003 ,75,4585738668647
17.4414934 ,Left ,72,3232821521186 ,44,0741562765077 ,75,4512044360094
17.4563775 ,Left ,72,3139441490187 ,44,068932859203 ,75,4353056084618
17.4789722 ,Left ,72,3071354426372 ,44,0500871317853 ,75,3847589292483
17.5014065 ,Left ,72,3070200109603 ,44,0186052438659 ,75,3325265879782
17.5163342 ,Left ,72,3226164364761 ,43,9997602821517 ,75,28207234546
17.5387628 ,Left ,72,3532366495851 ,43,9962996870944 ,75,2469591169695
17.5537306 ,Left ,72,3912579686655 ,43,9973750249828 ,75,2110735407756
17.5763925 ,Left ,72,405781754681 ,44,0030700989799 ,75,1660774475656
17.5988726 ,Left ,72,3945906019449 ,44,0305026809399 ,75,1071198197872
17.6213801 ,Left ,72,3674103009158 ,44,0735405110566 ,75,0282106407977
17.636593 ,Left ,72,3420017680107 ,44,105656766486 ,74,9328976444746
17.6592225 ,Left ,72,310272126436 ,44,1088511194604 ,74,8373525910296
17.6813985 ,Left ,72,232446871067 ,44,0837922971893 ,74,7502793140846
17.6965257 ,Left ,72,148534640897 ,44,0182939444188 ,74,6787778930568
17.7187537 ,Left ,72,0422180414833 ,43,9198869092062 ,74,6112282908178
17.7413911 ,Left ,71,9065158886586 ,43,7672726582427 ,74,5980896395435
17.7563153 ,Left ,71,899045629678 ,43,6940188052005 ,74,6498543400201
17.7788582 ,Left ,71,9986591479682 ,43,8271775347715 ,74,6628923113256
17.8014753 ,Left ,72,1801601928021 ,43,86501082655 ,74,6496942301525
17.8164172 ,Left ,72,3887883767908 ,43,7495004841117 ,74,650976649468
17.8390472 ,Left ,72,4899650681485 ,43,6686257796942 ,74,6564185559581
17.861615 ,Left ,72,4752198620697 ,43,5995026988651 ,74,6562470450013
17.8766578 ,Left ,72,4270557168276 ,43,5000076181205 ,74,6509990921303
17.8989866 ,Left ,72,4385616621041 ,43,4000054176799 ,74,6429423851439
17.9215358 ,Left ,72,4656409809673 ,43,3375770174264 ,74,6236375873924
17.9364326 ,Left ,72,4570418494652 ,43,2681670249244 ,74,6070918696748
17.9591815 ,Left ,72,3983395897924 ,43,1382671730637 ,74,6131294391593
17.9814962 ,Left ,72,3290870756881 ,43,0822424554394 ,74,6830933281279
17.9966226 ,Left ,72,2519717429789 ,43,248220836439 ,74,7444343408623
18.0191739 ,Left ,72,2588353995586 ,43,4959154280567 ,74,7718349767068
18.0415325 ,Left ,72,371060215195 ,43,613814783962 ,74,7901295453938
18.0566006 ,Left ,72,478209719619 ,43,643455247076 ,74,7717038012742
18.0789897 ,Left ,72,4201648092297 ,43,6786034858577 ,74,7198044326707
18.101375 ,Left ,72,2875215047615 ,43,6480610924324 ,74,6702325103054
18.1170629 ,Left ,72,2503198079928 ,43,5477414265796 ,74,6445857391549
18.1392048 ,Left ,72,3247262819053 ,43,4245458175122 ,74,6297417779929
18.1613883 ,Left ,72,4075138252589 ,43,317936005752 ,74,6130730614631
18.1764404 ,Left ,72,4378376738372 ,43,2306106764711 ,74,5943541414431
18.1987729 ,Left ,72,4362434819804 ,43,1436663846671 ,74,5790283818391
18.2213207 ,Left ,72,4276490844607 ,43,0501001324047 ,74,5676363273326
18.2437339 ,Left ,72,4145964033767 ,42,9622435101836 ,74,5688815807792
18.2589475 ,Left ,72,3957758505223 ,42,9117766620226 ,74,5658994770835
18.2813349 ,Left ,72,3780698895636 ,42,9112672317131 ,74,5792047241978
18.2962717 ,Left ,72,3749061989212 ,42,9162501692065 ,74,5806458255534
18.3190593 ,Left ,72,382330650417 ,42,927811922724 ,74,5688393557643
18.3415631 ,Left ,72,3863589334977 ,42,9070330218828 ,74,5467212924184
18.3565915 ,Left ,72,3725093639155 ,42,8751181134478 ,74,5336353837427
18.3787797 ,Left ,72,3661105998969 ,42,8408530096596 ,74,5206023148832
18.4012723 ,Left ,72,3607864918463 ,42,8110736204129 ,74,5158540957501
18.4161935 ,Left ,72,3563176002492 ,42,7902380722474 ,74,5059018039071
18.4395947 ,Left ,72,3510553937243 ,42,7723530580262 ,74,4973881083987
18.4619044 ,Left ,72,348300574257 ,42,7631239500474 ,74,4877525343261
18.4767984 ,Left ,72,354806663082 ,42,7463507912426 ,74,475272680751
18.4994809 ,Left ,72,3683513241578 ,42,7140474937574 ,74,4611197526057
18.5218776 ,Left ,72,3914039582418 ,42,6924383660401 ,74,4472607782077
18.536696 ,Left ,72,4132151059472 ,42,6812184201857 ,74,4362851670753
18.5591331 ,Left ,72,4150466339045 ,42,6879222808952 ,74,4296503230517
18.5814761 ,Left ,72,4057625874288 ,42,7093191970627 ,74,4260149978937
18.6038345 ,Left ,72,4025135717428 ,42,7143024895819 ,74,4274634156879
18.6190526 ,Left ,72,387926052276 ,42,7281600538804 ,74,4452796913037
18.6415361 ,Left ,72,3478759016167 ,42,799554579911 ,74,4628050229844
18.6638741 ,Left ,72,2969292567707 ,42,8998127826532 ,74,4890213880215
18.6791083 ,Left ,72,243293376934 ,42,9683912020119 ,74,5642876628696
18.7014354 ,Left ,72,2197848109578 ,42,9844154189008 ,74,6264769289939
18.731456 ,Left ,72,2057279973273 ,43,0515954267185 ,74,6710110687988
18.7465635 ,Left ,72,2061150697731 ,43,1538571928558 ,74,6923485686542
18.7690631 ,Left ,72,2831361221204 ,43,1929670951534 ,74,6907769168523
18.7839492 ,Left ,72,4261045836486 ,43,1769634541211 ,74,659648575406
18.7988968 ,Left ,72,5468492789313 ,43,1423059916504 ,74,5978508866897
18.8212661 ,Left ,72,5778641207203 ,43,0943076723899 ,74,5264715961208
18.8437203 ,Left ,72,5693728910403 ,43,0221545647296 ,74,4708971609265
18.8588316 ,Left ,72,5771813359609 ,42,9469278989937 ,74,431856690055
18.8813878 ,Left ,72,60539965877 ,42,8917396790995 ,74,4006800429535
18.9038366 ,Left ,72,6105692742414 ,42,8594799922374 ,74,3699448024609
18.9190538 ,Left ,72,5926428984565 ,42,7889664446173 ,74,3633596856379
18.9414744 ,Left ,72,5617015118537 ,42,7097290472009 ,74,4229162316234
18.9638352 ,Left ,72,5042022790912 ,42,7398184753669 ,74,4665737154936
18.9786867 ,Left ,72,4306673579832 ,42,8232444704126 ,74,4963934826059
19.0014732 ,Left ,72,4480791266089 ,42,8208735627355 ,74,5113997921341
19.023826 ,Left ,72,517827436483 ,42,7994152203919 ,74,5184001939168
19.0391261 ,Left ,72,5370725207945 ,42,7914485915354 ,74,5048269180396
19.0615047 ,Left ,72,5342603150612 ,42,770066348427 ,74,4730219051737
19.0850015 ,Left ,72,5285786416072 ,42,7388967661726 ,74,426109857739
19.098816 ,Left ,72,5177977486552 ,42,6731972742516 ,74,3851114295831
19.1237003 ,Left ,72,4914258842519 ,42,670571958036 ,74,4268617634662
19.143794 ,Left ,72,444397732583 ,42,8364937686823 ,74,5036170414571
19.166425 ,Left ,72,3833087333334 ,43,0885304185376 ,74,5855981337575
19.1813036 ,Left ,72,3733035771923 ,43,2921626707127 ,74,6475650533983
19.2038458 ,Left ,72,3998238005583 ,43,3982421776761 ,74,6699483942352
19.2265418 ,Left ,72,3941906737616 ,43,491557461804 ,74,6642985417506
19.2488929 ,Left ,72,3636445375089 ,43,5773932877838 ,74,6294828324649
19.2715161 ,Left ,72,364017129428 ,43,6240063409903 ,74,6048732139669
19.3015717 ,Left ,72,4673911207117 ,43,6739123632489 ,74,5859641533686
19.3238636 ,Left ,72,4793688062515 ,43,6889229692027 ,74,5939791350404
19.338936 ,Left ,72,4721302435359 ,43,6643904758103 ,74,6164773599271
19.3613571 ,Left ,72,4693072097602 ,43,6037210858766 ,74,6374030200126
19.3838792 ,Left ,72,4791055563267 ,43,5406262872602 ,74,6561626998406
19.3988227 ,Left ,72,4820391443944 ,43,4771177996407 ,74,6532641767666
19.4214896 ,Left ,72,4721904533826 ,43,391687933567 ,74,639628037914
19.4436541 ,Left ,72,4519010187412 ,43,27774588715 ,74,6059791937085
19.4663038 ,Left ,72,4395041759735 ,43,1644323730532 ,74,5622965349916
19.4812442 ,Left ,72,440790336865 ,43,0583708652374 ,74,5209102692713
19.5038423 ,Left ,72,4572213399893 ,42,9633986987142 ,74,503335374853
19.5263772 ,Left ,72,483352432565 ,42,9144517989402 ,74,5292909140014
19.5414653 ,Left ,72,5228212457155 ,42,8968882820613 ,74,5808707506663
19.5638774 ,Left ,72,5544949622268 ,42,8881737222426 ,74,6341265045158
19.5864508 ,Left ,72,5680036397249 ,42,8915418068575 ,74,683478840874
19.6014748 ,Left ,72,5502364671436 ,42,9146303527486 ,74,7328677561707
19.6237804 ,Left ,72,5370549772488 ,42,9622071680038 ,74,7789945264493
19.6465937 ,Left ,72,5495165901672 ,43,0233329821407 ,74,8180043104697
19.6613702 ,Left ,72,5724057244981 ,43,0643088664467 ,74,8363394604559
19.6839398 ,Left ,72,5549332854283 ,43,0677308067784 ,74,8441693736546
19.7065813 ,Left ,72,5014365226974 ,43,0630905300983 ,74,8398523960074
19.7218331 ,Left ,72,3985219768267 ,43,0831854423305 ,74,8447574660616
19.7441601 ,Left ,72,3044105350437 ,43,1226399608222 ,74,8532650711168
19.7666559 ,Left ,72,1690602881384 ,43,2024729191745 ,74,8606238643676
19.781621 ,Left ,72,0464089048758 ,43,3265447857112 ,74,8814443360901
19.8040835 ,Left ,71,9158676943155 ,43,5338557376156 ,74,9133638657779
19.8263231 ,Left ,71,8989794960293 ,43,7143196641039 ,74,9879147516251
19.8413813 ,Left ,72,0312056189591 ,43,7906739980949 ,75,0568535104896
19.8637558 ,Left ,72,1576732252478 ,43,7952393156375 ,75,0959365355215
19.8865759 ,Left ,72,2008441668522 ,43,752484537805 ,75,087945121
19.9017345 ,Left ,72,1697936546457 ,43,7023777273573 ,75,0562288133207
19.9242165 ,Left ,72,1489411895851 ,43,6326589642907 ,74,9824770726697
19.9468605 ,Left ,72,1702886711057 ,43,5764231569796 ,74,9163234094235
19.9618908 ,Left ,72,2561524067922 ,43,5276831497658 ,74,8606631683977
19.9840182 ,Left ,72,3380536800386 ,43,5099780191046 ,74,8168492552325
20.0064678 ,Left ,72,3651338732594 ,43,5305066624171 ,74,7862261465996
20.021397 ,Left ,72,3542534714569 ,43,5726703026031 ,74,7579843618601
20.0437988 ,Left ,72,3531944463979 ,43,6202699768685 ,74,7291363065271
20.0664732 ,Left ,72,3729034717863 ,43,6554363271921 ,74,6925660872407
20.0814699 ,Left ,72,3820327175909 ,43,7011080317359 ,74,6468593662714
20.104035 ,Left ,72,3514890375132 ,43,7469587860212 ,74,5917985329558
20.1264565 ,Left ,72,2936985784345 ,43,7825363996884 ,74,5326604250623
20.1414756 ,Left ,72,2242751961571 ,43,7999818862257 ,74,4738018112971
20.1639259 ,Left ,72,1440453320314 ,43,8031650670591 ,74,4129226000262
20.1864491 ,Left ,72,0443300019757 ,43,7783462699491 ,74,3480433117923
20.2089664 ,Left ,71,9280708517659 ,43,6749660163338 ,74,3028411065778
20.2237621 ,Left ,71,8862551766905 ,43,5393885414368 ,74,3238287238737
20.246467 ,Left ,71,8867378043495 ,43,5809709748834 ,74,3594979694411
20.2689536 ,Left ,71,969157547938 ,43,660019869758 ,74,3703835549354
20.2839563 ,Left ,72,1464128265259 ,43,5902255478755 ,74,3582980344426
20.3064971 ,Left ,72,3415845129207 ,43,4481129470178 ,74,3423328573597
20.3291729 ,Left ,72,3940247719133 ,43,3501435672483 ,74,3259714902033
20.3439847 ,Left ,72,3577430540197 ,43,242406375442 ,74,3074228987115
20.3665663 ,Left ,72,3242556409938 ,43,1237001453975 ,74,287864808006
20.3892273 ,Left ,72,347920115615 ,43,0253293096782 ,74,2594999613657
20.4039891 ,Left ,72,3664456971391 ,42,9612345736977 ,74,240300492733
20.4266809 ,Left ,72,3622756036995 ,42,8828981755837 ,74,2125103887036
20.4492052 ,Left ,72,2811141426454 ,42,8356465580624 ,74,2471262565911
20.4638168 ,Left ,72,2000968463666 ,42,9261762494859 ,74,3119672243557
20.4861783 ,Left ,72,1598655198727 ,43,1607228825822 ,74,3645629976632
20.5090248 ,Left ,72,2206335059568 ,43,3622318038612 ,74,4013610099062
20.5237575 ,Left ,72,3669810862142 ,43,4271991477984 ,74,4100350231454
20.5464683 ,Left ,72,4359422672806 ,43,4494632310382 ,74,3863035225695
20.5690709 ,Left ,72,3588967952002 ,43,4647456716436 ,74,3329009615493
20.5839031 ,Left ,72,2584524570174 ,43,40847111521 ,74,2855812052634
20.6137836 ,Left ,72,2610757663604 ,43,3125722234313 ,74,2445889918748
20.6361858 ,Left ,72,3345671851234 ,43,2195920799084 ,74,207625937229
20.6513774 ,Left ,72,3921173045197 ,43,1348091677622 ,74,1785834567289
20.6664221 ,Left ,72,3989333859826 ,43,0696341635648 ,74,1629347642405
20.6889205 ,Left ,72,3741100383468 ,43,0088494116114 ,74,1511742080053
20.7038066 ,Left ,72,3754411862336 ,42,9479174459893 ,74,1345903749461
20.7264532 ,Left ,72,3871140374413 ,42,8552400910274 ,74,1157020782559
20.7492174 ,Left ,72,3685294622548 ,42,818010854047 ,74,1132702057811
20.7637609 ,Left ,72,3182962514935 ,42,8429758617372 ,74,1152354595072
20.7864555 ,Left ,72,3117959198404 ,42,8666578275763 ,74,1118398579604
20.8089156 ,Left ,72,3608813988482 ,42,8345822789237 ,74,0990361506167
20.8238921 ,Left ,72,3891180006918 ,42,7917110252571 ,74,0817848898836
20.8464698 ,Left ,72,3802938166465 ,42,759016385581 ,74,0809083896848
20.8691448 ,Left ,72,3589175907131 ,42,72798365514 ,74,0855404554741
20.883895 ,Left ,72,3396439127951 ,42,7049580692385 ,74,0943619607044
20.9065417 ,Left ,72,3367750070905 ,42,6898842060416 ,74,1033200629545
20.9363252 ,Left ,72,3445222091154 ,42,6783596551471 ,74,1096036333498
20.9515631 ,Left ,72,355049433538 ,42,6516316495828 ,74,1171187107058
20.9737992 ,Left ,72,3495448633842 ,42,6359636979095 ,74,1234865462871
21.00384 ,Left ,72,3582534051232 ,42,5949838931204 ,74,1385872694445
21.026419 ,Left ,72,3828359471302 ,42,5686949212605 ,74,1445815595665
21.0488856 ,Left ,72,3898698640361 ,42,5575508504806 ,74,1631046991423
21.0640928 ,Left ,72,3835613456894 ,42,5675446363517 ,74,1794734691248
21.0867968 ,Left ,72,3684091117247 ,42,5933335269643 ,74,1934552342052
21.1088923 ,Left ,72,3643350113243 ,42,6113538000402 ,74,208620685558
21.1242617 ,Left ,72,3520033336232 ,42,6238335256487 ,74,2317503236546
21.1467754 ,Left ,72,2950958889752 ,42,6904816235472 ,74,2520273893095
21.1691864 ,Left ,72,1960587214819 ,42,7906914782277 ,74,2624115853104
21.1988459 ,Left ,72,0757748330121 ,42,8742304558537 ,74,3043372837832
21.2144716 ,Left ,72,0470695921632 ,42,8814491536654 ,74,3419967465761
21.2519894 ,Left ,72,0581391505254 ,42,9631272559367 ,74,3487729815328
21.2666787 ,Left ,72,0732951704327 ,43,0291970895622 ,74,3180539460432
21.2891445 ,Left ,72,1341951224197 ,43,0301998093918 ,74,2915813254743
21.3039997 ,Left ,72,2216073334403 ,43,0187525356393 ,74,2570043301197
21.3266355 ,Left ,72,2837742943677 ,42,9795148537931 ,74,2176137483349
21.3490202 ,Left ,72,3021239459667 ,42,9246706606351 ,74,1974440626174
21.364016 ,Left ,72,2993568476601 ,42,856482439081 ,74,1701824935676
21.3865644 ,Left ,72,2893103783596 ,42,7878161078552 ,74,1405262579005
21.4091909 ,Left ,72,2828781320432 ,42,74484897686 ,74,0861541119062
21.4315015 ,Left ,72,2551639249193 ,42,6751526868696 ,74,0621848456096
21.4465814 ,Left ,72,2577169187752 ,42,5719869851532 ,74,1136320921414
21.4693911 ,Left ,72,2611420799672 ,42,5817185575247 ,74,1579843942644
21.4920169 ,Left ,72,2308706278206 ,42,7006208172574 ,74,1842358268326
21.5069585 ,Left ,72,2597257910692 ,42,7539409435563 ,74,1999241303223
21.5293296 ,Left ,72,3291541574142 ,42,7360449551046 ,74,2086886315232
21.5518366 ,Left ,72,3471177312319 ,42,759972505191 ,74,1905359317597
21.5666938 ,Left ,72,3231388998107 ,42,764316073649 ,74,1505655714852
21.589197 ,Left ,72,2899376538285 ,42,728234973504 ,74,125843417789
21.6115056 ,Left ,72,2917678420033 ,42,6348147885178 ,74,1051022125141
21.6265192 ,Left ,72,3183494344459 ,42,5466763206831 ,74,1528631211649
21.6488661 ,Left ,72,3256046690675 ,42,611983054645 ,74,2222395398456
21.6713278 ,Left ,72,293774392512 ,42,7918769244832 ,74,2796292815312
21.6862605 ,Left ,72,3117151501163 ,42,9363626407314 ,74,3141144087314
21.709051 ,Left ,72,3800395352183 ,42,993902062086 ,74,3511742425718
21.7313793 ,Left ,72,4145721060385 ,43,0940636729343 ,74,3912137385894
21.7462787 ,Left ,72,4146722849414 ,43,1769920069387 ,74,4290947956613
21.7688489 ,Left ,72,4317948217749 ,43,2269085982034 ,74,4769814248527
21.7915182 ,Left ,72,4879354164354 ,43,2401411771501 ,74,5367361847581
21.8066099 ,Left ,72,5135296348836 ,43,2566561111485 ,74,578539276758
21.8292638 ,Left ,72,48074977012 ,43,276718576191 ,74,5919142842388
21.8517277 ,Left ,72,4147025861277 ,43,2813620394857 ,74,5862564707626
21.8666052 ,Left ,72,3441998258778 ,43,290726415323 ,74,5754342894836
21.8893597 ,Left ,72,2609407449531 ,43,2856238077688 ,74,5586341754352
21.9116108 ,Left ,72,1947938653147 ,43,2591204313536 ,74,5994846111689
21.9265526 ,Left ,72,1351868377231 ,43,3507599598716 ,74,6480934719176
21.9489478 ,Left ,72,0834700083137 ,43,5273882629365 ,74,7129105910527
21.9715559 ,Left ,72,1303512381668 ,43,628623192466 ,74,7647999132052
21.9937703 ,Left ,72,2749626347187 ,43,5838351721588 ,74,7650951302685
22.0089537 ,Left ,72,3579201940441 ,43,5168953957002 ,74,7179983879939
22.0314768 ,Left ,72,3208949539924 ,43,4604978206182 ,74,6069068644875
22.0538419 ,Left ,72,2622600123033 ,43,3595333569692 ,74,4862327488806
22.0691676 ,Left ,72,3033930634305 ,43,2231803488032 ,74,3845026777191
22.0915897 ,Left ,72,4195886481385 ,43,0766896412534 ,74,2982099719633
22.1137662 ,Left ,72,5168658788755 ,42,9612678992617 ,74,2338183633802
22.1287048 ,Left ,72,5517187535436 ,42,8744517147577 ,74,1856069695542
22.1513201 ,Left ,72,5298228281089 ,42,8154664099462 ,74,1686134199235
22.1738711 ,Left ,72,495476439104 ,42,7749253981416 ,74,1791687848064
22.1888631 ,Left ,72,5036832262529 ,42,7349182429289 ,74,2115703978306
22.2117994 ,Left ,72,4975739420298 ,42,7671087875624 ,74,2675825973574
22.2262801 ,Left ,72,4438016075178 ,42,8855535432928 ,74,2988959963177
22.2489556 ,Left ,72,3809557326232 ,43,0205784755405 ,74,3185762214175
22.2787806 ,Left ,72,3369799977723 ,43,1628574531747 ,74,3147420752498
22.2936865 ,Left ,72,302704646264 ,43,3092986493018 ,74,2890552456542
22.3164414 ,Left ,72,2396987461774 ,43,4583720929631 ,74,264669797154
22.3315486 ,Left ,72,1723014035387 ,43,5806310004224 ,74,2328283170813
22.3538476 ,Left ,72,0482082780286 ,43,6777354938134 ,74,1987847824774
22.3689588 ,Left ,71,8983237914413 ,43,7074143267893 ,74,1551714283739
22.3915881 ,Left ,71,7548902171897 ,43,6637255392005 ,74,1084860813412
22.4139804 ,Left ,71,6375382304265 ,43,5925277487643 ,74,0689967804358
22.4289615 ,Left ,71,559206847463 ,43,6057241958484 ,74,0640101238288
22.4515855 ,Left ,71,540354191365 ,43,7008908427199 ,74,0587566861773
22.4739934 ,Left ,71,6674590994859 ,43,6892257150332 ,74,0356184939781
22.4891177 ,Left ,71,8547224131045 ,43,52355645681 ,74,0210119046594
22.5116047 ,Left ,72,0094826861265 ,43,3639912299152 ,73,9930170412664
22.5338731 ,Left ,72,0556373740629 ,43,2193684927083 ,73,9541569891118
22.5489611 ,Left ,72,0469700240886 ,43,0487870667728 ,73,930707233926
22.5715593 ,Left ,72,048526676956 ,42,8994000450931 ,73,9178462977345
22.5939086 ,Left ,72,0891136540813 ,42,7967046454733 ,73,8980409919581
22.6091384 ,Left ,72,1173812583567 ,42,7539317015555 ,73,8808858726939
22.6315221 ,Left ,72,1055327070837 ,42,7260265556337 ,73,8818771135637
22.6539041 ,Left ,72,0151432033284 ,42,7926059216019 ,73,9542733775285
22.6691855 ,Left ,71,9021906017077 ,43,0175323061158 ,74,0454623640989
22.6913782 ,Left ,71,8464190788081 ,43,3023899574295 ,74,1296690290103
22.7137486 ,Left ,71,9542756734762 ,43,4539548040207 ,74,2057986805165
22.7289375 ,Left ,72,1338821611703 ,43,4663257984981 ,74,2457933649697
22.7514774 ,Left ,72,1975850852823 ,43,4681522097033 ,74,2364793621125
22.774328 ,Left ,72,1123532630956 ,43,4437024383571 ,74,1890069473367
22.7893281 ,Left ,72,0142425057845 ,43,3583356251529 ,74,1373178712852
22.8119643 ,Left ,72,0039373825144 ,43,2446625793951 ,74,0955339843875
22.8342571 ,Left ,72,0570826546036 ,43,129294335661 ,74,0660040887672
22.8487905 ,Left ,72,1221693994903 ,43,0195012077691 ,74,0497011538303
22.8787982 ,Left ,72,1723426731732 ,42,9367369760761 ,74,0381912011923
22.9014253 ,Left ,72,1943712626264 ,42,8757597693235 ,74,0245961367513
22.9239161 ,Left ,72,1962312147395 ,42,8134114979261 ,74,0217787877422
22.9390049 ,Left ,72,1865011483808 ,42,7497580094758 ,74,028361143784
22.9539832 ,Left ,72,198683139631 ,42,7065738602061 ,74,0340763412037
22.969176 ,Left ,72,2200547867378 ,42,6994034678259 ,74,0430588192579
22.9920449 ,Left ,72,2430199786733 ,42,7100973790466 ,74,0364067278922
23.0143943 ,Left ,72,2765493396279 ,42,7016211121356 ,74,0133562288039
23.0291514 ,Left ,72,2879500980711 ,42,6775940721861 ,73,9981319301898
23.0515978 ,Left ,72,2748277402437 ,42,6658667913182 ,73,9939288936167
23.0739078 ,Left ,72,2592151701396 ,42,6612326993527 ,74,0099985603098
23.0889848 ,Left ,72,2682268220392 ,42,6367598267713 ,74,0107336450788
23.1116759 ,Left ,72,2933238782803 ,42,6087995217014 ,73,99386325413
23.1340106 ,Left ,72,3037754015741 ,42,5761840284264 ,73,9625150519845
23.1490286 ,Left ,72,2784293943364 ,42,5354994620337 ,73,9274808054884
23.1716655 ,Left ,72,2417186582812 ,42,4819337928766 ,73,89264352115
23.1936564 ,Left ,72,2063662658211 ,42,4286035923357 ,73,8645626741813
23.2089286 ,Left ,72,1831860746532 ,42,3867965631822 ,73,847488667118
23.2314437 ,Left ,72,1724725544988 ,42,3560554595144 ,73,8261763719412
23.2538111 ,Left ,72,1887268634215 ,42,3231057074287 ,73,7948274297393
23.2764827 ,Left ,72,2130118811126 ,42,2772928869476 ,73,7590969793559
23.2916475 ,Left ,72,2394533305799 ,42,2371256732427 ,73,7327345351817
23.3140514 ,Left ,72,2543546799844 ,42,2249651870042 ,73,719101229374
23.3369581 ,Left ,72,2619106256997 ,42,2241128522395 ,73,7107789443306
23.3516295 ,Left ,72,2784929122771 ,42,2336539382827 ,73,7105476602565
23.3739182 ,Left ,72,2930388881707 ,42,2528622479865 ,73,6997039730477
23.3963115 ,Left ,72,2954862910407 ,42,2985716858495 ,73,6882342764396
23.4113457 ,Left ,72,2554197503474 ,42,4016692026529 ,73,6830220141692
23.4339379 ,Left ,72,2133449073217 ,42,5199124983889 ,73,7190648322353
23.456556 ,Left ,72,1684163491976 ,42,6227083063515 ,73,8023244833301
23.4716061 ,Left ,72,1626077929615 ,42,6800064237974 ,73,8934605076914
23.4939184 ,Left ,72,1703606652076 ,42,7585298005994 ,73,9412161391039
23.5165171 ,Left ,72,1830403545882 ,42,8575453538944 ,73,950170429731
23.5316011 ,Left ,72,2439261752288 ,42,8917388902424 ,73,9229488736764
23.5539082 ,Left ,72,3542125414605 ,42,860343041314 ,73,8781399414796
23.5765462 ,Left ,72,4284704346365 ,42,81956767884 ,73,8105161107194
23.5915286 ,Left ,72,4514974899651 ,42,7369543281876 ,73,7482351563825
23.6139079 ,Left ,72,4655753292865 ,42,6218273782433 ,73,6993564864791
23.6361862 ,Left ,72,4813608265415 ,42,5257162311853 ,73,6607026099149
23.6514429 ,Left ,72,4843690605567 ,42,4856073876527 ,73,639762938732
23.6737989 ,Left ,72,438936094336 ,42,4999407740037 ,73,6513736087711
23.6964154 ,Left ,72,4025127632448 ,42,4976215429708 ,73,6914525275994
23.7114418 ,Left ,72,3604557990214 ,42,5599195855812 ,73,7292816278999
23.7338128 ,Left ,72,3104855433458 ,42,6965632478437 ,73,7532481701289
23.756291 ,Left ,72,3110412824672 ,42,782815721359 ,73,801966249501
23.7713137 ,Left ,72,3884931929335 ,42,7666100496496 ,73,8339739195435
23.793809 ,Left ,72,479841600585 ,42,7436429321034 ,73,8568031518166
23.8165143 ,Left ,72,5310308203284 ,42,7436083296323 ,73,8688717643349
23.838969 ,Left ,72,558371403712 ,42,7495398694789 ,73,9062537500559
23.8538192 ,Left ,72,5567629412588 ,42,8068435615104 ,73,9681657655172
23.8763268 ,Left ,72,5331449463209 ,42,880470390219 ,74,045276985412
23.8914735 ,Left ,72,5316576358418 ,42,9495612449068 ,74,1466333709866
23.9139038 ,Left ,72,5657132036144 ,42,9856305502785 ,74,2394603063257
23.9365737 ,Left ,72,5659543599781 ,43,0185852740551 ,74,3010992574593
23.9590493 ,Left ,72,4995500136574 ,43,0648377056091 ,74,3151581425961
23.9738169 ,Left ,72,3868288783715 ,43,1029798326907 ,74,2987081617962
23.9965196 ,Left ,72,2716061934864 ,43,1507436381565 ,74,2708150216184
24.0189681 ,Left ,72,206346114931 ,43,1276721203043 ,74,2640501113729
24.0338966 ,Left ,72,1402034245745 ,43,1093716437067 ,74,3376566341418
24.0565384 ,Left ,72,0343246804246 ,43,2586316133974 ,74,4366600342299
24.0794203 ,Left ,71,9774764953673 ,43,4428210489978 ,74,5170154282494
24.0943888 ,Left ,72,0504187515884 ,43,4818163000814 ,74,5248596304559
24.1170314 ,Left ,72,1835193038276 ,43,3808386344974 ,74,4706773894542
24.1393937 ,Left ,72,2058160209159 ,43,3500488564342 ,74,372663932597
24.1540395 ,Left ,72,1642879406327 ,43,2939312694755 ,74,2305745175101
24.1765206 ,Left ,72,1717914693544 ,43,1897732362784 ,74,1264501936015
24.1990368 ,Left ,72,2882677293222 ,43,0623089354352 ,74,0580724276846
24.214044 ,Left ,72,4329002506 ,42,9355748290661 ,73,994851114217
24.2365644 ,Left ,72,4989969811 ,42,8189010796103 ,73,9457858110718
24.2592388 ,Left ,72,4939839067669 ,42,7133425103777 ,73,9302648014661
24.2739985 ,Left ,72,489648251714 ,42,6101841092741 ,73,9177986881806
24.2967739 ,Left ,72,5137972564093 ,42,5244049296864 ,73,9113536249808
24.3192559 ,Left ,72,5712558594814 ,42,4299022628466 ,73,9043396933666
24.3339919 ,Left ,72,6122558233675 ,42,3746605671919 ,73,9253096228124
24.3566792 ,Left ,72,5994662353773 ,42,388313241863 ,73,9539282307424
24.3792585 ,Left ,72,5538355102859 ,42,4158338025113 ,73,9751007329008
24.3939873 ,Left ,72,5186126736797 ,42,443070629693 ,73,985414596396
24.416639 ,Left ,72,4900462817927 ,42,4983149613237 ,73,9816279568098
24.4391282 ,Left ,72,4505831934272 ,42,6003826095684 ,73,9763685615472
24.4540548 ,Left ,72,4062623330357 ,42,7457760635893 ,73,9832289657477
24.4766551 ,Left ,72,3859478834845 ,42,9215774431326 ,73,9954301395416
24.4990457 ,Left ,72,3582492911513 ,43,0912930401075 ,74,0079723710492
24.5138173 ,Left ,72,3192966781049 ,43,2342294496931 ,74,0132934874979
24.5364302 ,Left ,72,260432744755 ,43,3511764178426 ,74,0029255635644
24.5590673 ,Left ,72,1914151627694 ,43,4096217189093 ,73,9742719547443
24.5738536 ,Left ,72,1109254434779 ,43,4168331756814 ,73,9460336376637
24.5965777 ,Left ,72,0203722064948 ,43,3847743727687 ,73,911275590278
24.6191397 ,Left ,71,9359650764948 ,43,3450817667904 ,73,8834726571171
24.6339488 ,Left ,71,8622277989452 ,43,3608239156263 ,73,8839422481014
24.6566385 ,Left ,71,838504014405 ,43,4502351321514 ,73,8893123074973
24.6790941 ,Left ,71,9273545231529 ,43,5116964736232 ,73,8893730962794
24.6939576 ,Left ,72,0812634824461 ,43,4622378657062 ,73,8847865406496
24.709556 ,Left ,72,2385356061737 ,43,3577338905685 ,73,8820788257659
24.731824 ,Left ,72,2970372871888 ,43,2900082658324 ,73,8574307576322
24.7471723 ,Left ,72,2894412160865 ,43,2209265416042 ,73,8321470523294
24.7688873 ,Left ,72,2843642388776 ,43,137337179576 ,73,815554479459
24.7916168 ,Left ,72,3210749782365 ,43,0674434564875 ,73,7986134268797
24.8063732 ,Left ,72,3439962287997 ,43,0244272837982 ,73,7863464596464
24.8290367 ,Left ,72,337568377055 ,42,9922060278451 ,73,7745491799393
24.8515047 ,Left ,72,3071395617796 ,42,9362440762611 ,73,7660675789095
24.8662822 ,Left ,72,2502774204714 ,42,8208634173337 ,73,7771820802749
24.8890271 ,Left ,72,1626022830444 ,42,7970468089314 ,73,8392035237449
24.9115122 ,Left ,72,087732551036 ,42,9455552955422 ,73,8883643921793
24.9489818 ,Left ,72,2691245902358 ,43,2242676818585 ,73,9359507676771
24.9716015 ,Left ,72,3833503060245 ,43,2278048293393 ,73,9280953588469
25.0091232 ,Left ,72,2646044620907 ,43,1967809152012 ,73,8650769095949
25.0314108 ,Left ,72,2244418187447 ,43,1013761085311 ,73,8375682785249
25.0691952 ,Left ,72,375044083273 ,42,8312747734036 ,73,7873079704736
25.0917209 ,Left ,72,4277839020618 ,42,730404131952 ,73,7665936038676
25.1291718 ,Left ,72,3823822979987 ,42,649945142951 ,73,760575780498
25.1514429 ,Left ,72,3681137282075 ,42,6373096052316 ,73,7681806974463
25.1889285 ,Left ,72,3684806269008 ,42,5987930210416 ,73,7685940747126
25.2113339 ,Left ,72,3448742783552 ,42,5813719726425 ,73,7698011878953
25.2265018 ,Left ,72,2741997917974 ,42,6114248819011 ,73,7807148505938
25.24879 ,Left ,72,2270658008224 ,42,6567674437764 ,73,7797512833886
25.271532 ,Left ,72,2315857028239 ,42,6664196441568 ,73,7600621197999
25.2864649 ,Left ,72,266158813747 ,42,6392938437506 ,73,7313326107447
25.3164424 ,Left ,72,2875154521557 ,42,6098965868566 ,73,71044019596
25.3466051 ,Left ,72,2921260028648 ,42,589369139049 ,73,7060050574606
25.3616954 ,Left ,72,2831794834581 ,42,5803810454719 ,73,7030810403465
25.3765569 ,Left ,72,2831794834581 ,42,5803810454719 ,73,7030810403465
25.4063104 ,Left ,72,3087602618381 ,42,5373869398365 ,73,6871292832054
25.4296395 ,Left ,72,3275229777054 ,42,5143705467638 ,73,6811347477001
25.4519006 ,Left ,72,3336776476887 ,42,4815437584106 ,73,681643130549
25.4670887 ,Left ,72,3362282133459 ,42,4529893804659 ,73,6835638881652
25.4890815 ,Left ,72,3380742893055 ,42,445176355184 ,73,6833301762374
25.5116473 ,Left ,72,3452030974637 ,42,4499265776231 ,73,6821276576003
25.526692 ,Left ,72,3529909978459 ,42,4523617291392 ,73,6766245512985
25.5490468 ,Left ,72,3607816384993 ,42,451608504117 ,73,6765197910774
25.5717431 ,Left ,72,3726652034448 ,42,4535081262312 ,73,6592239531192
25.6164433 ,Left ,72,3959047289846 ,42,4548501340465 ,73,6323119392869
25.6389875 ,Left ,72,3897996985105 ,42,4572042718747 ,73,6339119075523
25.6686432 ,Left ,72,2879351329886 ,42,5885180745452 ,73,6678185713824
25.6914431 ,Left ,72,2482928536519 ,42,6586151427641 ,73,6911755387366
25.7288706 ,Left ,72,1814335278629 ,42,7979654243086 ,73,8734324193231
25.7512663 ,Left ,72,1307311270239 ,42,9226208072056 ,73,9256907443972
25.7739084 ,Left ,72,1081790781102 ,43,0647745278758 ,73,9494371887767
25.7889847 ,Left ,72,1579008077723 ,43,1144237642029 ,73,9180747750824
25.8116488 ,Left ,72,2104614666643 ,43,0927862741661 ,73,8675895740935
25.8489343 ,Left ,72,2814302659971 ,42,9789955677221 ,73,7347292598384
25.8716968 ,Left ,72,3249692906744 ,42,8863222873041 ,73,6920193313426
25.9092656 ,Left ,72,3955473361478 ,42,7166719113075 ,73,6727716287829
25.931552 ,Left ,72,4196259123277 ,42,6572821829349 ,73,6824689532325
25.9691684 ,Left ,72,4405397384923 ,42,4962748565778 ,73,7822450700645
25.9911889 ,Left ,72,4030384140403 ,42,539586660839 ,73,767984040525
26.0287997 ,Left ,72,3673634540631 ,42,6190510689513 ,73,7268139764241
26.0515792 ,Left ,72,4272502279702 ,42,6389080034903 ,73,6990666453209
26.0887909 ,Left ,72,4380774790621 ,42,6923316160526 ,73,6570131860235
26.1115426 ,Left ,72,4326919442847 ,42,675223626905 ,73,6526342702753
26.1488317 ,Left ,72,4796609574094 ,42,5853336455866 ,73,7366163822578
26.1714608 ,Left ,72,4840516152317 ,42,7034859365142 ,73,8012165776801
26.2089687 ,Left ,72,5162883236854 ,43,017987212185 ,73,8873246995369
26.2312583 ,Left ,72,5582806845206 ,43,1136884006397 ,73,9610633628345
26.2538612 ,Left ,72,5724456646574 ,43,2254325790821 ,74,0157693152579
26.2691044 ,Left ,72,5386206781616 ,43,3080698773104 ,74,0496016627254
26.2915891 ,Left ,72,5237495511119 ,43,3281622546484 ,74,088754399103
26.31392 ,Left ,72,5378059288283 ,43,2947409490351 ,74,1205605850724
26.3289472 ,Left ,72,5373862062281 ,43,264683608268 ,74,1350550547467
26.3513152 ,Left ,72,5091904574424 ,43,2607287481483 ,74,1249339390135
26.3889236 ,Left ,72,3652415025992 ,43,2632661367992 ,74,1024495166826
26.4114526 ,Left ,72,2414708631779 ,43,285029684026 ,74,1491122312308
26.4338425 ,Left ,72,1409613484627 ,43,4251711685006 ,74,224439958312
26.4489375 ,Left ,72,099987078892 ,43,6667686638275 ,74,3062597080677
26.4718213 ,Left ,72,1618070982827 ,43,8536373777118 ,74,37106851
26.5014612 ,Left ,72,2622464886717 ,43,9223658681997 ,74,3956579427368
26.5164811 ,Left ,72,293138972624 ,43,9568318824225 ,74,3936263357657
26.5537955 ,Left ,72,2016233549637 ,44,0032324391689 ,74,2779380676781
26.5915396 ,Left ,72,2403555182811 ,44,0431634413557 ,74,0734614597329
26.6293223 ,Left ,72,2588213056762 ,44,0068244148793 ,73,9063859144924
26.6519085 ,Left ,72,2588174927114 ,43,9676014551853 ,73,831044754726
26.6890778 ,Left ,72,2473456074877 ,43,8823470628653 ,73,6905062280783
26.7114866 ,Left ,72,2315815008794 ,43,8309581717029 ,73,6313359323646
26.7486617 ,Left ,72,1397358253599 ,43,7276163669987 ,73,5511952911025
26.7796666 ,Left ,72,0934658439554 ,43,68403769356 ,73,5699494067614
26.8320032 ,Left ,72,3746869224612 ,43,7477126361525 ,73,6141047812828
26.8541518 ,Left ,72,4648905566347 ,43,6746702299461 ,73,6091871085811
26.8915053 ,Left ,72,4322028903905 ,43,4953586120777 ,73,576372290391
26.9139117 ,Left ,72,4568714054461 ,43,3505532859423 ,73,5711500978024
26.9515284 ,Left ,72,4634487968279 ,43,2146775206516 ,73,5444481232356
26.9738995 ,Left ,72,4188203537299 ,43,1590888332892 ,73,5308035911097
27.0114348 ,Left ,72,2920624673829 ,43,2175525263829 ,73,6267614423501
27.0338761 ,Left ,72,2484106967364 ,43,4475000237098 ,73,6788741777485
27.0714421 ,Left ,72,4233992137163 ,43,6428458027066 ,73,7061837570345
27.0939878 ,Left ,72,4435519984525 ,43,6493177662498 ,73,6588863888135
27.1315886 ,Left ,72,3479213104891 ,43,4803663758702 ,73,5404725120205
27.1547163 ,Left ,72,4000572462582 ,43,3217131037 ,73,4805249945032
27.1911687 ,Left ,72,4753025817528 ,43,1028396372032 ,73,4346271645069
27.2137753 ,Left ,72,4716950488053 ,43,037481145609 ,73,4495222867241
27.2515401 ,Left ,72,461213242869 ,42,8907892241931 ,73,5029368708967
27.2889268 ,Left ,72,3962289735464 ,42,8805297060523 ,73,5158861292286
27.3114975 ,Left ,72,4011230720642 ,42,8773384687728 ,73,5209612454811
27.3337736 ,Left ,72,4354388586356 ,42,8338168090305 ,73,5189645990436
27.3715894 ,Left ,72,4277298474047 ,42,7479182986431 ,73,5106744438089
27.3939124 ,Left ,72,3910475427169 ,42,7284385901591 ,73,5063052555124
27.4312085 ,Left ,72,3583281914575 ,42,7079436490715 ,73,5033739463058
27.4537703 ,Left ,72,3612165005002 ,42,6952428405293 ,73,4991239680254
27.4915473 ,Left ,72,3582307412104 ,42,6194280015163 ,73,4691794832565
27.5139375 ,Left ,72,3676235281973 ,42,5932004377358 ,73,4721896076228
27.5516446 ,Left ,72,3851182112237 ,42,5868538342967 ,73,4874300323735
27.5740106 ,Left ,72,3911846835964 ,42,6131465792423 ,73,4946572499023
27.6115096 ,Left ,72,3641871054026 ,42,6550833267931 ,73,5174609788504
27.6336829 ,Left ,72,3110060607504 ,42,7078399914072 ,73,5367520254647
27.6712455 ,Left ,72,1587884659983 ,42,8781281848996 ,73,6064990929471
27.6939448 ,Left ,72,1052623158335 ,42,9336354203325 ,73,6648752844622
27.7316681 ,Left ,72,1052670119286 ,43,0819294716641 ,73,6917682433428
27.7540665 ,Left ,72,1639820162698 ,43,1253215027728 ,73,6578409735621
27.7916378 ,Left ,72,3338274916226 ,43,0771020474191 ,73,5423463809017
27.8138089 ,Left ,72,3735410084483 ,43,0069657128005 ,73,4964174912437
27.8515664 ,Left ,72,4523806428059 ,42,842625090992 ,73,437081993213
27.8738699 ,Left ,72,4828591098696 ,42,7836211637329 ,73,4290616647978
27.9117184 ,Left ,72,4811205790018 ,42,6553644826253 ,73,4830707920307
27.9335777 ,Left ,72,5036568106411 ,42,5964477615451 ,73,529503117046
27.9718336 ,Left ,72,4297963965503 ,42,7160555479163 ,73,4963079369572
27.9939101 ,Left ,72,4541714169465 ,42,7299878053829 ,73,4887295960582
28.0314577 ,Left ,72,5230160743399 ,42,7261931865659 ,73,4277514656133
28.0538657 ,Left ,72,4988516582011 ,42,7017429068936 ,73,3968918482446
28.0914242 ,Left ,72,46403901148 ,42,6247045888274 ,73,3786741345371
28.1139864 ,Left ,72,4764389343109 ,42,6902432399467 ,73,4765913078704
28.1515508 ,Left ,72,4694881589597 ,43,0944059512739 ,73,6207481107137
28.1738021 ,Left ,72,5605278309463 ,43,1816894741929 ,73,6534903478695
28.2115914 ,Left ,72,5871303278793 ,43,3519757181729 ,73,7643799616314
28.233746 ,Left ,72,574093964801 ,43,3662079633454 ,73,8135224734122
28.2713477 ,Left ,72,6039290570734 ,43,3564696832618 ,73,904471048877
28.2942928 ,Left ,72,5900202406216 ,43,3606936945249 ,73,9281136831233
28.3315852 ,Left ,72,504291712825 ,43,3422244894265 ,73,9041213207306
28.3539569 ,Left ,72,4151904536538 ,43,3114550026662 ,73,8904002487362
28.3764797 ,Left ,72,3160713712892 ,43,3161976894872 ,73,9325035024138
28.3991471 ,Left ,72,271484968246 ,43,4484422418582 ,73,9706697085449
28.4144357 ,Left ,72,2467618077893 ,43,6457297326271 ,73,9996604142254
28.4296575 ,Left ,72,3080614089602 ,43,7385704503594 ,74,0260235950957
28.4516521 ,Left ,72,4122402936751 ,43,6792725334324 ,74,0231461838552
28.4666373 ,Left ,72,4414146182839 ,43,6105861268701 ,73,9779114154105
28.4889705 ,Left ,72,4023884946308 ,43,5258352911885 ,73,8750186608018
28.5115378 ,Left ,72,3712430448272 ,43,3966631050387 ,73,7523396800111
28.5264033 ,Left ,72,4135621796335 ,43,2634436652429 ,73,6389550473436
28.5489171 ,Left ,72,4850640005698 ,43,1729117152928 ,73,56067813174
28.571554 ,Left ,72,535401273589 ,43,1500818543336 ,73,5129223371051
28.5864459 ,Left ,72,5459437732641 ,43,1981969018137 ,73,4907347285923
28.608948 ,Left ,72,5213156221021 ,43,3048961760291 ,73,4939961693626
28.6314626 ,Left ,72,4725211832339 ,43,4318145019295 ,73,5020341589594
28.6465291 ,Left ,72,4105233841328 ,43,5402513540243 ,73,499687607427
28.6689589 ,Left ,72,3226360090692 ,43,6203959321206 ,73,4873658339921
28.6840567 ,Left ,72,2047581892725 ,43,6643713087161 ,73,4713508135736
28.7068478 ,Left ,72,0701413613599 ,43,6715375818438 ,73,4506138091587
28.7293973 ,Left ,71,9641770561096 ,43,6511456275523 ,73,4280654344632
28.7521175 ,Left ,71,8742448626042 ,43,5954578167077 ,73,3893204935269
28.7668764 ,Left ,71,8114585502432 ,43,5176387585436 ,73,3897924077894
28.7889542 ,Left ,71,7932415373345 ,43,5712964137175 ,73,4099684800305
28.8116315 ,Left ,71,8440576377487 ,43,6458057952728 ,73,4003690070373
28.8265858 ,Left ,71,9766719989248 ,43,5717311272369 ,73,3961326385665
28.8490584 ,Left ,72,1689262851084 ,43,4016697212596 ,73,3861005685561
28.8713086 ,Left ,72,2512739172094 ,43,2607671179332 ,73,3729523519053
28.8868998 ,Left ,72,2403603744088 ,43,1109808735523 ,73,3753242619326
28.9095821 ,Left ,72,22084306936 ,42,9338074374303 ,73,3915917264519
28.9316786 ,Left ,72,2196094829355 ,42,7658423293959 ,73,4236107848802
28.9466612 ,Left ,72,2337909387526 ,42,6509251634016 ,73,4474078748993
28.9690912 ,Left ,72,2512348410128 ,42,5864191797942 ,73,4609932286822
28.9916772 ,Left ,72,2649947016442 ,42,5663172831415 ,73,4628594201508
29.0066549 ,Left ,72,241196669965 ,42,6311568200489 ,73,4795074712725
29.0291376 ,Left ,72,161652379578 ,42,8240112402955 ,73,5070791832052
29.051696 ,Left ,72,0890356055812 ,43,0849493713308 ,73,5526151541296
29.0665257 ,Left ,72,112171226623 ,43,2769008474072 ,73,6000506120712
29.0889372 ,Left ,72,2038362346276 ,43,3519898591805 ,73,6257599848483
29.1116634 ,Left ,72,2476486061165 ,43,3727056428146 ,73,6076387295363
29.1266545 ,Left ,72,1902568527821 ,43,3515146404296 ,73,5491259939262
29.1490992 ,Left ,72,1075250953728 ,43,2923976226325 ,73,4829094089686
29.1715826 ,Left ,72,090102860151 ,43,2000352403534 ,73,4183535285405
29.1865789 ,Left ,72,1438979606977 ,43,0997713948929 ,73,3765628914721
29.2090666 ,Left ,72,2027312760118 ,43,0131250467021 ,73,3688658981437
29.2315343 ,Left ,72,22982911056 ,42,93933449336 ,73,364296082049
29.2465829 ,Left ,72,2302248193745 ,42,8714784083222 ,73,3710543292676
29.2690577 ,Left ,72,209720496425 ,42,8135604184677 ,73,3771663572703
29.2913942 ,Left ,72,1879237615118 ,42,7533487900524 ,73,3848405088676
29.3064703 ,Left ,72,1603440674026 ,42,6603153606881 ,73,3995183359525
29.3290596 ,Left ,72,1479655205444 ,42,5772778421362 ,73,4186103379837
29.35164 ,Left ,72,1343219437567 ,42,5684803249934 ,73,429155785744
29.3667333 ,Left ,72,1250430631113 ,42,5916362325127 ,73,4104444335806
29.3893329 ,Left ,72,1343915790522 ,42,5792422041574 ,73,381283803359
29.4117153 ,Left ,72,1389346127 ,42,5536381688354 ,73,3559323086236
29.4267279 ,Left ,72,1163433685242 ,42,5271358483928 ,73,3350375494403
29.4489917 ,Left ,72,081761119484 ,42,4941777806276 ,73,331479770023
29.4791937 ,Left ,72,0599542905081 ,42,4789056708664 ,73,3449007418692
29.4939818 ,Left ,72,0725393457118 ,42,4743610041908 ,73,344556360144
29.5165098 ,Left ,72,0946150877566 ,42,4635776996135 ,73,3252334161059
29.5467553 ,Left ,72,1069902312198 ,42,4184990145901 ,73,2902364166337
29.5691367 ,Left ,72,106338888231 ,42,4080703744058 ,73,2901825942073
29.5919365 ,Left ,72,103877915348 ,42,4100205910132 ,73,2902601866386
29.6068452 ,Left ,72,0943416320831 ,42,4384511042925 ,73,2974978532968
29.6295403 ,Left ,72,0984440598635 ,42,4589383085319 ,73,3108456612183
29.6517364 ,Left ,72,1054472206425 ,42,468239711467 ,73,330413261399
29.6667652 ,Left ,72,0898016469695 ,42,5005331311815 ,73,3496209712182
29.6893682 ,Left ,72,0275351674933 ,42,5821945579957 ,73,3555292656316
29.7118681 ,Left ,71,9308236029596 ,42,6963471295858 ,73,4178095657248
29.7338735 ,Left ,71,8692391122944 ,42,7727003588817 ,73,4829971917694
29.7489288 ,Left ,71,8455729300393 ,42,8248598044669 ,73,548276417043
29.7714559 ,Left ,71,855652534092 ,42,8998723268532 ,73,5727204634591
29.8016231 ,Left ,71,8965563655497 ,42,9650248167849 ,73,5669084235475
29.816501 ,Left ,71,9913278517088 ,42,9638482996922 ,73,5459904652634
29.8546273 ,Left ,72,1898881550318 ,42,8980906867394 ,73,4633448259396
29.8696289 ,Left ,72,2276474688448 ,42,8379764994503 ,73,4324249707264
29.8920385 ,Left ,72,272362973999 ,42,7699921850398 ,73,4268204714456
29.9138932 ,Left ,72,3189412100561 ,42,7168262977231 ,73,4244402269073
29.9289059 ,Left ,72,3487900212131 ,42,6923517226448 ,73,4166043803644
29.9514376 ,Left ,72,3451093097797 ,42,6646158206644 ,73,4013797261652
29.9737191 ,Left ,72,3417912080245 ,42,592507117411 ,73,386194974898
29.9887269 ,Left ,72,3095394200475 ,42,4829526000516 ,73,415135263477
30.0115171 ,Left ,72,2602817454617 ,42,4490179954347 ,73,4653847924873
30.0338176 ,Left ,72,192042979232 ,42,5397957386399 ,73,4991966728768
30.0488388 ,Left ,72,1850196457983 ,42,6343537554578 ,73,5277035784704
30.0715304 ,Left ,72,2673310137891 ,42,6796352333151 ,73,5339364853128
30.0938816 ,Left ,72,3028558485453 ,42,7322490641242 ,73,5245021726603
30.1092921 ,Left ,72,2827716571851 ,42,7535439312394 ,73,4979310160934
30.1321663 ,Left ,72,2324790297794 ,42,7231354186167 ,73,4677099709212
30.1543796 ,Left ,72,2191829461042 ,42,6584476319857 ,73,434915351084
30.1691796 ,Left ,72,2203557361807 ,42,5679775584724 ,73,3971678676633
30.1917588 ,Left ,72,2305346376795 ,42,5042452554786 ,73,4190283545284
30.2139996 ,Left ,72,2688644884641 ,42,5660990849697 ,73,4693507237398
30.2292111 ,Left ,72,2958678614589 ,42,7415778131558 ,73,5013432642948
30.2517029 ,Left ,72,3258277241961 ,42,8952836935815 ,73,5194581815688
30.2739572 ,Left ,72,3207353662833 ,42,9806997402412 ,73,5606586630874
30.2890668 ,Left ,72,2880417837635 ,43,0758280703065 ,73,6167377694565
30.3116311 ,Left ,72,2747608101546 ,43,1445443996718 ,73,6652342716306
30.3339877 ,Left ,72,2981268096979 ,43,1497115525895 ,73,7060688666081
30.3489713 ,Left ,72,3231780096376 ,43,1250924777678 ,73,7379053749723
30.3791797 ,Left ,72,3059299669906 ,43,1180693945266 ,73,7466855114876
30.4017794 ,Left ,72,2501607424122 ,43,136423085824 ,73,7406431187202
30.4165354 ,Left ,72,1996802930236 ,43,1552013469276 ,73,7295244175219
30.4315232 ,Left ,72,1538141485262 ,43,1587560658419 ,73,7191027116307
30.4537743 ,Left ,72,085814524573 ,43,1984229696383 ,73,7675575902465
30.4690987 ,Left ,72,0262902594776 ,43,3480328838893 ,73,8447157275542
30.4916039 ,Left ,72,0321037523877 ,43,560206471383 ,73,9171253515127
30.5139251 ,Left ,72,1154591072448 ,43,6910828890303 ,73,9689355864378
30.5365107 ,Left ,72,18182522174 ,43,7145686368554 ,73,9860282775558
30.5518283 ,Left ,72,1677399213825 ,43,754486483382 ,73,9785732291071
30.573914 ,Left ,72,1393895222562 ,43,8088578411881 ,73,9208447842323
30.5966557 ,Left ,72,1309081872273 ,43,8612318180781 ,73,8390411091591
30.6116235 ,Left ,72,1590566971784 ,43,9101322405894 ,73,7428754250534
30.6339178 ,Left ,72,1770853147951 ,43,9511243519548 ,73,6426128145146
30.648972 ,Left ,72,1607095498421 ,43,9747300853909 ,73,5511072851479
30.6716693 ,Left ,72,1429468252342 ,43,9640531939385 ,73,4703740022726
30.6940226 ,Left ,72,1479160463717 ,43,9464694682217 ,73,3978464200795
30.7091817 ,Left ,72,1612774103833 ,43,9092069156219 ,73,3176532629721
30.7317398 ,Left ,72,1475783236727 ,43,8448490831894 ,73,2507646667376
30.7539475 ,Left ,72,1202728170103 ,43,76202027769 ,73,1930860594208
30.7766468 ,Left ,72,084973221267 ,43,6839982220781 ,73,1270033240914
30.7916459 ,Left ,72,030718723263 ,43,591928561213 ,73,0872758068721
30.814318 ,Left ,72,002836930888 ,43,5140070383064 ,73,0958660501634
30.8370775 ,Left ,72,0393801493902 ,43,5400018696682 ,73,1060730829027
30.8516596 ,Left ,72,1384025934011 ,43,5907373751491 ,73,0927890469455
30.8739568 ,Left ,72,2767869294438 ,43,4840990130257 ,73,078262378306
30.8967293 ,Left ,72,386096146366 ,43,3463463756643 ,73,0693468144706
30.9115484 ,Left ,72,3898668233941 ,43,2469630090492 ,73,0637233516683
30.9339042 ,Left ,72,3592907407046 ,43,11536821968 ,73,0579078738013
30.9566717 ,Left ,72,3587479969364 ,42,9889353604338 ,73,038666886579
30.9716367 ,Left ,72,3841216997726 ,42,9065427060471 ,73,0152860919621
30.9938144 ,Left ,72,3656003015673 ,42,8463431500726 ,72,9986610223521
31.016422 ,Left ,72,3089287431484 ,42,7892477579151 ,73,0241541557003
31.0313851 ,Left ,72,2290667719468 ,42,8774994650592 ,73,1011249394795
31.0538327 ,Left ,72,1523888795148 ,43,1284859139975 ,73,1742267678951
31.0766 ,Left ,72,1542305246845 ,43,3893719397482 ,73,2311906404701
31.0915993 ,Left ,72,2483029847569 ,43,5000405657029 ,73,2569118497822
31.1141129 ,Left ,72,3070841342277 ,43,5237671861336 ,73,2395510738972
31.1365222 ,Left ,72,2526256324187 ,43,548969861014 ,73,1789988635797
31.151552 ,Left ,72,1628037589894 ,43,5208952499891 ,73,1079089196555
31.1745151 ,Left ,72,1425854889975 ,43,4404487879295 ,73,0411045149664
31.1972122 ,Left ,72,1881325335544 ,43,3418406296243 ,72,9975969047789
31.2119471 ,Left ,72,2323857662775 ,43,2364933366175 ,72,9776126067165
31.2342434 ,Left ,72,2454000994036 ,43,1503242837066 ,72,988644768318
31.2563279 ,Left ,72,2426756599181 ,43,0717997521541 ,72,9964490709576
31.2713465 ,Left ,72,241302789446 ,42,9940109860219 ,72,9979889044917
31.2938687 ,Left ,72,2343695747801 ,42,9220681947916 ,72,9963242610471
31.3166334 ,Left ,72,1981245905987 ,42,8323464036515 ,72,9971428564575
31.3315824 ,Left ,72,1569722700846 ,42,7764190963846 ,73,0127007840921
31.353993 ,Left ,72,1255527732523 ,42,777629072444 ,73,0149104441878
31.3765463 ,Left ,72,1390484166031 ,42,7734433749987 ,73,0078772163119
31.3916824 ,Left ,72,1835047941379 ,42,7414997544704 ,72,9862280660211
31.4140398 ,Left ,72,1896334460672 ,42,7131550586164 ,72,9674197487593
31.436755 ,Left ,72,1495808274581 ,42,7024353165577 ,72,9642352461757
31.4517391 ,Left ,72,1245543036901 ,42,6922665341021 ,72,9709060753363
31.4740417 ,Left ,72,1329808126671 ,42,6881807908901 ,72,9691184404126
31.4964263 ,Left ,72,1564800982891 ,42,6755067237319 ,72,9566306634901
31.5115245 ,Left ,72,1695802160735 ,42,6424189515287 ,72,9475599854761
31.5338197 ,Left ,72,1670245416814 ,42,6074994928895 ,72,9490204753427
31.5565483 ,Left ,72,1625375183943 ,42,5813082568928 ,72,9638917624141
31.5716883 ,Left ,72,1628694670431 ,42,5744134542541 ,72,9802587110889
31.5938494 ,Left ,72,1717406727347 ,42,5752516215932 ,72,9943063873611
31.6165731 ,Left ,72,1728189237467 ,42,5951898179701 ,73,0102658506435
31.6314283 ,Left ,72,1609185506946 ,42,6255650236787 ,73,0257943314326
31.6540888 ,Left ,72,1323204588808 ,42,6556406035892 ,73,0480728943458
31.6763753 ,Left ,72,0840723549873 ,42,7090033444864 ,73,0676416655058
31.6915125 ,Left ,72,0154318060405 ,42,7889498268784 ,73,0987545813291
31.7137956 ,Left ,71,9381648323858 ,42,8647854531572 ,73,1542686032756
31.7365195 ,Left ,71,8980738543679 ,42,900743132175 ,73,2151953024913
31.7518493 ,Left ,71,8752971335577 ,42,9824688623826 ,73,2538808863104
31.7740691 ,Left ,71,8807791741195 ,43,0914408633731 ,73,2596117132885
31.7967597 ,Left ,71,9484715560685 ,43,1393841764093 ,73,2373035904166
31.8190041 ,Left ,72,0652161297161 ,43,1276731648136 ,73,1814383346339
31.8340833 ,Left ,72,1613329986096 ,43,1059571206895 ,73,1128538257736
31.8567003 ,Left ,72,229431828877 ,43,0515493662989 ,73,0479653877592
31.8792711 ,Left ,72,2803208457126 ,42,976334887887 ,73,0171437563977
31.8940567 ,Left ,72,3090592244467 ,42,9056255292826 ,72,9969382724332
31.9167132 ,Left ,72,3350761965365 ,42,8470722560342 ,72,9887996478735
31.9392957 ,Left ,72,3643648570681 ,42,8095485528565 ,72,9856241168517
31.953983 ,Left ,72,3695372733437 ,42,7597446653487 ,72,9923641946345
31.9766485 ,Left ,72,3833555445444 ,42,6955301259828 ,73,0447045461815
32.0066319 ,Left ,72,401498006369 ,42,7022081295407 ,73,0782435566169
32.0216406 ,Left ,72,3789726219742 ,42,8081867266117 ,73,0909154958006
32.0440329 ,Left ,72,3732647208157 ,42,8810104102788 ,73,1058218831858
32.0740422 ,Left ,72,4040078727898 ,42,9014207015354 ,73,0997795449351
32.0967517 ,Left ,72,395262850848 ,42,902023338931 ,73,0858321294482
32.1192923 ,Left ,72,4014964471929 ,42,8836270025909 ,73,0668994275957
32.1339807 ,Left ,72,407914921118 ,42,8350633884543 ,73,0542597663083
32.1565081 ,Left ,72,3733721856396 ,42,7496715195191 ,73,05885189591
32.1794244 ,Left ,72,358097085704 ,42,721932530134 ,73,1251638452642
32.1937896 ,Left ,72,3584840195822 ,42,8542029006057 ,73,1850044974858
32.2169512 ,Left ,72,3457075703162 ,43,0593094081122 ,73,235483636348
32.2387961 ,Left ,72,3796595850166 ,43,1894766032224 ,73,2714353567334
32.2537606 ,Left ,72,4116120906651 ,43,2341559063924 ,73,314078149348
32.2765372 ,Left ,72,3991982539598 ,43,3090078264429 ,73,3438805614958
32.2988202 ,Left ,72,3862376113186 ,43,3785211659527 ,73,3655860233815
32.3214387 ,Left ,72,4243358801647 ,43,4208828310744 ,73,3815244778677
32.3365521 ,Left ,72,457001376258 ,43,4406165116447 ,73,3856869011391
32.3588729 ,Left ,72,4203061508885 ,43,4398897032977 ,73,3891386659269
32.3739353 ,Left ,72,3185813177491 ,43,450269547744 ,73,3974164975661
32.3967003 ,Left ,72,2318847715739 ,43,4499727445348 ,73,4186130401151
32.419231 ,Left ,72,2022492215505 ,43,4050956445892 ,73,4393307558536
32.433997 ,Left ,72,1381519862106 ,43,4172974334196 ,73,5027722956583
32.456505 ,Left ,72,0192308102453 ,43,5661706411619 ,73,5838981930638
32.4790769 ,Left ,71,9396206704605 ,43,7343353404284 ,73,6554954111152
32.5015286 ,Left ,71,9863982045471 ,43,8079776676345 ,73,6715561149421
32.5164895 ,Left ,72,0792170972292 ,43,7912758318316 ,73,6297455807643
32.5390919 ,Left ,72,1251212267609 ,43,7460033916067 ,73,5725390918811
32.5615067 ,Left ,72,1561398695216 ,43,6927539724294 ,73,4657428806979
32.5766939 ,Left ,72,1707795322669 ,43,6020563628872 ,73,3389268452344
32.5990048 ,Left ,72,2100296944463 ,43,5031062414222 ,73,2310527436084
32.6216094 ,Left ,72,288092274557 ,43,4285549980174 ,73,1569875355026
32.6367025 ,Left ,72,3686399035961 ,43,3970075086468 ,73,110612003821
32.658978 ,Left ,72,4217556751646 ,43,4107260464692 ,73,0928051023064
32.6815664 ,Left ,72,4371616895353 ,43,4682233348258 ,73,0863148634799
32.6964439 ,Left ,72,4283016847979 ,43,5481369301324 ,73,0774599411419
32.7190714 ,Left ,72,3853925701524 ,43,6416778558086 ,73,0664983716238
32.7413011 ,Left ,72,3225029002056 ,43,7216450537026 ,73,0481023738231
32.7564695 ,Left ,72,2495271038252 ,43,7885510939674 ,73,0172956397345
32.7790482 ,Left ,72,1836024024345 ,43,8251735818316 ,72,9796268285217
32.8016058 ,Left ,72,1114608449549 ,43,8255973360379 ,72,9345825018583
32.8167423 ,Left ,72,0349147551645 ,43,7933914070189 ,72,8864470553675
32.8393548 ,Left ,71,9477966851064 ,43,7371327353191 ,72,833740170813
32.8618671 ,Left ,71,8314502127982 ,43,6390183697979 ,72,8210069104932
32.8768759 ,Left ,71,8303669008586 ,43,5698735973723 ,72,8755398283086
32.8992614 ,Left ,71,8973203387754 ,43,6687747257543 ,72,9028599109285
32.9217093 ,Left ,72,0584370293299 ,43,7037767852641 ,72,8962082737353
32.9367317 ,Left ,72,2415115983088 ,43,5703432759241 ,72,8825218224797
32.9593974 ,Left ,72,3170661767824 ,43,4497062147466 ,72,876489934066
32.9817113 ,Left ,72,3011210927681 ,43,3514159114196 ,72,8707261504652
32.996848 ,Left ,72,2670480154022 ,43,2341933939702 ,72,8779702644704
33.0194402 ,Left ,72,2896894265272 ,43,1376236854974 ,72,8779939602581
33.0418167 ,Left ,72,3032508006318 ,43,0880565835929 ,72,8649328618428
33.0568647 ,Left ,72,2709264655771 ,43,0459786063487 ,72,8619188801127
33.0866062 ,Left ,72,2159870194217 ,42,9584143765156 ,72,8686846193445
33.1089161 ,Left ,72,1172572266005 ,42,9719107097132 ,72,9338368417884
33.1236687 ,Left ,71,9954739714139 ,43,1819378101164 ,73,0146233424936
33.1465368 ,Left ,71,9695593585784 ,43,4459316332219 ,73,0887691316296
33.161527 ,Left ,72,1062488912077 ,43,5506725690297 ,73,139923640607
33.1763061 ,Left ,72,2715317651857 ,43,5584950414176 ,73,13255016233
33.199175 ,Left ,72,2693782939619 ,43,588050815994 ,73,0768643608652
33.221776 ,Left ,72,1571292934309 ,43,5586320412767 ,73,0031766611882
33.2366629 ,Left ,72,0986887555238 ,43,4663287729727 ,72,9484682829769
33.2592958 ,Left ,72,152710686914 ,43,352831303962 ,72,8912265310466
33.2814952 ,Left ,72,243836124207 ,43,2402274619344 ,72,8469269798229
33.3037767 ,Left ,72,3086687183543 ,43,1386064023606 ,72,8205422588153
33.3188555 ,Left ,72,3222052368796 ,43,068803411641 ,72,8077378105279
33.3413858 ,Left ,72,3006373050094 ,43,0165332727283 ,72,8155999416379
33.3640238 ,Left ,72,2932182523955 ,42,9362155839614 ,72,8359765092043
33.3789937 ,Left ,72,3171745118364 ,42,8477975280132 ,72,8648987649873
33.4013167 ,Left ,72,3584591324512 ,42,7497465215101 ,72,8647706072554
33.4162736 ,Left ,72,4172080914964 ,42,6533105181479 ,72,86336203278
33.4388194 ,Left ,72,4506042544063 ,42,6103807847799 ,72,8297637049572
33.461625 ,Left ,72,4799960838761 ,42,5695439963962 ,72,7813125214865
33.4766656 ,Left ,72,5159908171803 ,42,5129198871929 ,72,7419767351348
33.4989878 ,Left ,72,5300604759763 ,42,457275970054 ,72,7198056336168
33.5217813 ,Left ,72,5148224117745 ,42,4095455616043 ,72,7156064388243
33.536779 ,Left ,72,4907785903566 ,42,3870466099517 ,72,7208744707795
33.559408 ,Left ,72,4787984960696 ,42,3813647559847 ,72,7221970806814
33.5815769 ,Left ,72,4814542000511 ,42,3705896658683 ,72,7064483905303
33.6039744 ,Left ,72,4885977762224 ,42,3588947229983 ,72,6978472753341
33.6192124 ,Left ,72,4678109579806 ,42,3756491120161 ,72,6980410275047
33.6416405 ,Left ,72,4066449607319 ,42,4085657152291 ,72,6998946662703
33.6565616 ,Left ,72,3558007465981 ,42,4417151781381 ,72,7039459438117
33.6791636 ,Left ,72,3405707841242 ,42,4739474322809 ,72,7197350210701
33.7091903 ,Left ,72,3641871520707 ,42,4950576246343 ,72,7376833807365
33.7314596 ,Left ,72,3612814187347 ,42,5395841354152 ,72,7575337620436
33.7464218 ,Left ,72,3202326897246 ,42,6265172942222 ,72,7670059085397
33.7615728 ,Left ,72,2485464577622 ,42,7214074583254 ,72,7763974091311
33.7838815 ,Left ,72,1814720019758 ,42,8102716211217 ,72,8415903511346
33.7989417 ,Left ,72,1425916273504 ,42,8755482531379 ,72,929547955081
33.8213692 ,Left ,72,0806449175521 ,42,9332291413247 ,73,0069447935722
33.8438754 ,Left ,72,0220383783841 ,43,0155495359945 ,73,0496216167763
33.8592165 ,Left ,72,0145623851053 ,43,0597853417991 ,73,0578046066712
33.88165 ,Left ,72,0648064894546 ,43,0432896746771 ,73,0346486550375
33.9040535 ,Left ,72,1651986778399 ,43,0064735780759 ,72,9855199890129
33.9192287 ,Left ,72,2497536737737 ,42,9697000422462 ,72,9302837692402
33.9417299 ,Left ,72,2969647977637 ,42,9238497361009 ,72,8992626121986
33.9640793 ,Left ,72,3275729364183 ,42,8554375220632 ,72,8776958916364
33.9792463 ,Left ,72,3472086191577 ,42,7863581475283 ,72,8525749875336
34.0017587 ,Left ,72,3286930100542 ,42,7511426097094 ,72,8141963192681
34.0240824 ,Left ,72,2939886750271 ,42,6919462813682 ,72,7679076758665
34.0390983 ,Left ,72,2698430065941 ,42,6031401219512 ,72,7982465806958
34.0616384 ,Left ,72,2856042730217 ,42,5798720963963 ,72,8355682180801
34.0840342 ,Left ,72,2738882503772 ,42,6769962827937 ,72,8446001892297
34.0989506 ,Left ,72,2805822542801 ,42,7607723080917 ,72,8670387768802
34.1213381 ,Left ,72,3519290405311 ,42,7850934916581 ,72,8754753852734
34.1437612 ,Left ,72,3791493765093 ,42,8288906133851 ,72,8679314488486
34.1589921 ,Left ,72,3676158669215 ,42,8453217426843 ,72,861167628404
34.1815321 ,Left ,72,3627202334699 ,42,8089260370943 ,72,854569962619
34.2039777 ,Left ,72,3563752695473 ,42,751939196858 ,72,8522260468067
34.2265945 ,Left ,72,3425123807897 ,42,6726707457456 ,72,8325339624371
34.2488194 ,Left ,72,2995447168522 ,42,642669747151 ,72,8503608196532
34.2712757 ,Left ,72,2715822653996 ,42,7133690813785 ,72,9088851913537
34.2864679 ,Left ,72,2897963664872 ,42,8493397805697 ,72,9744146072067
34.3015889 ,Left ,72,3340339142086 ,43,0127309918616 ,73,0080111966848
34.3240433 ,Left ,72,4004970826347 ,43,1095593627598 ,73,0253428892523
34.3467409 ,Left ,72,4129747898585 ,43,1949318502366 ,73,0504613654241
34.3615863 ,Left ,72,3765744106909 ,43,2526743321613 ,73,0806503023183
34.3840285 ,Left ,72,3561763704008 ,43,2900038472056 ,73,1095643372462
34.4065624 ,Left ,72,3890824781807 ,43,3089509345116 ,73,1493332103801
34.4217629 ,Left ,72,4315084163375 ,43,3345898631543 ,73,1933706743504
34.4440628 ,Left ,72,4160824896943 ,43,364284070146 ,73,2272253389282
34.4592093 ,Left ,72,3564980209393 ,43,3723457070851 ,73,2529624176416
34.4816982 ,Left ,72,3258898456854 ,43,3536275836641 ,73,2634493796703
34.5040579 ,Left ,72,3044849232761 ,43,3320277074296 ,73,2582056638289
34.5191632 ,Left ,72,2731799983036 ,43,3498354318332 ,73,2563721858988
34.541642 ,Left ,72,2153876966032 ,43,3879298601228 ,73,2646975541999
34.5640262 ,Left ,72,1017645678172 ,43,4495820060245 ,73,3136460426089
34.5792176 ,Left ,72,0152686871835 ,43,561765871881 ,73,3804521718047
34.6016475 ,Left ,71,9548322837224 ,43,7484830292578 ,73,4342547621956
34.624345 ,Left ,71,9859701833509 ,43,8836406313079 ,73,4880537140202
34.6471736 ,Left ,72,087408931191 ,43,9312780548786 ,73,4978359666551
34.6621388 ,Left ,72,1249510803053 ,43,9573157611037 ,73,4772656204162
34.6844329 ,Left ,72,0826603658375 ,43,9857272926083 ,73,4307612270488
34.7067306 ,Left ,72,0639666152164 ,43,9938097567712 ,73,3429673621207
34.7217437 ,Left ,72,0677109438847 ,44,0140348155738 ,73,2526766405844
34.7440623 ,Left ,72,0950813428763 ,44,0408296729498 ,73,1662721790428
34.7667301 ,Left ,72,1169245659486 ,44,0707979057511 ,73,0915914549175
34.7816034 ,Left ,72,1420159660297 ,44,08034676764 ,73,0309729003049
34.8040659 ,Left ,72,159946221791 ,44,0604132113052 ,72,9717364872121
34.8265105 ,Left ,72,1751240939333 ,44,0439312699286 ,72,9118354822023
34.8414388 ,Left ,72,1775408859616 ,44,0301489081583 ,72,8439751465958
34.8644756 ,Left ,72,1805861927528 ,44,0156183527907 ,72,7741335473745
34.8871912 ,Left ,72,1521463236704 ,43,9822848811957 ,72,714808681781
34.9020299 ,Left ,72,1042462544795 ,43,930438055073 ,72,6805137465978
34.9243835 ,Left ,72,0619241628163 ,43,8589184689514 ,72,6475234568887
34.947058 ,Left ,72,0090807427777 ,43,7747626506911 ,72,6142849208621
34.9618595 ,Left ,71,9532047918499 ,43,6910549941689 ,72,6079220323872
34.9842487 ,Left ,71,9298300293586 ,43,6478609730774 ,72,6281151338902
35.0065809 ,Left ,71,9528098274418 ,43,7084635827783 ,72,6441325245118
35.0217249 ,Left ,72,0363222852057 ,43,7292027638397 ,72,6428033342045
35.0440636 ,Left ,72,1319210648911 ,43,6721699711523 ,72,6606017551284
35.0667345 ,Left ,72,2127437020645 ,43,628905691273 ,72,6604336398324
35.0817514 ,Left ,72,224711518479 ,43,5791368552137 ,72,6609909328414
35.1042649 ,Left ,72,2467955025094 ,43,5146574679806 ,72,6644092485986
35.1270085 ,Left ,72,2853736349991 ,43,4380345679065 ,72,656847062771
35.1421612 ,Left ,72,308076932039 ,43,3610407768109 ,72,663297892953
35.1644715 ,Left ,72,3038936289469 ,43,2903921644183 ,72,6704394537858
35.1866607 ,Left ,72,2640523625479 ,43,2307378605388 ,72,6773077918823
35.2090221 ,Left ,72,194962423941 ,43,1611658510062 ,72,6910034429608
35.2239695 ,Left ,72,1028257311106 ,43,0752413423376 ,72,7210609694035
35.2464177 ,Left ,72,0048371878054 ,43,1264901072818 ,72,7871838005022
35.2691415 ,Left ,71,9132086551556 ,43,3434462470329 ,72,8437123353439
35.2838905 ,Left ,71,9075402929841 ,43,5492672857122 ,72,8913742171748
35.3064815 ,Left ,72,0040891326566 ,43,6038544409017 ,72,9105804556443
35.3291567 ,Left ,72,0426217577778 ,43,6295757483268 ,72,9057168820225
35.3440128 ,Left ,71,9939905291167 ,43,6587355045966 ,72,8658096934134
35.3664268 ,Left ,71,9518274544453 ,43,6405514491136 ,72,8144552110629
35.3895675 ,Left ,71,9779420091387 ,43,5830315122248 ,72,763186863954
35.4044666 ,Left ,72,0308844281479 ,43,5256216039842 ,72,7232768399823
35.4267632 ,Left ,72,0594958407978 ,43,4530739212582 ,72,6965714663261
35.4416395 ,Left ,72,0624928125688 ,43,3714756746562 ,72,6844617962222
35.4640537 ,Left ,72,0817794312528 ,43,28289031416 ,72,6760385174925
35.48653 ,Left ,72,0971341173541 ,43,2107410004672 ,72,6630672848269
35.5016475 ,Left ,72,104801451379 ,43,1449610836061 ,72,6496374553771
35.523705 ,Left ,72,1078877797804 ,43,0671728453805 ,72,6369327730944
35.5465604 ,Left ,72,1115922749015 ,42,9886500960234 ,72,6272610965946
35.5688163 ,Left ,72,1155314142743 ,42,9158696921742 ,72,6150534273694
35.5838867 ,Left ,72,1200514564154 ,42,8320670402787 ,72,6113386506556
35.6065487 ,Left ,72,1008939549476 ,42,75355277726 ,72,6226928105264
35.6292665 ,Left ,72,0776278301653 ,42,747334354856 ,72,6488917827284
35.6439726 ,Left ,72,0558514926242 ,42,7825636372946 ,72,6468654880071
35.6667379 ,Left ,72,0701749692775 ,42,7838177065971 ,72,6274524201044
35.6890998 ,Left ,72,1034126359002 ,42,7444847381056 ,72,604655214639
35.7040111 ,Left ,72,113869789765 ,42,7030079053722 ,72,5953248481247
35.7267299 ,Left ,72,116090398531 ,42,679529234818 ,72,5955273505745
35.7491263 ,Left ,72,128655034121 ,42,6574249365018 ,72,5903809774604
35.7640316 ,Left ,72,1406165809085 ,42,6181982806631 ,72,5797327978587
35.7867349 ,Left ,72,1351905730414 ,42,6021011912616 ,72,5720231383909
35.8089553 ,Left ,72,1192726837722 ,42,610052947387 ,72,5611841303734
35.8240343 ,Left ,72,1123820066566 ,42,6263590262851 ,72,5696048037827
35.8466304 ,Left ,72,1340542782082 ,42,6579713139399 ,72,5853147465662
35.8692729 ,Left ,72,149838292548 ,42,7008417999314 ,72,6027381775782
35.8839116 ,Left ,72,1566904428604 ,42,7353589454257 ,72,6243699530345
35.907101 ,Left ,72,128851772086 ,42,7636805526041 ,72,6503595452343
35.9294937 ,Left ,72,0654195022136 ,42,8021858189216 ,72,6713907656736
35.9369427 ,Left ,72,0017518647166 ,42,8479091676645 ,72,6890064532911
35.9592082 ,Left ,71,9692990869858 ,42,8737430759464 ,72,7021450063585
35.9814357 ,Left ,71,9132600450784 ,42,9254882814219 ,72,7651966157631
35.9964822 ,Left ,71,8258106085718 ,43,0494954270771 ,72,8312041095656
36.0191355 ,Left ,71,7535291801251 ,43,1958742470915 ,72,8685518964645
36.041928 ,Left ,71,7320299044757 ,43,3033049321576 ,72,879167345778
36.0567552 ,Left ,71,7799729080654 ,43,3272264969778 ,72,8652168596395
36.0792126 ,Left ,71,8829873650467 ,43,2831955192394 ,72,8288631483396
36.1017497 ,Left ,71,9597189359362 ,43,2320134509206 ,72,7634156301311
36.1165502 ,Left ,72,0021060080804 ,43,164785301829 ,72,7092152714314
36.1390968 ,Left ,72,0549324388611 ,43,0815250986707 ,72,672970552212
36.1615598 ,Left ,72,1198716799701 ,42,9881038131934 ,72,6484032435058
36.1765109 ,Left ,72,1686646719928 ,42,9214086470649 ,72,6217017903733
36.2065463 ,Left ,72,1791998915364 ,42,8820455775921 ,72,573830542577
36.2291204 ,Left ,72,167365386184 ,42,8188707733345 ,72,5425241419098
36.2439407 ,Left ,72,1775141742329 ,42,7508863191897 ,72,5825136009197
36.2590426 ,Left ,72,1941916995461 ,42,7802743452508 ,72,6400993395973
36.2817121 ,Left ,72,1751482549475 ,42,9221627713702 ,72,6719681945986
36.2967356 ,Left ,72,1746585556241 ,43,0050397166608 ,72,6976010427923
36.3190577 ,Left ,72,2344463477651 ,43,0140248841481 ,72,7033394246283
36.341651 ,Left ,72,2777177129318 ,43,0376493614568 ,72,6744229225411
36.3566188 ,Left ,72,2942336578821 ,43,0532560465007 ,72,647150506061
36.379118 ,Left ,72,3080044402696 ,43,0484336008619 ,72,6149645601379
36.4016356 ,Left ,72,3015477827361 ,43,0418915295678 ,72,5855781092184
36.4164158 ,Left ,72,2882725417489 ,43,0245894092635 ,72,5597301221293
36.4389205 ,Left ,72,2767781774911 ,42,9629606370033 ,72,5542050330504
36.4616335 ,Left ,72,2896733241657 ,42,9034178407796 ,72,6143034414238
36.4764442 ,Left ,72,3098937367397 ,42,956188780689 ,72,6799356670267
36.4990177 ,Left ,72,300841163658 ,43,1025024078795 ,72,7065059488943
36.5214083 ,Left ,72,3344980653452 ,43,213837739011 ,72,715102212617
36.5596754 ,Left ,72,3861713565907 ,43,3200549591722 ,72,8178200035618
36.5822008 ,Left ,72,3933217598756 ,43,3678665658301 ,72,8844156599268
36.6192946 ,Left ,72,4210452732991 ,43,3951836093075 ,72,9894745508135
36.6416249 ,Left ,72,3715122996964 ,43,4022392411541 ,73,0126626882492
36.6567585 ,Left ,72,2998273555341 ,43,4172518496594 ,73,0284849684943
36.6793303 ,Left ,72,2243132255024 ,43,4297331859772 ,73,0354069989347
36.7017212 ,Left ,72,1492631110948 ,43,4758144356078 ,73,088868951295
36.7166126 ,Left ,72,0572061250828 ,43,6033364795936 ,73,1655276396151
36.739096 ,Left ,71,9884556489165 ,43,7738648981059 ,73,255961056211
36.7615604 ,Left ,72,0169673817112 ,43,8732370281635 ,73,3179978536578
36.7989501 ,Left ,72,0668237711566 ,43,9297241370805 ,73,3325024263041
36.8214159 ,Left ,72,0246861385972 ,43,9501365180148 ,73,2769454920458
36.8590037 ,Left ,72,0342899730287 ,43,98352556642 ,73,1156887821124
36.8814845 ,Left ,72,0588245076797 ,44,0103900595 ,73,016708084972
36.8964641 ,Left ,72,0669952251206 ,44,0380704598012 ,72,9308283226526
36.9189158 ,Left ,72,0627798282787 ,44,0551806419769 ,72,8503334225657
36.9413453 ,Left ,72,0539822497605 ,44,0502119616319 ,72,778322834483
36.9796983 ,Left ,72,0270490701621 ,43,9679633095777 ,72,6586305746518
