timestamp,event,roll,pitch,yaw
0.0352798 ,Left ,56,1169971374628 ,44,2693723735141 ,78,8856024015086
0.0498848 ,Left ,56,0919217354084 ,44,2471854762348 ,78,8879246622676
0.0728418 ,Left ,56,0638679267098 ,44,2282371156026 ,78,8903595121248
0.0953107 ,Left ,56,0360431049893 ,44,214363953094 ,78,8958149394289
0.1097008 ,Left ,56,014650257125 ,44,2056342151247 ,78,9054697939143
0.1328996 ,Left ,55,9955465905575 ,44,1980677953404 ,78,9217206984604
0.1555322 ,Left ,55,9841109690107 ,44,1907932403596 ,78,9380037687533
0.1768242 ,Left ,55,9739223540559 ,44,1902449729679 ,78,9547766337423
0.1935204 ,Left ,55,9696862778696 ,44,1966188498176 ,78,9749118834574
0.2155441 ,Left ,55,9774329228209 ,44,206186214018 ,78,9983741634464
0.2367291 ,Left ,55,9874756448386 ,44,2259272490254 ,79,0187079947893
0.2530727 ,Left ,55,9949285375746 ,44,2518945187562 ,79,0317799312816
0.2753721 ,Left ,55,9902666306559 ,44,2916215894186 ,79,0499672664479
0.2966144 ,Left ,55,9765972275898 ,44,3166214977168 ,79,0831029472136
0.3128945 ,Left ,55,9609479888559 ,44,3207586708835 ,79,1229047906234
0.3355412 ,Left ,55,9491742329453 ,44,3183676640462 ,79,1499396797809
0.3565399 ,Left ,55,9614847456276 ,44,3247099360502 ,79,1574890441977
0.3731136 ,Left ,55,9811152101541 ,44,3391856770615 ,79,1615083505204
0.3955444 ,Left ,55,9852305483661 ,44,3600570501111 ,79,1676078304446
0.4164811 ,Left ,55,9749979435499 ,44,3806243533969 ,79,1727870749976
0.4328425 ,Left ,55,9734193211547 ,44,3794595364627 ,79,1727576030511
0.4553712 ,Left ,55,9734193211547 ,44,3794595364627 ,79,1727576030511
0.4768548 ,Left ,55,9734193211547 ,44,3794595364627 ,79,1727576030511
0.4930931 ,Left ,55,9734193211547 ,44,3794595364627 ,79,1727576030511
0.5157108 ,Left ,55,9797338424245 ,44,3841186157422 ,79,1728769434984
0.5369197 ,Left ,55,9846910472341 ,44,3880064419409 ,79,1771153741493
0.5591901 ,Left ,55,9825944611947 ,44,3834476119143 ,79,1803018706052
0.5754712 ,Left ,55,9911709213192 ,44,3876753939139 ,79,17386399402
0.5979058 ,Left ,56,0097404266076 ,44,4074850467564 ,79,1603922674122
0.6130459 ,Left ,56,020391323979 ,44,4365130451666 ,79,1565256129533
0.6355048 ,Left ,56,0360562481597 ,44,4766596941795 ,79,1632897149721
0.6579031 ,Left ,56,0479420755895 ,44,5160324920377 ,79,1766505082596
0.6730841 ,Left ,56,0591218161197 ,44,5464135598695 ,79,1931222070493
0.695565 ,Left ,56,0856329825157 ,44,5636208693288 ,79,1985381558455
0.7182926 ,Left ,56,1311572498536 ,44,5825233862298 ,79,1949669365477
0.7323878 ,Left ,56,1815460410141 ,44,6136697238725 ,79,1776038642793
0.7555632 ,Left ,56,2219229350222 ,44,6507218159362 ,79,1600300740937
0.7780335 ,Left ,56,2506471301462 ,44,694447473527 ,79,1409186893916
0.7923328 ,Left ,56,2665369477739 ,44,7390654376205 ,79,1208460890035
0.8155924 ,Left ,56,2662605933471 ,44,7714631915923 ,79,1032391620379
0.8381856 ,Left ,56,2919404293077 ,44,7820885620962 ,79,0814920744127
0.8522726 ,Left ,56,3400783036072 ,44,7765630395374 ,79,0520451711268
0.8755314 ,Left ,56,4098629710489 ,44,7638520949773 ,79,0209738027785
0.898107 ,Left ,56,5062072043829 ,44,7306562050842 ,78,9797088076348
0.9193205 ,Left ,56,6573828778447 ,44,639492970752 ,78,941672345652
0.9355633 ,Left ,56,9035361676185 ,44,4858009189097 ,78,9042189894138
0.9581507 ,Left ,57,0958667482718 ,44,3537659117177 ,78,8888186067723
0.979034 ,Left ,57,1760537445403 ,44,3450093349119 ,78,8428548264102
0.9955923 ,Left ,57,191374349289 ,44,3927711048893 ,78,7684624839953
1.0238809 ,Left ,57,1174439651354 ,44,541698021016 ,78,6712989662326
1.0389043 ,Left ,57,0424310641622 ,44,761451663198 ,78,5154202811037
1.0554902 ,Left ,57,009383215201 ,45,0283340453129 ,78,2991192993915
1.0780795 ,Left ,56,9708315807071 ,45,2669609463716 ,78,0373637419584
1.0990906 ,Left ,56,9623920330626 ,45,4272563605741 ,77,8505854820218
1.1153837 ,Left ,56,9449777663991 ,45,4864823324764 ,77,7152160190801
1.1380949 ,Left ,56,8887684380845 ,45,4434869476005 ,77,5923217146503
1.1592299 ,Left ,56,804409237628 ,45,3531699175865 ,77,4561504488212
1.1755132 ,Left ,56,6413048160164 ,45,2760357036574 ,77,346091257668
1.1980353 ,Left ,56,4909258535268 ,45,2340336329237 ,77,2855329542968
1.2191063 ,Left ,56,407131079751 ,45,2013443172092 ,77,3122548473889
1.2348356 ,Left ,56,3542544778918 ,45,2125000689999 ,77,3588779061949
1.2579159 ,Left ,56,3358117705661 ,45,2527473850586 ,77,4059200937671
1.279211 ,Left ,56,3027128341442 ,45,3347731551831 ,77,4565265941893
1.3030643 ,Left ,56,2889056419231 ,45,4287277540027 ,77,5219196039236
1.31809 ,Left ,56,2895983788392 ,45,4937535668759 ,77,6230921314034
1.3393261 ,Left ,56,3028978868593 ,45,5642443195177 ,77,6845599800617
1.354828 ,Left ,56,2851900478558 ,45,6496139681836 ,77,7052719745572
1.3780774 ,Left ,56,2227341683376 ,45,7526431083468 ,77,7061289335503
1.399349 ,Left ,56,198934596906 ,45,85316604309 ,77,704677993682
1.4156939 ,Left ,56,1994460014617 ,45,9547346185499 ,77,7059163537238
1.4381023 ,Left ,56,2217371158391 ,46,0488419362621 ,77,697062626096
1.4591116 ,Left ,56,2266642705202 ,46,1304838186591 ,77,6957405462627
1.4754395 ,Left ,56,2254533127612 ,46,1885930913548 ,77,6891052867175
1.49782 ,Left ,56,2222023136927 ,46,2373446417893 ,77,6533631825443
1.5190526 ,Left ,56,2216143286236 ,46,269796857499 ,77,5920170600485
1.5353921 ,Left ,56,2319570175096 ,46,2888698326377 ,77,5153054906893
1.5578178 ,Left ,56,2443882888548 ,46,2999366642048 ,77,4290076764414
1.5805958 ,Left ,56,263139194283 ,46,2926858472216 ,77,3395327617575
1.5957307 ,Left ,56,2743043780342 ,46,2720419662286 ,77,2641370204914
1.6180579 ,Left ,56,2806092806184 ,46,2330740040158 ,77,1968678041769
1.6404249 ,Left ,56,2888592702997 ,46,1554012720664 ,77,1523077902241
1.6618269 ,Left ,56,3244782394058 ,46,042471028654 ,77,09605007162
1.6781812 ,Left ,56,3481976194524 ,45,944481754683 ,77,0273107028625
1.7002497 ,Left ,56,3698446907894 ,45,8807925697602 ,76,9448167794105
1.7214048 ,Left ,56,3561607449977 ,45,8365327062256 ,76,8170672321175
1.7379415 ,Left ,56,3255081990443 ,45,7133742993468 ,76,7827060231608
1.7605781 ,Left ,56,3082112982134 ,45,8102747668904 ,76,8478344732423
1.7817859 ,Left ,56,2905004764706 ,46,0112426427337 ,76,9073012964904
1.7981709 ,Left ,56,3525636945493 ,46,1377981341098 ,76,9527212817337
1.820604 ,Left ,56,4458382199194 ,46,2081435759534 ,76,9621683927287
1.8416825 ,Left ,56,4809582006762 ,46,2544596767898 ,76,9695866129624
1.858121 ,Left ,56,5154028170418 ,46,3224814847253 ,76,9480108966611
1.8801891 ,Left ,56,5313493717475 ,46,4035360069111 ,76,9068044176488
1.894869 ,Left ,56,556257130433 ,46,4735462760669 ,76,8415361656695
1.9178913 ,Left ,56,5539565738957 ,46,536103415904 ,76,7545480954916
1.9462464 ,Left ,56,5602226868704 ,46,5983782273166 ,76,6659819865866
1.9548898 ,Left ,56,5695525504561 ,46,6519952720748 ,76,5836849328965
1.9781656 ,Left ,56,5685945062618 ,46,6962895733525 ,76,5025484738537
2.0004418 ,Left ,56,5498695176205 ,46,7242425889928 ,76,4239647127539
2.0147146 ,Left ,56,5197545723789 ,46,7227384227781 ,76,3412407966858
2.0378384 ,Left ,56,5047137388197 ,46,6342480771842 ,76,2435358154515
2.0605418 ,Left ,56,4533251466981 ,46,4626664787049 ,76,1555967043971
2.0815598 ,Left ,56,4065234739346 ,46,3222962004971 ,76,096761188489
2.0980243 ,Left ,56,3663754876089 ,46,4267358992756 ,76,1011097380909
2.120326 ,Left ,56,3639284447513 ,46,5693185405265 ,76,1281514250978
2.1412603 ,Left ,56,4397835358862 ,46,6368705022448 ,76,1550171990275
2.1579362 ,Left ,56,4682686326502 ,46,686031140441 ,76,1750283592435
2.1804269 ,Left ,56,4546704061588 ,46,7369141063715 ,76,1782766772009
2.2017515 ,Left ,56,4322667623197 ,46,7889951668412 ,76,1715825239653
2.2181116 ,Left ,56,4217117098179 ,46,8390842046493 ,76,1572709511154
2.2406083 ,Left ,56,401891179077 ,46,8786979069554 ,76,1348367098536
2.2619038 ,Left ,56,3526786134596 ,46,8893412318945 ,76,1030473347188
2.2781432 ,Left ,56,3071628583163 ,46,8655962927606 ,76,059416686771
2.3005363 ,Left ,56,2840651983818 ,46,8051066023269 ,76,0093443024755
2.3215617 ,Left ,56,2984981848771 ,46,7338064396486 ,75,9686000844297
2.3378728 ,Left ,56,3153874510135 ,46,6236009728639 ,75,9454756850808
2.360417 ,Left ,56,2634774010893 ,46,4364478111745 ,75,8734372075488
2.3813216 ,Left ,56,3084612832327 ,46,4569751920326 ,75,838089441097
2.3972259 ,Left ,56,215025480005 ,46,6821769595195 ,75,8686397391099
2.4203669 ,Left ,56,2413077665151 ,46,8256140880238 ,75,9114676734168
2.4414366 ,Left ,56,2899647964968 ,46,8790127226426 ,75,9696267719815
2.4571992 ,Left ,56,3061133251408 ,46,8961625086479 ,76,0266697227331
2.4803509 ,Left ,56,2942219726523 ,46,9322451874697 ,76,0526729579165
2.5033839 ,Left ,56,2460324693186 ,47,0030897184628 ,76,0836556430705
2.5172421 ,Left ,56,2210029920909 ,47,113708688859 ,76,1213632870144
2.5404006 ,Left ,56,2050675880896 ,47,2438664566266 ,76,1566867677793
2.5627625 ,Left ,56,17794789981 ,47,3745480201057 ,76,1912163216756
2.5773182 ,Left ,56,1614595428509 ,47,4720105057848 ,76,2354615439263
2.6004907 ,Left ,56,1631687538629 ,47,5298706428395 ,76,2898830744669
2.6231733 ,Left ,56,1739003849898 ,47,5618834996349 ,76,3307556745904
2.6441524 ,Left ,56,1775261882358 ,47,5608531850398 ,76,3638007747093
2.6606087 ,Left ,56,1807550420048 ,47,5261450819574 ,76,381328304761
2.6903993 ,Left ,56,1862345347397 ,47,4731403194067 ,76,3640829930321
2.7038726 ,Left ,56,1953911168975 ,47,3989721455426 ,76,3243383537155
2.7198833 ,Left ,56,2115732879252 ,47,2768349303298 ,76,2773442224399
2.7430698 ,Left ,56,2270305294551 ,47,0842979839951 ,76,1878683665337
2.7639205 ,Left ,56,2435685110732 ,46,9798242640371 ,76,122760612272
2.7804895 ,Left ,56,2134016705806 ,47,101825686536 ,76,1401257357207
2.8027958 ,Left ,56,2317272781465 ,47,2239815628679 ,76,1849087893808
2.8240284 ,Left ,56,3224499292632 ,47,2654176240014 ,76,2609248406141
2.8405051 ,Left ,56,3849804588863 ,47,2502909211056 ,76,336702959409
2.8628717 ,Left ,56,4280400586394 ,47,2201965018537 ,76,387400470361
2.8843959 ,Left ,56,4355441811882 ,47,204451421402 ,76,4136913226881
2.9007631 ,Left ,56,4506409859751 ,47,2006622864941 ,76,4212286827859
2.9231169 ,Left ,56,4568796367848 ,47,2123317121599 ,76,417390897764
2.9444148 ,Left ,56,4511878791304 ,47,2512931304359 ,76,4148845605411
2.9681461 ,Left ,56,4440435772606 ,47,2848952216314 ,76,4238854957006
2.9830327 ,Left ,56,4620340136908 ,47,3053734628565 ,76,4348541781683
3.0057001 ,Left ,56,502023625153 ,47,3095820552791 ,76,4500657264857
3.0209071 ,Left ,56,5311815059372 ,47,308208163526 ,76,4542193165644
3.0432134 ,Left ,56,5570091362844 ,47,3126803047905 ,76,4524076968652
3.0653236 ,Left ,56,5769434836577 ,47,3174969668324 ,76,4499802540277
3.0796622 ,Left ,56,6009618547466 ,47,3202062076486 ,76,4298532762599
3.1028449 ,Left ,56,6208831495554 ,47,3316037914441 ,76,397905284692
3.1239619 ,Left ,56,6366682578045 ,47,3556750968551 ,76,3670385277501
3.1404321 ,Left ,56,6599488873878 ,47,3906952833272 ,76,3479738561395
3.1631324 ,Left ,56,6784003285373 ,47,4288616046332 ,76,3348266706762
3.1838284 ,Left ,56,693354179431 ,47,4560622839618 ,76,3164618600908
3.2004479 ,Left ,56,6980608814557 ,47,487236332589 ,76,2822069650398
3.2231211 ,Left ,56,6953584293169 ,47,5357345241696 ,76,2343685182133
3.2441675 ,Left ,56,6941703095977 ,47,6043572162723 ,76,1716797935901
3.2606343 ,Left ,56,6958089445189 ,47,6656478927626 ,76,1028983051673
3.2892195 ,Left ,56,671755420038 ,47,7172787322328 ,76,03208674002
3.3055537 ,Left ,56,6340316644507 ,47,7574085009687 ,75,951854840593
3.3205419 ,Left ,56,5929675489527 ,47,7972150332402 ,75,8715960293979
3.3428094 ,Left ,56,5638750908788 ,47,8136847160504 ,75,7989829276101
3.3653945 ,Left ,56,5437263163958 ,47,8120540507224 ,75,7166617259172
3.3805057 ,Left ,56,5200745482577 ,47,7885424551662 ,75,6251690214892
3.4031803 ,Left ,56,4924459932434 ,47,758202790651 ,75,5325341766436
3.4255576 ,Left ,56,4488738936873 ,47,7509348062612 ,75,4441624054277
3.4404679 ,Left ,56,418543633023 ,47,592045442341 ,75,4218282069652
3.4632895 ,Left ,56,3631632798509 ,47,4117095340895 ,75,4180269566599
3.4854556 ,Left ,56,3591691309457 ,47,5278534078025 ,75,4491320366045
3.4999517 ,Left ,56,3097882413985 ,47,6600378660492 ,75,4909716032456
3.5230955 ,Left ,56,3684381062922 ,47,7022755933019 ,75,5160899536229
3.5454821 ,Left ,56,4017763926078 ,47,6838339729484 ,75,5387441801027
3.5667158 ,Left ,56,422368896077 ,47,6100407002833 ,75,5668653120981
3.5829265 ,Left ,56,4013576540169 ,47,5247418399582 ,75,5941133749931
3.6132 ,Left ,56,3771072771738 ,47,4667020830912 ,75,6010382624672
3.6198645 ,Left ,56,3682408440752 ,47,4463016007585 ,75,6061180075647
3.6431772 ,Left ,56,3553749075123 ,47,4395590048635 ,75,6065708180965
3.6654777 ,Left ,56,3556704020677 ,47,4286870351943 ,75,60522241824
3.6798575 ,Left ,56,3696154206105 ,47,4030508833609 ,75,604026222967
3.7031263 ,Left ,56,3855576094998 ,47,3794513252404 ,75,6002910583997
3.7256329 ,Left ,56,4227600391664 ,47,3512621141425 ,75,5522919149229
3.739829 ,Left ,56,4449120310955 ,47,3135340014545 ,75,506863166258
3.7630494 ,Left ,56,4269461565563 ,47,2502881525563 ,75,4679766640458
3.7855719 ,Left ,56,4106805597801 ,47,0569287730042 ,75,4875125004271
3.8069313 ,Left ,56,4829074130037 ,47,0852585397731 ,75,5287508820648
3.8231214 ,Left ,56,4465866390886 ,47,2308432749235 ,75,5731160249771
3.8455559 ,Left ,56,536889351982 ,47,2937274749847 ,75,6070491441874
3.8668267 ,Left ,56,6057988202712 ,47,2966587797369 ,75,6198274600794
3.8893347 ,Left ,56,6375268177565 ,47,255243480618 ,75,6306455403704
3.9055387 ,Left ,56,656232578321 ,47,1959711100389 ,75,6610368840626
3.9264673 ,Left ,56,6770637138826 ,47,1351785123728 ,75,6975871553431
3.9430029 ,Left ,56,7156778766562 ,47,1133830646322 ,75,7385414064177
3.9655695 ,Left ,56,7230375727281 ,47,1089829790606 ,75,7833226128096
3.986395 ,Left ,56,7234429854477 ,47,0949359779645 ,75,8289285594231
4.003214 ,Left ,56,7321247165964 ,47,0728582826767 ,75,8897160571499
4.0255767 ,Left ,56,746677436732 ,47,0348273626224 ,75,9643744389463
4.0468086 ,Left ,56,7588611715852 ,47,0073652794053 ,76,0285086018588
4.0629919 ,Left ,56,7771412307641 ,46,98785754926 ,76,0943791744147
4.0854962 ,Left ,56,7657806189089 ,46,9807064384762 ,76,1549964879485
4.1064621 ,Left ,56,7573061893503 ,46,9770023536144 ,76,2072078760675
4.123103 ,Left ,56,744141433035 ,46,970310527423 ,76,2529772896304
4.145505 ,Left ,56,7264829483172 ,46,9701308347117 ,76,2984224452695
4.1678608 ,Left ,56,7077734209964 ,46,960287471921 ,76,3489480572122
4.1830226 ,Left ,56,7035157473286 ,46,9408206990092 ,76,4067153614976
4.2055458 ,Left ,56,7094348254688 ,46,924367409203 ,76,4480934045813
4.2266566 ,Left ,56,71796672018 ,46,8926790542537 ,76,4548924877975
4.2429962 ,Left ,56,7301173439145 ,46,8475113409279 ,76,4638503336348
4.2654808 ,Left ,56,7594361386904 ,46,8123426452336 ,76,473294271488
4.2867513 ,Left ,56,8082386339605 ,46,8029826120155 ,76,4820056765927
4.3029941 ,Left ,56,8486486341112 ,46,8030927337154 ,76,4878264521258
4.3255931 ,Left ,56,8939622934645 ,46,7950303256965 ,76,4843722682738
4.3555102 ,Left ,56,9361174959608 ,46,7743236559892 ,76,469743153619
4.3623541 ,Left ,56,9649147086245 ,46,7540767961856 ,76,4442382383512
4.3853927 ,Left ,56,9795290637458 ,46,758749731817 ,76,4255768248143
4.4079144 ,Left ,57,0049726990429 ,46,744255586148 ,76,4187136593046
4.422175 ,Left ,57,0177974571709 ,46,7267938012109 ,76,4060470206486
4.4454453 ,Left ,57,0243017125758 ,46,7142665907184 ,76,3782486721801
4.468015 ,Left ,57,0280245364647 ,46,7052667407771 ,76,3475953746633
4.4831032 ,Left ,57,0382489300366 ,46,6896940051544 ,76,3260546356569
4.5056971 ,Left ,57,0425583424802 ,46,6794801274885 ,76,3073642534335
4.5281076 ,Left ,57,0429998516191 ,46,6716969516789 ,76,2853672090624
4.5423023 ,Left ,57,0339565589987 ,46,6580754793829 ,76,2612181013342
4.5657097 ,Left ,57,0373191831416 ,46,6390435167965 ,76,2383274957872
4.5881113 ,Left ,57,0419410050894 ,46,6206625669583 ,76,218673563378
4.6023937 ,Left ,57,0445754368838 ,46,6024786966542 ,76,204839092574
4.6256061 ,Left ,57,0408299153862 ,46,581984976867 ,76,208213840825
4.6479758 ,Left ,57,0410301664674 ,46,5588759165112 ,76,2357474665349
4.6624295 ,Left ,57,0312629994371 ,46,5475823007627 ,76,2755712171444
4.6855149 ,Left ,57,0152597497091 ,46,5575581598135 ,76,3230647025519
4.7080547 ,Left ,56,9910898637137 ,46,5917618328894 ,76,3843985067167
4.722271 ,Left ,56,9663566295627 ,46,6194291391476 ,76,4692716036556
4.7455196 ,Left ,56,9343588970413 ,46,6482494419761 ,76,5776443920933
4.7680982 ,Left ,56,8947729250999 ,46,6805753559704 ,76,6919143640666
4.7891899 ,Left ,56,8569155250301 ,46,7127783408698 ,76,8192195284792
4.8054141 ,Left ,56,8186813279037 ,46,7427255333733 ,76,9587474933064
4.8281371 ,Left ,56,7829852050875 ,46,7834808748194 ,77,0941458762588
4.84921 ,Left ,56,7445251347717 ,46,8308572226089 ,77,2209433808127
4.865569 ,Left ,56,7053279458675 ,46,8807719924544 ,77,3236644793309
4.8880937 ,Left ,56,6766542134718 ,46,9206783009953 ,77,4049026001262
4.9092373 ,Left ,56,6535525634133 ,46,9413951220998 ,77,4629021103701
4.9257083 ,Left ,56,6262937288901 ,46,9492652185316 ,77,4908947897306
4.9554114 ,Left ,56,5991391986866 ,46,9473123512857 ,77,4927726294172
4.9689474 ,Left ,56,5866882972337 ,46,9403746878038 ,77,4651117693262
4.9855118 ,Left ,56,58353104052 ,46,9169725910245 ,77,4183097371533
5.0080772 ,Left ,56,5765489613916 ,46,8573961253463 ,77,3769658583361
5.0293092 ,Left ,56,5346938599146 ,46,7080286854602 ,77,4071445100766
5.0461797 ,Left ,56,5145459685211 ,46,5503234254318 ,77,3939532633449
5.0681548 ,Left ,56,5582561906362 ,46,5385423476778 ,77,3767824279303
5.0892695 ,Left ,56,5569391601365 ,46,6080274462381 ,77,3699158247318
5.1048231 ,Left ,56,6592600907493 ,46,6675320573291 ,77,3366000406935
5.1280761 ,Left ,56,7297952082377 ,46,6902283373177 ,77,2738368003442
5.148909 ,Left ,56,7517745094122 ,46,739770945811 ,77,1818307054718
5.1647358 ,Left ,56,7335841461788 ,46,796672621324 ,77,0790459340782
5.1878929 ,Left ,56,7223127961884 ,46,8522708485803 ,76,9717635221875
5.2091617 ,Left ,56,7016096027544 ,46,9076480546133 ,76,8632761662348
5.2248998 ,Left ,56,6688047609838 ,46,9305183300024 ,76,7567628302845
5.2480303 ,Left ,56,6217224365277 ,46,9224801620632 ,76,6604967723138
5.2767136 ,Left ,56,5899439221665 ,46,8988424141472 ,76,5775000273972
5.2849671 ,Left ,56,5782052298573 ,46,8118914406272 ,76,572902851991
5.3080597 ,Left ,56,5534347228338 ,46,6234175685177 ,76,5848264786508
5.3305837 ,Left ,56,6214022285252 ,46,6087612140517 ,76,5770863131674
5.3448535 ,Left ,56,6065357155226 ,46,6961395510288 ,76,5834105619133
5.3680806 ,Left ,56,6216101060349 ,46,7300607933406 ,76,5769268716601
5.3906707 ,Left ,56,6591452329058 ,46,7221512605258 ,76,5564960039669
5.4055214 ,Left ,56,6422887265222 ,46,7146089664437 ,76,5382388645018
5.4279784 ,Left ,56,5985334804083 ,46,7102897824034 ,76,5199163927507
5.4505487 ,Left ,56,5591733948689 ,46,7256567228642 ,76,5071471152699
5.4646671 ,Left ,56,5533476615755 ,46,7383335769708 ,76,4955759123306
5.4880978 ,Left ,56,5274828655827 ,46,748908411024 ,76,4872255711956
5.5105611 ,Left ,56,4986209187687 ,46,7763853592682 ,76,4739034289989
5.5248884 ,Left ,56,5048713056595 ,46,7423744428716 ,76,5321996419548
5.5555446 ,Left ,56,5797409678665 ,46,6909030035262 ,76,6099435425901
5.5706016 ,Left ,56,6284634474635 ,46,7914562464766 ,76,663247653433
5.5917594 ,Left ,56,5907846465735 ,46,9016527624056 ,76,7151082442622
5.60816 ,Left ,56,6076830326341 ,46,9579146767451 ,76,7357624813948
5.6306505 ,Left ,56,5984952892316 ,47,0056078837503 ,76,7669137568942
5.6518518 ,Left ,56,5668920887156 ,47,0555025978452 ,76,7952536136103
5.6681667 ,Left ,56,5218127634688 ,47,1124463305912 ,76,8222957012912
5.6906053 ,Left ,56,479645508149 ,47,1826197210499 ,76,8514930169713
5.7049011 ,Left ,56,4684791244962 ,47,2447426998627 ,76,8812564661873
5.7280703 ,Left ,56,4785007529928 ,47,2722806695482 ,76,9221192930915
5.750577 ,Left ,56,4864197535025 ,47,2758630847932 ,76,9483820180929
5.764914 ,Left ,56,4832910715092 ,47,2755025510769 ,76,9510102059665
5.7887708 ,Left ,56,4721771665924 ,47,2740252626641 ,76,9490912607146
5.8105163 ,Left ,56,4688244985533 ,47,2754740308261 ,76,9365590031219
5.833017 ,Left ,56,4746756227266 ,47,2774303551444 ,76,919081456954
5.8479422 ,Left ,56,4711900580014 ,47,263890226584 ,76,9172154080594
5.8705997 ,Left ,56,4723587862637 ,47,236586533848 ,76,9264785771458
5.8930741 ,Left ,56,4814243215199 ,47,2073606678921 ,76,921511714909
5.8983381 ,Left ,56,4900389728725 ,47,1851929969053 ,76,9022570437927
5.9146312 ,Left ,56,5099675273101 ,47,1641386582275 ,76,8876445443664
5.9358631 ,Left ,56,5363577360723 ,47,1410231528284 ,76,8886058524001
5.9585104 ,Left ,56,5567448960024 ,47,1241533337983 ,76,8868957071916
5.975039 ,Left ,56,5642028454046 ,47,1058048732738 ,76,8707604717873
5.9962163 ,Left ,56,5713107969568 ,47,0850283209172 ,76,8477701257681
6.0212453 ,Left ,56,57857663745 ,47,0788203796423 ,76,8208043371399
6.0331811 ,Left ,56,5786978849671 ,47,0894033384838 ,76,8037694107768
6.0557978 ,Left ,56,5586446524139 ,47,1073875507757 ,76,7996475394898
6.0784116 ,Left ,56,5513134658569 ,47,1458758341749 ,76,787418317688
6.093511 ,Left ,56,5195041159528 ,47,1998163271738 ,76,7828240328906
6.1159527 ,Left ,56,5016372550946 ,47,1365769758009 ,76,8344750567677
6.1386396 ,Left ,56,5055789725537 ,47,0097411269279 ,76,8336270166473
6.1536533 ,Left ,56,5403352439826 ,47,0651846055857 ,76,8321851062036
6.1757413 ,Left ,56,4822245390231 ,47,1610809993845 ,76,8463173164194
6.198256 ,Left ,56,5422891001508 ,47,2045517418171 ,76,8386545936182
6.2133464 ,Left ,56,5986958549729 ,47,2073512744426 ,76,8258675702072
6.2358112 ,Left ,56,6101985077042 ,47,2149311075919 ,76,7858921235072
6.2585143 ,Left ,56,5935293899877 ,47,2510443245109 ,76,7293563484924
6.2735786 ,Left ,56,593649966687 ,47,2992068125074 ,76,6559261707768
6.298791 ,Left ,56,6165534071012 ,47,3501404993926 ,76,5747231567376
6.3187363 ,Left ,56,6200650703248 ,47,3950066909761 ,76,4899457347917
6.3335145 ,Left ,56,6204436263201 ,47,4424236045629 ,76,3874277500579
6.3562745 ,Left ,56,626578816727 ,47,4886936488256 ,76,274444715279
6.3786187 ,Left ,56,6307593821714 ,47,5324890159524 ,76,1673380513504
6.3951004 ,Left ,56,638435626401 ,47,5514681724002 ,76,0639019186856
6.4162233 ,Left ,56,6313971732489 ,47,5455301915753 ,75,961362789846
6.4388537 ,Left ,56,6193480942851 ,47,5300066280303 ,75,8718598401218
6.4551172 ,Left ,56,5998477947466 ,47,5084684063059 ,75,7924459013155
6.476193 ,Left ,56,5631812690072 ,47,437642898234 ,75,7077113504795
6.4988229 ,Left ,56,5356168471098 ,47,3379078064555 ,75,7119478642943
6.5137996 ,Left ,56,6135498510129 ,47,3394402416827 ,75,755387445206
6.536246 ,Left ,56,6575361341204 ,47,3399088783241 ,75,8115429799148
6.5585412 ,Left ,56,6668169877947 ,47,2898378547631 ,75,8330777104585
6.5762478 ,Left ,56,6931741650208 ,47,2534707250895 ,75,8323510637975
6.595845 ,Left ,56,689322850874 ,47,2314736738857 ,75,8438199309937
6.6184528 ,Left ,56,6556495449963 ,47,242511928564 ,75,8582553829891
6.6334121 ,Left ,56,6353546923156 ,47,2777841425204 ,75,8892310871208
6.6558363 ,Left ,56,6505539994778 ,47,287401464918 ,75,9459277150961
6.6783868 ,Left ,56,6450422632513 ,47,2374561055139 ,75,9894582123359
6.6935498 ,Left ,56,6402090437965 ,47,1724435776836 ,76,0046926245293
6.7159514 ,Left ,56,6208559081914 ,47,1457083219563 ,76,0286261952608
6.7386548 ,Left ,56,6034032158025 ,47,1648861582063 ,76,0552523520245
6.7535914 ,Left ,56,6072763468 ,47,2036104356451 ,76,0841863087747
6.7757798 ,Left ,56,630819597084 ,47,2224621391209 ,76,1285267815161
6.7984164 ,Left ,56,6253634862626 ,47,2237637470545 ,76,1636590701434
6.8133402 ,Left ,56,6228827062517 ,47,2196470617947 ,76,1569017516783
6.835988 ,Left ,56,5982037123599 ,47,2306260776259 ,76,1516647670396
6.8583393 ,Left ,56,5990305470669 ,47,2680330720439 ,76,1473936375393
6.8749279 ,Left ,56,6050238805002 ,47,3037929510446 ,76,1496579608567
6.8961195 ,Left ,56,5918436792831 ,47,3284188519118 ,76,1834564855769
6.9186249 ,Left ,56,5825884031266 ,47,3324493782506 ,76,2333413423498
6.9349601 ,Left ,56,5709904506912 ,47,338386913106 ,76,2743487165549
6.9562048 ,Left ,56,5632529852787 ,47,3566158140503 ,76,2903429177908
6.9786825 ,Left ,56,5624429943991 ,47,3675316128974 ,76,2855651225342
6.9949682 ,Left ,56,5617975106397 ,47,3577082558855 ,76,2723035685207
7.016283 ,Left ,56,5493228217414 ,47,3330380734377 ,76,2464462989004
7.0384091 ,Left ,56,5376129617904 ,47,3038491319748 ,76,1997355065351
7.0566472 ,Left ,56,5366634082435 ,47,2651696989578 ,76,150164073758
7.0761968 ,Left ,56,5477808819195 ,47,2173358367661 ,76,107302962575
7.0985203 ,Left ,56,5683546190912 ,47,1634246476694 ,76,0710292991725
7.1164121 ,Left ,56,587353761105 ,47,1131030099419 ,76,0380147796229
7.135725 ,Left ,56,6026957306695 ,47,0885680033578 ,76,0165570264025
7.1582133 ,Left ,56,6145967370652 ,47,0872031348923 ,76,0269014334702
7.176153 ,Left ,56,6287986972937 ,47,0771025789151 ,76,0574638142162
7.1959345 ,Left ,56,6267325999746 ,47,0800097824041 ,76,0842773299777
7.2184766 ,Left ,56,6069121632401 ,47,089648016459 ,76,1035507676145
7.2366164 ,Left ,56,5872760425748 ,47,1026049478057 ,76,1202964295806
7.2561323 ,Left ,56,58041144989 ,47,1164932626006 ,76,1359420287414
7.2788287 ,Left ,56,5949191016704 ,47,1119761513917 ,76,1671825525907
7.2964443 ,Left ,56,5981472624829 ,47,1010511206387 ,76,1904518540722
7.3157706 ,Left ,56,5969408472655 ,47,094843129118 ,76,2073798840088
7.3385171 ,Left ,56,5947362611698 ,47,0895028256695 ,76,2125880865496
7.3564436 ,Left ,56,5988231298536 ,47,077261539945 ,76,2088817049143
7.3759055 ,Left ,56,6135129159174 ,47,0532269653298 ,76,1990989781574
7.3984567 ,Left ,56,6377626355461 ,47,0026942602709 ,76,1847821128346
7.41642 ,Left ,56,6509020267 ,46,9393549656123 ,76,1675219896209
7.435915 ,Left ,56,6681454726891 ,46,8805079593711 ,76,1422064990343
7.4584305 ,Left ,56,6782875906697 ,46,8312757776537 ,76,0993127705031
7.4764676 ,Left ,56,6850825728623 ,46,7960488677212 ,76,0515252665944
7.4959382 ,Left ,56,7000784428859 ,46,7728296706569 ,76,0120150710664
7.5183536 ,Left ,56,7002448226276 ,46,7676831237322 ,75,9637737728148
7.5364721 ,Left ,56,6572437774722 ,46,5926299767384 ,75,9671370461827
7.5559575 ,Left ,56,7004551531184 ,46,4831352905512 ,75,9793904537019
7.5785975 ,Left ,56,7078814870293 ,46,5126127838097 ,76,0042073844995
7.5962178 ,Left ,56,7485682151225 ,46,5284217523982 ,76,0256232064109
7.6159148 ,Left ,56,7978077889707 ,46,5214101462588 ,76,0251386183254
7.6383473 ,Left ,56,8196147514922 ,46,5058056860081 ,76,0201842349742
7.6564389 ,Left ,56,8029640201908 ,46,4823065400336 ,76,0156891905673
7.6758998 ,Left ,56,7840021787578 ,46,4584337702069 ,76,0199276542755
7.6985156 ,Left ,56,788407708854 ,46,4260345635029 ,76,0442180675569
7.7163487 ,Left ,56,8066064555291 ,46,3896153357535 ,76,0699196602737
7.7358792 ,Left ,56,8179389202121 ,46,3556858472701 ,76,092143174652
7.7585414 ,Left ,56,8174662811149 ,46,3504430024094 ,76,1096481048152
7.7766557 ,Left ,56,8358715566284 ,46,3495765024615 ,76,1209453624509
7.7959624 ,Left ,56,8485029199793 ,46,3609772324629 ,76,123589665777
7.8185879 ,Left ,56,8623954886648 ,46,3689972959628 ,76,1411504489804
7.8364926 ,Left ,56,8741728832522 ,46,3559991291408 ,76,1775109400125
7.8573853 ,Left ,56,8709620007158 ,46,3501729225221 ,76,2039147285436
7.8789413 ,Left ,56,8817927223785 ,46,3067451321135 ,76,2556449508146
7.8965649 ,Left ,56,8908232998894 ,46,2613554445417 ,76,3101835399221
7.9177064 ,Left ,56,9023183707101 ,46,2384840986611 ,76,3581715641058
7.9389713 ,Left ,56,9200327545158 ,46,2094109319904 ,76,4126104004906
7.9565951 ,Left ,56,9337630324745 ,46,1895401721408 ,76,4522737856441
7.9776577 ,Left ,56,9466618564894 ,46,1898254288593 ,76,478372637369
7.9988033 ,Left ,56,9439164361798 ,46,2067213404697 ,76,5042541783182
8.0166154 ,Left ,56,9434097122152 ,46,2215409730475 ,76,5392570719193
8.0377115 ,Left ,56,9356514980711 ,46,2465993860936 ,76,5745278883214
8.0587461 ,Left ,56,93181621213 ,46,2342247565804 ,76,6249391510865
8.0765838 ,Left ,56,9148324755401 ,46,2129860228246 ,76,6549326340676
8.0977248 ,Left ,56,9006492765079 ,46,1909666873727 ,76,6634109732535
8.1188986 ,Left ,56,8905190483269 ,46,1698307516031 ,76,6726133232091
8.1366259 ,Left ,56,8818726674032 ,46,1590803220049 ,76,6735141090905
8.1592583 ,Left ,56,8771030962987 ,46,1615302191587 ,76,663977281884
8.1789649 ,Left ,56,8856597416727 ,46,1593431207196 ,76,6771502960411
8.1965982 ,Left ,56,8964913642184 ,46,1368368583453 ,76,6918580743531
8.2191535 ,Left ,56,9097522469467 ,46,1185238148035 ,76,6921883269691
8.2400869 ,Left ,56,9166002951581 ,46,1158228673704 ,76,6957940956756
8.2565297 ,Left ,56,9214093063535 ,46,1290509596313 ,76,6915320505258
8.2863494 ,Left ,56,926780851822 ,46,1562754409225 ,76,6884135685001
8.2984408 ,Left ,56,9282879025921 ,46,1845779457943 ,76,6942437093012
8.316199 ,Left ,56,9373824838581 ,46,1899406541547 ,76,7174886997312
8.3386965 ,Left ,56,93835756442 ,46,1858096268279 ,76,7356797581348
8.3582957 ,Left ,56,9403881537094 ,46,1750260721032 ,76,7506369973138
8.3763288 ,Left ,56,9390341496489 ,46,1641615999268 ,76,7617844403586
8.3988747 ,Left ,56,9390341496489 ,46,1641615999268 ,76,7617844403586
8.4182346 ,Left ,56,940419106228 ,46,1708833528393 ,76,7626438633684
8.4363683 ,Left ,56,940419106228 ,46,1708833528393 ,76,7626438633684
8.4589264 ,Left ,56,9443193750042 ,46,173395070485 ,76,7694012505815
8.4786138 ,Left ,56,9493380618823 ,46,154634441113 ,76,780959343652
8.4964966 ,Left ,56,9494312705634 ,46,1491665832424 ,76,7803749319207
8.5187106 ,Left ,56,9479511000944 ,46,1479131974831 ,76,7801013685389
8.5384852 ,Left ,56,9503447483474 ,46,1533166772136 ,76,774565855239
8.5564345 ,Left ,56,9583582881363 ,46,1646605354637 ,76,7645297059341
8.5790072 ,Left ,56,9610232686397 ,46,1784301783607 ,76,7597265537965
8.5984486 ,Left ,56,9600513337792 ,46,1966365543375 ,76,761195264678
8.6164489 ,Left ,56,9606647280509 ,46,1895878981058 ,76,7792777823086
8.6390561 ,Left ,56,9604792020009 ,46,1820758159542 ,76,7939629488281
8.6586205 ,Left ,56,9545882989765 ,46,1729137834895 ,76,8048779080015
8.6811381 ,Left ,56,9531066614449 ,46,1716617124473 ,76,8046019448259
8.6991278 ,Left ,56,9519565692525 ,46,1760408643245 ,76,8047477017477
8.7187182 ,Left ,56,9491973828824 ,46,1873663455607 ,76,8055030427315
8.7410731 ,Left ,56,9554061045731 ,46,1811110475072 ,76,8119784467386
8.7590303 ,Left ,56,955793061882 ,46,1721183457381 ,76,8204471981753
8.7799457 ,Left ,56,9613967628196 ,46,1595978586031 ,76,829479894432
8.8011964 ,Left ,56,9696949437047 ,46,1489441707281 ,76,8420434216808
8.8190778 ,Left ,56,9735259534576 ,46,1450019311925 ,76,8577701570007
8.8400024 ,Left ,56,9693224830217 ,46,1509200854699 ,76,8702994327244
8.8613095 ,Left ,56,9705703309328 ,46,1578420274416 ,76,8895939584333
8.8790422 ,Left ,56,9719823636521 ,46,1616822508913 ,76,9151905035721
8.900197 ,Left ,56,970820733473 ,46,1659226322817 ,76,9403734889881
8.921195 ,Left ,56,9608326228899 ,46,1823310749583 ,76,9592078108165
8.9391741 ,Left ,56,9469834997784 ,46,2067337874521 ,76,975242650678
8.9600725 ,Left ,56,9421356337762 ,46,2212448742461 ,77,0007515369237
8.9811531 ,Left ,56,9314887465443 ,46,2330648554891 ,77,0282537979465
9.0008133 ,Left ,56,9183264125516 ,46,2372324270331 ,77,0582578167456
9.0199731 ,Left ,56,9020312869974 ,46,2420152900317 ,77,0813906046988
9.0410829 ,Left ,56,891436832087 ,46,249948440445 ,77,0997552064403
9.0588605 ,Left ,56,8769293159589 ,46,2566220201886 ,77,1201950540795
9.0814553 ,Left ,56,8627043932152 ,46,2584711685166 ,77,1370555682611
9.1011946 ,Left ,56,8457482008485 ,46,2584772651948 ,77,1503847414784
9.1189415 ,Left ,56,8361358792694 ,46,2596681795964 ,77,161703250893
9.1414326 ,Left ,56,8293702436115 ,46,2637870157837 ,77,1707778934687
9.1613563 ,Left ,56,83010004207 ,46,2631688591283 ,77,1800352539814
9.1789153 ,Left ,56,8299470409355 ,46,2636187606948 ,77,1772436970006
9.2006116 ,Left ,56,8282801459941 ,46,2709083274321 ,77,1711879309181
9.2213778 ,Left ,56,8288731746865 ,46,2867449772579 ,77,1570227133297
9.239164 ,Left ,56,829865329893 ,46,3027478681538 ,77,142674911261
9.2616434 ,Left ,56,8326253860076 ,46,3125298697726 ,77,1285994748652
9.2811142 ,Left ,56,8344511946748 ,46,3153383553269 ,77,1162497832652
9.2989904 ,Left ,56,8417150244965 ,46,3124668809678 ,77,1012252357272
9.321585 ,Left ,56,8432409432918 ,46,3134449674183 ,77,0830111255402
9.3412078 ,Left ,56,8522633301479 ,46,3124403208739 ,77,0652948467756
9.3590059 ,Left ,56,8554237327712 ,46,3196721997299 ,77,0507683792648
9.381532 ,Left ,56,8636691372786 ,46,3222789024039 ,77,042619229684
9.4013193 ,Left ,56,86768967271 ,46,321782372152 ,77,0306536317793
9.4191336 ,Left ,56,8722196214619 ,46,3225269225288 ,77,012734302148
9.4415018 ,Left ,56,8717846411755 ,46,3329019014698 ,76,9918638644825
9.4619674 ,Left ,56,8647842706727 ,46,3505824255575 ,76,9735420530782
9.4789219 ,Left ,56,853465222492 ,46,3669113517306 ,76,9612897558606
9.5016402 ,Left ,56,8400749095993 ,46,3769612821208 ,76,9601622940202
9.521635 ,Left ,56,8267690864774 ,46,3762174478058 ,76,9616244841367
9.5381666 ,Left ,56,811269721499 ,46,3787775624133 ,76,9627693084201
9.5606552 ,Left ,56,7947478722728 ,46,3894998447102 ,76,9585966391908
9.5819223 ,Left ,56,7900888952348 ,46,4033677329446 ,76,9434225367205
9.5981618 ,Left ,56,7849448866408 ,46,4156917772133 ,76,9158142811952
9.6280938 ,Left ,56,7821983102108 ,46,4093857978315 ,76,8809908351435
9.6418514 ,Left ,56,7818827038724 ,46,3870405332355 ,76,8355041250693
9.6581646 ,Left ,56,7807880279306 ,46,3696553869333 ,76,7872776390497
9.6806601 ,Left ,56,7857676073083 ,46,3610591690086 ,76,7347810295161
9.7017651 ,Left ,56,7892853128133 ,46,3644122740396 ,76,6863502708877
9.7180203 ,Left ,56,7967044029299 ,46,3639681571574 ,76,6535576785
9.7404181 ,Left ,56,8137876586364 ,46,3559773346071 ,76,6395283693909
9.7616481 ,Left ,56,8301104143533 ,46,346161172573 ,76,6343440881917
9.7779339 ,Left ,56,8408792390264 ,46,3434556499209 ,76,6233349384208
9.8006666 ,Left ,56,8369042159644 ,46,3449811653368 ,76,6046875856783
9.8218118 ,Left ,56,8310221091193 ,46,339897279977 ,76,5788658221795
9.8381408 ,Left ,56,8278397988947 ,46,3083337364681 ,76,5631681814685
9.8603426 ,Left ,56,824490621072 ,46,2593010432147 ,76,5553169734138
9.8814556 ,Left ,56,8260574121634 ,46,2064512891805 ,76,5445560624454
9.8977855 ,Left ,56,8319711050065 ,46,1628530664366 ,76,5352275051311
9.9205688 ,Left ,56,8331382286424 ,46,1419064518458 ,76,5335435690492
9.9412701 ,Left ,56,8346049112659 ,46,1431730243813 ,76,5338068549292
9.9580807 ,Left ,56,8229683346627 ,46,1569207404368 ,76,5396776295051
9.9808625 ,Left ,56,8087194848574 ,46,176238644408 ,76,5521616611368
10.0017729 ,Left ,56,7871085887207 ,46,1995373283514 ,76,5636032254442
10.0182213 ,Left ,56,7622166319345 ,46,2123998476964 ,76,5710172967594
10.0406961 ,Left ,56,7425474927371 ,46,2152783272871 ,76,584142918037
10.0631356 ,Left ,56,7167707434711 ,46,2138078061585 ,76,5869799193027
10.0781811 ,Left ,56,7044788327061 ,46,2024781239056 ,76,590820299583
10.1007188 ,Left ,56,6955890648242 ,46,1910931400282 ,76,5947715528612
10.1232903 ,Left ,56,6928456370244 ,46,1868762511085 ,76,5882327493572
10.138217 ,Left ,56,6888792407867 ,46,1882564404297 ,76,5906676061445
10.1606912 ,Left ,56,6878363939602 ,46,1974081376459 ,76,6006060857905
10.1831429 ,Left ,56,6997802737534 ,46,192747132839 ,76,6171730332438
10.1975547 ,Left ,56,7013687528336 ,46,1882217743184 ,76,6444258472238
10.220719 ,Left ,56,7024579632043 ,46,1812500932158 ,76,6687787204388
10.2431813 ,Left ,56,7043224088344 ,46,1773137273431 ,76,6931150647405
10.2575249 ,Left ,56,7067327953704 ,46,1838505228317 ,76,7065872344933
10.280893 ,Left ,56,70471866466 ,46,1891450583985 ,76,7158781671235
10.3032502 ,Left ,56,7090629779043 ,46,2061612238127 ,76,720816402294
10.3175263 ,Left ,56,7087496034881 ,46,2082942786338 ,76,7240532123648
10.3406596 ,Left ,56,7066230799862 ,46,2153495830335 ,76,718276449245
10.3632165 ,Left ,56,7001415225815 ,46,224956078108 ,76,7028196926955
10.3775564 ,Left ,56,6953986217238 ,46,2364165468404 ,76,6846756022812
10.4007535 ,Left ,56,6874864226477 ,46,2603245329435 ,76,6551729554487
10.4232236 ,Left ,56,6869756267329 ,46,3201738619745 ,76,6080531159835
10.4444179 ,Left ,56,6678676876717 ,46,4742442199207 ,76,53068101911
10.4608032 ,Left ,56,6733531148222 ,46,4988492129792 ,76,552020565485
10.4831288 ,Left ,56,6712298591125 ,46,369693611039 ,76,5552549609218
10.5042058 ,Left ,56,7721503934475 ,46,4883595136567 ,76,5545497159968
10.520832 ,Left ,56,6656014860888 ,46,6336789005816 ,76,5850378556897
10.5432182 ,Left ,56,7315707564737 ,46,6538276191535 ,76,593010708058
10.5644013 ,Left ,56,7529560365507 ,46,6405937427402 ,76,5884235257885
10.5807532 ,Left ,56,7297668673358 ,46,6140662541536 ,76,5886348912417
10.6032184 ,Left ,56,7016037696401 ,46,5775158352259 ,76,5905281825309
10.6243714 ,Left ,56,6752955081326 ,46,5388012584546 ,76,6017755532342
10.6405903 ,Left ,56,6704025592276 ,46,5014891659657 ,76,6252604401194
10.6632576 ,Left ,56,6607868900397 ,46,479319238698 ,76,6463771891004
10.6844609 ,Left ,56,6592831922618 ,46,4498947550662 ,76,6774615800312
10.7006951 ,Left ,56,656688864433 ,46,4256765949168 ,76,6993349777985
10.7233116 ,Left ,56,66437110679 ,46,4026914694514 ,76,7231831532877
10.744447 ,Left ,56,6776954009461 ,46,3721459959093 ,76,7557116193641
10.760661 ,Left ,56,6822535331456 ,46,3573525682332 ,76,7765352265127
10.7831407 ,Left ,56,7023300969273 ,46,3137368798598 ,76,8125655396089
10.8041324 ,Left ,56,7102638919704 ,46,2724719368886 ,76,8500151508631
10.8207077 ,Left ,56,7216865721635 ,46,2441392562059 ,76,8772052247586
10.8432471 ,Left ,56,7318144941618 ,46,2218293844429 ,76,9106248394205
10.8645105 ,Left ,56,7450686347195 ,46,2135321712919 ,76,9427548786238
10.8807336 ,Left ,56,7514451876082 ,46,2161402237978 ,76,9721436974185
10.9028802 ,Left ,56,7581500239691 ,46,2150912805849 ,77,0068859449346
10.9239799 ,Left ,56,7643270885901 ,46,2115762164252 ,77,038774078193
10.9404226 ,Left ,56,7702473001511 ,46,2033295716333 ,77,0607114861468
10.9629127 ,Left ,56,7745321429882 ,46,194136718037 ,77,0757736560972
10.9860165 ,Left ,56,7769948622532 ,46,1887094173942 ,77,0728458367387
11.0010432 ,Left ,56,7904851401512 ,46,1809138926349 ,77,0519363579771
11.0230752 ,Left ,56,8058416568883 ,46,1601090409933 ,77,0180287109347
11.0454895 ,Left ,56,8278869551782 ,46,1318669224376 ,76,9778011111361
11.0606521 ,Left ,56,8442655403367 ,46,1011334953755 ,76,91839385872
11.0832274 ,Left ,56,8678142900946 ,46,0754863950636 ,76,8413299381134
11.1062836 ,Left ,56,9018161622136 ,46,0555347484046 ,76,7477438072657
11.1266506 ,Left ,56,9434106630397 ,46,0245482200728 ,76,6387931818205
11.1433757 ,Left ,56,9880228040824 ,45,9883656966156 ,76,5271309684482
11.1656246 ,Left ,57,0324176724511 ,45,9468934685127 ,76,4090021615843
11.1868798 ,Left ,57,0925979753106 ,45,9257625507088 ,76,2855682252298
11.203204 ,Left ,57,1672934001291 ,45,9153287656821 ,76,1379022582482
11.2253892 ,Left ,57,2420214256579 ,45,9010451204646 ,75,9784595408049
11.2465024 ,Left ,57,328923355019 ,45,8800487231278 ,75,8294564755821
11.2635437 ,Left ,57,421263051488 ,45,8533087684037 ,75,7052838364283
11.2921636 ,Left ,57,5486267902532 ,45,8219234243187 ,75,5849763082473
11.307074 ,Left ,57,6831930053338 ,45,7633668927671 ,75,4421548084538
11.3232315 ,Left ,57,8032477820587 ,45,6610459866757 ,75,298547389107
11.3456981 ,Left ,57,8885794191375 ,45,5370232481777 ,75,1691710151047
11.3670215 ,Left ,57,9963886817821 ,45,4126329742918 ,75,0452041097221
11.3831736 ,Left ,58,1030172869471 ,45,3348449956541 ,74,9144684461037
11.4058727 ,Left ,58,1715664696953 ,45,2860071084673 ,74,7679640901074
11.4269539 ,Left ,58,208567042701 ,45,2584591775925 ,74,600117256284
11.4432286 ,Left ,58,2126505299259 ,45,2614925826168 ,74,450750824591
11.4656583 ,Left ,58,2158796152194 ,45,3224421448812 ,74,3443954549267
11.4868122 ,Left ,58,2112125018258 ,45,4143968955336 ,74,2506267320762
11.5023878 ,Left ,58,1733619392065 ,45,5207557899571 ,74,152922751506
11.5255691 ,Left ,58,1242969829832 ,45,6194268316315 ,74,0450823921122
11.5468707 ,Left ,58,0647784978996 ,45,7057192048801 ,73,9495500962214
11.5632077 ,Left ,58,0323650790357 ,45,792831375066 ,73,9063614603953
11.5855415 ,Left ,58,0186779160421 ,45,8638064278782 ,73,8861050235332
11.6066582 ,Left ,58,010372446178 ,45,9284342383066 ,73,8628774323765
11.6231457 ,Left ,57,9722122886307 ,45,9785124254732 ,73,8456793845292
11.645678 ,Left ,57,934500683514 ,46,0223769591495 ,73,8305492551072
11.6667559 ,Left ,57,9230400467739 ,46,0645367629387 ,73,8153262100118
11.6833055 ,Left ,57,9497458071226 ,46,0751180915334 ,73,8370019535829
11.705592 ,Left ,57,9529383231029 ,46,0702050937825 ,73,8793255442061
11.7269373 ,Left ,57,9326169432548 ,46,067225095004 ,73,9249240242741
11.7430344 ,Left ,57,925868293784 ,46,0619269581732 ,73,9575938955881
11.7655974 ,Left ,57,9320616837825 ,46,0326556982033 ,73,9769982439014
11.7869216 ,Left ,57,9542064980036 ,45,975417202101 ,74,0115511984859
11.8024529 ,Left ,57,9972841059956 ,45,887991729998 ,74,0789051312093
11.8256091 ,Left ,58,0043476345743 ,45,8141280666749 ,74,1674219067487
11.8469663 ,Left ,57,9636818295582 ,45,7638716765076 ,74,2541871478706
11.8624009 ,Left ,57,887993437406 ,45,7361106794629 ,74,3288528107589
11.8855928 ,Left ,57,8323596897594 ,45,6970052439692 ,74,3786646993753
11.9068633 ,Left ,57,7775526781763 ,45,6507693667961 ,74,4135000108709
11.923082 ,Left ,57,7046869612709 ,45,628668623822 ,74,4206488286273
11.9455938 ,Left ,57,5940211005989 ,45,6323819172656 ,74,4069510560849
11.9680886 ,Left ,57,4943598761589 ,45,6106165796014 ,74,4324460552464
11.9823761 ,Left ,57,4170930090352 ,45,5566078728881 ,74,5034644350158
12.0055527 ,Left ,57,3772777717063 ,45,5128779075076 ,74,5650477200613
12.0281768 ,Left ,57,3277521399519 ,45,4888286630164 ,74,5989367039378
12.0424189 ,Left ,57,2877799535804 ,45,4845436343105 ,74,6211874117182
12.0656194 ,Left ,57,2727065488432 ,45,4950349547142 ,74,6325319290833
12.0881021 ,Left ,57,2736382556137 ,45,5091768868332 ,74,6514537856309
12.1024058 ,Left ,57,3051696474132 ,45,5163127768325 ,74,6666250733501
12.1260398 ,Left ,57,3201040553679 ,45,5012006585233 ,74,6693819992243
12.1479197 ,Left ,57,3259657010732 ,45,4441415875498 ,74,6439537219347
12.1692086 ,Left ,57,3116811487115 ,45,3648100577999 ,74,5943355480821
12.1854536 ,Left ,57,2787983691263 ,45,2800104338895 ,74,5255849456913
12.2080614 ,Left ,57,2208621878136 ,45,220183416721 ,74,4489667387836
12.2292328 ,Left ,57,1843097537577 ,45,1391056395373 ,74,3755835536699
12.2456299 ,Left ,57,1768401989386 ,45,054146023722 ,74,3158687557003
12.2680665 ,Left ,57,2022259065677 ,44,982758175152 ,74,2827387738627
12.2891326 ,Left ,57,2141796729624 ,44,9347133137249 ,74,2796171123819
12.3055166 ,Left ,57,2409154116727 ,44,9137074317962 ,74,2825079804928
12.3282116 ,Left ,57,298725962264 ,44,923086552415 ,74,2753491599599
12.3423438 ,Left ,57,3555551463313 ,44,9134842279724 ,74,2637548224
12.3656137 ,Left ,57,4149849343919 ,44,900325235939 ,74,2549839930334
12.3884529 ,Left ,57,4459638043851 ,44,9268447819968 ,74,2187693632448
12.4091419 ,Left ,57,437399509962 ,45,0087955307401 ,74,1445221085416
12.4256331 ,Left ,57,4075217744253 ,45,1209841026093 ,74,0634841288192
12.4485601 ,Left ,57,3486948722102 ,45,2054278644559 ,73,978392512921
12.4694558 ,Left ,57,2903264957546 ,45,291665538672 ,73,8769090323657
12.4854487 ,Left ,57,2267823315472 ,45,4006734634546 ,73,7610254652988
12.5081927 ,Left ,57,1906362534102 ,45,5081478209852 ,73,6562472058802
12.5293988 ,Left ,57,2322605330807 ,45,5918728241604 ,73,6032793688728
12.545702 ,Left ,57,3910468379374 ,45,596773527501 ,73,6329901341925
12.568129 ,Left ,57,6799586019025 ,45,506639189156 ,73,7090688811428
12.5894249 ,Left ,58,1184419994703 ,45,3672624577911 ,73,8126452821383
12.605624 ,Left ,58,5529913388698 ,45,2396035503774 ,73,9392580260751
12.6281506 ,Left ,58,8726897689063 ,45,1535849601165 ,74,0398416060532
12.6488855 ,Left ,59,0550925176607 ,45,1123779949174 ,74,0973894480693
12.6648792 ,Left ,59,1140937434496 ,45,0863495436727 ,74,1038682097605
12.6880699 ,Left ,59,0403600961886 ,45,0831704955117 ,74,0793048899302
12.7096838 ,Left ,58,8619500655113 ,45,1092839534553 ,74,0320391031119
12.7251713 ,Left ,58,6434409504204 ,45,1565846816942 ,73,9813857061539
12.7480931 ,Left ,58,4473032775528 ,45,2014379500088 ,73,9341144019914
12.7692191 ,Left ,58,2880498747683 ,45,221859721062 ,73,8884725186271
12.7849576 ,Left ,58,1750555804446 ,45,2080550206873 ,73,8380573379198
12.8081366 ,Left ,58,1277783285662 ,45,1766667131749 ,73,7979815202274
12.829471 ,Left ,58,0843872467084 ,45,148424834295 ,73,7962915331909
12.8450789 ,Left ,58,044705972241 ,45,1361217911069 ,73,7998853967457
12.8681674 ,Left ,58,034079954517 ,45,134896892494 ,73,7930163594234
12.8906882 ,Left ,58,056605759421 ,45,1254237192618 ,73,7852886799107
12.9056191 ,Left ,58,0756372561949 ,45,108923792688 ,73,7821164208035
12.9281713 ,Left ,58,0951527267502 ,45,0895164414956 ,73,7843612329542
12.9581559 ,Left ,58,0946630423434 ,45,0860797039849 ,73,7810377037425
12.9656619 ,Left ,58,0947572844919 ,45,0820255852678 ,73,7575660041513
12.9880287 ,Left ,58,1027473070393 ,45,051191476966 ,73,71429431312
13.0106397 ,Left ,58,1464115037845 ,44,9861343917566 ,73,646992602422
13.0318668 ,Left ,58,174949444525 ,44,8895034456547 ,73,5575033405158
13.0481133 ,Left ,58,1982378502592 ,44,7851592394878 ,73,4467039733506
13.0707457 ,Left ,58,2176994355217 ,44,6826891317461 ,73,3330640175899
13.0916864 ,Left ,58,2231830190144 ,44,59792966581 ,73,2180774780557
13.1081397 ,Left ,58,2097072588036 ,44,529098349304 ,73,1124924328165
13.1305522 ,Left ,58,2166448362675 ,44,4670554604102 ,73,0489839952617
13.1518752 ,Left ,58,2087594440437 ,44,4268228682235 ,73,0353637617559
13.168189 ,Left ,58,1943877362971 ,44,4276584480682 ,73,060318869363
13.190663 ,Left ,58,1511538568719 ,44,4721967615055 ,73,1110322081219
13.2047557 ,Left ,58,0901818872357 ,44,5471310516393 ,73,1781220134408
13.2355701 ,Left ,58,0226075064852 ,44,6292922098797 ,73,2568571503327
13.2505858 ,Left ,57,9598898339194 ,44,6955723333722 ,73,3540314364662
13.2791904 ,Left ,57,8927732890096 ,44,7381206645592 ,73,4482420909628
13.2881493 ,Left ,57,839690181809 ,44,7750157310913 ,73,5256851110847
13.3105919 ,Left ,57,7782910733184 ,44,8093561594582 ,73,590958210378
13.3314837 ,Left ,57,718893863491 ,44,8367698524129 ,73,6499349687893
13.3482421 ,Left ,57,6899873747669 ,44,86430921251 ,73,7022347131975
13.3709522 ,Left ,57,6745996770052 ,44,8727096853239 ,73,7393100589638
13.3918643 ,Left ,57,6601494018299 ,44,856830404181 ,73,7453271562099
13.4082184 ,Left ,57,6281702205694 ,44,8068162249645 ,73,7327292039728
13.4308216 ,Left ,57,6074053785035 ,44,7605633580684 ,73,7212214022775
13.4518666 ,Left ,57,5968217520898 ,44,7109794175119 ,73,7246211341238
13.4682078 ,Left ,57,5952945638001 ,44,6429778084334 ,73,7327138762536
13.4906999 ,Left ,57,5920530080407 ,44,6038965640993 ,73,7520159890792
13.5132469 ,Left ,57,5892711461025 ,44,5999365340282 ,73,7744419902465
13.5281457 ,Left ,57,6280166051498 ,44,6156941198897 ,73,7981682912278
13.5566326 ,Left ,57,6799756763631 ,44,6319954801713 ,73,8315961128541
13.5719197 ,Left ,57,7175403147559 ,44,6420731432015 ,73,8665993803273
13.5883326 ,Left ,57,7436865729899 ,44,6437251707065 ,73,8943805492653
13.6103166 ,Left ,57,7680963571102 ,44,6404368858541 ,73,9187744561699
13.6320345 ,Left ,57,7939495361643 ,44,6372271427137 ,73,9549789590532
13.6484598 ,Left ,57,7810883316023 ,44,6214039019369 ,73,9902948573116
13.6706962 ,Left ,57,7665117811791 ,44,5994801896749 ,74,0337939836351
13.6917844 ,Left ,57,7469961114023 ,44,5651471567642 ,74,087646184706
13.7081301 ,Left ,57,7536535288858 ,44,5107518997044 ,74,1327976807459
13.7307759 ,Left ,57,7749613842039 ,44,5002836001179 ,74,1624654562573
13.751993 ,Left ,57,7518772884971 ,44,5638312906755 ,74,1811689781804
13.7690578 ,Left ,57,7055526074478 ,44,62298076845 ,74,1832987053542
13.7911679 ,Left ,57,6991109420673 ,44,6520603994529 ,74,2000262924308
13.8132104 ,Left ,57,6743549847792 ,44,668575240007 ,74,2465174852669
13.8279927 ,Left ,57,6361773184392 ,44,6896727870021 ,74,2983206018616
13.8508928 ,Left ,57,5883351097344 ,44,690081541782 ,74,3185003602727
13.8733675 ,Left ,57,5677252388591 ,44,6655619817415 ,74,3092432756177
13.8882907 ,Left ,57,5640575429646 ,44,6274203596768 ,74,2766099549116
13.9105813 ,Left ,57,5344890842764 ,44,591667043671 ,74,2485168771003
13.9333336 ,Left ,57,4948991830384 ,44,5774532150666 ,74,2566506225772
13.9476265 ,Left ,57,4646288568022 ,44,5812399832743 ,74,3223204809131
13.9707511 ,Left ,57,4365322974391 ,44,6186583942779 ,74,3790687409166
13.993075 ,Left ,57,4238673259438 ,44,691842647191 ,74,4161322944763
14.0073389 ,Left ,57,4314546032323 ,44,7802970631193 ,74,4412309407882
14.0304419 ,Left ,57,4353248929016 ,44,8640035059751 ,74,4688762204178
14.0528982 ,Left ,57,4208245284424 ,44,9377485594094 ,74,4974684279009
14.0672051 ,Left ,57,4113192689615 ,44,9995865543854 ,74,5459522399358
14.0906833 ,Left ,57,382090774458 ,45,0552786238434 ,74,6041743736698
14.113089 ,Left ,57,3785206480625 ,45,1092308314598 ,74,6730728683613
14.1275735 ,Left ,57,3877834386294 ,45,1448359791604 ,74,7209839027077
14.1581217 ,Left ,57,3965468886025 ,45,1447163835641 ,74,7569534647089
14.1732029 ,Left ,57,3788424639378 ,45,1514324441222 ,74,7795965899079
14.1875723 ,Left ,57,3672497388773 ,45,1728299877913 ,74,7805555329508
14.210597 ,Left ,57,347092995116 ,45,1828582898161 ,74,7709459605937
14.233456 ,Left ,57,3573705760092 ,45,1816219726718 ,74,7687494251257
14.2478315 ,Left ,57,37456859992 ,45,1389288367007 ,74,7722821803585
14.2707393 ,Left ,57,3988952029904 ,45,0881991758004 ,74,778663457358
14.2929765 ,Left ,57,4037351678759 ,45,0780781941683 ,74,7840985877234
14.3141615 ,Left ,57,404006511392 ,45,0950092790691 ,74,7973570174448
14.3306611 ,Left ,57,4128869713389 ,45,117691075696 ,74,814819207693
14.3529252 ,Left ,57,4239676981458 ,45,1501765914202 ,74,8451547572337
14.3739965 ,Left ,57,4280149557763 ,45,1927913432362 ,74,8817755141567
14.3905268 ,Left ,57,4411280404536 ,45,2090338062044 ,74,9139225417188
14.4134175 ,Left ,57,4261505644431 ,45,1867459341963 ,74,9313296054519
14.4346091 ,Left ,57,412080539354 ,45,1338071292427 ,74,9283577142064
14.4509125 ,Left ,57,3804141917893 ,45,0878236790151 ,74,9217809758359
14.4730816 ,Left ,57,3586333309148 ,45,0524471995505 ,74,9052256940355
14.4943362 ,Left ,57,3470163727139 ,45,0360916636399 ,74,8911423889955
14.5106994 ,Left ,57,3446982782219 ,45,0047593829734 ,74,8735744938491
14.5331338 ,Left ,57,3819023736605 ,44,9543078445258 ,74,8576159359677
14.5542835 ,Left ,57,4101757639839 ,44,867861516047 ,74,8380646104611
14.5704843 ,Left ,57,445534603592 ,44,8358292997901 ,74,8233679940533
14.5929181 ,Left ,57,4670324801667 ,44,8572423256886 ,74,8267047556521
14.621613 ,Left ,57,4967763351182 ,44,8921836618828 ,74,8437398309775
14.6305041 ,Left ,57,5018461695967 ,44,9250307635141 ,74,8676014202887
14.6530604 ,Left ,57,4808912914527 ,44,9710442466325 ,74,8875635927886
14.6741912 ,Left ,57,4571661925391 ,45,0023940878926 ,74,9090474484338
14.6905918 ,Left ,57,4615218367487 ,45,0238635775842 ,74,920134636132
14.715825 ,Left ,57,4508533086895 ,45,0386040930071 ,74,9323209826292
14.735937 ,Left ,57,4332051989332 ,45,0632564075126 ,74,9270553959642
14.7509251 ,Left ,57,4363041747414 ,45,1240009354294 ,74,9118300702741
14.7735308 ,Left ,57,4135134394138 ,45,1998955947932 ,74,9077544999538
14.7955373 ,Left ,57,394343767657 ,45,2848157883234 ,74,9019070662409
14.8109815 ,Left ,57,3937374953818 ,45,3678782943253 ,74,8948200787847
14.8329456 ,Left ,57,3893890116673 ,45,4169433603281 ,74,8931768653333
14.8555729 ,Left ,57,3763006348216 ,45,44872001379 ,74,8567837816155
14.8706071 ,Left ,57,3670332166991 ,45,4605000712492 ,74,7895653296412
14.893058 ,Left ,57,3539661025564 ,45,4902980171084 ,74,7122725205666
14.9157758 ,Left ,57,3455799169106 ,45,5184978514051 ,74,6355014367223
14.9299688 ,Left ,57,3338100365429 ,45,5387017047252 ,74,5492100366967
14.9531034 ,Left ,57,3156556046337 ,45,5572271166822 ,74,4653564974424
14.9769738 ,Left ,57,2820201525675 ,45,555925586519 ,74,3928968759467
14.9900018 ,Left ,57,2465344780626 ,45,5522078357571 ,74,3923692723221
15.0130966 ,Left ,57,2439866431495 ,45,4760326062211 ,74,4077833201318
15.0356347 ,Left ,57,2578138803356 ,45,4596715133565 ,74,4160163190993
15.0502064 ,Left ,57,2423338878923 ,45,4672370565778 ,74,4212503468203
15.0731541 ,Left ,57,2758301683565 ,45,4614771478023 ,74,4379439039172
15.09567 ,Left ,57,3191512728302 ,45,3915729953366 ,74,478280253855
15.1100015 ,Left ,57,3461004407674 ,45,3013982212548 ,74,4893522322041
15.1332062 ,Left ,57,3522698783559 ,45,2089625366479 ,74,4812600036985
15.1555669 ,Left ,57,3511710323453 ,45,1220623276981 ,74,461686977167
15.1701357 ,Left ,57,3804047490668 ,45,0508473371585 ,74,4459243125095
15.1930134 ,Left ,57,4271899025886 ,45,0069343264435 ,74,4280265537829
15.2231608 ,Left ,57,4554264404772 ,44,9854797457632 ,74,4194655966265
15.2367218 ,Left ,57,4960161123835 ,44,9225071076403 ,74,4460945384967
15.2532523 ,Left ,57,511320286342 ,44,8148510371091 ,74,470097923673
15.2757096 ,Left ,57,5331895942514 ,44,7389134929333 ,74,4916597994095
15.2969253 ,Left ,57,5139836711229 ,44,7371199563896 ,74,5371724853886
15.3131267 ,Left ,57,5007892134585 ,44,7997129434312 ,74,5707825616977
15.3355844 ,Left ,57,5668669993622 ,44,8635103703137 ,74,5899199907185
15.3565676 ,Left ,57,6237262916937 ,44,9045456054933 ,74,6156522665331
15.3732218 ,Left ,57,629100123905 ,44,9273949554335 ,74,6269936519669
15.3955955 ,Left ,57,6402479020701 ,44,9409669950554 ,74,6350239406596
15.4168596 ,Left ,57,6278720671819 ,44,9618136727211 ,74,6329818305683
15.433203 ,Left ,57,6379214025439 ,44,982378382943 ,74,6180518575678
15.4553976 ,Left ,57,6237131806666 ,45,0207252596723 ,74,6028215282912
15.4766433 ,Left ,57,619448598074 ,45,0601766284415 ,74,6179380409755
15.4931521 ,Left ,57,6282555249992 ,45,0786945161571 ,74,646916054095
15.5154039 ,Left ,57,6399862787595 ,45,0838172498884 ,74,6542952844422
15.5366848 ,Left ,57,6611460737213 ,45,0625203512156 ,74,6629241501225
15.5529382 ,Left ,57,6729517554421 ,45,0501051179736 ,74,6656987188224
15.5756111 ,Left ,57,6843182365563 ,45,0410142406019 ,74,6658431652955
15.5968082 ,Left ,57,7108545373267 ,45,0341639608047 ,74,6733978362733
15.6132318 ,Left ,57,7430804112071 ,45,0270124122253 ,74,6814491437585
15.6355459 ,Left ,57,7894694381032 ,45,0204625401596 ,74,6790793363678
15.656801 ,Left ,57,8221365750267 ,45,011154658459 ,74,6545666498937
15.6730981 ,Left ,57,8473323830793 ,45,0157510481072 ,74,621911142013
15.6955618 ,Left ,57,8776504321593 ,45,0285344180439 ,74,5906180628935
15.7182411 ,Left ,57,9166016302061 ,45,0359463908296 ,74,5802621976867
15.7331872 ,Left ,57,9284300003618 ,45,0430179148842 ,74,5732952004261
15.7555851 ,Left ,57,950235179927 ,45,0553029095753 ,74,5560597772928
15.7781324 ,Left ,57,9566874125243 ,45,0631429676408 ,74,5368646444462
15.7929815 ,Left ,57,9687351884725 ,45,0786053858381 ,74,5132425345875
15.82337 ,Left ,57,9853000843186 ,45,0878626352265 ,74,4981915396147
15.8384848 ,Left ,58,0037016823942 ,45,1073501272677 ,74,4933099075556
15.8526677 ,Left ,58,0050711989933 ,45,1170523465286 ,74,5003972616148
15.875828 ,Left ,57,9925011575486 ,45,126048040029 ,74,4942925193506
15.8984586 ,Left ,57,9767410384074 ,45,1352831037134 ,74,4820286323272
15.9126488 ,Left ,57,9748463974742 ,45,1356119902021 ,74,4583953976616
15.9356667 ,Left ,57,9797813977845 ,45,1343190622654 ,74,4293958104269
15.9581298 ,Left ,57,9925731961693 ,45,1371865123329 ,74,4163148586906
15.9723708 ,Left ,57,9955076811107 ,45,1391377176227 ,74,4256079299858
15.9956137 ,Left ,57,9931553372836 ,45,1454971064669 ,74,4290261376732
16.0180919 ,Left ,57,9957857110585 ,45,1601959448538 ,74,4279995698109
16.0324346 ,Left ,57,9959694787113 ,45,1769183018018 ,74,4182040684994
16.0555578 ,Left ,58,003952643115 ,45,1961393554993 ,74,4036266373264
16.0781161 ,Left ,58,0221237367052 ,45,1905863318364 ,74,4018567889785
16.0923429 ,Left ,58,0238539110452 ,45,1891797846495 ,74,4018618390757
16.1153807 ,Left ,58,0190323129924 ,45,1906427220936 ,74,4015619197541
16.1380772 ,Left ,58,0242524127608 ,45,1967977046254 ,74,3940061626405
16.1525685 ,Left ,58,0352916965952 ,45,2090583904535 ,74,3848187468701
16.17556 ,Left ,58,0500250135705 ,45,2250452190225 ,74,3823326875453
16.1979325 ,Left ,58,0527559847478 ,45,2444297717754 ,74,3965924677921
16.2192563 ,Left ,58,0702940656434 ,45,2386896257953 ,74,4181982173109
16.2356346 ,Left ,58,0727596635665 ,45,2370182125469 ,74,4299795732753
16.2581795 ,Left ,58,0730223610343 ,45,2431668951365 ,74,4336738410524
16.2794357 ,Left ,58,0683707968363 ,45,2593175543283 ,74,4380439888995
16.2955889 ,Left ,58,0656093421026 ,45,2838676967383 ,74,4377476872983
16.3180823 ,Left ,58,0631205604967 ,45,3076448812513 ,74,4461858908705
16.3394708 ,Left ,58,0619475903224 ,45,3144246075858 ,74,4586098527069
16.3555803 ,Left ,58,0607054433337 ,45,3125165931371 ,74,4611601375356
16.3781024 ,Left ,58,0607054433337 ,45,3125165931371 ,74,4611601375356
16.3993129 ,Left ,58,0519908904393 ,45,3211685199638 ,74,4671427714387
16.4155594 ,Left ,58,0489815177083 ,45,333013776268 ,74,4711884318245
16.4382817 ,Left ,58,0477518289736 ,45,3345614729503 ,74,4712303532132
16.4593935 ,Left ,58,0342715376393 ,45,328880416803 ,74,4779081762745
16.475568 ,Left ,58,0201705416027 ,45,3267117845844 ,74,4761701471908
16.4980222 ,Left ,58,0121352776012 ,45,3284324763274 ,74,4696852540585
16.5194687 ,Left ,58,0035143292653 ,45,3381781620576 ,74,4611263240056
16.5355498 ,Left ,57,9987562907276 ,45,3565218625198 ,74,445267358016
16.5655448 ,Left ,57,996120461169 ,45,3755974940899 ,74,4384863850716
16.5789707 ,Left ,57,9899708167602 ,45,3960288390015 ,74,4432123293129
16.5955028 ,Left ,57,9932778994185 ,45,4264387925013 ,74,4472398586484
16.6179117 ,Left ,57,9784822059264 ,45,4709242392534 ,74,4539768665894
16.6389878 ,Left ,57,9660490296763 ,45,5104870504961 ,74,4457958667807
16.6555162 ,Left ,57,9574384750082 ,45,5359615073916 ,74,4363269011999
16.6781159 ,Left ,57,9462250285893 ,45,5581836003975 ,74,429087066272
16.7006242 ,Left ,57,9335296097218 ,45,5884761650419 ,74,4227363942259
16.7156594 ,Left ,57,9215114316567 ,45,6078149665337 ,74,409270421161
16.7381158 ,Left ,57,9136236101432 ,45,6048862670422 ,74,3876713217396
16.7606096 ,Left ,57,9073592916806 ,45,5788408190535 ,74,3721326809396
16.7755586 ,Left ,57,8944206876943 ,45,5509471462413 ,74,3644100854469
16.7980522 ,Left ,57,8716318995374 ,45,5253344599051 ,74,3821564616936
16.8205578 ,Left ,57,8489488645797 ,45,4892808236785 ,74,4133167361755
16.8431684 ,Left ,57,8368466009793 ,45,4459162202252 ,74,444855514275
16.8585129 ,Left ,57,8176142657517 ,45,4312512856543 ,74,4820508151005
16.8806414 ,Left ,57,8119550982829 ,45,4340622693451 ,74,5168602320995
16.8948939 ,Left ,57,8297173499154 ,45,4351572720333 ,74,5392924215033
16.9182724 ,Left ,57,8710535068301 ,45,4230180282246 ,74,5392187473121
16.9405549 ,Left ,57,8898192037161 ,45,3979196208355 ,74,5294652127414
16.9551291 ,Left ,57,9163244453115 ,45,3549579698658 ,74,5096742135059
16.978272 ,Left ,57,9218753711694 ,45,3136463175638 ,74,4967004302611
17.0005279 ,Left ,57,9447403214762 ,45,2781112066422 ,74,515497000216
17.0148312 ,Left ,57,9566018491758 ,45,2366686347501 ,74,5648502636497
17.0380006 ,Left ,57,9608510248503 ,45,1935808912874 ,74,6104551580265
17.060673 ,Left ,57,9418993816787 ,45,1494640617071 ,74,6449781094024
17.0750697 ,Left ,57,9322327794888 ,45,1364225712243 ,74,6750673431615
17.0823716 ,Left ,57,9166619152933 ,45,1158906720226 ,74,6950050853002
17.1036454 ,Left ,57,9230183330101 ,45,0874953503763 ,74,7103465830645
17.1261341 ,Left ,57,9098644141627 ,45,0578121220091 ,74,7503428997816
17.142363 ,Left ,57,9025459482718 ,45,043113711502 ,74,7925836341792
17.1651151 ,Left ,57,876138238958 ,45,0526960485507 ,74,8206827070756
17.1859955 ,Left ,57,8244786461829 ,45,097327969635 ,74,8439572688705
17.2023753 ,Left ,57,77981207266 ,45,1757986296827 ,74,8683445670933
17.2235408 ,Left ,57,7578090856615 ,45,2427256627333 ,74,8730105062559
17.2461133 ,Left ,57,6934106283265 ,45,2951175952223 ,74,8661057598052
17.2641014 ,Left ,57,6491372562267 ,45,3429754663707 ,74,8636510615892
17.2836567 ,Left ,57,6051899477079 ,45,3794942966687 ,74,8601049493217
17.3061854 ,Left ,57,5588590556955 ,45,3847911445987 ,74,8443001784052
17.3239373 ,Left ,57,5116606231735 ,45,3690934828856 ,74,8205314276197
17.3433885 ,Left ,57,4822152705578 ,45,3468203024224 ,74,8038187959941
17.3661705 ,Left ,57,4696927354024 ,45,3181063664495 ,74,7822318176284
17.383904 ,Left ,57,479190669516 ,45,2650715367375 ,74,7515713879692
17.403684 ,Left ,57,4948408569973 ,45,2034263026557 ,74,7147780087438
17.4262419 ,Left ,57,5260954938962 ,45,1508362815661 ,74,6860859454683
17.4440862 ,Left ,57,5450562372326 ,45,1057841262456 ,74,6688035812056
17.4635947 ,Left ,57,591547254354 ,45,0371998842589 ,74,651622951534
17.4892074 ,Left ,57,6142536180718 ,44,9960682450661 ,74,6703535009822
17.5084643 ,Left ,57,6133466739771 ,45,0402191764783 ,74,7067920226747
17.5235732 ,Left ,57,6144167270708 ,45,0983352779627 ,74,7388672074299
17.5461035 ,Left ,57,6669009023764 ,45,1319977270311 ,74,7586165362509
17.5684781 ,Left ,57,7023146072303 ,45,1420553704967 ,74,7776199414069
17.5836696 ,Left ,57,7235869977664 ,45,1220303631156 ,74,7746743503727
17.6061072 ,Left ,57,7147058172228 ,45,0980194619198 ,74,7744424822873
17.628677 ,Left ,57,6978472122822 ,45,0772550917911 ,74,7797352724137
17.6434975 ,Left ,57,6687080110259 ,45,1004101821052 ,74,7941087125678
17.673725 ,Left ,57,6601533790809 ,45,1622690486697 ,74,8111695183519
17.6882809 ,Left ,57,6455063570053 ,45,1798089348581 ,74,8469781022654
17.7033213 ,Left ,57,621989258521 ,45,1572895295917 ,74,8958762721231
17.7258878 ,Left ,57,5906536523359 ,45,1982545870711 ,74,9146074956367
17.7483281 ,Left ,57,5608840595031 ,45,2604821702143 ,74,9208099128587
17.7634188 ,Left ,57,5678968253728 ,45,3355506372858 ,74,9228777029188
17.7860258 ,Left ,57,5625099801114 ,45,3985708567899 ,74,9227554616373
17.8086807 ,Left ,57,5292509007287 ,45,4499716869372 ,74,9334849104987
17.8237157 ,Left ,57,4715987945139 ,45,5041815083257 ,74,9656389753706
17.8462463 ,Left ,57,4350721195089 ,45,5689977277288 ,75,0157406875837
17.8687929 ,Left ,57,4257360478667 ,45,6342898407356 ,75,0657677702936
17.8837746 ,Left ,57,4159238310941 ,45,6775337621816 ,75,1193988624259
17.9062624 ,Left ,57,4092804355942 ,45,6877473496989 ,75,155266852117
17.9288323 ,Left ,57,4063772992574 ,45,6955991385133 ,75,1646472077861
17.9451493 ,Left ,57,382652951912 ,45,7024614981112 ,75,1569620969463
17.9661688 ,Left ,57,3750954610698 ,45,714662371256 ,75,1366996073872
17.988557 ,Left ,57,3884445524346 ,45,6908452945376 ,75,0972057452382
18.0035618 ,Left ,57,4051904037883 ,45,6084720943132 ,75,0580112004314
18.0265518 ,Left ,57,4059506340423 ,45,528928254906 ,75,038368345212
18.0490916 ,Left ,57,398490971484 ,45,5355579813096 ,75,0471841623173
18.0638817 ,Left ,57,3892905273484 ,45,5920399889083 ,75,0635979439063
18.0864079 ,Left ,57,3839320189943 ,45,6333087858555 ,75,0701939925795
18.1086109 ,Left ,57,4105048449402 ,45,6408421711505 ,75,0825667190132
18.12387 ,Left ,57,4096684251033 ,45,6353595702842 ,75,0996706979595
18.1462537 ,Left ,57,4094780433763 ,45,6515040708461 ,75,1101219252409
18.1686874 ,Left ,57,4052200477094 ,45,6697032539699 ,75,1234438223123
18.1864289 ,Left ,57,4100872128763 ,45,6932346330657 ,75,1381475826827
18.2062217 ,Left ,57,4050651641856 ,45,7236299795696 ,75,161407533963
18.2299902 ,Left ,57,3907972657187 ,45,7569009236703 ,75,1604867645253
18.2452027 ,Left ,57,3653650979399 ,45,7923796653808 ,75,1407578146016
18.2663297 ,Left ,57,3605938682021 ,45,8265211026918 ,75,1054588863989
18.2890419 ,Left ,57,3467076510182 ,45,8626439569486 ,75,075339737697
18.3053312 ,Left ,57,3565845635499 ,45,8895145401812 ,75,0263605895792
18.3262237 ,Left ,57,3745779616725 ,45,906604270469 ,74,9568716775145
18.348711 ,Left ,57,3637412254996 ,45,9178781997778 ,74,886612938204
18.365211 ,Left ,57,359473521187 ,45,9068437327081 ,74,8673918052606
18.3862576 ,Left ,57,3603214507666 ,45,8703187434937 ,74,8839002305176
18.4087815 ,Left ,57,3632758667208 ,45,8181051376111 ,74,8756144318536
18.4251022 ,Left ,57,3488099003766 ,45,7747064526703 ,74,8431859933792
18.4465195 ,Left ,57,3432154548807 ,45,7679303134989 ,74,8243370493958
18.4686047 ,Left ,57,3462728170736 ,45,7983184432471 ,74,8161745149103
18.4850561 ,Left ,57,3986577074432 ,45,7955508962505 ,74,8155040804052
18.5064331 ,Left ,57,4226811591251 ,45,7403217525703 ,74,841304461125
18.5289506 ,Left ,57,4321809203078 ,45,693550029145 ,74,8694989730205
18.5467855 ,Left ,57,432827000399 ,45,6901796437164 ,74,8779800086419
18.5664011 ,Left ,57,4371867691961 ,45,7043881172095 ,74,8711787138689
18.5888777 ,Left ,57,4359155161146 ,45,7252824870478 ,74,855669431655
18.6066077 ,Left ,57,4286646526509 ,45,7290101717711 ,74,8348087341433
18.6261267 ,Left ,57,4229248804208 ,45,7408571063934 ,74,8091734012478
18.6486142 ,Left ,57,4154484135641 ,45,7570785461241 ,74,777971394301
18.6660435 ,Left ,57,4284599577051 ,45,7853750796402 ,74,7473755457306
18.6860104 ,Left ,57,4393702225695 ,45,8304722968504 ,74,7360454391287
18.7086109 ,Left ,57,4191586399714 ,45,8813245665627 ,74,7337888215754
18.7262381 ,Left ,57,4122719501513 ,45,8967918788903 ,74,7173246410472
18.7458783 ,Left ,57,3719435342068 ,45,8641026249046 ,74,7210403674519
18.7686325 ,Left ,57,3452496841113 ,45,8185667193808 ,74,7540622216091
18.786476 ,Left ,57,31691671338 ,45,7946690127191 ,74,7923524580102
18.8061874 ,Left ,57,3098587037438 ,45,7773142564949 ,74,836562610036
18.8286926 ,Left ,57,3307832202759 ,45,7300161504524 ,74,8717904935308
18.8463643 ,Left ,57,3409365857345 ,45,6609034053667 ,74,8979536943715
18.8658388 ,Left ,57,3578400933843 ,45,5747705608714 ,74,9232277242404
18.888333 ,Left ,57,3783721574864 ,45,4708976763207 ,74,956228686257
18.9062078 ,Left ,57,4278164840578 ,45,3787732747891 ,74,9580579575471
18.9259056 ,Left ,57,4738167175106 ,45,3253737189601 ,74,9424861190391
18.9484024 ,Left ,57,4892879327858 ,45,3154571468128 ,74,9282026214812
18.9663419 ,Left ,57,5276613440773 ,45,3425935309628 ,74,8931228368195
18.9859024 ,Left ,57,5968367170211 ,45,3472055508006 ,74,8294506525065
19.0084525 ,Left ,57,6163361445451 ,45,2772303245773 ,74,7977153554748
19.0264255 ,Left ,57,651627758658 ,45,1970695614688 ,74,7930999287476
19.045943 ,Left ,57,6978766853937 ,45,1478103623972 ,74,8250508806005
19.0686085 ,Left ,57,7267364564109 ,45,1452597828984 ,74,8483015082149
19.086457 ,Left ,57,7524662325087 ,45,1654894557262 ,74,8735015549901
19.1060022 ,Left ,57,7872254363359 ,45,1779395524969 ,74,8930434923358
19.1287403 ,Left ,57,8014368395667 ,45,1868973545323 ,74,9131376456645
19.1466686 ,Left ,57,8084527541295 ,45,202474480976 ,74,9184307543181
19.167414 ,Left ,57,8007024424813 ,45,2110372596808 ,74,9363970841855
19.1882994 ,Left ,57,7871083220916 ,45,2221458442666 ,74,9569658234932
19.2062643 ,Left ,57,7869353478227 ,45,2192957129768 ,74,9803963595696
19.2275479 ,Left ,57,7793398052496 ,45,2076468878035 ,74,99335804549
19.2486265 ,Left ,57,7764662793696 ,45,1889913560537 ,75,0000714779214
19.2662978 ,Left ,57,7704172189048 ,45,1886471646472 ,75,0024022828394
19.2872279 ,Left ,57,7812837252777 ,45,1878243750604 ,75,003473923375
19.3085272 ,Left ,57,8131855219112 ,45,1921413883565 ,75,0101205487467
19.3263001 ,Left ,57,8400009334105 ,45,1736079171894 ,75,0169491890857
19.3472047 ,Left ,57,8638444404492 ,45,1617175051919 ,75,0151780444993
19.3683499 ,Left ,57,8776634353993 ,45,160971085069 ,75,010539723486
19.3865839 ,Left ,57,9007038363871 ,45,1639236431335 ,75,0012783860352
19.4072319 ,Left ,57,9222921484147 ,45,1821529268562 ,74,9817000636623
19.4312455 ,Left ,57,9532362984912 ,45,1940878748093 ,74,9593269784744
19.4464769 ,Left ,57,9665267367961 ,45,210971083396 ,74,9298781533258
19.4674499 ,Left ,57,9855956469139 ,45,2215362323454 ,74,8973465899673
19.4886339 ,Left ,57,9973558729499 ,45,2247740069328 ,74,866267918273
19.5064263 ,Left ,57,9990113313785 ,45,2391234472754 ,74,8324114257364
19.5291755 ,Left ,58,0032647480524 ,45,2617784863097 ,74,7997991665937
19.5484108 ,Left ,57,9980981871925 ,45,2937880201572 ,74,7644321722394
19.5665512 ,Left ,57,9869500834464 ,45,3267923077706 ,74,7433476042276
19.5888773 ,Left ,57,9790379138775 ,45,3540402401653 ,74,721994400926
19.616123 ,Left ,57,9585691323517 ,45,3783302115321 ,74,6960726179394
19.6263687 ,Left ,57,9368705307556 ,45,3986808386753 ,74,6636827027785
19.6487504 ,Left ,57,9158779221676 ,45,4138268616943 ,74,6338147546314
19.6683217 ,Left ,57,899289600899 ,45,4287683094878 ,74,6161519615268
19.6867867 ,Left ,57,8996166443249 ,45,4260188752182 ,74,6158564662521
19.7095345 ,Left ,57,8909484953155 ,45,404939784107 ,74,6154130350583
19.7290354 ,Left ,57,873241419907 ,45,3903918511334 ,74,6119054862394
19.7467731 ,Left ,57,8274933754619 ,45,4024685808082 ,74,6202366653911
19.7690094 ,Left ,57,8000025783299 ,45,4176590448539 ,74,6367132239403
19.7885133 ,Left ,57,8049271235061 ,45,425573111386 ,74,6674780502835
19.806586 ,Left ,57,7995799525564 ,45,4346957589885 ,74,7002724692638
19.8290854 ,Left ,57,7886219475864 ,45,4685885048298 ,74,726443731463
19.8484018 ,Left ,57,7838109093921 ,45,4897213710446 ,74,7341921165791
19.8664441 ,Left ,57,8022809504331 ,45,4984440214836 ,74,7195578638006
19.8887933 ,Left ,57,8292595009108 ,45,4764313818814 ,74,6787844101891
19.9083256 ,Left ,57,8551856403282 ,45,417528448907 ,74,6366168117444
19.9263045 ,Left ,57,882483858825 ,45,3696751345625 ,74,6134480276687
19.948739 ,Left ,57,9010219476329 ,45,3138513927143 ,74,6060707570442
19.9685015 ,Left ,57,9289816537293 ,45,2496230244857 ,74,6017216969067
19.991013 ,Left ,57,9586327599022 ,45,1515689290574 ,74,6174038782232
20.0090572 ,Left ,57,9745965737406 ,45,0295631846109 ,74,63826008604
20.0285081 ,Left ,57,972167528615 ,44,9874399159981 ,74,6690621175872
20.0509946 ,Left ,57,9334454424957 ,45,0115908197743 ,74,6974734251656
20.0687873 ,Left ,57,9427027935821 ,45,0548565483763 ,74,7236261340137
20.0900015 ,Left ,57,9705782047241 ,45,0810144625232 ,74,7469422369882
20.1064109 ,Left ,57,972846157786 ,45,0849730721782 ,74,7594411986298
20.1290404 ,Left ,57,9374472158456 ,45,0778140360551 ,74,7699510581403
20.1498022 ,Left ,57,900589089388 ,45,0804620270781 ,74,7636733328562
20.1724516 ,Left ,57,8772440502835 ,45,072808460436 ,74,7517098440942
20.1888535 ,Left ,57,8743794387493 ,45,0703113355226 ,74,745232492876
20.2101215 ,Left ,57,8623870131923 ,45,0518620631919 ,74,7511134127555
20.2262867 ,Left ,57,8550766381445 ,45,0268271115979 ,74,7775166096178
20.2488762 ,Left ,57,8455463552958 ,45,0411567577953 ,74,8076912801784
20.269986 ,Left ,57,7972983088548 ,45,1289904516034 ,74,8237982379914
20.2865093 ,Left ,57,7512344431153 ,45,2357809670284 ,74,815404286163
20.3088321 ,Left ,57,7159682600628 ,45,3319181603904 ,74,8130551822015
20.3301368 ,Left ,57,6772782726667 ,45,4105997302222 ,74,8292663518416
20.3462958 ,Left ,57,6180024522737 ,45,4695653123952 ,74,8589146613545
20.3689632 ,Left ,57,5555649699128 ,45,5130534584351 ,74,8689940356555
20.3899041 ,Left ,57,5160726007739 ,45,5495415898249 ,74,871663728743
20.4109088 ,Left ,57,4809973693487 ,45,5860780872881 ,74,866076345253
20.4288719 ,Left ,57,4603396023191 ,45,6330770701325 ,74,8689043001742
20.4519053 ,Left ,57,4478729415841 ,45,6851814161864 ,74,8731400549825
20.4712741 ,Left ,57,4537396269199 ,45,7002134276455 ,74,8694641477432
20.4889623 ,Left ,57,4529918775846 ,45,6787074272946 ,74,8700260711786
20.5114928 ,Left ,57,4348384357639 ,45,6227380831814 ,74,8916526723856
20.5385321 ,Left ,57,4418424228258 ,45,6083309825627 ,74,9026814007154
20.5488143 ,Left ,57,4226421802221 ,45,632546497912 ,74,9061093350232
20.5715109 ,Left ,57,4136914468415 ,45,6537576294198 ,74,9015587751041
20.5909442 ,Left ,57,4336806894809 ,45,656182136985 ,74,9009110406298
20.608799 ,Left ,57,4462679675403 ,45,6354287989754 ,74,9088295888012
20.6313598 ,Left ,57,422987683448 ,45,6164849354991 ,74,9251121006876
20.6509975 ,Left ,57,4255139200017 ,45,6129439825634 ,74,9574028073843
20.6688561 ,Left ,57,4352192655894 ,45,6279718151341 ,74,9893538861974
20.6913691 ,Left ,57,4357236388485 ,45,6738955548759 ,75,00596488868
20.7118615 ,Left ,57,4493030339015 ,45,7322431381446 ,74,9988109431083
20.7285679 ,Left ,57,4481226878329 ,45,7648228507598 ,74,9875001296596
20.7505689 ,Left ,57,442521942819 ,45,7914627221292 ,74,9898054569277
20.7714943 ,Left ,57,4379352710121 ,45,8236287790519 ,75,0046097885223
20.7879295 ,Left ,57,4447044985097 ,45,8365783714766 ,75,027349862242
20.8181716 ,Left ,57,4529112142647 ,45,8369617372407 ,75,0429808451806
20.8315372 ,Left ,57,44967149046 ,45,8266977782442 ,75,0267658724395
20.8479974 ,Left ,57,445496864478 ,45,8272313622276 ,74,9882125666744
20.8706225 ,Left ,57,4428276938303 ,45,8259453994806 ,74,9465923837109
20.8915046 ,Left ,57,4585080631149 ,45,8194326513125 ,74,906468976914
20.9080269 ,Left ,57,4729055095863 ,45,8150084312679 ,74,86356871866
20.9308918 ,Left ,57,4946822274149 ,45,8053432275714 ,74,8004245530012
20.9519832 ,Left ,57,4975790053088 ,45,7703152442001 ,74,7383302999192
20.9683582 ,Left ,57,4876171350415 ,45,7232220110525 ,74,697059548585
20.9909002 ,Left ,57,4953746575628 ,45,6805358842965 ,74,6960674653233
21.0123436 ,Left ,57,4793461271149 ,45,680405906382 ,74,6856936499386
21.0283177 ,Left ,57,4881789479285 ,45,6730773079066 ,74,6682597224565
21.0506593 ,Left ,57,5000224255791 ,45,6362108802094 ,74,6537924634941
21.0718623 ,Left ,57,5084625577653 ,45,5636129432123 ,74,6584775609634
21.0882434 ,Left ,57,5054117337352 ,45,4732464072029 ,74,6662324594595
21.1107838 ,Left ,57,5128418202944 ,45,3789368854846 ,74,6660514370881
21.1318782 ,Left ,57,5269365367842 ,45,2868963965239 ,74,6493642238972
21.1482445 ,Left ,57,5442421723854 ,45,2201757202924 ,74,6268192400321
21.1707124 ,Left ,57,5696680248619 ,45,181268414243 ,74,6135363731069
21.1915052 ,Left ,57,5858207178682 ,45,1667525093638 ,74,6193782420579
21.2080303 ,Left ,57,5981180738192 ,45,1389878953824 ,74,6324332748702
21.2305823 ,Left ,57,6208795875095 ,45,0749481665782 ,74,634143430812
21.2517997 ,Left ,57,5971335057462 ,45,0165127296174 ,74,6472487590552
21.2682307 ,Left ,57,5892340044464 ,44,9706858213294 ,74,6659570534197
21.2906443 ,Left ,57,59130707628 ,44,9643873102319 ,74,6920700116976
21.3119339 ,Left ,57,6046491940018 ,44,9860729060423 ,74,7069543149214
21.3282019 ,Left ,57,6444368122169 ,45,016979130633 ,74,7161407253455
21.3506638 ,Left ,57,680838132701 ,45,0292884252929 ,74,7204381666981
21.3732187 ,Left ,57,6875993240188 ,45,0365653546878 ,74,7187927602393
21.3881732 ,Left ,57,6871702921189 ,45,0534054730737 ,74,7262646145878
21.4107441 ,Left ,57,6801484860613 ,45,066286189746 ,74,7386957704901
21.4331732 ,Left ,57,6711084154867 ,45,0919066971515 ,74,7521627141664
21.4479844 ,Left ,57,6722899241429 ,45,1149115805885 ,74,7751608449776
21.4706672 ,Left ,57,6861892545436 ,45,1211447992899 ,74,7947670965325
21.4932084 ,Left ,57,692148770142 ,45,1235928726074 ,74,8014731437235
21.5073706 ,Left ,57,7061858898567 ,45,1222227721824 ,74,8055747456178
21.5306275 ,Left ,57,7168807952922 ,45,1271482932584 ,74,8070820791912
21.5606643 ,Left ,57,7259287930167 ,45,1294945990396 ,74,8140628748584
21.5675208 ,Left ,57,7448339198296 ,45,1304414474109 ,74,8189322350274
21.5906333 ,Left ,57,7544213983431 ,45,1278043048506 ,74,822540757812
21.6133678 ,Left ,57,7760515395366 ,45,1295299165298 ,74,8129201358776
21.6275063 ,Left ,57,7989528852078 ,45,1331600245378 ,74,8007127423785
21.6506576 ,Left ,57,8085873582063 ,45,1495892399321 ,74,7914563609422
21.6731777 ,Left ,57,8254063246271 ,45,1668782662315 ,74,7889668817252
21.6874652 ,Left ,57,8336277816634 ,45,1874519789145 ,74,78600083358
21.7106938 ,Left ,57,8344819705601 ,45,2042776496258 ,74,7760183160862
21.7331116 ,Left ,57,8308199895811 ,45,2163993657765 ,74,7680687672009
21.7474908 ,Left ,57,8267738557158 ,45,2333036566349 ,74,769474291416
21.7706271 ,Left ,57,8191332528491 ,45,2497752521114 ,74,7675088589609
21.793062 ,Left ,57,8194552806748 ,45,2660704494126 ,74,7544754829354
21.8075126 ,Left ,57,8105768214991 ,45,2860480212577 ,74,7380593870123
21.8305006 ,Left ,57,8040877831891 ,45,3110601953712 ,74,7194382108215
21.8530842 ,Left ,57,793183165549 ,45,3437114644621 ,74,7042364257529
21.8815642 ,Left ,57,7974897692196 ,45,370020978488 ,74,6957968228253
21.890413 ,Left ,57,7969820314597 ,45,3943750460018 ,74,6896409565825
21.9128212 ,Left ,57,8034307364319 ,45,405390667142 ,74,6738757429211
21.9341517 ,Left ,57,8006397477884 ,45,4111432060085 ,74,6507522270995
21.9507161 ,Left ,57,8059655262173 ,45,434015536208 ,74,6274650196332
21.9732683 ,Left ,57,8050111209283 ,45,4487577114883 ,74,620234732518
21.994342 ,Left ,57,8117448767488 ,45,4580518036942 ,74,6278789463526
22.0106714 ,Left ,57,8007704967193 ,45,4439910309521 ,74,6515044964632
22.0331144 ,Left ,57,8002005971826 ,45,4111057293615 ,74,6741847194898
22.0541281 ,Left ,57,7831366836024 ,45,3826394022763 ,74,6927706747048
22.0703874 ,Left ,57,7684414828319 ,45,3776153620369 ,74,7142671958729
22.0931356 ,Left ,57,765396805083 ,45,3937554326667 ,74,7304274050678
22.1155458 ,Left ,57,7902688068414 ,45,3947483199775 ,74,7301129288403
22.1307568 ,Left ,57,8083004793633 ,45,3819165666585 ,74,7158768354417
22.1604891 ,Left ,57,8151505732744 ,45,3660631962285 ,74,7089920948003
22.174128 ,Left ,57,8248952172675 ,45,3608761522925 ,74,7064371644848
22.1904423 ,Left ,57,8510792823326 ,45,3532032251159 ,74,6936080586704
22.2132471 ,Left ,57,8715373496183 ,45,3334805054306 ,74,6787943439737
22.2345336 ,Left ,57,8884535538524 ,45,3222421828551 ,74,6645733611536
22.2509721 ,Left ,57,8805030577615 ,45,3254522620355 ,74,6699846936578
22.2734525 ,Left ,57,8851002412586 ,45,3005778448266 ,74,6942005319596
22.2945554 ,Left ,57,8758008082234 ,45,2694158111538 ,74,7281375783412
22.3105732 ,Left ,57,8531794892568 ,45,2530098902467 ,74,7506097012128
22.33319 ,Left ,57,8158177941542 ,45,2150964466262 ,74,7516986958859
22.3555729 ,Left ,57,7841178343948 ,45,1908970985152 ,74,7608202907665
22.3705332 ,Left ,57,764674488268 ,45,1988299516824 ,74,7833747132992
22.3931169 ,Left ,57,7427742288019 ,45,2193800026642 ,74,8070143702922
22.4155996 ,Left ,57,7334530126864 ,45,2428780347541 ,74,8350989267341
22.4304598 ,Left ,57,7270039404021 ,45,2438751421937 ,74,8493517156494
22.4531971 ,Left ,57,7236156866497 ,45,228697940436 ,74,8474725521987
22.4831131 ,Left ,57,7219209241646 ,45,23012326185 ,74,8474713007644
22.4898219 ,Left ,57,7224846908165 ,45,2391889669073 ,74,8513982648294
22.5132063 ,Left ,57,7084764107718 ,45,2566729145348 ,74,863637499372
22.5356074 ,Left ,57,6849306681788 ,45,2593056463089 ,74,8970866048934
22.5501046 ,Left ,57,6825136656322 ,45,254402286817 ,74,9230310071804
22.5732772 ,Left ,57,6755861156727 ,45,242766609656 ,74,9419666790834
22.5957485 ,Left ,57,6594522257048 ,45,2562310530201 ,74,971358121425
22.6104322 ,Left ,57,6186754857708 ,45,3024907557852 ,74,9927044949767
22.6330237 ,Left ,57,6034154325722 ,45,3570993186168 ,75,0055181698348
22.6558026 ,Left ,57,6063720850474 ,45,4070557471764 ,75,0108922719764
22.6701048 ,Left ,57,5809676980866 ,45,4595245835745 ,75,0284136255795
22.6933683 ,Left ,57,551742849507 ,45,5078659511128 ,75,0510988089947
22.7156939 ,Left ,57,5450711619574 ,45,5584201900364 ,75,0674602297384
22.7301744 ,Left ,57,5281763994436 ,45,5879303774518 ,75,0480503331802
22.7608933 ,Left ,57,5103543798949 ,45,6105969849392 ,74,9982823939662
22.7756725 ,Left ,57,4875764017016 ,45,6089841606159 ,74,9662621315387
22.7901531 ,Left ,57,4529196072401 ,45,633804489243 ,74,962335089981
22.8130787 ,Left ,57,4456580764843 ,45,6593127007222 ,74,9878173384922
22.8357722 ,Left ,57,4512931079286 ,45,6750102082401 ,75,0048009894384
22.8568681 ,Left ,57,4482485845873 ,45,6751004382012 ,75,0045213380146
22.8731941 ,Left ,57,4497904580185 ,45,6806102275921 ,74,9934465727827
22.8956096 ,Left ,57,4637290181822 ,45,6959806004726 ,74,975843333637
22.9165944 ,Left ,57,4640395808011 ,45,707320430934 ,74,9330640880732
22.9333298 ,Left ,57,4566904312992 ,45,7020028107778 ,74,8847026617564
22.9553752 ,Left ,57,4501295605485 ,45,687632771878 ,74,8443254137752
22.9766975 ,Left ,57,4302945139537 ,45,6815646195297 ,74,824067444398
22.9930924 ,Left ,57,4288473200708 ,45,6768261049416 ,74,8263356647591
23.0156082 ,Left ,57,4204782006376 ,45,6361516301431 ,74,8241646444145
23.0367052 ,Left ,57,4253592369064 ,45,6031740600705 ,74,8182954950669
23.0532259 ,Left ,57,4463668040688 ,45,5749446824567 ,74,8086555282378
23.0756517 ,Left ,57,4601170457072 ,45,5583063360242 ,74,8170900850539
23.0965674 ,Left ,57,4640294953877 ,45,5659133188331 ,74,8387959233429
23.1131306 ,Left ,57,4701197829725 ,45,5997799348124 ,74,8576107699981
23.1355954 ,Left ,57,4660141029462 ,45,6452297172102 ,74,8649111441408
23.1567911 ,Left ,57,4498473431645 ,45,6766627603053 ,74,8607066942659
23.1733073 ,Left ,57,4241503956846 ,45,7028825324589 ,74,8432688059336
23.1955375 ,Left ,57,4069726098894 ,45,7141350168627 ,74,8221785327089
23.2182353 ,Left ,57,3860179735405 ,45,7202587719099 ,74,7915153721046
23.2331174 ,Left ,57,3739743716701 ,45,7171889801905 ,74,7578153541418
23.2556164 ,Left ,57,3445657722196 ,45,7067130406319 ,74,7391707969033
23.2779582 ,Left ,57,3103393291017 ,45,7137820914365 ,74,7365631241368
23.293075 ,Left ,57,310640340043 ,45,7234449981207 ,74,7317654811058
23.3155185 ,Left ,57,3157283573382 ,45,7332936996085 ,74,7187651586479
23.338174 ,Left ,57,3131699822847 ,45,7458987070744 ,74,7140007042217
23.3531667 ,Left ,57,3144392614106 ,45,7361001043623 ,74,7626175552596
23.3757233 ,Left ,57,3363609536441 ,45,7509805618816 ,74,8364862171923
23.3979797 ,Left ,57,3645897466033 ,45,7755667630571 ,74,8741632963234
23.4124718 ,Left ,57,3944712753918 ,45,7865087206686 ,74,8902084439532
23.4355475 ,Left ,57,4154342758331 ,45,790593062439 ,74,9074503595032
23.4581909 ,Left ,57,424192203171 ,45,7915763580219 ,74,9261061101587
23.4723638 ,Left ,57,4283870696685 ,45,7845011524107 ,74,9492854315592
23.4956889 ,Left ,57,438706976005 ,45,7762912768962 ,74,9583358049048
23.5182155 ,Left ,57,4633348488735 ,45,7763952345576 ,74,9668671065322
23.5322534 ,Left ,57,4875626336489 ,45,7771234245393 ,74,9666423629048
23.5554492 ,Left ,57,5144212622961 ,45,7693733765674 ,74,9598969137665
23.5781915 ,Left ,57,5284429183208 ,45,7580399105792 ,74,9513976646393
23.5928255 ,Left ,57,5327331653766 ,45,7481543451579 ,74,944857282759
23.6156634 ,Left ,57,5412730503779 ,45,7366249221405 ,74,9386068830163
23.6381835 ,Left ,57,5553230746323 ,45,7343442420234 ,74,9281596868689
23.652313 ,Left ,57,5653907037182 ,45,7400112844369 ,74,9151970077149
23.6756301 ,Left ,57,5702879244908 ,45,741829558942 ,74,8894761997434
23.6980877 ,Left ,57,5742513339017 ,45,7497964418559 ,74,8556087014795
23.712461 ,Left ,57,5687988063401 ,45,7765924586918 ,74,8286703722526
23.7357306 ,Left ,57,5596182955972 ,45,8261945155037 ,74,8070127587953
23.7580846 ,Left ,57,5634433601369 ,45,8510073271226 ,74,804445690809
23.780662 ,Left ,57,5634433601369 ,45,8510073271226 ,74,804445690809
23.7956371 ,Left ,57,5484454915401 ,45,8524335120128 ,74,7883153790755
23.8180865 ,Left ,57,5266954984583 ,45,8714986093507 ,74,7647361329262
23.839309 ,Left ,57,5128906464825 ,45,9051940847258 ,74,7379886667082
23.8555366 ,Left ,57,5118465283751 ,45,9275041802581 ,74,7112914540924
23.8781899 ,Left ,57,5138959386845 ,45,941618992236 ,74,6870357057833
23.8994234 ,Left ,57,5079218644571 ,45,9466704606585 ,74,6666019373423
23.9156021 ,Left ,57,4984100906035 ,45,945596580677 ,74,6421705462192
23.9382088 ,Left ,57,4841587048776 ,45,9479681834206 ,74,5973611758356
23.9593728 ,Left ,57,4726849385035 ,45,9529748978804 ,74,5532418115941
23.9756399 ,Left ,57,4606415034177 ,45,9119048330859 ,74,5413202760543
23.9980759 ,Left ,57,4616895973076 ,45,9126035379889 ,74,5444048507318
24.019479 ,Left ,57,4640146338739 ,45,9047424897327 ,74,5292609911187
24.0357026 ,Left ,57,4861634729798 ,45,8842479503577 ,74,5176414499526
24.0581729 ,Left ,57,5193137840518 ,45,8356801590095 ,74,5096702667423
24.079291 ,Left ,57,5309088620106 ,45,7644789598544 ,74,5026200475213
24.1016885 ,Left ,57,5448028564085 ,45,6855853469619 ,74,5037341734042
24.1179651 ,Left ,57,5582266436641 ,45,6176620820519 ,74,5119865628897
24.1466552 ,Left ,57,589566924776 ,45,563426452102 ,74,5090803856822
24.155669 ,Left ,57,6126439296519 ,45,5186389444186 ,74,5034901301118
24.1777785 ,Left ,57,6289669643832 ,45,4845517864729 ,74,5013355368316
24.1997458 ,Left ,57,6515732390616 ,45,4523252781566 ,74,5145718920337
24.2159965 ,Left ,57,6804855260794 ,45,4198222414086 ,74,5342508650489
24.2381049 ,Left ,57,6876850959899 ,45,3775297180672 ,74,5537543895614
24.2605558 ,Left ,57,6999140897635 ,45,3450199627616 ,74,5806787183072
24.2758997 ,Left ,57,691307186891 ,45,3085439632026 ,74,6140446588848
24.2986598 ,Left ,57,7045278484591 ,45,2945280544586 ,74,6519957788311
24.3209978 ,Left ,57,7178671793284 ,45,3182927150199 ,74,6704759281748
24.3352704 ,Left ,57,7305323095504 ,45,3545623773211 ,74,6785466897223
24.3583774 ,Left ,57,7424927043794 ,45,3839600586492 ,74,6858562815485
24.3811358 ,Left ,57,7402834942084 ,45,3903382746247 ,74,6892642602112
24.3949941 ,Left ,57,7402834942084 ,45,3903382746247 ,74,6892642602112
24.418257 ,Left ,57,7306815930222 ,45,3949789393878 ,74,6946755743413
24.4405925 ,Left ,57,7268051948588 ,45,4007109473968 ,74,6890445070137
24.4550499 ,Left ,57,7289402082006 ,45,4174323568002 ,74,6910605618301
24.478094 ,Left ,57,7358405348834 ,45,4210914031742 ,74,6980738508196
24.500738 ,Left ,57,7443578282649 ,45,4144129736405 ,74,7011420764061
24.5149392 ,Left ,57,7492857246674 ,45,4052291166196 ,74,691802309968
24.5380961 ,Left ,57,7582540821162 ,45,3985591039316 ,74,6714277969938
24.5606635 ,Left ,57,7751937070381 ,45,4006495875305 ,74,6440218737722
24.5748001 ,Left ,57,7943706220639 ,45,4018738025369 ,74,6197202218832
24.5981839 ,Left ,57,8257755819432 ,45,3864312515104 ,74,6153404737112
24.6205775 ,Left ,57,839011266175 ,45,3648214467244 ,74,6084173259829
24.6347781 ,Left ,57,8553533392626 ,45,3551206634072 ,74,6001754264688
24.6580503 ,Left ,57,8553533392626 ,45,3551206634072 ,74,6001754264688
24.6804635 ,Left ,57,8687483470554 ,45,3713004824278 ,74,6033635806615
24.7016539 ,Left ,57,87891838711 ,45,3846511874637 ,74,605957022506
24.7181085 ,Left ,57,892346138938 ,45,3922858018658 ,74,608249644
24.7404728 ,Left ,57,895990362033 ,45,3907091021525 ,74,6025889180509
24.7615565 ,Left ,57,8969313302063 ,45,3964074213614 ,74,5857299608013
24.7781127 ,Left ,57,8920346808893 ,45,4169182549263 ,74,5729334294733
24.8006001 ,Left ,57,8886812343788 ,45,4450931252171 ,74,5582751788626
24.8217186 ,Left ,57,887225637745 ,45,4751112602136 ,74,547022236404
24.8381539 ,Left ,57,8879942823606 ,45,4933056421314 ,74,5258577803466
24.8606376 ,Left ,57,8878999212713 ,45,496301493621 ,74,4969750838292
24.889185 ,Left ,57,8805629774085 ,45,5058596081763 ,74,4768881082984
24.8980293 ,Left ,57,8719013100771 ,45,5298226560502 ,74,455525150418
24.9210126 ,Left ,57,8729076561814 ,45,5592283864574 ,74,4416726952383
24.942295 ,Left ,57,8839141403286 ,45,581705285034 ,74,4252173789622
24.9584611 ,Left ,57,8978643274598 ,45,580403093911 ,74,4062043759895
24.9809878 ,Left ,57,8968763873352 ,45,572247463267 ,74,3876371653957
25.0025171 ,Left ,57,8937446687031 ,45,559869433773 ,74,362535670238
25.0186302 ,Left ,57,8917404504268 ,45,5496404105008 ,74,3523477738502
25.0406868 ,Left ,57,8674850451387 ,45,5500106471967 ,74,3643474465487
25.0619927 ,Left ,57,8518667688871 ,45,5441860104741 ,74,3823557277264
25.0782284 ,Left ,57,8447166795621 ,45,4922515781145 ,74,4015885496212
25.1006478 ,Left ,57,8575729666191 ,45,4003630756105 ,74,4241978178177
25.1219519 ,Left ,57,8583664364225 ,45,3293894241843 ,74,4394711030464
25.1384462 ,Left ,57,8506846664986 ,45,2995203471246 ,74,4499666896385
25.1606874 ,Left ,57,8738402171196 ,45,2956243272166 ,74,4576614952166
25.1831482 ,Left ,57,9214360668742 ,45,2907638112252 ,74,4793966575102
25.1980675 ,Left ,57,9508154458668 ,45,2850687090187 ,74,505156798488
25.2204755 ,Left ,57,971541834428 ,45,2776376599862 ,74,5210951164443
25.2431532 ,Left ,58,0073120029282 ,45,2646234212922 ,74,5350288765296
25.2580383 ,Left ,58,0213759876456 ,45,2567592519988 ,74,5473460387294
25.2805375 ,Left ,58,0420732942626 ,45,2577792884737 ,74,5643114686414
25.3030851 ,Left ,58,024017039022 ,45,2631615929443 ,74,5954199898635
25.3173411 ,Left ,58,0401876305793 ,45,2493911463366 ,74,6250004362514
25.3406064 ,Left ,58,0423740914962 ,45,2363896657492 ,74,6532230957374
25.3632969 ,Left ,58,0228209827965 ,45,2098147849222 ,74,6629453476401
25.377636 ,Left ,57,9945979869814 ,45,1998384696331 ,74,6499743022688
25.4005624 ,Left ,57,9833410377503 ,45,2018876085867 ,74,6372620907347
25.4232295 ,Left ,57,9828956239947 ,45,2083008673421 ,74,6290866774229
25.4375867 ,Left ,57,9779848955477 ,45,2134461176608 ,74,6203360654102
25.4606702 ,Left ,57,9695991627023 ,45,2175935034204 ,74,6110789917897
25.483118 ,Left ,57,9767785091836 ,45,2201101764667 ,74,6003208674727
25.4974292 ,Left ,57,9760220766319 ,45,2049069617712 ,74,5926362967722
25.5207771 ,Left ,57,9754291821688 ,45,1929644809778 ,74,5883184049849
25.5432781 ,Left ,57,967119642446 ,45,1745361735475 ,74,594247460411
25.5574871 ,Left ,57,9572026713608 ,45,1555162672098 ,74,5911508000308
25.5806339 ,Left ,57,9558321656205 ,45,1541730110252 ,74,59086972132
25.6031398 ,Left ,57,9590281815985 ,45,183187240532 ,74,6061803547277
25.6172909 ,Left ,57,9610139245464 ,45,2658968131288 ,74,6421505670289
25.6405635 ,Left ,57,9246130013563 ,45,3601203366233 ,74,6814673454372
25.6631272 ,Left ,57,8790269478243 ,45,4409456927072 ,74,7006276018249
25.6840547 ,Left ,57,8481229937967 ,45,5010953299757 ,74,710092749943
25.7010781 ,Left ,57,8064453354995 ,45,5448894163051 ,74,7165345785017
25.7235579 ,Left ,57,7704404257629 ,45,5829104105279 ,74,7170211307801
25.7447903 ,Left ,57,723811963736 ,45,6095140919505 ,74,7238548568376
25.7685414 ,Left ,57,6982045449618 ,45,6290113578974 ,74,7408760783699
25.7834879 ,Left ,57,6969348826036 ,45,6331548015627 ,74,7470996990741
25.804529 ,Left ,57,6769865702071 ,45,648627513539 ,74,7496795806717
25.8205945 ,Left ,57,6530376428509 ,45,6771367908134 ,74,7532257775857
25.8432078 ,Left ,57,6386154913281 ,45,694538414837 ,74,7595124679862
25.8640702 ,Left ,57,638220326364 ,45,7029174749723 ,74,7604223004107
25.8805592 ,Left ,57,6103196340726 ,45,7028771188282 ,74,7749916659828
25.9035354 ,Left ,57,6087318632478 ,45,6779784899311 ,74,8247972238783
25.9247614 ,Left ,57,602998684649 ,45,7122549782708 ,74,8662324865353
25.9410061 ,Left ,57,5698566457604 ,45,7674834507702 ,74,8952806880526
25.9635565 ,Left ,57,570191101736 ,45,8245572552461 ,74,9135140828293
25.9845551 ,Left ,57,5927729772875 ,45,8655277611939 ,74,9355530805657
26.0006694 ,Left ,57,5914287044064 ,45,8849251424406 ,74,9612156627676
26.0229826 ,Left ,57,607337101398 ,45,8957968292381 ,74,9790551736476
26.044196 ,Left ,57,6259419242903 ,45,9188422394624 ,74,9928588109658
26.0605954 ,Left ,57,6463237047216 ,45,9489491460182 ,74,9841575185571
26.0835686 ,Left ,57,662362980501 ,45,9945064499171 ,74,9593000861564
26.1060638 ,Left ,57,6862920178894 ,46,047859984933 ,74,9365791782869
26.1209718 ,Left ,57,6889176708547 ,46,0837321889239 ,74,9296907499667
26.1434472 ,Left ,57,699106689624 ,46,1004919123667 ,74,9242962002639
26.1657819 ,Left ,57,6934816212183 ,46,105580518353 ,74,9330541777757
26.1809259 ,Left ,57,6923286746266 ,46,1015253601938 ,74,9323807754317
26.2033898 ,Left ,57,6836391241573 ,46,0923794665847 ,74,9125297649918
26.2257731 ,Left ,57,6762518787027 ,46,0797411724852 ,74,8602079412914
26.2401549 ,Left ,57,6614358678579 ,46,0460764812816 ,74,7956314180731
26.2632961 ,Left ,57,6605794242975 ,46,0120894260052 ,74,753340457042
26.2859 ,Left ,57,6261262033126 ,45,9974626149888 ,74,7532057484695
26.3001187 ,Left ,57,6075670379089 ,45,9624359722234 ,74,7642470096482
26.3231963 ,Left ,57,6159560148461 ,45,9266290204013 ,74,7638123882372
26.3455141 ,Left ,57,603078492585 ,45,8912055797108 ,74,7522500069336
26.3667603 ,Left ,57,5871045250205 ,45,8614549592032 ,74,7410855670339
26.3832174 ,Left ,57,5950952167193 ,45,8396293936769 ,74,7423111393636
26.4055209 ,Left ,57,6107626629746 ,45,8103408389093 ,74,7494069121623
26.4196827 ,Left ,57,6358535523223 ,45,748069393023 ,74,7624672947463
26.4431557 ,Left ,57,6762695167557 ,45,6549836262608 ,74,7649686372992
26.4653934 ,Left ,57,7069172654861 ,45,5339385410208 ,74,7369237592989
26.4867295 ,Left ,57,7244957690109 ,45,4161639743546 ,74,6904927612539
26.5032349 ,Left ,57,7476511293019 ,45,314128955388 ,74,6553162189606
26.5256417 ,Left ,57,7952737650223 ,45,2596179828279 ,74,6335634113457
26.5468708 ,Left ,57,8303065265302 ,45,23073165506 ,74,6191925239481
26.5633066 ,Left ,57,8623659585191 ,45,2053774507447 ,74,6019766597271
26.5858296 ,Left ,57,9160603947728 ,45,1455667244841 ,74,6007393329903
26.6069525 ,Left ,57,9504801558538 ,45,0607145948927 ,74,592006165844
26.6231705 ,Left ,57,9507225040766 ,44,9725477827097 ,74,5945256419004
26.6456646 ,Left ,57,9452701054622 ,44,9374481894487 ,74,6199561787667
26.666451 ,Left ,57,9383116006931 ,44,9564235153803 ,74,6360654455712
26.6832002 ,Left ,57,9560545761926 ,44,9911896745206 ,74,650183747027
26.7055607 ,Left ,57,9817482441666 ,45,0198251777884 ,74,658626199433
26.7265884 ,Left ,57,9837217833272 ,45,0259884524294 ,74,6742360419567
26.7431943 ,Left ,57,9858775626801 ,45,0388834100467 ,74,6906397848197
26.7655466 ,Left ,57,9706955722501 ,45,0514063295963 ,74,7111950479551
26.7865718 ,Left ,57,9571872989967 ,45,0679769450659 ,74,7382665625198
26.8032583 ,Left ,57,9286464686857 ,45,1062676048894 ,74,7602557286552
26.8256781 ,Left ,57,9034834268335 ,45,145731196669 ,74,8004320995809
26.8465716 ,Left ,57,8910753172149 ,45,1830205293696 ,74,8416874981542
26.8632056 ,Left ,57,8820508547709 ,45,2145626064572 ,74,8826933340105
26.8855808 ,Left ,57,8878566818991 ,45,2160161284832 ,74,922029318298
26.9070103 ,Left ,57,8789469693251 ,45,2064471793197 ,74,9320537074763
26.9231214 ,Left ,57,888871697988 ,45,2009863005615 ,74,9354603153682
26.9453714 ,Left ,57,8985019308637 ,45,2088517830639 ,74,9254229726458
26.9666827 ,Left ,57,9101484572468 ,45,2231083485568 ,74,9014150289771
26.9831454 ,Left ,57,9256256227252 ,45,24412056962 ,74,8785901006754
27.0055001 ,Left ,57,9416872412002 ,45,2616205882828 ,74,8643709092059
27.0267595 ,Left ,57,9455818301739 ,45,264397563688 ,74,8472925456087
27.0432407 ,Left ,57,9617921970838 ,45,2497181823124 ,74,8295996232928
27.0661998 ,Left ,57,9704400576296 ,45,244426049449 ,74,8210421262592
27.0881985 ,Left ,57,9792436191621 ,45,2634899063583 ,74,8122839405107
27.1028074 ,Left ,57,9904888019512 ,45,2910843886454 ,74,7987931613271
27.1257327 ,Left ,57,9978015124592 ,45,3159441047437 ,74,7787754507601
27.1542914 ,Left ,57,9964104666809 ,45,3371891708488 ,74,7633112703126
27.1692604 ,Left ,57,9890019300189 ,45,3614863680936 ,74,7475888583194
27.1855981 ,Left ,57,9702228360373 ,45,3863792796792 ,74,7307214568763
27.2079566 ,Left ,57,9668475030943 ,45,3937742389279 ,74,7135029050219
27.2224023 ,Left ,57,9601429979353 ,45,386009535762 ,74,6941712493702
27.2456485 ,Left ,57,9493555133564 ,45,3776653622098 ,74,6714344829586
27.2680915 ,Left ,57,9411408384594 ,45,3741755096706 ,74,6524683007828
27.2826049 ,Left ,57,9272570013738 ,45,3764061851413 ,74,6394781617768
27.3056375 ,Left ,57,9243260100686 ,45,3619346475363 ,74,6345638911447
27.3282299 ,Left ,57,9281904983873 ,45,3407365721827 ,74,6443052828546
27.3423161 ,Left ,57,9199515459356 ,45,3241718961751 ,74,6651156494354
27.3656161 ,Left ,57,8897501685224 ,45,3136401219274 ,74,6990640097073
27.3887589 ,Left ,57,879368378694 ,45,3052980249832 ,74,7383935104587
27.402486 ,Left ,57,8788444652162 ,45,3017349697234 ,74,764485403022
27.4316941 ,Left ,57,8976434189593 ,45,2837611949848 ,74,7763106710553
27.4483401 ,Left ,57,9246043142762 ,45,257962007225 ,74,791000373739
27.4624368 ,Left ,57,9548869351502 ,45,2267770948243 ,74,7848793683175
27.4855535 ,Left ,57,993594578168 ,45,2047199570359 ,74,7657286745154
27.508256 ,Left ,58,0212775106636 ,45,1791514846196 ,74,7332074735904
27.5224748 ,Left ,58,0494985433655 ,45,1591913643986 ,74,7072543088446
27.5456172 ,Left ,58,0664433048322 ,45,1450792720311 ,74,6926663752589
27.5682589 ,Left ,58,0807090809369 ,45,1331602732345 ,74,6869031334209
27.5889245 ,Left ,58,0848029103527 ,45,1061924582318 ,74,6961525892381
27.6056093 ,Left ,58,0803275303515 ,45,0801967612848 ,74,7253817445627
27.628217 ,Left ,58,0890015507233 ,45,0556024326241 ,74,7532148471462
27.6492784 ,Left ,58,097254114012 ,45,0742241103766 ,74,7740001889907
27.6656393 ,Left ,58,0896874945598 ,45,0971294920382 ,74,7698016134314
27.6882372 ,Left ,58,1008435906843 ,45,1199661791966 ,74,7468059384067
27.7091539 ,Left ,58,0940780819834 ,45,1388578418572 ,74,7304045297162
27.7256717 ,Left ,58,0825216804035 ,45,1606281954201 ,74,7256950349805
27.7555501 ,Left ,58,0613202028688 ,45,1730408412569 ,74,7189430106342
27.7693563 ,Left ,58,0340181250468 ,45,1695635732656 ,74,7186649483218
27.7857879 ,Left ,58,0423155326617 ,45,1340354293819 ,74,733317428045
27.8079047 ,Left ,58,0225142043092 ,45,0922094845752 ,74,7415371408338
27.8296851 ,Left ,57,9973942159033 ,45,0857597030911 ,74,7590227322738
27.8460581 ,Left ,57,9773551627523 ,45,1089291422451 ,74,7773077015631
27.8685432 ,Left ,57,9764453710655 ,45,1744575252584 ,74,8020981028616
27.8897791 ,Left ,57,9800764401578 ,45,2471778921464 ,74,8312916659167
27.9060087 ,Left ,57,9633086626266 ,45,3058974828209 ,74,8508734124016
27.9280855 ,Left ,57,9561278419418 ,45,3550562794171 ,74,85566637927
27.9493227 ,Left ,57,9379525539204 ,45,4021001852284 ,74,8590298504223
27.9655511 ,Left ,57,9144867071694 ,45,4626766282609 ,74,854534856969
27.9882776 ,Left ,57,893025310902 ,45,4834688969024 ,74,8486244153473
28.0105896 ,Left ,57,8610752162671 ,45,4866714309128 ,74,8513351587377
28.0255832 ,Left ,57,8381623550133 ,45,4801915643902 ,74,8628415818235
28.048086 ,Left ,57,8208560126669 ,45,4824803569553 ,74,8730200108772
28.070617 ,Left ,57,8108508325578 ,45,4935306546893 ,74,8702108435617
28.0856012 ,Left ,57,7901639134559 ,45,503150249685 ,74,8631090097798
28.1080372 ,Left ,57,7917972207506 ,45,4997075179273 ,74,8540205965694
28.1316381 ,Left ,57,7825245277343 ,45,5062274226289 ,74,8744526995411
28.145279 ,Left ,57,7636289707076 ,45,5105784101586 ,74,9053750100501
28.1685672 ,Left ,57,756697072466 ,45,5338081001533 ,74,9279036118235
28.1909074 ,Left ,57,756380867571 ,45,5734638917363 ,74,9411798704882
28.2050567 ,Left ,57,7440568536992 ,45,6013109341852 ,74,9517994147536
28.233483 ,Left ,57,7357975318384 ,45,6121153661785 ,74,9668856287046
28.2505411 ,Left ,57,7569918360488 ,45,6071796453306 ,74,9894486871148
28.2648178 ,Left ,57,7506868469071 ,45,6073059706812 ,75,0124711793336
28.2722197 ,Left ,57,750651420892 ,45,6140942159576 ,75,031029048297
28.2935336 ,Left ,57,7582984059475 ,45,6263087286719 ,75,0391291333235
28.3160346 ,Left ,57,7591589878499 ,45,6373499229576 ,75,0523174579609
28.3323665 ,Left ,57,7427409016727 ,45,6603754327811 ,75,0708823625744
28.3536321 ,Left ,57,7350902437607 ,45,682953838148 ,75,0903706807055
28.3762779 ,Left ,57,7362956725204 ,45,7076833611124 ,75,0934380582228
28.3924645 ,Left ,57,7365034753976 ,45,7105800770886 ,75,0937386908322
28.4134037 ,Left ,57,7362469427027 ,45,7133211569978 ,75,0940478987434
28.4360715 ,Left ,57,7340897463265 ,45,7357962538475 ,75,0845216399765
28.4523703 ,Left ,57,7439488617528 ,45,7623413337832 ,75,068076596055
28.4734346 ,Left ,57,7434660993237 ,45,8014966010667 ,75,054823180068
28.4990686 ,Left ,57,7412243602245 ,45,828765665679 ,75,0312355715907
28.5123913 ,Left ,57,7569100588236 ,45,8423573206161 ,75,0023662482014
28.5334234 ,Left ,57,7686707137343 ,45,8600661700971 ,74,9528292918793
28.5559948 ,Left ,57,7636016958788 ,45,8774101031786 ,74,8895680048007
28.5724259 ,Left ,57,7531978966671 ,45,9081094459463 ,74,8421546871086
28.5933915 ,Left ,57,7565895563637 ,45,9460951701575 ,74,8033779618191
28.6162054 ,Left ,57,7474951141394 ,45,9647362431735 ,74,7694953674967
28.6326674 ,Left ,57,7395975010308 ,45,9534888645506 ,74,7232837123543
28.6540742 ,Left ,57,7211701092231 ,45,9200773009942 ,74,6934834609757
28.6763265 ,Left ,57,7014126920679 ,45,8938662830991 ,74,6967200980047
28.6925884 ,Left ,57,694596831744 ,45,8832541654551 ,74,7004264795961
28.7136 ,Left ,57,7112310806971 ,45,8650197957142 ,74,6972124022978
28.7359858 ,Left ,57,7510029616939 ,45,8192046270738 ,74,699140826354
28.7524317 ,Left ,57,8008258769278 ,45,7552428011639 ,74,6823509625277
28.7733454 ,Left ,57,8374594096226 ,45,6674932931395 ,74,6523937835171
28.7959219 ,Left ,57,8696796066149 ,45,5791752260001 ,74,6131365642813
28.8124582 ,Left ,57,9150188996179 ,45,4861987453509 ,74,5688852799796
28.8333349 ,Left ,57,9651542246353 ,45,4213943751004 ,74,531415530256
28.856083 ,Left ,58,0007359796511 ,45,3997174284903 ,74,5121268762249
28.8739072 ,Left ,58,0289273004898 ,45,404055695988 ,74,4922696753362
28.8935036 ,Left ,58,0577173264746 ,45,3618996123007 ,74,4814490754259
28.9163661 ,Left ,58,0549918252288 ,45,2907215384951 ,74,4960891598541
28.9343838 ,Left ,58,0604422565937 ,45,2382322231111 ,74,5316332192416
28.9537394 ,Left ,58,0431918886137 ,45,2547486433704 ,74,5758554229523
28.9761338 ,Left ,58,044101300422 ,45,2920190849695 ,74,6038652828477
28.9944041 ,Left ,58,061394763587 ,45,332140505986 ,74,6193013551547
29.0138016 ,Left ,58,0592933957642 ,45,3591435171245 ,74,6311633831174
29.0363271 ,Left ,58,0478639290195 ,45,3648143905432 ,74,6334779620453
29.0541921 ,Left ,58,0354282683004 ,45,3721648140414 ,74,6447961227633
29.0739353 ,Left ,58,0272947607068 ,45,3864282816928 ,74,6573696479746
29.0963137 ,Left ,58,0305500959752 ,45,4001000672045 ,74,6711287138287
29.1141516 ,Left ,58,0214524043636 ,45,410618283196 ,74,6861657837988
29.1339297 ,Left ,58,0248433144815 ,45,4117383761808 ,74,7043330405385
29.1558276 ,Left ,58,0275340580673 ,45,4009344897023 ,74,7181027352352
29.1785861 ,Left ,58,0213224042502 ,45,3996107889561 ,74,7290910446845
29.1933053 ,Left ,58,0273665890638 ,45,4105148812072 ,74,7369194108075
29.2159407 ,Left ,58,0219141716536 ,45,4225921486272 ,74,740704259432
29.2385873 ,Left ,58,0201002077532 ,45,4350673928937 ,74,7479153819366
29.2535047 ,Left ,58,0197825517454 ,45,4378135224647 ,74,7482235176727
29.2758689 ,Left ,58,0204181322219 ,45,4323211235566 ,74,7476074741639
29.298646 ,Left ,58,022845954918 ,45,4272254485164 ,74,7384729591065
29.3136833 ,Left ,58,0224945691115 ,45,4311244318614 ,74,7240866224675
29.3362363 ,Left ,58,0141142696459 ,45,4422285728658 ,74,7097236123198
29.3587164 ,Left ,58,004005102356 ,45,4532606054488 ,74,7069609317783
29.3737815 ,Left ,58,0050664858572 ,45,4573413504382 ,74,70757950818
29.3961787 ,Left ,58,0083370469673 ,45,4550707787857 ,74,7047386341617
29.4200049 ,Left ,58,0066299130788 ,45,4545062415572 ,74,6956567942112
29.4335805 ,Left ,57,9963559541876 ,45,4691926795526 ,74,6844685007753
29.4562274 ,Left ,57,9904380790404 ,45,489125451767 ,74,6685663388042
29.4785644 ,Left ,57,9934303100952 ,45,5030446779322 ,74,6529543600171
29.493599 ,Left ,57,9951737831737 ,45,5065426372822 ,74,6388933647454
29.5161304 ,Left ,57,9930833458121 ,45,4998380396969 ,74,6260869063003
29.5387594 ,Left ,58,0004728509027 ,45,4876272881693 ,74,6166395850409
29.5550012 ,Left ,58,0063926320509 ,45,4668485923894 ,74,6088296617297
29.5762404 ,Left ,58,0047368688415 ,45,4557512311252 ,74,5897323995042
29.5987617 ,Left ,58,0019850593595 ,45,4422048389941 ,74,5760280968118
29.6151334 ,Left ,58,0183511881627 ,45,4259998329552 ,74,5758839553353
29.6357016 ,Left ,58,0181639909018 ,45,395340703025 ,74,5780436807218
29.6584731 ,Left ,58,0029408897145 ,45,3633414850229 ,74,5872550202609
29.6748051 ,Left ,57,9881192162934 ,45,3478076273448 ,74,6161660575747
29.6959599 ,Left ,57,9667741857002 ,45,3526202784166 ,74,6497786317965
29.7185685 ,Left ,57,9780320269393 ,45,352568273514 ,74,6715833786701
29.7348147 ,Left ,58,0144862797599 ,45,3373140188515 ,74,6825841396165
29.7559889 ,Left ,58,0459326571543 ,45,3169011559756 ,74,6688842745509
29.7784578 ,Left ,58,0656266737888 ,45,2772206526475 ,74,6368594960724
29.7950389 ,Left ,58,0961246214836 ,45,2612999533399 ,74,6234994211404
29.8161353 ,Left ,58,1043699504059 ,45,2593944602206 ,74,6124191320907
29.8384269 ,Left ,58,0950659372971 ,45,2592768685842 ,74,6084429988475
29.8565198 ,Left ,58,0923004117429 ,45,2376679717286 ,74,6144566361652
29.8759483 ,Left ,58,0919387676979 ,45,1747135976774 ,74,6306947578137
29.8984825 ,Left ,58,105214058622 ,45,12740336153 ,74,6621550625266
29.916343 ,Left ,58,1015878079978 ,45,0956542623954 ,74,696672888883
29.9360889 ,Left ,58,0990297874386 ,45,1268442243227 ,74,7206771029921
29.9584744 ,Left ,58,0981857700331 ,45,1726580241526 ,74,7376762759982
29.9768727 ,Left ,58,0994539581636 ,45,2074780214066 ,74,7359024918319
29.9959759 ,Left ,58,0852844789996 ,45,2260045660126 ,74,7334792154085
30.0183127 ,Left ,58,0740523792227 ,45,2384137700225 ,74,7366658546592
30.0363237 ,Left ,58,0529571359427 ,45,2436730173156 ,74,7409202997486
30.0560174 ,Left ,58,0270135129011 ,45,2380891443363 ,74,743415002977
30.0785426 ,Left ,58,0066796731982 ,45,2221604917457 ,74,7572421797377
30.0963188 ,Left ,57,995706600515 ,45,1848585457073 ,74,7756131045981
30.1160864 ,Left ,57,9747884756162 ,45,1564456001628 ,74,7881291338166
30.1383665 ,Left ,57,9676407718336 ,45,1468216971217 ,74,8100710495307
30.1624886 ,Left ,57,9573516096722 ,45,1423862020733 ,74,8351963548143
30.1760563 ,Left ,57,940616633515 ,45,1795409615508 ,74,8375065557975
30.1984265 ,Left ,57,9278808066936 ,45,2388899088196 ,74,8367158651464
30.2163446 ,Left ,57,9356820051427 ,45,3018152833555 ,74,853378915698
30.2358988 ,Left ,57,939536232871 ,45,35359040813 ,74,8803686971202
30.2587738 ,Left ,57,9240550091321 ,45,3753259473848 ,74,8929647450622
30.2767142 ,Left ,57,8892273245812 ,45,3864666418236 ,74,8815350667876
30.2962582 ,Left ,57,8653063889345 ,45,4209400402339 ,74,8620319757023
30.3186441 ,Left ,57,8491272474904 ,45,4512290164437 ,74,8459597502196
30.3364552 ,Left ,57,8088370914907 ,45,4765603533104 ,74,8414593134045
30.3561766 ,Left ,57,7869544502123 ,45,4971538222411 ,74,8355508747638
30.3787178 ,Left ,57,7478900045196 ,45,516050453417 ,74,8452136445939
30.3966561 ,Left ,57,7177650015453 ,45,5434596460457 ,74,8597427455701
30.4161372 ,Left ,57,6967796763041 ,45,5569881782118 ,74,8708111772524
30.438733 ,Left ,57,7105849618219 ,45,5742634841488 ,74,8683599299931
30.4564626 ,Left ,57,6813180064971 ,45,5926071865198 ,74,8907725665452
30.4774894 ,Left ,57,6521268876703 ,45,6031471908724 ,74,9330099789206
30.4984125 ,Left ,57,6455841179624 ,45,6541580885082 ,74,9999256601789
30.5163169 ,Left ,57,6292824721238 ,45,7180842145912 ,75,0496314198772
30.5375474 ,Left ,57,6363944547986 ,45,7897893621006 ,75,0763293466763
30.5585383 ,Left ,57,6386970015623 ,45,8493000576095 ,75,0893847136733
30.5767032 ,Left ,57,6371800004629 ,45,8916667194775 ,75,0912240893311
30.5975878 ,Left ,57,6437813620407 ,45,9071517339491 ,75,0909181986278
30.6187021 ,Left ,57,6467996422056 ,45,9126892357545 ,75,0918611560451
30.6364446 ,Left ,57,6338918337505 ,45,9139518844972 ,75,0994029684638
30.6575512 ,Left ,57,6416906927555 ,45,9205323366864 ,75,1069675304613
30.6785442 ,Left ,57,6601340956926 ,45,9332426617961 ,75,1048255794044
30.6964871 ,Left ,57,6679857929563 ,45,9561789410784 ,75,1027042160453
30.7177178 ,Left ,57,6787009270247 ,46,0011777922553 ,75,1095230951524
30.7387802 ,Left ,57,693421058407 ,46,0424545124122 ,75,1076384459842
30.7566993 ,Left ,57,70317257758 ,46,0655036560047 ,75,0940253724546
30.7775067 ,Left ,57,7112021559361 ,46,0748337920224 ,75,0608466247691
30.7986534 ,Left ,57,6988757067473 ,46,0764429715355 ,75,021189287407
30.816564 ,Left ,57,7067527414901 ,46,0651700269839 ,74,9854071840663
30.8388739 ,Left ,57,7068938873656 ,46,0472982338494 ,74,9420341188731
30.8585292 ,Left ,57,7139465428828 ,46,032647867054 ,74,8794086897445
30.8766196 ,Left ,57,7147241263876 ,46,0174570147279 ,74,8190261825614
30.9051759 ,Left ,57,7256123710094 ,46,0079938402959 ,74,7694375498325
30.9183909 ,Left ,57,7333927985165 ,46,0008259458906 ,74,7227230408194
30.9362292 ,Left ,57,7237607155801 ,45,9841153483856 ,74,6815059659852
30.9588445 ,Left ,57,7276706447769 ,45,9458645623066 ,74,685872220082
30.9784243 ,Left ,57,735145374345 ,45,9136717476883 ,74,694370868715
30.9962999 ,Left ,57,7264494996212 ,45,9272988742792 ,74,68046091078
31.0189674 ,Left ,57,7321881753117 ,45,9548000419878 ,74,6729211812979
31.0400653 ,Left ,57,7552076195329 ,45,9362960195795 ,74,6762434600876
31.0563862 ,Left ,57,7654169950879 ,45,8665131283201 ,74,6978552225572
31.0789971 ,Left ,57,7635096924385 ,45,7776508220926 ,74,7042678451871
31.0990604 ,Left ,57,7690962461178 ,45,6878877718284 ,74,7028472608373
31.1168887 ,Left ,57,7790452541736 ,45,6089173642653 ,74,6975388712337
31.1393254 ,Left ,57,8018600474031 ,45,5571556942942 ,74,696883106108
31.1590573 ,Left ,57,8330735372704 ,45,5296933161993 ,74,6941816635972
31.1766355 ,Left ,57,8619572644464 ,45,5107848330525 ,74,6980636026417
31.1991665 ,Left ,57,8856147484064 ,45,4809067837828 ,74,7236091864542
31.218957 ,Left ,57,9071465576016 ,45,3937778269639 ,74,760089995502
31.2413371 ,Left ,57,9187823407633 ,45,2962752127928 ,74,8035863764057
31.2589465 ,Left ,57,9078529060528 ,45,2659431988786 ,74,8404979885603
31.2800952 ,Left ,57,8871583756466 ,45,2939573488635 ,74,8621802864709
31.3011519 ,Left ,57,9224182912666 ,45,3300431117734 ,74,8847784433544
31.3189234 ,Left ,57,9684815615871 ,45,3528959035479 ,74,9072426793938
31.3386827 ,Left ,57,9776964319222 ,45,3605521618658 ,74,921015445138
31.3565181 ,Left ,57,9887179780138 ,45,3591628308403 ,74,9250541131475
31.3790483 ,Left ,57,9750464859742 ,45,371865152617 ,74,9279203244734
31.3985182 ,Left ,57,9895599134465 ,45,3745335775659 ,74,9268753902243
31.4161754 ,Left ,57,9960835487039 ,45,38446494862 ,74,9258429149543
31.4387878 ,Left ,57,9948736686805 ,45,3860381204735 ,74,9258488407811
31.4600011 ,Left ,58,012176000347 ,45,3867209316704 ,74,9427988460492
31.4764965 ,Left ,58,0188067612428 ,45,3800814037406 ,74,9516412770793
31.4991752 ,Left ,58,0320237322878 ,45,3691634200593 ,74,9579314836868
31.5200485 ,Left ,58,0635075768389 ,45,3572209005524 ,74,9720733478519
31.536697 ,Left ,58,0865146309469 ,45,3425568729444 ,74,9641264280142
31.5590067 ,Left ,58,1133872224316 ,45,3358514951352 ,74,9425601650024
31.5801395 ,Left ,58,1346210661747 ,45,34902934367 ,74,9108907269656
31.5966517 ,Left ,58,1564468526613 ,45,3727812126543 ,74,8717259617595
31.6190303 ,Left ,58,1791285255187 ,45,4028173048467 ,74,8364895584389
31.6415373 ,Left ,58,188639686728 ,45,4318661390387 ,74,8233994196797
31.6567532 ,Left ,58,2021097625597 ,45,4534473476403 ,74,8099973916652
31.6789909 ,Left ,58,2045560304898 ,45,4670317046714 ,74,7912261581646
31.700097 ,Left ,58,1949818294986 ,45,4902105757749 ,74,7693516522922
31.716488 ,Left ,58,1874608862511 ,45,5212144764104 ,74,745728034034
31.7391944 ,Left ,58,1782749435613 ,45,5504360277251 ,74,7277406615157
31.7600527 ,Left ,58,1705643713078 ,45,5735087797079 ,74,7179193009304
31.781131 ,Left ,58,1483705420213 ,45,5887321051633 ,74,7054251507944
31.7992999 ,Left ,58,1362879591511 ,45,6029460412373 ,74,6851723194961
31.8293105 ,Left ,58,120131067861 ,45,6185251182871 ,74,670547858655
31.841125 ,Left ,58,1112120072416 ,45,6245344611449 ,74,6702547681539
31.8590274 ,Left ,58,0910689679934 ,45,617123971528 ,74,6845001203711
31.8815054 ,Left ,58,0634208631886 ,45,589123163627 ,74,7070470499206
31.9019603 ,Left ,58,0504108436681 ,45,5602144392436 ,74,7372240793027
31.918204 ,Left ,58,018311548508 ,45,5169908616328 ,74,7753165753837
31.9406072 ,Left ,58,0008633339311 ,45,4632714777025 ,74,8022817963129
31.9620162 ,Left ,57,9652964247252 ,45,4334554772079 ,74,8508887419259
31.9782799 ,Left ,57,9510481592305 ,45,431548760337 ,74,8994345236506
32.000732 ,Left ,57,9533559716389 ,45,45520684522 ,74,9469327792568
32.021965 ,Left ,57,9679203414349 ,45,4753672324028 ,74,9777443945459
32.0382098 ,Left ,57,9945752225698 ,45,4791756649679 ,74,9931540025464
32.0607099 ,Left ,58,0132179098358 ,45,4696382077788 ,74,9823958871069
32.0816767 ,Left ,58,0499656137898 ,45,4407291155996 ,74,9564727378055
32.0984501 ,Left ,58,0878978954028 ,45,4108342393386 ,74,9276914588146
32.1206752 ,Left ,58,0910352491743 ,45,385203960322 ,74,9160218503666
32.141943 ,Left ,58,0977608048362 ,45,3643510325888 ,74,9232835362434
32.1582932 ,Left ,58,118684005584 ,45,3059520124472 ,74,9128896329842
32.1806745 ,Left ,58,1247191506054 ,45,2464546775599 ,74,9364551514152
32.2017688 ,Left ,58,1437989894166 ,45,1831981723925 ,74,9730983721296
32.2183748 ,Left ,58,1624496875595 ,45,1658063404943 ,75,0032184337766
32.2407551 ,Left ,58,1762233873632 ,45,176110604716 ,75,0059340068168
32.2620456 ,Left ,58,212340042774 ,45,1882059602865 ,74,9815797655458
32.278195 ,Left ,58,2094144286584 ,45,1766777706765 ,74,9499279037803
32.3006601 ,Left ,58,1958506395129 ,45,1834364366778 ,74,9312701226526
32.3216904 ,Left ,58,1720921141997 ,45,1837016565614 ,74,9285599110088
32.3382224 ,Left ,58,1507313902637 ,45,1773282954182 ,74,9284148707752
32.3606454 ,Left ,58,1489627410302 ,45,1560419011158 ,74,9437533887928
32.3829706 ,Left ,58,1230687943095 ,45,1397013187981 ,74,9659513634069
32.398553 ,Left ,58,0808031549541 ,45,1238013196194 ,74,995371321185
32.4295237 ,Left ,58,0527689221171 ,45,1332802692571 ,75,0352384852304
32.4423895 ,Left ,58,0132451059871 ,45,1815710385448 ,75,0541547325171
32.4584728 ,Left ,57,9977415692082 ,45,2553328046733 ,75,0544923945382
32.480926 ,Left ,57,9782544464301 ,45,330491534043 ,75,0606614141257
32.5021927 ,Left ,57,9740814735722 ,45,3845097449993 ,75,0691918520737
32.5181233 ,Left ,57,9426245002957 ,45,4100699782713 ,75,0685575951823
32.540798 ,Left ,57,918525487949 ,45,4460429156714 ,75,0608578116651
32.5621612 ,Left ,57,887301943199 ,45,4695561695775 ,75,0747881536025
32.578497 ,Left ,57,8571591318616 ,45,4871512760638 ,75,1001446270992
32.6009785 ,Left ,57,8450693135038 ,45,5124647063106 ,75,1374109724847
32.6221125 ,Left ,57,8450554159015 ,45,541534802065 ,75,1644807387435
32.6383796 ,Left ,57,840252263023 ,45,551239899185 ,75,1711163969062
32.6612736 ,Left ,57,8395525394473 ,45,5620582147943 ,75,1691333252039
32.6820219 ,Left ,57,8484378725604 ,45,5947591813738 ,75,1680197913709
32.698202 ,Left ,57,836694754955 ,45,6496486969861 ,75,1789321195246
32.7209679 ,Left ,57,8299442081545 ,45,7187554467752 ,75,2069872392951
32.7433118 ,Left ,57,8311954084337 ,45,7527209237993 ,75,2529779386968
32.758212 ,Left ,57,798754020005 ,45,8240823369473 ,75,2931332521728
32.7807638 ,Left ,57,7466921789099 ,45,8941626998961 ,75,3068578235747
32.8033649 ,Left ,57,7203031352008 ,45,9318451057849 ,75,3140585810521
32.8181963 ,Left ,57,7228610054619 ,45,9537087846091 ,75,3230140342096
32.8407198 ,Left ,57,7261308324026 ,45,9508621371229 ,75,3230071806682
32.8632375 ,Left ,57,7181217329184 ,45,9366440686354 ,75,3292937216898
32.8775371 ,Left ,57,7181217329184 ,45,9366440686354 ,75,3292937216898
32.9007474 ,Left ,57,7386471432816 ,45,9597396773969 ,75,3256580402926
32.9232439 ,Left ,57,7659548092918 ,45,99040137639 ,75,3181157448077
32.9379971 ,Left ,57,7814205576408 ,46,0182721368503 ,75,3118184077835
32.9607074 ,Left ,57,7940069031314 ,46,0513703260386 ,75,308723365285
32.9832651 ,Left ,57,8113398647173 ,46,0807146799276 ,75,3028751163193
32.9975765 ,Left ,57,8273464397779 ,46,1013279613432 ,75,2868353720372
33.0208404 ,Left ,57,8326497838478 ,46,1162686543684 ,75,2598952226798
33.0431436 ,Left ,57,8258231486417 ,46,1125903297935 ,75,2138642629595
33.0575799 ,Left ,57,8158584214056 ,46,0895911013426 ,75,1591536047402
33.0806908 ,Left ,57,8175669969718 ,46,0630777120642 ,75,1056083214872
33.1033431 ,Left ,57,8256499312727 ,46,0285155753062 ,75,0489996479237
33.1175355 ,Left ,57,8177997181773 ,45,9940244145036 ,75,0052050352789
33.1407104 ,Left ,57,8378747595239 ,45,9675848191131 ,74,9542824002502
33.1632875 ,Left ,57,8113682392753 ,45,9141243794725 ,74,9087982007262
33.1774586 ,Left ,57,8178715445235 ,45,9296360120845 ,74,9086444454584
33.2006887 ,Left ,57,814676908659 ,45,9572821605238 ,74,9235816500024
33.2235383 ,Left ,57,8556100504505 ,45,9519686378893 ,74,9398570609699
33.2445206 ,Left ,57,8902887987953 ,45,8987095780571 ,74,9550293461634
33.2609717 ,Left ,57,9077477934589 ,45,806215248629 ,74,9572547748251
33.2834745 ,Left ,57,9055092456091 ,45,7002156424153 ,74,9350241714914
33.3044863 ,Left ,57,9016202173163 ,45,6048274770407 ,74,9052909450723
33.3208825 ,Left ,57,9190454107288 ,45,5299768020985 ,74,8540517373992
33.3430219 ,Left ,57,9432930492011 ,45,4596281388365 ,74,795334479544
33.3642802 ,Left ,57,9603130909278 ,45,4097201882181 ,74,7529978059938
33.3806834 ,Left ,57,98586652866 ,45,3786955533447 ,74,7256189139205
33.4033394 ,Left ,57,9947231704646 ,45,3572207767421 ,74,7299947353384
33.4242815 ,Left ,58,0141392209111 ,45,2899722765659 ,74,7272619681919
33.4400022 ,Left ,58,0276311606889 ,45,1770513637283 ,74,7573436759415
33.4634513 ,Left ,58,0372586926629 ,45,1184807999098 ,74,8052850014106
33.4916791 ,Left ,58,0527882496808 ,45,1255111495089 ,74,8314881736696
33.4999827 ,Left ,58,0706420598661 ,45,1573534141044 ,74,839847447855
33.52341 ,Left ,58,1012338555755 ,45,1938681660075 ,74,844329566952
33.5445208 ,Left ,58,1044089457444 ,45,2115206047029 ,74,8527048006615
33.5608096 ,Left ,58,0979582964827 ,45,2263275301431 ,74,8744705717081
33.5833376 ,Left ,58,0930300699439 ,45,2333463484944 ,74,8984855391156
33.604024 ,Left ,58,0707536886266 ,45,2425456199696 ,74,9150113511491
33.6204373 ,Left ,58,0416297991663 ,45,2641848523053 ,74,941018497939
33.6432337 ,Left ,58,0315060524008 ,45,2816075563703 ,74,9865329049037
33.6657897 ,Left ,58,0050977135968 ,45,3015502974786 ,75,0245735001868
33.6804971 ,Left ,58,0072759836839 ,45,3211931750581 ,75,0538921806171
33.7032057 ,Left ,58,0045352041391 ,45,3330658004239 ,75,0579500823883
