timestamp,event,roll,pitch,yaw
0.0241876 ,Left ,60,6862274183333 ,50,1408800606914 ,65,9284752566691
0.0470869 ,Left ,60,6667562435891 ,50,1402317603552 ,65,9267412577772
0.0843068 ,Left ,60,6518749902412 ,50,1475006354068 ,65,9145320168322
0.1069001 ,Left ,60,6345142462256 ,50,1514901872455 ,65,9102444962295
0.144461 ,Left ,60,6212794186583 ,50,1836665538733 ,65,9074227614379
0.1676673 ,Left ,60,6198623612739 ,50,195036421785 ,65,9041337644114
0.2051859 ,Left ,60,5938251409893 ,50,2192580174998 ,65,9072756309232
0.2273495 ,Left ,60,5855450786935 ,50,2333435049365 ,65,9084705366088
0.2646033 ,Left ,60,5793806167467 ,50,2573025297774 ,65,8943319988676
0.2867826 ,Left ,60,5785113357391 ,50,2597922012933 ,65,8949905746981
0.3244872 ,Left ,60,5806706776161 ,50,2630215612898 ,65,8966511966737
0.35435 ,Left ,60,5784601592652 ,50,2754615189197 ,65,8982465830779
0.3919872 ,Left ,60,599419291814 ,50,3132156874107 ,65,899333235391
0.4070086 ,Left ,60,6002504501711 ,50,3153794768111 ,65,8978247521873
0.4447002 ,Left ,60,6167531104689 ,50,3249044185697 ,65,9069739623664
0.4670852 ,Left ,60,617145496405 ,50,3188621415577 ,65,9024654068656
0.5046147 ,Left ,60,5716593390776 ,50,390913944044 ,65,8744129753087
0.5270977 ,Left ,60,5344383107948 ,50,4691149074233 ,65,8826392203084
0.5645427 ,Left ,60,427259718905 ,50,5764260527834 ,65,9030723073836
0.5869762 ,Left ,60,3311536927989 ,50,6021066675495 ,65,9110464443311
0.6244436 ,Left ,60,2520503634242 ,50,6055624315961 ,65,8895318299625
0.647509 ,Left ,60,2670666972509 ,50,5920944623804 ,65,8622770892071
0.6775663 ,Left ,60,2388773531099 ,50,5198793147755 ,65,778521768224
0.707472 ,Left ,60,1768944708753 ,50,4607241875234 ,65,732462473294
0.7447756 ,Left ,60,0690712475896 ,50,4080633585039 ,65,705736616321
0.767277 ,Left ,60,0746704557532 ,50,4302377403366 ,65,7210793811202
0.8046 ,Left ,60,2991706806839 ,50,5611577079505 ,65,7465418159018
0.8271255 ,Left ,60,2868065565759 ,50,5915608407095 ,65,7175451411344
0.8648926 ,Left ,60,2573365688684 ,50,5533486006937 ,65,7447107215326
0.8871758 ,Left ,60,1974629655661 ,50,5697942171605 ,65,7363929789488
0.9243756 ,Left ,60,2565198401813 ,50,5682522889621 ,65,6872061699691
0.9472987 ,Left ,60,348856456072 ,50,590772928229 ,65,6944272376275
0.9843299 ,Left ,60,4390955917387 ,50,7256131507558 ,65,7435598114573
1.0068534 ,Left ,60,4745969215056 ,50,7639539949927 ,65,7690779501789
1.04497 ,Left ,60,400771873649 ,50,7769313786376 ,65,7932549702009
1.067089 ,Left ,60,3482069874107 ,50,7600211811133 ,65,7743061094109
1.0819911 ,Left ,60,3455534449546 ,50,7150296308914 ,65,7345684147554
1.0969204 ,Left ,60,3271792691156 ,50,7368900018058 ,65,6992223443062
1.1194772 ,Left ,60,2068973365815 ,50,851183298527 ,65,6449893140257
1.1427743 ,Left ,60,093427146631 ,50,9716694997401 ,65,5845847139424
1.1650917 ,Left ,60,034226610625 ,51,0367991928946 ,65,5511014441652
1.1868228 ,Left ,60,0459199977853 ,51,0577935092286 ,65,5306751246333
1.2095602 ,Left ,60,0497543849232 ,51,0641380955992 ,65,5105246279604
1.23948 ,Left ,60,0863902988222 ,51,0509839561464 ,65,4767528154682
1.261847 ,Left ,60,0592829701512 ,50,9956914676003 ,65,4547800778926
1.2769354 ,Left ,60,0145097291126 ,50,9068766613149 ,65,4339073850027
1.2994666 ,Left ,59,9908989126445 ,50,8063792391149 ,65,4228066412151
1.3220706 ,Left ,59,9792774744901 ,50,7031416055458 ,65,4088732834309
1.3368933 ,Left ,59,9191934125115 ,50,6206871071291 ,65,3953308698263
1.3596809 ,Left ,59,8383085270989 ,50,5750018092978 ,65,411303963735
1.3818375 ,Left ,59,8152758176007 ,50,5587177257084 ,65,4336146244346
1.3971071 ,Left ,59,8239661964772 ,50,5648020436936 ,65,4509210951559
1.4195139 ,Left ,59,8744713280404 ,50,5844896151954 ,65,4437619580241
1.4420364 ,Left ,59,998519071463 ,50,5885119596978 ,65,454903348947
1.4642779 ,Left ,60,1139337915333 ,50,5587920023516 ,65,4667393693173
1.4793185 ,Left ,60,2039853597056 ,50,5001712144827 ,65,4733115994291
1.5017128 ,Left ,60,2570856247601 ,50,4503229805101 ,65,4548538539549
1.5251499 ,Left ,60,2276675958777 ,50,4603132555332 ,65,4297040139025
1.5396503 ,Left ,60,2139020264091 ,50,5144360060702 ,65,4130636218482
1.5618221 ,Left ,60,2362315070794 ,50,5379280947406 ,65,4278553102289
1.5844282 ,Left ,60,2509745391219 ,50,4820918944712 ,65,4185134221797
1.599623 ,Left ,60,2726026033072 ,50,4299760580351 ,65,3862344018642
1.6218124 ,Left ,60,2205624746957 ,50,392271380648 ,65,3868617936745
1.644299 ,Left ,60,1917169138051 ,50,3915130709461 ,65,4203410783053
1.6596419 ,Left ,60,2333192502531 ,50,4096414631161 ,65,455167440517
1.6819362 ,Left ,60,3176551998925 ,50,4149095908432 ,65,4823489436343
1.7043046 ,Left ,60,4306933105697 ,50,4059660655799 ,65,4820373315469
1.7192936 ,Left ,60,4228158836088 ,50,387186582913 ,65,4809791050621
1.749536 ,Left ,60,4079480448311 ,50,3789658004672 ,65,4868250714412
1.7717916 ,Left ,60,3863919033037 ,50,3692247541434 ,65,5096713388617
1.7869653 ,Left ,60,3706842130965 ,50,3519610515865 ,65,5239839945386
1.8018563 ,Left ,60,3590501845533 ,50,3422872741926 ,65,5274269397769
1.8247251 ,Left ,60,3209394433493 ,50,3481743610805 ,65,5293230303773
1.8394083 ,Left ,60,2741749714801 ,50,3515296719789 ,65,5171079199271
1.862772 ,Left ,60,2429250097938 ,50,3561123670971 ,65,5104104224334
1.8842825 ,Left ,60,2220837862504 ,50,359639818223 ,65,5123913730735
1.8993326 ,Left ,60,2022028459875 ,50,3727425456272 ,65,517574606504
1.9218858 ,Left ,60,1910688305274 ,50,3702533545941 ,65,5146358879321
1.9443157 ,Left ,60,1826745191603 ,50,3589255494623 ,65,5140010265038
1.9594686 ,Left ,60,1735324855549 ,50,3575017584922 ,65,5187248066429
1.9818053 ,Left ,60,1694086968657 ,50,3647745804052 ,65,5251194493619
2.0042836 ,Left ,60,1654215804011 ,50,3843863314445 ,65,5218019517902
2.019343 ,Left ,60,16893452098 ,50,407676068712 ,65,5234235085408
2.0417926 ,Left ,60,1655885296916 ,50,4286152170417 ,65,5204462997547
2.0643565 ,Left ,60,1593282093905 ,50,4441242713045 ,65,5173929917431
2.0793756 ,Left ,60,1607562479913 ,50,4575678248709 ,65,5108458967118
2.102094 ,Left ,60,1606060593471 ,50,4635813833842 ,65,5057633570971
2.1245012 ,Left ,60,1582792180152 ,50,4658755735933 ,65,5108927427691
2.1394413 ,Left ,60,1479411525056 ,50,4919505991915 ,65,5175401550956
2.162001 ,Left ,60,1300351885182 ,50,5322470525064 ,65,5163012295777
2.1844226 ,Left ,60,1060642351481 ,50,5690432458453 ,65,5056038068509
2.1995017 ,Left ,60,066346865142 ,50,5913916292624 ,65,5009051693387
2.2222932 ,Left ,60,0268698820692 ,50,5451029972467 ,65,5079396404592
2.2451804 ,Left ,60,0224109964252 ,50,514171791206 ,65,5106366400975
2.2599408 ,Left ,60,0188635626507 ,50,5554628544524 ,65,5097860052663
2.2822437 ,Left ,60,0561736879531 ,50,595398256316 ,65,484318192762
2.3050402 ,Left ,60,1190031864468 ,50,5646409110791 ,65,4533523759024
2.3197027 ,Left ,60,1355537007575 ,50,4876329662838 ,65,4515800068089
2.3421346 ,Left ,60,0871570744912 ,50,4622878434994 ,65,4500340704967
2.3644125 ,Left ,59,9675364834182 ,50,4902077156657 ,65,4209419412061
2.3869162 ,Left ,59,9249747552244 ,50,5443094717147 ,65,384776839969
2.4018051 ,Left ,60,0031306214124 ,50,6004644716685 ,65,3490659220162
2.4243194 ,Left ,60,0919631851385 ,50,5868108420553 ,65,3704691407305
2.4467921 ,Left ,60,1475391992404 ,50,5737681331482 ,65,3953677546238
2.4618376 ,Left ,60,1253535020874 ,50,5741770245625 ,65,3866552738637
2.4848049 ,Left ,60,15753390231 ,50,5393636122257 ,65,3624075237823
2.5071783 ,Left ,60,174748052554 ,50,5305202816248 ,65,3559045110616
2.5223894 ,Left ,60,1225244719355 ,50,58666417793 ,65,3373056416923
2.5446355 ,Left ,60,1118759464784 ,50,6453764252937 ,65,3365804903622
2.5676096 ,Left ,60,178093630829 ,50,6865132233771 ,65,340392805854
2.5823405 ,Left ,60,250356979153 ,50,7143283552867 ,65,3755734914913
2.6049332 ,Left ,60,2650314649385 ,50,755551472473 ,65,3973392221112
2.6275444 ,Left ,60,2200467111171 ,50,7919349864283 ,65,4216389146755
2.6423431 ,Left ,60,1693446262324 ,50,8207974406395 ,65,4489229286309
2.6645632 ,Left ,60,1515690511156 ,50,8573286465738 ,65,4810448034973
2.6871243 ,Left ,60,1296913056422 ,50,8987612961772 ,65,4679251881605
2.7018469 ,Left ,60,1094137551249 ,50,9106973591391 ,65,4496118977336
2.7244075 ,Left ,60,1443810382736 ,50,8565888230383 ,65,4586240790036
2.7470266 ,Left ,60,1668350552897 ,50,7796943864877 ,65,4530858703226
2.7618206 ,Left ,60,0911986000968 ,50,7779751762062 ,65,448781891655
2.7843921 ,Left ,59,9348266720298 ,50,8769661223012 ,65,4376863738374
2.8070225 ,Left ,59,9069668770137 ,50,9727125746614 ,65,4095137800764
2.8221628 ,Left ,59,9675195135044 ,51,0253068898306 ,65,3773285494575
2.8518456 ,Left ,60,0013494931649 ,51,0316603689235 ,65,3355241664914
2.8818 ,Left ,59,9272361453664 ,50,9836030977749 ,65,3093358424318
2.8969948 ,Left ,59,8784227047636 ,50,9117816496766 ,65,3008346565417
2.9118435 ,Left ,59,8432138197172 ,50,8435375940283 ,65,2939193943503
2.9418468 ,Left ,59,7609182880216 ,50,6512937166483 ,65,247365653464
2.9644267 ,Left ,59,7615424163903 ,50,5448827842838 ,65,279551205386
2.9872305 ,Left ,59,7472928722027 ,50,5490508306852 ,65,3032932504718
3.0018404 ,Left ,59,7872381875148 ,50,6068346469515 ,65,3179247899061
3.02466 ,Left ,59,8941971759507 ,50,6331762387486 ,65,3372860464661
3.0470374 ,Left ,60,0028306569914 ,50,5822750752675 ,65,3363877933
3.0695496 ,Left ,60,0868507747659 ,50,4981283865597 ,65,3099671867009
3.0843941 ,Left ,60,1047056484711 ,50,5111472707378 ,65,2830546103133
3.1070566 ,Left ,60,0972484589288 ,50,5743348382394 ,65,2501492495061
3.121985 ,Left ,60,1375488158685 ,50,5920657462317 ,65,2316422018089
3.151875 ,Left ,60,1495180928244 ,50,5384769580866 ,65,1997270830947
3.174489 ,Left ,60,1460818928547 ,50,4796549186239 ,65,1859749724389
3.1971482 ,Left ,60,1373264559732 ,50,4836757806067 ,65,2017963374461
3.2121112 ,Left ,60,1308519447653 ,50,5680123680249 ,65,2383754057985
3.2269686 ,Left ,60,1734615799415 ,50,6388974140345 ,65,2795410582138
3.2418223 ,Left ,60,2300207981885 ,50,636899995464 ,65,3036440015673
3.2643524 ,Left ,60,2773246759434 ,50,6212456867395 ,65,3051126657437
3.2870438 ,Left ,60,2825378988644 ,50,5870715388476 ,65,2942832222746
3.3019213 ,Left ,60,2920850208168 ,50,5308770490138 ,65,2815212054081
3.3244915 ,Left ,60,314728345109 ,50,4810715236476 ,65,2711328312333
3.3470105 ,Left ,60,3185004709388 ,50,4546191979191 ,65,2672604755856
3.3621874 ,Left ,60,2952330791424 ,50,4445691184292 ,65,2571750735522
3.3846922 ,Left ,60,2425438218529 ,50,4289007419097 ,65,2534438733488
3.4072655 ,Left ,60,2001598323093 ,50,4081411723473 ,65,2570307576795
3.4297008 ,Left ,60,1887628853027 ,50,369886607116 ,65,2788466522125
3.4447842 ,Left ,60,2114608567454 ,50,3395905094958 ,65,3005015489754
3.4668775 ,Left ,60,2388262545571 ,50,3286717773257 ,65,3178641114024
3.4900913 ,Left ,60,2555887610366 ,50,3209732861724 ,65,3300562184876
3.5049372 ,Left ,60,253169768662 ,50,3058724382598 ,65,3357783644752
3.5269209 ,Left ,60,256495242693 ,50,2928832945336 ,65,3411223077653
3.5494248 ,Left ,60,2661529495892 ,50,3039780175132 ,65,3490587238646
3.5642551 ,Left ,60,288572689988 ,50,3269298282526 ,65,3425429371149
3.5868897 ,Left ,60,2823120372941 ,50,3339588488357 ,65,3255132852679
3.6096246 ,Left ,60,2920297628572 ,50,3293913539506 ,65,3164441764971
3.6244174 ,Left ,60,2963706343981 ,50,3262917352723 ,65,3115081992662
3.6468024 ,Left ,60,3207117909994 ,50,3327711314866 ,65,3115706029288
3.6770576 ,Left ,60,3361118909824 ,50,3267241677439 ,65,3123142816119
3.6926708 ,Left ,60,3485178629675 ,50,3198879436507 ,65,3120775187887
3.7152625 ,Left ,60,3485178629675 ,50,3198879436507 ,65,3120775187887
3.7448968 ,Left ,60,3746776521482 ,50,3422234635764 ,65,3153324717048
3.7674705 ,Left ,60,3877960193074 ,50,3526933418947 ,65,3190661866775
3.7895499 ,Left ,60,3751245596642 ,50,3513027737627 ,65,3163907790913
3.8044008 ,Left ,60,3482045141221 ,50,3512303039346 ,65,3088864075152
3.8271351 ,Left ,60,329195547927 ,50,3532664598062 ,65,2993780785463
3.8495115 ,Left ,60,3241930389838 ,50,3528149159168 ,65,2866166290579
3.8719199 ,Left ,60,3239595663789 ,50,3514645558604 ,65,2768538735313
3.8945789 ,Left ,60,308380437844 ,50,3547574936734 ,65,2705049917733
3.9169024 ,Left ,60,2864490052039 ,50,3545837313134 ,65,2642033912508
3.9318943 ,Left ,60,2717718649439 ,50,3504098890552 ,65,2715581700997
3.946835 ,Left ,60,2790178061153 ,50,3464124406236 ,65,2852054693409
3.9693365 ,Left ,60,2993424310381 ,50,344118095634 ,65,3019782636356
3.9843282 ,Left ,60,312399921411 ,50,3408361177636 ,65,3194390098101
4.0070258 ,Left ,60,3070198599403 ,50,3422990162955 ,65,3235679689074
4.0299554 ,Left ,60,2906639213102 ,50,3522139253177 ,65,3192909779493
4.0448421 ,Left ,60,2829418582318 ,50,3677887251662 ,65,3072974282884
4.0676099 ,Left ,60,2753841827705 ,50,375609527124 ,65,2945926620746
4.0899603 ,Left ,60,2679406664029 ,50,3787679535233 ,65,2827770037988
4.1045884 ,Left ,60,2411997103481 ,50,3827673673654 ,65,276761704277
4.127456 ,Left ,60,2303430939627 ,50,3903550282968 ,65,2841228288595
4.149793 ,Left ,60,2289362884668 ,50,3887608400139 ,65,2927621446985
4.164888 ,Left ,60,2554334306349 ,50,3871925136514 ,65,3038943708001
4.1874379 ,Left ,60,2815229590719 ,50,3870149473659 ,65,3203282788391
4.2099173 ,Left ,60,2991236207008 ,50,3833711127554 ,65,3384820698053
4.2323667 ,Left ,60,3093490717561 ,50,383406341138 ,65,3564329095022
4.2548238 ,Left ,60,3144811438775 ,50,391246541844 ,65,3739582347597
4.2771334 ,Left ,60,3189095284493 ,50,4024110865339 ,65,3902896128799
4.292012 ,Left ,60,3341351654176 ,50,3973636912796 ,65,4003687722295
4.3068201 ,Left ,60,3392262561645 ,50,3843683020769 ,65,4134711811196
4.3294268 ,Left ,60,3268691159981 ,50,3812621577782 ,65,4189885333976
4.3518858 ,Left ,60,3125208360021 ,50,382113448864 ,65,4259399991385
4.3670515 ,Left ,60,2972466840632 ,50,3835611325384 ,65,4260633012194
4.3896665 ,Left ,60,2915794415202 ,50,3869597915155 ,65,4236942426762
4.4121089 ,Left ,60,2932839030224 ,50,3866441578027 ,65,4215392848811
4.4348977 ,Left ,60,2848523777123 ,50,3665188733433 ,65,4202804657706
4.4575824 ,Left ,60,2835106875357 ,50,3566458721959 ,65,4165877053796
4.4870007 ,Left ,60,3020495758742 ,50,3384065786754 ,65,4068462281989
4.5094873 ,Left ,60,3111378768015 ,50,3343827460109 ,65,4048990418954
4.5320113 ,Left ,60,325612323841 ,50,3307746461312 ,65,4062779212702
4.5468629 ,Left ,60,3347618772907 ,50,3253676874269 ,65,4085061746935
4.5694018 ,Left ,60,3230419396961 ,50,3302979716427 ,65,4057791987191
4.5918583 ,Left ,60,3063725769901 ,50,3352950627286 ,65,4018996758282
4.6070398 ,Left ,60,2975854941153 ,50,3374006777942 ,65,4103517711019
4.6295975 ,Left ,60,3038304807891 ,50,3386066678338 ,65,4163303017678
4.6518283 ,Left ,60,3068299038683 ,50,3393879293345 ,65,4173110331246
4.666855 ,Left ,60,2974649648288 ,50,3591004989839 ,65,4223761822243
4.6894231 ,Left ,60,2968852060902 ,50,3767028998818 ,65,4189946681009
4.7121715 ,Left ,60,3113693589465 ,50,3901258634904 ,65,4098790213556
4.7270665 ,Left ,60,3025273813532 ,50,3986009826335 ,65,3997787176782
4.7494897 ,Left ,60,2798185206582 ,50,4051220972557 ,65,395509500795
4.7719808 ,Left ,60,2487659990264 ,50,4123344752092 ,65,3943961656282
4.7945512 ,Left ,60,228318820795 ,50,4143631088592 ,65,391045220893
4.8171165 ,Left ,60,213298741745 ,50,4083311994876 ,65,3769999552484
4.8472286 ,Left ,60,1887959608458 ,50,3988678706442 ,65,3462568481102
4.8695261 ,Left ,60,1765786551725 ,50,3960444383949 ,65,3383509824827
4.892061 ,Left ,60,1729104547756 ,50,3952837519192 ,65,3328883123769
4.9068572 ,Left ,60,1735446466097 ,50,3845482399324 ,65,329405497185
4.9294831 ,Left ,60,167516375967 ,50,3654074880383 ,65,3264162510732
4.9518833 ,Left ,60,164246149662 ,50,3475874886842 ,65,3220840905715
4.9595626 ,Left ,60,1578254174676 ,50,3386510266705 ,65,3249186473269
4.9819505 ,Left ,60,1560059171607 ,50,3436246890455 ,65,3261673927402
5.0043707 ,Left ,60,1629661253199 ,50,3501354292327 ,65,3321644000003
5.0194722 ,Left ,60,1664394884951 ,50,3500667549891 ,65,3394637000249
5.0424963 ,Left ,60,1618324657492 ,50,3380902552602 ,65,3484889213026
5.0646271 ,Left ,60,1515429502164 ,50,3207171020311 ,65,3546592035231
5.0795578 ,Left ,60,1448789224149 ,50,3123190519761 ,65,3551823348521
5.1019668 ,Left ,60,1402940309306 ,50,3071961514643 ,65,3572964809944
5.1246834 ,Left ,60,1363460075613 ,50,3102575058473 ,65,3527786197819
5.1396053 ,Left ,60,118027684453 ,50,3135911834448 ,65,3436828500238
5.1621528 ,Left ,60,0999616590642 ,50,3144388373263 ,65,3294922932185
5.1843686 ,Left ,60,0744531041167 ,50,2961357802449 ,65,3185997422333
5.1993244 ,Left ,60,070382883368 ,50,2687020828811 ,65,3112667774503
5.2220797 ,Left ,60,0524784112028 ,50,2562939969866 ,65,2992668019464
5.2443529 ,Left ,60,032938691729 ,50,2584590705341 ,65,2871292317285
5.2594587 ,Left ,60,0329603907998 ,50,2652814081463 ,65,2801691778474
5.2819758 ,Left ,60,0339901256541 ,50,2669220686147 ,65,2809498269147
5.3044859 ,Left ,60,0395575801107 ,50,2818615332287 ,65,2684504010448
5.3194501 ,Left ,60,0405464957994 ,50,3004605475101 ,65,2585734634906
5.3421897 ,Left ,60,0301563561481 ,50,3132448636598 ,65,2520738978022
5.3645915 ,Left ,60,0254750071889 ,50,3283779928973 ,65,2468029682797
5.4019104 ,Left ,60,023483459416 ,50,3771593224484 ,65,2214167719447
5.4245851 ,Left ,60,0195407878101 ,50,3870118633827 ,65,2099783042636
5.4393548 ,Left ,60,0442344956657 ,50,3975960613159 ,65,2018502803984
5.4622481 ,Left ,60,0681562612733 ,50,3972384321221 ,65,1947952865095
5.4845559 ,Left ,60,0292646624923 ,50,3853015597282 ,65,1791829938276
5.5001833 ,Left ,59,9676386533394 ,50,3950615837178 ,65,1664643026556
5.5226673 ,Left ,59,9557191543176 ,50,4359497033434 ,65,1732496868677
5.5447445 ,Left ,59,9249066802854 ,50,4839873147625 ,65,18132197501
5.5595125 ,Left ,59,8746847234629 ,50,4754696624484 ,65,1945576543033
5.5821051 ,Left ,59,8698071535388 ,50,4744820469243 ,65,2209383662223
5.6196551 ,Left ,59,8336769159266 ,50,5403046088356 ,65,2108778827307
5.6422128 ,Left ,59,8522414067281 ,50,5587852391424 ,65,1721344967141
5.6801926 ,Left ,59,789167863876 ,50,5617758926672 ,65,1317381368704
5.7020158 ,Left ,59,6939322028246 ,50,5805826441981 ,65,1187328482398
5.7395154 ,Left ,59,7612272035938 ,50,6176232990914 ,65,0947406545043
5.7621081 ,Left ,59,9125216679326 ,50,6119173765452 ,65,1252449014175
5.7844471 ,Left ,59,9219691000358 ,50,6064868372944 ,65,1180648471518
5.8219027 ,Left ,59,8859289593297 ,50,5712032558793 ,65,070297870658
5.8445425 ,Left ,59,9001531493662 ,50,5772196347605 ,65,0564414113576
5.88198 ,Left ,59,8547910849261 ,50,7225208321666 ,65,0346403099463
5.9196148 ,Left ,60,0077648563988 ,50,7150625106382 ,65,0308513496111
5.9418428 ,Left ,59,9727515152032 ,50,7454031718448 ,65,0411830841205
5.9797737 ,Left ,60,0197170161429 ,50,779225315782 ,65,0637904630111
6.0020955 ,Left ,60,0116328097774 ,50,7787294146361 ,65,0942698694693
6.0393699 ,Left ,59,9176692450531 ,50,7730151492701 ,65,085621691473
6.0620516 ,Left ,59,9308071219059 ,50,7026484261286 ,65,0693784492045
6.0994729 ,Left ,59,9236465562323 ,50,7527149461442 ,65,0390749519173
6.1219333 ,Left ,59,8645447270518 ,50,8426785836801 ,65,0236880834297
6.1444568 ,Left ,59,8943292469714 ,50,9314662612973 ,64,999524779777
6.1819517 ,Left ,59,9270259763081 ,51,0191706642699 ,64,9693726809157
6.2193973 ,Left ,59,9154917932184 ,50,9406015441476 ,64,9428087582126
6.2418839 ,Left ,59,9154440833405 ,50,870497936038 ,64,9399648420915
6.2797782 ,Left ,59,8021124561298 ,50,7356160418947 ,64,9355795686543
6.302067 ,Left ,59,7999982384227 ,50,6629427134016 ,64,9659900861642
6.3398431 ,Left ,59,8424028889158 ,50,7377230877238 ,65,012112003694
6.3620761 ,Left ,59,9048433286369 ,50,734331165748 ,65,0018908358976
6.4002736 ,Left ,60,0159864894447 ,50,6304243267443 ,64,9651998355394
6.4227934 ,Left ,60,0259222686584 ,50,6177457655308 ,64,9307096166984
6.459981 ,Left ,60,1042615124315 ,50,5283487165285 ,64,8213708377958
6.4821426 ,Left ,60,1867839299527 ,50,4333545681919 ,64,7976044496101
6.5195747 ,Left ,60,2667948264205 ,50,3625920260994 ,64,8566368924665
6.5422624 ,Left ,60,3085321681037 ,50,3766605550804 ,64,8963521302275
6.5798341 ,Left ,60,374580275802 ,50,3561787883414 ,64,9264384501711
6.6022795 ,Left ,60,360111090014 ,50,3512828475245 ,64,9359866786076
6.639846 ,Left ,60,3229604147674 ,50,3760566971521 ,64,8894904982167
6.6622 ,Left ,60,2962027277128 ,50,3737221644754 ,64,8747115971285
6.6995936 ,Left ,60,1245156098082 ,50,4116786284714 ,64,9323550674935
6.7219628 ,Left ,60,1441220090702 ,50,4410061992476 ,64,9456522996554
6.7594389 ,Left ,60,1233159397083 ,50,5426208614789 ,64,8983004197041
6.7820208 ,Left ,60,142001791678 ,50,5334222426761 ,64,889271805116
6.8194567 ,Left ,60,1735011185561 ,50,4755833124964 ,64,884700834517
6.834572 ,Left ,60,1713927208018 ,50,443138965815 ,64,8621956701077
6.8569622 ,Left ,60,1641031887909 ,50,4131476122621 ,64,8436329337118
6.8719007 ,Left ,60,1558603751702 ,50,3694969677886 ,64,843714543908
6.8943642 ,Left ,60,149965608943 ,50,326915832899 ,64,8420319389808
6.9243764 ,Left ,60,1387083156719 ,50,2967113472073 ,64,8390502520162
6.9393491 ,Left ,60,117661472616 ,50,2874184723656 ,64,8368973943628
6.9619261 ,Left ,60,117661472616 ,50,2874184723656 ,64,8368973943628
6.9916784 ,Left ,60,1735902924094 ,50,286198563807 ,64,8462930413241
7.0145913 ,Left ,60,1946794173428 ,50,2886226089231 ,64,8553367066512
7.0369805 ,Left ,60,1839788315095 ,50,2936141065085 ,64,857589861541
7.0518115 ,Left ,60,1766869794508 ,50,3040877237243 ,64,8643162679967
7.0746609 ,Left ,60,1978625081899 ,50,316114341056 ,64,8720639167529
7.0970107 ,Left ,60,2098773124278 ,50,3094883709127 ,64,8811639686783
7.1119275 ,Left ,60,2099428508397 ,50,2943936636842 ,64,8989839829013
7.1343943 ,Left ,60,1935876469894 ,50,3013429379518 ,64,9030268618935
7.1570495 ,Left ,60,1650978544932 ,50,318220259826 ,64,90119025195
7.1795831 ,Left ,60,1425916503928 ,50,329892579141 ,64,9081300751444
7.1944894 ,Left ,60,1432539531856 ,50,3285276723135 ,64,9166888606534
7.2172401 ,Left ,60,1442862791694 ,50,3117773945161 ,64,9183155316502
7.2395699 ,Left ,60,1341171336339 ,50,2969867371006 ,64,9161898549837
7.2545689 ,Left ,60,0958509202951 ,50,2897590269159 ,64,9141082424733
7.277236 ,Left ,60,0791463671154 ,50,2903589025069 ,64,9089509660886
7.2995955 ,Left ,60,0821156155335 ,50,2911802037826 ,64,9099015670743
7.3143889 ,Left ,60,0818832362989 ,50,2917125971825 ,64,9075889509499
7.336862 ,Left ,60,0849562357007 ,50,3076264387691 ,64,9044434285646
7.3596671 ,Left ,60,0744250978277 ,50,3205467870647 ,64,8996324732651
7.37469 ,Left ,60,0744250978277 ,50,3205467870647 ,64,8996324732651
7.396905 ,Left ,60,0785101510224 ,50,3381117230243 ,64,8972802267235
7.4195104 ,Left ,60,0785101510224 ,50,3381117230243 ,64,8972802267235
7.4343333 ,Left ,60,0676703436255 ,50,3354732089453 ,64,9082343608656
7.4570618 ,Left ,60,0660807296423 ,50,3555967723985 ,64,919161764012
7.4797251 ,Left ,60,0490420951136 ,50,4026721638892 ,64,9202719484736
7.4945261 ,Left ,60,0369827366262 ,50,4368278787279 ,64,9206448614027
7.5169217 ,Left ,60,0411066555699 ,50,4225822166407 ,64,9345390592915
7.5395751 ,Left ,60,0439260495739 ,50,3837059603873 ,64,9588091950429
7.5544945 ,Left ,60,0111352164489 ,50,3736525390184 ,64,9838791445452
7.576911 ,Left ,59,9727362006285 ,50,4191101759299 ,64,9967920916659
7.599687 ,Left ,59,9535438337506 ,50,4548923984149 ,65,016715460909
7.6145811 ,Left ,59,9735295602814 ,50,4681168640658 ,65,0385896284612
7.6372507 ,Left ,59,9303172758849 ,50,467011105829 ,65,057450595049
7.6596512 ,Left ,59,8988105212616 ,50,4657437751351 ,65,0631095157191
7.6742891 ,Left ,59,9252023275189 ,50,4679609829804 ,65,0638913952804
7.6971052 ,Left ,59,9940082790755 ,50,4682165140983 ,65,0764278250322
7.719575 ,Left ,60,0201696202091 ,50,44923884801 ,65,0725744362946
7.734673 ,Left ,59,9686754157122 ,50,4266306628753 ,65,0673452143512
7.7573025 ,Left ,59,9444907772028 ,50,4002564018128 ,65,0725419366214
7.7796111 ,Left ,59,9524582309863 ,50,3762581016808 ,65,0707293471554
7.7945918 ,Left ,59,9721219993204 ,50,3406795567165 ,65,0784974423702
7.8168732 ,Left ,59,9827496600539 ,50,3213343161867 ,65,0785338711392
7.8396056 ,Left ,59,9835939850086 ,50,3147164865668 ,65,0765403817486
7.8546071 ,Left ,60,0053247585428 ,50,2960567925157 ,65,0720086570785
7.877091 ,Left ,60,0027216554196 ,50,2570248985288 ,65,0676999574208
7.8996731 ,Left ,60,0174093396339 ,50,2387948563037 ,65,0736104846679
7.9146843 ,Left ,60,0062749412807 ,50,2523753871891 ,65,0758575172749
7.9371115 ,Left ,59,9748733296361 ,50,2798026696512 ,65,0636281460395
7.9598553 ,Left ,59,9684675760676 ,50,3000461564039 ,65,0462065073928
7.9747945 ,Left ,59,9836169482648 ,50,2940250550914 ,65,0330232915481
7.9972686 ,Left ,59,9924899727828 ,50,2845028391468 ,65,0199927267492
8.0197459 ,Left ,59,9741222177046 ,50,2977352240347 ,65,0073266370119
8.0345626 ,Left ,59,9648989005746 ,50,3063767322975 ,64,9811964896813
8.0570649 ,Left ,59,9721948444284 ,50,2938476296474 ,64,9671294836181
8.0797872 ,Left ,59,9966458757759 ,50,2785815854951 ,64,9685840019095
8.0946375 ,Left ,59,9962188294518 ,50,2782951717626 ,64,9680932044113
8.1172959 ,Left ,60,0029580311386 ,50,2875810716213 ,64,9656723481357
8.1396815 ,Left ,59,9996773570876 ,50,3019288267405 ,64,9699677410085
8.1622646 ,Left ,60,0171191343776 ,50,3164087139138 ,64,9754047393965
8.1771155 ,Left ,60,044642652326 ,50,3176522684594 ,64,9852060596024
8.1997272 ,Left ,60,0631557996888 ,50,307184884297 ,65,0034087929298
8.222059 ,Left ,60,0630118225076 ,50,2913535962954 ,65,0231831396961
8.237363 ,Left ,60,0651256399184 ,50,2851159942138 ,65,0399451104671
8.2598487 ,Left ,60,0701393916957 ,50,2622810489965 ,65,0445312004892
8.2822887 ,Left ,60,0763808751405 ,50,2289942553429 ,65,0462293009039
8.2969383 ,Left ,60,0782330604044 ,50,2253814762015 ,65,0408601904167
8.3195765 ,Left ,60,0616449774733 ,50,2424829870229 ,65,0274327849184
8.3418358 ,Left ,60,0494833157523 ,50,2551315290233 ,65,0132451939557
8.3570177 ,Left ,60,0487926081368 ,50,2578174701307 ,65,0005173076018
8.3793908 ,Left ,60,0432799598662 ,50,2449046677574 ,64,9931403479468
8.4019741 ,Left ,60,0358157003234 ,50,244396968209 ,64,9915759835352
8.4172272 ,Left ,60,0130747211204 ,50,2593767614532 ,64,9879781562725
8.4399317 ,Left ,60,0161130371758 ,50,2827211338859 ,64,9893629224529
8.4621026 ,Left ,60,0286309419552 ,50,3040284230678 ,64,9867786347996
8.4772994 ,Left ,60,0286309419552 ,50,3040284230678 ,64,9867786347996
8.4999384 ,Left ,60,0263072725416 ,50,3158937393882 ,64,9904812194543
8.5217788 ,Left ,60,0157753775253 ,50,3305503635718 ,64,9913864730959
8.5369652 ,Left ,60,0157753775253 ,50,3305503635718 ,64,9913864730959
8.55939 ,Left ,60,0138214367001 ,50,3313832100859 ,64,9912158882064
8.5817087 ,Left ,60,010190001574 ,50,3250754461086 ,64,9885910032085
8.597764 ,Left ,60,0044703436778 ,50,3045181280153 ,64,9899373105504
8.6199268 ,Left ,60,0050818480244 ,50,2861389085901 ,64,9953034695829
8.6423539 ,Left ,59,999651131224 ,50,2821115384122 ,65,0022005049854
8.6575665 ,Left ,60,0109325183668 ,50,2897409998187 ,65,0045514863378
8.6798916 ,Left ,60,031764391133 ,50,2926349466905 ,65,0112150275711
8.702487 ,Left ,60,0392705836396 ,50,2917915845136 ,65,0169380354793
8.7174072 ,Left ,60,0336038151238 ,50,2882894639152 ,65,0215089957834
8.7398392 ,Left ,60,0336038151238 ,50,2882894639152 ,65,0215089957834
8.7620712 ,Left ,60,0336038151238 ,50,2882894639152 ,65,0215089957834
8.7768096 ,Left ,60,0320764468891 ,50,2894131913531 ,65,0218294263116
8.8000685 ,Left ,60,0320764468891 ,50,2894131913531 ,65,0218294263116
8.8223593 ,Left ,60,0273819284829 ,50,2957291002572 ,65,0161217531723
8.837541 ,Left ,60,0210847315456 ,50,2990355600565 ,65,0093487222727
8.8599484 ,Left ,59,9988488245393 ,50,299674698951 ,64,9986570185345
8.8823973 ,Left ,59,979557088157 ,50,2956439453586 ,64,9916899597285
8.8971085 ,Left ,59,9722226026021 ,50,2918130510417 ,64,9869194514032
8.9194147 ,Left ,59,9665881057029 ,50,3005976500504 ,64,9818155070104
8.9417993 ,Left ,59,9612169065992 ,50,3143262832616 ,64,9762622728656
8.9568914 ,Left ,59,9577558779452 ,50,3285577979682 ,64,9667353681994
8.9794505 ,Left ,59,9558034563409 ,50,3293899306898 ,64,9665656069218
9.001939 ,Left ,59,9537672948239 ,50,3328949557371 ,64,9581072316223
9.0170024 ,Left ,59,9576585581774 ,50,3380393731035 ,64,951539811134
9.0397084 ,Left ,59,9522805774672 ,50,3517620262639 ,64,9459943233091
9.0621521 ,Left ,59,9568980697542 ,50,3665392744563 ,64,9424815812905
9.0774092 ,Left ,59,9754226911343 ,50,3807133324053 ,64,9413641333626
9.1001629 ,Left ,59,9778295729258 ,50,3913747652212 ,64,9381446069947
9.1223396 ,Left ,59,9982918140765 ,50,3992486310669 ,64,9399894177358
9.1452085 ,Left ,60,0144939449969 ,50,4065184710449 ,64,9336650926487
9.1603142 ,Left ,60,0244871570249 ,50,3830765940611 ,64,9278580665099
9.1823512 ,Left ,60,0314291462743 ,50,3553033331163 ,64,9311970525613
9.2047438 ,Left ,60,017963549401 ,50,3861712412844 ,64,9343996812698
9.2195861 ,Left ,59,9735132970359 ,50,488880774389 ,64,928722911314
9.2418819 ,Left ,59,9748144374377 ,50,5730936885902 ,64,9133326521549
9.2647236 ,Left ,59,9762994503182 ,50,5713331843066 ,64,9015337547873
9.279653 ,Left ,59,9630084441847 ,50,5484676649971 ,64,9169199653567
9.3020673 ,Left ,59,8955549953208 ,50,5823188604677 ,64,9157549475997
9.3246557 ,Left ,59,8758745708618 ,50,64098040799 ,64,8929584449682
9.3393054 ,Left ,59,9291167556699 ,50,6382903904537 ,64,8675301753053
9.362054 ,Left ,59,9602869778236 ,50,5905542353079 ,64,8595036199248
9.3842992 ,Left ,59,9156992935387 ,50,5727519577505 ,64,8774599672524
9.3994113 ,Left ,59,808044156652 ,50,5795443825788 ,64,880810769837
9.4218639 ,Left ,59,7184355085652 ,50,5762735779416 ,64,8594229514459
9.444573 ,Left ,59,7923430566294 ,50,5622093343955 ,64,8156675488802
9.4594483 ,Left ,59,953621225849 ,50,5251769891451 ,64,8297348632354
9.4818635 ,Left ,60,0123333908017 ,50,5152337531128 ,64,8416044400747
9.504392 ,Left ,59,9555990153453 ,50,5120738566519 ,64,8394998775544
9.519377 ,Left ,59,9681002226373 ,50,4959989616264 ,64,8273192141441
9.5417652 ,Left ,59,9480559361843 ,50,5006232264197 ,64,8163151684886
9.5645632 ,Left ,59,9332574157954 ,50,5542160617259 ,64,7857938260647
9.579494 ,Left ,59,9359699648867 ,50,6033126573788 ,64,7773247126534
9.6018403 ,Left ,60,0394296878662 ,50,6320223772721 ,64,7648608542594
9.6244133 ,Left ,60,1036200875255 ,50,6252488037257 ,64,7990771078286
9.6394627 ,Left ,60,1088293665158 ,50,6622522185716 ,64,8357014228355
9.6618977 ,Left ,60,0761511768656 ,50,7024805909767 ,64,8452304815779
9.684522 ,Left ,60,0420841666886 ,50,7405560460799 ,64,8518074906292
9.6994619 ,Left ,60,0590540486073 ,50,8020387821012 ,64,848344026017
9.7218609 ,Left ,60,0415825563757 ,50,836612026493 ,64,8316313454817
9.745286 ,Left ,59,965435630413 ,50,8244137323221 ,64,7993312483936
9.7601504 ,Left ,59,9595770517174 ,50,7430935609976 ,64,7688904286499
9.7823033 ,Left ,59,9465482938209 ,50,6850658007975 ,64,7335437857408
9.8048183 ,Left ,59,8222389498671 ,50,7485866286317 ,64,6980610431604
9.8274892 ,Left ,59,7511798074696 ,50,8581120540307 ,64,6779536926215
9.8421499 ,Left ,59,762545841382 ,50,9248660427091 ,64,6564489315633
9.8647723 ,Left ,59,8235775025465 ,50,9404758674697 ,64,6370094856763
9.8871692 ,Left ,59,7815024933149 ,50,8973667141019 ,64,6125692512273
9.902027 ,Left ,59,7578287750696 ,50,8288524632744 ,64,5968503698118
9.9245631 ,Left ,59,7376573226838 ,50,7635204429525 ,64,5901172844603
9.9398383 ,Left ,59,6902912483545 ,50,7131939487871 ,64,5539702823534
9.9620635 ,Left ,59,6360491602257 ,50,6349404439653 ,64,5171264386881
9.9845999 ,Left ,59,6208190664738 ,50,5449314304574 ,64,5442264700817
10.0071621 ,Left ,59,6272246429942 ,50,5282580717264 ,64,5899776657577
10.0220269 ,Left ,59,6794402493821 ,50,5496814572796 ,64,6214846321009
10.0446494 ,Left ,59,7390856686055 ,50,5372115834366 ,64,6347398931731
10.0670462 ,Left ,59,8391134794136 ,50,4832626956182 ,64,6208857427427
10.0818328 ,Left ,59,9019347761528 ,50,4273133345236 ,64,606652867258
10.1047125 ,Left ,59,9353745858539 ,50,354750021298 ,64,5884308301598
10.1270596 ,Left ,59,9931505548744 ,50,2934765306918 ,64,5850490677258
10.1420278 ,Left ,60,0266250513184 ,50,2296104592605 ,64,539896445768
10.1646955 ,Left ,60,0459815543034 ,50,2027788559933 ,64,4889973410152
10.1869227 ,Left ,60,0393772706678 ,50,2228623570834 ,64,4581902595984
10.2017935 ,Left ,60,0207988525997 ,50,2689329904343 ,64,4702285030424
10.224357 ,Left ,60,0215562644269 ,50,291875434436 ,64,489169317869
10.2469783 ,Left ,60,0070114385132 ,50,2944295994724 ,64,5170224277487
10.2621905 ,Left ,60,0107327370889 ,50,3346569627766 ,64,5287512233635
10.2847064 ,Left ,59,9878585505892 ,50,4207924584081 ,64,530735510667
10.3070974 ,Left ,60,0005791554943 ,50,4679996566701 ,64,5484282172672
10.3220159 ,Left ,60,0530474852131 ,50,4596899776326 ,64,5730480303891
10.3444309 ,Left ,60,1348829060467 ,50,4327618061621 ,64,5967036525118
10.3669063 ,Left ,60,1256492281409 ,50,4283135596346 ,64,5958070115987
10.3818586 ,Left ,60,1009627956023 ,50,4446544104909 ,64,5901839739444
10.4044938 ,Left ,60,0915808333267 ,50,4380256300094 ,64,5951944451417
10.427167 ,Left ,60,0944446805595 ,50,4072656485527 ,64,5946019998593
10.44197 ,Left ,60,0960798266554 ,50,3616417198206 ,64,5908873138276
10.4645369 ,Left ,60,0974127084822 ,50,3292076347187 ,64,5851801403176
10.4870224 ,Left ,60,0881661684192 ,50,3123721859001 ,64,5801960845804
10.5017762 ,Left ,60,0871592222609 ,50,316196058571 ,64,5767001878159
10.524352 ,Left ,60,0971429477859 ,50,326970509663 ,64,5774020236259
10.5470815 ,Left ,60,1228261421388 ,50,3315250621317 ,64,5811039498342
10.5619703 ,Left ,60,1208549773884 ,50,3323356118689 ,64,5809298302669
10.5846705 ,Left ,60,108398148769 ,50,3320259329022 ,64,5880035206901
10.6068873 ,Left ,60,0933002078821 ,50,3286544610019 ,64,5907356304264
10.6217976 ,Left ,60,0889014321292 ,50,3289687642013 ,64,6037894290979
10.6442278 ,Left ,60,088426710427 ,50,3235329972954 ,64,6158117339376
10.667029 ,Left ,60,0757898794362 ,50,3169436141058 ,64,6274352626959
10.6818165 ,Left ,60,0654745816618 ,50,3155846599493 ,64,6386064003252
10.7044397 ,Left ,60,0585245503186 ,50,3167104402753 ,64,6471177642178
10.7196901 ,Left ,60,0536266990475 ,50,3153328658512 ,64,6501054561382
10.7348297 ,Left ,60,0550741851802 ,50,3008358005366 ,64,6595665285867
10.7570132 ,Left ,60,0492163819078 ,50,2909760940358 ,64,6686290905785
10.7796309 ,Left ,60,0439827952563 ,50,287697891674 ,64,6736471802239
10.7947476 ,Left ,60,0522203133514 ,50,3000755693893 ,64,6723285245398
10.8171808 ,Left ,60,0485294460558 ,50,316263662327 ,64,6701997001639
10.8395166 ,Left ,60,0585329050377 ,50,3324888502245 ,64,6681527904063
10.8545006 ,Left ,60,0693181649047 ,50,3399430085962 ,64,6700520596045
10.8769474 ,Left ,60,0693181649047 ,50,3399430085962 ,64,6700520596045
10.8996097 ,Left ,60,0486154046211 ,50,3492208406618 ,64,6675327279946
10.9147718 ,Left ,60,032752534324 ,50,3601373871418 ,64,6636277584895
10.937079 ,Left ,60,0337489888287 ,50,3617950829407 ,64,6644050440592
10.9594771 ,Left ,60,0337489888287 ,50,3617950829407 ,64,6644050440592
10.9744985 ,Left ,60,0294491166018 ,50,3628709979333 ,64,6619660800214
10.9970629 ,Left ,60,0208219384741 ,50,3694205819008 ,64,6600681180367
11.0195362 ,Left ,60,0056633690994 ,50,3787455356178 ,64,6630639945143
11.034546 ,Left ,59,99630858269 ,50,3872401967904 ,64,664068613056
11.0572056 ,Left ,59,997500209199 ,50,3897136754424 ,64,6630366070029
11.0796872 ,Left ,60,0029665910958 ,50,3815060275945 ,64,6657949167715
11.094834 ,Left ,60,0072408732755 ,50,370824114644 ,64,669585455911
11.116955 ,Left ,60,0157338037887 ,50,3662433397656 ,64,6787835737376
11.1395924 ,Left ,60,0166039161003 ,50,3698714248184 ,64,6868618829089
11.1544413 ,Left ,60,0177974235683 ,50,3723450762686 ,64,6858294858876
11.1769074 ,Left ,60,0187954573016 ,50,3740026827862 ,64,6866068120488
11.1993973 ,Left ,60,0203306372157 ,50,3728991137463 ,64,6862874847761
11.2144079 ,Left ,60,0187954573016 ,50,3740026827862 ,64,6866068120488
11.2371197 ,Left ,60,0262496871053 ,50,3800590600863 ,64,6854613204164
11.2595606 ,Left ,60,0265171234646 ,50,3791734923759 ,64,6779516177035
11.2970341 ,Left ,60,0277147314809 ,50,3761706840423 ,64,6796487283474
11.3196363 ,Left ,60,0174651703666 ,50,3659565382503 ,64,6766547122746
11.334758 ,Left ,60,0037837894989 ,50,3659230899424 ,64,6765757276185
11.357146 ,Left ,59,9922282165799 ,50,3672292357086 ,64,6707531257788
11.3796751 ,Left ,59,9817766262885 ,50,3726168167091 ,64,6613851305557
11.3946236 ,Left ,59,973259816663 ,50,3730509374114 ,64,6508171015899
11.4171128 ,Left ,59,9632546993852 ,50,3677696287409 ,64,6474209373041
11.4395327 ,Left ,59,9505891475072 ,50,3639127547095 ,64,6508717844266
11.4772124 ,Left ,59,9396833795651 ,50,3639031472449 ,64,6535682951872
11.4996841 ,Left ,59,9295081071204 ,50,3674137948265 ,64,6506223954541
11.5372553 ,Left ,59,9240806442249 ,50,3742791683894 ,64,6519678627902
11.5595232 ,Left ,59,9240806442249 ,50,3742791683894 ,64,6519678627902
11.5969155 ,Left ,59,941603167191 ,50,4034958452702 ,64,655556410164
11.634608 ,Left ,59,9559853909313 ,50,3865123769177 ,64,6568258235599
11.6570102 ,Left ,59,9514718829453 ,50,3771639483544 ,64,6575662574573
11.694616 ,Left ,59,9010767245199 ,50,4087349776994 ,64,6433043725527
11.7171027 ,Left ,59,9176008940962 ,50,4417664687042 ,64,6433952839723
11.7546438 ,Left ,59,9168364665129 ,50,4462303586054 ,64,7040568255403
11.7770775 ,Left ,59,82493991253 ,50,5153967670194 ,64,7083805183549
11.8145026 ,Left ,59,882694267693 ,50,6162047321666 ,64,6971355614192
11.8371312 ,Left ,59,9416436662225 ,50,6084487438764 ,64,6800764320961
11.8744274 ,Left ,59,8262609685299 ,50,551644888755 ,64,6637310331622
11.896831 ,Left ,59,7610518626212 ,50,5573290157566 ,64,6516987993732
11.934542 ,Left ,59,7769767227066 ,50,5788485706874 ,64,6161563794392
11.957124 ,Left ,59,870094946364 ,50,5534991693146 ,64,6241615342449
11.9951848 ,Left ,59,9001725643548 ,50,5851252755601 ,64,6149405895024
12.0170837 ,Left ,59,9327256400723 ,50,5515785628872 ,64,5982594529329
12.0552088 ,Left ,59,9063040627076 ,50,6180556105326 ,64,6085798103439
12.0774968 ,Left ,59,8798651432153 ,50,6981450348511 ,64,6053054003564
12.114795 ,Left ,60,1362432953956 ,50,6966326410038 ,64,619827015735
12.1371028 ,Left ,60,1356446428052 ,50,7258040252581 ,64,6363501115007
12.1597894 ,Left ,60,0319389202142 ,50,7925391867638 ,64,644311055728
12.1970756 ,Left ,60,0176908394324 ,50,8818100235454 ,64,6444540016638
12.2344549 ,Left ,59,908288244209 ,50,9276014448725 ,64,6164854207542
12.2572011 ,Left ,59,8588598037845 ,50,9123693466576 ,64,5979873911297
12.2946153 ,Left ,59,8516609327304 ,50,727175404653 ,64,6075207851502
12.3172113 ,Left ,59,8365790475953 ,50,6818196543146 ,64,6106561285487
12.3550354 ,Left ,59,7249292151727 ,50,9282694720414 ,64,5649729979791
12.3777145 ,Left ,59,8082261266671 ,50,9938842231238 ,64,5453241565868
12.4146323 ,Left ,59,8688400935994 ,50,9814167113245 ,64,5276381388058
12.4377604 ,Left ,59,8188311799981 ,50,9532817688637 ,64,504419572097
12.4748805 ,Left ,59,7846216427174 ,50,8683246863109 ,64,4246781077094
12.4971136 ,Left ,59,7672081907303 ,50,8232765716633 ,64,400247326833
12.534731 ,Left ,59,7324027922326 ,50,6256732909517 ,64,4085637381821
12.564326 ,Left ,59,7368355187925 ,50,5834910951503 ,64,4498632529853
12.5801325 ,Left ,59,7429228570045 ,50,6081925432485 ,64,479459252327
12.5951255 ,Left ,59,8205509324328 ,50,6011950872545 ,64,5040277232471
12.617746 ,Left ,59,940065290521 ,50,507157039021 ,64,5461896571576
12.6326939 ,Left ,60,0775428249745 ,50,3574837298345 ,64,5477363477589
12.6553315 ,Left ,60,1678728035857 ,50,3030475908221 ,64,5153789009122
12.6699692 ,Left ,60,1523093499261 ,50,3826733064927 ,64,434894984186
12.6926386 ,Left ,60,1146449407624 ,50,4392084370428 ,64,3723495837496
12.7151657 ,Left ,60,1440293097925 ,50,4001682692553 ,64,3371873223367
12.729607 ,Left ,60,1548081694247 ,50,3115481360591 ,64,3342098308189
12.7595781 ,Left ,60,1447262184706 ,50,2554192403102 ,64,354801811118
12.7896091 ,Left ,60,097136673002 ,50,2912265761954 ,64,3860989597131
12.804511 ,Left ,60,0649244787548 ,50,431185657572 ,64,4223538981091
12.8196481 ,Left ,60,120323946438 ,50,5399461732633 ,64,4710699645212
12.8345726 ,Left ,60,2059881061719 ,50,5604914695159 ,64,488347675355
12.8493933 ,Left ,60,291624803615 ,50,5340174915476 ,64,4926858832593
12.8719444 ,Left ,60,268774530353 ,50,4931591490085 ,64,4905256324532
12.8949931 ,Left ,60,2276947324241 ,50,4716600271831 ,64,485100523073
12.9100151 ,Left ,60,2075092037086 ,50,429990648659 ,64,4877264012173
12.9324839 ,Left ,60,1987091966281 ,50,3735814902204 ,64,4786679011683
12.9546184 ,Left ,60,1930773399096 ,50,3273577540995 ,64,4732595547746
12.9696105 ,Left ,60,1651332737679 ,50,3037503030454 ,64,4698840877784
12.9918217 ,Left ,60,139548154212 ,50,2826505678517 ,64,4743030731226
13.0143955 ,Left ,60,1680234729665 ,50,2735751100846 ,64,4806745031045
13.0292453 ,Left ,60,1717717762747 ,50,2780231084497 ,64,4896721563619
13.051831 ,Left ,60,1972650620882 ,50,2886922266393 ,64,5020406855673
13.0743992 ,Left ,60,2172376272195 ,50,3089111347297 ,64,507638007074
13.0900258 ,Left ,60,2090039449957 ,50,3267129003013 ,64,5145129883406
13.1123528 ,Left ,60,1844886493318 ,50,3328471576763 ,64,5125224890142
13.1350444 ,Left ,60,1765103747676 ,50,3198814204514 ,64,5160309332556
13.1499132 ,Left ,60,1781008572619 ,50,3119326451065 ,64,5225010318728
13.1726647 ,Left ,60,1559794569971 ,50,3192113102563 ,64,5323625511475
13.1947826 ,Left ,60,1362703431063 ,50,3177288861895 ,64,5401265695784
13.2094828 ,Left ,60,119881610002 ,50,2874124238162 ,64,5453630452747
13.2317503 ,Left ,60,1184239447341 ,50,2583111821968 ,64,5537975408608
13.2546699 ,Left ,60,0841733284289 ,50,250719808217 ,64,5633062130363
13.2694527 ,Left ,60,0799476779564 ,50,2601065979328 ,64,5773047980012
13.2917413 ,Left ,60,0782115407917 ,50,2686394638934 ,64,58217931148
13.3144001 ,Left ,60,0697859203182 ,50,2609015439441 ,64,5825715557441
13.3294904 ,Left ,60,0615885974937 ,50,2526294168114 ,64,5852695535757
13.3520653 ,Left ,60,0505929189893 ,50,2648940732187 ,64,5783990081194
13.3749383 ,Left ,60,0413401314613 ,50,2768761501881 ,64,5694007229297
13.3896882 ,Left ,60,0412786685971 ,50,2891807367992 ,64,5598387337263
13.4122562 ,Left ,60,041051500654 ,50,2897141963723 ,64,5575413244282
13.4348066 ,Left ,60,041051500654 ,50,2897141963723 ,64,5575413244282
13.4497029 ,Left ,60,0340398685682 ,50,2976501875364 ,64,5592146409056
13.4722013 ,Left ,60,0295366195732 ,50,3116319879549 ,64,5586072040938
13.4949928 ,Left ,60,0302960343577 ,50,31382435637 ,64,5570820188143
13.5098461 ,Left ,60,0384540851864 ,50,3193192394707 ,64,5489272579891
13.5323259 ,Left ,60,031204790141 ,50,3195253724506 ,64,5455569783893
13.5549584 ,Left ,60,0219879662752 ,50,3205394336338 ,64,5420159234231
13.5697207 ,Left ,60,0217599192712 ,50,3210712529076 ,64,5397195084947
13.599599 ,Left ,60,0242636234177 ,50,3271169864791 ,64,5374430404952
13.6222859 ,Left ,60,0242636234177 ,50,3271169864791 ,64,5374430404952
13.6374536 ,Left ,60,0252505020072 ,50,3287776915618 ,64,5382154281367
13.652162 ,Left ,60,0242636234177 ,50,3271169864791 ,64,5374430404952
13.6748615 ,Left ,60,0501052304811 ,50,3325258551571 ,64,5392846791379
13.6896911 ,Left ,60,0866726371738 ,50,3385296922117 ,64,5361973394075
13.7123157 ,Left ,60,1050443817672 ,50,3364322578092 ,64,5296503923645
13.7349033 ,Left ,60,0958294135749 ,50,3237103105566 ,64,526042284849
13.7496969 ,Left ,60,0921143886683 ,50,3247909141836 ,64,5279889255761
13.7721298 ,Left ,60,07908913395 ,50,3570716802436 ,64,5182893507495
13.7946947 ,Left ,60,038695846389 ,50,4111334541786 ,64,5111957883053
13.8173009 ,Left ,60,0063265106523 ,50,4410414309353 ,64,5017630252973
13.8320513 ,Left ,60,0194550274412 ,50,4130122672745 ,64,5265166591
13.8547259 ,Left ,59,9750767325394 ,50,403786103065 ,64,5454856219904
13.8769491 ,Left ,59,9326819516797 ,50,4866767662476 ,64,53590457891
13.8919829 ,Left ,59,9218506973683 ,50,5445525836843 ,64,5052740420122
13.9144413 ,Left ,59,9318592619767 ,50,5567162951151 ,64,4751063114722
13.9369317 ,Left ,59,8933570353993 ,50,5582606754498 ,64,4710927095592
13.951973 ,Left ,59,8555875328082 ,50,5598125361861 ,64,4446925593858
13.9744621 ,Left ,59,839133184004 ,50,5583601063858 ,64,407104414005
13.9970185 ,Left ,59,8951532369917 ,50,5650456411951 ,64,4102088501896
14.0118594 ,Left ,59,9902394192363 ,50,5777311684016 ,64,4264327380021
14.0344086 ,Left ,59,9927643987922 ,50,601657166371 ,64,4256984483559
14.0568598 ,Left ,59,9540661990378 ,50,6247245145538 ,64,4359876626676
14.0720206 ,Left ,59,901930711964 ,50,6579853726711 ,64,4080642784126
14.0944483 ,Left ,59,8554542942936 ,50,694074689556 ,64,3643713317693
14.1171112 ,Left ,59,8619397866468 ,50,7246948654305 ,64,3667410015404
14.1320341 ,Left ,59,8695802076716 ,50,7261848249505 ,64,3933266957834
14.1547021 ,Left ,59,8351868766705 ,50,7419575174143 ,64,4105015542667
14.1768341 ,Left ,59,8248619026788 ,50,7583188123187 ,64,409365444413
14.1918831 ,Left ,59,8511936682779 ,50,7267645719144 ,64,3901953114804
14.2146502 ,Left ,59,8765548928587 ,50,6536678978316 ,64,3659583268109
14.2370515 ,Left ,59,8474296286246 ,50,6425227230338 ,64,3595474114665
14.2518689 ,Left ,59,7672631713928 ,50,7238714257434 ,64,331662867784
14.2746021 ,Left ,59,7405655814329 ,50,8020691770842 ,64,3094639156825
14.297078 ,Left ,59,8395261163412 ,50,7744228114801 ,64,3202571605857
14.3119559 ,Left ,59,9157984396118 ,50,7234520503299 ,64,3438761857018
14.3344481 ,Left ,59,8999125193374 ,50,7160382214814 ,64,3635670227176
14.3568808 ,Left ,59,897246039274 ,50,7805599905241 ,64,3866750621221
14.3719875 ,Left ,59,9757775078417 ,50,8622679365929 ,64,385489968738
14.3944188 ,Left ,60,0937556298575 ,50,9150585394664 ,64,3935216507074
14.4171275 ,Left ,60,0710050014174 ,50,916081083355 ,64,4259956716363
14.4324941 ,Left ,59,9952890474972 ,50,9052119518558 ,64,4375195191366
14.4546444 ,Left ,59,9192934817307 ,50,8654378519339 ,64,4393580032421
14.4768545 ,Left ,59,9333901559219 ,50,8357039948835 ,64,4479663802911
14.491886 ,Left ,59,9883661770115 ,50,7518803989296 ,64,4183965968292
14.5144135 ,Left ,60,0113232557301 ,50,7305861304444 ,64,4021006228169
14.5369362 ,Left ,59,8968573618668 ,50,8317852528098 ,64,3698590244928
14.559697 ,Left ,59,8640078353682 ,50,9372866929112 ,64,3514907124875
14.5745558 ,Left ,59,9201195186021 ,50,9760142076282 ,64,3320054011528
14.5971154 ,Left ,59,9966394472702 ,50,9769796025454 ,64,3284044430198
14.6196174 ,Left ,59,9603367492796 ,50,9853216393198 ,64,3291627964886
14.6345544 ,Left ,59,9554216484853 ,51,0001079895402 ,64,301274846874
14.6571425 ,Left ,59,958221045419 ,50,967881438389 ,64,254984400656
14.6719701 ,Left ,59,9378658171705 ,50,8958175032655 ,64,2247890950731
14.6945649 ,Left ,59,931931863498 ,50,8187463752316 ,64,2248960461151
14.717032 ,Left ,59,9282712772148 ,50,7541269145278 ,64,2277518636004
14.7321356 ,Left ,59,8922821290999 ,50,6805411432856 ,64,2128768112433
14.7549791 ,Left ,59,8622722711499 ,50,5769518244143 ,64,211880022391
14.7776371 ,Left ,59,8721507600932 ,50,5220483502111 ,64,2271155345641
14.7998496 ,Left ,59,9244754989735 ,50,5398412884936 ,64,2443605819755
14.8144912 ,Left ,60,0038384854381 ,50,5494569707242 ,64,2587987410758
14.8372159 ,Left ,60,0972158785264 ,50,5303726865475 ,64,2774638031023
14.8593806 ,Left ,60,2016371614326 ,50,4599598590122 ,64,2924391998645
14.8743626 ,Left ,60,2667006267347 ,50,3603489874752 ,64,2790379458531
14.9048319 ,Left ,60,2674737993846 ,50,2980303019358 ,64,2332834058374
14.9273839 ,Left ,60,2773386024126 ,50,3116674500747 ,64,2259603917162
14.9422497 ,Left ,60,284583140517 ,50,369196643198 ,64,2396674366665
14.9571177 ,Left ,60,3062052008459 ,50,4026064497242 ,64,2050762798937
14.979819 ,Left ,60,2541457110076 ,50,3783676338968 ,64,1675540024087
14.9949388 ,Left ,60,2221851336849 ,50,3808145098173 ,64,2126630335241
15.0172539 ,Left ,60,2201326762588 ,50,4360398577185 ,64,2695263729176
15.0397891 ,Left ,60,253610469053 ,50,4978220639222 ,64,2895551067269
15.0550034 ,Left ,60,3111371955373 ,50,4964741041422 ,64,2854995371885
15.0775921 ,Left ,60,3321492740022 ,50,48418756987 ,64,2713501851336
15.1000057 ,Left ,60,310095153178 ,50,4701650318214 ,64,2490637779865
15.1145558 ,Left ,60,2992726795219 ,50,4438877314015 ,64,2471906870033
15.1371166 ,Left ,60,2982219499294 ,50,4114423387708 ,64,2520929110608
15.1596744 ,Left ,60,2819627955005 ,50,3823269538361 ,64,2529021880673
15.174431 ,Left ,60,247398153815 ,50,3614429290048 ,64,255747143097
15.19696 ,Left ,60,2071990735981 ,50,3583360588511 ,64,2546827781449
15.2201303 ,Left ,60,1705811732163 ,50,3519935503631 ,64,2575867389121
15.234944 ,Left ,60,16241231378 ,50,3463881260324 ,64,2656199526133
15.2575891 ,Left ,60,1724671178634 ,50,3407898610872 ,64,2744180186726
15.280023 ,Left ,60,1774632062242 ,50,3367682691581 ,64,2877451064322
15.2948161 ,Left ,60,1655721365282 ,50,3308535186492 ,64,3017846959818
15.3172853 ,Left ,60,1335288959238 ,50,3188761367675 ,64,3080971019285
15.3397909 ,Left ,60,1137613230129 ,50,2958013277475 ,64,310755087705
15.3545167 ,Left ,60,1161694700912 ,50,2711161191968 ,64,3145029156739
15.377211 ,Left ,60,1170038111837 ,50,2637096547414 ,64,3143233955846
15.3996946 ,Left ,60,1050680720286 ,50,2619040331065 ,64,3162145010561
15.414719 ,Left ,60,1003105629155 ,50,2667792786219 ,64,3146781266793
15.4368507 ,Left ,60,0867618778229 ,50,2743057876626 ,64,3196299831428
15.4594737 ,Left ,60,0983361028778 ,50,2917409424852 ,64,311412942232
15.4745713 ,Left ,60,088060651973 ,50,3006399905452 ,64,305778791593
15.4971114 ,Left ,60,088060651973 ,50,3006399905452 ,64,305778791593
15.519721 ,Left ,60,0890332036599 ,50,3023052664332 ,64,3065501692405
15.5347443 ,Left ,60,0753691077232 ,50,2979833361536 ,64,3051054921645
15.5569201 ,Left ,60,0643494343457 ,50,3046742074439 ,64,3009852875725
15.5796058 ,Left ,60,0438421928998 ,50,3183216657192 ,64,2883493282552
15.5943937 ,Left ,60,050919061449 ,50,3331809139252 ,64,2740776888472
15.6169081 ,Left ,60,0538681932162 ,50,334052784619 ,64,2750222933242
15.6397927 ,Left ,60,04930487056 ,50,3425139323926 ,64,2771330934996
15.6545108 ,Left ,60,0517692991694 ,50,3485854566991 ,64,2748805735862
15.6771622 ,Left ,60,0680666574709 ,50,3397755359207 ,64,2767510000324
15.6999499 ,Left ,60,0702136429663 ,50,3481250201333 ,64,2914585724866
15.7223987 ,Left ,60,0559941836514 ,50,3911017123245 ,64,2987284505109
15.7371401 ,Left ,60,0374525036896 ,50,4488496332073 ,64,3036485567815
15.7596895 ,Left ,60,0390993558049 ,50,4664567446738 ,64,3029876710393
15.7821894 ,Left ,60,0246452873785 ,50,4316366631557 ,64,3046607579786
15.7970987 ,Left ,59,9784586107403 ,50,3982031417804 ,64,3287038721349
15.8192233 ,Left ,59,9647445836212 ,50,4201417032558 ,64,3449698152839
15.8418715 ,Left ,59,9964300846279 ,50,4753426069432 ,64,3595699803669
15.8568873 ,Left ,60,0319165856795 ,50,4894899687322 ,64,3545355961436
15.8793115 ,Left ,60,022790551114 ,50,4671001975205 ,64,3522119140576
15.9020826 ,Left ,59,9721568080426 ,50,4401254077592 ,64,3574666014801
15.9169336 ,Left ,59,8870668082031 ,50,4379288323492 ,64,32881381408
15.9396112 ,Left ,59,8325677063433 ,50,4612321587282 ,64,2730929566274
15.9620945 ,Left ,59,8817064112098 ,50,4688398017422 ,64,222480409426
15.977017 ,Left ,59,9242166707391 ,50,4564056207862 ,64,2280619986134
15.9997467 ,Left ,59,975720007541 ,50,4532870063646 ,64,2471493593825
16.0222336 ,Left ,59,9773251491967 ,50,4495300771832 ,64,2549655829612
16.0371568 ,Left ,59,9931894959026 ,50,4186855136283 ,64,249740163476
16.059291 ,Left ,60,0192006838002 ,50,3996342550177 ,64,2569887624517
16.0824506 ,Left ,59,9845928984629 ,50,4638397595643 ,64,243018179494
16.0969411 ,Left ,59,9421229300464 ,50,5788132105628 ,64,2375818710291
16.119298 ,Left ,60,0191570672833 ,50,6206612370913 ,64,2264431083979
16.1418297 ,Left ,60,1215434296219 ,50,6253928706292 ,64,2301864600046
16.1643455 ,Left ,60,136675496009 ,50,6602765177511 ,64,2332630122109
16.1871392 ,Left ,60,1059650286998 ,50,7241193951956 ,64,2425289293424
16.20976 ,Left ,60,1655705399909 ,50,7600116839132 ,64,2498807369894
16.2248394 ,Left ,60,1838127068363 ,50,7867010849188 ,64,2667100149928
16.239646 ,Left ,60,1823552806461 ,50,813654866556 ,64,2982310952287
16.2622506 ,Left ,60,0920134948607 ,50,8234107461905 ,64,3098847937472
16.2772917 ,Left ,60,0543534732616 ,50,8120892334339 ,64,2947137943059
16.2996719 ,Left ,60,0815047839648 ,50,7678124194911 ,64,264346216068
16.3222781 ,Left ,60,1028689151807 ,50,6869993782293 ,64,2498603579884
16.3373833 ,Left ,60,0709376647788 ,50,6661158250003 ,64,2416758172834
16.3597148 ,Left ,59,9741295546084 ,50,7785979896807 ,64,203434183224
16.3823176 ,Left ,59,9832213538298 ,50,9057230270562 ,64,162173961777
16.3972633 ,Left ,60,0391156292708 ,50,9577980680528 ,64,1450095823618
16.4196987 ,Left ,60,0540758823704 ,50,9419243600786 ,64,1580686356147
16.4419744 ,Left ,60,0409667912742 ,50,9261215519605 ,64,1773706519328
16.4644202 ,Left ,60,0200404756156 ,50,906764658933 ,64,1759775503001
16.4718891 ,Left ,60,0272461154887 ,50,8770953331139 ,64,1582556246979
16.4947141 ,Left ,60,0517022233211 ,50,8505667519872 ,64,153439877142
16.5095545 ,Left ,60,0652493681748 ,50,8200777732638 ,64,1593543409669
16.5320577 ,Left ,60,0927602073923 ,50,7761490075394 ,64,1789221840237
16.5548006 ,Left ,60,1163794360549 ,50,711756508906 ,64,1951011408625
16.5698813 ,Left ,60,1137327396486 ,50,6121769021615 ,64,1836587695557
16.5923779 ,Left ,60,1158623734782 ,50,5293308611778 ,64,1401416581495
16.6148469 ,Left ,60,0942575836356 ,50,4979099744666 ,64,08778312265
16.6297709 ,Left ,60,1032031178659 ,50,4773458404103 ,64,0528834735759
16.6525438 ,Left ,60,1243584996017 ,50,4225199403665 ,64,0382180253124
16.6753459 ,Left ,60,1727155064186 ,50,3625787417292 ,64,0260048569327
16.6903062 ,Left ,60,1847464044818 ,50,3260209610305 ,64,0250267704795
16.7124825 ,Left ,60,1481833320966 ,50,3180561127701 ,64,032018663623
16.7348944 ,Left ,60,1468825628844 ,50,3342818124426 ,64,0461786652397
16.7497384 ,Left ,60,1750317114211 ,50,364885007089 ,64,0590941867274
16.771857 ,Left ,60,207897677827 ,50,4082104456551 ,64,0654605932941
16.7946311 ,Left ,60,2356821651055 ,50,457187264155 ,64,0508564328087
16.8095029 ,Left ,60,2253123432242 ,50,5058751365543 ,64,0270588008444
16.832682 ,Left ,60,2238056656795 ,50,5624539983748 ,63,9939507487219
16.8552393 ,Left ,60,2134965660879 ,50,6201970007289 ,63,9712977980201
16.8701714 ,Left ,60,1963257354012 ,50,6533022456863 ,63,9637799497474
16.8922464 ,Left ,60,1639907817361 ,50,6601746887905 ,63,9536601397586
16.914757 ,Left ,60,0835468990127 ,50,6468277318017 ,63,9418885530557
16.9519692 ,Left ,59,9293149730618 ,50,5824395367739 ,63,9144722033895
16.9747432 ,Left ,59,8957277967893 ,50,5373619095297 ,63,9210653625727
16.9894214 ,Left ,59,8977183602594 ,50,5563859673658 ,63,9206343577589
17.012101 ,Left ,59,9195999108258 ,50,6016623876068 ,63,9100809602017
17.0347403 ,Left ,59,9725836847615 ,50,5663303146722 ,63,9231192568354
17.0495851 ,Left ,60,0404873132414 ,50,4864959663391 ,63,9756122116897
17.072074 ,Left ,60,1318829731554 ,50,3939545395769 ,63,9892241003778
17.0945865 ,Left ,60,1710938428835 ,50,3640765560704 ,63,9701206576215
17.1319514 ,Left ,60,1041923692043 ,50,4585155503102 ,63,8709089507909
17.1547223 ,Left ,60,1501071706557 ,50,4511647594128 ,63,8289785875758
17.1920385 ,Left ,60,1044245457851 ,50,4264463238716 ,63,8942251162613
17.214702 ,Left ,60,1370223695781 ,50,45032131973 ,63,9548881095013
17.2522092 ,Left ,60,2776434021634 ,50,4312799630244 ,63,9857605392492
17.2746929 ,Left ,60,2715177977316 ,50,4220580285465 ,63,9884278192877
17.3119141 ,Left ,60,2826775844298 ,50,4023056355111 ,63,9631876925674
17.3344656 ,Left ,60,2869086746948 ,50,3870181499638 ,63,963403840353
17.3719973 ,Left ,60,2341487304737 ,50,357943816578 ,63,9738563764907
17.3944741 ,Left ,60,2031416242762 ,50,3486521144641 ,63,9632684149903
17.4319889 ,Left ,60,1896692693371 ,50,3070773125073 ,63,9585691954089
17.4545895 ,Left ,60,1905462087233 ,50,3101360571988 ,63,9687806647107
17.4921513 ,Left ,60,1780762420276 ,50,33931629093 ,64,0148479942444
17.5149721 ,Left ,60,1533450665376 ,50,3242252901691 ,64,0325185804197
17.5524904 ,Left ,60,1099346379934 ,50,2587346860673 ,64,0533313581995
17.5901896 ,Left ,60,0763554585358 ,50,260845092438 ,64,0758768965129
17.6127833 ,Left ,60,0851756621625 ,50,2741691636015 ,64,0636147881587
17.6499184 ,Left ,60,0803763056541 ,50,2817151829781 ,64,0539871291463
17.6723782 ,Left ,60,0775851656732 ,50,2830619856992 ,64,0607270787927
17.7096535 ,Left ,60,0732916692127 ,50,3065516697413 ,64,0496182574505
17.7320101 ,Left ,60,0661454618465 ,50,3143629315275 ,64,0512745275372
17.7770301 ,Left ,60,061404802646 ,50,3124427543983 ,64,069985447425
17.8295005 ,Left ,60,0686285200611 ,50,3123434840925 ,64,0733200913429
17.8520469 ,Left ,60,0861589834486 ,50,3193225603698 ,64,0764736268169
17.889408 ,Left ,60,1011346960051 ,50,3364169576137 ,64,0776534627301
17.9119024 ,Left ,60,1084244520921 ,50,3480959611635 ,64,0738660653358
17.949344 ,Left ,60,1341786335846 ,50,2931315238481 ,64,0734025318142
17.9718411 ,Left ,60,1124405704369 ,50,2684676174881 ,64,0682211158055
18.0095992 ,Left ,60,062731572169 ,50,3039685294091 ,64,0743591580466
18.0396819 ,Left ,60,0264246921629 ,50,347320739443 ,64,0985579787219
18.0922965 ,Left ,59,9308764797444 ,50,4156114656439 ,64,1161941137319
18.1299494 ,Left ,59,9800187649892 ,50,4718281284135 ,64,0462074867738
18.1523248 ,Left ,59,9874093616494 ,50,443246084786 ,64,024258410827
18.1897572 ,Left ,59,9465113604075 ,50,3246066030212 ,63,9244866994718
18.2118125 ,Left ,60,0004279973719 ,50,2798425185791 ,63,8868671828602
18.2496323 ,Left ,60,0998947990115 ,50,2594792279003 ,63,8917772558393
18.2719579 ,Left ,60,0777318794353 ,50,2658096355178 ,63,9037900688635
18.3102771 ,Left ,60,0156810442418 ,50,2671778809726 ,63,9056606910383
18.332217 ,Left ,60,016962369864 ,50,2848950448634 ,63,9183570261693
18.3473335 ,Left ,60,0156710061334 ,50,3074584986035 ,63,9279405103842
18.36979 ,Left ,59,9937323390867 ,50,3344590095737 ,63,9375352666568
18.3848494 ,Left ,59,9647546819637 ,50,3664704800079 ,63,9433821793913
18.4073194 ,Left ,59,9649423802835 ,50,3791399248044 ,63,947922846988
18.4296611 ,Left ,59,9997971777375 ,50,3606629484011 ,63,9675477590621
18.4447523 ,Left ,60,0549861280096 ,50,3595951022731 ,63,9764667381227
18.4670567 ,Left ,60,0915041614974 ,50,3859843047261 ,63,9594267914803
18.4820979 ,Left ,60,0280017615874 ,50,4053606382926 ,63,9284390056722
18.5046618 ,Left ,59,9868935186488 ,50,411001549592 ,63,907967256186
18.5269528 ,Left ,59,954467204057 ,50,3908714797152 ,63,9050556142052
18.5417657 ,Left ,59,939178440202 ,50,3734130607123 ,63,9034705126457
18.5644446 ,Left ,59,9159528315033 ,50,374792404727 ,63,881943157487
18.5871385 ,Left ,59,8860540153727 ,50,4455474274483 ,63,8666216224689
18.6095287 ,Left ,59,9461866674156 ,50,537715715883 ,63,873195645293
18.6248077 ,Left ,60,0415139782884 ,50,6155616675129 ,63,9015698137457
18.6468782 ,Left ,60,0306341533974 ,50,6985453894183 ,63,8982324098623
18.6770479 ,Left ,59,981131782887 ,50,7493816368502 ,63,8887318850856
18.6920814 ,Left ,60,0197650339824 ,50,7388331202801 ,63,8808051891587
18.715064 ,Left ,60,0264855833149 ,50,7228249467361 ,63,8855456708532
18.7299503 ,Left ,60,0319559572315 ,50,721575965789 ,63,8815934046795
18.744803 ,Left ,60,0350213417031 ,50,7298067161673 ,63,8645216372563
18.7672265 ,Left ,60,0672487651623 ,50,6845077226924 ,63,8618058021166
18.7900797 ,Left ,60,0891029176583 ,50,5955224961755 ,63,866964234257
18.8048024 ,Left ,60,0898393237604 ,50,5345734691434 ,63,8805405130764
18.8274146 ,Left ,60,0832442661566 ,50,5107495867644 ,63,8806008453385
18.8498652 ,Left ,60,1046244325491 ,50,4876652350998 ,63,8718716906928
18.8647203 ,Left ,60,1510267947427 ,50,4488176039609 ,63,8686915661206
18.887307 ,Left ,60,1760571371227 ,50,4041673409285 ,63,8737483605437
18.9100081 ,Left ,60,1860306415084 ,50,3676138920751 ,63,8743409725262
18.9249852 ,Left ,60,1970372928776 ,50,3277624336381 ,63,8492336734881
18.9472861 ,Left ,60,2064816456806 ,50,2930947579155 ,63,8258440403704
18.9699103 ,Left ,60,1962738158355 ,50,268031182314 ,63,8068338473707
18.9847627 ,Left ,60,1857973757149 ,50,2641508317743 ,63,7966881235782
19.007517 ,Left ,60,1584876110594 ,50,2605636651258 ,63,7911258683624
19.0298736 ,Left ,60,1552822918329 ,50,2368536089598 ,63,7983253597626
19.0447162 ,Left ,60,1737191741759 ,50,212704227124 ,63,8273636137336
19.0672337 ,Left ,60,1693877740948 ,50,2054705987266 ,63,8491413084349
19.0899721 ,Left ,60,1416227172627 ,50,2079962030209 ,63,8521338497446
19.1048 ,Left ,60,1321718608386 ,50,2143529886599 ,63,8594131269341
19.1272553 ,Left ,60,1277801159659 ,50,2180737691464 ,63,8624199945096
19.1497636 ,Left ,60,1083223068577 ,50,2221815246551 ,63,8560532872149
19.1645222 ,Left ,60,0432066472144 ,50,2307243945841 ,63,8462793849015
19.1872907 ,Left ,60,0196923795486 ,50,2535846968497 ,63,8297517252004
19.2097435 ,Left ,60,0113539925172 ,50,2551712583181 ,63,8153822043076
19.2243456 ,Left ,59,997584366003 ,50,264266462885 ,63,8005735183289
19.2470057 ,Left ,59,9555717928688 ,50,297836746002 ,63,7914440813493
19.2694439 ,Left ,59,9174024213047 ,50,3523211476021 ,63,7738850335118
19.2844955 ,Left ,59,9393296018846 ,50,394366730331 ,63,7599432047649
19.3071455 ,Left ,59,9209945867544 ,50,4205394395969 ,63,738486920083
19.3294369 ,Left ,59,9033689334794 ,50,4489025407813 ,63,7155342707197
19.3442941 ,Left ,59,862703915154 ,50,4818617443857 ,63,6865723886249
19.3675688 ,Left ,59,8357344520358 ,50,5099374914551 ,63,648518339276
19.3902545 ,Left ,59,8022660610031 ,50,5337128075591 ,63,6219618382078
19.405295 ,Left ,59,7956882259675 ,50,5644095351875 ,63,5906617414204
19.4271299 ,Left ,59,7977677609278 ,50,6341829479277 ,63,5578203843547
19.4497316 ,Left ,59,7902639492124 ,50,688902343569 ,63,5364009539825
19.4643629 ,Left ,59,7893189461494 ,50,7089513219352 ,63,5159341815181
19.4869111 ,Left ,59,7983263760436 ,50,7447161986816 ,63,5114022301849
19.5095251 ,Left ,59,7671468747423 ,50,8030156973172 ,63,4985380834585
19.5318499 ,Left ,59,785044388111 ,50,8223296336337 ,63,5123835849121
19.5468963 ,Left ,59,8461490176845 ,50,8005119128926 ,63,5377163215496
19.5694207 ,Left ,59,8463021594406 ,50,7498490033135 ,63,5569277406401
19.5918085 ,Left ,59,8277042526313 ,50,6975292516953 ,63,5632960101176
19.6067711 ,Left ,59,8486818625979 ,50,662771335744 ,63,5575063760339
19.6294487 ,Left ,59,8657115406164 ,50,6191719326344 ,63,5372922161148
19.6519081 ,Left ,59,8840585433924 ,50,5792279209281 ,63,5158761457433
19.6672946 ,Left ,59,9133492468964 ,50,5565252650297 ,63,4977730704414
19.6893456 ,Left ,59,9094063486932 ,50,5350105633836 ,63,4788671005144
19.7118332 ,Left ,59,9005244885189 ,50,5223696368876 ,63,4597935944903
19.7269835 ,Left ,59,8889456052982 ,50,5337958600288 ,63,4392515437818
19.749407 ,Left ,59,8414428278346 ,50,5537378960238 ,63,406870165599
19.7723855 ,Left ,59,7918883935094 ,50,5642937286322 ,63,3869605014063
19.7877305 ,Left ,59,7508150925261 ,50,5642442498159 ,63,4092849471605
19.8100129 ,Left ,59,7259741119013 ,50,5435850011716 ,63,4386368773794
19.8323513 ,Left ,59,6902515359773 ,50,4971118991365 ,63,4447808418267
19.8472283 ,Left ,59,6883416714578 ,50,4507184835748 ,63,4385772306278
19.8696885 ,Left ,59,713120889373 ,50,4295600474714 ,63,4291853050908
19.8922099 ,Left ,59,7903140366568 ,50,4383214798215 ,63,4127652554073
19.9072813 ,Left ,59,8877278106102 ,50,4694340254436 ,63,418079972662
19.9294762 ,Left ,60,0137678274162 ,50,4633529020705 ,63,4425930459109
19.9521815 ,Left ,60,1046489848727 ,50,3888464800887 ,63,4796189387575
19.9671313 ,Left ,60,1060353662016 ,50,3430964122613 ,63,5069896001799
19.9895531 ,Left ,60,0613483447598 ,50,349144219755 ,63,5313403921395
20.0119171 ,Left ,59,9921625788636 ,50,3366597444738 ,63,5408454891486
20.0268852 ,Left ,59,9809679453993 ,50,3058844170187 ,63,5600709837037
20.0494704 ,Left ,59,9483472680197 ,50,2982117606637 ,63,5457291370941
20.0719498 ,Left ,59,8787567050033 ,50,3159934845434 ,63,5052139817824
20.0870043 ,Left ,59,8327087508064 ,50,3455578721849 ,63,4828768748921
20.1095309 ,Left ,59,790205603585 ,50,414619920931 ,63,5098807319447
20.1319185 ,Left ,59,794274981553 ,50,4918650623974 ,63,5379624944405
20.1469204 ,Left ,59,8401887417329 ,50,5112165569996 ,63,5604612197042
20.1694241 ,Left ,59,9005368462446 ,50,4573830013983 ,63,5883909684853
20.1920484 ,Left ,59,9338176697302 ,50,380204480238 ,63,6129699901353
20.2074369 ,Left ,59,9474333313634 ,50,3178618405035 ,63,6258716668553
20.2298295 ,Left ,59,9721040071892 ,50,2980971925996 ,63,6257239926385
20.2518281 ,Left ,60,0041016265513 ,50,3015557080436 ,63,6050410740205
20.266886 ,Left ,60,022563718481 ,50,2963854337015 ,63,5950168609488
20.2896627 ,Left ,60,0147345309334 ,50,2850830237759 ,63,5923171720001
20.3118788 ,Left ,59,9995930389916 ,50,2792305530937 ,63,5836757959203
20.32767 ,Left ,59,9737335427639 ,50,2611330425915 ,63,571462326064
20.3493874 ,Left ,59,9719049596844 ,50,2308729905345 ,63,5768769396033
20.3720281 ,Left ,59,9664409304458 ,50,2239315767145 ,63,5915781159256
20.386885 ,Left ,59,9565351328283 ,50,2449001611964 ,63,6103655923016
20.4094515 ,Left ,59,9674650759353 ,50,2781204772197 ,63,6253269536405
20.4321434 ,Left ,59,9689631486292 ,50,3050107982873 ,63,643080405391
20.4545683 ,Left ,59,9608604934493 ,50,3106195984582 ,63,659591172356
20.4695636 ,Left ,59,9555620856626 ,50,2995647561155 ,63,6729699167669
20.4918407 ,Left ,59,9457870134265 ,50,2899640851726 ,63,6817467273812
20.5145075 ,Left ,59,9482804502844 ,50,2919535915845 ,63,6781528399876
20.5295359 ,Left ,59,9389809789793 ,50,2981797385324 ,63,6720141578934
20.5520432 ,Left ,59,947681348146 ,50,3075559892887 ,63,671849251164
20.5746518 ,Left ,59,963073718275 ,50,3155191911041 ,63,6747253887978
20.5895778 ,Left ,59,9743353186655 ,50,3189261874352 ,63,6779353827603
20.6121645 ,Left ,59,9732745214244 ,50,3213736926635 ,63,678515510055
20.6350075 ,Left ,59,9663275943332 ,50,3310485057812 ,63,6781496901455
20.6502791 ,Left ,59,9663275943332 ,50,3310485057812 ,63,6781496901455
20.6725087 ,Left ,59,9745406996028 ,50,337667067638 ,63,6817735705438
20.7023952 ,Left ,59,9714564117808 ,50,3499437581306 ,63,6830948309796
20.7173355 ,Left ,59,9451884374076 ,50,3465709006131 ,63,6823994991349
20.7550166 ,Left ,59,9018910297516 ,50,3738878659752 ,63,6706627910206
20.7700234 ,Left ,59,8531680839872 ,50,4201759847255 ,63,6803351947178
20.7921685 ,Left ,59,8340049257923 ,50,4351232493482 ,63,6981224173728
20.8148916 ,Left ,59,8068293051832 ,50,4417929221611 ,63,7067100151363
20.8299484 ,Left ,59,7872863345721 ,50,4914545808923 ,63,7063224895843
20.8522355 ,Left ,59,7857486225094 ,50,5573018443551 ,63,7008364367988
20.8750013 ,Left ,59,8193992445066 ,50,5847149499836 ,63,6927199992694
20.8897107 ,Left ,59,821922609267 ,50,5526954253352 ,63,6759158151015
20.9121629 ,Left ,59,7806565185574 ,50,5262886871184 ,63,6762590392764
20.9344094 ,Left ,59,686041954247 ,50,5200920416497 ,63,6613984435859
20.9494586 ,Left ,59,6080217405366 ,50,5308857101476 ,63,6455950524037
20.971771 ,Left ,59,6697597632289 ,50,5437469569027 ,63,6307154386094
20.9945988 ,Left ,59,7802814521042 ,50,5063468478063 ,63,6474545854312
21.0094412 ,Left ,59,829628584269 ,50,4738218581068 ,63,6582186495471
21.0319546 ,Left ,59,8080847732781 ,50,4660035759069 ,63,6434210309088
21.0544778 ,Left ,59,8244423615254 ,50,4306899314238 ,63,6098370567476
21.0694888 ,Left ,59,823123705398 ,50,3928004068707 ,63,5975200787187
21.0919566 ,Left ,59,7955138213148 ,50,4004191446025 ,63,5844904868842
21.1143715 ,Left ,59,7836127640772 ,50,4548927542993 ,63,5778112124248
21.1294035 ,Left ,59,8279111979252 ,50,4946944277931 ,63,5731634167759
21.1520731 ,Left ,59,9081262858636 ,50,4989096168953 ,63,5873931728825
21.1748321 ,Left ,59,9247486408526 ,50,5233521252732 ,63,6070288284156
21.18987 ,Left ,59,9161247640408 ,50,5666567340958 ,63,6242753188083
21.2122357 ,Left ,59,9550970642954 ,50,5559931102147 ,63,6318196532902
21.2345823 ,Left ,59,9679404724511 ,50,555818573063 ,63,6561938929915
21.2497833 ,Left ,59,9655054330264 ,50,6161070679184 ,63,6757985557235
21.2717974 ,Left ,59,932953907281 ,50,6871902321649 ,63,6600974556693
21.2944209 ,Left ,59,9065340817519 ,50,7012849754971 ,63,6761942280283
21.3094567 ,Left ,59,9219408088783 ,50,6663562780571 ,63,6782919074917
21.332149 ,Left ,59,8903475993901 ,50,6310568530373 ,63,6661725804953
21.3547536 ,Left ,59,7812438330433 ,50,6647093082156 ,63,6432779079654
21.377082 ,Left ,59,7848126748996 ,50,7522951793206 ,63,6232284281313
21.3920152 ,Left ,59,8415203172028 ,50,8268769813857 ,63,5968987649245
21.4147523 ,Left ,59,8332340338505 ,50,8629644291195 ,63,580816006055
21.4373454 ,Left ,59,8255599509082 ,50,8611520081928 ,63,5675741629031
21.4520129 ,Left ,59,8154555195685 ,50,8093563402768 ,63,569064642232
21.4745356 ,Left ,59,7873131367907 ,50,7284092115227 ,63,5576519552025
21.4969235 ,Left ,59,7668990375518 ,50,6517323545776 ,63,5383648338889
21.5119646 ,Left ,59,7385499288702 ,50,5721762368083 ,63,5326306824822
21.5345847 ,Left ,59,7121078865529 ,50,4680734451288 ,63,5530230621758
21.5570701 ,Left ,59,7185271818565 ,50,4083180328112 ,63,5838487780121
21.5720263 ,Left ,59,7159482045258 ,50,4540055352878 ,63,5912386222022
21.5950287 ,Left ,59,7255666403989 ,50,5202980059622 ,63,5871939473046
21.6175748 ,Left ,59,7859388099605 ,50,5175409862767 ,63,5670499438837
21.6324793 ,Left ,59,8866666625869 ,50,456319377914 ,63,5611114306117
21.6547927 ,Left ,60,0021111839475 ,50,3915142571017 ,63,5447876834044
21.6772381 ,Left ,60,0431746156165 ,50,3419203039209 ,63,4945627102022
21.6921047 ,Left ,60,061152165842 ,50,3063272754133 ,63,440858983944
21.7145138 ,Left ,60,0207849359619 ,50,2867834935025 ,63,3966969113163
21.7368906 ,Left ,60,0014555081999 ,50,3196359109867 ,63,3778439151752
21.7518738 ,Left ,60,0138056985411 ,50,3773660648929 ,63,3764639525868
21.7745485 ,Left ,60,0399128615291 ,50,3864669475098 ,63,3745917597226
21.7970839 ,Left ,60,05646831305 ,50,3620478415671 ,63,4072017526439
21.8121288 ,Left ,60,0280150002 ,50,4031179291108 ,63,436196091809
21.8346154 ,Left ,60,0039160507912 ,50,4882835629475 ,63,4494129137601
21.8573441 ,Left ,60,0608251281067 ,50,5171124501447 ,63,4706462414837
21.8721389 ,Left ,60,1240082895308 ,50,4908555869358 ,63,4922967461324
21.8943858 ,Left ,60,1543524215959 ,50,4775096726419 ,63,4969976136653
21.9169459 ,Left ,60,1366360854255 ,50,4696315465434 ,63,4917060755163
21.9317403 ,Left ,60,1196629333355 ,50,4571764689514 ,63,504901361244
21.9544246 ,Left ,60,1169610162856 ,50,4529813026603 ,63,5141719629044
21.9768903 ,Left ,60,0872259799589 ,50,44034794835 ,63,5320185045495
21.9919876 ,Left ,60,0561351680763 ,50,4155853692197 ,63,5479399885765
22.0146763 ,Left ,60,0155076540331 ,50,3962549825271 ,63,5595647940017
22.0372547 ,Left ,60,0070906760215 ,50,3759014330424 ,63,5649724328208
22.0520423 ,Left ,60,0052257320307 ,50,3469761835421 ,63,5662628058163
22.0743455 ,Left ,60,0060746119372 ,50,3181738859073 ,63,5702570612184
22.0969371 ,Left ,60,0032064763153 ,50,2925964017834 ,63,5837637120005
22.1121966 ,Left ,59,9744181957332 ,50,2831209291192 ,63,5987039849021
22.134667 ,Left ,59,9328642071151 ,50,2739376617664 ,63,6028177530109
22.1572117 ,Left ,59,9121413193838 ,50,2384087175066 ,63,6172225405484
22.1722463 ,Left ,59,9355035329944 ,50,2176291723148 ,63,6274127168886
22.1946807 ,Left ,59,9361855054967 ,50,2171814922945 ,63,633928673184
22.2169642 ,Left ,59,9351115845256 ,50,2322836450342 ,63,6389606323459
22.2244246 ,Left ,59,9386699491549 ,50,2547073151304 ,63,6398802963957
22.2471209 ,Left ,59,9378251889072 ,50,2579532616783 ,63,6386987135433
22.2698007 ,Left ,59,9428541109475 ,50,2615280847245 ,63,6471310113356
22.2848398 ,Left ,59,9437806800596 ,50,2632115518834 ,63,6478787618859
22.3072795 ,Left ,59,9361780629416 ,50,2742575185693 ,63,6525979614608
22.3296386 ,Left ,59,9310176514921 ,50,295024497096 ,63,6586302738015
22.3446993 ,Left ,59,9422398885914 ,50,3190547536197 ,63,6593549074868
22.3671143 ,Left ,59,9490387900555 ,50,3354679902806 ,63,6545886801156
22.3897565 ,Left ,59,9466594881141 ,50,3512985038545 ,63,6503850971523
22.4046507 ,Left ,59,9382835933319 ,50,3605367472414 ,63,6409828327139
22.42696 ,Left ,59,9340648439617 ,50,3523796217086 ,63,6377162966214
22.4496434 ,Left ,59,9229476133451 ,50,3461568409374 ,63,6291683769363
22.4645819 ,Left ,59,9229476133451 ,50,3461568409374 ,63,6291683769363
22.4869987 ,Left ,59,9368223042353 ,50,3487779576991 ,63,6234491210566
22.5094172 ,Left ,59,9308820050366 ,50,3663940944559 ,63,6193958129906
22.5245179 ,Left ,59,9279144004025 ,50,3718661206626 ,63,6273953138873
22.5469747 ,Left ,59,8887403579359 ,50,363531421495 ,63,6452286008873
22.5695563 ,Left ,59,8667461902277 ,50,3397207396285 ,63,6744195159149
22.584622 ,Left ,59,8429804082667 ,50,3627009105009 ,63,6846601079889
22.6071219 ,Left ,59,8342414441976 ,50,4191032959238 ,63,6905537980107
22.6296789 ,Left ,59,8772804619397 ,50,4516705865759 ,63,6969639415978
22.6447462 ,Left ,59,922351660864 ,50,4356393826012 ,63,7033382694767
22.6671321 ,Left ,59,9386364415688 ,50,4376679769705 ,63,7154958304821
22.6896442 ,Left ,59,8961271212416 ,50,4205542672318 ,63,7097257033255
22.7046707 ,Left ,59,8790429518058 ,50,4126868937763 ,63,6955128392985
22.7271826 ,Left ,59,8677512398484 ,50,4209970798874 ,63,6851618580182
22.7495986 ,Left ,59,8087265388621 ,50,4387198215479 ,63,6568752675763
22.787128 ,Left ,59,8867077292761 ,50,4660028641238 ,63,6449222279216
22.8096563 ,Left ,59,9338788380096 ,50,4025210450434 ,63,6761340524324
22.8470476 ,Left ,59,8989358152757 ,50,3627509641204 ,63,6690825631196
22.8697473 ,Left ,59,9128773143735 ,50,3498846911799 ,63,6535239582343
22.9070769 ,Left ,59,8888764329218 ,50,4416403699557 ,63,6459503159283
22.9295405 ,Left ,59,9228365517884 ,50,49549048251 ,63,6332630246484
22.9669783 ,Left ,59,996125531891 ,50,5173428535223 ,63,6366863293306
22.9897956 ,Left ,59,9753181209815 ,50,559315498783 ,63,6497683045666
23.0347185 ,Left ,59,9800792072415 ,50,546915842737 ,63,6597129384358
23.0572511 ,Left ,59,9832807332927 ,50,5666846179908 ,63,6779941881676
23.0871363 ,Left ,59,9343103311102 ,50,6800845502247 ,63,6603962401211
23.1096627 ,Left ,59,9074960078463 ,50,6768938740605 ,63,6819106857253
23.1470956 ,Left ,59,9575360411716 ,50,5114400764448 ,63,7181487335551
23.1695144 ,Left ,59,8419151940134 ,50,5631745832148 ,63,713897860753
23.2070971 ,Left ,59,8746091852211 ,50,861429535164 ,63,6566534812445
23.2294066 ,Left ,59,9323551651547 ,50,909489785864 ,63,6423399968082
23.2673 ,Left ,59,8789331210552 ,50,8871091102647 ,63,6257115371536
23.2898883 ,Left ,59,8379824205991 ,50,8286730461977 ,63,5970140249428
23.3271535 ,Left ,59,8575862555562 ,50,7043028053841 ,63,5770554675951
23.3496261 ,Left ,59,8179682770426 ,50,6593925768125 ,63,5559812449993
23.3872819 ,Left ,59,771794182482 ,50,567268281706 ,63,6010131131038
23.4169332 ,Left ,59,7682407490957 ,50,5898574564356 ,63,6120726691308
23.4546672 ,Left ,59,8988764522846 ,50,5628870847943 ,63,6113149352326
23.4695616 ,Left ,59,9652288789568 ,50,5106445897066 ,63,5892532932323
23.5072496 ,Left ,60,0317612079841 ,50,348036064107 ,63,5327362739061
23.529648 ,Left ,60,0750130849807 ,50,2986298274885 ,63,4942512904502
23.5668258 ,Left ,60,1032159763369 ,50,3476587720685 ,63,4340989395279
23.6051351 ,Left ,60,0423199012733 ,50,3223443471586 ,63,4455184157545
23.6273268 ,Left ,60,0468443986753 ,50,3213351464136 ,63,4772362213253
23.6647996 ,Left ,60,1078947855079 ,50,3957420852808 ,63,5226508643509
23.6872235 ,Left ,60,1589422135695 ,50,3831718411315 ,63,5403169572287
23.7245633 ,Left ,60,2099011214533 ,50,3576313987877 ,63,526255506061
23.7471656 ,Left ,60,2010797706747 ,50,3451834280076 ,63,5070875325992
23.7844593 ,Left ,60,1366289118298 ,50,3360052757255 ,63,4938770018646
23.8071883 ,Left ,60,1088104322236 ,50,3217239299061 ,63,5004351711174
23.8448856 ,Left ,60,0925939783808 ,50,2873107844724 ,63,5110636462422
23.867327 ,Left ,60,090302293134 ,50,2542508436317 ,63,5200736799988
23.9047124 ,Left ,60,0851749636487 ,50,2690053343635 ,63,5443996650437
23.9271511 ,Left ,60,0773098736655 ,50,2787184474099 ,63,5664693819419
23.9644945 ,Left ,60,0706694466148 ,50,2266991478057 ,63,6042809378022
23.987169 ,Left ,60,0617567740029 ,50,1895874067202 ,63,6130448681055
24.0249456 ,Left ,59,9813072566748 ,50,1882867332527 ,63,6046406967034
24.0472172 ,Left ,59,991817566052 ,50,201049825264 ,63,6059342368908
24.0846959 ,Left ,60,0145298025663 ,50,2058239956433 ,63,6223020836727
24.0995546 ,Left ,60,0011434915892 ,50,1957347900857 ,63,6236534044886
24.122005 ,Left ,59,9811511221146 ,50,191984311222 ,63,6215745616912
24.1446511 ,Left ,59,9872068199122 ,50,2061868798312 ,63,6182718342671
24.1595183 ,Left ,59,9947502831163 ,50,2284272673993 ,63,6155467445479
24.1821447 ,Left ,59,9919622511895 ,50,247587972536 ,63,6144167923609
24.2045496 ,Left ,60,0137631569635 ,50,2524657562631 ,63,6104506035952
24.2194101 ,Left ,59,9948838101275 ,50,2485089741065 ,63,6153384781754
24.2419188 ,Left ,59,9854041200147 ,50,2561725556664 ,63,6185615936082
24.2645714 ,Left ,59,988325655517 ,50,257093565114 ,63,6194835902337
24.2797539 ,Left ,59,9740234833065 ,50,2708713352754 ,63,6171729355627
24.3024103 ,Left ,59,9632261673634 ,50,2932598488251 ,63,6115949047835
24.3248774 ,Left ,59,9473878701319 ,50,3295978454057 ,63,6187534603758
24.3397766 ,Left ,59,9255034634345 ,50,3900880252098 ,63,6441606454764
24.3618013 ,Left ,59,88183875607 ,50,410234083717 ,63,6638324632393
24.384774 ,Left ,59,859381508532 ,50,4018701905858 ,63,6732906456863
24.3995277 ,Left ,59,8663569232252 ,50,4358519570367 ,63,6897340705657
24.4221302 ,Left ,59,8878104862576 ,50,4904841374779 ,63,6932668220845
24.4449014 ,Left ,59,9243452151462 ,50,5125818779885 ,63,6905768375482
24.4598128 ,Left ,59,9176878213464 ,50,4905795208328 ,63,6845401630498
24.4897176 ,Left ,59,8808247726923 ,50,474466506082 ,63,6823423768466
24.5121438 ,Left ,59,781584807129 ,50,4929868886666 ,63,6522596714213
24.5273149 ,Left ,59,7255480229866 ,50,5088898963995 ,63,6329163858728
24.5648318 ,Left ,59,8953447823286 ,50,4988002327122 ,63,6477610627744
24.5797915 ,Left ,59,9617632247547 ,50,4745182298031 ,63,6571870230314
24.6018507 ,Left ,59,9167013672746 ,50,4697480425052 ,63,6397756274768
24.6244639 ,Left ,59,9566485542008 ,50,4365251494705 ,63,6082002284382
24.6395276 ,Left ,59,9732402405206 ,50,4049849747516 ,63,5781422579458
24.6621498 ,Left ,59,9537512013461 ,50,4192964106088 ,63,5686877850651
24.6845429 ,Left ,59,9140673908918 ,50,4724957885841 ,63,5615503107416
24.699699 ,Left ,59,987841113608 ,50,4869610160995 ,63,5470945601409
24.721959 ,Left ,60,0188808030289 ,50,4386066535608 ,63,5429505444376
24.7444314 ,Left ,60,0544429010767 ,50,4295942108599 ,63,5543243233062
24.7595414 ,Left ,60,0955891793522 ,50,4729990255309 ,63,5735718605738
24.7818659 ,Left ,60,118953910409 ,50,503860047084 ,63,5762618853855
24.8047326 ,Left ,60,1509856128577 ,50,5416569610749 ,63,5966538957262
24.8197435 ,Left ,60,140197767173 ,50,5988162303371 ,63,6297370788727
24.8419717 ,Left ,60,073281936732 ,50,6341134050453 ,63,6281008370851
24.8648682 ,Left ,60,0307626937969 ,50,6516145061892 ,63,6335255738092
24.8795231 ,Left ,60,0087661363058 ,50,6550075571979 ,63,6399026299371
24.9018299 ,Left ,59,9897115510482 ,50,5943852340972 ,63,6391075189771
24.9244768 ,Left ,59,980794409868 ,50,5439848480237 ,63,6318825350752
24.939652 ,Left ,59,9286340422606 ,50,5982156740245 ,63,5986461628683
24.962014 ,Left ,59,8860999469339 ,50,695788732247 ,63,5567818654495
24.9843275 ,Left ,59,9140118218071 ,50,765091537573 ,63,5331323910166
25.0004127 ,Left ,59,9431606810952 ,50,7631239309038 ,63,5261860289289
25.0226488 ,Left ,59,942298173475 ,50,7274905627166 ,63,5119631749763
25.0521453 ,Left ,59,8753039114295 ,50,6842688009537 ,63,4956477688041
25.0672934 ,Left ,59,8521899662629 ,50,6464008484642 ,63,4612674198188
25.0894533 ,Left ,59,8551400278008 ,50,5859094992382 ,63,4286331315081
25.1043153 ,Left ,59,8452942780428 ,50,5030047784072 ,63,4066540698858
25.119563 ,Left ,59,8066694215327 ,50,4303351298357 ,63,399054859485
25.1420286 ,Left ,59,7877146583381 ,50,3838232697821 ,63,3968882467297
25.1645024 ,Left ,59,7499804437882 ,50,3461171073515 ,63,3923738955376
25.1875077 ,Left ,59,7279593640361 ,50,3510225017835 ,63,3794798189365
25.2021825 ,Left ,59,7129475986671 ,50,4140011997439 ,63,386408215179
25.224642 ,Left ,59,7240170160939 ,50,5038338278395 ,63,3835108332565
25.2470422 ,Left ,59,7612582294516 ,50,5480583222787 ,63,3811358335565
25.2621243 ,Left ,59,8317418854488 ,50,5251553958907 ,63,3984051086207
25.284813 ,Left ,59,8575352774243 ,50,4421684902051 ,63,4043037155875
25.3069486 ,Left ,59,921200224781 ,50,3771696417772 ,63,3997103081341
25.3223161 ,Left ,59,9576672062198 ,50,3629246098802 ,63,3875124889281
25.3450899 ,Left ,59,9978160899201 ,50,3898046533286 ,63,3669142286019
25.3673447 ,Left ,60,0548521273959 ,50,3850225786546 ,63,3453203211629
25.3820995 ,Left ,60,1234203374111 ,50,359929938222 ,63,3140226109098
25.404543 ,Left ,60,131966436907 ,50,315145829024 ,63,2960775292498
25.4272754 ,Left ,60,1263791953575 ,50,2926224937204 ,63,2965394112212
25.44193 ,Left ,60,1193719156571 ,50,2892822577601 ,63,3034445785111
25.4645715 ,Left ,60,1319498923469 ,50,2887694347091 ,63,3005413488851
25.4871767 ,Left ,60,1449127118741 ,50,2822263415748 ,63,30251124776
25.5021558 ,Left ,60,1656502299478 ,50,2713680189969 ,63,322420215711
25.5248975 ,Left ,60,1709701091348 ,50,2675302308843 ,63,3396916758546
25.5468473 ,Left ,60,1241107816351 ,50,2781074314643 ,63,3518695568992
25.5619133 ,Left ,60,099102695467 ,50,3523050168149 ,63,3368425165153
25.5844748 ,Left ,60,0591755552697 ,50,4123395758468 ,63,3237212402377
25.6069948 ,Left ,60,0417665433097 ,50,4363376045043 ,63,3289665315099
25.6220606 ,Left ,60,0610214163496 ,50,4331016626456 ,63,3331132778691
25.6445271 ,Left ,60,0968264686818 ,50,4077548314556 ,63,334825305647
25.6670165 ,Left ,60,1263314022927 ,50,3590114229848 ,63,3344397543606
25.6895812 ,Left ,60,1258928327465 ,50,3386625315029 ,63,3340156131109
25.711927 ,Left ,60,1273997589778 ,50,3337746540821 ,63,3418830223775
25.7419047 ,Left ,60,1493267440153 ,50,3064792041245 ,63,3606882674887
25.7645731 ,Left ,60,1532970544569 ,50,3000513748367 ,63,3614369345239
25.7871575 ,Left ,60,1327599079527 ,50,2889342875998 ,63,34780934553
25.8020862 ,Left ,60,1151027921737 ,50,272452351164 ,63,3395250572663
25.824732 ,Left ,60,1060164183637 ,50,2571179957136 ,63,3242680885159
25.8472473 ,Left ,60,0882383983904 ,50,2233018565125 ,63,3215042182243
25.8624152 ,Left ,60,0808724168221 ,50,2009848384216 ,63,3241345791628
25.8850014 ,Left ,60,0897794601358 ,50,2039474354549 ,63,3443948379849
25.9074491 ,Left ,60,0894426583488 ,50,2227379548204 ,63,3614897196145
25.9222776 ,Left ,60,1080127734834 ,50,2444746470539 ,63,3740359701889
25.9447907 ,Left ,60,0981123546344 ,50,2630119550248 ,63,3719430271891
25.9673813 ,Left ,60,0802915229585 ,50,2743200193368 ,63,3684693424207
25.9822416 ,Left ,60,0492849930459 ,50,268600089835 ,63,3728933785324
26.0049782 ,Left ,60,0433255941775 ,50,2556928388785 ,63,3721241262442
26.0274448 ,Left ,60,028693061782 ,50,2484786140106 ,63,3717494592499
26.0422125 ,Left ,60,0296034076015 ,50,2501670399403 ,63,3724979783966
26.0649714 ,Left ,60,0237180299353 ,50,2435344369368 ,63,3673419848599
26.0873581 ,Left ,60,0185588888277 ,50,2427148372117 ,63,3642598155384
26.1022552 ,Left ,60,0163672117427 ,50,2453520033287 ,63,3578597564848
26.1247239 ,Left ,60,0246929778507 ,50,2492608611459 ,63,3561351936223
26.1475042 ,Left ,60,034004029683 ,50,2609601301744 ,63,3544956771791
26.1696659 ,Left ,60,0462800085873 ,50,2785304698286 ,63,3533804274728
26.1843182 ,Left ,60,0475255191394 ,50,2907033152508 ,63,3553010800754
26.2077857 ,Left ,60,0532965322915 ,50,2863056585702 ,63,3615482245781
26.2302965 ,Left ,60,0667804506061 ,50,2896802769678 ,63,3669287901187
26.2450275 ,Left ,60,0523467940619 ,50,3020006989561 ,63,3686141717863
26.267289 ,Left ,60,0466765770948 ,50,3363457939177 ,63,3614098464017
26.2894474 ,Left ,60,0175670583941 ,50,3755167719988 ,63,3630374979729
26.3044717 ,Left ,60,0110201053036 ,50,4023375436365 ,63,3865397548571
26.3269356 ,Left ,59,9976825283446 ,50,3849896038587 ,63,4232248589147
26.3496964 ,Left ,59,9699367881621 ,50,3666572925346 ,63,4418395614424
26.3644176 ,Left ,59,9340231337993 ,50,3999720765 ,63,4583647458595
26.3870843 ,Left ,59,9414377177333 ,50,4720139058402 ,63,4541396082566
26.4097728 ,Left ,59,9559800320775 ,50,5024948686018 ,63,4442655802973
26.424797 ,Left ,59,9587077963548 ,50,4797548080755 ,63,4417343565994
26.4472971 ,Left ,59,942600114882 ,50,3960064811503 ,63,4384499213133
26.4696546 ,Left ,59,9073645032333 ,50,3602364265276 ,63,416716795012
26.4843703 ,Left ,59,8682600243083 ,50,3827292922817 ,63,3867861245127
26.5075032 ,Left ,59,8360228330989 ,50,4540419540642 ,63,3467975612453
26.5301331 ,Left ,59,9172505483482 ,50,5022890303319 ,63,3285658075567
26.5447997 ,Left ,59,9763355092641 ,50,4613991890635 ,63,3533683920838
26.5672948 ,Left ,60,0398983017359 ,50,4535426492881 ,63,3676880245283
26.5901169 ,Left ,60,0163201379457 ,50,4732746078689 ,63,3459641053894
26.6047759 ,Left ,60,0575188508486 ,50,4468239648853 ,63,3012232308395
26.6272537 ,Left ,60,060091061413 ,50,3538425434004 ,63,2822647423012
26.6501147 ,Left ,60,0548287625183 ,50,3418015782837 ,63,2839428182174
26.6644533 ,Left ,60,0249016598931 ,50,4416151027592 ,63,2787727185541
26.6876523 ,Left ,60,0181457995874 ,50,5172020250804 ,63,2760426446448
26.7103324 ,Left ,60,1332281877511 ,50,505175163433 ,63,2616323503913
26.7249573 ,Left ,60,223890940164 ,50,5033856094736 ,63,2890159396121
26.747552 ,Left ,60,1682722837714 ,50,5853046892947 ,63,3120043829588
26.7700094 ,Left ,60,1149877397499 ,50,6423644087926 ,63,3337086819198
26.7846694 ,Left ,60,1467603117697 ,50,6562268791231 ,63,3660531304616
26.8072145 ,Left ,60,1873811968623 ,50,6767389875619 ,63,4065619803053
26.8296524 ,Left ,60,1562186179688 ,50,7070677176688 ,63,4183251446258
26.8444359 ,Left ,60,1127060808754 ,50,7184537702602 ,63,4214373992056
26.8674778 ,Left ,60,0479617324651 ,50,694071959628 ,63,4337558042468
26.8902467 ,Left ,60,0538979974891 ,50,654888283652 ,63,4150106092458
26.9048668 ,Left ,60,0214733170427 ,50,6155193028903 ,63,4077001463411
26.9274859 ,Left ,59,9590157061503 ,50,6553220597594 ,63,381270939259
26.9500214 ,Left ,59,9519110354109 ,50,7469675337537 ,63,3570939971223
26.9649078 ,Left ,60,0082006784881 ,50,8263123737413 ,63,3328912888498
26.9870151 ,Left ,60,0254311881709 ,50,8520819957737 ,63,3266121716626
27.0096555 ,Left ,60,028668645901 ,50,8690050423634 ,63,3263205677908
27.024663 ,Left ,59,9939597664651 ,50,897403769847 ,63,3211821522604
27.0472306 ,Left ,59,98285050218 ,50,8869357147162 ,63,3110292924375
27.0693981 ,Left ,60,0052423139956 ,50,8266174161017 ,63,3146672073906
27.0919196 ,Left ,60,0007627199463 ,50,783187328417 ,63,3107607754132
27.1069015 ,Left ,59,9392299316362 ,50,7517064857236 ,63,2676013952212
27.1303841 ,Left ,59,8553572540197 ,50,6522321128436 ,63,2588336218279
27.1525995 ,Left ,59,9068651323303 ,50,5768336414336 ,63,2912413992727
27.1675082 ,Left ,59,908869577995 ,50,5834278496919 ,63,3118361454448
27.1900414 ,Left ,59,9305884622289 ,50,6252003858651 ,63,3176489146544
27.2127857 ,Left ,59,9827795008314 ,50,6078199312225 ,63,329496412103
27.2274469 ,Left ,60,0766254757731 ,50,5707941299024 ,63,3368993349362
27.249898 ,Left ,60,1780792020166 ,50,5109358527862 ,63,3290188740353
27.2724114 ,Left ,60,2449185601037 ,50,4141256319262 ,63,3068634159751
27.2872985 ,Left ,60,2702565254475 ,50,3410530497539 ,63,2773269528649
27.309405 ,Left ,60,2922138577773 ,50,3743619598961 ,63,2229468611201
27.3320476 ,Left ,60,2678421871907 ,50,449196142319 ,63,1706682901719
27.3471292 ,Left ,60,2156806350506 ,50,4831948367712 ,63,1558157001937
27.3694403 ,Left ,60,188971753106 ,50,4584957392849 ,63,1697507916217
27.3918891 ,Left ,60,1776889392198 ,50,4513479200402 ,63,2015240093089
27.4068806 ,Left ,60,1637335147805 ,50,5158925716571 ,63,2142378355452
27.4295139 ,Left ,60,1945375981683 ,50,5883747878531 ,63,2325582854396
27.4521299 ,Left ,60,2419328826776 ,50,5950370472267 ,63,2448419058293
27.4671743 ,Left ,60,3177108932649 ,50,5672530938623 ,63,2503473607075
27.4895601 ,Left ,60,3031230478485 ,50,5371516665778 ,63,2441641652132
27.5121506 ,Left ,60,2917240278575 ,50,5074491305384 ,63,2412270029099
27.526965 ,Left ,60,2754000638166 ,50,4761462246264 ,63,2411450882885
27.5571374 ,Left ,60,2726994291003 ,50,4545571554457 ,63,2423368375426
27.5796944 ,Left ,60,269859823082 ,50,4406460532315 ,63,2485051724105
27.5946768 ,Left ,60,252800593123 ,50,42281874792 ,63,2349255934607
27.6097004 ,Left ,60,2418203183063 ,50,403583978293 ,63,2334328366693
27.6318873 ,Left ,60,2261637711055 ,50,3893382583542 ,63,2441972542878
27.6468736 ,Left ,60,217113953368 ,50,3823181764081 ,63,2357606191565
27.6697639 ,Left ,60,2233073372873 ,50,3718689673517 ,63,2468323694529
27.6922115 ,Left ,60,2220306131841 ,50,3806075290788 ,63,2563247537494
27.7072326 ,Left ,60,2068237354252 ,50,3892543974418 ,63,2634252417391
27.7298373 ,Left ,60,1806372875791 ,50,3773155357525 ,63,2730712393321
27.7522401 ,Left ,60,1469313403612 ,50,3534774650467 ,63,2822068496416
27.7669062 ,Left ,60,1227918395173 ,50,3171735857175 ,63,2886437269731
27.7897006 ,Left ,60,0890686280463 ,50,2848614814403 ,63,2948049352753
27.8119059 ,Left ,60,0681698220217 ,50,2814466765834 ,63,2994157093719
27.8268451 ,Left ,60,0577194287532 ,50,2922483116995 ,63,3014480804211
27.8500742 ,Left ,60,0490683106493 ,50,300620184207 ,63,2938724884159
27.8722474 ,Left ,60,0517365256337 ,50,2994115240536 ,63,3005142633404
27.8872513 ,Left ,60,0525180437354 ,50,2887229438275 ,63,3063096316857
27.9098946 ,Left ,60,0497928398932 ,50,2858836839303 ,63,311600022865
27.931843 ,Left ,60,0510048881714 ,50,2967082636 ,63,3175004698802
27.9468907 ,Left ,60,0560770570354 ,50,3106367957857 ,63,3095846316206
27.9694863 ,Left ,60,0787902054652 ,50,3174230083294 ,63,3064967599248
27.9844891 ,Left ,60,0567926668148 ,50,314221794202 ,63,3041234923171
27.9994944 ,Left ,60,0597095564223 ,50,3151677705646 ,63,3050525953234
28.0221311 ,Left ,60,0553646276033 ,50,3298368347236 ,63,3069589708341
28.044743 ,Left ,60,0418307805523 ,50,3438216958192 ,63,3093883498188
28.0593122 ,Left ,60,0411077488561 ,50,360787014601 ,63,2992218015724
28.0826085 ,Left ,60,0141342570349 ,50,3749476685815 ,63,2998148167852
28.1049701 ,Left ,59,974570779505 ,50,4195132495303 ,63,3193445657329
28.1199031 ,Left ,59,9341154205609 ,50,4523394084645 ,63,3507009432634
28.1423915 ,Left ,59,8974779181621 ,50,4545914389531 ,63,3523659559272
28.1651179 ,Left ,59,8883650866701 ,50,4535343453398 ,63,3684132098399
28.1801165 ,Left ,59,8874095877082 ,50,5034914354785 ,63,3890876135434
28.202643 ,Left ,59,8915077313554 ,50,5587922396572 ,63,3987546346609
28.2248556 ,Left ,59,9276198579207 ,50,5652790345416 ,63,397638489204
28.2399213 ,Left ,59,943432467378 ,50,5394453605639 ,63,3874096929618
28.2623304 ,Left ,59,9325933339673 ,50,4919020769307 ,63,3835340172206
28.2846739 ,Left ,59,8861503833681 ,50,4588010901373 ,63,3540379274493
28.2998981 ,Left ,59,8473412854939 ,50,4471819795249 ,63,3530905021578
28.3223202 ,Left ,59,801606537973 ,50,4553713003457 ,63,335439118302
28.3449007 ,Left ,59,8793848576142 ,50,4497430126618 ,63,3078010958586
28.3597877 ,Left ,59,9526326153118 ,50,3998228561742 ,63,320679393894
28.3822048 ,Left ,60,000465972023 ,50,3908297270818 ,63,3385544754003
28.4047144 ,Left ,59,965749884983 ,50,4074700282687 ,63,3406710453143
28.4198777 ,Left ,60,0006952221178 ,50,3929779747383 ,63,3328342455235
28.4422377 ,Left ,60,0423732907364 ,50,3733832890219 ,63,328192190445
28.4648076 ,Left ,60,0168087800136 ,50,3938293997025 ,63,3063339727449
28.5020198 ,Left ,60,0200332435601 ,50,4932420760119 ,63,2572319532963
28.5247948 ,Left ,60,080225627058 ,50,4956241866057 ,63,2787046338856
28.5620151 ,Left ,60,1306826803497 ,50,5943244789465 ,63,3157877155985
28.5846908 ,Left ,60,1292284395092 ,50,6014199562013 ,63,3155133923783
28.6222556 ,Left ,60,1301646364873 ,50,6752345148379 ,63,3361081917383
28.6448936 ,Left ,60,0808049566236 ,50,704924534898 ,63,333625385718
28.6818708 ,Left ,60,0624951363505 ,50,6451181837305 ,63,3058268814194
28.7045093 ,Left ,60,1047986138866 ,50,5724247032566 ,63,2862504203738
28.7420002 ,Left ,59,9165988672716 ,50,6485473749859 ,63,2629664801351
28.7644314 ,Left ,59,9124961143977 ,50,7694119082206 ,63,2333441849354
28.8025643 ,Left ,60,0831723704886 ,50,8489745668308 ,63,2020990147878
28.8251978 ,Left ,60,0502850791027 ,50,842328282958 ,63,1831523852866
28.8622948 ,Left ,59,9578280953616 ,50,7595023969543 ,63,1308485192816
28.8844801 ,Left ,59,9340228270246 ,50,7102086858353 ,63,1059818292798
28.9220151 ,Left ,59,8973334729355 ,50,5421722512576 ,63,0606215536252
28.9444559 ,Left ,59,9251402402019 ,50,4196458676836 ,63,0713893852212
28.9819632 ,Left ,59,926728055018 ,50,4766054522236 ,63,1213323856411
29.0047401 ,Left ,59,9857589798847 ,50,5289845357206 ,63,1368752559774
29.0420834 ,Left ,60,1341734447831 ,50,4635885011836 ,63,1183895856174
29.0647558 ,Left ,60,15882540223 ,50,4097923464498 ,63,0998119247432
29.1021617 ,Left ,60,2166668466471 ,50,4328926479193 ,63,0208301289219
29.1249541 ,Left ,60,2174047252201 ,50,4973215317058 ,62,9738209349873
29.1623412 ,Left ,60,2394990150645 ,50,5060268766193 ,62,9643969960283
29.1847019 ,Left ,60,2381700681748 ,50,5232483119514 ,62,9770687030784
29.2220134 ,Left ,60,1295996261318 ,50,5229882448477 ,62,9816801324594
29.2445076 ,Left ,60,1275093553972 ,50,5094485739409 ,63,0057353449696
29.2819701 ,Left ,60,1993436842744 ,50,5398385595915 ,63,0653227955314
29.3052926 ,Left ,60,2262992707143 ,50,5349361719087 ,63,0658671489646
29.3427116 ,Left ,60,2545224901526 ,50,4591746528511 ,63,0333180434772
29.3647929 ,Left ,60,2490984529791 ,50,4456666467418 ,63,0213962111595
29.4026519 ,Left ,60,222788661558 ,50,3856090083955 ,63,0349060277688
29.425341 ,Left ,60,2264799756211 ,50,3583150649289 ,63,0505501748303
29.4620269 ,Left ,60,217801529184 ,50,3504039586344 ,63,0734723368588
29.4846235 ,Left ,60,2157820234757 ,50,3511339937978 ,63,0732928880696
29.5220004 ,Left ,60,230354453328 ,50,354368099993 ,63,0856743038041
29.5593433 ,Left ,60,2089077160621 ,50,3466227322189 ,63,0977602507542
29.5820933 ,Left ,60,2023639568636 ,50,3292260185004 ,63,0908184572415
29.6198634 ,Left ,60,1883029906483 ,50,3125560198158 ,63,1052755951912
29.6423345 ,Left ,60,1734268178506 ,50,3115380548558 ,63,113643857195
29.6799539 ,Left ,60,1524412204893 ,50,2722646120579 ,63,1465867385655
29.7020704 ,Left ,60,143256027867 ,50,2495709850631 ,63,1666145935954
29.7394986 ,Left ,60,1121916358116 ,50,2458599405341 ,63,1785092690564
29.7621223 ,Left ,60,0957955848481 ,50,2436765120235 ,63,1797542407217
29.7997492 ,Left ,60,0554020429782 ,50,1988554538762 ,63,1921100334007
29.8219635 ,Left ,60,0353734896276 ,50,1824561311161 ,63,195087303886
29.8369181 ,Left ,60,019912921891 ,50,1783980740413 ,63,1935967912053
29.8594618 ,Left ,60,0187970899127 ,50,1808312466549 ,63,1941671366563
29.8744813 ,Left ,60,0302196410916 ,50,1899487446594 ,63,1988662093151
29.8971693 ,Left ,60,0363384116285 ,50,2001084650882 ,63,1943082412855
29.9194413 ,Left ,60,0241486226495 ,50,2079478183848 ,63,1793958784445
29.9343738 ,Left ,60,0168290157116 ,50,2097231088699 ,63,1699611746571
29.9575535 ,Left ,60,0282972523726 ,50,216617119237 ,63,1671567752145
29.9795596 ,Left ,60,0305914510231 ,50,2277134630777 ,63,1645015394933
29.9945087 ,Left ,60,0227981810405 ,50,2363919272809 ,63,1616617043745
30.0169423 ,Left ,60,0116311794036 ,50,2462549766239 ,63,1612090796838
30.0395894 ,Left ,60,0260403374396 ,50,2602157058058 ,63,1586701558013
30.0545333 ,Left ,60,0527865588394 ,50,2802401777685 ,63,1583599327897
30.0775625 ,Left ,60,0699334870467 ,50,3042095272858 ,63,1577295280867
30.100287 ,Left ,60,0799294323499 ,50,331644972201 ,63,1574358579677
30.1150341 ,Left ,60,0974508723255 ,50,3291915044332 ,63,148134124904
30.1373752 ,Left ,60,114928542831 ,50,3121430458776 ,63,1363122532664
30.1598134 ,Left ,60,1084151467656 ,50,2960924911732 ,63,1254912949299
30.1748425 ,Left ,60,0897866368914 ,50,3233766770088 ,63,1004407591567
30.1969606 ,Left ,60,0592785248327 ,50,3665592011254 ,63,0832691943741
30.2195455 ,Left ,60,056756758692 ,50,3974468415483 ,63,0662761764241
30.2344437 ,Left ,60,0541073783586 ,50,3643465140817 ,63,0841327233155
30.2570341 ,Left ,60,0220953725332 ,50,3388942886799 ,63,108548682707
30.2796147 ,Left ,59,965448701488 ,50,3901258634904 ,63,1009903409456
30.2947512 ,Left ,59,9964205122526 ,50,4904173454127 ,63,0877354222542
30.3172553 ,Left ,60,0383673003503 ,50,5001336061586 ,63,057707139246
30.3398243 ,Left ,60,0142010116572 ,50,4336610917587 ,63,0184910007449
30.3548296 ,Left ,59,9599782545782 ,50,3810716642 ,63,0037969774882
30.3771062 ,Left ,59,8644141265096 ,50,4002338645493 ,62,9759088308308
30.3994694 ,Left ,59,7643422572517 ,50,4516651297138 ,62,9422048602874
30.4144386 ,Left ,59,8265391529759 ,50,4770683578396 ,62,9017956509239
30.4370428 ,Left ,59,9419426717794 ,50,4376001237489 ,62,9419993761744
30.4595098 ,Left ,59,9860201974023 ,50,4403806888706 ,62,9454582625543
30.4744751 ,Left ,59,9650742003565 ,50,4918668419422 ,62,9236933717264
30.4969685 ,Left ,59,9814922121523 ,50,50699070591 ,62,9022076196147
30.5199866 ,Left ,60,0488873725816 ,50,4482716835292 ,62,8709667241266
30.5352608 ,Left ,60,0399102315482 ,50,4122943818273 ,62,8843828290354
30.5576932 ,Left ,59,9506159302712 ,50,4729274904057 ,62,897487579563
30.5797318 ,Left ,59,8842001096288 ,50,5458624717415 ,62,8954490053792
30.5949327 ,Left ,59,9764508555922 ,50,5130726968568 ,62,8677768605432
30.61718 ,Left ,60,0055980164107 ,50,4715654776786 ,62,8698964311378
30.6399377 ,Left ,59,9746702402946 ,50,4986330718965 ,62,8673035585121
30.6543827 ,Left ,60,007328250497 ,50,5738738563417 ,62,881862158972
30.6770287 ,Left ,60,0635654740609 ,50,6708069421342 ,62,887627174328
30.6996748 ,Left ,60,1412730868975 ,50,7271522574618 ,62,9014016586282
30.7145084 ,Left ,60,1354660558216 ,50,7376357192567 ,62,9462084997287
30.737157 ,Left ,60,086061477216 ,50,7652453946029 ,62,9897960607009
30.7595804 ,Left ,60,0173322050257 ,50,798106693285 ,62,9981049536967
30.7746606 ,Left ,59,9850407212119 ,50,7865614647241 ,62,9802275930213
30.7970626 ,Left ,59,997508891347 ,50,6921600655605 ,62,9572278835231
30.8198346 ,Left ,59,9975677318045 ,50,6209535211457 ,62,9292479533423
30.8348873 ,Left ,59,9772691116653 ,50,6728784771017 ,62,8832970524503
30.8573239 ,Left ,59,9844019921064 ,50,7814784284951 ,62,8409762747126
30.8798276 ,Left ,59,9858430858486 ,50,8579012688881 ,62,8093205328165
30.9018463 ,Left ,60,0143554610728 ,50,8681875227329 ,62,808429181873
30.917038 ,Left ,60,0190427734508 ,50,8503413660711 ,62,8165109001821
30.9395962 ,Left ,59,9754261817247 ,50,8102462465965 ,62,8181193587868
30.9619861 ,Left ,59,9620362969962 ,50,7647261274138 ,62,8028630595606
30.9771992 ,Left ,59,9630766057335 ,50,7294719697874 ,62,7935800606731
30.9994827 ,Left ,59,9276812571913 ,50,7099069560783 ,62,7904186842146
31.0220126 ,Left ,59,8961273658288 ,50,6712185421943 ,62,7794418342697
31.0369318 ,Left ,59,9026988900367 ,50,5804649348709 ,62,8034755534396
31.0598378 ,Left ,59,9626767247018 ,50,5185897861463 ,62,8343461236025
31.0823309 ,Left ,59,9715587284857 ,50,5563598638901 ,62,8437605908435
31.0972772 ,Left ,59,999326556387 ,50,6025746809027 ,62,8368750978094
31.1194625 ,Left ,60,0672598956593 ,50,5697639599571 ,62,8367673286965
31.1418964 ,Left ,60,1677978643099 ,50,4954138429111 ,62,8187902421065
31.1570347 ,Left ,60,1970537942141 ,50,4005677719827 ,62,7979788024847
31.1797148 ,Left ,60,2015146050242 ,50,4181975082119 ,62,7644313893091
31.2022748 ,Left ,60,1856179531335 ,50,5052744646451 ,62,722520122395
31.2168985 ,Left ,60,1951832602922 ,50,5512908345019 ,62,699829929451
31.2400643 ,Left ,60,2037352650318 ,50,5011701495398 ,62,7064695824737
31.262544 ,Left ,60,2705038856225 ,50,4539042270428 ,62,7518763999695
31.2772071 ,Left ,60,245140117823 ,50,4921922614731 ,62,7831096984523
31.2996315 ,Left ,60,2293189190348 ,50,5765396080113 ,62,8048198856875
31.3227544 ,Left ,60,2421296927162 ,50,5902762118586 ,62,8069562535747
31.3374992 ,Left ,60,3054307193924 ,50,571866069241 ,62,8084771254258
31.3595247 ,Left ,60,2991723610802 ,50,5240978021877 ,62,8135736485321
31.382094 ,Left ,60,2740704355263 ,50,4584271717896 ,62,820376802232
31.397006 ,Left ,60,2662872244687 ,50,3990234960604 ,62,8345584656968
31.4195128 ,Left ,60,2558782005118 ,50,3730298244309 ,62,853208964778
31.4421035 ,Left ,60,2287440567611 ,50,3771945505024 ,62,8681025337576
31.4570385 ,Left ,60,1936651214103 ,50,4006973020186 ,62,8908611489901
31.4795597 ,Left ,60,1645667896065 ,50,4105765370737 ,62,9052188562511
31.5020189 ,Left ,60,1463386421938 ,50,4021266416331 ,62,9126887066016
31.5169183 ,Left ,60,1498972321147 ,50,3866608824714 ,62,9214219203716
31.5394152 ,Left ,60,1417802635507 ,50,3647535862901 ,62,9305891983751
31.5619061 ,Left ,60,1363272247444 ,50,3528731528459 ,62,941657580763
31.5771232 ,Left ,60,1150358482766 ,50,3467460843391 ,62,938165652218
31.5997189 ,Left ,60,1047840698309 ,50,3240886580509 ,62,9338174706815
31.6220597 ,Left ,60,1053413659759 ,50,2963142735639 ,62,9290602475879
31.6372322 ,Left ,60,0947585253058 ,50,3020630830955 ,62,9314725907648
31.6594586 ,Left ,60,0956449562953 ,50,303761095761 ,62,9322218516413
31.6820741 ,Left ,60,106879487505 ,50,3162247605158 ,62,9269054585755
31.6973388 ,Left ,60,1111381419278 ,50,3266224049519 ,62,9245039591724
31.7197086 ,Left ,60,1232083516951 ,50,3380721084766 ,62,9278423176145
31.7422805 ,Left ,60,1415792137895 ,50,3542679939456 ,62,9293837274114
31.7570138 ,Left ,60,1523777627553 ,50,3714100575024 ,62,9232485801427
31.7797451 ,Left ,60,1427690780564 ,50,3718985017516 ,62,9155996621261
31.8018363 ,Left ,60,1279429481917 ,50,3735247935221 ,62,9160450603803
31.8244966 ,Left ,60,1099528150727 ,50,399188136405 ,62,9150992504528
31.8397782 ,Left ,60,0811999998141 ,50,4409990817352 ,62,9135422713492
31.8620906 ,Left ,60,0852691364029 ,50,4692659249611 ,62,9036339030554
31.8845461 ,Left ,60,0504700228034 ,50,4626380385148 ,62,9135777570532
31.8995075 ,Left ,60,0310289661082 ,50,4349990500334 ,62,9505119528373
31.9220869 ,Left ,59,9910784270783 ,50,456344289884 ,62,9778577236823
31.9446083 ,Left ,59,9828089215299 ,50,5515149659997 ,62,9993376806183
31.9597475 ,Left ,59,9958787030519 ,50,6206948206728 ,62,9888498621256
31.9822356 ,Left ,60,0126200585523 ,50,6138286376011 ,62,973652470414
32.0046479 ,Left ,59,992663240329 ,50,5491406489452 ,62,9709710895799
32.0197402 ,Left ,59,9404258900446 ,50,5202105660332 ,62,9578942532593
32.0420066 ,Left ,59,8850347223742 ,50,5103344629333 ,62,9148973469043
32.0645432 ,Left ,59,8243952401542 ,50,4862514594762 ,62,8757332777314
32.0794472 ,Left ,59,8318179989468 ,50,4706501159584 ,62,823055928254
32.1018124 ,Left ,59,815281948757 ,50,4639695408505 ,62,7898749905015
32.1245429 ,Left ,59,8001885763016 ,50,4680074863132 ,62,8109306531556
32.1394885 ,Left ,59,8736263261102 ,50,4784606361096 ,62,8565235005824
32.1621065 ,Left ,59,9381722754667 ,50,4775661419817 ,62,8768651076466
32.1846184 ,Left ,59,9113425391348 ,50,4726160813898 ,62,8736154091702
32.1996852 ,Left ,59,9149936223438 ,50,4650682937092 ,62,8624769358854
32.2220409 ,Left ,59,8857547441484 ,50,4743982924666 ,62,8459430893242
32.2447854 ,Left ,59,8818232811043 ,50,5098641715934 ,62,8080246835268
32.25962 ,Left ,59,8860812376435 ,50,5379442307918 ,62,7848865236882
32.2821135 ,Left ,59,9889807507313 ,50,5709890817057 ,62,7736275769853
32.3045353 ,Left ,60,0081918248806 ,50,5739143183114 ,62,7887912711081
32.3195155 ,Left ,60,0280336128977 ,50,6168123158607 ,62,8108046821347
32.3421377 ,Left ,60,0540689001383 ,50,6746762140951 ,62,8319474275927
32.3644925 ,Left ,60,1080094961643 ,50,697548954841 ,62,8572704886444
32.3795177 ,Left ,60,1091290889137 ,50,7159304420979 ,62,9103004451385
32.4020604 ,Left ,60,080219399736 ,50,7765904118219 ,62,9390751912638
32.424725 ,Left ,60,0561966696437 ,50,8224997854184 ,62,9263978685379
32.4397192 ,Left ,60,036188363178 ,50,775959291735 ,62,9293797070512
32.4621657 ,Left ,60,1210815852094 ,50,6657277298148 ,62,9265324177881
32.484764 ,Left ,60,1047624666628 ,50,633590172382 ,62,8860746385135
32.4998262 ,Left ,59,9585019692766 ,50,737226654692 ,62,8398836093037
32.5218906 ,Left ,59,9089462256621 ,50,8404924763571 ,62,8042418251565
32.544706 ,Left ,59,9686451939006 ,50,8926261129506 ,62,7625633757425
32.5670869 ,Left ,60,0014092898896 ,50,8840638959458 ,62,7410690252164
32.5819225 ,Left ,59,9611748032031 ,50,8591048243907 ,62,7237190570032
32.6045125 ,Left ,59,9060208546218 ,50,8287455967038 ,62,7090999982687
32.6194465 ,Left ,59,8865267793988 ,50,7823657636207 ,62,6839723574707
32.6419445 ,Left ,59,8658795278644 ,50,7168447874049 ,62,6593587067168
32.6645728 ,Left ,59,8260478381378 ,50,6254202836949 ,62,6692616101997
32.6795943 ,Left ,59,8572120413893 ,50,5776928419216 ,62,7026400583248
32.7019845 ,Left ,59,85633477871 ,50,6105786921254 ,62,720011327529
32.7248301 ,Left ,59,9007954596221 ,50,6137837811307 ,62,7277965443635
32.7397634 ,Left ,59,969548448668 ,50,5328752835379 ,62,7382871254188
32.7621376 ,Left ,60,0562042760513 ,50,4328595519508 ,62,7295498903205
32.7848556 ,Left ,60,0957364784623 ,50,3562493609204 ,62,6943708505179
32.8148741 ,Left ,60,1155079954194 ,50,3749570389757 ,62,639471904452
32.8294663 ,Left ,60,1027868049142 ,50,4429806005957 ,62,5696059861418
32.8519049 ,Left ,60,1162746434706 ,50,4787873522461 ,62,5304610376147
32.8819951 ,Left ,60,147912762726 ,50,4100125033297 ,62,5652581304769
32.9046425 ,Left ,60,1475412618811 ,50,4343408059698 ,62,6130358639175
32.9269633 ,Left ,60,1410945587836 ,50,5534714048843 ,62,6455657578408
32.9418764 ,Left ,60,1875861234495 ,50,6188038201304 ,62,6660690055748
32.964819 ,Left ,60,2605067063232 ,50,6012411290133 ,62,6829733800714
32.9873185 ,Left ,60,278823021932 ,50,5798672520132 ,62,6894073053291
33.0022719 ,Left ,60,2593957491291 ,50,5513494480223 ,62,685476981829
33.0244817 ,Left ,60,2645604325451 ,50,5098267998234 ,62,6898689260639
33.0472282 ,Left ,60,2498939331347 ,50,48077837946 ,62,6888887571856
33.0619958 ,Left ,60,2283814088358 ,50,458708796816 ,62,6959414873335
33.0844756 ,Left ,60,2039212368878 ,50,4229798359761 ,62,6934129378845
33.107133 ,Left ,60,1885476370326 ,50,383741307402 ,62,6886867798568
33.1221151 ,Left ,60,1722254405511 ,50,3575774314157 ,62,6821404376322
33.1447019 ,Left ,60,1669042631567 ,50,350920854292 ,62,6811531550723
33.1673283 ,Left ,60,1496027200206 ,50,3454134081116 ,62,6854612675323
33.1820814 ,Left ,60,1749511499008 ,50,3390610495181 ,62,6939933506874
33.2047412 ,Left ,60,1930685615783 ,50,3372411523098 ,62,702572067858
33.2273687 ,Left ,60,1873202714563 ,50,3418207926213 ,62,7099845900561
33.2421644 ,Left ,60,1804939306107 ,50,3452566088786 ,62,7144371428554
33.2646841 ,Left ,60,1702653611353 ,50,3233638677606 ,62,7214227233347
33.2872373 ,Left ,60,1737715062674 ,50,2911345429693 ,62,7332413332678
33.3021799 ,Left ,60,1749847249395 ,50,2573402430415 ,62,7332772107811
33.3246733 ,Left ,60,1710630370382 ,50,2428003430999 ,62,734345920379
33.3472614 ,Left ,60,1495372233089 ,50,2521577661587 ,62,7411193297568
33.3622201 ,Left ,60,1560649798557 ,50,2729968303652 ,62,7420408453697
33.3846772 ,Left ,60,1733821434955 ,50,2773827993428 ,62,7551909674376
33.4073699 ,Left ,60,1707716459706 ,50,2774813540214 ,62,766142422536
33.4221604 ,Left ,60,1354078957216 ,50,2816354849586 ,62,7709910931035
33.4373611 ,Left ,60,1221571619203 ,50,2885091095239 ,62,7668315095751
33.4672514 ,Left ,60,1241825192765 ,50,2877936011095 ,62,767007119696
33.4822413 ,Left ,60,1128299993313 ,50,2771785741581 ,62,7661738259429
33.5046462 ,Left ,60,1011663055355 ,50,2693268498276 ,62,7705952249568
33.5273447 ,Left ,60,1018386297699 ,50,2715801888907 ,62,7691279306121
33.5420947 ,Left ,60,1122423406431 ,50,284058331637 ,62,7727351159433
33.5646922 ,Left ,60,1308163054316 ,50,2975849573133 ,62,7689631487926
33.5872227 ,Left ,60,1308163054316 ,50,2975849573133 ,62,7689631487926
33.6020405 ,Left ,60,143759241613 ,50,3072297157636 ,62,7694987033343
33.6244719 ,Left ,60,1714592514155 ,50,3061923067612 ,62,7644703940382
33.6545956 ,Left ,60,1672088283865 ,50,3006956143358 ,62,76645826515
33.6696646 ,Left ,60,1656203940211 ,50,3267557165843 ,62,7704976754794
33.6921169 ,Left ,60,126018978065 ,50,3817724341207 ,62,7631274784847
33.7069797 ,Left ,60,0966352292449 ,50,4107918308469 ,62,766015874046
33.7371822 ,Left ,60,0688266409996 ,50,3762432750791 ,62,8123281400672
33.7595146 ,Left ,60,0460710612847 ,50,4071667207283 ,62,8370769744288
33.7972509 ,Left ,60,0397402498963 ,50,5047961106 ,62,839705509627
33.8195574 ,Left ,60,0555370888008 ,50,4968759291321 ,62,8215604530005
33.857192 ,Left ,60,0013898358892 ,50,421096484434 ,62,8104324804716
33.879491 ,Left ,59,9147820127895 ,50,4352368911513 ,62,7687840772809
33.9171058 ,Left ,59,8974612388373 ,50,4733256196818 ,62,6923986606372
33.9393983 ,Left ,59,9735001620542 ,50,4727112242394 ,62,7281756911433
33.9544544 ,Left ,60,0129762055518 ,50,4600693537811 ,62,7628750207538
33.9769693 ,Left ,60,0265209745322 ,50,4591164059966 ,62,7822446856454
33.9997338 ,Left ,60,0562616444819 ,50,4377946679719 ,62,7753244078063
34.0372794 ,Left ,60,0365193771481 ,50,4517662002982 ,62,7371242885311
34.060206 ,Left ,60,0049782852176 ,50,5369867469463 ,62,7273256026962
34.0977091 ,Left ,60,1314472411694 ,50,6017799840951 ,62,7355478704538
34.1201464 ,Left ,60,1674951963781 ,50,6302470296845 ,62,7598078958627
34.157217 ,Left ,60,1386841718343 ,50,7325613825245 ,62,7763389750709
34.1798356 ,Left ,60,1591468458621 ,50,7481434809171 ,62,7784557123193
34.2174401 ,Left ,60,1190250364097 ,50,7484852494891 ,62,8164473929955
34.2399949 ,Left ,60,0820266373753 ,50,7515097799054 ,62,8268041583847
34.2773249 ,Left ,60,0998195805747 ,50,6421123403719 ,62,803962833527
34.2997637 ,Left ,60,0769428609488 ,50,6208940674904 ,62,8019155606182
34.3373801 ,Left ,59,9906406450378 ,50,8446300630509 ,62,7524972644644
34.3598081 ,Left ,60,0300765491864 ,50,9103177574932 ,62,7258690327153
34.3972747 ,Left ,60,02071526208 ,50,875748123218 ,62,7059731042003
34.4199863 ,Left ,59,9990720395725 ,50,8314996789211 ,62,6764489962179
34.4573146 ,Left ,60,0075004850831 ,50,6902194581997 ,62,635231378086
34.4794646 ,Left ,59,9849218018725 ,50,6369505508811 ,62,6359786977556
34.5171763 ,Left ,59,9357336159826 ,50,4771257761964 ,62,6861557001055
34.5394101 ,Left ,59,9248119312925 ,50,4728139595549 ,62,7140272513445
34.5772831 ,Left ,60,0394973801977 ,50,4656167219261 ,62,717819630227
34.5997983 ,Left ,60,1188108214555 ,50,3687873147516 ,62,7087575594804
34.6372586 ,Left ,60,2345806289694 ,50,1537863509918 ,62,6207544945871
34.6597931 ,Left ,60,201755959625 ,50,2096455510349 ,62,5392423147272
34.6969808 ,Left ,60,1680012103284 ,50,2635340141566 ,62,4107873189475
34.7199596 ,Left ,60,1697749550271 ,50,2080410299649 ,62,4435453777676
34.7568806 ,Left ,60,1329159474229 ,50,3312746861723 ,62,538726190582
34.7795592 ,Left ,60,1769320355217 ,50,4404041766365 ,62,5708613554049
34.8178554 ,Left ,60,3004374316828 ,50,4516517248137 ,62,5648711314816
34.8402867 ,Left ,60,2665673693624 ,50,4278607772563 ,62,5384407413943
34.8773122 ,Left ,60,2532797504501 ,50,3768950527956 ,62,5055427738964
34.8999768 ,Left ,60,2376741321737 ,50,3564652300289 ,62,50104091425
34.9370317 ,Left ,60,1707916736027 ,50,342886477497 ,62,4909943156626
34.9596673 ,Left ,60,1570607431576 ,50,3311414923628 ,62,4761693970076
34.9972017 ,Left ,60,2113431134115 ,50,3308815094996 ,62,4842305776069
35.0197971 ,Left ,60,2235400159026 ,50,3307124969649 ,62,4944386320397
35.0572042 ,Left ,60,2079338155262 ,50,3276518939541 ,62,5311433702714
35.0796308 ,Left ,60,1913905557046 ,50,3273187331352 ,62,5397012116845
35.11721 ,Left ,60,196730576074 ,50,2974057521262 ,62,5703863231998
35.1398523 ,Left ,60,1884012500258 ,50,2613670318031 ,62,5878429581049
35.1776021 ,Left ,60,1531779885692 ,50,2250946032529 ,62,6017859851762
35.1997315 ,Left ,60,1272336913617 ,50,22448409422 ,62,6087540340668
35.2370324 ,Left ,60,1598798013484 ,50,1719098316138 ,62,6338708168439
35.259613 ,Left ,60,158662623882 ,50,1575514356127 ,62,6376022359457
35.2977546 ,Left ,60,0661622980207 ,50,1984926904025 ,62,6446128611782
35.32042 ,Left ,60,0929089967599 ,50,2239614617497 ,62,648033009167
35.3577294 ,Left ,60,1144192344543 ,50,2349879086209 ,62,6416010662781
35.3799572 ,Left ,60,0841259852578 ,50,2308167778581 ,62,6444891308073
35.4172166 ,Left ,60,0888996967786 ,50,2713118040639 ,62,6363759963445
35.4395391 ,Left ,60,1081251396137 ,50,2885272551949 ,62,6272102227583
35.4771979 ,Left ,60,0787190357222 ,50,2926299655025 ,62,6400271406758
35.4998046 ,Left ,60,0600327558748 ,50,3090629453157 ,62,6470449758852
35.5369564 ,Left ,60,0538137583137 ,50,3615525248891 ,62,6501136098325
35.5595263 ,Left ,60,0337176882124 ,50,3831846514484 ,62,6629147846054
35.5744584 ,Left ,59,9997417364152 ,50,3855274016365 ,62,69430283329
35.589528 ,Left ,59,9772452461734 ,50,4051301632863 ,62,7106007328278
35.6121077 ,Left ,59,9772542725591 ,50,4528272052802 ,62,7220325062661
35.6347472 ,Left ,59,9863700389765 ,50,4996783914291 ,62,7233788196208
35.649609 ,Left ,59,9876241906507 ,50,5113389943902 ,62,7275205044456
35.6721125 ,Left ,59,9858456302407 ,50,4942934349769 ,62,7060180647535
35.6953187 ,Left ,59,9600284862899 ,50,4373736696107 ,62,6810754169114
35.7100714 ,Left ,59,9142803298873 ,50,3877685072249 ,62,6472364946364
35.7325379 ,Left ,59,8385456536381 ,50,3823091617525 ,62,629717891073
35.7551738 ,Left ,59,8220488226668 ,50,4029473568572 ,62,6076263428794
35.7696113 ,Left ,59,8950252254046 ,50,4228985802133 ,62,5961498233554
35.7922094 ,Left ,59,974859319351 ,50,414124445728 ,62,6093042275422
35.8146262 ,Left ,59,9979133684813 ,50,4091239288167 ,62,61542263582
35.8295026 ,Left ,59,9503115328559 ,50,4164931695772 ,62,6000007912553
35.8519037 ,Left ,59,966198108119 ,50,41223412314 ,62,5854249934493
35.8752111 ,Left ,59,9749957031887 ,50,4155506135293 ,62,5765995297969
35.890118 ,Left ,59,9754473189996 ,50,4691636648484 ,62,5612742512951
35.9122203 ,Left ,59,9346744469529 ,50,5151203315329 ,62,5590321128489
35.9346217 ,Left ,60,0046777392192 ,50,5322278318533 ,62,5491411054456
35.9497533 ,Left ,60,0275943515873 ,50,5127248406493 ,62,5658612940233
35.9718571 ,Left ,60,0265219323263 ,50,5419306829593 ,62,5797721634894
35.9944883 ,Left ,60,0531414956435 ,50,598043493346 ,62,5848081855066
36.0096547 ,Left ,60,0969807009331 ,50,6191833249029 ,62,5811733395089
36.0319663 ,Left ,60,1056918603775 ,50,641872021053 ,62,6034768889712
36.0549226 ,Left ,60,0710803204533 ,50,6688379618932 ,62,6336675548388
36.0699418 ,Left ,59,9898776327067 ,50,6774372235262 ,62,6281565778375
36.0921827 ,Left ,59,9681644925621 ,50,6692012551854 ,62,6395282491553
36.1147259 ,Left ,59,972538588253 ,50,6272757134787 ,62,6683402740504
36.129693 ,Left ,59,9907538032736 ,50,5534110113217 ,62,6887968460382
36.1597624 ,Left ,59,9766429443603 ,50,5071571576609 ,62,6976257410173
36.1823182 ,Left ,59,8841210874075 ,50,5734845435621 ,62,687773430498
36.1974135 ,Left ,59,8414435623344 ,50,6797335899396 ,62,6609515440665
36.2122552 ,Left ,59,8988895790055 ,50,7440612784362 ,62,6557418901282
36.2344987 ,Left ,59,9427619609538 ,50,7428481895081 ,62,6577560401512
36.249494 ,Left ,59,9444094552948 ,50,7188972359515 ,62,6480555523001
36.2720427 ,Left ,59,9111200777702 ,50,7099076682647 ,62,6288652620511
36.2944773 ,Left ,59,8887167120167 ,50,6980008218556 ,62,5749530743117
36.3095465 ,Left ,59,8915074358334 ,50,670298376936 ,62,5399050940741
36.3320808 ,Left ,59,9062596173056 ,50,6233624101818 ,62,5354467833915
36.354416 ,Left ,59,9081372620176 ,50,5918158446226 ,62,5340729414613
36.3695779 ,Left ,59,8789788401847 ,50,5618816130174 ,62,5264626076371
36.3919433 ,Left ,59,824946877278 ,50,5075334835632 ,62,5382613343161
36.4144548 ,Left ,59,8332730858736 ,50,4740609021217 ,62,5704964073341
36.4369085 ,Left ,59,8551788901679 ,50,5160599755376 ,62,569684179934
36.4519468 ,Left ,59,9054514077319 ,50,5496937969243 ,62,5597065993334
36.4748874 ,Left ,59,9887076966083 ,50,5056116380831 ,62,5620688625077
36.4894858 ,Left ,60,0571017420833 ,50,4255581997561 ,62,5790937602996
36.5118716 ,Left ,60,1039687664013 ,50,3310641616844 ,62,5830803398566
36.5351562 ,Left ,60,1428709830015 ,50,2812866876081 ,62,5660029208264
36.5576855 ,Left ,60,1526361530591 ,50,3099453449045 ,62,5060662731945
36.5723011 ,Left ,60,1213796603532 ,50,3569310093673 ,62,4617425803732
36.5948501 ,Left ,60,1238029701726 ,50,380740850762 ,62,4547955899216
36.6172906 ,Left ,60,1404568045895 ,50,379594925671 ,62,4830074674613
36.632222 ,Left ,60,1119102174237 ,50,3379589579539 ,62,5114689343927
36.6549187 ,Left ,60,1279106043387 ,50,342173648601 ,62,5329468494863
36.6775675 ,Left ,60,1181732157255 ,50,3908163235381 ,62,5388569508234
36.6923186 ,Left ,60,1448735137686 ,50,4122858412256 ,62,5543190917609
36.7148877 ,Left ,60,1874528539847 ,50,3794221059622 ,62,5608424668189
36.737282 ,Left ,60,2281302613651 ,50,3654021505465 ,62,5602094143027
36.7520216 ,Left ,60,22859472064 ,50,3450707508297 ,62,5467003161027
36.7747406 ,Left ,60,2313770243969 ,50,3339665582114 ,62,5367933240071
36.7970272 ,Left ,60,2332694666464 ,50,3289005663264 ,62,5351480411059
36.8119553 ,Left ,60,2198063875093 ,50,3287543263819 ,62,5333018570111
36.8345653 ,Left ,60,1925718499524 ,50,3340325030284 ,62,5442309394478
36.8572811 ,Left ,60,1732217423993 ,50,3508499264125 ,62,5448774657929
36.8719945 ,Left ,60,1623606736904 ,50,3492598627676 ,62,5360507749735
36.894548 ,Left ,60,1604754957343 ,50,3389161122868 ,62,5368774213987
36.9170298 ,Left ,60,1479719998829 ,50,329267055847 ,62,5404712152843
36.9318855 ,Left ,60,1309913348098 ,50,3195723394662 ,62,5434734892509
36.9551909 ,Left ,60,121388300467 ,50,310934131705 ,62,5480168489982
36.9775573 ,Left ,60,0950621821247 ,50,2934173493774 ,62,5539110675339
36.9926018 ,Left ,60,0891997047399 ,50,2553185532098 ,62,5625453801356
37.014852 ,Left ,60,1023399686646 ,50,2261901523448 ,62,5682888879424
