timestamp,event,roll,pitch,yaw
0.027868 ,Left ,58,6757684663709 ,45,4756175206487 ,75,5338423514652
0.0444366 ,Left ,58,6460069379086 ,45,4849829847228 ,75,536809170907
0.0668929 ,Left ,58,5985228940961 ,45,5073503588488 ,75,5540433994251
0.0878792 ,Left ,58,5680532057035 ,45,5319291991639 ,75,5862607746909
0.1043637 ,Left ,58,524181014073 ,45,5514308724594 ,75,6282302052898
0.1273178 ,Left ,58,474706200698 ,45,5839945573822 ,75,6617240806444
0.1480087 ,Left ,58,413723715795 ,45,6193634977682 ,75,681743770923
0.1720965 ,Left ,58,3454458276912 ,45,6522072399747 ,75,6912437940259
0.1870515 ,Left ,58,2833434632935 ,45,6767287383005 ,75,6942384484111
0.2095631 ,Left ,58,2216998960567 ,45,6997633354349 ,75,6911995315145
0.224429 ,Left ,58,1721297480955 ,45,7108418643392 ,75,6916990428646
0.2470806 ,Left ,58,1248406945409 ,45,7144638297201 ,75,6943621733808
0.2699486 ,Left ,58,0812925993908 ,45,7115107204425 ,75,6878301223627
0.2839968 ,Left ,58,0427997135623 ,45,7009623840987 ,75,6872507972064
0.3070995 ,Left ,58,0087677841346 ,45,6966892516235 ,75,6942594633284
0.3296878 ,Left ,57,984015977724 ,45,6909391914155 ,75,7113510680338
0.3440082 ,Left ,57,9737110343653 ,45,6870272655181 ,75,733890482244
0.3670398 ,Left ,57,9854127144439 ,45,688089851099 ,75,7660152677763
0.3895007 ,Left ,57,9986211027764 ,45,6882033203891 ,75,7953439186083
0.4038464 ,Left ,58,0175023290712 ,45,6888051223043 ,75,8163139503749
0.4271016 ,Left ,58,0389694096787 ,45,690071223984 ,75,8285912879283
0.4495508 ,Left ,58,0681303211979 ,45,6996939387279 ,75,8339339509955
0.4638752 ,Left ,58,0975590279796 ,45,7110812608496 ,75,8272998976049
0.4871542 ,Left ,58,1179082818628 ,45,7291502473565 ,75,8140558513443
0.5096609 ,Left ,58,1360133421905 ,45,756859744685 ,75,8019438713712
0.5238588 ,Left ,58,1655621801551 ,45,7913703390578 ,75,7952556368302
0.547189 ,Left ,58,1911721641754 ,45,8262141598967 ,75,7822133537301
0.5694814 ,Left ,58,2050556466059 ,45,8562843232771 ,75,7636847391726
0.5840206 ,Left ,58,2218852935487 ,45,8823586165139 ,75,7363950241025
0.6069987 ,Left ,58,2222753280696 ,45,9107170530403 ,75,7218534717735
0.6294617 ,Left ,58,221752750163 ,45,9486918378408 ,75,7145597231546
0.6439311 ,Left ,58,2300518944841 ,45,9912317920427 ,75,6974926561355
0.6671632 ,Left ,58,2392316963454 ,46,014540601515 ,75,6778788442682
0.6895738 ,Left ,58,2533499233273 ,46,0291788161437 ,75,651897435159
0.710819 ,Left ,58,2742381639026 ,46,0332071799543 ,75,6223421710247
0.7271457 ,Left ,58,291835503629 ,46,024879128188 ,75,5966630454648
0.7498012 ,Left ,58,3135234579607 ,46,0073222946688 ,75,5825671509568
0.7721421 ,Left ,58,3483304993112 ,45,9951967445387 ,75,5740097706667
0.7870503 ,Left ,58,3868146880331 ,45,9816395785512 ,75,5631309699726
0.8095751 ,Left ,58,4370021403913 ,45,9644035434284 ,75,5535025393104
0.8306198 ,Left ,58,4883389576429 ,45,9442505280594 ,75,5496144858231
0.8467522 ,Left ,58,5498244210709 ,45,9196450629627 ,75,5437987915431
0.8693335 ,Left ,58,6042814229414 ,45,8836156440405 ,75,5290362959224
0.8904869 ,Left ,58,6438268154374 ,45,8457075260273 ,75,5084961516703
0.9069474 ,Left ,58,6734310228072 ,45,8100953404587 ,75,4866838338199
0.9295798 ,Left ,58,7023094843328 ,45,770044385073 ,75,4702234179308
0.950447 ,Left ,58,7169798073703 ,45,7363071792358 ,75,4586439639802
0.9668986 ,Left ,58,7197618233193 ,45,7061616226176 ,75,4424911861088
0.99002 ,Left ,58,7227705103296 ,45,6754435077071 ,75,4291861405494
1.0112442 ,Left ,58,7148025204047 ,45,6648285704417 ,75,4113330189377
1.027648 ,Left ,58,7090049209219 ,45,6677467824943 ,75,3925014014901
1.0498893 ,Left ,58,696719487291 ,45,6827724182284 ,75,3716061077869
1.0710769 ,Left ,58,673484762716 ,45,7103187807331 ,75,3539210692711
1.08742 ,Left ,58,648933367693 ,45,7472488793283 ,75,3402145256185
1.109608 ,Left ,58,6184960562526 ,45,7942670689384 ,75,3212246585527
1.1321213 ,Left ,58,591242510211 ,45,8445650774461 ,75,3002268515375
1.1469264 ,Left ,58,5534211085502 ,45,8989463737487 ,75,2813023441844
1.1696228 ,Left ,58,5177654538752 ,45,9492557089196 ,75,2653022193345
1.1921356 ,Left ,58,4843654930608 ,45,9961105956039 ,75,2461024074125
1.2069831 ,Left ,58,4540632813942 ,46,0336980888387 ,75,2289830970478
1.2295553 ,Left ,58,4192007402778 ,46,0575070801476 ,75,2151660552393
1.2519925 ,Left ,58,3834511619661 ,46,0836157949697 ,75,1985335833322
1.2665185 ,Left ,58,3583496287384 ,46,1068201880264 ,75,1742986030344
1.2896639 ,Left ,58,3228610569882 ,46,1233658785112 ,75,144493314193
1.3121846 ,Left ,58,2883574034362 ,46,1409336329486 ,75,1151562704497
1.3264688 ,Left ,58,2475214639228 ,46,1651820569735 ,75,0946812146225
1.3496484 ,Left ,58,2108579035578 ,46,1916138392102 ,75,0694283792617
1.3721691 ,Left ,58,1766781329182 ,46,2130216519517 ,75,0526348640994
1.3865103 ,Left ,58,1568032845806 ,46,2261952954391 ,75,048649130894
1.409714 ,Left ,58,1477125274046 ,46,2281439840183 ,75,0534763909942
1.4321445 ,Left ,58,1359688859557 ,46,2145153734982 ,75,0468026004065
1.4464854 ,Left ,58,1252285526957 ,46,1843875153291 ,75,0378560874209
1.4697644 ,Left ,58,1237640420747 ,46,1547222503746 ,75,0304870083671
1.492099 ,Left ,58,1157422954564 ,46,1289171772477 ,75,0315683011627
1.5065068 ,Left ,58,1025399826294 ,46,0992368404505 ,75,0431819416996
1.5297009 ,Left ,58,1180514600033 ,46,0402233116399 ,75,0697163406201
1.5595881 ,Left ,58,1226562115487 ,45,9867193489523 ,75,1044515147825
1.566442 ,Left ,58,1045672512103 ,45,9562972885016 ,75,1304395093733
1.589648 ,Left ,58,0925436120715 ,45,9330805160578 ,75,1494818234292
1.6119659 ,Left ,58,0997624414479 ,45,9052591935819 ,75,167556738979
1.6331019 ,Left ,58,1328898432716 ,45,8735222516053 ,75,1857381181604
1.6497847 ,Left ,58,1358801370078 ,45,8655127922245 ,75,1999364015512
1.6720404 ,Left ,58,144459016884 ,45,8711684651763 ,75,1988992781558
1.6929402 ,Left ,58,1462958050315 ,45,880075709809 ,75,1914664995871
1.7093014 ,Left ,58,1565114048712 ,45,8752381535269 ,75,1922074584698
1.7320692 ,Left ,58,1675833025277 ,45,8453155021997 ,75,1897531115392
1.7531986 ,Left ,58,1749473778404 ,45,806006333209 ,75,1855260941198
1.7696236 ,Left ,58,1817681705907 ,45,7596087161376 ,75,1863225157711
1.7922323 ,Left ,58,2111217549527 ,45,7199386021148 ,75,1910594445609
1.8130894 ,Left ,58,2336694836133 ,45,6766090915814 ,75,19439078946
1.8371709 ,Left ,58,2572371622618 ,45,6354356972033 ,75,1891897389242
1.8522195 ,Left ,58,2884992341394 ,45,5971607085564 ,75,1765107466228
1.8734094 ,Left ,58,3037302295218 ,45,5703620946488 ,75,1780244096111
1.8899567 ,Left ,58,3104778325905 ,45,5694571246439 ,75,1908545525598
1.9122944 ,Left ,58,2850830166366 ,45,593372851036 ,75,2235734455711
1.9329376 ,Left ,58,254235364378 ,45,6104939588039 ,75,2666904550639
1.9495 ,Left ,58,2532117385192 ,45,6375871641881 ,75,3212228834034
1.9720271 ,Left ,58,2308803611777 ,45,6596884946997 ,75,3661672420027
1.9931643 ,Left ,58,2039734595235 ,45,690018798478 ,75,3813479779233
2.0096172 ,Left ,58,1760786246153 ,45,7363187380252 ,75,3836225889514
2.0320805 ,Left ,58,1504078970283 ,45,768276642053 ,75,3930303790587
2.0545011 ,Left ,58,1262136883101 ,45,7846189791522 ,75,4007639421296
2.0696377 ,Left ,58,108771586493 ,45,7994498694011 ,75,4064275419317
2.091901 ,Left ,58,1078079983579 ,45,7984678109244 ,75,4271621174163
2.1145516 ,Left ,58,0978187085352 ,45,7706736021696 ,75,4312538995426
2.1296795 ,Left ,58,0887506006322 ,45,7404010600055 ,75,4171607688709
2.1518376 ,Left ,58,0766331278322 ,45,7271641923013 ,75,4047368078635
2.1744841 ,Left ,58,060657763755 ,45,7244352077432 ,75,3962051894267
2.1889519 ,Left ,58,0498987174818 ,45,7380078950685 ,75,3903701628088
2.212222 ,Left ,58,0301115431579 ,45,7596970930997 ,75,4145581451447
2.2345528 ,Left ,57,9851097580228 ,45,7794977820132 ,75,4409139145101
2.2489048 ,Left ,57,9802318036087 ,45,820817231977 ,75,469542973168
2.2720459 ,Left ,57,9868806744579 ,45,8504208154157 ,75,4921941702122
2.2946011 ,Left ,57,9959292377191 ,45,8681835897838 ,75,5106670938843
2.3086132 ,Left ,57,9969823864255 ,45,8970061177771 ,75,5205109587099
2.3320316 ,Left ,57,9810280056102 ,45,9271818189185 ,75,5281859040652
2.3544571 ,Left ,57,9681928744139 ,45,9289969483915 ,75,5295497765838
2.3688696 ,Left ,57,9738888187362 ,45,925132026595 ,75,5149486783193
2.3922245 ,Left ,57,9652255406657 ,45,9261891068604 ,75,5077137708214
2.4144484 ,Left ,57,9619402777776 ,45,9138256085466 ,75,5117424179504
2.428973 ,Left ,57,9442338226821 ,45,9179405980286 ,75,5489641550511
2.452054 ,Left ,57,9361803100045 ,45,9321740607299 ,75,6008613383189
2.4745396 ,Left ,57,9165546509571 ,45,9584452667771 ,75,6527107684436
2.4888955 ,Left ,57,9070692248162 ,45,9947631992769 ,75,6800956437009
2.5121922 ,Left ,57,9056671764124 ,46,0199912017796 ,75,6983162277014
2.5345542 ,Left ,57,8806730767802 ,46,0465134621029 ,75,7069313177711
2.5557077 ,Left ,57,8625226573406 ,46,0866413570332 ,75,7095101099826
2.5720473 ,Left ,57,8449882666818 ,46,1141946430436 ,75,7225680757767
2.5944023 ,Left ,57,835181604553 ,46,1260382837717 ,75,7346344622789
2.6156143 ,Left ,57,832402201779 ,46,1290949428197 ,75,7345855597326
2.6320864 ,Left ,57,8146319165569 ,46,1182983634369 ,75,712677710457
2.6543812 ,Left ,57,8017309561953 ,46,1031721194527 ,75,6907853269253
2.6755876 ,Left ,57,78720442094 ,46,1074324974871 ,75,683114201849
2.6825555 ,Left ,57,7910401271607 ,46,1452329074482 ,75,6853626168118
2.6976232 ,Left ,57,771222879217 ,46,1974482909726 ,75,7133973137922
2.7196592 ,Left ,57,770672354097 ,46,1980408242781 ,75,7676888911354
2.7423893 ,Left ,57,7945744538944 ,46,2126779276825 ,75,8456276843397
2.7573289 ,Left ,57,7910862707121 ,46,2528634507441 ,75,9017407424631
2.7799313 ,Left ,57,7831427645989 ,46,2878801756741 ,75,9231801487098
2.8022904 ,Left ,57,8059014355567 ,46,3120542236491 ,75,92374857599
2.8175772 ,Left ,57,8053955186505 ,46,3190210565626 ,75,9305504258199
2.8399326 ,Left ,57,7911598330732 ,46,3236115735319 ,75,9261165527263
2.8623697 ,Left ,57,7724031884564 ,46,3297861031619 ,75,9178560897413
2.8773651 ,Left ,57,7820170604211 ,46,3279035951285 ,75,8948631101168
2.899951 ,Left ,57,7971835668439 ,46,3299119266487 ,75,8611072821583
2.9226094 ,Left ,57,8035144175519 ,46,3353039684472 ,75,826626716459
2.937677 ,Left ,57,8097070888251 ,46,3539852361472 ,75,7967935747988
2.9596774 ,Left ,57,8379866126886 ,46,3933346767813 ,75,7703071982878
2.9823932 ,Left ,57,8509088671272 ,46,4177257634795 ,75,7275119767217
2.9973807 ,Left ,57,8716390207694 ,46,4249444747073 ,75,6777097176385
3.0200633 ,Left ,57,8775225172389 ,46,4346439876132 ,75,6499055268851
3.0426525 ,Left ,57,8618688625968 ,46,4439370973577 ,75,6396169475959
3.0574691 ,Left ,57,8543063488579 ,46,4529155240348 ,75,6277761462069
3.0801851 ,Left ,57,8436336426933 ,46,4624995628919 ,75,609391172932
3.1025898 ,Left ,57,8469512070933 ,46,4635944164309 ,75,565164306719
3.1176368 ,Left ,57,8412580808392 ,46,4611564414971 ,75,5251197884431
3.1399583 ,Left ,57,8208020622263 ,46,4622851125705 ,75,5013356414695
3.1626361 ,Left ,57,8003353655315 ,46,4661966615953 ,75,4956885722357
3.1773702 ,Left ,57,7796855204633 ,46,4478578147384 ,75,5259939675978
3.1999971 ,Left ,57,7602499185515 ,46,4435230398675 ,75,5464241407641
3.2239437 ,Left ,57,7409786501826 ,46,448063189448 ,75,5440122270458
3.2376347 ,Left ,57,7380359191984 ,46,4515800012501 ,75,5411849753077
3.2606053 ,Left ,57,7566788600207 ,46,4350039776962 ,75,5594649203701
3.2831453 ,Left ,57,7913196414299 ,46,381446270537 ,75,5843699061543
3.2980249 ,Left ,57,8170131950355 ,46,3018682066942 ,75,5895456905535
3.3203023 ,Left ,57,8399625468799 ,46,2278950030439 ,75,5739757639279
3.3425713 ,Left ,57,8590714238751 ,46,1720144436327 ,75,5484804480896
3.3575497 ,Left ,57,8856452771766 ,46,1412214247015 ,75,5183571703346
3.3799384 ,Left ,57,9221928965041 ,46,1278967566798 ,75,4917884717088
3.4024729 ,Left ,57,9519384254714 ,46,1088267323059 ,75,4605896300521
3.4174621 ,Left ,58,0054645608467 ,46,0673126577101 ,75,4627564833732
3.440099 ,Left ,58,0216227583109 ,45,9958712374713 ,75,5037214610687
3.4624215 ,Left ,58,0487245068821 ,45,8928128082205 ,75,5365490691871
3.4790867 ,Left ,58,0753959980356 ,45,8028908141606 ,75,5742071987673
3.4998441 ,Left ,58,0688983379346 ,45,7742781974642 ,75,6089341749359
3.5222221 ,Left ,58,0773428123659 ,45,7848737986371 ,75,6326089062534
3.5389008 ,Left ,58,106997006839 ,45,8102048876673 ,75,6552277860459
3.5596469 ,Left ,58,1595739282871 ,45,8216863234487 ,75,682474429365
3.5823897 ,Left ,58,1856062778271 ,45,8128568014863 ,75,7155874071833
3.5988929 ,Left ,58,1902799612003 ,45,7814336421967 ,75,7245174386691
3.6199902 ,Left ,58,2131472438618 ,45,7664894270311 ,75,7167756222909
3.6426478 ,Left ,58,2002814507667 ,45,7554788182198 ,75,7073307160762
3.6589191 ,Left ,58,1925615080721 ,45,7685188741832 ,75,7079674003813
3.6801847 ,Left ,58,2001699444985 ,45,7931464764495 ,75,7273664910656
3.702475 ,Left ,58,2056084677661 ,45,8026412314369 ,75,7386107734619
3.7189173 ,Left ,58,2132027837056 ,45,7957771692923 ,75,7358116893066
3.7401534 ,Left ,58,2139402851184 ,45,8017815631686 ,75,7397907429179
3.7626706 ,Left ,58,2158889834228 ,45,8139800894728 ,75,7476868486057
3.7789421 ,Left ,58,218012477698 ,45,8352691642766 ,75,7537423145435
3.8000487 ,Left ,58,2293976118679 ,45,8556862053327 ,75,7491638534447
3.822554 ,Left ,58,2375710703877 ,45,8502828695773 ,75,7405964079314
3.8389298 ,Left ,58,254191754375 ,45,8378434813925 ,75,7353667024062
3.8597687 ,Left ,58,2654701870679 ,45,8322894901993 ,75,7271546145272
3.8823022 ,Left ,58,2740553544429 ,45,8310850318869 ,75,7131932867608
3.9002998 ,Left ,58,2832809590194 ,45,8295431766365 ,75,7019919634176
3.9199468 ,Left ,58,2989820054817 ,45,8234880698059 ,75,6884980427565
3.9427213 ,Left ,58,3109640233603 ,45,8183073793884 ,75,6836054002146
3.9604758 ,Left ,58,3218566641677 ,45,8214616231463 ,75,6916252579248
3.980056 ,Left ,58,3340787117689 ,45,8320734236428 ,75,6979002209686
4.00248 ,Left ,58,3457870666479 ,45,8414319458072 ,75,691978321486
4.0203971 ,Left ,58,3525344357458 ,45,8522380134237 ,75,6823368265573
4.0399544 ,Left ,58,3599240514076 ,45,8655698460633 ,75,6792244217238
4.062398 ,Left ,58,368808776218 ,45,8858221250399 ,75,6772173338301
4.0806263 ,Left ,58,3825028766351 ,45,9001267821301 ,75,6691952169652
4.1004199 ,Left ,58,3900987194261 ,45,8978907802052 ,75,6548527328832
4.122995 ,Left ,58,3878610064787 ,45,8895913174459 ,75,6381785922959
4.1405414 ,Left ,58,3777170047627 ,45,8873760210066 ,75,6271843260547
4.1602771 ,Left ,58,3572116884031 ,45,8939173007401 ,75,6280062034189
4.1825336 ,Left ,58,3420275209391 ,45,9132160475401 ,75,6343166482315
4.2007031 ,Left ,58,3299156073423 ,45,9419928671697 ,75,6364174704699
4.2202142 ,Left ,58,3221340197205 ,45,9617491081808 ,75,6287960271583
4.2427479 ,Left ,58,3184124002806 ,45,9848195965695 ,75,6072870989944
4.260588 ,Left ,58,3114380470211 ,46,0113160849312 ,75,5796162675661
4.2802719 ,Left ,58,2892845345542 ,46,0363357404249 ,75,5435209417456
4.3025606 ,Left ,58,2701329426762 ,46,0577085297146 ,75,5103309238982
4.3204525 ,Left ,58,2546774616501 ,46,0758187468063 ,75,483313536625
4.3400734 ,Left ,58,2296335524736 ,46,0901109111036 ,75,4605067735757
4.3628379 ,Left ,58,2176125244751 ,46,0913195868183 ,75,4316888989216
4.381204 ,Left ,58,2017480312596 ,46,0781318323219 ,75,4185442493466
4.399688 ,Left ,58,184712244656 ,46,0642449554655 ,75,4200010165873
4.4236889 ,Left ,58,1556402483104 ,46,0649385157791 ,75,4395945456956
4.4407511 ,Left ,58,1256541582052 ,46,0545266030802 ,75,4517173779981
4.4605678 ,Left ,58,1232462658991 ,46,0319081861072 ,75,4723969856268
4.4825136 ,Left ,58,1104983101327 ,46,0303971051345 ,75,4972883821582
4.5005503 ,Left ,58,1435236695643 ,46,022591371776 ,75,5101497905734
4.5200185 ,Left ,58,1656359357192 ,46,0080417026399 ,75,5175464767419
4.5426991 ,Left ,58,1962588240564 ,45,9944700861878 ,75,5142900991578
4.5603993 ,Left ,58,2327429783509 ,45,9602441544714 ,75,4909370041894
4.5814642 ,Left ,58,2554569561389 ,45,9211271141902 ,75,4677169423738
4.6024513 ,Left ,58,2606983133905 ,45,8928421193537 ,75,4588060169145
4.6205478 ,Left ,58,2743509170468 ,45,8721423300564 ,75,4488096887493
4.6414582 ,Left ,58,2893616008541 ,45,8510944627077 ,75,4331716123977
4.6626014 ,Left ,58,3022857558031 ,45,8005634633662 ,75,4220610113353
4.6800613 ,Left ,58,3294314760498 ,45,7353027854133 ,75,429476815346
4.7013971 ,Left ,58,3372055374935 ,45,7030090144136 ,75,4414010718266
4.7225029 ,Left ,58,3432533444969 ,45,7349174024588 ,75,4614671012056
4.7402252 ,Left ,58,3385840584566 ,45,785789124691 ,75,4647192603018
4.7615748 ,Left ,58,345740522213 ,45,8155629965151 ,75,4487020959281
4.7826761 ,Left ,58,31884315676 ,45,8266393366326 ,75,4340880635192
4.800463 ,Left ,58,2706489702164 ,45,8329867905419 ,75,4340749356772
4.8215765 ,Left ,58,227046440402 ,45,8319283148664 ,75,4304730343962
4.8428038 ,Left ,58,199882482039 ,45,8320311923604 ,75,4295796748593
4.8605539 ,Left ,58,1740184319498 ,45,8141139443853 ,75,4205372015686
4.8878658 ,Left ,58,1425587325204 ,45,7626454143931 ,75,4213142039124
4.9028201 ,Left ,58,1304597168793 ,45,6922693601592 ,75,4017628808067
4.9200903 ,Left ,58,1074049218279 ,45,6456036337933 ,75,404697164934
4.9432524 ,Left ,58,1136410164287 ,45,5973512780652 ,75,4177656002204
4.9622241 ,Left ,58,1357931112545 ,45,5874494339392 ,75,434654179429
4.9801744 ,Left ,58,1629569806811 ,45,6413363305275 ,75,4480199517255
5.0028647 ,Left ,58,1714544966559 ,45,7194827599198 ,75,4710805124007
5.022331 ,Left ,58,1752676870357 ,45,7854632948247 ,75,4861840138375
5.0403379 ,Left ,58,1588499705129 ,45,8392523053845 ,75,4909802093864
5.0629233 ,Left ,58,1462572098611 ,45,8813563365709 ,75,5187533697459
5.0826632 ,Left ,58,1108074367587 ,45,9049761963868 ,75,5439858995456
5.1003567 ,Left ,58,059251240837 ,45,924771654122 ,75,5662011089963
5.1231106 ,Left ,58,0067975041486 ,45,9401113376339 ,75,5726758727814
5.1429797 ,Left ,57,9706896099682 ,45,957607180745 ,75,5727993281097
5.160304 ,Left ,57,9623506150583 ,45,9927559467586 ,75,5761973473608
5.1830885 ,Left ,57,9475433572769 ,45,9889507547866 ,75,5613944463828
5.2026743 ,Left ,57,9271221779194 ,45,9701277858461 ,75,5772348540296
5.2206082 ,Left ,57,9114144858993 ,45,9431239137499 ,75,6018267387457
5.2430776 ,Left ,57,895492506979 ,45,9677133112129 ,75,6266897308867
5.2624628 ,Left ,57,8790596409856 ,46,0188701310708 ,75,6248573148262
5.2803517 ,Left ,57,8799761138768 ,46,0575293411515 ,75,623917420175
5.3030995 ,Left ,57,8979573986753 ,46,0786011153473 ,75,6382682512887
5.3223038 ,Left ,57,9017750247012 ,46,0840355213232 ,75,6666297177959
5.3402253 ,Left ,57,8861440990916 ,46,0902335278844 ,75,701380348525
5.3632659 ,Left ,57,8889265219624 ,46,1024292313248 ,75,7366280383646
5.3834253 ,Left ,57,8776363554 ,46,1248088836752 ,75,7861077171772
5.4054891 ,Left ,57,8821331178543 ,46,1618035096798 ,75,8188341262873
5.4234844 ,Left ,57,9036069355702 ,46,1955354274172 ,75,8266056974933
5.4426478 ,Left ,57,9056456457246 ,46,2367308735319 ,75,8109851553566
5.4648575 ,Left ,57,9089450277275 ,46,2875330610003 ,75,7789947524448
5.4828672 ,Left ,57,9096650145669 ,46,3398518538105 ,75,741064708431
5.5037365 ,Left ,57,927970120585 ,46,3725340650593 ,75,7331638856408
5.5248857 ,Left ,57,9203413794629 ,46,3982551971081 ,75,7234765824835
5.5430657 ,Left ,57,9240422493213 ,46,4119338552423 ,75,6960907985503
5.5642307 ,Left ,57,9129800493858 ,46,4270088417787 ,75,6571882571714
5.585229 ,Left ,57,9074904138028 ,46,4449450526287 ,75,5989259725501
5.603072 ,Left ,57,8985499242362 ,46,4426275485705 ,75,5195448207326
5.6240785 ,Left ,57,8922196103339 ,46,4526864540146 ,75,4482662949774
5.6451331 ,Left ,57,8766740946425 ,46,4418711632401 ,75,4593355076945
5.6631828 ,Left ,57,857059058117 ,46,4704011888936 ,75,5080047522197
5.683927 ,Left ,57,8427135423469 ,46,4943558308138 ,75,5450519837305
5.7052432 ,Left ,57,8618417500071 ,46,4840997840072 ,75,5823748249524
5.7231402 ,Left ,57,8867669543036 ,46,4281852555243 ,75,5962646223154
5.7439638 ,Left ,57,8985378532687 ,46,3498319725342 ,75,5992052602614
5.766468 ,Left ,57,8932292112307 ,46,236299695481 ,75,5920333267611
5.7829718 ,Left ,57,8855334430235 ,46,1347625353108 ,75,5834434252315
5.8039307 ,Left ,57,9074298105352 ,46,0471701509625 ,75,5753174635632
5.8250004 ,Left ,57,923707276667 ,45,9683444987238 ,75,567593829305
5.843151 ,Left ,57,9415142343567 ,45,9104084569112 ,75,5626150106817
5.8656593 ,Left ,57,9723202864189 ,45,8712181525428 ,75,5802602052156
5.8850317 ,Left ,57,994079434982 ,45,7962271331302 ,75,6010750337775
5.9076082 ,Left ,58,0148728926833 ,45,7163316184809 ,75,6337359752731
5.9253665 ,Left ,58,0119122179632 ,45,6767140902074 ,75,6710915895713
5.9452707 ,Left ,58,0023159264868 ,45,6758646174773 ,75,6938160014303
5.9627997 ,Left ,57,9973516661817 ,45,6890617169047 ,75,6885444166392
5.9856763 ,Left ,58,0353552750233 ,45,699449080883 ,75,6890938428987
6.0050941 ,Left ,58,0836020292992 ,45,6670328482037 ,75,7100231393243
6.0228584 ,Left ,58,0874550761224 ,45,6532400577271 ,75,7120603291532
6.0452193 ,Left ,58,0890737550173 ,45,6624787981922 ,75,698203818467
6.0648496 ,Left ,58,081366625104 ,45,6822176931016 ,75,6903483381176
6.0828398 ,Left ,58,0566447751715 ,45,7254881247455 ,75,6890951942025
6.1054692 ,Left ,58,0059426272436 ,45,7814084536933 ,75,6887778484167
6.1249202 ,Left ,57,9799516530704 ,45,8178660567315 ,75,7078626900323
6.1430635 ,Left ,57,9670366379297 ,45,8141159092258 ,75,7086193289315
6.1655226 ,Left ,57,953217734578 ,45,7810373827801 ,75,6845283392023
6.1849614 ,Left ,57,9191562530708 ,45,7492615392033 ,75,6547574125816
6.2030149 ,Left ,57,9064214901594 ,45,7356462339855 ,75,6211962435814
6.2251881 ,Left ,57,9264462882962 ,45,7321913658651 ,75,5963748915332
6.2453955 ,Left ,57,9427789541595 ,45,7257304122427 ,75,5855526704785
6.2632652 ,Left ,57,9774282606835 ,45,7140747404528 ,75,5737079435947
6.2857393 ,Left ,57,9976258682195 ,45,6978598173625 ,75,5595258802231
6.3060848 ,Left ,58,0182385612258 ,45,6992946599468 ,75,5443356460484
6.3223804 ,Left ,58,0373796295036 ,45,7072881977024 ,75,5326324254667
6.344831 ,Left ,58,0486543154136 ,45,7181885223953 ,75,5324865800659
6.365692 ,Left ,58,0815292973741 ,45,7012704783511 ,75,5469900036074
6.3818379 ,Left ,58,0975856804673 ,45,6761844175617 ,75,5461878543567
6.404421 ,Left ,58,1192904214739 ,45,6567018983455 ,75,5226721412444
6.425618 ,Left ,58,1320055728321 ,45,6285249754926 ,75,496702693974
6.4420811 ,Left ,58,1635630630001 ,45,607786743882 ,75,4831507521881
6.4642644 ,Left ,58,1961860855448 ,45,5905823349543 ,75,476462170561
6.4854461 ,Left ,58,2303299293879 ,45,5770671463499 ,75,4766053135959
6.5020645 ,Left ,58,2465321912332 ,45,5745582107234 ,75,4783673245043
6.5244559 ,Left ,58,2551732019847 ,45,5857936547098 ,75,4778948628725
6.5455399 ,Left ,58,2630751890307 ,45,604142082146 ,75,4875115791471
6.5620938 ,Left ,58,2570961714842 ,45,6334001907333 ,75,5084918401641
6.5844992 ,Left ,58,2510019288089 ,45,6586427420651 ,75,5169631746389
6.6057926 ,Left ,58,2370453631314 ,45,6746579038075 ,75,5139132784695
6.6221199 ,Left ,58,2091290195594 ,45,6897393180349 ,75,5058289684398
6.644609 ,Left ,58,180759431426 ,45,7046144990218 ,75,4978031890139
6.6658939 ,Left ,58,1636630677486 ,45,7172845561658 ,75,4969421344506
6.6821904 ,Left ,58,1531310231882 ,45,7158686132587 ,75,4984031207349
6.7043035 ,Left ,58,1371655009542 ,45,7291081878221 ,75,5007625443605
6.7255786 ,Left ,58,1162178993473 ,45,7476885207101 ,75,4941328600348
6.7421287 ,Left ,58,1037758975546 ,45,7780117155849 ,75,4842380698154
6.7645562 ,Left ,58,1071551932502 ,45,8051293962143 ,75,4790245864944
6.7868356 ,Left ,58,1165629994801 ,45,8190362790512 ,75,4671928948415
6.8019363 ,Left ,58,1168376405236 ,45,8264276694732 ,75,456015563781
6.8244339 ,Left ,58,1066163817103 ,45,845437871843 ,75,4391205173279
6.847156 ,Left ,58,0906516073583 ,45,8727056873535 ,75,4253643849063
6.8623766 ,Left ,58,080678206072 ,45,9002234112567 ,75,4095086606621
6.8846929 ,Left ,58,0706097571165 ,45,9186503889399 ,75,3954892542861
6.9070583 ,Left ,58,0852698677965 ,45,9081175381864 ,75,3841414929291
6.9215573 ,Left ,58,0883414222734 ,45,882502744247 ,75,3781217349952
6.9445578 ,Left ,58,0774824452127 ,45,8644427466086 ,75,3714116988031
6.9672066 ,Left ,58,0810685388908 ,45,8634827444474 ,75,3806741191036
6.981538 ,Left ,58,0680028945517 ,45,8681392983109 ,75,4034825279241
7.0042975 ,Left ,58,0675306355527 ,45,8759554392342 ,75,4284689874907
7.0269196 ,Left ,58,0572787073869 ,45,8883737853008 ,75,4588288556302
7.0412021 ,Left ,58,0650529546392 ,45,8998146984258 ,75,4913363824961
7.0644916 ,Left ,58,0835894995482 ,45,8930853153611 ,75,5022239457512
7.0872455 ,Left ,58,1088943395562 ,45,8710932592815 ,75,4998907602077
7.1015053 ,Left ,58,1403150101371 ,45,8505062336753 ,75,4685881025733
7.1245464 ,Left ,58,1634335402455 ,45,8148642630998 ,75,4251368758752
7.1470044 ,Left ,58,1829284737243 ,45,7857718012029 ,75,390937017911
7.1615779 ,Left ,58,1841762860224 ,45,7551230713127 ,75,3659978978897
7.1845917 ,Left ,58,1843477984023 ,45,7137442031829 ,75,3486775548605
7.2070417 ,Left ,58,1894944249529 ,45,6555096786696 ,75,3357572546175
7.2214894 ,Left ,58,1995141131918 ,45,5817119432573 ,75,324893951555
7.2443257 ,Left ,58,2012349274905 ,45,5457200183842 ,75,3416724199296
7.2669369 ,Left ,58,1995445472039 ,45,5410434625715 ,75,365006264421
7.2884289 ,Left ,58,2054130909636 ,45,5916060498857 ,75,4053822108069
7.3045959 ,Left ,58,2064809173192 ,45,6456586865208 ,75,4454384752881
7.3270703 ,Left ,58,2064539427022 ,45,6746292220442 ,75,4492113631398
7.348244 ,Left ,58,1965359168864 ,45,6813502089027 ,75,4365951995345
7.3646627 ,Left ,58,1753717321324 ,45,6827732797897 ,75,4247167296754
7.3875643 ,Left ,58,1513510926236 ,45,7049043648678 ,75,4152683334615
7.4082095 ,Left ,58,1371005176694 ,45,6996260184655 ,75,3945336177854
7.4320637 ,Left ,58,1249246053514 ,45,6875591761215 ,75,3942523824808
7.447151 ,Left ,58,1146054823595 ,45,6640290308373 ,75,3869881412327
7.4682685 ,Left ,58,1350716179425 ,45,6094396553855 ,75,3949721263041
7.4850692 ,Left ,58,1450175505173 ,45,5590115363741 ,75,4051664784001
7.5070282 ,Left ,58,151807766422 ,45,5661705958284 ,75,4251590671668
7.5286393 ,Left ,58,1487823799848 ,45,6243579060923 ,75,4499942362739
7.5449631 ,Left ,58,1608310457998 ,45,7033233725417 ,75,473737475517
7.5674216 ,Left ,58,1638627244396 ,45,7808238316335 ,75,5052254973244
7.5887595 ,Left ,58,1506716866804 ,45,8424835013962 ,75,5566130466686
7.6049426 ,Left ,58,1266950654789 ,45,8545320441136 ,75,5970682102943
7.6271896 ,Left ,58,0817766786486 ,45,898756176972 ,75,6387627863589
7.6482692 ,Left ,58,0261260419954 ,45,9582085799955 ,75,6805777016325
7.665199 ,Left ,57,9582250901281 ,46,0220795705531 ,75,7122973088206
7.6870199 ,Left ,57,9028344610941 ,46,0915572361383 ,75,7432160145638
7.7096742 ,Left ,57,8849223999365 ,46,133397452505 ,75,7518098133613
7.7245572 ,Left ,57,8536322436645 ,46,1595118877325 ,75,7446942972161
7.7534199 ,Left ,57,8161070332778 ,46,1672155966453 ,75,7221006840937
7.7695407 ,Left ,57,8042936139386 ,46,1624124866853 ,75,7378785771124
7.7845917 ,Left ,57,7921069455455 ,46,1753931913794 ,75,767968068442
7.8071256 ,Left ,57,7772182385228 ,46,2645997550274 ,75,8074097911746
7.8295878 ,Left ,57,7536449468728 ,46,3658614775114 ,75,8231655759775
7.8509078 ,Left ,57,7776247435621 ,46,4335793304089 ,75,8267116113573
7.8670751 ,Left ,57,8067914887315 ,46,4499178575602 ,75,8456121889495
7.8896534 ,Left ,57,8150172423905 ,46,4401060296658 ,75,8665286627461
7.910692 ,Left ,57,8178743203641 ,46,4176473004003 ,75,8640430426098
7.9270948 ,Left ,57,8353523267783 ,46,3797185476229 ,75,8465897542797
7.9494984 ,Left ,57,8262125665004 ,46,3517398093322 ,75,8413286654159
7.9639115 ,Left ,57,8416315044315 ,46,3288639182806 ,75,843705292309
7.9870799 ,Left ,57,8717673430084 ,46,3077543717555 ,75,8697175100783
8.0097681 ,Left ,57,8866326414707 ,46,2900956707171 ,75,890872580739
8.0239144 ,Left ,57,9013298639654 ,46,2974404797687 ,75,8973000825186
8.0471608 ,Left ,57,9241443650394 ,46,308857658207 ,75,887133249966
8.0696161 ,Left ,57,9420752945545 ,46,3145576636268 ,75,8664936479893
8.0839471 ,Left ,57,9502304424411 ,46,3264739259697 ,75,857277493494
8.106987 ,Left ,57,9583972733481 ,46,3305344632327 ,75,862106564064
8.129482 ,Left ,57,9504357130226 ,46,3411566565987 ,75,8382878657686
8.1437703 ,Left ,57,9335043491531 ,46,3478258126195 ,75,8000929570058
8.1674428 ,Left ,57,9140086928621 ,46,3620997424248 ,75,7537893870612
8.1899712 ,Left ,57,9013492054574 ,46,3869694591922 ,75,7158872238965
8.2043385 ,Left ,57,8969601317206 ,46,4182897218585 ,75,6715827607576
8.2274661 ,Left ,57,8809057974056 ,46,430765219984 ,75,6376694809123
8.2498969 ,Left ,57,8669653347057 ,46,4191793216241 ,75,6069975227998
8.27109 ,Left ,57,8604833561922 ,46,4130518856565 ,75,5872201408152
8.2874937 ,Left ,57,8642632241993 ,46,3915061242032 ,75,5817786381456
8.3096802 ,Left ,57,8647570392827 ,46,3553500386786 ,75,5558769574594
8.3306459 ,Left ,57,8665816144901 ,46,3309774582953 ,75,5168903990677
8.3471528 ,Left ,57,858390599195 ,46,3310037675069 ,75,461922064912
8.3695253 ,Left ,57,8523756555674 ,46,3404685753667 ,75,3968465010633
8.3906561 ,Left ,57,8461231867384 ,46,3436546374264 ,75,3517019976051
8.4071273 ,Left ,57,8444167723465 ,46,3476500957697 ,75,3311138660243
8.429539 ,Left ,57,830640223243 ,46,3421881564846 ,75,3373581626308
8.450568 ,Left ,57,817726779215 ,46,3196348002828 ,75,3265428728525
8.4668602 ,Left ,57,7984805809547 ,46,2970321173955 ,75,3118033374439
8.4893243 ,Left ,57,7783988008867 ,46,2823071101124 ,75,294975159128
8.5106221 ,Left ,57,7486711524595 ,46,2947100956586 ,75,2895298648128
8.5268739 ,Left ,57,7536428693691 ,46,2987964297721 ,75,3175446233664
8.5495706 ,Left ,57,7871919375362 ,46,2668917335396 ,75,3655874845722
8.5707713 ,Left ,57,8163205815441 ,46,2070940167423 ,75,3945366029755
8.5870889 ,Left ,57,8256933680551 ,46,1310477659948 ,75,40076168647
8.6095146 ,Left ,57,8241848458147 ,46,0642472791682 ,75,3889368922186
8.6307012 ,Left ,57,8330291301926 ,46,0089442253087 ,75,3683115636455
8.6470613 ,Left ,57,8429937461902 ,45,957398668159 ,75,3451732293138
8.6699892 ,Left ,57,8602778204 ,45,9413307724353 ,75,3274508903635
8.6924442 ,Left ,57,8577610752866 ,45,9593050250507 ,75,3294806252404
8.7074226 ,Left ,57,8665803462312 ,45,9369930961162 ,75,3427900441566
8.7299645 ,Left ,57,8956717835013 ,45,8597982986878 ,75,3668517115775
8.7524729 ,Left ,57,8664711485883 ,45,7918809011311 ,75,4027440449674
8.7674705 ,Left ,57,8444000383609 ,45,7488405964934 ,75,4128215701689
8.7895792 ,Left ,57,8482209743709 ,45,7326528876657 ,75,4083957192144
8.8121674 ,Left ,57,874927572425 ,45,7263224749828 ,75,4111365053919
8.8264682 ,Left ,57,9207885443843 ,45,7127584847698 ,75,4513375308418
8.8494458 ,Left ,57,9224663141141 ,45,66096743156 ,75,4847707200555
8.872036 ,Left ,57,936907310147 ,45,6277470998908 ,75,4887919954922
8.8864645 ,Left ,57,9206895016661 ,45,6043663986052 ,75,4778517593144
8.9098592 ,Left ,57,9256205398388 ,45,588065869379 ,75,4616463902987
8.9319915 ,Left ,57,9242315044706 ,45,5877354608281 ,75,452335796669
8.9466464 ,Left ,57,9228106083698 ,45,5920788213557 ,75,4526189400303
8.9696207 ,Left ,57,9525057914689 ,45,5798304703808 ,75,5002293280473
8.9920814 ,Left ,57,9596175923317 ,45,542498589687 ,75,5270889012459
9.0064788 ,Left ,57,9829262809572 ,45,5054146222388 ,75,5380325252245
9.029566 ,Left ,57,9707612209553 ,45,490165125987 ,75,543898987497
9.052109 ,Left ,57,978547332634 ,45,4924217611201 ,75,5390838979631
9.0664052 ,Left ,57,9824956935876 ,45,5062450786484 ,75,5290458973071
9.0894239 ,Left ,57,9686053835146 ,45,5222146613106 ,75,5259713562455
9.1118984 ,Left ,57,9441554694388 ,45,5357859060368 ,75,5335343396214
9.1268879 ,Left ,57,9278420757534 ,45,5473533020621 ,75,5478445825752
9.1499299 ,Left ,57,9643351993398 ,45,5457107648646 ,75,5856347665652
9.1724941 ,Left ,57,991568136902 ,45,5323295431005 ,75,6209393725867
9.193721 ,Left ,57,9967650610392 ,45,5107444621289 ,75,6253265801511
9.2100063 ,Left ,58,0065172263282 ,45,4963142131982 ,75,6067888375922
9.2324522 ,Left ,58,0178372581297 ,45,4922893691615 ,75,5865791233833
9.2529619 ,Left ,58,0308185677424 ,45,5027624114052 ,75,5772020441649
9.2695705 ,Left ,58,0483121179126 ,45,5310972791259 ,75,5798058266404
9.2918202 ,Left ,58,069005127108 ,45,5463972484406 ,75,5934744790372
9.3131928 ,Left ,58,0862364659668 ,45,5331284945466 ,75,5971679837071
9.329492 ,Left ,58,0941212491087 ,45,5122416232851 ,75,592805984498
9.3520638 ,Left ,58,0785684547712 ,45,5087667443647 ,75,5933075357028
9.3733342 ,Left ,58,0724318634914 ,45,5157504773423 ,75,5842202847354
9.3895855 ,Left ,58,0938135329483 ,45,523249635446 ,75,5727870284011
9.4183636 ,Left ,58,1075250605214 ,45,5269078694164 ,75,5780402799545
9.4331864 ,Left ,58,1228940259231 ,45,5234669960581 ,75,5826844665128
9.4497467 ,Left ,58,1201102614939 ,45,5289429416156 ,75,5891436875903
9.4722428 ,Left ,58,1142066698723 ,45,5537047362652 ,75,6003007272199
9.4936949 ,Left ,58,1061260577015 ,45,5819252525847 ,75,6147006565002
9.5107069 ,Left ,58,1097936690439 ,45,6042520219731 ,75,6270119070698
9.5323182 ,Left ,58,0983478794953 ,45,6272995147269 ,75,6343141866721
9.5537063 ,Left ,58,0815941087649 ,45,6503925286471 ,75,6257827866358
9.5699504 ,Left ,58,0568695250255 ,45,6816616086883 ,75,6048582635449
9.5921195 ,Left ,58,0362889890385 ,45,7172937816376 ,75,5821471498752
9.6145824 ,Left ,58,0320333948098 ,45,7562371394659 ,75,5651851272419
9.629675 ,Left ,58,0114270592993 ,45,7929792825144 ,75,5547489036322
9.6525789 ,Left ,57,988319955428 ,45,8334461694985 ,75,541426647165
9.674532 ,Left ,57,9678409647919 ,45,8735573381015 ,75,5285185379359
9.6896356 ,Left ,57,9441767097344 ,45,9155068960989 ,75,5246405856677
9.7120731 ,Left ,57,9254176020053 ,45,955347807394 ,75,5239283593231
9.734565 ,Left ,57,9179355832963 ,45,9874153632391 ,75,5118838714676
9.7496369 ,Left ,57,9066591476386 ,46,0135453815597 ,75,4956130430182
9.7720821 ,Left ,57,8998620285025 ,46,032981546562 ,75,4762266721124
9.7946732 ,Left ,57,9029805193204 ,46,0458426977392 ,75,4694284875154
9.8089149 ,Left ,57,908134306478 ,46,0518290437429 ,75,4619207386705
9.8320732 ,Left ,57,9156611309646 ,46,0494298519326 ,75,4476769727717
9.8545948 ,Left ,57,9265078864151 ,46,0419772523142 ,75,4302588509271
9.8689465 ,Left ,57,9392670801258 ,46,0281759981658 ,75,4093134765737
9.8921284 ,Left ,57,9618976390954 ,46,0088081071726 ,75,3919746571245
9.9145167 ,Left ,57,9843994291616 ,45,9769662416454 ,75,3789378420397
9.9289716 ,Left ,58,0127816695256 ,45,9317044046922 ,75,3559812225682
9.9521212 ,Left ,58,049699102931 ,45,8823383772727 ,75,3188484279957
9.9747093 ,Left ,58,0810077122544 ,45,8265551118557 ,75,2859822209257
9.9889195 ,Left ,58,0982956311236 ,45,774641815213 ,75,251686352322
10.0120244 ,Left ,58,120286343333 ,45,7319975575857 ,75,2251907802697
10.0351243 ,Left ,58,1359219946852 ,45,688491546144 ,75,2247024203786
10.0492152 ,Left ,58,1328325544395 ,45,6643981452181 ,75,2512376647072
10.0720712 ,Left ,58,1093148204216 ,45,6745093247318 ,75,2882890069021
10.0943731 ,Left ,58,0924147058411 ,45,6766490969423 ,75,3043973474894
10.1155071 ,Left ,58,1117226492222 ,45,6709210287846 ,75,3122264662874
10.1320904 ,Left ,58,1198981093348 ,45,6566335575708 ,75,3266232747676
10.1621579 ,Left ,58,1142340615717 ,45,6373096435845 ,75,341463358557
10.1755768 ,Left ,58,0987566144964 ,45,6280706205667 ,75,3412632557858
10.1919498 ,Left ,58,1058802945636 ,45,6152252024755 ,75,3345673543448
10.2144411 ,Left ,58,1520459903351 ,45,5944207996219 ,75,3231568685256
10.2357439 ,Left ,58,1687692671868 ,45,5661392687795 ,75,3247759241513
10.2522253 ,Left ,58,1730301792729 ,45,5405502678368 ,75,3282582255082
10.2746252 ,Left ,58,1721492026007 ,45,5361953537262 ,75,3336908482533
10.295613 ,Left ,58,1940514124441 ,45,5333298966082 ,75,336085261033
10.3118289 ,Left ,58,1946648948469 ,45,5189802571678 ,75,340565334624
10.3349648 ,Left ,58,2048377658295 ,45,5186657310654 ,75,3508990881069
10.3561849 ,Left ,58,195315359149 ,45,5320767985611 ,75,3783622939981
10.3723696 ,Left ,58,1793055917353 ,45,5648542278964 ,75,3924319396716
10.3947823 ,Left ,58,1558188666549 ,45,5788916214178 ,75,4031327741539
10.415986 ,Left ,58,1465032190573 ,45,5831264278195 ,75,4113317964496
10.4385669 ,Left ,58,1425776781968 ,45,5936568752693 ,75,4151937141078
10.45479 ,Left ,58,1072901113039 ,45,5963594713211 ,75,4228214844273
10.4754708 ,Left ,58,0556005240414 ,45,6145384555815 ,75,4393692111848
10.4920959 ,Left ,58,0047246948871 ,45,6591842751471 ,75,4591291795201
10.5141927 ,Left ,57,9674419854651 ,45,7056728221784 ,75,4748243007412
10.5354133 ,Left ,57,9320914885751 ,45,7111608544332 ,75,482822576177
10.552013 ,Left ,57,90629797529 ,45,7130644246358 ,75,4797750227159
10.5745596 ,Left ,57,8905199884739 ,45,714457310067 ,75,4837676991626
10.5971583 ,Left ,57,8767371911049 ,45,715906623126 ,75,4853385274308
10.6121305 ,Left ,57,8682672924499 ,45,7097832671262 ,75,4894050324086
10.6346113 ,Left ,57,8500223886329 ,45,7014208336527 ,75,4861466662459
10.6570416 ,Left ,57,8457416869062 ,45,7309438981815 ,75,4949676937781
10.6720114 ,Left ,57,8502734169732 ,45,75203570169 ,75,5010347305145
10.6946724 ,Left ,57,857248741551 ,45,7438226115757 ,75,503973553882
10.7174708 ,Left ,57,8632685731439 ,45,7000976442835 ,75,5057492352481
10.7312612 ,Left ,57,8545059016539 ,45,6635816087982 ,75,521567427094
10.7545383 ,Left ,57,8434656799494 ,45,6337079111902 ,75,5348142314277
10.7771712 ,Left ,57,8349552683459 ,45,625686182853 ,75,5569768312842
10.7913487 ,Left ,57,847045709433 ,45,6449221825204 ,75,590963227248
10.8146769 ,Left ,57,8463826468473 ,45,6890619630381 ,75,6260264900451
10.8374839 ,Left ,57,8511874458771 ,45,7359709896073 ,75,6593404684192
10.8516916 ,Left ,57,8593883461274 ,45,7917581749933 ,75,6911212097081
10.8745747 ,Left ,57,8575478609638 ,45,8456074951454 ,75,7094580316595
10.8970858 ,Left ,57,8451448331921 ,45,8786544765553 ,75,717616995814
10.9114787 ,Left ,57,8272336682635 ,45,9089945589499 ,75,7309622320871
10.9345728 ,Left ,57,8069312366643 ,45,9177486220657 ,75,7351556909495
10.957131 ,Left ,57,7800251139005 ,45,9096464617211 ,75,7335361143813
10.9716209 ,Left ,57,7641549070547 ,45,8998925662201 ,75,7362472648408
10.9950217 ,Left ,57,7440235871327 ,45,8958375439407 ,75,7332284655523
11.0170987 ,Left ,57,7256074869983 ,45,9025494533323 ,75,7223606053693
11.0311035 ,Left ,57,7087400998886 ,45,9213889517395 ,75,7192429365748
11.0544283 ,Left ,57,7044648368493 ,45,9647434704307 ,75,7296878165642
11.0769801 ,Left ,57,7145942189983 ,45,9767651430444 ,75,735656643211
11.098162 ,Left ,57,6950912413198 ,45,9890353661315 ,75,764723928916
11.1144625 ,Left ,57,6770036208007 ,46,013208905242 ,75,7982223219232
11.1370277 ,Left ,57,6803094419725 ,46,0598253624109 ,75,8162906712057
11.1583272 ,Left ,57,6834007460316 ,46,1020447057017 ,75,8006041396138
11.1746689 ,Left ,57,6852910975588 ,46,1217297816746 ,75,7729805302184
11.1972223 ,Left ,57,6824246890239 ,46,1151299850252 ,75,7597650673357
11.2184684 ,Left ,57,6945958897826 ,46,0917538095952 ,75,7647536096991
11.2346084 ,Left ,57,7102256396668 ,46,0723101345434 ,75,764659241625
11.2571328 ,Left ,57,7193892382522 ,46,049505573505 ,75,7630953488889
11.2784765 ,Left ,57,7331904027998 ,46,0290252434767 ,75,7565007947284
11.2947344 ,Left ,57,7666959561116 ,46,0124118322163 ,75,7530792411135
11.3171182 ,Left ,57,7800977926034 ,46,0171424677526 ,75,770710555398
11.3381637 ,Left ,57,819292812774 ,46,011376429872 ,75,790652381337
11.3543928 ,Left ,57,8394904212419 ,46,0065490166754 ,75,7990960574424
11.377125 ,Left ,57,8505389563648 ,46,004863856693 ,75,8034582497945
11.3981663 ,Left ,57,8524995186505 ,46,0137079274883 ,75,8137859756444
11.4143999 ,Left ,57,8650568224426 ,46,0228679531848 ,75,8137921221336
11.4371037 ,Left ,57,8774195979096 ,46,0391662254641 ,75,8025696761935
11.4581913 ,Left ,57,8797606835753 ,46,0565363948693 ,75,7959147873285
11.4745327 ,Left ,57,8777034085753 ,46,0784076801915 ,75,7892324532453
11.4971072 ,Left ,57,8834283945068 ,46,1058798354606 ,75,7754071232378
11.5197031 ,Left ,57,8650899636985 ,46,1278785521904 ,75,7603755172301
11.5345621 ,Left ,57,8408641306894 ,46,1591913277261 ,75,7428205151211
11.5570813 ,Left ,57,8263962461725 ,46,2009539840573 ,75,7159506010317
11.579646 ,Left ,57,8172362097526 ,46,2280011341965 ,75,6848569239117
11.5946622 ,Left ,57,8045238619015 ,46,2414470580618 ,75,6456230181315
11.6169903 ,Left ,57,7865153120899 ,46,2476355110084 ,75,601804996444
11.6395684 ,Left ,57,7836193910506 ,46,2374125804132 ,75,5521348234473
11.654079 ,Left ,57,777657935995 ,46,2238803141246 ,75,5046811819439
11.6770756 ,Left ,57,7661877537774 ,46,216365579075 ,75,457242912988
11.6997303 ,Left ,57,7572921794697 ,46,21504942988 ,75,4020414383692
11.7139447 ,Left ,57,7306725761575 ,46,2049892343775 ,75,3494618052496
11.7370314 ,Left ,57,7376448409382 ,46,1742610606512 ,75,3463740500408
11.7595154 ,Left ,57,7475594352702 ,46,1296458297005 ,75,362950058999
11.7739285 ,Left ,57,7454780119801 ,46,1235711513391 ,75,3707860874735
11.7970263 ,Left ,57,7444667653471 ,46,1319826175163 ,75,365767717487
11.8270887 ,Left ,57,7744352584355 ,46,1340456688813 ,75,3522929811786
11.8338021 ,Left ,57,8137814636965 ,46,104408535963 ,75,3389688538522
11.8571018 ,Left ,57,826682830612 ,46,0427989057396 ,75,3268272923831
11.8796066 ,Left ,57,8332841331786 ,45,9750709653709 ,75,3162708966633
11.8939074 ,Left ,57,8454782854218 ,45,90134162464 ,75,3236060095593
11.9170526 ,Left ,57,8611819495654 ,45,845512373599 ,75,3098789166772
11.9395575 ,Left ,57,9096699052511 ,45,7959514800162 ,75,289131399333
11.9538535 ,Left ,57,9432226694917 ,45,7609246463174 ,75,2921481060978
11.9772366 ,Left ,57,9499709005843 ,45,7407710369801 ,75,2966158015004
11.9998 ,Left ,57,962492145289 ,45,7105896726949 ,75,3064919590431
12.0209107 ,Left ,57,9666846138417 ,45,6526185467784 ,75,3089774212666
12.0373174 ,Left ,57,9720912904013 ,45,598661826508 ,75,3122032016355
12.0597146 ,Left ,57,9774753150698 ,45,5486656435469 ,75,3101191865764
12.0809542 ,Left ,57,9818262827655 ,45,5103164297466 ,75,2971677464141
12.1047571 ,Left ,57,9583974483857 ,45,5105549529625 ,75,3003271440118
12.1197243 ,Left ,57,9467617743691 ,45,5630246060362 ,75,3320098876981
12.1409461 ,Left ,57,9350434379023 ,45,6422995101459 ,75,3818966536793
12.1572724 ,Left ,57,9643249556047 ,45,6825235495333 ,75,4264587379829
12.1797337 ,Left ,57,977676700056 ,45,6948875206054 ,75,4537704073829
12.2003674 ,Left ,57,9610024205989 ,45,6919543262202 ,75,463199453831
12.2170786 ,Left ,57,9358685781264 ,45,6753321057432 ,75,4489455223974
12.2396545 ,Left ,57,904846389945 ,45,6562063950836 ,75,4338034234965
12.2605672 ,Left ,57,9018617168142 ,45,6373622408029 ,75,4191040962963
12.2772884 ,Left ,57,9041684234699 ,45,6019441031815 ,75,3943437365604
12.2996912 ,Left ,57,9135411117863 ,45,5752485307196 ,75,37433357804
12.3207883 ,Left ,57,9252172626598 ,45,566979049594 ,75,3657536379459
12.3371314 ,Left ,57,9427058188727 ,45,564214718132 ,75,3616806521878
12.3596587 ,Left ,57,9659624884637 ,45,5651575145278 ,75,370686209278
12.3820259 ,Left ,57,9843840058347 ,45,5560912554501 ,75,3749270500792
12.3968345 ,Left ,57,9904474052695 ,45,5450795477975 ,75,3714963184288
12.4271159 ,Left ,57,9858590117933 ,45,5323450927756 ,75,366396629831
12.4421523 ,Left ,57,9893252355019 ,45,5216285993523 ,75,3626229862919
12.4569341 ,Left ,57,9810264380193 ,45,5223484622816 ,75,3616250931939
12.4793741 ,Left ,57,9845267004567 ,45,5214008629784 ,75,3708762231709
12.502104 ,Left ,57,9892415777231 ,45,5132028367713 ,75,3795576317958
12.5171626 ,Left ,57,9988767455837 ,45,5103309979644 ,75,3834311903895
12.5397546 ,Left ,58,0390451503661 ,45,5013727893834 ,75,3935483120886
12.562185 ,Left ,58,0580861919059 ,45,4983352300144 ,75,4016487686928
12.5772642 ,Left ,58,0779408238542 ,45,5092760267714 ,75,3995113900611
12.5997339 ,Left ,58,0919690012759 ,45,528491107522 ,75,4005200392139
12.6222132 ,Left ,58,1073990181206 ,45,5423330035061 ,75,4102567112466
12.6366049 ,Left ,58,1230915262751 ,45,5534224821968 ,75,4196913819214
12.6596584 ,Left ,58,1388121237203 ,45,5588522904099 ,75,4285193353055
12.6821502 ,Left ,58,1442374376149 ,45,5601013289982 ,75,4385519060322
12.6965601 ,Left ,58,1523850301834 ,45,5580671554919 ,75,4453302416605
12.7197612 ,Left ,58,154592861768 ,45,5535724915308 ,75,4511184936541
12.7498005 ,Left ,58,154592861768 ,45,5535724915308 ,75,4511184936541
12.7565267 ,Left ,58,149154870666 ,45,5649984095064 ,75,4578217699016
12.7797223 ,Left ,58,1546640090592 ,45,5753387970112 ,75,4659656156117
12.8021828 ,Left ,58,1572426270354 ,45,585267197875 ,75,4766270959102
12.8165988 ,Left ,58,1537996548733 ,45,6005745904546 ,75,4901094891678
12.8397543 ,Left ,58,1530879360677 ,45,6257111932369 ,75,4930591002074
12.8622549 ,Left ,58,1439976618652 ,45,655619764864 ,75,4895707457676
12.8765924 ,Left ,58,1491695680408 ,45,6825959209568 ,75,4785572775745
12.8997263 ,Left ,58,1516322207269 ,45,7007923409566 ,75,4690675719749
12.922354 ,Left ,58,1498094715483 ,45,7150959865463 ,75,4585608314769
12.9434765 ,Left ,58,1506588060701 ,45,7335740756619 ,75,4369413689523
12.9595762 ,Left ,58,1497383847046 ,45,7510693207383 ,75,4088931531024
12.9822004 ,Left ,58,160439711461 ,45,7649473540085 ,75,3819858477048
13.0035767 ,Left ,58,1660008910074 ,45,7762201284613 ,75,3601399961334
13.0194935 ,Left ,58,1809944181896 ,45,7816985508742 ,75,3419554438105
13.0422136 ,Left ,58,1822129261349 ,45,7856273157414 ,75,3215916555457
13.0634709 ,Left ,58,1832536350089 ,45,7957301212776 ,75,2991090723897
13.0798132 ,Left ,58,183465095144 ,45,8116031932674 ,75,2712909613235
13.1020961 ,Left ,58,1940779750336 ,45,8164325335459 ,75,2463810386267
13.1234826 ,Left ,58,1985345199217 ,45,8067798446843 ,75,2218674209971
13.1400056 ,Left ,58,2023100210406 ,45,7841910421082 ,75,1984154133796
13.1624904 ,Left ,58,2168474738211 ,45,7468044398207 ,75,1863851056862
13.1835566 ,Left ,58,2247463756492 ,45,7060051281893 ,75,1761756534725
13.1998176 ,Left ,58,2223934070802 ,45,6762835084486 ,75,1808786986828
13.2220834 ,Left ,58,2157225386806 ,45,6654229852846 ,75,1905292779347
13.2432136 ,Left ,58,2239804137551 ,45,6339722685803 ,75,1995657065131
13.2596078 ,Left ,58,2294053615406 ,45,5913757649701 ,75,2247259557728
13.2821332 ,Left ,58,2099682990374 ,45,5693402100301 ,75,2463405383927
13.3045516 ,Left ,58,2056104238736 ,45,5609197387207 ,75,2567873041123
13.3195271 ,Left ,58,2195305058849 ,45,5552732680065 ,75,2700009669043
13.3423907 ,Left ,58,2478174057901 ,45,5467746627268 ,75,2756882062656
13.363263 ,Left ,58,2624513371518 ,45,5345029996528 ,75,2761003119483
13.3797623 ,Left ,58,304848631393 ,45,5103593936321 ,75,2575692882252
13.4020918 ,Left ,58,313466972744 ,45,4691178067304 ,75,2324981313119
13.4245759 ,Left ,58,3319111159125 ,45,4415925756687 ,75,2194294569903
13.4396901 ,Left ,58,3160694533092 ,45,4189761169222 ,75,226481356701
13.4621275 ,Left ,58,3185361963374 ,45,414131358718 ,75,2383211676278
13.4846053 ,Left ,58,3146351897375 ,45,4248485054362 ,75,263276120874
13.4997179 ,Left ,58,2989337644951 ,45,4298257088014 ,75,2858253655954
13.5221971 ,Left ,58,2863280003274 ,45,4537135561111 ,75,3053605489439
13.5446791 ,Left ,58,2833721714415 ,45,4859863010689 ,75,3301375135999
13.5589687 ,Left ,58,291692822806 ,45,5023956850064 ,75,3364426422285
13.5821373 ,Left ,58,2768011001497 ,45,4978837616305 ,75,3246671955874
13.6044578 ,Left ,58,2596001535686 ,45,4927655835157 ,75,3036612850582
13.6189586 ,Left ,58,2325636172286 ,45,4983352300144 ,75,2826087010321
13.6422207 ,Left ,58,213717484475 ,45,49458049523 ,75,2616788667711
13.6644282 ,Left ,58,1880585350802 ,45,5003336985319 ,75,2499868633519
13.6789969 ,Left ,58,1645541446027 ,45,4890170122856 ,75,2484914367209
13.7021316 ,Left ,58,1456396231929 ,45,4633515483388 ,75,2611468084798
13.7246167 ,Left ,58,1779873683659 ,45,4113605205709 ,75,2680021517452
13.7389293 ,Left ,58,1829041854425 ,45,3902213464919 ,75,2872271588594
13.7703054 ,Left ,58,1577289402683 ,45,4191214257137 ,75,3296085179596
13.7722481 ,Left ,58,1340205468002 ,45,4909791407861 ,75,3713726633536
13.7899612 ,Left ,58,1494019670628 ,45,5687902887388 ,75,4100818605988
13.8123057 ,Left ,58,1443720171437 ,45,608949406805 ,75,4444055089773
13.8273091 ,Left ,58,1235634351413 ,45,6216710716563 ,75,4644739846472
13.8499108 ,Left ,58,069680137523 ,45,6302805153634 ,75,4914832225594
13.8666039 ,Left ,58,0477064993449 ,45,6535280907117 ,75,5063116491404
13.8877044 ,Left ,58,0160909207016 ,45,6627752799091 ,75,5153197901013
13.9100724 ,Left ,57,9708352531819 ,45,6739588278856 ,75,5197155854273
13.9264781 ,Left ,57,927937103774 ,45,6897661462475 ,75,5280000104035
13.9476039 ,Left ,57,9083582455215 ,45,7160146251366 ,75,5406638183188
13.9700563 ,Left ,57,8807947291336 ,45,7459391561434 ,75,5525515625327
13.9881082 ,Left ,57,8810439874112 ,45,7488453911267 ,75,5528314947022
14.0075882 ,Left ,57,8783022842483 ,45,726590955113 ,75,5500323621695
14.0302312 ,Left ,57,8635896624251 ,45,6952000773699 ,75,5474375792194
14.0478709 ,Left ,57,8475808208168 ,45,7149006447992 ,75,5687618650974
14.0671841 ,Left ,57,8196985265623 ,45,749067664975 ,75,5691139285434
14.0899609 ,Left ,57,8208344211312 ,45,7889413001285 ,75,558705024919
14.1077662 ,Left ,57,8285844317373 ,45,8064050036163 ,75,5498009192279
14.1276533 ,Left ,57,8352064318423 ,45,8083389958569 ,75,5630241043719
14.150059 ,Left ,57,8402840646962 ,45,779464851563 ,75,5752339107807
14.1680269 ,Left ,57,8630196907664 ,45,7523484413066 ,75,5752217902483
14.1874759 ,Left ,57,8712399086462 ,45,7210919676599 ,75,5846270325977
14.2099054 ,Left ,57,8866831540041 ,45,7027256599983 ,75,5967376220659
14.2280119 ,Left ,57,9101651783462 ,45,6951227997141 ,75,6049680754753
14.2475204 ,Left ,57,9343959993434 ,45,6895911473133 ,75,6224740837119
14.2699543 ,Left ,57,9389154713242 ,45,6993579049063 ,75,627378714584
14.288011 ,Left ,57,9383687252473 ,45,7188478220796 ,75,6295938254556
14.3074836 ,Left ,57,9350125997688 ,45,7413912257282 ,75,6317766104388
14.3300044 ,Left ,57,9238426774914 ,45,7666569423551 ,75,6242929918398
14.3478294 ,Left ,57,9054709403491 ,45,7942729654441 ,75,6099219351111
14.3674559 ,Left ,57,901933163908 ,45,8170799195705 ,75,5881000317349
14.390699 ,Left ,57,8853534202275 ,45,8348382796496 ,75,5728091511337
14.4130403 ,Left ,57,8644761825399 ,45,8582685986479 ,75,5518092169944
14.4281509 ,Left ,57,8662152734763 ,45,8808382012131 ,75,5246547241964
14.4505398 ,Left ,57,843742247828 ,45,9004344497127 ,75,4969324310519
14.4731359 ,Left ,57,8318792317513 ,45,9238812552873 ,75,4741947011175
14.4881071 ,Left ,57,8351447494145 ,45,9349654489384 ,75,4579997265876
14.5106243 ,Left ,57,8421504538449 ,45,9507279736173 ,75,4339231150403
14.5327667 ,Left ,57,836200748595 ,45,9566533094965 ,75,3889694228786
14.5474971 ,Left ,57,8246550844852 ,45,9464704880886 ,75,3353484805651
14.5697707 ,Left ,57,8021590327561 ,45,9589022215922 ,75,2951855649189
14.592503 ,Left ,57,7892301051997 ,45,9654519825032 ,75,2824115504348
14.6073838 ,Left ,57,7786066905328 ,45,9835909837999 ,75,2861872428146
14.629889 ,Left ,57,797065157645 ,45,9871312767222 ,75,2860902394347
14.6526005 ,Left ,57,8230319393626 ,45,9748574905344 ,75,2850459549287
14.6679258 ,Left ,57,8578245820211 ,45,939956195252 ,75,2763295596684
14.6900613 ,Left ,57,8811139951167 ,45,8852512860264 ,75,2635310183101
14.7126967 ,Left ,57,9003834259729 ,45,8197045110501 ,75,2370552736698
14.7272985 ,Left ,57,9208101756065 ,45,7552907422058 ,75,2109797097612
14.7499757 ,Left ,57,9501494579808 ,45,7041320832277 ,75,1935807829745
14.7723518 ,Left ,57,9738966939607 ,45,6590040109554 ,75,1761573065901
14.7874382 ,Left ,58,0225103720598 ,45,6206936171663 ,75,1566411554979
14.8103363 ,Left ,58,0491802946355 ,45,5737786000508 ,75,1512708823214
14.8330849 ,Left ,58,0614406078037 ,45,5252220188958 ,75,1649249909872
14.8478057 ,Left ,58,0438582948578 ,45,4889825536809 ,75,1973131221955
14.8702836 ,Left ,58,0492424669327 ,45,4797062227792 ,75,2209012331371
14.8927746 ,Left ,58,0419512616839 ,45,5047857832921 ,75,2469622385001
14.9072671 ,Left ,58,0365013702241 ,45,5409805332904 ,75,2685739672665
14.9299348 ,Left ,58,0201695797888 ,45,5740439796625 ,75,2764539259189
14.9524347 ,Left ,57,9918863336782 ,45,6008689318933 ,75,2881095622383
14.9691343 ,Left ,57,9607552613111 ,45,6216428559505 ,75,3016562324164
14.990238 ,Left ,57,9740470436471 ,45,6188319340946 ,75,3329519289621
15.0125377 ,Left ,57,9861812169846 ,45,5996718351372 ,75,3713700727127
15.0289912 ,Left ,57,9837922726472 ,45,5775254902838 ,75,3863748384998
15.0502502 ,Left ,57,9739603117022 ,45,5855982374703 ,75,3892379318611
15.0727193 ,Left ,57,9693731855611 ,45,5988936838929 ,75,3840149118738
15.0890878 ,Left ,57,9774634032093 ,45,6149600178743 ,75,3690731283061
15.1101996 ,Left ,57,9761767292529 ,45,6440942814862 ,75,3571865939291
15.132757 ,Left ,57,9539446468093 ,45,6727606910688 ,75,354840183703
15.1490414 ,Left ,57,9566724716205 ,45,6765994902906 ,75,3676063035957
15.1699318 ,Left ,57,9464226746434 ,45,6667634738806 ,75,3682048723535
15.1925811 ,Left ,57,9552886668881 ,45,6396656307768 ,75,3720930967806
15.208703 ,Left ,57,951689848967 ,45,618450940078 ,75,3720872023865
15.2300299 ,Left ,57,9617071529585 ,45,6059839156028 ,75,3629059940201
15.2525969 ,Left ,57,9898918945567 ,45,5928489310279 ,75,3589084925673
15.2703911 ,Left ,58,0194287254897 ,45,5906523584412 ,75,3504782916599
15.2901621 ,Left ,58,0449947035742 ,45,5884526175057 ,75,3324306092319
15.3127555 ,Left ,58,0679339433572 ,45,5922140566847 ,75,3146841211401
15.3304513 ,Left ,58,0776229688606 ,45,5978032925437 ,75,3017223702949
15.3500018 ,Left ,58,0973633602548 ,45,605341425286 ,75,3022303795766
15.3722606 ,Left ,58,1092379021175 ,45,6127497689911 ,75,3106406228872
15.3900851 ,Left ,58,1166048476893 ,45,604232794844 ,75,3196346278221
15.4100173 ,Left ,58,1170406823963 ,45,5953073678017 ,75,3214912069274
15.4358318 ,Left ,58,1170406823963 ,45,5953073678017 ,75,3214912069274
15.4508208 ,Left ,58,1207847298145 ,45,6046927651279 ,75,3231627703037
15.4704817 ,Left ,58,120067625835 ,45,621995489652 ,75,3222954393163
15.4929444 ,Left ,58,1178212791778 ,45,6321073276803 ,75,3171953062748
15.5102664 ,Left ,58,1039516966092 ,45,6468131804011 ,75,302106301182
15.5305131 ,Left ,58,0907734952469 ,45,6653670898696 ,75,2877340108819
15.5530364 ,Left ,58,0877180217089 ,45,6812272485995 ,75,2772550837501
15.570777 ,Left ,58,081340429362 ,45,6932898859571 ,75,2750663557101
15.590611 ,Left ,58,0813796475103 ,45,7023762327438 ,75,2732085139466
15.6128047 ,Left ,58,079483896829 ,45,7222649894909 ,75,2634343748138
15.6305704 ,Left ,58,0848219078116 ,45,7499342544062 ,75,2497079947912
15.6501832 ,Left ,58,0975324991799 ,45,7701320088753 ,75,2360575000617
15.6727096 ,Left ,58,1052981113606 ,45,7815404167566 ,75,2295951682657
15.69049 ,Left ,58,1084961430541 ,45,7893233779488 ,75,216044779287
15.7131475 ,Left ,58,1054978838738 ,45,8029674574621 ,75,2024971858007
15.7329467 ,Left ,58,1106387938586 ,45,8146701144406 ,75,1957047129631
15.7506409 ,Left ,58,1162193098277 ,45,8192575503868 ,75,1822177527569
15.7703075 ,Left ,58,1210894261288 ,45,8109094482101 ,75,1698130744585
15.7929167 ,Left ,58,1308103483485 ,45,7887512431296 ,75,165261581942
15.8105578 ,Left ,58,1358960688781 ,45,76413605018 ,75,1656855816134
15.8315488 ,Left ,58,139322605507 ,45,7409356753608 ,75,1661242443401
15.8525726 ,Left ,58,1459567890113 ,45,7245162588045 ,75,1619259233153
15.8705534 ,Left ,58,156763203544 ,45,6900056305617 ,75,1887081253584
15.8914541 ,Left ,58,1737302080838 ,45,6651017705772 ,75,2147940340965
15.9127197 ,Left ,58,1804955099271 ,45,6399898223141 ,75,2544868356729
15.9303863 ,Left ,58,1654994899273 ,45,6466025800054 ,75,2922741568275
15.9515128 ,Left ,58,1607380265302 ,45,6836215421933 ,75,3145610593434
15.972497 ,Left ,58,1943074029227 ,45,6989331533751 ,75,3330128447577
15.9904266 ,Left ,58,2286634772176 ,45,6885024991864 ,75,3334768993583
16.0117122 ,Left ,58,2503715635649 ,45,6644710320979 ,75,3182153717419
16.0354872 ,Left ,58,2617888695648 ,45,6265728742791 ,75,2909043480324
16.0506385 ,Left ,58,2736088201565 ,45,6047212358336 ,75,2745602245135
16.0715141 ,Left ,58,2700553325127 ,45,5966262229587 ,75,2671265312823
16.0925989 ,Left ,58,2945131454464 ,45,5779653341505 ,75,2529046035743
16.1104126 ,Left ,58,2800120484506 ,45,5229408115681 ,75,246830653078
16.1314381 ,Left ,58,2791999050084 ,45,4791477472311 ,75,2382725957154
16.1523045 ,Left ,58,2730821355626 ,45,4726894715059 ,75,263725554858
16.170279 ,Left ,58,2555318611934 ,45,476212352117 ,75,2859441018125
16.1929822 ,Left ,58,2284824582264 ,45,5199019761733 ,75,3149812124698
16.2126388 ,Left ,58,2029745179698 ,45,5786124544563 ,75,3521118594323
16.2303304 ,Left ,58,1911791910767 ,45,6255019927381 ,75,377520504278
16.2530762 ,Left ,58,1844924970927 ,45,6487533767462 ,75,3945064864485
16.2727011 ,Left ,58,1581981425176 ,45,6475225654561 ,75,3877400454483
16.2903252 ,Left ,58,1574894636886 ,45,6384545766724 ,75,3624085059816
16.3129072 ,Left ,58,1621645689271 ,45,6271894966909 ,75,3496281164831
16.3328425 ,Left ,58,1810629127988 ,45,6085647718815 ,75,340797407921
16.350816 ,Left ,58,1910810862383 ,45,5779446182851 ,75,3353235703313
16.3727231 ,Left ,58,1933411612376 ,45,5597516355618 ,75,3333364768783
16.3921482 ,Left ,58,1897773238675 ,45,5522369500801 ,75,3409314329474
16.4102515 ,Left ,58,1999924526457 ,45,569088867445 ,75,3564894085024
16.4329658 ,Left ,58,1929515118722 ,45,6077259850247 ,75,3905460406895
16.4523931 ,Left ,58,1667372402023 ,45,6278066051656 ,75,4226644440828
16.4702751 ,Left ,58,1380660197061 ,45,6516917476613 ,75,4518855007391
16.4928403 ,Left ,58,1079784866039 ,45,6793383777312 ,75,4664031951453
16.5124365 ,Left ,58,0783394386479 ,45,7065406769339 ,75,4658692056704
16.5300914 ,Left ,58,0486935684801 ,45,7472063411435 ,75,4697983444718
16.5529859 ,Left ,58,0213977787549 ,45,781197484194 ,75,4763250647227
16.5724137 ,Left ,57,9973066404818 ,45,8042421290437 ,75,4757280907458
16.590319 ,Left ,57,9645048093711 ,45,8143701099139 ,75,4696370775642
16.6130829 ,Left ,57,9473811074431 ,45,8331350885731 ,75,4666223125176
16.6324168 ,Left ,57,9276389863422 ,45,8686568071623 ,75,4713169470321
16.6503944 ,Left ,57,9171923746275 ,45,904544463713 ,75,4774877083394
16.6730501 ,Left ,57,9248758942258 ,45,9266879776443 ,75,4962329053151
16.692642 ,Left ,57,928011925727 ,45,9442268784402 ,75,5168387348629
16.7105419 ,Left ,57,9410999393003 ,45,9561312835111 ,75,5232513927687
16.7327217 ,Left ,57,9278686703259 ,45,9633947760044 ,75,5253228026694
16.7523614 ,Left ,57,9195022472479 ,45,9855219999024 ,75,5180404266529
16.7702675 ,Left ,57,9090883027757 ,46,0063871865021 ,75,5010095680943
16.7929065 ,Left ,57,9123087400986 ,46,0140579873079 ,75,4695775932413
16.820306 ,Left ,57,886099360178 ,45,9985049830563 ,75,4399864152576
16.8307148 ,Left ,57,8747311628537 ,45,9708288868366 ,75,4108948599951
16.8532875 ,Left ,57,8594078991845 ,45,9450966392424 ,75,3847720613585
16.8742009 ,Left ,57,8496064491972 ,45,9186516148237 ,75,3561575585684
16.8906306 ,Left ,57,8271355320815 ,45,9115866799999 ,75,3314093042331
16.9131726 ,Left ,57,8459644763744 ,45,9257799562196 ,75,3176775713839
16.934027 ,Left ,57,8253103522424 ,45,9496333354498 ,75,2941135040472
16.9501007 ,Left ,57,8454237184633 ,45,9741891368202 ,75,3237024626917
16.9727253 ,Left ,57,8393045418026 ,46,0068211401384 ,75,3868341574767
16.9938401 ,Left ,57,8232527907009 ,46,0305029517405 ,75,4382817918356
17.0104953 ,Left ,57,827721678111 ,46,0325157162615 ,75,457199478578
17.0330771 ,Left ,57,8414258283164 ,46,0188829818865 ,75,4633717817688
17.0540925 ,Left ,57,8568385817687 ,45,992033300321 ,75,4710506906985
17.070371 ,Left ,57,8608895135787 ,45,960404880633 ,75,4766646789388
17.0929207 ,Left ,57,8923283849089 ,45,9406687930646 ,75,4814378869318
17.1156437 ,Left ,57,9075386323694 ,45,9260834486902 ,75,4848037006775
17.1306289 ,Left ,57,9326421498644 ,45,9159242071533 ,75,4809402050331
17.1532714 ,Left ,57,9546361074703 ,45,9233262203391 ,75,4758954430384
17.1759738 ,Left ,57,9731563550962 ,45,9497905362028 ,75,4757438237692
17.190757 ,Left ,57,9802888148392 ,45,9867181244304 ,75,4695432781077
17.2133343 ,Left ,57,9951633136395 ,46,0084829892667 ,75,4595685911988
17.2357264 ,Left ,58,0038795767559 ,46,027558880819 ,75,445280341937
17.2507036 ,Left ,57,9901959229135 ,46,0446590863706 ,75,4366204989205
17.2729619 ,Left ,57,9787567839279 ,46,0573102778532 ,75,4336944004697
17.2952309 ,Left ,57,9681918417914 ,46,0821038767628 ,75,4114934519311
17.3147798 ,Left ,57,9654521989568 ,46,1108343133683 ,75,372987798716
17.3330003 ,Left ,57,9623937945482 ,46,1410311109445 ,75,3228687044683
17.3555326 ,Left ,57,958224068681 ,46,1575780014107 ,75,2590171465936
17.3756307 ,Left ,57,9534313999852 ,46,154553715108 ,75,1867925139427
17.3921623 ,Left ,57,9524872915646 ,46,1557197747461 ,75,1274274405117
17.4219181 ,Left ,57,9398465349643 ,46,1685153728592 ,75,0949747044394
17.4354579 ,Left ,57,9272686204554 ,46,1605353488748 ,75,0832471782598
17.4520554 ,Left ,57,9205685819022 ,46,164958356386 ,75,088871671773
17.4745318 ,Left ,57,8983425194534 ,46,1864593932746 ,75,0916532509322
17.4957905 ,Left ,57,9227472563296 ,46,1973086695722 ,75,1023918506448
17.5122778 ,Left ,57,9594111831343 ,46,1649649501917 ,75,1119980721343
17.5346212 ,Left ,57,9818547572963 ,46,1005920188097 ,75,1210446049137
17.563759 ,Left ,57,9857396060122 ,46,0171597250403 ,75,1163297144253
17.5721986 ,Left ,57,982222604284 ,45,9261463288067 ,75,1096985467774
17.5946254 ,Left ,57,9957121824058 ,45,8491670183813 ,75,1014585651651
17.615856 ,Left ,58,0136881782885 ,45,8001374848387 ,75,094572182052
17.6321222 ,Left ,58,0312386606546 ,45,7753993961364 ,75,0995910688828
17.6545422 ,Left ,58,0711307660172 ,45,7614748059726 ,75,1030623690722
17.6758773 ,Left ,58,0829857187178 ,45,7063980858758 ,75,1153719032434
17.6922005 ,Left ,58,0897638028785 ,45,6207273780098 ,75,123457326425
17.7144777 ,Left ,58,0855238168117 ,45,5255773613244 ,75,1380119289061
17.7351488 ,Left ,58,0876232952414 ,45,4702607797949 ,75,1465522620414
17.7519299 ,Left ,58,0876232952414 ,45,4702607797949 ,75,1465522620414
17.7745444 ,Left ,58,1049270662657 ,45,4961109465928 ,75,1488524826547
17.7958036 ,Left ,58,1257167507743 ,45,5234457660985 ,75,1668153937916
17.8121751 ,Left ,58,1245791328596 ,45,5391198918568 ,75,1954600049193
17.8346787 ,Left ,58,1265486561685 ,45,5530294459489 ,75,2184407193973
17.8559294 ,Left ,58,1245424437517 ,45,5750099162533 ,75,2388820724772
17.8721665 ,Left ,58,1184784553874 ,45,5827893319775 ,75,2481150693254
17.8946088 ,Left ,58,1020698336 ,45,6042843136752 ,75,2515378962544
17.9158137 ,Left ,58,0837941974302 ,45,6176524707801 ,75,2629356046165
17.932002 ,Left ,58,0721254822671 ,45,6046784681448 ,75,2716864719126
17.954575 ,Left ,58,0730720654892 ,45,5910795244698 ,75,2732923540351
17.976399 ,Left ,58,0705021902585 ,45,5857270773043 ,75,272305914425
17.992133 ,Left ,58,0727909161099 ,45,591366888873 ,75,2672162764391
18.0143663 ,Left ,58,0911928182732 ,45,5929845343237 ,75,2578007888122
18.0357264 ,Left ,58,101663923266 ,45,5903832360051 ,75,2438637656271
18.0521336 ,Left ,58,1167054756472 ,45,5857768870744 ,75,236348335614
18.074518 ,Left ,58,1257569826475 ,45,5825093214121 ,75,2370233221718
18.0972059 ,Left ,58,1406418407603 ,45,5857396530425 ,75,2333361062703
18.1122773 ,Left ,58,1493983384052 ,45,5902319696427 ,75,2200676019604
18.1345823 ,Left ,58,1449556367858 ,45,5991580814953 ,75,2086148377312
18.1570714 ,Left ,58,1473566001544 ,45,6117192921083 ,75,198529537381
18.1720322 ,Left ,58,154203044503 ,45,6153585336665 ,75,1998931656303
18.1947532 ,Left ,58,1632758312893 ,45,6145325406248 ,75,2069814569707
18.2169732 ,Left ,58,1709218436841 ,45,609963790228 ,75,2073293274551
18.2321283 ,Left ,58,1677837902387 ,45,6060112764315 ,75,1945777340757
18.2550755 ,Left ,58,1726597496245 ,45,6180462851383 ,75,1816409559111
18.2769577 ,Left ,58,1733689590534 ,45,6320377253528 ,75,1715909162484
18.2996676 ,Left ,58,1642914336588 ,45,6510422650185 ,75,1608354298405
18.314749 ,Left ,58,1572370757308 ,45,6626741955769 ,75,155464943884
18.3373098 ,Left ,58,1617904051161 ,45,6673249972532 ,75,1536448748114
18.3515708 ,Left ,58,162700047396 ,45,6751206260584 ,75,1457843201849
18.3745348 ,Left ,58,1607831425321 ,45,6893829200373 ,75,1354224512215
18.3971723 ,Left ,58,1568599758399 ,45,7134315011261 ,75,1261028003676
18.4114665 ,Left ,58,1632876260167 ,45,7395466242738 ,75,1125356145998
18.4346115 ,Left ,58,1810058197514 ,45,7590090030052 ,75,0965312749743
18.4569359 ,Left ,58,1883340915411 ,45,7656663458592 ,75,08058972944
18.4715178 ,Left ,58,190434279855 ,45,7728877288981 ,75,0639431181561
18.4944896 ,Left ,58,1879387081784 ,45,7821009492891 ,75,0409368999897
18.5170791 ,Left ,58,1824757197793 ,45,7892123176424 ,75,0144245413189
18.5312888 ,Left ,58,2010346930891 ,45,7841696636038 ,74,9925345172708
18.5545973 ,Left ,58,2060000233493 ,45,7623080249378 ,74,9932285831947
18.5771893 ,Left ,58,2004307798397 ,45,7485824233475 ,75,0084211450364
18.5982054 ,Left ,58,1890388903419 ,45,7266886063034 ,75,0218843331533
18.6143885 ,Left ,58,1843669001595 ,45,7015693429631 ,75,0417562128417
18.637042 ,Left ,58,1962757742262 ,45,6601510922008 ,75,061691533243
18.658105 ,Left ,58,1993267057882 ,45,6398134386988 ,75,0833946401929
18.6745251 ,Left ,58,2066882980548 ,45,6278840974482 ,75,0947804370378
18.6972371 ,Left ,58,2467565676315 ,45,6205453895739 ,75,0900858522131
18.7184799 ,Left ,58,2699382207614 ,45,6065607086301 ,75,0794440261454
18.7346854 ,Left ,58,2880656742927 ,45,5925954752601 ,75,0709297906414
18.7645786 ,Left ,58,3246936473626 ,45,5720716067518 ,75,0553164039732
18.7784789 ,Left ,58,3469610407133 ,45,5500413664915 ,75,0492988804539
18.7946104 ,Left ,58,3426676475203 ,45,524970352622 ,75,0515142634986
18.8170874 ,Left ,58,3493488817469 ,45,4871874649866 ,75,0473779249331
18.8384732 ,Left ,58,3474582976613 ,45,4334957818687 ,75,0551337929535
18.8546611 ,Left ,58,3629008516584 ,45,3999865006165 ,75,0648710653531
18.8771371 ,Left ,58,3575603381242 ,45,4104474719086 ,75,0804804980209
18.8984275 ,Left ,58,3265476395839 ,45,4635283705757 ,75,1012766773351
18.9146734 ,Left ,58,2874596826624 ,45,5282646337005 ,75,1284350702721
18.9371579 ,Left ,58,2553684266933 ,45,5921416928802 ,75,1683910892262
18.9582443 ,Left ,58,2417168726922 ,45,6331439610527 ,75,2048980871985
18.9746744 ,Left ,58,2244463683299 ,45,6532614847716 ,75,2350931030689
18.9973641 ,Left ,58,1856019074011 ,45,656750783498 ,75,2333477473477
19.0184691 ,Left ,58,1769657739515 ,45,6480617414283 ,75,2131212358951
19.0346378 ,Left ,58,16871296089 ,45,6411011988989 ,75,1811562462037
19.0572159 ,Left ,58,1800792193463 ,45,6034629647647 ,75,1479431664283
19.0857735 ,Left ,58,1738361068871 ,45,5580963900939 ,75,1262820680636
19.0946927 ,Left ,58,1720741935334 ,45,5136889925455 ,75,1146304759768
19.1172469 ,Left ,58,1825399692785 ,45,4825534821031 ,75,1120165422424
19.1396275 ,Left ,58,1775968891642 ,45,4787417031335 ,75,1049960896288
19.1539439 ,Left ,58,1874493602801 ,45,4888039614248 ,75,1254193378697
19.1770075 ,Left ,58,1777333822833 ,45,5121811302222 ,75,1690088285165
19.1996322 ,Left ,58,1583999674714 ,45,5555936303822 ,75,2139339254344
19.214007 ,Left ,58,15099063063 ,45,5958599865594 ,75,2360554363509
19.2371353 ,Left ,58,1562379937839 ,45,6379213449824 ,75,2449350875417
19.2596093 ,Left ,58,1297960570547 ,45,6746266369919 ,75,2401270609405
19.2739886 ,Left ,58,0873936380153 ,45,6969581159376 ,75,2222991494496
19.2971195 ,Left ,58,0623426232174 ,45,7079894509557 ,75,1995799703409
19.3200905 ,Left ,58,0403867020642 ,45,7023619603178 ,75,186929633015
19.3340143 ,Left ,58,0044456840305 ,45,7132905263161 ,75,1717895452484
19.3631459 ,Left ,57,9532453184998 ,45,7280523851105 ,75,1670336442461
19.3796389 ,Left ,57,9238845150455 ,45,7572961175272 ,75,1697786522048
19.3939909 ,Left ,57,9236705914264 ,45,7543937464825 ,75,1694634336962
19.4171286 ,Left ,57,9081118728596 ,45,7440274458053 ,75,1512733194204
19.4394271 ,Left ,57,8797813299595 ,45,723067899796 ,75,1422356765492
19.4539246 ,Left ,57,8428644448785 ,45,7183308382816 ,75,1490857008684
19.4772051 ,Left ,57,817650882082 ,45,7086751945621 ,75,1686621418471
19.4997222 ,Left ,57,7955509731052 ,45,7161579304536 ,75,1936331733098
19.5139911 ,Left ,57,7770894178924 ,45,774285816379 ,75,2159858243962
19.5371926 ,Left ,57,8113962996489 ,45,8330362641812 ,75,2542361202606
19.5597866 ,Left ,57,8651224519468 ,45,8623643176019 ,75,276624553696
19.580671 ,Left ,57,8895070887507 ,45,8684035743709 ,75,2775023612563
19.5970821 ,Left ,57,909079411354 ,45,857547051591 ,75,260818450986
19.6195312 ,Left ,57,9170396977415 ,45,8411654636712 ,75,2449519726793
19.640725 ,Left ,57,9328287492038 ,45,8221865548307 ,75,2386441963916
19.6570891 ,Left ,57,9599784790043 ,45,8070871339802 ,75,2432614676794
19.6797402 ,Left ,57,9914146448988 ,45,7699111671472 ,75,2487819868404
19.7006755 ,Left ,58,0198263463522 ,45,7338044011153 ,75,2450646531483
19.7172613 ,Left ,58,040217097606 ,45,7160081056588 ,75,2394139950399
19.7397515 ,Left ,58,0620294858613 ,45,7069490095113 ,75,2262422416494
19.7609942 ,Left ,58,0824076279095 ,45,7022324009788 ,75,2133971202138
19.7771978 ,Left ,58,0881627700452 ,45,70527543039 ,75,2115799923534
19.7997346 ,Left ,58,0931740941781 ,45,7090858494541 ,75,2186371597262
19.8207186 ,Left ,58,0965200648368 ,45,714318305967 ,75,2256999341717
19.8372636 ,Left ,58,089289188423 ,45,7230383812323 ,75,2199927476517
19.8596891 ,Left ,58,0787122120938 ,45,7485348455998 ,75,2127252221325
19.8809221 ,Left ,58,056487903109 ,45,784963857525 ,75,196594061124
19.8971986 ,Left ,58,0456312909944 ,45,8215527312405 ,75,1730125509618
19.9197029 ,Left ,58,0506634496916 ,45,8482573362955 ,75,1413546812189
19.9408393 ,Left ,58,0442810116237 ,45,8575785887788 ,75,1119469010065
19.9571854 ,Left ,58,0328135726224 ,45,8823879327361 ,75,0839613452644
19.979746 ,Left ,58,0193943893356 ,45,921334892675 ,75,0457735988181
20.0021932 ,Left ,58,0056674060315 ,45,9457926350253 ,75,0027571958967
20.0170602 ,Left ,57,9862712166076 ,45,9614805835331 ,74,9608882393989
20.0395526 ,Left ,57,9670335633567 ,45,9783146385768 ,74,9134771682958
20.0618741 ,Left ,57,9508371345008 ,45,9834510137049 ,74,8619619395109
20.077171 ,Left ,57,9312712198584 ,45,9667346086597 ,74,8395949123841
20.0997238 ,Left ,57,926324913653 ,45,9841742503413 ,74,8501017019618
20.1221265 ,Left ,57,9122824870491 ,46,0284575719902 ,74,857137974703
20.1371371 ,Left ,57,9209475751849 ,46,0667316353029 ,74,8575346033745
20.159644 ,Left ,57,9322606879337 ,46,0660851789094 ,74,8589344550254
20.1820816 ,Left ,57,9515196061532 ,46,0392370654774 ,74,8725328693905
20.1963177 ,Left ,57,9478656178152 ,45,9958237330363 ,74,8808919602438
20.2195415 ,Left ,57,9610139118806 ,45,9485006939225 ,74,8910368430665
20.242285 ,Left ,57,9815483534643 ,45,8894059970762 ,74,9124649909174
20.2562744 ,Left ,58,0119810146728 ,45,8473199024852 ,74,922646850784
20.2795677 ,Left ,58,0443664850224 ,45,8116282460432 ,74,9458386784487
20.3021253 ,Left ,58,1016226468786 ,45,7722120831931 ,74,9806471311353
20.3162152 ,Left ,58,1513133484782 ,45,7395765033007 ,75,0215651256026
20.3394772 ,Left ,58,1905860387605 ,45,7193929686693 ,75,0657788012364
20.3620379 ,Left ,58,2123087667625 ,45,7097633375092 ,75,121090694561
20.3768802 ,Left ,58,231755498014 ,45,7090924927387 ,75,1804252911271
20.4000263 ,Left ,58,2549552570791 ,45,71710779584 ,75,2267434624447
20.4225451 ,Left ,58,275021812992 ,45,7214305806851 ,75,2510116029891
20.4368891 ,Left ,58,2724605817222 ,45,7241253923961 ,75,2570746628984
20.4596268 ,Left ,58,2724016131593 ,45,7206683603395 ,75,2595654750603
20.4822804 ,Left ,58,2752761135264 ,45,7176365991266 ,75,2595827465872
20.5032857 ,Left ,58,2890449087369 ,45,7111834899917 ,75,2546434251113
20.5195085 ,Left ,58,2828443346589 ,45,6953627538786 ,75,2396655333499
20.5419592 ,Left ,58,2756266080506 ,45,6824140075786 ,75,219010579117
20.5630532 ,Left ,58,2725919776066 ,45,6675129912356 ,75,195506966367
20.5797262 ,Left ,58,2679312429656 ,45,6352410683066 ,75,160725023237
20.6021721 ,Left ,58,2725161902275 ,45,616300222423 ,75,134812211726
20.6234094 ,Left ,58,246303805282 ,45,6183290756654 ,75,1256062128886
20.6396827 ,Left ,58,2002496726703 ,45,5785990139623 ,75,0816030264547
20.6622011 ,Left ,58,1944925253823 ,45,5263959114769 ,75,0472634256139
20.6834953 ,Left ,58,1803677504926 ,45,4987780506941 ,75,039110014953
20.7071382 ,Left ,58,1858247223206 ,45,5238169189213 ,75,0250214985997
20.7221062 ,Left ,58,2046722143427 ,45,5699388398621 ,75,0213710969914
20.7432189 ,Left ,58,2285499722781 ,45,5941425730948 ,75,0186430700385
20.7593309 ,Left ,58,2330697246781 ,45,5886873527121 ,75,0275039093096
20.7819621 ,Left ,58,2182930657501 ,45,5813562203991 ,75,0364652524148
20.8030194 ,Left ,58,215367461748 ,45,5742430135422 ,75,0471521957902
20.8195176 ,Left ,58,2201664181057 ,45,5660492342492 ,75,0556859398512
20.8422742 ,Left ,58,2201664181057 ,45,5660492342492 ,75,0556859398512
20.863533 ,Left ,58,2201664181057 ,45,5660492342492 ,75,0556859398512
20.8797688 ,Left ,58,2262794167385 ,45,5548549560906 ,75,048984650861
20.9022775 ,Left ,58,2307225423185 ,45,5509753976463 ,75,0461488818663
20.9236718 ,Left ,58,2418992949925 ,45,5438417689657 ,75,049680056645
20.9396414 ,Left ,58,2626233647542 ,45,5360703478668 ,75,060265782444
20.9619256 ,Left ,58,2677708276706 ,45,5218976850192 ,75,0741735708283
20.9849596 ,Left ,58,2787698493338 ,45,5134554210343 ,75,0834044255962
20.9996847 ,Left ,58,2841970453512 ,45,515798745208 ,75,0844322096081
21.0282943 ,Left ,58,2911703248048 ,45,5298516587423 ,75,0782916879231
21.0444565 ,Left ,58,2947529773174 ,45,5424892122414 ,75,0743053000491
21.0595233 ,Left ,58,2920176812261 ,45,5508289589849 ,75,0810243537738
21.0819887 ,Left ,58,2932274105561 ,45,5492331596161 ,75,0810307115014
21.1045586 ,Left ,58,2918210936579 ,45,5479207081976 ,75,0806864414101
21.1188054 ,Left ,58,2906850185902 ,45,5505667995054 ,75,0717947984053
21.1419016 ,Left ,58,2948250235233 ,45,5561129663083 ,75,0611095059001
21.1643031 ,Left ,58,3041950909261 ,45,5610988374775 ,75,0511313215426
21.178705 ,Left ,58,3108093283753 ,45,5685459734555 ,75,0439952571407
21.2018857 ,Left ,58,3088970340974 ,45,5737528265918 ,75,0354722047717
21.2244632 ,Left ,58,3087185654659 ,45,5810027147109 ,75,0244626867124
21.2387087 ,Left ,58,3161673445418 ,45,5826648008117 ,75,0226725949139
21.2623136 ,Left ,58,3193056108245 ,45,5860250722228 ,75,0205339040124
21.2843059 ,Left ,58,3231420381544 ,45,5943129361567 ,75,0102382550616
21.2987266 ,Left ,58,317469798386 ,45,6083139751837 ,74,996414184697
21.3220749 ,Left ,58,3103260967582 ,45,6300910428792 ,74,9804780789084
21.3521294 ,Left ,58,2996543268376 ,45,6568611135616 ,74,9677498460903
21.3589679 ,Left ,58,3004976831793 ,45,6772395728121 ,74,9557456578304
21.3823499 ,Left ,58,2881969793692 ,45,6963010265597 ,74,9448127589015
21.4046539 ,Left ,58,2753295719505 ,45,7183870511149 ,74,9282520895679
21.4190307 ,Left ,58,2566578687242 ,45,7464434762152 ,74,9117252107479
21.4421608 ,Left ,58,2408361053094 ,45,7663842227376 ,74,8916697577493
21.4650162 ,Left ,58,2382877409815 ,45,7711177368799 ,74,8800686826189
21.4861322 ,Left ,58,2253332922615 ,45,7845823656541 ,74,8624946755523
21.5025107 ,Left ,58,2073417119524 ,45,8014494347927 ,74,8446139023618
21.524661 ,Left ,58,196017651969 ,45,806576949356 ,74,8319815205349
21.5457846 ,Left ,58,2003406835952 ,45,8083607340264 ,74,8298745160408
21.5621964 ,Left ,58,1930034230766 ,45,8006688520421 ,74,8544465784416
21.5842514 ,Left ,58,1822627646085 ,45,7763819633771 ,74,8881751660572
21.6057044 ,Left ,58,1720955854237 ,45,7500882942746 ,74,9188190340629
21.6221116 ,Left ,58,1628105812801 ,45,7350297958378 ,74,9392959880494
21.6446175 ,Left ,58,1653022015793 ,45,7244230316255 ,74,9470679860909
21.665549 ,Left ,58,1873989389538 ,45,6873039285676 ,74,9481279831931
21.6825156 ,Left ,58,2161874699413 ,45,650149799221 ,74,9498927667119
21.7051206 ,Left ,58,2259107642 ,45,6222826959745 ,74,9623049573375
21.7264058 ,Left ,58,2446556543797 ,45,5986667570313 ,74,9676106414712
21.7421804 ,Left ,58,2708648322482 ,45,59273329814 ,74,9643465907694
21.7645753 ,Left ,58,3167384357307 ,45,5776714887446 ,74,950456438464
21.7858821 ,Left ,58,3523732434836 ,45,5607225073971 ,74,9440276208316
21.8022211 ,Left ,58,3816587410785 ,45,5426728124661 ,74,9425697119107
21.8246318 ,Left ,58,4016533429247 ,45,5367067271698 ,74,9354665713657
21.8458132 ,Left ,58,4142926426525 ,45,5301374887136 ,74,9213016820287
21.8621433 ,Left ,58,4357361269873 ,45,5289763878054 ,74,9120843856695
21.8846478 ,Left ,58,4421069185449 ,45,5266135065245 ,74,9096051050962
21.9069036 ,Left ,58,4352527485141 ,45,5202073608523 ,74,9287100033483
21.9219951 ,Left ,58,4021757740269 ,45,5411158928514 ,74,9510415773898
21.9443856 ,Left ,58,3491164759052 ,45,6087169747372 ,75,0066697486866
21.9672237 ,Left ,58,2992053445262 ,45,6830556250559 ,75,0576785996382
21.9884989 ,Left ,58,2690001419273 ,45,7356879198713 ,75,0846052107501
22.004755 ,Left ,58,2535975327784 ,45,7576707809549 ,75,091313313619
22.0273435 ,Left ,58,234668041977 ,45,7618371513659 ,75,0774620822622
22.0417295 ,Left ,58,2018395686488 ,45,7515283567645 ,75,0625388747106
22.0647596 ,Left ,58,2098429014373 ,45,7390417524642 ,75,0381280976615
22.0871878 ,Left ,58,2246670016849 ,45,713625986751 ,75,0070160373113
22.1014493 ,Left ,58,2254312394404 ,45,6813034372469 ,74,9879598399107
22.1247776 ,Left ,58,2400986576405 ,45,6466922392168 ,74,9763287237643
22.1471622 ,Left ,58,2505254015457 ,45,6095240743301 ,74,978862557912
22.1617463 ,Left ,58,2562141186802 ,45,5931351768727 ,74,9863269406004
22.1845008 ,Left ,58,2714902378088 ,45,588101992285 ,74,9816904961717
22.207165 ,Left ,58,2862411236056 ,45,6096487923052 ,74,9745232541257
22.2216059 ,Left ,58,2969177929186 ,45,6430678250648 ,75,0041916088435
22.2446682 ,Left ,58,2742048569179 ,45,6965700157422 ,75,0590690490911
22.2672013 ,Left ,58,2367310805332 ,45,7641616148417 ,75,0958920875407
22.2817082 ,Left ,58,2268796610065 ,45,8125166302554 ,75,1040750318521
22.304656 ,Left ,58,2193333244822 ,45,8403099141557 ,75,1037390511386
22.3271527 ,Left ,58,1892674812132 ,45,8515825423574 ,75,0863060275346
22.3413448 ,Left ,58,1661759592903 ,45,8534178677469 ,75,0773876677807
22.3650264 ,Left ,58,1294860171565 ,45,8503422697817 ,75,0720096368328
22.3871164 ,Left ,58,1024138112784 ,45,8501022140468 ,75,0712778321093
22.4081177 ,Left ,58,0772860813893 ,45,8537956027405 ,75,0772797584498
22.424498 ,Left ,58,0435903977656 ,45,8655267796222 ,75,0921227802999
22.4469975 ,Left ,58,0384838631616 ,45,8856918653034 ,75,1030479888949
22.468453 ,Left ,58,0384838631616 ,45,8856918653034 ,75,1030479888949
22.4846479 ,Left ,58,0674941172478 ,45,8543434246838 ,75,0878867322124
22.5072792 ,Left ,58,0399219883589 ,45,827977217666 ,75,0600769686737
22.5284448 ,Left ,58,0289750794352 ,45,8244832183367 ,75,0700106463338
22.5447644 ,Left ,58,0081453646297 ,45,8436579026786 ,75,0816551257003
22.5671496 ,Left ,58,0175011328499 ,45,8855248086186 ,75,0793756321312
22.5884783 ,Left ,58,0168504650055 ,45,9216065359228 ,75,0899001146956
22.6045334 ,Left ,58,013213528042 ,45,9330513469373 ,75,1118040954917
22.6271393 ,Left ,58,022220552342 ,45,9291182901151 ,75,1422388603766
22.6481803 ,Left ,58,0217234643993 ,45,9183623055467 ,75,1734084103529
22.6644807 ,Left ,58,0421019845987 ,45,9135940202217 ,75,2053492563797
22.6872928 ,Left ,58,0567750745584 ,45,9101721965157 ,75,2277297314842
22.7085585 ,Left ,58,069720234052 ,45,9062789779524 ,75,2231776367421
22.7248055 ,Left ,58,0811291362975 ,45,9042798557966 ,75,2125590753654
22.7473053 ,Left ,58,1091822751642 ,45,924678741417 ,75,2012986852293
22.7685071 ,Left ,58,1266184859327 ,45,9467839251959 ,75,1857916075161
22.7848052 ,Left ,58,1335097939125 ,45,9639418521734 ,75,1741684191391
22.8073563 ,Left ,58,1393358550702 ,45,9794880015854 ,75,1682426261097
22.8296786 ,Left ,58,1451339480336 ,46,0006641007893 ,75,1630595965361
22.8447699 ,Left ,58,1500527742908 ,46,0185220565413 ,75,1543338531122
22.8674092 ,Left ,58,1447420181814 ,46,0174341275113 ,75,147574580278
22.889833 ,Left ,58,127851017765 ,46,0213462507177 ,75,1248010620563
22.9047647 ,Left ,58,1068221255601 ,46,0325857072716 ,75,0847702268501
22.9273062 ,Left ,58,0923957849894 ,46,0501427809877 ,75,0466572509591
22.9498166 ,Left ,58,0913552696761 ,46,0730845576469 ,75,0023944869022
22.9722031 ,Left ,58,0630403207226 ,46,0983753392837 ,74,9577103403142
22.9872749 ,Left ,58,0446072385024 ,46,1088154885986 ,74,8976483152019
23.0097037 ,Left ,58,0259519529005 ,46,1094040695694 ,74,8422148495638
23.0237968 ,Left ,57,9918907648691 ,46,1059260345459 ,74,8137169324858
23.0471296 ,Left ,57,9824724079766 ,46,1071293989281 ,74,8213922668275
23.0694533 ,Left ,57,9733483096896 ,46,1214911450873 ,74,8221494470342
23.0838005 ,Left ,57,989137830353 ,46,1504449823094 ,74,8136636483356
23.1069495 ,Left ,58,0188378647454 ,46,1501718880093 ,74,8176557477656
23.1294369 ,Left ,58,0588985829776 ,46,1133900473464 ,74,8179199997388
23.1436634 ,Left ,58,0801181502746 ,46,0648067998331 ,74,8316340483401
23.1667842 ,Left ,58,1057320750502 ,45,9848971111371 ,74,844525911061
23.1893761 ,Left ,58,1291923733726 ,45,9137316983002 ,74,8407332382878
23.2036844 ,Left ,58,1423252153692 ,45,8578375121426 ,74,8230088818997
23.2268867 ,Left ,58,1421642862656 ,45,8157927539766 ,74,802560202381
23.2498475 ,Left ,58,1510322884733 ,45,8056456115447 ,74,7905923310448
23.263774 ,Left ,58,1736948803684 ,45,810956115685 ,74,7853411791887
23.2869064 ,Left ,58,1996691513906 ,45,803286680654 ,74,7730146894602
23.3094381 ,Left ,58,223337371784 ,45,7827011628623 ,74,7939783884663
23.3305647 ,Left ,58,2155915498556 ,45,6923726072339 ,74,8279302063799
23.3470917 ,Left ,58,2148567506043 ,45,5969721106686 ,74,8418235834234
23.3697034 ,Left ,58,1918218074522 ,45,5784329187822 ,74,854358865446
23.3907032 ,Left ,58,1661917256229 ,45,6217844271879 ,74,8508253353986
23.4072773 ,Left ,58,1839660870635 ,45,6737137369071 ,74,8421249329516
23.42972 ,Left ,58,1961130265666 ,45,7074357076488 ,74,8599857140935
23.4508447 ,Left ,58,1926645404489 ,45,717425152197 ,74,893432607015
23.4673262 ,Left ,58,1933878007161 ,45,7102961448349 ,74,9311427785736
23.4896696 ,Left ,58,1985122409112 ,45,6933943617689 ,74,9622082605984
23.5107172 ,Left ,58,2007723689787 ,45,6764133726427 ,74,9721269885869
23.5268943 ,Left ,58,2158982818939 ,45,6794623267938 ,74,9745532044298
23.5495676 ,Left ,58,2158982818939 ,45,6794623267938 ,74,9745532044298
23.570759 ,Left ,58,2340232465984 ,45,6880467770146 ,74,9780438291693
23.5871566 ,Left ,58,234197698494 ,45,705925404449 ,74,9805035034992
23.6098002 ,Left ,58,253261180443 ,45,7061169626944 ,75,0098419759206
23.6307271 ,Left ,58,26841046327 ,45,699590704819 ,75,0378082928375
23.6471632 ,Left ,58,2850949914241 ,45,6891687848156 ,75,0417196874051
23.6694474 ,Left ,58,2958725261607 ,45,6839558220667 ,75,0275590346591
23.69054 ,Left ,58,3050132448571 ,45,6812160479982 ,75,0045529340815
23.7070339 ,Left ,58,3143935219417 ,45,6848515741954 ,74,9794497232042
23.7300787 ,Left ,58,3288966473406 ,45,6799733830508 ,74,9688518859696
23.751063 ,Left ,58,3346708491729 ,45,6664720606453 ,74,9589325397244
23.7676534 ,Left ,58,3465530837932 ,45,654391195774 ,74,9380669930578
23.790032 ,Left ,58,3517163527804 ,45,6471831455191 ,74,916866998918
23.8121773 ,Left ,58,3608783837652 ,45,6434322721834 ,74,9027394262047
23.8272939 ,Left ,58,3813217054006 ,45,6470030895613 ,74,8971172213102
23.8495987 ,Left ,58,3999910050723 ,45,6415905524162 ,74,8988947131102
23.8722986 ,Left ,58,4173572448075 ,45,6393964961949 ,74,8890366201567
23.8872821 ,Left ,58,4157435032287 ,45,6453470898418 ,74,8777620063887
23.9097876 ,Left ,58,4097065643712 ,45,6620764276788 ,74,8644190932859
23.9321769 ,Left ,58,4061364353899 ,45,6807002025441 ,74,8546368205775
23.9466284 ,Left ,58,4058341492884 ,45,6834281857493 ,74,8550005280591
23.9699699 ,Left ,58,3974225204444 ,45,6795237473321 ,74,8651801471727
23.9925249 ,Left ,58,3850673437029 ,45,6849617268627 ,74,8672835644886
24.0068882 ,Left ,58,3697338971585 ,45,700090507788 ,74,8613318076388
24.0300281 ,Left ,58,3513616788662 ,45,7222130852852 ,74,8501156481829
24.052281 ,Left ,58,3398202714447 ,45,7496409259632 ,74,8463708697727
24.0665772 ,Left ,58,3389070895648 ,45,7754517444318 ,74,8468794168213
24.0899079 ,Left ,58,3357270728109 ,45,7846245080342 ,74,8448108802993
24.1123125 ,Left ,58,3316243642946 ,45,7926560723176 ,74,8423899865454
24.1266759 ,Left ,58,3220685637407 ,45,7932216582845 ,74,8353118025848
24.1498026 ,Left ,58,3154891371145 ,45,7993328093817 ,74,8293508374498
24.1723032 ,Left ,58,3151995567071 ,45,7996448051395 ,74,8233848455189
24.1867033 ,Left ,58,3159721494979 ,45,7989184912005 ,74,8145843347124
24.2097285 ,Left ,58,3168960305522 ,45,7731150724609 ,74,8140668569595
24.2323413 ,Left ,58,3173109319194 ,45,7343452257836 ,74,8145747896471
24.2465983 ,Left ,58,3124881264739 ,45,6985013850573 ,74,8207670059874
24.2699544 ,Left ,58,3243366638988 ,45,6833570461676 ,74,8439518130392
24.292247 ,Left ,58,327410797011 ,45,6645899655563 ,74,8537462371437
24.3134508 ,Left ,58,3162730491768 ,45,6471305574154 ,74,8734785740211
24.329917 ,Left ,58,3138130855242 ,45,6289817906975 ,74,9034384699751
24.3524221 ,Left ,58,3082015498918 ,45,6251073680135 ,74,9348736939836
24.3736967 ,Left ,58,3353673317247 ,45,604305019795 ,74,9387250755394
24.3898299 ,Left ,58,3885509878201 ,45,5771107983154 ,74,9153377965808
24.4123812 ,Left ,58,4066301931194 ,45,554484505011 ,74,8849077273147
24.4333593 ,Left ,58,4352065879241 ,45,5391268019746 ,74,8537952074103
24.4498242 ,Left ,58,4410201108504 ,45,5347667161049 ,74,8421238956037
24.4724549 ,Left ,58,4516985632232 ,45,5451538235179 ,74,8449680646885
24.4936302 ,Left ,58,4605160005122 ,45,5454452498836 ,74,8640385618627
24.5097341 ,Left ,58,4703787394122 ,45,5370146102015 ,74,8671955957122
24.5324731 ,Left ,58,4799107719469 ,45,5236310342485 ,74,8576314201489
24.5536883 ,Left ,58,4865962184546 ,45,5271568115663 ,74,8382134745266
24.5699373 ,Left ,58,4550647462284 ,45,5439747772288 ,74,8333242817055
24.5927592 ,Left ,58,4232075917304 ,45,5686031983328 ,74,81470199697
24.6135754 ,Left ,58,4169225195191 ,45,6093933173417 ,74,8194330583739
24.629923 ,Left ,58,3724031528478 ,45,6349281824743 ,74,8526272920214
24.6522944 ,Left ,58,3517429969264 ,45,6492809646873 ,74,8815692251944
24.673588 ,Left ,58,3350389307391 ,45,6839521297371 ,74,898935638968
24.6898333 ,Left ,58,3294979067247 ,45,7131361425118 ,74,9081906853501
24.7123099 ,Left ,58,3312109642948 ,45,735227528956 ,74,9114591987174
24.7346959 ,Left ,58,3257679465388 ,45,7494469300614 ,74,9185656922087
24.7497535 ,Left ,58,3255435723791 ,45,7436617928388 ,74,9354808148671
24.7721119 ,Left ,58,3221025371479 ,45,7419745217086 ,74,9467572614261
24.7946863 ,Left ,58,3139097781633 ,45,7244313950197 ,74,9491469737698
24.8089508 ,Left ,58,3072409755255 ,45,7226145421928 ,74,9568985785781
24.8323563 ,Left ,58,3104879594117 ,45,7243790007948 ,74,9664501341064
24.8374934 ,Left ,58,2922176479583 ,45,7038070254688 ,74,9642534543087
24.8601002 ,Left ,58,2784744928202 ,45,6595516971137 ,74,9444441997017
24.8748958 ,Left ,58,2471215126486 ,45,6451576677829 ,74,9533394154155
24.8974392 ,Left ,58,248406184711 ,45,5983889213722 ,74,9562759764632
24.9200403 ,Left ,58,2723016031338 ,45,6001320893221 ,74,9417005469899
24.9362831 ,Left ,58,2856609617974 ,45,6238340283927 ,74,9317341385599
24.9603497 ,Left ,58,3216903132429 ,45,6642797038394 ,74,9211223793379
24.980073 ,Left ,58,3457079971543 ,45,6932703197945 ,74,9106219624171
24.9963817 ,Left ,58,3369668856342 ,45,6964022975664 ,74,9067477222634
25.0176448 ,Left ,58,3127778494655 ,45,7299428547966 ,74,9230382555367
25.0401079 ,Left ,58,2869793437659 ,45,763081498129 ,74,9477980341885
25.0565295 ,Left ,58,2428118422346 ,45,7863306961233 ,74,9569426624352
25.0774444 ,Left ,58,2106427193219 ,45,7884452095268 ,74,9646638176909
25.099856 ,Left ,58,1673970591278 ,45,7778292416251 ,74,9664093221028
25.116191 ,Left ,58,1316829132632 ,45,7617840534028 ,74,9506137499799
25.146275 ,Left ,58,0863138140583 ,45,7724719951145 ,74,9313503548295
25.1599184 ,Left ,58,0514452237095 ,45,785380362726 ,74,9254841219964
25.176551 ,Left ,58,0445746105235 ,45,802287490333 ,74,9268620219056
25.1975105 ,Left ,58,0560591772646 ,45,824836703842 ,74,9549285883795
25.220122 ,Left ,58,0611879409616 ,45,871838934442 ,74,9766886806365
25.2363542 ,Left ,58,0751914643038 ,45,9012046541161 ,74,9943052918433
25.2573116 ,Left ,58,0903936083758 ,45,9174423909522 ,75,0073826307234
25.280079 ,Left ,58,0869320870201 ,45,9180365857823 ,75,0218370460099
25.2965939 ,Left ,58,0948308734221 ,45,900750331579 ,75,0324137677283
25.3176442 ,Left ,58,101077241534 ,45,8838731057465 ,75,0518335746455
25.3397702 ,Left ,58,1166447034732 ,45,8644902309785 ,75,0691639336833
25.3564884 ,Left ,58,1348572842711 ,45,8583250458394 ,75,0737870809867
25.3775232 ,Left ,58,1331886773508 ,45,8597385397626 ,75,073787911718
25.3999002 ,Left ,58,1333449467065 ,45,8592042653215 ,75,0766090931531
25.4166957 ,Left ,58,1410382663734 ,45,8561078582446 ,75,0921963292408
25.4377081 ,Left ,58,1628834171526 ,45,8423285984945 ,75,1141942386149
25.4685289 ,Left ,58,1819529595787 ,45,8303591040718 ,75,1241617709365
25.4829459 ,Left ,58,191869529291 ,45,8258463175579 ,75,1188572463453
25.4979695 ,Left ,58,1948290440913 ,45,8398345080822 ,75,1032958347961
25.5203884 ,Left ,58,1943304844406 ,45,8679168589224 ,75,089190488299
25.5366305 ,Left ,58,196382478534 ,45,9013400305354 ,75,076217409286
25.557561 ,Left ,58,1874086514607 ,45,9215269798808 ,75,0599955550413
25.5802704 ,Left ,58,1854491059098 ,45,9402168489337 ,75,0385180859232
25.5966096 ,Left ,58,1763661559096 ,45,9670212390563 ,75,0142553406706
25.617942 ,Left ,58,1814911310191 ,45,9991403855729 ,74,9898190692054
25.6403346 ,Left ,58,186737963211 ,46,0280471419244 ,74,9710697040557
25.6581443 ,Left ,58,1866964728894 ,46,0415622618563 ,74,9581624181289
25.6778184 ,Left ,58,1782256945119 ,46,0596634254504 ,74,9389112752577
25.7031633 ,Left ,58,1730849831865 ,46,0828196154655 ,74,906064302607
25.7180367 ,Left ,58,1728173761527 ,46,1091450994997 ,74,8656433359758
25.7379275 ,Left ,58,1495072658605 ,46,1280096488346 ,74,8180074817762
25.7603165 ,Left ,58,1410784475381 ,46,1244848518148 ,74,8045918561333
25.7780982 ,Left ,58,1432173394668 ,46,0885750639019 ,74,79966905039
25.7977612 ,Left ,58,1375168358791 ,46,0854719596325 ,74,8013490746843
25.8201734 ,Left ,58,0900053485856 ,46,1159059638667 ,74,7932865498884
25.8381373 ,Left ,58,0893237605943 ,46,1438367771039 ,74,7795901070832
25.8577321 ,Left ,58,1091488453718 ,46,1489549188519 ,74,7801472044795
25.8803285 ,Left ,58,116579481639 ,46,1337874093149 ,74,7936637519398
25.8981193 ,Left ,58,1223120877593 ,46,1085084857381 ,74,8025312908729
25.917914 ,Left ,58,1262535463164 ,46,080498509259 ,74,7991172259502
25.9402593 ,Left ,58,1280902001125 ,46,0563507202482 ,74,7929585146571
25.9580309 ,Left ,58,1299890821054 ,46,0197097121227 ,74,7909151115349
25.9806973 ,Left ,58,1426873513613 ,45,98442161345 ,74,7935079623982
26.0003606 ,Left ,58,1602729083624 ,45,9604009604878 ,74,7954948612659
26.0183309 ,Left ,58,1783716416777 ,45,9389927350742 ,74,803812055746
26.0375503 ,Left ,58,200925258361 ,45,9153742484467 ,74,8153093594247
26.0605958 ,Left ,58,2337138051274 ,45,8829277657212 ,74,8152089760823
26.082856 ,Left ,58,2595413585152 ,45,8584122934588 ,74,7916307545279
26.099173 ,Left ,58,2890911536094 ,45,8093044330566 ,74,7356280861
26.1204175 ,Left ,58,315379756479 ,45,7473554705391 ,74,680291282968
26.1381282 ,Left ,58,3290036609913 ,45,7021809708848 ,74,6492378443081
26.157796 ,Left ,58,3169708901609 ,45,6723367270476 ,74,6700857390741
26.1804945 ,Left ,58,3149171994775 ,45,6370706766836 ,74,6944878084145
26.1981391 ,Left ,58,3321970684308 ,45,6021932027498 ,74,700711782256
26.2180492 ,Left ,58,3569205514112 ,45,5655436814895 ,74,6900311011535
26.2401785 ,Left ,58,3525040821418 ,45,5394378797775 ,74,6741879303943
26.2584558 ,Left ,58,3489582510248 ,45,5366463843626 ,74,6644264898182
26.278738 ,Left ,58,3472442486926 ,45,5380514044946 ,74,6644229434305
26.3012142 ,Left ,58,3455534260497 ,45,5378669251425 ,74,6760022452851
26.3222823 ,Left ,58,3369135935584 ,45,5361139086772 ,74,6894023044611
26.3387092 ,Left ,58,3189523100864 ,45,5447238372769 ,74,6912528722831
26.3598053 ,Left ,58,3204876174933 ,45,5722071371726 ,74,7010661461474
26.3823567 ,Left ,58,2626002786075 ,45,5959473843872 ,74,714677556158
26.3987585 ,Left ,58,220087241014 ,45,6119644048596 ,74,6967030961246
26.4197031 ,Left ,58,1790076122715 ,45,6286553185033 ,74,7085249459794
26.4423446 ,Left ,58,1514183149112 ,45,6653931908191 ,74,7187902773812
26.4590181 ,Left ,58,1621568164439 ,45,7126405123491 ,74,7176062038827
26.479733 ,Left ,58,1720757247644 ,45,7427401502665 ,74,7228529648477
26.5024766 ,Left ,58,1801553838134 ,45,7433829409461 ,74,7357741144869
26.5193089 ,Left ,58,2023962351747 ,45,7180655178894 ,74,7588040457269
26.540662 ,Left ,58,2001445321001 ,45,680982927293 ,74,7742296397772
26.5632472 ,Left ,58,2316172250247 ,45,6638130768851 ,74,7818396472176
26.5794791 ,Left ,58,2517383172855 ,45,6507409192976 ,74,7856283849681
26.6004606 ,Left ,58,2775972135468 ,45,6407797234848 ,74,7876415272218
26.6231001 ,Left ,58,2907090108732 ,45,6531318140861 ,74,793952844609
26.640915 ,Left ,58,2876896881556 ,45,6735817738753 ,74,8200133587546
26.6603907 ,Left ,58,279495137834 ,45,7004320742296 ,74,8492728457938
26.6825293 ,Left ,58,2811743493868 ,45,7229508094047 ,74,8940582031838
26.7005452 ,Left ,58,2970621547003 ,45,7027545737781 ,74,9409443823692
26.7200148 ,Left ,58,3170074323242 ,45,6621137344892 ,74,9677555596213
26.7425776 ,Left ,58,3270748804807 ,45,6172776299006 ,74,9779944427492
26.7602554 ,Left ,58,3309606310207 ,45,592939168894 ,74,9663257881096
26.7800069 ,Left ,58,3442609296169 ,45,5947347735781 ,74,9415476110219
26.8027846 ,Left ,58,3613767254301 ,45,6123357073601 ,74,9164517725404
26.8204591 ,Left ,58,3710264498751 ,45,6357484570469 ,74,9030783632576
26.8401336 ,Left ,58,4105669320651 ,45,6330090704418 ,74,908067329429
26.862734 ,Left ,58,4196550148003 ,45,6247377513447 ,74,9052251982141
26.8806675 ,Left ,58,4197466825362 ,45,6292812810774 ,74,893940768131
26.9000805 ,Left ,58,4195098397376 ,45,633085570088 ,74,8854837906977
26.9228283 ,Left ,58,4284891131835 ,45,6475750300402 ,74,8679233123516
26.940487 ,Left ,58,4422356970238 ,45,6554939168705 ,74,8471896603388
26.9602242 ,Left ,58,4529361811428 ,45,6440048644952 ,74,835164257561
26.9827933 ,Left ,58,4557597760049 ,45,6247776700616 ,74,8209594677572
27.0003118 ,Left ,58,4496886880157 ,45,6236382506472 ,74,8050910034375
27.020027 ,Left ,58,4396438123285 ,45,6283650646584 ,74,7836221467098
27.0430095 ,Left ,58,4383735185584 ,45,6385143170317 ,74,7671310897699
27.0608511 ,Left ,58,4446377783197 ,45,6572943047547 ,74,7616596369339
27.0806229 ,Left ,58,4488558731111 ,45,6716638438869 ,74,7554334375895
27.1031651 ,Left ,58,4524973598579 ,45,6890929758327 ,74,7436296534577
27.1207979 ,Left ,58,4416314755973 ,45,7192752558184 ,74,7287408932866
27.140521 ,Left ,58,4281663423249 ,45,7566140223142 ,74,7086737077482
27.1625926 ,Left ,58,4151566210239 ,45,7871840787175 ,74,6935278938791
27.1805163 ,Left ,58,3976502913289 ,45,8113924547913 ,74,6740664202248
27.2001848 ,Left ,58,3812241357092 ,45,8217680994127 ,74,6527434636471
27.2227049 ,Left ,58,3770980595153 ,45,8188248303092 ,74,6429090712275
27.2405171 ,Left ,58,3806809670973 ,45,7994560110536 ,74,6346867657026
27.2614516 ,Left ,58,3849212205181 ,45,7695544021481 ,74,6221491775222
27.282616 ,Left ,58,3768810562759 ,45,7356558254309 ,74,6103017311289
27.3004059 ,Left ,58,3508015360864 ,45,7236796686345 ,74,6140058211761
27.3215926 ,Left ,58,349837954926 ,45,6751787276563 ,74,6511614833073
27.342567 ,Left ,58,3504714312543 ,45,6345932448956 ,74,6898589039979
27.3680651 ,Left ,58,3395381173781 ,45,6192015894752 ,74,721759582474
27.3831548 ,Left ,58,3170949706709 ,45,6469351065887 ,74,7492551426479
27.4025176 ,Left ,58,3318634568319 ,45,6832753216948 ,74,7679823767139
27.4206159 ,Left ,58,3436783871665 ,45,7036566764063 ,74,793038328525
27.4414532 ,Left ,58,3629271042182 ,45,7096864484904 ,74,8053945471536
27.4624454 ,Left ,58,3597925897376 ,45,7028504197783 ,74,8099275987257
27.480259 ,Left ,58,3803073059688 ,45,672021460239 ,74,7936142450957
27.5015829 ,Left ,58,4084949239193 ,45,6458239675425 ,74,775936028902
27.5224598 ,Left ,58,4283750261936 ,45,6295787987431 ,74,758620509191
27.5403522 ,Left ,58,4491710435077 ,45,6126326983032 ,74,7501169509644
27.5629915 ,Left ,58,4507715997613 ,45,5939076142157 ,74,7447419337522
27.5831655 ,Left ,58,4653695309706 ,45,566714992989 ,74,7428604444915
27.6008249 ,Left ,58,4796685369738 ,45,5422470021421 ,74,7413405035969
27.6233917 ,Left ,58,4985288101629 ,45,5440259816234 ,74,7589488321247
27.644069 ,Left ,58,4866445958932 ,45,5470526324412 ,74,8023038780442
27.660574 ,Left ,58,4793904737479 ,45,5881743613133 ,74,8427029734926
27.6872187 ,Left ,58,470986836229 ,45,6418515474419 ,74,8729702777729
27.7023863 ,Left ,58,4670921502702 ,45,6839892991777 ,74,8873574943916
27.7206941 ,Left ,58,4597526822356 ,45,7287233785579 ,74,8986138566307
27.7433174 ,Left ,58,4275006856875 ,45,7612047662361 ,74,9046722904748
27.7631978 ,Left ,58,4038447746827 ,45,7793864573571 ,74,9039604668634
27.7809027 ,Left ,58,3849085831406 ,45,76749524917 ,74,8966982898658
27.8031743 ,Left ,58,3771165776899 ,45,7381239713175 ,74,900347378166
27.8227503 ,Left ,58,3642718746614 ,45,6969565162909 ,74,9106784319721
27.8404945 ,Left ,58,3648896673398 ,45,6308552118274 ,74,9164817514233
27.8631908 ,Left ,58,3843114206317 ,45,5798615431262 ,74,9061593668181
27.8839734 ,Left ,58,3864837449883 ,45,5633700852875 ,74,9132066542484
27.9004741 ,Left ,58,3872168424021 ,45,5632157854658 ,74,9192182892316
27.9234931 ,Left ,58,3863048065504 ,45,6047999923857 ,74,9574646090728
27.9428303 ,Left ,58,3599187938724 ,45,6687674997156 ,74,995418776794
27.9603113 ,Left ,58,3334071323462 ,45,7245306487383 ,75,0262984387259
27.9833893 ,Left ,58,3159847531025 ,45,7752384186907 ,75,048711401221
28.0032645 ,Left ,58,289829943018 ,45,8143642154176 ,75,0505163249187
28.0206694 ,Left ,58,2631590433227 ,45,8297135819088 ,75,0281651490023
28.0431176 ,Left ,58,2100632320658 ,45,846808468319 ,75,0142284252716
28.06287 ,Left ,58,1706673903423 ,45,8576489031492 ,75,0162620006722
28.0807797 ,Left ,58,1394838350466 ,45,8710337569977 ,75,0137465023217
28.1031648 ,Left ,58,1158857855129 ,45,8863137242177 ,75,0126717438235
28.1230046 ,Left ,58,0995078395842 ,45,9066485336578 ,75,0250205192381
28.1405749 ,Left ,58,1257703480689 ,45,8763882354951 ,75,027498843347
28.1631766 ,Left ,58,1254631524345 ,45,8153499389585 ,75,0370210641389
28.1856156 ,Left ,58,1029888464327 ,45,7834321004319 ,75,0416959691016
28.2010411 ,Left ,58,0804821920539 ,45,8003313128205 ,75,0349834480655
28.2231054 ,Left ,58,1006549599212 ,45,8332328079343 ,75,0271230769084
28.2441788 ,Left ,58,1170841503047 ,45,8684447983866 ,75,0430152948141
28.2607696 ,Left ,58,1149685122967 ,45,8840471585577 ,75,0656372724953
28.2830871 ,Left ,58,1114040529504 ,45,8958951821775 ,75,0815428311156
28.3039633 ,Left ,58,1104899757621 ,45,9119020132393 ,75,0865046029263
28.3204313 ,Left ,58,1302135380082 ,45,9411299245844 ,75,0813387291331
28.343131 ,Left ,58,1434912850597 ,45,9742822193189 ,75,0670535010754
28.3639468 ,Left ,58,1484550785991 ,45,9944039702615 ,75,0438853171149
28.3804171 ,Left ,58,1501056415743 ,46,0292532161525 ,75,0370507465236
28.4030827 ,Left ,58,1714636241696 ,46,0570758022216 ,75,0321488182139
28.4239699 ,Left ,58,1929682819293 ,46,0759071535431 ,75,0113848036876
28.4391326 ,Left ,58,1994274083368 ,46,0831684342838 ,74,98368824354
28.4621794 ,Left ,58,1952304835743 ,46,085937276017 ,74,9569263053785
28.484607 ,Left ,58,19123444059 ,46,0791076876725 ,74,9346553678627
28.4990375 ,Left ,58,1904920611517 ,46,0768611558608 ,74,9047534246036
28.5221236 ,Left ,58,1843733909022 ,46,0595588511345 ,74,8571334523105
28.5446952 ,Left ,58,1762306503307 ,46,0275006318708 ,74,8160870022334
28.5658255 ,Left ,58,1697884477258 ,46,019868570355 ,74,8023179013364
28.5822113 ,Left ,58,1583174195425 ,46,0182935550805 ,74,8152011852738
28.6046568 ,Left ,58,1562909570929 ,46,0076869573311 ,74,8340242802286
28.6190244 ,Left ,58,1590831633761 ,45,9846719145175 ,74,8282447346269
28.6421784 ,Left ,58,1430682784281 ,45,9706652483266 ,74,8123094417329
28.6646041 ,Left ,58,1321840403359 ,45,9627407526647 ,74,7891121384531
28.6793884 ,Left ,58,1081808304339 ,45,9827796916541 ,74,7475527360422
28.7021315 ,Left ,58,0583274214339 ,46,0307071801187 ,74,7446168387006
28.7246452 ,Left ,58,0267218954572 ,46,0922931610046 ,74,7578490333086
28.7390714 ,Left ,58,0310078213796 ,46,1247161462174 ,74,7923330222767
28.7621857 ,Left ,58,0461986981196 ,46,1161337454734 ,74,8136718924052
28.7846498 ,Left ,58,0526790829808 ,46,0604575730385 ,74,8125922759586
28.7990665 ,Left ,58,0528621026075 ,45,9880070426878 ,74,799605297297
28.8222489 ,Left ,58,0566356844844 ,45,9239579889604 ,74,7707106309654
28.8446535 ,Left ,58,089267611285 ,45,8774251918509 ,74,7422077636835
28.8591319 ,Left ,58,1178460325917 ,45,8342153941842 ,74,7459051653869
28.8821466 ,Left ,58,1648747307876 ,45,7752605377553 ,74,7411047037929
28.9046934 ,Left ,58,1859193322892 ,45,7025260930024 ,74,7045359646566
28.9189937 ,Left ,58,230920792818 ,45,6227994418909 ,74,6759456445702
28.9421845 ,Left ,58,2806419405412 ,45,5804889129522 ,74,6735629057532
28.9645605 ,Left ,58,3226533993106 ,45,5554700252488 ,74,6873332341805
28.9856924 ,Left ,58,3455181191443 ,45,5104037155363 ,74,6988441842426
29.002149 ,Left ,58,3598374623016 ,45,4723389746687 ,74,7103727542196
29.032173 ,Left ,58,313580189613 ,45,4507849438008 ,74,7255135200472
29.0457707 ,Left ,58,2946731055798 ,45,4427776629683 ,74,7310035546971
29.0621345 ,Left ,58,3101658442186 ,45,4725779107201 ,74,7367510440214
29.0844839 ,Left ,58,2750339737317 ,45,5455113819868 ,74,7360941801085
29.1057549 ,Left ,58,2658863693769 ,45,6015512853365 ,74,7423922157572
29.1226769 ,Left ,58,2740721125933 ,45,6100716236185 ,74,7416392084585
29.1450382 ,Left ,58,2729978094076 ,45,606010043962 ,74,7409470980022
29.1661897 ,Left ,58,2367711533377 ,45,5907418601647 ,74,737300782186
29.1826572 ,Left ,58,2390022360371 ,45,5913308913538 ,74,7288429780774
29.2051046 ,Left ,58,2374031399364 ,45,5937374964689 ,74,7200868133814
29.2262235 ,Left ,58,2416674933862 ,45,5987251836983 ,74,71236758856
29.2424305 ,Left ,58,2382736025556 ,45,6100755672357 ,74,7134354753947
29.2646899 ,Left ,58,2257265086979 ,45,6355497642075 ,74,7211837168673
29.2859272 ,Left ,58,2061926079592 ,45,6584714648401 ,74,7394949658282
29.3083914 ,Left ,58,2161982814876 ,45,6599463283196 ,74,7822682353709
29.3247049 ,Left ,58,2259589121076 ,45,6320382181129 ,74,8212533688891
29.3535901 ,Left ,58,2383285185528 ,45,5970445915006 ,74,8388760245553
29.3619768 ,Left ,58,2461195364272 ,45,5783726213005 ,74,8374622263135
29.3845871 ,Left ,58,2548924544222 ,45,5829703332165 ,74,8243725706326
29.4056373 ,Left ,58,2739304893091 ,45,5988498023987 ,74,8052412395499
29.4214123 ,Left ,58,2878395617194 ,45,6205914720093 ,74,7921683197612
29.4445373 ,Left ,58,3047971953756 ,45,6361861208337 ,74,8023456476796
29.4671663 ,Left ,58,3265970491781 ,45,6240906699338 ,74,8124784569119
29.4822082 ,Left ,58,3418643708112 ,45,5927050678997 ,74,8043057495869
29.5047567 ,Left ,58,361660718898 ,45,5761704238404 ,74,7838387606643
29.5274688 ,Left ,58,3752133629937 ,45,5843990880823 ,74,7570929371454
29.5422607 ,Left ,58,3812248493367 ,45,6104123757733 ,74,7230507883467
29.5645231 ,Left ,58,3919276119711 ,45,6424370883024 ,74,6993258704077
29.5871508 ,Left ,58,3843054794302 ,45,6540483689095 ,74,6674801922311
29.6013339 ,Left ,58,3721884496844 ,45,6574517944246 ,74,6398348091829
29.6246972 ,Left ,58,376263582466 ,45,6526520422912 ,74,6366882018602
29.6475384 ,Left ,58,3786436453905 ,45,640713703787 ,74,63240635585
29.6619248 ,Left ,58,3723119418085 ,45,6421911224642 ,74,6170386405927
29.6844921 ,Left ,58,3620062835828 ,45,6564069857662 ,74,5912347170287
29.7070138 ,Left ,58,3501388258427 ,45,6748970820711 ,74,5658496275723
29.7215314 ,Left ,58,3529979519898 ,45,6855020257037 ,74,5530098059348
29.7450606 ,Left ,58,3493971988976 ,45,6904684748518 ,74,5561842749924
29.7675573 ,Left ,58,3288464269156 ,45,6992258778982 ,74,5576779997878
29.7819151 ,Left ,58,3128020044578 ,45,7041741609714 ,74,5563238051601
29.8050658 ,Left ,58,305045395437 ,45,7136733471613 ,74,5595587743494
29.8275667 ,Left ,58,2903880301509 ,45,7165001396506 ,74,5610011082215
29.8418369 ,Left ,58,2923470477096 ,45,6993836212221 ,74,5706439260135
29.8647079 ,Left ,58,3124310613744 ,45,6716090625266 ,74,5928281219982
29.8874151 ,Left ,58,2972221799507 ,45,6613449383818 ,74,621825912292
29.9016016 ,Left ,58,2909123877134 ,45,658640771949 ,74,6382855438761
29.9246056 ,Left ,58,280587432707 ,45,6557351458031 ,74,6719078905451
29.953522 ,Left ,58,2759555302472 ,45,6704137078418 ,74,7087222288087
29.9684575 ,Left ,58,2991754247029 ,45,6717363521683 ,74,7177916486339
29.9847058 ,Left ,58,3127132232737 ,45,6493204966395 ,74,7194461361202
30.0073155 ,Left ,58,3434782711334 ,45,6269485157868 ,74,714422309379
30.0285543 ,Left ,58,3541227544712 ,45,6074998333255 ,74,7160958058935
30.0446551 ,Left ,58,3747793814508 ,45,5911272337199 ,74,7047501091563
30.0670519 ,Left ,58,3865912240088 ,45,5818472036594 ,74,6843322798957
30.0883439 ,Left ,58,4037897228289 ,45,5525769450246 ,74,673666443925
30.1047513 ,Left ,58,4484452723331 ,45,5096182618946 ,74,679397238594
30.1274932 ,Left ,58,4619451777107 ,45,4530150341618 ,74,6852024683916
30.1485747 ,Left ,58,4657886311046 ,45,4060669227334 ,74,6823129588921
30.1652141 ,Left ,58,4632314659867 ,45,3593317017479 ,74,6697266281329
30.1876829 ,Left ,58,5049116484404 ,45,3252977773577 ,74,6525766380674
30.2084178 ,Left ,58,5195032339771 ,45,2922594504578 ,74,650010778892
30.2250289 ,Left ,58,4905950716668 ,45,2754015539031 ,74,6679135564248
30.2478616 ,Left ,58,4714576151837 ,45,2781960205138 ,74,7075225882381
30.2689003 ,Left ,58,4700976239928 ,45,3149410656024 ,74,7419377266894
30.2851804 ,Left ,58,474086719554 ,45,3578678058562 ,74,7689575057798
30.3077429 ,Left ,58,4821256289686 ,45,3893793326422 ,74,7741729305268
30.3289883 ,Left ,58,4776925469129 ,45,4244793978027 ,74,7724136524128
30.3451657 ,Left ,58,4389984951026 ,45,4386210283389 ,74,7782259465013
30.3673551 ,Left ,58,4275626159096 ,45,4427890353293 ,74,7743868180769
30.3898475 ,Left ,58,40617462922 ,45,4430718602331 ,74,7657070934584
30.4049986 ,Left ,58,3874164226152 ,45,434534420119 ,74,7563083199539
30.42754 ,Left ,58,3622311784452 ,45,4283209610155 ,74,7670944326438
30.4499733 ,Left ,58,3587596674943 ,45,415653694265 ,74,7710110837656
30.4648523 ,Left ,58,3641625623304 ,45,3758143344019 ,74,7694015223891
30.4873976 ,Left ,58,3847637438127 ,45,3268204289158 ,74,7507707137402
30.5098162 ,Left ,58,3821141355642 ,45,3080828370877 ,74,7569185465192
30.5248255 ,Left ,58,3807130197766 ,45,3192950706577 ,74,7790544197536
30.547506 ,Left ,58,3795972568752 ,45,3681337870255 ,74,811966030535
30.569868 ,Left ,58,3641968449521 ,45,4351025038821 ,74,8485023657639
30.5841468 ,Left ,58,3499094934101 ,45,5013467351775 ,74,876267304704
30.6074297 ,Left ,58,3282490689435 ,45,5570863688486 ,74,9016758422883
30.6298296 ,Left ,58,3054139767246 ,45,5989428656392 ,74,9310093781891
30.6440831 ,Left ,58,30105827697 ,45,6381181818437 ,74,9624458452714
30.6674658 ,Left ,58,2878580789355 ,45,6558335334199 ,74,9780076794266
30.6898755 ,Left ,58,280589971384 ,45,6696234797024 ,74,9758887460099
30.704143 ,Left ,58,2568958835602 ,45,703604017231 ,74,9653040710865
30.7274644 ,Left ,58,2228814987798 ,45,7372347032791 ,74,9504980774734
30.7498082 ,Left ,58,1910127686875 ,45,7810967297098 ,74,9403078512655
30.7640144 ,Left ,58,1580303692898 ,45,8174205557304 ,74,9318925043523
30.7874455 ,Left ,58,1261052506257 ,45,8492175831414 ,74,9231239188636
30.8097594 ,Left ,58,1249530650725 ,45,8427170824264 ,74,9160869296419
30.8241436 ,Left ,58,1362411803015 ,45,8084517394964 ,74,92485282915
30.8473844 ,Left ,58,1338439082264 ,45,7598856465601 ,74,9358103102258
30.8697038 ,Left ,58,1255482260264 ,45,775476812613 ,74,9368598048018
30.8907499 ,Left ,58,1129471127781 ,45,8410078569085 ,74,9291083681388
30.9072235 ,Left ,58,1224634340949 ,45,8895162572457 ,74,9281203676484
30.9297218 ,Left ,58,1595685274204 ,45,9044578960976 ,74,9381019990004
30.9507676 ,Left ,58,1551099028039 ,45,9129531939193 ,74,9504469738491
30.9674477 ,Left ,58,1479870348342 ,45,9210594481232 ,74,947640084289
30.9898174 ,Left ,58,1369626302844 ,45,9134125740129 ,74,9451145295641
31.0182612 ,Left ,58,1371018960715 ,45,9031458788225 ,74,9348719764211
31.0274616 ,Left ,58,1599549139807 ,45,8995407501439 ,74,9345615219381
31.0496555 ,Left ,58,1784587934346 ,45,8907233414788 ,74,9388067730278
31.0707503 ,Left ,58,1884763515172 ,45,879618283924 ,74,9416095774469
31.0870616 ,Left ,58,2042575423634 ,45,8857638638932 ,74,9445129792304
31.1094794 ,Left ,58,2153145129619 ,45,9093629946115 ,74,9404599792375
31.1305015 ,Left ,58,2184415035734 ,45,9411889903419 ,74,927656747756
31.1469853 ,Left ,58,2213371794958 ,45,9711203974752 ,74,9057417825315
31.1694219 ,Left ,58,2272277671831 ,45,9940842865181 ,74,8891184563768
31.190498 ,Left ,58,2253803353369 ,46,0049340011962 ,74,8639148720404
31.2068998 ,Left ,58,2217595896277 ,46,0157649291083 ,74,8236546006691
31.2294574 ,Left ,58,201951446001 ,46,0228264660517 ,74,7777090705213
31.2520196 ,Left ,58,1839035536176 ,46,0176895581628 ,74,7275273804288
31.2672547 ,Left ,58,1713532271519 ,46,0155682402951 ,74,6932262295572
31.2969914 ,Left ,58,1671010596797 ,46,0094320203167 ,74,6624574922399
31.3105756 ,Left ,58,169185241624 ,46,0068573742117 ,74,6331458913805
31.3271959 ,Left ,58,1698976983217 ,46,0048987453302 ,74,5861550052176
31.3496935 ,Left ,58,1557841158639 ,46,0077499988297 ,74,526354270347
31.3723013 ,Left ,58,1081784675286 ,46,0443304849792 ,74,4933166038353
31.3876947 ,Left ,58,0770548524566 ,46,0918846137349 ,74,5048090779233
31.4100653 ,Left ,58,0763940113227 ,46,1225737391617 ,74,558568127298
31.4325489 ,Left ,58,1141006877718 ,46,1101011692439 ,74,6259933460712
31.4476956 ,Left ,58,139651656546 ,46,0634283521008 ,74,6548489487025
31.4702602 ,Left ,58,1472230053697 ,45,9966894589156 ,74,652139590663
31.4923937 ,Left ,58,1630459164239 ,45,9343227644601 ,74,636653710951
31.5066754 ,Left ,58,1894692529333 ,45,8736271429927 ,74,6198607782027
31.5297554 ,Left ,58,2183759119451 ,45,8060701992596 ,74,6023852046734
31.5524132 ,Left ,58,242305158561 ,45,7502220492325 ,74,5947477187906
31.5747493 ,Left ,58,2875227126735 ,45,7102684650559 ,74,589184635161
31.5896493 ,Left ,58,3233830294872 ,45,6665061635808 ,74,5788159502888
31.6122989 ,Left ,58,3403752030792 ,45,6117082010083 ,74,5557927309952
31.6266156 ,Left ,58,3621812480921 ,45,5437325736314 ,74,5285897839235
31.6497741 ,Left ,58,3848871368552 ,45,4591107312765 ,74,5640078297848
31.6722854 ,Left ,58,4041541644772 ,45,4340265395164 ,74,607276992395
31.6867305 ,Left ,58,4115944156257 ,45,4483151017754 ,74,6278871874927
31.7097298 ,Left ,58,4341312875918 ,45,4759292057359 ,74,6404063203174
31.7323111 ,Left ,58,4547844579676 ,45,5001347687311 ,74,6611135798925
31.746642 ,Left ,58,4394109057813 ,45,5138157775114 ,74,6699477475388
31.7697671 ,Left ,58,4470338661627 ,45,4978710424181 ,74,6864225343806
31.7923174 ,Left ,58,4261060858818 ,45,4993101469923 ,74,6987734684902
31.8065735 ,Left ,58,4156983436195 ,45,497089113898 ,74,7030370120275
31.8298034 ,Left ,58,4011756334388 ,45,5082299247275 ,74,7115525005565
31.8522426 ,Left ,58,38373977823 ,45,5258291482509 ,74,717618999611
31.8734577 ,Left ,58,3694882595114 ,45,5401362868748 ,74,7296167224973
31.8897088 ,Left ,58,3936646987075 ,45,5374678553269 ,74,7530907978575
31.9122706 ,Left ,58,409766585447 ,45,5187552255279 ,74,7674486312278
31.9332852 ,Left ,58,4249717667525 ,45,5074422175953 ,74,7649229516905
31.9496526 ,Left ,58,4301752563225 ,45,5085566099802 ,74,7539676423274
31.9724103 ,Left ,58,4415574266058 ,45,519683490541 ,74,7332142404284
31.9934686 ,Left ,58,4478859923934 ,45,5326322673368 ,74,7061759392894
32.0097034 ,Left ,58,4485335317536 ,45,5512262053397 ,74,6851666271825
32.0319979 ,Left ,58,4542566076449 ,45,5663829779551 ,74,6820836192111
32.0533591 ,Left ,58,4596473291874 ,45,5532996124072 ,74,6869159462242
32.0697027 ,Left ,58,4596473291874 ,45,5532996124072 ,74,6869159462242
32.0923683 ,Left ,58,4546001869114 ,45,5551075966339 ,74,6806028977157
32.1132145 ,Left ,58,4466062703345 ,45,5753780110104 ,74,670539105583
32.129744 ,Left ,58,4508843711759 ,45,6063101494806 ,74,6517874940228
32.1524333 ,Left ,58,4530578974085 ,45,6309804985764 ,74,6231846848997
32.1734491 ,Left ,58,4468174219362 ,45,6335540511711 ,74,5990813545494
32.1896903 ,Left ,58,4351031772005 ,45,6395675846425 ,74,57778503458
32.2121515 ,Left ,58,4157826332709 ,45,6528911898268 ,74,5565643447098
32.2332531 ,Left ,58,3979947063686 ,45,6738775823739 ,74,5337042385218
32.2495995 ,Left ,58,393420520431 ,45,6896481266311 ,74,5177669937298
32.2722286 ,Left ,58,3968410627716 ,45,6937795300793 ,74,5129275327531
32.2947208 ,Left ,58,3914574966715 ,45,7017190822853 ,74,5045971678809
32.3096126 ,Left ,58,3775792072921 ,45,7088888880214 ,74,5008541990795
32.3322343 ,Left ,58,3773918473189 ,45,7145195542723 ,74,501617250245
32.3546533 ,Left ,58,3671792209297 ,45,7220609392761 ,74,5013501953185
32.3694972 ,Left ,58,3531539936646 ,45,708990875006 ,74,4918273493813
32.3923352 ,Left ,58,3362396174507 ,45,7076665064395 ,74,4865730162592
32.414768 ,Left ,58,3387252679857 ,45,7011380866143 ,74,5064262530846
32.4289694 ,Left ,58,3321767778389 ,45,68758157484 ,74,5359534321515
32.452306 ,Left ,58,3234900280634 ,45,677889372331 ,74,5628041792539
32.4745063 ,Left ,58,3004789313738 ,45,6821357208384 ,74,5810217460858
32.4888869 ,Left ,58,3117803034314 ,45,6770711825668 ,74,5935319444899
32.5126123 ,Left ,58,322181715471 ,45,6708337467597 ,74,6057302913346
32.5347118 ,Left ,58,3393668676845 ,45,6478087801094 ,74,6195274376553
32.5489767 ,Left ,58,3528624913832 ,45,6260155058881 ,74,6358773802488
32.5727704 ,Left ,58,3650076013642 ,45,6167205392907 ,74,6420910875748
32.5950499 ,Left ,58,400652263194 ,45,5910681827299 ,74,6107219414515
32.6090398 ,Left ,58,4367150626067 ,45,5469999503167 ,74,5796735897727
32.6396103 ,Left ,58,452553458158 ,45,5047460253154 ,74,5640339978379
32.6545556 ,Left ,58,4779861800717 ,45,4672895682224 ,74,5620520454734
32.6690488 ,Left ,58,4792355734152 ,45,4195427571551 ,74,5674771189983
32.6925291 ,Left ,58,5620991197485 ,45,3433129394252 ,74,5437152906548
32.7146049 ,Left ,58,6112973726064 ,45,2695037396441 ,74,5397205660739
32.7357138 ,Left ,58,6120377872529 ,45,2640241088979 ,74,5390316319799
32.7522548 ,Left ,58,5690268413642 ,45,3313687955228 ,74,5755343897313
32.7748312 ,Left ,58,5182117378807 ,45,4295968464203 ,74,6329283605239
32.7958442 ,Left ,58,4827006669096 ,45,523897024407 ,74,6976604822092
32.8117972 ,Left ,58,4613140785279 ,45,587005349638 ,74,7422423722525
32.8350763 ,Left ,58,4208898909766 ,45,6174588895591 ,74,7677146986375
32.856471 ,Left ,58,3925776916347 ,45,6273855085185 ,74,7712642629702
32.8726025 ,Left ,58,3781063520436 ,45,6163817969182 ,74,744158172996
32.8948356 ,Left ,58,3756304337539 ,45,5784221910141 ,74,7149094344367
32.9158813 ,Left ,58,3712787236629 ,45,5499067689731 ,74,6927369462658
32.9323102 ,Left ,58,3578708854135 ,45,5178487941939 ,74,6955714969
32.9546431 ,Left ,58,3522508786202 ,45,4831850470799 ,74,7079341870562
32.9756067 ,Left ,58,3619534286268 ,45,4668529169105 ,74,7247572088834
32.9923098 ,Left ,58,3566615502936 ,45,4735191899552 ,74,7486915867835
33.0145356 ,Left ,58,3397520061202 ,45,4710238192485 ,74,7759012253481
33.0357146 ,Left ,58,3330556703985 ,45,4795876352182 ,74,7939089096248
33.0521964 ,Left ,58,3516587741053 ,45,4902919653822 ,74,7888250477307
33.0746506 ,Left ,58,3561388857935 ,45,4829830903672 ,74,7884519287634
33.0957251 ,Left ,58,3499260589731 ,45,4882349571696 ,74,7913029816438
33.1123296 ,Left ,58,3233257846092 ,45,4901000388608 ,74,8030673633041
33.134701 ,Left ,58,3014742218617 ,45,4851342923818 ,74,8085286923367
33.156134 ,Left ,58,3045738134179 ,45,4850462251994 ,74,8088705880894
33.1723392 ,Left ,58,3175367156265 ,45,5065036213873 ,74,8133035750059
33.1948353 ,Left ,58,3136048470748 ,45,5158320759345 ,74,8051862364949
33.2160755 ,Left ,58,3101811138462 ,45,5287897800226 ,74,7946117997808
33.2322079 ,Left ,58,3092426405602 ,45,5556725796248 ,74,786149467479
33.2546987 ,Left ,58,2746904343859 ,45,6013182063633 ,74,7908263038137
33.2832877 ,Left ,58,2379732439087 ,45,6488039928888 ,74,8102692660514
33.2921337 ,Left ,58,205593103299 ,45,7019107775781 ,74,8367559586027
33.315024 ,Left ,58,186661923194 ,45,753560414382 ,74,8441969088115
33.3375437 ,Left ,58,157554453713 ,45,7697910987013 ,74,8396867790254
33.3526392 ,Left ,58,1055727054287 ,45,7794991336357 ,74,8194845474723
33.375026 ,Left ,58,0696403925359 ,45,8279363339813 ,74,7859479838366
33.3975268 ,Left ,58,0184413015476 ,45,8826450317128 ,74,7455614922561
33.4116132 ,Left ,58,0074787600298 ,45,8908176554142 ,74,736502089899
33.4346311 ,Left ,57,986445237755 ,45,9063672595471 ,74,7505678129795
33.4571895 ,Left ,57,9679026515282 ,45,957541882814 ,74,7374113884061
33.471553 ,Left ,57,9719356775785 ,45,998949765502 ,74,7259606992309
33.4946876 ,Left ,58,0375358648241 ,45,9947762999548 ,74,7017894170439
33.5174063 ,Left ,58,0646255190106 ,45,9488064013773 ,74,6901001710539
33.5316784 ,Left ,58,0589646953832 ,45,9011645561511 ,74,6916687573085
33.554486 ,Left ,58,0823352664267 ,45,8675972465517 ,74,7194611465186
33.5773072 ,Left ,58,1016202246884 ,45,8291716718034 ,74,7725439617986
33.5914214 ,Left ,58,111599548095 ,45,823464249883 ,74,8261342054659
33.6145182 ,Left ,58,1298644325124 ,45,8271522948626 ,74,8703492385323
33.6370958 ,Left ,58,146804029178 ,45,8307712376954 ,74,8819412444505
33.6513442 ,Left ,58,1671215801041 ,45,8475194673986 ,74,8869092221103
33.6747589 ,Left ,58,1794974896076 ,45,8690232812113 ,74,8855949270848
33.6972536 ,Left ,58,181409257134 ,45,9048686620101 ,74,8790760986033
