timestamp,event,roll,pitch,yaw
0.0369268 ,Left ,60,3083733360479 ,47,4831555659524 ,17,1390946037579
0.0516876 ,Left ,60,298665856664 ,47,4827758786695 ,17,1439422499395
0.0893814 ,Left ,60,2825144651114 ,47,5118278847045 ,17,1488206014173
0.126813 ,Left ,60,2581340050911 ,47,5351800514973 ,17,1582231904427
0.1495738 ,Left ,60,2520986776187 ,47,5438551634616 ,17,1631551029518
0.1646997 ,Left ,60,2501923990886 ,47,5489893655284 ,17,1656797615714
0.1870428 ,Left ,60,2503487172769 ,47,5483833645132 ,17,1664221318056
0.209465 ,Left ,60,2516918383277 ,47,5477978801295 ,17,1670021996851
0.2244935 ,Left ,60,2466316826509 ,47,5559205625894 ,17,1661374382891
0.2468028 ,Left ,60,2350771849298 ,47,5656540729135 ,17,1656034987666
0.2695506 ,Left ,60,2202047881395 ,47,5769688063857 ,17,1654424242176
0.2845472 ,Left ,60,2157761679521 ,47,5817227614166 ,17,1663404975779
0.3068739 ,Left ,60,207629955623 ,47,5851273415502 ,17,1645934376106
0.3295015 ,Left ,60,2075016046559 ,47,5906925185027 ,17,1559755629342
0.3445767 ,Left ,60,2033262033463 ,47,6009840874876 ,17,1546171363117
0.366892 ,Left ,60,1953397520978 ,47,6037820025808 ,17,1536024311128
0.3892309 ,Left ,60,1953397520978 ,47,6037820025808 ,17,1536024311128
0.4042152 ,Left ,60,1954970650873 ,47,603180519503 ,17,1543465100532
0.4266285 ,Left ,60,1944652443324 ,47,6016081316904 ,17,1540618910317
0.4492129 ,Left ,60,1944652443324 ,47,6016081316904 ,17,1540618910317
0.4867872 ,Left ,60,1944652443324 ,47,6016081316904 ,17,1540618910317
0.5092358 ,Left ,60,199513777485 ,47,5934911886339 ,17,1549656234573
0.554356 ,Left ,60,2046464439 ,47,5895127891429 ,17,1574030792447
0.5769231 ,Left ,60,202666021619 ,47,5905076731266 ,17,1583717709966
0.6068173 ,Left ,60,1992335479064 ,47,5927766544504 ,17,1387336153051
0.6292658 ,Left ,60,1959353034327 ,47,5894792023465 ,17,1277122827276
0.666787 ,Left ,60,1803381603228 ,47,58408526228 ,17,1043577730838
0.6894767 ,Left ,60,1735755808063 ,47,5829528424441 ,17,0929594170683
0.7422863 ,Left ,60,1352876191687 ,47,6087283055918 ,17,0736964743142
0.7721485 ,Left ,60,1028173110684 ,47,62436456415 ,17,0725851466791
0.7947876 ,Left ,60,0047472287996 ,47,6317501103037 ,17,0684917419723
0.8093917 ,Left ,59,9732507225766 ,47,5964629842765 ,17,076108651659
0.8469915 ,Left ,59,9118210348769 ,47,6018415326228 ,17,0416266953063
0.8766976 ,Left ,59,8245289837644 ,47,7136788653898 ,17,0215437610207
0.914206 ,Left ,59,5967063447094 ,47,8748176735023 ,16,9276979583672
0.9299369 ,Left ,59,5433613904733 ,47,8695220797284 ,16,8466675694822
0.967381 ,Left ,59,4195637168117 ,47,8552796301667 ,16,6886250286322
0.9899109 ,Left ,59,3568029268116 ,47,8583609517481 ,16,6169110185339
1.0267131 ,Left ,59,2657431058172 ,47,8644910458573 ,16,4889547018413
1.0493299 ,Left ,59,1962117867335 ,47,8696938971112 ,16,4485661094884
1.0869704 ,Left ,59,0660282899663 ,47,7896938082758 ,16,3673897782736
1.1095044 ,Left ,59,080931280449 ,47,7582262647479 ,16,38855350046
1.1469704 ,Left ,59,013143900679 ,47,8465966886431 ,16,4293862670705
1.1693427 ,Left ,58,9583576864389 ,47,815986785451 ,16,4010965363278
1.207267 ,Left ,58,9485323114579 ,47,8294134318604 ,16,3411880444414
1.2295279 ,Left ,58,875152276841 ,47,8781876584452 ,16,3287171352763
1.267093 ,Left ,58,6816498740699 ,47,8949304028828 ,16,263626589757
1.2896792 ,Left ,58,7027618556583 ,47,9868678133427 ,16,2543022330523
1.3269347 ,Left ,58,5720099589148 ,48,1189923481474 ,16,2096495335552
1.3493867 ,Left ,58,4955390465033 ,48,0833111170851 ,16,145856631597
1.3871037 ,Left ,58,4376375255419 ,48,0776323502698 ,16,0847300508875
1.4096703 ,Left ,58,4416252797559 ,48,0603252955025 ,16,1043605699561
1.4472826 ,Left ,58,355199046754 ,48,0260213953591 ,16,1752808382991
1.4697462 ,Left ,58,3321645599582 ,48,0398927632185 ,16,1506386914823
1.5070748 ,Left ,58,2482869160208 ,48,1916197833086 ,16,0839412385168
1.5293576 ,Left ,58,1741376874688 ,48,2829139544389 ,16,0464089536179
1.5674273 ,Left ,58,1472857018781 ,48,2912963521347 ,16,0064366321167
1.6050776 ,Left ,58,0577706329516 ,48,3089541165977 ,15,9045093327818
1.62738 ,Left ,57,9425709576213 ,48,3640743292163 ,15,8308484439004
1.6495216 ,Left ,57,8328241728874 ,48,4087671849833 ,15,7489833195554
1.6869767 ,Left ,57,5907052488097 ,48,5318981684501 ,15,5309985482362
1.709239 ,Left ,57,4707039050335 ,48,615207346476 ,15,4244600827435
1.7469942 ,Left ,57,2417940084391 ,48,7632268615233 ,15,2411333304116
1.7696474 ,Left ,57,1370329094672 ,48,8222572167828 ,15,1339074461528
1.8069913 ,Left ,56,9692164647645 ,48,9089642703426 ,14,931746025812
1.8292534 ,Left ,56,9149990469819 ,48,9491300101236 ,14,8419417783103
1.8449311 ,Left ,56,8333125682393 ,48,9831847571184 ,14,7501092289125
1.8598747 ,Left ,56,7428045856304 ,48,9495825471889 ,14,7197584859118
1.8825544 ,Left ,56,715286369707 ,48,8985084970585 ,14,6841681099336
1.904921 ,Left ,56,7424032521105 ,48,8673941329564 ,14,7222511916816
1.9198247 ,Left ,56,7578250145171 ,48,9076551553804 ,14,8107177537465
1.9419183 ,Left ,56,7897085103237 ,48,9067734538433 ,14,9167954065925
1.9645602 ,Left ,56,8461478817839 ,48,7557262174143 ,15,0383802033524
1.9794549 ,Left ,57,042537326337 ,48,5225177497333 ,15,1558390014159
2.0021453 ,Left ,57,3134516445498 ,48,304764609438 ,15,2153838247169
2.0251724 ,Left ,57,5463682224833 ,48,1897549385891 ,15,2604107135335
2.0399992 ,Left ,57,5752505088093 ,48,2441010039625 ,15,3434122685148
2.0625644 ,Left ,57,5226457115104 ,48,3177547876002 ,15,4413049333741
2.0848529 ,Left ,57,5428653429655 ,48,2586960406775 ,15,5119892939216
2.0996791 ,Left ,57,6377857507477 ,48,1255855578812 ,15,57276155889
2.1219863 ,Left ,57,9028263871187 ,48,0623233455141 ,15,6382742245705
2.1442589 ,Left ,58,0572279181994 ,48,0715389469898 ,15,6976641655179
2.1594156 ,Left ,58,0831018046733 ,48,0600607979703 ,15,7597921493282
2.1819803 ,Left ,58,1692137987563 ,48,0311829906131 ,15,8117660278942
2.2043951 ,Left ,58,2567635560168 ,47,9712385177275 ,15,8578963492318
2.2193114 ,Left ,58,3985142239508 ,47,8880893598712 ,15,9249901588014
2.241978 ,Left ,58,5317796275557 ,47,7999217340449 ,16,0194979076445
2.2645811 ,Left ,58,6467187929489 ,47,7322907301275 ,16,130600971516
2.2795737 ,Left ,58,7534775308321 ,47,6471043555243 ,16,25006044784
2.3021585 ,Left ,58,8640719988105 ,47,5687886335604 ,16,3460208198101
2.3245232 ,Left ,58,9819955256594 ,47,4960626348837 ,16,4214632395023
2.3395477 ,Left ,59,1136049038105 ,47,4439460873843 ,16,4917732358296
2.3620602 ,Left ,59,1955818476196 ,47,3883855383681 ,16,5620071149631
2.3846111 ,Left ,59,2863068284715 ,47,3383517979422 ,16,6129744778022
2.399424 ,Left ,59,3827957327031 ,47,3046588794731 ,16,6718708885423
2.4217357 ,Left ,59,4338324443839 ,47,2855233229748 ,16,7194318022319
2.4444739 ,Left ,59,4506315295715 ,47,2961170174942 ,16,7603209596794
2.4668315 ,Left ,59,4532540318344 ,47,3239699544749 ,16,7951700141163
2.4970482 ,Left ,59,4873370383197 ,47,3451868625993 ,16,8296618830347
2.5196415 ,Left ,59,4944020045772 ,47,3445257327923 ,16,8328156945737
2.5346519 ,Left ,59,5084774525599 ,47,3474567705509 ,16,8138620139923
2.5496474 ,Left ,59,5013272023073 ,47,3713760644237 ,16,7975727834162
2.5645818 ,Left ,59,4992312291797 ,47,4283416198652 ,16,7916147298125
2.5795053 ,Left ,59,4950151886681 ,47,4635051471321 ,16,7837208309135
2.6019514 ,Left ,59,4690587767449 ,47,4587638982534 ,16,7688707585315
2.6244386 ,Left ,59,4924246787144 ,47,4453778531974 ,16,7480546568402
2.6393927 ,Left ,59,5256269325413 ,47,437761229415 ,16,7317250772199
2.6620168 ,Left ,59,5299487997408 ,47,4378140879675 ,16,731662709125
2.6846381 ,Left ,59,5208293786428 ,47,4375493143867 ,16,7340742468567
2.6994787 ,Left ,59,5135604451656 ,47,4410581069503 ,16,7362610056313
2.722488 ,Left ,59,5140632340913 ,47,4383192461046 ,16,7373434870709
2.7450724 ,Left ,59,501353664958 ,47,4407539396798 ,16,7385078579338
2.7596931 ,Left ,59,493759020538 ,47,447709428207 ,16,7452572200229
2.7821972 ,Left ,59,4734480826904 ,47,4677650633725 ,16,7622580049698
2.8045777 ,Left ,59,4484471640099 ,47,4959922782407 ,16,7844838536628
2.819561 ,Left ,59,4324475362677 ,47,510078713036 ,16,8045066901129
2.8421906 ,Left ,59,4137405996481 ,47,5046796302941 ,16,8195749078422
2.8645386 ,Left ,59,3899753760425 ,47,5096369436576 ,16,8395636210377
2.8871979 ,Left ,59,3619012684096 ,47,5300236711747 ,16,8692305874408
2.9016705 ,Left ,59,3255663184341 ,47,55297424303 ,16,8998247055992
2.9245783 ,Left ,59,3017910246235 ,47,5835233724532 ,16,9210948941964
2.946757 ,Left ,59,2813457110035 ,47,6249044112587 ,16,9311264800641
2.9617075 ,Left ,59,2378424456119 ,47,6117710262234 ,16,9104488417545
2.9844824 ,Left ,59,223375814849 ,47,5446543993814 ,16,8870154600169
3.0068046 ,Left ,59,2699538081311 ,47,6173265139373 ,16,8642271949345
3.0216 ,Left ,59,209209632843 ,47,7635552368452 ,16,8563499381139
3.0444934 ,Left ,59,0851652262333 ,47,8149996939878 ,16,8190141393537
3.0667968 ,Left ,59,008575069262 ,47,7824927507444 ,16,7390509805965
3.0817455 ,Left ,59,0135265605216 ,47,7369303601439 ,16,6433115330174
3.1042943 ,Left ,59,0274236531822 ,47,722950985714 ,16,5480063507247
3.126911 ,Left ,59,0265915646319 ,47,7205201412147 ,16,4592364136427
3.1419169 ,Left ,59,0005412025795 ,47,7339578855105 ,16,3800638276084
3.1642381 ,Left ,58,9377072921391 ,47,7659896940096 ,16,3219472959865
3.1866601 ,Left ,58,8111211557786 ,47,7672864209632 ,16,2657603962615
3.2019308 ,Left ,58,763496084165 ,47,7246862093633 ,16,2340051150656
3.224282 ,Left ,58,8511682283904 ,47,7814395124644 ,16,2362481689642
3.2467483 ,Left ,58,8099841915621 ,47,8959814192062 ,16,2529379991684
3.2617102 ,Left ,58,7266388071379 ,47,9110709695777 ,16,2553154830416
3.284114 ,Left ,58,6956216449555 ,47,8665087738072 ,16,2348233441202
3.3066381 ,Left ,58,657152775089 ,47,8842639660477 ,16,2189620130275
3.3217952 ,Left ,58,6139487463106 ,47,9210540335914 ,16,216754496775
3.3442407 ,Left ,58,5218169473233 ,47,9235306551263 ,16,2157447690616
3.3743375 ,Left ,58,4402019596054 ,47,9128953432055 ,16,2002855874718
3.3891898 ,Left ,58,4544762784353 ,47,9698437244138 ,16,1972953725404
3.4117551 ,Left ,58,3706730800439 ,48,094762985724 ,16,1915966255695
3.4266768 ,Left ,58,270033108739 ,48,1781584446918 ,16,1730259216237
3.4416815 ,Left ,58,1997616044341 ,48,1707323307339 ,16,1312104103641
3.4642061 ,Left ,58,1741796804604 ,48,1085556301614 ,16,0656861362685
3.4867342 ,Left ,58,1666225399477 ,48,111042689852 ,16,0174311955695
3.5019545 ,Left ,58,0935745663309 ,48,1334434919698 ,15,9948992565268
3.524238 ,Left ,58,0620411653595 ,48,1266719168083 ,15,992740139924
3.5466462 ,Left ,58,0205581881966 ,48,0978932053994 ,16,0156046262254
3.561701 ,Left ,58,0103794025387 ,48,108808088062 ,16,0449761400486
3.5842569 ,Left ,57,9573630505252 ,48,1324079329572 ,16,0351404952848
3.6068903 ,Left ,57,9506613338129 ,48,1355286751513 ,16,0127272457431
3.6219011 ,Left ,57,9204253561768 ,48,2025796738398 ,15,9971644289922
3.6444689 ,Left ,57,8418635511515 ,48,3012960218723 ,15,9872086775249
3.6668652 ,Left ,57,7545249001877 ,48,3705983732527 ,15,987496398232
3.6817302 ,Left ,57,7666233062194 ,48,3859657289543 ,16,0064528727163
3.7043486 ,Left ,57,804122998967 ,48,3502801727083 ,15,9934153128869
3.7269789 ,Left ,57,8012508031526 ,48,3247880605065 ,15,9360579109992
3.7421002 ,Left ,57,723545136689 ,48,3712694893688 ,15,8322365688487
3.7645877 ,Left ,57,5941465502109 ,48,4249819990108 ,15,6956458757594
3.7869646 ,Left ,57,4854941105241 ,48,4716470109648 ,15,5472279755979
3.8095248 ,Left ,57,3853633398832 ,48,5323322362063 ,15,3735480425958
3.8246156 ,Left ,57,2677110462546 ,48,5920483539659 ,15,192238800823
3.8471627 ,Left ,57,1325814906928 ,48,6457213547125 ,15,0094630226927
3.8693465 ,Left ,57,0182339002724 ,48,6748799396407 ,14,8401342508931
3.8844536 ,Left ,56,8927757016297 ,48,6832753455148 ,14,6835038390022
3.9068675 ,Left ,56,7950435930274 ,48,7003387033343 ,14,5669617369003
3.9292824 ,Left ,56,7088301938931 ,48,7286185987377 ,14,4691861769208
3.9442661 ,Left ,56,63801068988 ,48,7609459631915 ,14,4044429822866
3.9668573 ,Left ,56,5623752829969 ,48,7907678700622 ,14,3497576640457
3.9891777 ,Left ,56,4727462886637 ,48,724332815639 ,14,3418111565142
4.011983 ,Left ,56,483229401355 ,48,6396743450662 ,14,3830763783416
4.0269124 ,Left ,56,5440900837873 ,48,6930315272842 ,14,451476926873
4.0492792 ,Left ,56,5716610928869 ,48,7484986372809 ,14,5347168200271
4.0645772 ,Left ,56,6011565176989 ,48,6433558917025 ,14,649907566496
4.0871318 ,Left ,56,7725772329689 ,48,4252460633234 ,14,7853594449829
4.109527 ,Left ,57,0307365705377 ,48,1735906691345 ,14,8839898952081
4.1246621 ,Left ,57,3124494225238 ,48,0489127041286 ,14,9843615094537
4.146966 ,Left ,57,3885746788949 ,48,0857492015009 ,15,116469108866
4.1695256 ,Left ,57,3637588240256 ,48,1302411495694 ,15,1914935806441
4.1845784 ,Left ,57,3794929498712 ,48,0405556625048 ,15,2287451547576
4.2068893 ,Left ,57,4944944976808 ,47,9040765437396 ,15,2356375528345
4.2294231 ,Left ,57,7422238125345 ,47,8450679704624 ,15,2639507630374
4.2446079 ,Left ,57,8403890041643 ,47,8618163633877 ,15,3137525846162
4.2669032 ,Left ,57,850805472737 ,47,8663738050017 ,15,3956991339136
4.2894462 ,Left ,57,8862737157903 ,47,8122263119378 ,15,4865914687697
4.3045023 ,Left ,57,9633907250875 ,47,7374020867385 ,15,5779182199442
4.3270032 ,Left ,58,1096037911746 ,47,671062014928 ,15,7003827260797
4.3494812 ,Left ,58,2769310643894 ,47,5900186289783 ,15,8570559057466
4.3643015 ,Left ,58,3917936124975 ,47,4871503602335 ,16,027325304983
4.386753 ,Left ,58,5254835535814 ,47,3932524405729 ,16,1496371726857
4.4170209 ,Left ,58,6734044065127 ,47,3211553375334 ,16,2307655129624
4.4320818 ,Left ,58,7721214941517 ,47,2671766690487 ,16,3141508783744
4.4545508 ,Left ,58,8706388228436 ,47,2337738223507 ,16,387762048819
4.4768661 ,Left ,58,9702801999963 ,47,2183935601076 ,16,4388743035652
4.5067762 ,Left ,59,062520266197 ,47,2580348268149 ,16,4892679079831
4.5217732 ,Left ,59,1257242982087 ,47,2709982876609 ,16,5396352458528
4.5670998 ,Left ,59,1915248561703 ,47,2877507621429 ,16,5325180030852
4.5895237 ,Left ,59,1861641539703 ,47,3321606216139 ,16,5397447290793
4.6044436 ,Left ,59,1550830259868 ,47,3811273349134 ,16,551283560169
4.626949 ,Left ,59,1158119710903 ,47,4139204285926 ,16,5508052562286
4.6493284 ,Left ,59,1208705787983 ,47,4200825252393 ,16,5364444090486
4.6642103 ,Left ,59,1208240970186 ,47,4368676752975 ,16,5422534915311
4.6869719 ,Left ,59,134402870591 ,47,4589276046013 ,16,5557836047313
4.7093232 ,Left ,59,1355629609248 ,47,4589290458885 ,16,5672753959744
4.7319695 ,Left ,59,1790911766422 ,47,4345798128391 ,16,5706923465344
4.7471046 ,Left ,59,2409131459241 ,47,411326326479 ,16,5596669598262
4.7697172 ,Left ,59,2824825625469 ,47,4117543557023 ,16,5676783751014
4.7922852 ,Left ,59,2628187306197 ,47,4321381178153 ,16,5887676912405
4.8072015 ,Left ,59,2347329368364 ,47,4513622381113 ,16,6085369625377
4.8296845 ,Left ,59,1971458891137 ,47,4576133820877 ,16,6284923095235
4.8522753 ,Left ,59,1723032430988 ,47,4745972412306 ,16,6421594825544
4.8665722 ,Left ,59,1540888950824 ,47,4913833303296 ,16,6517759725175
4.8892438 ,Left ,59,1281723439116 ,47,4989576599141 ,16,6613784465781
4.9118453 ,Left ,59,118180594457 ,47,5096669552255 ,16,6677167323312
4.9268923 ,Left ,59,0971985792153 ,47,5211016742198 ,16,6772099472428
4.9494109 ,Left ,59,0745757025724 ,47,5295398608046 ,16,6925923628902
4.9720012 ,Left ,59,0588257609089 ,47,5408559329783 ,16,7070082338836
4.986806 ,Left ,59,0495245571008 ,47,5238976769076 ,16,7123461739674
5.0093874 ,Left ,59,0575507128341 ,47,5005238177007 ,16,7130323774538
5.0319474 ,Left ,59,0774429541516 ,47,4977718299134 ,16,7334735365895
5.046972 ,Left ,59,0768440750334 ,47,4990567085617 ,16,7726233140103
5.0695056 ,Left ,59,040490986171 ,47,4977312494752 ,16,8000385649567
5.0919604 ,Left ,59,0021804565283 ,47,5162842881323 ,16,8132561718997
5.10685 ,Left ,59,0080809649486 ,47,5278328835775 ,16,8305228137623
5.1295705 ,Left ,58,9577649748603 ,47,5014488538206 ,16,8327461806064
5.1519499 ,Left ,59,0013871984491 ,47,5446617196815 ,16,8336558192846
5.1666521 ,Left ,58,9689753531665 ,47,6740669998444 ,16,8245920337017
5.1891508 ,Left ,58,8701574784579 ,47,7425889109951 ,16,7945228057089
5.2194427 ,Left ,58,7953227957676 ,47,7277907110011 ,16,7200314240707
5.2346251 ,Left ,58,8273640438561 ,47,6970195278533 ,16,6128588884455
5.2571111 ,Left ,58,8016311973264 ,47,6722658887286 ,16,50731156014
5.287177 ,Left ,58,7870294393067 ,47,6630129511497 ,16,3274224112447
5.3096005 ,Left ,58,6977264548241 ,47,7137231964902 ,16,2712013006763
5.3321285 ,Left ,58,6090203256147 ,47,7651978545101 ,16,2265240073855
5.3470107 ,Left ,58,4882301132171 ,47,7222624715134 ,16,1734582473305
5.3695672 ,Left ,58,454797611369 ,47,6482101911634 ,16,1422787348356
5.3921193 ,Left ,58,5447548472353 ,47,6776062090749 ,16,1328488156622
5.4070234 ,Left ,58,4826349417568 ,47,7710567602703 ,16,1515047151475
5.4291971 ,Left ,58,4038807342799 ,47,7921632633917 ,16,1618334178112
5.4519608 ,Left ,58,3805367161688 ,47,7321109197478 ,16,1628871412594
5.4669225 ,Left ,58,443098941737 ,47,6215429727988 ,16,1464986531519
5.4894876 ,Left ,58,5080950915854 ,47,621440564285 ,16,1459189208118
5.5118612 ,Left ,58,5036586224268 ,47,6599266239121 ,16,1766206563413
5.5348466 ,Left ,58,3378091201104 ,47,7066697737195 ,16,2054998921567
5.5497181 ,Left ,58,2812710978377 ,47,7801463006548 ,16,1983850374024
5.5721194 ,Left ,58,2014931683211 ,47,9059243479865 ,16,1823297704756
5.5946872 ,Left ,58,1162601229274 ,47,9898196864386 ,16,1700244271022
5.6097841 ,Left ,58,0791883434359 ,47,9357769189551 ,16,1615689606313
5.6320726 ,Left ,58,0497941140622 ,47,8780498315641 ,16,1275852722389
5.6546589 ,Left ,58,0472906544212 ,47,8527522877852 ,16,0947391513421
5.6697369 ,Left ,58,0767873523214 ,47,8404370553062 ,16,0795386223046
5.6922945 ,Left ,58,0773559699596 ,47,8292696827901 ,16,0782051009495
5.7147824 ,Left ,58,0263096238462 ,47,8302163168138 ,16,0725695673222
5.7296766 ,Left ,57,9974671192248 ,47,8525201333393 ,16,0517241783747
5.7446728 ,Left ,57,9642229109042 ,47,8943107463191 ,16,0193427864887
5.7822757 ,Left ,57,8649796166359 ,47,872473331646 ,16,0290529648303
5.8045489 ,Left ,57,8528925851595 ,47,8900918524248 ,16,0144376999971
5.8421564 ,Left ,57,7909661440289 ,47,9557149825218 ,16,0093901113535
5.8643814 ,Left ,57,7299184373336 ,48,0430548863654 ,16,0142903901599
5.9021498 ,Left ,57,6460041451521 ,48,1217167210066 ,15,9900660225151
5.9246482 ,Left ,57,6624587691229 ,48,0852996188819 ,15,9490337864087
5.9623518 ,Left ,57,5853414577628 ,48,0872773409384 ,15,7595829488716
5.9846478 ,Left ,57,4615378266301 ,48,1535199287456 ,15,6239938511291
6.0220173 ,Left ,57,2274817553662 ,48,2580078380116 ,15,3387391408737
6.0445742 ,Left ,57,1038994102976 ,48,3323790193032 ,15,189747029716
6.082206 ,Left ,56,7952752839484 ,48,5020501208649 ,14,8703590856985
6.1045537 ,Left ,56,6838384960773 ,48,5462404040244 ,14,6980146206501
6.1421233 ,Left ,56,5590016159093 ,48,5764957335739 ,14,4472208803053
6.164471 ,Left ,56,5085391883452 ,48,5878452953923 ,14,3623412435157
6.2022775 ,Left ,56,4615096714283 ,48,465394550908 ,14,2399863075515
6.2246701 ,Left ,56,5186513148505 ,48,4029803080305 ,14,2474733320231
6.2622155 ,Left ,56,541446767002 ,48,5042278560369 ,14,3977241578275
6.2847945 ,Left ,56,545173955144 ,48,3893311998603 ,14,5065329957845
6.3220042 ,Left ,56,9365115337544 ,48,0338351056392 ,14,697149667524
6.344727 ,Left ,57,1163932750572 ,47,9340470035098 ,14,7813473546884
6.3821925 ,Left ,57,1815227112998 ,47,8733690063674 ,14,9289966721403
6.4046881 ,Left ,57,2327925566658 ,47,8170808837431 ,14,9738801156796
6.4418162 ,Left ,57,5154917976296 ,47,8066458270701 ,15,1095816607806
6.4642804 ,Left ,57,6208450016603 ,47,8444980768228 ,15,1838142242348
6.5022307 ,Left ,57,7503884241892 ,47,783122821086 ,15,3574543939831
6.5245758 ,Left ,57,908176861932 ,47,6868921736026 ,15,4435120692026
6.5621161 ,Left ,58,1435088244596 ,47,5867450808727 ,15,5872744004763
6.5850236 ,Left ,58,2656831805854 ,47,5340130086847 ,15,6816224866183
6.6221555 ,Left ,58,4184070817239 ,47,4241893315653 ,15,8072909912486
6.6445368 ,Left ,58,4876734845711 ,47,4179729435864 ,15,8573069013254
6.6968031 ,Left ,58,487153248767 ,47,4459765483151 ,16,0289685244714
6.7192352 ,Left ,58,5024487262517 ,47,4346230621526 ,16,1033558255547
6.764339 ,Left ,58,5492649154063 ,47,4085121254725 ,16,2312698967325
6.8020956 ,Left ,58,5770801628611 ,47,3728318640257 ,16,3005049528538
6.8246767 ,Left ,58,6204869315097 ,47,351310090292 ,16,3184749291059
6.8620718 ,Left ,58,7693996324681 ,47,3644298754386 ,16,4151537946187
6.8844783 ,Left ,58,7936930146868 ,47,3544515734235 ,16,4299734277612
6.9217232 ,Left ,58,9455248782242 ,47,3407742325528 ,16,4476623935182
6.9443862 ,Left ,58,9921005472608 ,47,3561227322352 ,16,4788651708583
6.9825301 ,Left ,58,9930295175932 ,47,3883189507363 ,16,5249609221203
7.0043325 ,Left ,58,9661359026424 ,47,4417590575565 ,16,5578554691497
7.0419927 ,Left ,58,8720219193125 ,47,4913750456308 ,16,6607264674713
7.0644901 ,Left ,58,8392618974627 ,47,5010135296414 ,16,6832389987418
7.1019583 ,Left ,58,8373518513123 ,47,529371588834 ,16,7198425644394
7.1244995 ,Left ,58,8179611782142 ,47,5491450052111 ,16,7228890400152
7.1621434 ,Left ,58,8038111239337 ,47,5695027328317 ,16,7001276646713
7.1921049 ,Left ,58,8119398501819 ,47,5703000898669 ,16,6833544861352
7.2369443 ,Left ,58,765777169046 ,47,5961621621804 ,16,637464189597
7.2520501 ,Left ,58,7354751468029 ,47,5948539118414 ,16,6256283229559
7.3045097 ,Left ,58,6592515540803 ,47,582825444441 ,16,6456769774335
7.3421614 ,Left ,58,6021307179228 ,47,7902609795027 ,16,628473882489
7.364497 ,Left ,58,5197579657956 ,47,8298943496034 ,16,5897761553095
7.4026025 ,Left ,58,5210996577815 ,47,7374718033992 ,16,4400756852493
7.424435 ,Left ,58,5380225987058 ,47,7169825617817 ,16,3562034069079
7.462076 ,Left ,58,5506839193303 ,47,7085431661513 ,16,1984314879372
7.4846838 ,Left ,58,4961866236516 ,47,7243430963257 ,16,1451262920301
7.5220687 ,Left ,58,3417331576112 ,47,7273623107687 ,16,0859308699706
7.5447181 ,Left ,58,3303549454901 ,47,6484703438093 ,16,0370611873247
7.5821894 ,Left ,58,3683397461088 ,47,7539021573967 ,16,0400160449506
7.6045444 ,Left ,58,2701438770497 ,47,7697472630446 ,16,0426210274686
7.6195913 ,Left ,58,2366414100377 ,47,7520627083894 ,16,0271207909064
7.634671 ,Left ,58,231685107079 ,47,784502330049 ,16,0124727388221
7.6570001 ,Left ,58,1980043008479 ,47,8042914936257 ,16,0096397694304
7.6795344 ,Left ,58,0838426634617 ,47,7766484479991 ,16,0120695167659
7.6945478 ,Left ,58,1305534092494 ,47,7529550090184 ,16,0343607735278
7.7169171 ,Left ,58,1781681935509 ,47,7929508436888 ,16,0693617311972
7.7394399 ,Left ,58,1831489172851 ,47,8324805948129 ,16,1040210320229
7.754173 ,Left ,58,1647243645537 ,47,8244175383857 ,16,0963242330021
7.776818 ,Left ,58,0966825896511 ,47,847678890313 ,16,0790703525252
7.7994179 ,Left ,58,0532538523778 ,47,8804793658152 ,16,0660443876688
7.8144828 ,Left ,58,0437062237236 ,47,8540102218215 ,16,0657686106386
7.8370195 ,Left ,58,0899683728655 ,47,8120253205432 ,16,0580147978459
7.8600595 ,Left ,58,0884255753465 ,47,7735053056951 ,16,0682765006263
7.8748575 ,Left ,58,0616211922106 ,47,7391560104786 ,16,0816679385136
7.8967268 ,Left ,58,0159054877031 ,47,7523015342481 ,16,0547985007452
7.9193131 ,Left ,57,9701863540735 ,47,8196748367985 ,16,0139441518124
7.9344399 ,Left ,57,8962015630741 ,47,9163154461712 ,15,9730311669387
7.9568501 ,Left ,57,7997962400897 ,48,0020072767465 ,15,9484734809478
7.9795253 ,Left ,57,704723864104 ,48,0529082888056 ,15,9484902171118
7.994406 ,Left ,57,6887038049524 ,48,0583984174556 ,15,9451348733411
8.0170781 ,Left ,57,6716290334715 ,48,0394726544034 ,15,9079693235379
8.0392599 ,Left ,57,6601028766436 ,48,0327823916266 ,15,8330631387539
8.0549054 ,Left ,57,6021622755158 ,48,0472393080073 ,15,748750612491
8.0773298 ,Left ,57,5146474070458 ,48,099191301057 ,15,6424234201462
8.0999825 ,Left ,57,4437520323542 ,48,1482679650999 ,15,5363408505792
8.1223536 ,Left ,57,3678474881262 ,48,1826379841144 ,15,4344098901822
8.1375783 ,Left ,57,2952078261064 ,48,2192152715136 ,15,3231400017681
8.1600246 ,Left ,57,2122550526057 ,48,2636504308683 ,15,2004068134092
8.1825738 ,Left ,57,1172053222536 ,48,3028619945288 ,15,0672740606346
8.1974196 ,Left ,57,0215115383695 ,48,3352322522654 ,14,9317674130404
8.2193844 ,Left ,56,9379725160464 ,48,3809498080428 ,14,8128735297371
8.2419874 ,Left ,56,8439403291877 ,48,4259121803026 ,14,7063900032677
8.2570168 ,Left ,56,7567595968582 ,48,455759383286 ,14,6084080861327
8.3021371 ,Left ,56,6286361604493 ,48,5226167155457 ,14,4076104156929
8.3242955 ,Left ,56,5632997991931 ,48,5594023383417 ,14,3219522881101
8.3617614 ,Left ,56,4155084532453 ,48,4277908774412 ,14,2537392038117
8.384203 ,Left ,56,328589427462 ,48,4229960212436 ,14,2392593541714
8.4217099 ,Left ,56,4206373128607 ,48,2438019059692 ,14,2803944920935
8.4591181 ,Left ,56,3281738164681 ,48,4751395842244 ,14,4095776933274
8.4818808 ,Left ,56,3951175833768 ,48,1492987469725 ,14,525664798375
8.5198141 ,Left ,56,7625533665833 ,47,8887819038131 ,14,6937875319817
8.5419349 ,Left ,56,9173055840362 ,47,7893622686251 ,14,7751699884607
8.5791936 ,Left ,56,9654243007341 ,47,8585649742667 ,14,9465515843303
8.6019445 ,Left ,57,0091149233035 ,47,7821622677528 ,15,0090284286349
8.6320847 ,Left ,57,3234039639725 ,47,6957339623927 ,15,0509153940077
8.6547354 ,Left ,57,3566934212848 ,47,5981569515636 ,15,1081341011688
8.676913 ,Left ,57,4066097994662 ,47,6106686483067 ,15,1706526360115
8.6996251 ,Left ,57,4202522775421 ,47,6176335113073 ,15,2414871712595
8.7145937 ,Left ,57,5048826047299 ,47,6010531727101 ,15,3153603393792
8.7369393 ,Left ,57,5261809084871 ,47,5591928054488 ,15,3927700795127
8.7596644 ,Left ,57,5753974251418 ,47,5027369269303 ,15,4913585053949
8.7746522 ,Left ,57,6097802921689 ,47,4486769975932 ,15,5928041430117
8.7969639 ,Left ,57,6349901522608 ,47,3948282146439 ,15,6940433920172
8.8195488 ,Left ,57,6677270799654 ,47,3487516891367 ,15,814781115012
8.8344092 ,Left ,57,6845768654175 ,47,3094059442025 ,15,9271190848197
8.8568068 ,Left ,57,7316370854306 ,47,2793844719183 ,16,0245935292541
8.8791998 ,Left ,57,7837209800743 ,47,2753184328467 ,16,1316235442828
8.8944169 ,Left ,57,8182482308616 ,47,2742771350357 ,16,2608836020591
8.9168988 ,Left ,57,8839717393593 ,47,2580132821035 ,16,3794205951133
8.9394227 ,Left ,57,9577932259998 ,47,2256509850382 ,16,4660683358854
8.9544194 ,Left ,58,0237499834921 ,47,2152024104967 ,16,5324626505303
8.9770276 ,Left ,58,0655136832436 ,47,2364602448154 ,16,6295650116605
8.9995846 ,Left ,58,1532301974507 ,47,298432869535 ,16,7235498256461
9.0145822 ,Left ,58,1811019184339 ,47,3151208436772 ,16,7790073446719
9.0371127 ,Left ,58,2273531611974 ,47,2826346230762 ,16,7953489282514
9.0594006 ,Left ,58,3478777572638 ,47,2536681275977 ,16,7902827111392
9.0742913 ,Left ,58,4288528087605 ,47,2505751182641 ,16,7852819553291
9.0970035 ,Left ,58,4445807832634 ,47,2688360328568 ,16,7923842801338
9.1193268 ,Left ,58,4435918832481 ,47,2866410199616 ,16,8037207708091
9.1344938 ,Left ,58,433420353908 ,47,3053068167594 ,16,8156246310256
9.1567713 ,Left ,58,4189708221591 ,47,3146546093255 ,16,8350869865309
9.179491 ,Left ,58,396277677308 ,47,3332616443526 ,16,8627705889452
9.2019626 ,Left ,58,3737846462002 ,47,3485277941824 ,16,8947250583882
9.2170139 ,Left ,58,3402768112311 ,47,3727905104869 ,16,9257904490452
9.2394156 ,Left ,58,3592537094442 ,47,4059830120311 ,16,952678915505
9.2619618 ,Left ,58,3168148932526 ,47,3865798433415 ,16,9784238842975
9.2768621 ,Left ,58,3204250117155 ,47,3974320133608 ,16,9735000869876
9.2992771 ,Left ,58,3487134822749 ,47,4279479049721 ,16,9623385066217
9.3219833 ,Left ,58,3325030351033 ,47,479043170731 ,16,9560296337766
9.3369141 ,Left ,58,2983547540621 ,47,5278031174428 ,16,9469046347041
9.3669576 ,Left ,58,2738222589938 ,47,566122115435 ,16,9310591362576
9.389402 ,Left ,58,2787433310845 ,47,5909287026761 ,16,9003706459809
9.4045143 ,Left ,58,2843644170745 ,47,6094213834731 ,16,866485720125
9.4193359 ,Left ,58,2803845060852 ,47,6149681207512 ,16,8329891973021
9.4418954 ,Left ,58,2739882849353 ,47,6078935838223 ,16,8090779522959
9.4646016 ,Left ,58,2701797608427 ,47,6008018989828 ,16,7877009059969
9.4794544 ,Left ,58,2677494323748 ,47,5819893161961 ,16,7706975727351
9.5017534 ,Left ,58,2615854066103 ,47,5672039682284 ,16,762168244512
9.524346 ,Left ,58,2532018654047 ,47,5842599225472 ,16,7759971052113
9.5393766 ,Left ,58,2413115892518 ,47,6272595849836 ,16,794406020749
9.5621212 ,Left ,58,2112134243656 ,47,6490537068428 ,16,8190335432977
9.5846386 ,Left ,58,2438168583022 ,47,5722804985169 ,16,8032993414418
9.5995166 ,Left ,58,2567173374217 ,47,4806148037029 ,16,7917515578545
9.6220439 ,Left ,58,383099802364 ,47,4833079447878 ,16,7853367689667
9.6445607 ,Left ,58,3725740893966 ,47,603225136113 ,16,7757885037109
9.6595428 ,Left ,58,2624424346181 ,47,6907888040066 ,16,7568063958128
9.6821539 ,Left ,58,1865004581636 ,47,6806340234834 ,16,7029157501277
9.7044635 ,Left ,58,1922186231888 ,47,6507867534335 ,16,6305019106057
9.7193304 ,Left ,58,1757184487687 ,47,6332605388248 ,16,5459181238043
9.7421132 ,Left ,58,1739836441833 ,47,6311252851737 ,16,4505820763378
9.7646325 ,Left ,58,1248117584105 ,47,6578928384171 ,16,3412685204527
9.7797228 ,Left ,58,0654888733529 ,47,6814700942938 ,16,2460867933003
9.8023138 ,Left ,57,9793135319089 ,47,7014797043996 ,16,1905080451395
9.8247914 ,Left ,57,9337396865479 ,47,7461095036401 ,16,158022300154
9.8395438 ,Left ,57,8454431623385 ,47,7110128560162 ,16,1301695056086
9.8622371 ,Left ,57,8396007055891 ,47,6214440418591 ,16,1048627469298
9.8848299 ,Left ,57,9498953715908 ,47,6211173892262 ,16,0949504308581
9.8994835 ,Left ,57,8932589075059 ,47,713830669381 ,16,0979510590451
9.9222124 ,Left ,57,8375868483784 ,47,7443193958234 ,16,0935652912444
9.9450161 ,Left ,57,8315052940577 ,47,6743906141536 ,16,0796212542521
9.9597361 ,Left ,57,8309249969403 ,47,6237642777922 ,16,0679317429213
9.982076 ,Left ,57,8792498853947 ,47,6276808271237 ,16,0615552219119
10.004737 ,Left ,57,8161190569486 ,47,6134174958523 ,16,1007034091425
10.019836 ,Left ,57,7856551014716 ,47,6077194427553 ,16,1096661194484
10.0421093 ,Left ,57,8719920103682 ,47,6211814247338 ,16,11414084805
10.0648557 ,Left ,57,9066117700437 ,47,6498811513771 ,16,1196471136239
10.0798889 ,Left ,57,8433988900916 ,47,6881261915685 ,16,110944395101
10.1024269 ,Left ,57,7584249458573 ,47,7231215860985 ,16,0858581672822
10.1247979 ,Left ,57,7047481371309 ,47,7430351000387 ,16,0495833848564
10.1395439 ,Left ,57,6828141002271 ,47,7217177191993 ,16,0324475045307
10.1622927 ,Left ,57,6967204143923 ,47,6909606528021 ,16,0416746917424
10.1848613 ,Left ,57,7004043457948 ,47,6549096995142 ,16,0818773398697
10.1998219 ,Left ,57,6603061901021 ,47,6722784739573 ,16,1406034817974
10.222351 ,Left ,57,5769364507405 ,47,7138823090493 ,16,185250804077
10.2448757 ,Left ,57,5322887745843 ,47,7847905388585 ,16,1848876769378
10.2598338 ,Left ,57,4616713553383 ,47,8760049021173 ,16,1475703315694
10.2824209 ,Left ,57,3446247892907 ,47,9605834385489 ,16,1310565928994
10.3047259 ,Left ,57,2417089910981 ,47,9978862712117 ,16,1157681352508
10.3271953 ,Left ,57,1752596080109 ,48,0105725234022 ,16,0800274909129
10.3424039 ,Left ,57,1524566437576 ,47,9919747071194 ,16,027420536725
10.3648789 ,Left ,57,1234834673789 ,47,9834714295566 ,15,9658946971205
10.3870771 ,Left ,57,0216540331213 ,47,974313176496 ,15,880245943555
10.40243 ,Left ,56,9172615925149 ,47,8920591409352 ,15,775621763486
10.4248155 ,Left ,56,8788566465965 ,47,9757201132706 ,15,6441063533798
10.4469788 ,Left ,56,7861226662776 ,47,9064325848665 ,15,5228071104278
10.4621075 ,Left ,56,6014344416037 ,47,9191299167831 ,15,4120915004861
10.4844319 ,Left ,56,5434954400929 ,48,158322591025 ,15,2682342173817
10.5069155 ,Left ,56,4757834186616 ,48,0618117998493 ,15,1122980190953
10.5219335 ,Left ,56,3556226666591 ,48,1260179293073 ,14,9618412009311
10.5443692 ,Left ,56,3652738069084 ,48,2019490803171 ,14,7939544487042
10.5670401 ,Left ,56,246587375442 ,48,1314200072706 ,14,6517049439236
10.5894533 ,Left ,56,2283075288328 ,48,3180691175252 ,14,4979278147173
10.6044788 ,Left ,56,1355865182794 ,48,1489820157772 ,14,3803234944501
10.626951 ,Left ,56,0917136771079 ,48,3355113725881 ,14,2666499279119
10.6492322 ,Left ,56,0849164875818 ,48,1865728889374 ,14,1930771877346
10.6644839 ,Left ,56,0221190868817 ,48,3132976948059 ,14,1729924627846
10.6870323 ,Left ,56,0521847296036 ,48,3123623049807 ,14,1600869629852
10.7021406 ,Left ,56,0703756721487 ,48,1658847416671 ,14,1800704437056
10.7245623 ,Left ,56,182324157761 ,48,0527748378157 ,14,2275513742409
10.7468053 ,Left ,56,2995724027881 ,48,0422788501118 ,14,3001095003342
10.7619517 ,Left ,56,3928230146998 ,48,0128330752628 ,14,3804327101728
10.7842695 ,Left ,56,481789319547 ,47,8783058640107 ,14,4932654506556
10.8070051 ,Left ,56,6613648337474 ,47,7090007555165 ,14,6198556736704
10.8220722 ,Left ,56,8889776500967 ,47,5518196428553 ,14,7051215658735
10.8442156 ,Left ,57,0605577298525 ,47,4912246001838 ,14,8053457187761
10.8668529 ,Left ,57,0215836278337 ,47,5683320009636 ,14,9264689649086
10.8820702 ,Left ,56,9849907288745 ,47,6397281484305 ,15,0404445018069
10.9044116 ,Left ,56,9962069891223 ,47,6034393435513 ,15,0978511624855
10.9270229 ,Left ,57,0979300524947 ,47,5634352513268 ,15,0800477725945
10.9421373 ,Left ,57,1940603275592 ,47,5699068110142 ,15,0838435605258
10.9645964 ,Left ,57,2647061332313 ,47,6361561562352 ,15,1139490371912
10.9869507 ,Left ,57,3034824589813 ,47,6590275722413 ,15,1690532231185
11.0021525 ,Left ,57,3259851846434 ,47,6329384789446 ,15,2458526822644
11.0243811 ,Left ,57,4117327485524 ,47,5826509017257 ,15,3274042481887
11.0471641 ,Left ,57,4926796273938 ,47,5458106403008 ,15,4091035701962
11.0621447 ,Left ,57,5965375416545 ,47,4888097577253 ,15,5080776993663
11.0846847 ,Left ,57,7047319904679 ,47,4435469094227 ,15,6184509570721
11.107 ,Left ,57,7904613954461 ,47,3977593911548 ,15,7217313900511
11.1296616 ,Left ,57,8748810006497 ,47,3414383949585 ,15,8323489058893
11.1444176 ,Left ,57,951041210107 ,47,2781984570982 ,15,9325650102228
11.1671183 ,Left ,58,0254557946683 ,47,2166511517625 ,16,0115368339748
11.1893754 ,Left ,58,0996037392664 ,47,1854845064725 ,16,0953529933228
11.2042693 ,Left ,58,160194485571 ,47,1994120126425 ,16,2042322588965
11.2268768 ,Left ,58,1734194219343 ,47,1815663935239 ,16,3195754091741
11.2493426 ,Left ,58,1987886851113 ,47,1428333286083 ,16,3894513620063
11.264339 ,Left ,58,2611017129437 ,47,1036423442974 ,16,4214797968773
11.2870854 ,Left ,58,3153384370222 ,47,0896892583164 ,16,430351680007
11.3095233 ,Left ,58,3690724927331 ,47,1171561800451 ,16,4474092498694
11.3245375 ,Left ,58,4026779809696 ,47,1502270630261 ,16,4695513237567
11.3469214 ,Left ,58,4184657733264 ,47,1764279903769 ,16,4877628973465
11.3695583 ,Left ,58,4081120362133 ,47,1973928214308 ,16,5133674652896
11.3848755 ,Left ,58,4216205049626 ,47,2557999271372 ,16,5425714713219
11.4221678 ,Left ,58,4726545962344 ,47,2611715141493 ,16,5907627188202
11.446253 ,Left ,58,5276467265689 ,47,2477774048355 ,16,602846911832
11.4600246 ,Left ,58,5852133147215 ,47,2511892507345 ,16,6229289612464
11.4827113 ,Left ,58,5737376663986 ,47,4353194936055 ,16,6657287690945
11.505025 ,Left ,58,6823921411395 ,47,6292997099604 ,16,6879111202616
11.519744 ,Left ,58,5694033200464 ,47,5956069344359 ,16,7506294903194
11.542369 ,Left ,58,5209973210733 ,47,4126751769082 ,16,7925684899145
11.5571375 ,Left ,58,5906655732862 ,47,38732590011 ,16,8068360362678
11.5719894 ,Left ,58,6527661505888 ,47,5856400402419 ,16,8222191010555
11.5946262 ,Left ,58,6435418646794 ,47,6232885790127 ,16,8228628796191
11.6171635 ,Left ,58,5762509257355 ,47,5582500559661 ,16,8051613406764
11.6321708 ,Left ,58,5830115245953 ,47,5912962324951 ,16,7757162230096
11.6543539 ,Left ,58,5832523156631 ,47,5996676214874 ,16,7484440051063
11.6770553 ,Left ,58,562314976568 ,47,5996059717083 ,16,7216601775806
11.6918672 ,Left ,58,5380982103091 ,47,6032999768354 ,16,6894718424568
11.7143243 ,Left ,58,5207730176357 ,47,6111777439819 ,16,6612261795421
11.7369525 ,Left ,58,481030919293 ,47,7090893016541 ,16,6509969591104
11.7518181 ,Left ,58,5463744194172 ,47,7605524515503 ,16,6360717900389
11.7742493 ,Left ,58,4701040143573 ,47,5646231960767 ,16,6473905845759
11.7969732 ,Left ,58,4062854774019 ,47,5365075404545 ,16,6663277286756
11.8119699 ,Left ,58,3791598211718 ,47,5699952328999 ,16,6848767304534
11.8344873 ,Left ,58,3330113314713 ,47,5732987019922 ,16,7027722893799
11.8569832 ,Left ,58,3150019627675 ,47,5036851130001 ,16,7013405560607
11.8717479 ,Left ,58,41508843541 ,47,5097626320445 ,16,6982531009139
11.8944716 ,Left ,58,4177001709545 ,47,6288656441042 ,16,6884205699461
11.9172045 ,Left ,58,3383977489288 ,47,6878336573529 ,16,663611560597
11.9321773 ,Left ,58,2583936755414 ,47,6607274928061 ,16,6204751187807
11.9545528 ,Left ,58,2801686190013 ,47,6131583365958 ,16,554445480009
11.9771244 ,Left ,58,2911884426272 ,47,5811159928571 ,16,4732344974563
11.9922548 ,Left ,58,2940583156458 ,47,5503093553431 ,16,3964419253599
12.0145239 ,Left ,58,2783355883853 ,47,5407860874939 ,16,3147947288999
12.0370973 ,Left ,58,2283031482129 ,47,5811242702693 ,16,2541273734938
12.0521296 ,Left ,58,1367363727332 ,47,6173563742676 ,16,2324446470782
12.0745613 ,Left ,58,0682763426355 ,47,5924092497934 ,16,1794762239442
12.0971077 ,Left ,58,0245514144654 ,47,4953477802803 ,16,1079587747647
12.1120944 ,Left ,58,0723728460902 ,47,4487076281261 ,16,0814330345587
12.1341304 ,Left ,58,0787191877305 ,47,508816423931 ,16,0736384628278
12.1569978 ,Left ,58,0318505591049 ,47,5460369667824 ,16,0839924102085
12.179293 ,Left ,57,987509327422 ,47,5218209074844 ,16,0661522017098
12.1943441 ,Left ,57,9736697264311 ,47,5191238764562 ,16,055883332325
12.2170667 ,Left ,57,9427333343209 ,47,5572288242743 ,16,0471906533342
12.2395017 ,Left ,57,8611323694781 ,47,5576683475102 ,16,0406602652696
12.2545802 ,Left ,57,8523792555885 ,47,5508738258022 ,16,034324423383
12.2770181 ,Left ,57,8719932077093 ,47,6039964487544 ,16,0400777779791
12.2991647 ,Left ,57,8692526262203 ,47,6608781720074 ,16,0298181824978
12.3370366 ,Left ,57,8122070805209 ,47,638106786726 ,15,9754872168756
12.3595175 ,Left ,57,8114388324688 ,47,6492776521847 ,15,9466685681441
12.396852 ,Left ,57,7646954943707 ,47,6484910840622 ,15,9459732822168
12.4195517 ,Left ,57,7730937516695 ,47,6393273363977 ,15,9379774808364
12.4571536 ,Left ,57,6350791887579 ,47,6781438701412 ,15,9859779675247
12.4796274 ,Left ,57,5975033019169 ,47,6650595854867 ,15,9695621148863
12.516983 ,Left ,57,5661767100969 ,47,7530069898023 ,15,8957364658678
12.5395129 ,Left ,57,4906251632557 ,47,7922589275095 ,15,8654169672735
12.5771499 ,Left ,57,4652765266192 ,47,7689643117651 ,15,8042618905897
12.5996477 ,Left ,57,4893281796269 ,47,7516947670522 ,15,7450259100218
12.6371678 ,Left ,57,3827331409568 ,47,8074919674486 ,15,5724853512036
12.6595821 ,Left ,57,2579946481316 ,47,9020517970708 ,15,4887701761042
12.696782 ,Left ,57,0503384158514 ,48,0592357629129 ,15,2952203761764
12.7192022 ,Left ,56,9537604215494 ,48,1239970794781 ,15,1611047540711
12.7647492 ,Left ,56,7579728580087 ,48,2213730241272 ,14,8909895000628
12.8172526 ,Left ,56,4597707826179 ,48,2893833072434 ,14,5607928188724
12.8395856 ,Left ,56,3390396908625 ,48,3314927534225 ,14,4475408744126
12.8772685 ,Left ,56,1381960616626 ,48,4225012508395 ,14,285354605394
12.8995859 ,Left ,56,0797066680456 ,48,4417511292625 ,14,2579724447177
12.9372615 ,Left ,56,0461817626978 ,48,3329667205345 ,14,2095191818122
12.9596714 ,Left ,56,1098174369739 ,48,3218391174272 ,14,2186489212399
12.9969055 ,Left ,56,1906066131971 ,48,3226631960936 ,14,3437059833456
13.0193801 ,Left ,56,331616276114 ,48,1574639021922 ,14,4557953942103
13.0570434 ,Left ,56,7970616050243 ,47,7777722606452 ,14,6609424364818
13.0795633 ,Left ,57,0007641429363 ,47,6717153734316 ,14,7565500413935
13.1170299 ,Left ,57,0591796845741 ,47,758910604374 ,14,9207334027153
13.139444 ,Left ,57,0748283332588 ,47,7096408262602 ,14,9594933660269
13.1771688 ,Left ,57,3531104780384 ,47,5416920349242 ,15,0434849134674
13.1995271 ,Left ,57,4886323623412 ,47,576599906303 ,15,0956590722587
13.2371974 ,Left ,57,5212502047987 ,47,5840604307484 ,15,2244158957537
13.2595849 ,Left ,57,5741394794957 ,47,5471145907835 ,15,2878672312636
13.297158 ,Left ,57,7317653442681 ,47,4580104612135 ,15,4616009037776
13.3196451 ,Left ,57,7896795574419 ,47,4177988352706 ,15,5533224864785
13.3571649 ,Left ,57,9458722996525 ,47,3355886024061 ,15,7408209104232
13.3795436 ,Left ,58,0140331614749 ,47,3110614233113 ,15,8248469273047
13.4167399 ,Left ,58,1329453580725 ,47,3042979766894 ,15,9797114866237
13.4318224 ,Left ,58,1672573186082 ,47,2990745941974 ,16,0521251169538
13.454465 ,Left ,58,1992350410809 ,47,2789111989624 ,16,1030753137127
13.4694131 ,Left ,58,2419973078693 ,47,2727491628996 ,16,1329559751214
13.4920377 ,Left ,58,268610654885 ,47,2826513488449 ,16,1775556402507
13.5146427 ,Left ,58,2756493650726 ,47,2888738466583 ,16,2325124611804
13.5297787 ,Left ,58,2385995903224 ,47,4192416779339 ,16,2641605669367
13.5522935 ,Left ,58,1408681762648 ,47,4174031552403 ,16,3196815305207
13.5748269 ,Left ,58,139886204624 ,47,6046168769662 ,16,3758614171623
13.5896214 ,Left ,58,2459191156025 ,47,6373232536044 ,16,3895658322949
13.6123332 ,Left ,58,2015685606798 ,47,4220318980823 ,16,4225075988569
13.6346407 ,Left ,58,2802243917134 ,47,5710801644852 ,16,4288930912414
13.649622 ,Left ,58,3724459647518 ,47,4315997689627 ,16,4320279427191
13.6720642 ,Left ,58,3817968258481 ,47,4321285066143 ,16,4651913064294
13.6945767 ,Left ,58,4652631632907 ,47,4555091723787 ,16,461817892359
13.7097027 ,Left ,58,4002323859361 ,47,3430639677482 ,16,4875253502465
13.732167 ,Left ,58,4635657666994 ,47,5598712149703 ,16,4839092380637
13.754618 ,Left ,58,3854138218924 ,47,4021537656954 ,16,5178405566527
13.7695902 ,Left ,58,3559419270253 ,47,6295178213871 ,16,5363981174126
13.7920093 ,Left ,58,3420563383028 ,47,4900821439421 ,16,5375898905516
13.8146278 ,Left ,58,281136058106 ,47,373971243152 ,16,5526490112367
13.8295478 ,Left ,58,2596644412347 ,47,3468010677154 ,16,5709952078274
13.8522151 ,Left ,58,2533766107097 ,47,3439986774702 ,16,5695698873567
13.8745203 ,Left ,58,2504827256354 ,47,3483589707839 ,16,5610195981204
13.8894417 ,Left ,58,2272699620084 ,47,3623136630991 ,16,5521021580964
13.9116648 ,Left ,58,2080719083021 ,47,3709521833408 ,16,5458451564145
13.9344946 ,Left ,58,1891343274219 ,47,3849474408222 ,16,5369473510028
13.949339 ,Left ,58,1759735961876 ,47,4086933404162 ,16,5295665711389
13.9718899 ,Left ,58,1998607452858 ,47,4179437453192 ,16,5285493531648
13.9945184 ,Left ,58,2163692936857 ,47,4071026509856 ,16,5091428122638
14.0094896 ,Left ,58,216063178641 ,47,3840086856196 ,16,4880914254447
14.0321152 ,Left ,58,2354028313168 ,47,3862876452093 ,16,4817797810079
14.0544743 ,Left ,58,2784400373817 ,47,4791379161164 ,16,4637076617711
14.0696135 ,Left ,58,270418998049 ,47,5402005596399 ,16,4367354281435
14.092144 ,Left ,58,207387850308 ,47,5123546350144 ,16,3924881495537
14.1143521 ,Left ,58,2323533398783 ,47,481327602177 ,16,3271618204639
14.1293035 ,Left ,58,2240640273064 ,47,4530354464792 ,16,2548491550895
14.1517341 ,Left ,58,2234910515595 ,47,4396972754356 ,16,1885055606701
14.1743558 ,Left ,58,2136834098525 ,47,4382701119316 ,16,1216830934752
14.1969702 ,Left ,58,1614706813855 ,47,4596715462468 ,16,0739366904004
14.2118825 ,Left ,58,0654437187781 ,47,4968591262707 ,16,0398997491402
14.2343916 ,Left ,57,9719255047987 ,47,5535888565357 ,15,9967913253883
14.256808 ,Left ,57,8702232278384 ,47,5201142805873 ,15,9494631603486
14.2717506 ,Left ,57,8710703983058 ,47,415704464426 ,15,9251188888624
14.2944547 ,Left ,58,0021989463698 ,47,4035321868617 ,15,9398161993627
14.3169876 ,Left ,57,9645593745175 ,47,4655073425824 ,15,9630848291719
14.3319037 ,Left ,57,8792588871286 ,47,4697756994774 ,15,9729512536525
14.3544389 ,Left ,57,8748023884313 ,47,44504018466 ,15,9654837786408
14.3769251 ,Left ,57,8857693042045 ,47,4626909742596 ,15,9540750356415
14.3920533 ,Left ,57,860013387342 ,47,4901755580896 ,15,9710097537136
14.4145919 ,Left ,57,7810588170108 ,47,4744982884293 ,15,9902635562721
14.4369296 ,Left ,57,8480033681592 ,47,4595932368635 ,16,005714611829
14.4521433 ,Left ,57,8747495462367 ,47,4779284346717 ,16,0153397999568
14.474452 ,Left ,57,8570112277706 ,47,4712377145151 ,16,0102029400198
14.4968865 ,Left ,57,8800335726962 ,47,4580940566156 ,15,9724368821406
14.5120653 ,Left ,57,8502384220287 ,47,4327563563361 ,15,9301723097526
14.5344945 ,Left ,57,8249598702593 ,47,4459173276323 ,15,8952059501349
14.5570449 ,Left ,57,7849854315824 ,47,4758711296689 ,15,8840142871833
14.5720445 ,Left ,57,7909144044322 ,47,4798608120347 ,15,9139675579102
14.594431 ,Left ,57,7651768073247 ,47,5105312845512 ,15,943573482936
14.6169107 ,Left ,57,6951080245641 ,47,488834852599 ,15,9748903360586
14.6317592 ,Left ,57,6401328119564 ,47,4530582682204 ,15,9939424920741
14.654381 ,Left ,57,6668234750686 ,47,4761605383244 ,15,9640969670691
14.6769213 ,Left ,57,5739845384414 ,47,5623044054407 ,15,9151246254944
14.6918143 ,Left ,57,4273842327923 ,47,6366574557389 ,15,8855032036063
14.7146233 ,Left ,57,3298333529886 ,47,671926806157 ,15,864602024497
14.7445688 ,Left ,57,3016515224382 ,47,6551795460317 ,15,8513998563495
14.7670589 ,Left ,57,2996477125531 ,47,6422301022388 ,15,8115479432708
14.7821228 ,Left ,57,2943060382601 ,47,6648212889601 ,15,7381692219178
14.8121289 ,Left ,57,0985249829028 ,47,8091030646979 ,15,496486625169
14.8347306 ,Left ,56,9911082845251 ,47,896424384054 ,15,3651332138751
14.8571926 ,Left ,56,858891301831 ,47,9837226979381 ,15,2270434233178
14.8719194 ,Left ,56,7256487640443 ,48,0460630430727 ,15,0866745263381
14.8946058 ,Left ,56,5962349502702 ,48,0983817991567 ,14,9372703409085
14.9170618 ,Left ,56,4831087618915 ,48,1633169184899 ,14,8061091358282
14.9395191 ,Left ,56,3546772288251 ,48,2313344404639 ,14,6789003198601
14.9545664 ,Left ,56,2428995532478 ,48,2797683299139 ,14,5488686232321
14.9771803 ,Left ,56,1530263618238 ,48,2936293030817 ,14,4099577507303
14.999727 ,Left ,56,0961711216777 ,48,320583137015 ,14,2745573450404
15.0146582 ,Left ,56,0418637359755 ,48,350603972704 ,14,1677018791846
15.0371819 ,Left ,55,9868734964234 ,48,3845554421046 ,14,1028049160853
15.0596939 ,Left ,55,9144058859785 ,48,3554754347911 ,14,0657822056877
15.0745049 ,Left ,55,9509629678974 ,48,2678170123676 ,14,0664967151106
15.0971964 ,Left ,56,0035601176086 ,48,250050264295 ,14,113054404685
15.1195401 ,Left ,55,9727590768998 ,48,2868424017726 ,14,1835225472594
15.1344942 ,Left ,55,9785388672049 ,48,2022279786724 ,14,289562740158
15.1571535 ,Left ,56,1206191275177 ,48,0261558301059 ,14,4129088215275
15.1796189 ,Left ,56,3371337733398 ,47,8347846839593 ,14,5285257126813
15.1944835 ,Left ,56,5680065787352 ,47,7059607878874 ,14,6084881873891
15.2171589 ,Left ,56,7113029813585 ,47,680574338136 ,14,71222616651
15.2395812 ,Left ,56,6984458148536 ,47,7170336009211 ,14,796413559146
15.254618 ,Left ,56,7089790040277 ,47,7263534791751 ,14,844783907788
15.2771859 ,Left ,56,7868994440616 ,47,6860427220016 ,14,9238238303465
15.2995606 ,Left ,56,9527495465085 ,47,6838026930002 ,14,9866504206352
15.3146256 ,Left ,57,0507531887253 ,47,7174662345544 ,15,046272884272
15.3371365 ,Left ,57,1231827623149 ,47,7429020220974 ,15,1096679811703
15.3596161 ,Left ,57,1693754889587 ,47,6973644038578 ,15,1910901373075
15.3747346 ,Left ,57,2814423948521 ,47,6541766390205 ,15,2800570587878
15.3969148 ,Left ,57,3540054201409 ,47,6218079873446 ,15,3711720180356
15.4194868 ,Left ,57,4147670705674 ,47,6005872063948 ,15,4853155502259
15.4344305 ,Left ,57,4885785983477 ,47,5537096908942 ,15,6155804157804
15.4567915 ,Left ,57,5534844303309 ,47,4809847726844 ,15,7397870697488
15.4870424 ,Left ,57,640088555642 ,47,4176936972477 ,15,8336578446803
15.5021301 ,Left ,57,7359932401259 ,47,3585318472449 ,15,9235685589097
15.5245066 ,Left ,57,8290496542408 ,47,3022682333589 ,16,014384814156
15.5541989 ,Left ,57,9940185604263 ,47,1957856258623 ,16,1552084121757
15.5769771 ,Left ,58,0496344831153 ,47,2005108960127 ,16,2302801744784
15.6000229 ,Left ,58,1370031706197 ,47,1785953499857 ,16,2863720902253
15.6150512 ,Left ,58,1737982191653 ,47,1192666565942 ,16,3060802199247
15.6376042 ,Left ,58,2435299262594 ,47,0721572720952 ,16,299300938533
15.6599939 ,Left ,58,3014672482457 ,47,0667902256655 ,16,2970664206877
15.6746962 ,Left ,58,3418106840659 ,47,1103326742254 ,16,3303454083182
15.6970778 ,Left ,58,3387927896753 ,47,1367454696702 ,16,390076029534
15.7195047 ,Left ,58,3645002521265 ,47,1451229907808 ,16,4331128384195
15.7342848 ,Left ,58,3775461141548 ,47,1632976529495 ,16,4740080787078
15.7570176 ,Left ,58,4030851509187 ,47,2002643590167 ,16,5209804106678
15.7792282 ,Left ,58,4148081263538 ,47,2363361226302 ,16,5658389380303
15.7949558 ,Left ,58,4878355647341 ,47,2850873825915 ,16,6094177401115
15.8175496 ,Left ,58,5126930732031 ,47,283141207965 ,16,6417700068034
15.8399137 ,Left ,58,5623800505479 ,47,2760474426099 ,16,6659007113439
15.855061 ,Left ,58,6385072458317 ,47,2725092002533 ,16,6936729774828
15.8773125 ,Left ,58,6505961030267 ,47,2701150752411 ,16,7228635964679
15.8995146 ,Left ,58,6338412721872 ,47,2750210751103 ,16,7736363943095
15.9146114 ,Left ,58,6387863022124 ,47,2923069066254 ,16,8323178310658
15.9371276 ,Left ,58,6276975598702 ,47,3203500632085 ,16,8805941233265
15.9596409 ,Left ,58,5931734136792 ,47,3679373559713 ,16,9412418835247
15.974373 ,Left ,58,5828282657293 ,47,4149943146662 ,16,9804605353238
15.9971245 ,Left ,58,5749428040823 ,47,447777056271 ,17,0015730677367
16.0194839 ,Left ,58,5753479838982 ,47,4667151737549 ,16,9927977938469
16.0419742 ,Left ,58,5824891977115 ,47,4868877598575 ,16,9666839405248
16.0570094 ,Left ,58,5975510811659 ,47,4991594789341 ,16,9422519113143
16.0794142 ,Left ,58,5757928935588 ,47,5102889129498 ,16,9195135921282
16.1018788 ,Left ,58,5754002534757 ,47,5381171621493 ,16,8988911395659
16.1171271 ,Left ,58,5418774754192 ,47,5267500147905 ,16,8888506083306
16.1395267 ,Left ,58,5465059134521 ,47,5189320603081 ,16,8532021572348
16.1620195 ,Left ,58,5572974842095 ,47,5216070105413 ,16,8247555607806
16.1771402 ,Left ,58,5413224658729 ,47,560980970046 ,16,8180158866912
16.1995626 ,Left ,58,5409358632049 ,47,5654192709826 ,16,8120915832212
16.2221602 ,Left ,58,5438178816982 ,47,5526044171997 ,16,7966763858367
16.2372422 ,Left ,58,5791095452582 ,47,5416130693662 ,16,7787562276221
16.2595563 ,Left ,58,5944263609978 ,47,5246754642468 ,16,7672781085108
16.2820107 ,Left ,58,5953664214648 ,47,5220772951447 ,16,766170380145
16.2968416 ,Left ,58,5880758236271 ,47,5219422595898 ,16,765875716911
16.3195082 ,Left ,58,5730085597947 ,47,5244041995863 ,16,7640709652611
16.3417943 ,Left ,58,5730085597947 ,47,5244041995863 ,16,7640709652611
16.3568195 ,Left ,58,5644847433667 ,47,5198545270047 ,16,7509433735682
16.3794364 ,Left ,58,5582696520671 ,47,4989403714129 ,16,7340736207379
16.4020987 ,Left ,58,5441104615407 ,47,4967999359163 ,16,7242705224316
16.4171021 ,Left ,58,4975197156088 ,47,5133035709261 ,16,7296557133689
16.4396391 ,Left ,58,4639159135016 ,47,5406989605857 ,16,7351882261556
16.4621288 ,Left ,58,4158665233379 ,47,5812900583005 ,16,733531693545
16.4771299 ,Left ,58,3271419582227 ,47,533647794989 ,16,7300837730041
16.4994823 ,Left ,58,3897499519325 ,47,5124899234496 ,16,7535863458955
16.5220114 ,Left ,58,3371936961461 ,47,6641350447595 ,16,7589348864198
16.5370544 ,Left ,58,2288799201619 ,47,8163959363342 ,16,7428922478153
16.559523 ,Left ,58,1467519129257 ,47,8294486210312 ,16,6844218749187
16.5826483 ,Left ,58,1267808200192 ,47,7478635299191 ,16,6047728283417
16.597409 ,Left ,58,1672257643096 ,47,6779467120797 ,16,5050751824326
16.6201082 ,Left ,58,1911600231861 ,47,6517052951112 ,16,4023400868687
16.6424158 ,Left ,58,1878456175806 ,47,6439270524493 ,16,290261754146
16.6573208 ,Left ,58,1617146525096 ,47,6313029848077 ,16,1842870237557
16.679594 ,Left ,58,1334556709786 ,47,6328654577861 ,16,1035467049617
16.702208 ,Left ,58,0707603091731 ,47,6690682342304 ,16,054812413603
16.7169923 ,Left ,58,0110989926438 ,47,7159307428917 ,16,0417899016285
16.7394986 ,Left ,57,9437241643097 ,47,663018105543 ,16,0099902399381
16.7618958 ,Left ,57,9054579621171 ,47,5893508527037 ,15,9939734858175
16.7767411 ,Left ,58,0450078547474 ,47,5646750281188 ,15,9882843572365
16.7993122 ,Left ,58,0403544664725 ,47,6091829623191 ,15,9858556493387
16.8217835 ,Left ,57,9836988831017 ,47,6246900076278 ,15,9787835711063
16.8367331 ,Left ,57,9646631102284 ,47,6004473561259 ,15,9588947338779
16.8592951 ,Left ,57,9211139192006 ,47,5728081371986 ,15,9430080307704
16.8817891 ,Left ,57,9170976116557 ,47,5886935081307 ,15,9272192013124
16.8967934 ,Left ,57,8443506812269 ,47,5913909935637 ,15,925558942531
16.9194883 ,Left ,57,7432524809131 ,47,5786752071326 ,15,8991881265275
16.941885 ,Left ,57,7785002746141 ,47,5981401595563 ,15,8887569856278
16.9566735 ,Left ,57,7489977730437 ,47,6770123337957 ,15,892381336448
16.9794481 ,Left ,57,6904241860461 ,47,7037905462078 ,15,9046805708879
17.0018623 ,Left ,57,6233328742946 ,47,6906032932871 ,15,9083223633384
17.0243617 ,Left ,57,598751802495 ,47,668942737724 ,15,8809254106395
17.0393539 ,Left ,57,6040120449699 ,47,6552925912612 ,15,8540811831533
17.0620535 ,Left ,57,5808311543243 ,47,6565608954263 ,15,8481795100305
17.0847523 ,Left ,57,5563975641742 ,47,6606466989389 ,15,8660163062623
17.0995634 ,Left ,57,5626536228373 ,47,6558797532198 ,15,8944061838777
17.1221138 ,Left ,57,5091725590033 ,47,6960206035792 ,15,9553533207506
17.1443263 ,Left ,57,447442547442 ,47,7058682850883 ,15,9963947580332
17.1593746 ,Left ,57,4089710347284 ,47,7075795742434 ,15,9853733615183
17.1820536 ,Left ,57,4244860798911 ,47,7172332044644 ,15,968378244219
17.2042666 ,Left ,57,4015246422042 ,47,76787657768 ,15,9374472265047
17.2193926 ,Left ,57,3672846376136 ,47,8402102620011 ,15,9074722619161
17.2417754 ,Left ,57,3450096963618 ,47,8705441262503 ,15,8833351277901
17.2645172 ,Left ,57,3691284774828 ,47,8545068339989 ,15,8604459000121
17.2795198 ,Left ,57,3707350618966 ,47,8374713539052 ,15,8023784800445
17.3023819 ,Left ,57,3512950650807 ,47,8267695455521 ,15,7228015216899
17.3247934 ,Left ,57,2903405245449 ,47,8784360335661 ,15,6299987940857
17.3396284 ,Left ,57,1747838426729 ,47,9609910176127 ,15,5292657880089
17.35472 ,Left ,57,0492499339664 ,48,0440291368062 ,15,4090470932244
17.3773066 ,Left ,56,9489103318253 ,48,0822631043421 ,15,2931379320182
17.4148203 ,Left ,56,8179908166482 ,48,1123854391973 ,15,0552661367125
17.4372904 ,Left ,56,7117286027301 ,48,1522358475638 ,14,9173813783143
17.4749311 ,Left ,56,4858125494836 ,48,2197385143258 ,14,6531157047005
17.4898038 ,Left ,56,3960182321903 ,48,2281331653753 ,14,5447465793534
17.5119925 ,Left ,56,3184620780694 ,48,2592426399455 ,14,4621412363116
17.5282129 ,Left ,56,2355599913429 ,48,3018877804429 ,14,3873144718274
17.5499952 ,Left ,56,075590451379 ,48,2930251079805 ,14,3177196190147
17.5727533 ,Left ,55,9622485436291 ,48,258948345048 ,14,2559607525309
17.5875675 ,Left ,55,9533968830714 ,48,2390884353814 ,14,2053818538383
17.6100433 ,Left ,55,9382638759711 ,48,3690204641006 ,14,1735179683642
17.6320406 ,Left ,55,895751434521 ,48,3612110249869 ,14,143257454378
17.6470806 ,Left ,55,8649795855576 ,48,2274211910607 ,14,1757749791208
17.6695981 ,Left ,55,9141744687628 ,48,1250557487458 ,14,2458453168585
17.6923351 ,Left ,55,9373055136877 ,47,8871428327798 ,14,3527450625566
17.7070666 ,Left ,56,117082176072 ,47,7223184201913 ,14,4746518234363
17.7296459 ,Left ,56,3495249545069 ,47,4903255248356 ,14,6012394374501
17.7522093 ,Left ,56,6222608846222 ,47,3782383245483 ,14,6907194510299
17.7671638 ,Left ,56,7229822973262 ,47,4236013167268 ,14,7791233407668
17.7895536 ,Left ,56,6995165106691 ,47,5126363756773 ,14,8778888084981
17.8122034 ,Left ,56,7312529543058 ,47,5173078503098 ,14,9615782375508
17.8270578 ,Left ,56,8011151541184 ,47,2128972128977 ,15,0203101840635
17.8495698 ,Left ,56,9047260115157 ,47,0260142889704 ,15,0841221675603
17.8720949 ,Left ,57,1887581641722 ,47,0414045896085 ,15,1462355352866
17.8946549 ,Left ,57,2681891825538 ,47,0810900236923 ,15,245487581462
17.9095682 ,Left ,57,2854750238801 ,47,1000320205589 ,15,3446722294439
17.9320718 ,Left ,57,3514958781913 ,47,1066442614102 ,15,4417094435606
17.9543006 ,Left ,57,4029796520208 ,47,0834964875514 ,15,5431797505644
17.9691814 ,Left ,57,4665904494866 ,47,0622961985984 ,15,6547567425239
17.9920386 ,Left ,57,5447907320774 ,47,0212862581785 ,15,778875892562
18.0145613 ,Left ,57,6006028601726 ,46,9744076084291 ,15,8956799200829
18.0295201 ,Left ,57,6662053677525 ,46,9371124018359 ,15,9962122639988
18.0521717 ,Left ,57,7354952798527 ,46,9084891921629 ,16,0830559837481
18.0746237 ,Left ,57,7954393851346 ,46,8758226781603 ,16,1536096341978
18.0895364 ,Left ,57,858289052213 ,46,8462962020806 ,16,1919562091011
18.1118623 ,Left ,57,899399232688 ,46,8456205927889 ,16,236488870369
18.1343617 ,Left ,57,9553774706664 ,46,8367810215163 ,16,2861461094011
18.149378 ,Left ,57,9999094176466 ,46,8295680349186 ,16,3221875254941
18.1725502 ,Left ,58,0503960854325 ,46,8394203445103 ,16,3277629241954
18.1949722 ,Left ,58,0992905631097 ,46,8421332396715 ,16,3379054323139
18.2100533 ,Left ,58,1157758802719 ,46,863026402027 ,16,3422933024672
18.2322255 ,Left ,58,1288749019946 ,46,9040993488167 ,16,3477118999995
18.2546719 ,Left ,58,134922968127 ,46,9644811833166 ,16,3697324532416
18.2696901 ,Left ,58,1248371914294 ,46,9904198797603 ,16,4010490449188
18.2922715 ,Left ,58,1126155719961 ,47,0082412474998 ,16,4335222961726
18.3147212 ,Left ,58,1380538365293 ,47,0050153171923 ,16,4545703530781
18.3296918 ,Left ,58,1654798715339 ,46,9793172449404 ,16,4774585487378
18.3522225 ,Left ,58,1895957118427 ,46,9952076030467 ,16,4985534104117
18.3745732 ,Left ,58,2539795984134 ,47,0245331647894 ,16,5186318317309
18.4117714 ,Left ,58,1861985618723 ,47,0676498972967 ,16,5675113949732
18.4344987 ,Left ,58,1820527580753 ,47,137079322802 ,16,5949183911797
18.4724988 ,Left ,58,1141281543707 ,47,2069061683235 ,16,6547332738744
18.4950925 ,Left ,58,1135501090294 ,47,2228543091847 ,16,6567391603372
18.5323809 ,Left ,58,1376034990206 ,47,252698925333 ,16,6631892743364
18.554917 ,Left ,58,1457045397158 ,47,2747891811382 ,16,6647995721944
18.5922893 ,Left ,58,1125430945553 ,47,2676818948288 ,16,6551015451832
18.6147567 ,Left ,58,1298301070697 ,47,2784139769567 ,16,6466022184988
18.6592031 ,Left ,58,1098856659985 ,47,2794696680124 ,16,6508590635735
18.6816651 ,Left ,58,1111363275914 ,47,2906966942655 ,16,6498474356226
18.7345442 ,Left ,58,0972847764993 ,47,347701470518 ,16,6327741313108
18.7717964 ,Left ,58,0344551960129 ,47,5738486500769 ,16,5762357951016
18.7945343 ,Left ,58,014107959902 ,47,5435858699527 ,16,525014970711
18.8319203 ,Left ,58,0716404691215 ,47,4812161677112 ,16,3012346008712
18.8545092 ,Left ,58,0687211260308 ,47,497942435659 ,16,1901114799554
18.8922647 ,Left ,57,9896296172466 ,47,5540939120114 ,15,9763116702416
18.9145176 ,Left ,57,9107209122806 ,47,5867222892282 ,15,9239192159548
18.9520031 ,Left ,57,793357381976 ,47,5680525734532 ,15,8620610634733
18.9745652 ,Left ,57,7946620123296 ,47,4422519423633 ,15,8412267826142
19.0119356 ,Left ,57,9450359816042 ,47,4070702048312 ,15,8453402377251
19.0347322 ,Left ,57,8770923842996 ,47,4429188885695 ,15,8595345824675
19.0718427 ,Left ,57,8142071589948 ,47,5137093118341 ,15,8459845174141
19.0943718 ,Left ,57,7708657258381 ,47,5694924149002 ,15,8615740416412
19.1326281 ,Left ,57,7467245445661 ,47,4620599526488 ,15,8732365629706
19.1553333 ,Left ,57,8201271687632 ,47,4483359770167 ,15,8734088321848
19.1926661 ,Left ,57,7820212720335 ,47,4783882362879 ,15,8498752703305
19.2148748 ,Left ,57,7456770555525 ,47,5046425341591 ,15,8214290390635
19.2294545 ,Left ,57,7269076677096 ,47,5456847564792 ,15,8015760414448
19.2443902 ,Left ,57,668460274841 ,47,5691188091053 ,15,8088489731846
19.26704 ,Left ,57,6514405488829 ,47,6032980578432 ,15,8014681592579
19.2895744 ,Left ,57,5848662607256 ,47,6441879348699 ,15,7960878084821
19.304396 ,Left ,57,485244734231 ,47,6688430116474 ,15,791417080766
19.3272472 ,Left ,57,4361622175165 ,47,6424798387985 ,15,7404395378606
19.3496276 ,Left ,57,4143957873472 ,47,6178124328001 ,15,6606667081304
19.3647095 ,Left ,57,3697818276336 ,47,6772631880698 ,15,6145999572642
19.387069 ,Left ,57,269776589762 ,47,760313643262 ,15,5834452455837
19.4093541 ,Left ,57,1987919825013 ,47,821402590261 ,15,5506813493469
19.4243535 ,Left ,57,1649625939836 ,47,8579754020687 ,15,4979363255244
19.4469619 ,Left ,57,1280449048366 ,47,8506926788588 ,15,4304942447515
19.4774216 ,Left ,57,0913781451129 ,47,9025394762224 ,15,3495880287185
19.492292 ,Left ,56,9499227086153 ,47,978677987885 ,15,2415617537249
19.5151145 ,Left ,56,8150026214574 ,48,0496900147008 ,15,1261206465179
19.5446835 ,Left ,56,5716968115213 ,48,1712200644289 ,14,889420925403
19.5675998 ,Left ,56,4644231720208 ,48,2169928104278 ,14,7968623739673
19.5898127 ,Left ,56,3714196620667 ,48,262580644279 ,14,7182257577652
19.6048713 ,Left ,56,1945554118971 ,48,2316414393251 ,14,576089854692
19.6273302 ,Left ,56,0666905392348 ,48,0971459197984 ,14,4410039154145
19.6499732 ,Left ,55,9462685377822 ,47,9676524553566 ,14,3344960053383
19.6723484 ,Left ,55,9212424862358 ,48,1222914413825 ,14,2326399482937
19.687476 ,Left ,55,9701831044322 ,47,9683515998018 ,14,1375135694997
19.7096832 ,Left ,55,9209752329593 ,48,0566172633177 ,14,0725997991282
19.7323012 ,Left ,55,9718364485286 ,48,0236900950799 ,14,0600092598302
19.7471114 ,Left ,55,9297900707564 ,48,0123392589694 ,14,0961048480719
19.7696589 ,Left ,55,932850466497 ,48,0958085104959 ,14,0760346311849
19.7847937 ,Left ,55,8693706007849 ,47,9063325883237 ,14,0860426725686
19.8072734 ,Left ,55,9478899221634 ,48,1135786643913 ,14,1517933000112
19.8371146 ,Left ,55,9287234033331 ,47,9730163274832 ,14,238503286931
19.8596209 ,Left ,55,9442040988501 ,48,0837393259517 ,14,3488511805065
19.8747928 ,Left ,56,087585743431 ,47,7995966890983 ,14,4790318538377
19.8896427 ,Left ,56,2559440585076 ,47,5730594784629 ,14,6183962989675
19.9122479 ,Left ,56,5167454381085 ,47,4426824787611 ,14,6921548383424
19.9270755 ,Left ,56,7210802178069 ,47,3642985903696 ,14,7722704393622
19.9497095 ,Left ,56,7724012350257 ,47,4093328774489 ,14,8655937525784
19.9720666 ,Left ,56,7780218535987 ,47,4704918181249 ,14,9532853986777
19.987103 ,Left ,56,811520828309 ,47,4056984435782 ,15,0436282039085
20.0096414 ,Left ,56,884530804883 ,47,3029066833594 ,15,1211368572415
20.0323232 ,Left ,57,1970661070437 ,47,2745980817744 ,15,1737465812451
20.0470338 ,Left ,57,3526972620664 ,47,3425904164392 ,15,2024876402866
20.0696524 ,Left ,57,3515905845575 ,47,3714230687047 ,15,2614207167122
20.0923334 ,Left ,57,3670690311769 ,47,3561182835459 ,15,3272378086581
20.1147595 ,Left ,57,4077398874176 ,47,3473552830079 ,15,4342108617849
20.1295123 ,Left ,57,4543630984805 ,47,3541281354455 ,15,5754891942462
20.1522751 ,Left ,57,5211848829279 ,47,3345719107692 ,15,7543787701635
20.1670887 ,Left ,57,5709132681153 ,47,3092549744014 ,15,9210983968877
20.1895359 ,Left ,57,6432469682758 ,47,2939480118484 ,16,0919999105325
20.2122059 ,Left ,57,7458550375491 ,47,2441458586352 ,16,2185890353189
20.2270967 ,Left ,57,8426480043362 ,47,2040783200019 ,16,2963984471818
20.2496695 ,Left ,57,9441560379973 ,47,1798747070244 ,16,3410675703287
20.2722001 ,Left ,58,0271460076184 ,47,1695833111948 ,16,3828345198646
20.2872552 ,Left ,58,0925841630853 ,47,182783308538 ,16,445855094086
20.309518 ,Left ,58,134222483603 ,47,1861759344404 ,16,5194183146387
20.3322782 ,Left ,58,1640616804615 ,47,1809352824572 ,16,5623916088272
20.3465757 ,Left ,58,2129407393673 ,47,1807714506406 ,16,588000218923
20.3691518 ,Left ,58,2453119455863 ,47,1744632140682 ,16,5989201649581
20.3918625 ,Left ,58,2673607777609 ,47,1677081425889 ,16,593097113931
20.406736 ,Left ,58,2858986120738 ,47,1720268502769 ,16,5885809806821
20.4294287 ,Left ,58,2878617790116 ,47,2094161236981 ,16,5904620971578
20.451937 ,Left ,58,2790124173604 ,47,2462299707275 ,16,6066180318545
20.4669844 ,Left ,58,2765516026144 ,47,2483653145684 ,16,6271858731028
20.4893729 ,Left ,58,2914184466784 ,47,2535915739927 ,16,6260285098675
20.5126116 ,Left ,58,3604082887773 ,47,2365543897544 ,16,6303050138658
20.5273499 ,Left ,58,3793089803063 ,47,2491336601668 ,16,6358783562695
20.5500443 ,Left ,58,3773448711924 ,47,2825519568222 ,16,6428532929809
20.572252 ,Left ,58,411636371558 ,47,3038367408946 ,16,6567688080866
20.5872579 ,Left ,58,4628339591054 ,47,2948869419748 ,16,6555558653793
20.6097435 ,Left ,58,5207385598835 ,47,2640120245538 ,16,6441502357188
20.6324557 ,Left ,58,5952521227579 ,47,2535998793397 ,16,639155192012
20.6548124 ,Left ,58,6393774884214 ,47,2838558368861 ,16,6577452015066
20.6692242 ,Left ,58,6463218337711 ,47,3251951963438 ,16,6876098135328
20.6918937 ,Left ,58,6130632549213 ,47,3348677554582 ,16,7123985980337
20.7069619 ,Left ,58,6062938881453 ,47,3517153014129 ,16,715404512723
20.729301 ,Left ,58,5967690332535 ,47,3944835200242 ,16,7072860231129
20.7518807 ,Left ,58,5845264898541 ,47,4351880646231 ,16,7108977569756
20.7668902 ,Left ,58,52839871712 ,47,4645085918757 ,16,7242562364822
20.7894591 ,Left ,58,4846581187934 ,47,4998949563574 ,16,7233107071895
20.8121408 ,Left ,58,42862463119 ,47,5393583249203 ,16,718105509073
20.8343088 ,Left ,58,3769691069909 ,47,5898001957151 ,16,721486047917
20.8493689 ,Left ,58,3467043073253 ,47,6141671472894 ,16,7004168058573
20.8718502 ,Left ,58,3182651856379 ,47,5903209081927 ,16,6904232954648
20.894581 ,Left ,58,3152092556305 ,47,5835047786944 ,16,7040319916241
20.9095759 ,Left ,58,3200433922007 ,47,6006391404522 ,16,728382631907
20.9318269 ,Left ,58,3665679225743 ,47,5771777892 ,16,7072660939738
20.9542221 ,Left ,58,3780267044476 ,47,5104075178478 ,16,6406086245316
20.9694702 ,Left ,58,3961702085377 ,47,5038938856129 ,16,620101970724
20.9926158 ,Left ,58,3676900357285 ,47,6134749401361 ,16,618191961797
21.015008 ,Left ,58,2835281653188 ,47,7085080590592 ,16,6046470211183
21.0301315 ,Left ,58,2614828641267 ,47,7211700888619 ,16,5594133727598
21.052779 ,Left ,58,2689898453903 ,47,6432343202061 ,16,5003412471139
21.0750515 ,Left ,58,3192782771406 ,47,5758403878868 ,16,4141133385122
21.0894615 ,Left ,58,3399795548449 ,47,5948187674559 ,16,3065009011997
21.112701 ,Left ,58,2967798374532 ,47,624138168097 ,16,2018905145239
21.1352046 ,Left ,58,2349876359794 ,47,6307481820632 ,16,1086274124426
21.1495226 ,Left ,58,2068775900105 ,47,6239533815528 ,16,0251288577399
21.1719168 ,Left ,58,164935368184 ,47,6112354293436 ,15,9572623504438
21.1943585 ,Left ,58,1240726723947 ,47,6001630972853 ,15,9187648694346
21.2093994 ,Left ,58,1178579279376 ,47,5754336935399 ,15,913761476061
21.2318856 ,Left ,58,1227171170819 ,47,5135845886929 ,15,9301227416003
21.2543805 ,Left ,58,1794786766524 ,47,4509381059065 ,15,9564843374733
21.2694397 ,Left ,58,2424968319682 ,47,4061715622048 ,15,972472506614
21.2920832 ,Left ,58,2762408306971 ,47,4022770672908 ,15,9818543215162
21.3145974 ,Left ,58,2911570712638 ,47,3906307405492 ,15,985045334842
21.3294442 ,Left ,58,2922493199237 ,47,383805067082 ,15,9825768306237
21.3521013 ,Left ,58,3113813639873 ,47,3839715438997 ,15,9916527094073
21.3746396 ,Left ,58,3072415171341 ,47,3658904697373 ,16,0064155033921
21.3895203 ,Left ,58,3247714024274 ,47,353766701218 ,16,0130276205057
21.4118982 ,Left ,58,3257018534208 ,47,3554078131597 ,16,0133063115016
21.4421643 ,Left ,58,2936520669475 ,47,3765237974048 ,16,0338969821183
21.4570047 ,Left ,58,2522387780408 ,47,4363494149806 ,16,0485749648586
21.4794084 ,Left ,58,1711314243644 ,47,4722546513343 ,16,0818585521319
21.494923 ,Left ,58,1319564628255 ,47,5115350977356 ,16,0857785811294
21.5099276 ,Left ,58,0626019039737 ,47,475539929851 ,16,071782332787
21.5325085 ,Left ,58,0019113036854 ,47,3732750910927 ,16,0491408079203
21.5546321 ,Left ,58,1088488865777 ,47,3855217477372 ,16,0567483706219
21.5770393 ,Left ,58,0714680790217 ,47,5516619672861 ,16,0736051042101
21.5995675 ,Left ,57,9577997510966 ,47,6369477311714 ,16,0881192534819
21.6369951 ,Left ,57,9409692810312 ,47,5294814097308 ,16,0370545555443
21.6520286 ,Left ,57,9809428607577 ,47,5007348779569 ,15,9966984512067
21.6746103 ,Left ,57,9725474761893 ,47,49146557694 ,15,9743877865817
21.6895832 ,Left ,57,9381329741103 ,47,5111201046649 ,15,966422740242
21.7117927 ,Left ,57,8591821579954 ,47,5178526975854 ,15,9784944007186
21.7342576 ,Left ,57,788680767871 ,47,4545773435096 ,15,9899383672994
21.7570565 ,Left ,57,9118830912005 ,47,4178751353645 ,16,0092656016357
21.7720546 ,Left ,57,9559603809636 ,47,4780935504089 ,16,0133149131735
21.7951497 ,Left ,57,9141960455986 ,47,5378909381463 ,16,0215193648225
21.8175575 ,Left ,57,8814627506939 ,47,5604014367752 ,16,0073565348733
21.8326066 ,Left ,57,8281683319505 ,47,5674669610072 ,15,9849486144073
21.8550609 ,Left ,57,8424396023707 ,47,6039460755315 ,15,9718680066088
21.8774689 ,Left ,57,8018579984059 ,47,644458168102 ,15,9820874341418
21.8927004 ,Left ,57,7696560347488 ,47,6860159967659 ,15,9946695903224
21.9225225 ,Left ,57,7181250425039 ,47,7351318392143 ,16,0031817207065
21.9450613 ,Left ,57,5871985979117 ,47,7063690214588 ,16,0453541231791
21.9600609 ,Left ,57,540552344579 ,47,6632870926083 ,16,0740060087225
21.9750699 ,Left ,57,5799310856547 ,47,6628840912372 ,16,04524264464
21.9971858 ,Left ,57,5137866003303 ,47,7368443518797 ,15,9789240479552
22.0121977 ,Left ,57,4322214084905 ,47,800312983975 ,15,9298045578032
22.0422799 ,Left ,57,3826532218998 ,47,823320158077 ,15,8970867578598
22.064749 ,Left ,57,3524205453084 ,47,798124457379 ,15,8528169225593
22.0796437 ,Left ,57,3600351706334 ,47,7740504042976 ,15,767630894285
22.0947355 ,Left ,57,3269154115919 ,47,7690022738904 ,15,6278360750413
22.1169985 ,Left ,57,2633233878169 ,47,8045705539795 ,15,4648541486881
22.131821 ,Left ,57,135350887108 ,47,9042545312991 ,15,3040877310563
22.1544306 ,Left ,56,9741850009354 ,48,0175747850616 ,15,1612787450819
22.1769182 ,Left ,56,8243866889643 ,48,101231993057 ,15,023603581835
22.1923416 ,Left ,56,6840897607452 ,48,1534091420018 ,14,8884834648879
22.2222382 ,Left ,56,5675240216694 ,48,1847206282532 ,14,7573000818309
22.2447888 ,Left ,56,4591558690521 ,48,2292164524625 ,14,6511138667496
22.25954 ,Left ,56,3461307300868 ,48,2734007771563 ,14,5328916482332
22.2818021 ,Left ,56,2575371748556 ,48,3116886632736 ,14,4218308121534
22.297039 ,Left ,56,170302036352 ,48,3302860975946 ,14,3051306910141
22.3193793 ,Left ,56,0748184497388 ,48,3600218899146 ,14,1610936658209
22.3343021 ,Left ,55,9850089338389 ,48,3855942068526 ,14,0519119197223
22.3566705 ,Left ,55,9058885383941 ,48,411437393337 ,13,963898664558
22.3800906 ,Left ,55,8576184637742 ,48,4462423183313 ,13,8859724929731
22.3951332 ,Left ,55,8176930461697 ,48,467767902305 ,13,8413548032832
22.4174166 ,Left ,55,7860996953395 ,48,4307009914567 ,13,8099102239293
22.4394773 ,Left ,55,816771764526 ,48,3318350746814 ,13,8392372604003
22.454504 ,Left ,55,9557007409497 ,48,2752562989886 ,13,9085026248143
22.4771657 ,Left ,56,0172716726048 ,48,2977392193342 ,13,9918775160329
22.4995113 ,Left ,56,0603115380597 ,48,2606257105987 ,14,0783781947767
22.5221271 ,Left ,56,1750807499143 ,48,0861513640361 ,14,2015524254073
22.5445207 ,Left ,56,3909010133335 ,47,8720918961108 ,14,3299705949256
22.5670638 ,Left ,56,6727261805713 ,47,7008419825566 ,14,3970450558909
22.5821797 ,Left ,56,851112325921 ,47,600139828806 ,14,4874901766552
22.5970126 ,Left ,56,8778425702986 ,47,6604148657545 ,14,6225837113019
22.6268077 ,Left ,56,8501494490341 ,47,7838282035548 ,14,7407277225325
22.642124 ,Left ,56,869452277746 ,47,7519752745224 ,14,8279053874858
22.6645795 ,Left ,56,9917925184108 ,47,5909836403097 ,14,9157190639495
22.6795453 ,Left ,57,2443579978702 ,47,4301620350115 ,14,9593123895976
22.6945394 ,Left ,57,4815138790034 ,47,402954261845 ,14,9969881937678
22.7170982 ,Left ,57,4981539086958 ,47,4672703844399 ,15,053552533973
22.7394308 ,Left ,57,4764948820643 ,47,5078975779694 ,15,1421178128733
22.7621547 ,Left ,57,48798970129 ,47,5037525829775 ,15,2397779588967
22.7846445 ,Left ,57,5601020484754 ,47,478826540893 ,15,3432566104217
22.8219861 ,Left ,57,7121689273457 ,47,432748667424 ,15,6024842702432
22.8446237 ,Left ,57,8126323963307 ,47,3888356647415 ,15,7577837181547
22.8670889 ,Left ,57,9122282511159 ,47,3292513580441 ,15,9097564359566
22.8820315 ,Left ,58,0145535025143 ,47,27306072831 ,16,0341777668248
22.8970241 ,Left ,58,1060824265369 ,47,2382352577649 ,16,1275365022423
22.9193489 ,Left ,58,1793517150503 ,47,2213086170512 ,16,2169363270569
22.9342456 ,Left ,58,2464406485899 ,47,2224507003001 ,16,3016175966563
22.9570611 ,Left ,58,2890315063425 ,47,2193774580518 ,16,3719914665136
22.9794255 ,Left ,58,3470751219266 ,47,2107300830196 ,16,4385655119799
22.9944725 ,Left ,58,4138528406352 ,47,2050782716153 ,16,4918047159517
23.0170023 ,Left ,58,4507835163509 ,47,1876777842293 ,16,5223860797568
23.0393981 ,Left ,58,490845791639 ,47,1733890681602 ,16,5370267457401
23.0620402 ,Left ,58,532867432113 ,47,1837531424694 ,16,5495271133508
23.0843658 ,Left ,58,5532672711859 ,47,2130437656392 ,16,5707748074602
23.121773 ,Left ,58,5776488121374 ,47,2684752308902 ,16,6113498255874
23.1444191 ,Left ,58,582121826676 ,47,2801367940273 ,16,617213361896
23.1596362 ,Left ,58,5915976695881 ,47,2847325402807 ,16,6140700539003
23.1969843 ,Left ,58,6341736027418 ,47,2860866853372 ,16,6032197079406
23.2194427 ,Left ,58,657183269524 ,47,2857278761306 ,16,5980605914062
23.2345418 ,Left ,58,6758061825859 ,47,286748709936 ,16,5816179520413
23.2499151 ,Left ,58,6893086830252 ,47,2953567644111 ,16,5733932546471
23.2876355 ,Left ,58,7634753787243 ,47,2812716432305 ,16,5681575387555
23.3101094 ,Left ,58,7947995447622 ,47,2622089888592 ,16,5554345742592
23.3550388 ,Left ,58,8803821007254 ,47,2626476854772 ,16,5548542399933
23.3773957 ,Left ,58,8856816073467 ,47,268912694066 ,16,5747952881452
23.4072313 ,Left ,58,9236388667488 ,47,2806964589727 ,16,6188889003206
23.4297352 ,Left ,58,9204105890078 ,47,2933241787193 ,16,634717063995
23.4670073 ,Left ,58,8870952730513 ,47,333099648697 ,16,650719047542
23.4900983 ,Left ,58,833084081512 ,47,3762594572118 ,16,6518479566828
23.5274682 ,Left ,58,7456846610874 ,47,427154102677 ,16,6544858709398
23.5570428 ,Left ,58,6860198341778 ,47,4479412613412 ,16,6491599853715
23.5944288 ,Left ,58,5485802104419 ,47,536555906284 ,16,6483739604267
23.6093601 ,Left ,58,4967845265996 ,47,5484196046746 ,16,6568720132584
23.6470352 ,Left ,58,4107025143089 ,47,4874121194097 ,16,6527956597018
23.6695499 ,Left ,58,4767118264355 ,47,4988492465551 ,16,660992251535
23.6920833 ,Left ,58,4185638992492 ,47,6430825371513 ,16,6340360618768
23.7069802 ,Left ,58,3219148747493 ,47,7788697184915 ,16,5946886053888
23.7294926 ,Left ,58,2542764195274 ,47,7921177660359 ,16,5371832656216
23.7518923 ,Left ,58,2345223633175 ,47,7747989525993 ,16,4424634083383
23.7671587 ,Left ,58,1822608585794 ,47,7869425626719 ,16,3195316204582
23.7896894 ,Left ,58,1468695472139 ,47,8051884110589 ,16,188639069133
23.8120885 ,Left ,58,1173793531853 ,47,8038103493612 ,16,0487990852151
23.8269317 ,Left ,58,0810060724815 ,47,8050587583186 ,15,9295639201375
23.8570147 ,Left ,57,9816402222995 ,47,8204087222119 ,15,8492433744959
23.8794388 ,Left ,57,8970808902557 ,47,8539700140929 ,15,8007334484469
23.8870923 ,Left ,57,8176224971144 ,47,7900170854454 ,15,7435984007382
23.9101188 ,Left ,57,751553819607 ,47,7009761896418 ,15,6921455791543
23.9326084 ,Left ,57,8767238252558 ,47,6748024419259 ,15,7001751577943
23.9550519 ,Left ,57,8766238024236 ,47,7434643980931 ,15,7131715135173
23.977235 ,Left ,57,8243658326084 ,47,7473289644626 ,15,7292962429505
24.0073763 ,Left ,57,7990467049873 ,47,7335599363464 ,15,7400737539412
24.0295849 ,Left ,57,793400281589 ,47,7513959335981 ,15,7510546981993
24.0671422 ,Left ,57,6833123907554 ,47,7153847611799 ,15,8060905583969
24.0896631 ,Left ,57,7467002666169 ,47,6891539499512 ,15,8219461141587
24.1270146 ,Left ,57,7249851481985 ,47,8061391933424 ,15,8107201690285
24.1570605 ,Left ,57,6670549013691 ,47,8140341413295 ,15,8171238233784
24.2095454 ,Left ,57,5624961401191 ,47,8514586790623 ,15,850402106166
24.2470383 ,Left ,57,4813055496633 ,47,8837626934898 ,15,9302242411021
24.2694151 ,Left ,57,4377163535965 ,47,891427267429 ,15,9746916072074
24.307064 ,Left ,57,3651737438417 ,47,9105988741687 ,15,9362321135452
24.3297895 ,Left ,57,3145392216483 ,47,9947670109495 ,15,8793243923927
24.3669568 ,Left ,57,0808565176119 ,48,1458737608268 ,15,7695810928696
24.389505 ,Left ,57,0034651846758 ,48,1529799619032 ,15,7036906117804
24.4267457 ,Left ,56,8744622984219 ,48,2484963722846 ,15,4578415618643
24.4570142 ,Left ,56,7971114382992 ,48,3018731117281 ,15,2994285853035
24.5093892 ,Left ,56,4807780349565 ,48,4385808663074 ,14,7671512335631
24.5544419 ,Left ,56,2500665655299 ,48,4908280967355 ,14,4233495083812
24.5770867 ,Left ,56,1875577667056 ,48,5032784651011 ,14,2864721332849
24.6071344 ,Left ,56,0348008185855 ,48,4204878341068 ,14,2141430676348
24.6294973 ,Left ,56,0661619606782 ,48,3526036251744 ,14,2055595663792
24.6669852 ,Left ,56,168563845396 ,48,3668285061858 ,14,3218603721639
24.6895571 ,Left ,56,1943983126552 ,48,2684244126673 ,14,4221435520253
24.727201 ,Left ,56,4815359773284 ,47,9196044904527 ,14,6165439365609
24.7569136 ,Left ,56,7022875560305 ,47,8013740690807 ,14,6977311286537
24.8094344 ,Left ,56,8034571089514 ,47,7629638598736 ,14,9020791245466
24.846948 ,Left ,57,143809421467 ,47,5245709194126 ,14,9604500480231
24.8693507 ,Left ,57,3304234197915 ,47,5220484875748 ,15,0126753153335
24.9071863 ,Left ,57,4842429287112 ,47,5498479608346 ,15,1929790243196
24.929708 ,Left ,57,5674609211381 ,47,5037575051627 ,15,2713057064058
24.9748258 ,Left ,57,8398234712932 ,47,3994916867343 ,15,4227121662624
24.9970141 ,Left ,57,9444022927714 ,47,3791026086485 ,15,5048398974836
25.0119957 ,Left ,58,0196115672423 ,47,3593792371512 ,15,5922443425365
25.0269075 ,Left ,58,0731919441066 ,47,3293470921683 ,15,6774396978398
25.0495146 ,Left ,58,1374962664334 ,47,3047055561309 ,15,7308626309239
25.0722446 ,Left ,58,1918288843924 ,47,2932718415156 ,15,7735674289377
25.0873767 ,Left ,58,2363484356127 ,47,3049851343852 ,15,8315814678403
25.1023988 ,Left ,58,2491594160171 ,47,3136622297001 ,15,8991527770875
25.124416 ,Left ,58,2539797696931 ,47,3297020051368 ,15,9484055773146
25.1391638 ,Left ,58,2612085191042 ,47,355514101503 ,15,9914516414313
25.1620695 ,Left ,58,2730131625461 ,47,3992318563976 ,16,0270830964646
25.1845212 ,Left ,58,2718714932158 ,47,3951858880923 ,16,0422828716464
25.1994555 ,Left ,58,2925480959626 ,47,3732207547144 ,16,0385142582649
25.2219198 ,Left ,58,323176766922 ,47,3721443591175 ,16,0236642977575
25.2445891 ,Left ,58,3403218334723 ,47,3643775778366 ,16,0242078130092
25.2593812 ,Left ,58,3648404115155 ,47,3870308195448 ,16,0390526390132
25.2896508 ,Left ,58,3858805991725 ,47,4275412127607 ,16,0605369858611
25.3120086 ,Left ,58,3938458438203 ,47,4530219936608 ,16,0817356442159
25.327042 ,Left ,58,4079186160403 ,47,475987853925 ,16,1069987770755
25.3418693 ,Left ,58,4477833221342 ,47,4815095234782 ,16,1252931418232
25.3646877 ,Left ,58,4613461608261 ,47,4796381798638 ,16,136258880953
25.3798246 ,Left ,58,5217567563801 ,47,4678009722351 ,16,1510809173931
25.4023886 ,Left ,58,5490791714026 ,47,4592146605654 ,16,1723729614409
25.4323299 ,Left ,58,5722440448325 ,47,4634485792083 ,16,2043096299467
25.4473246 ,Left ,58,5549289842484 ,47,4648417500968 ,16,2459635724021
25.4697889 ,Left ,58,545512033567 ,47,4804773108234 ,16,2857871583841
25.4847073 ,Left ,58,5320340734327 ,47,5010976892615 ,16,3325610833791
25.4997694 ,Left ,58,5319260658518 ,47,511485039362 ,16,3800075097634
25.5222348 ,Left ,58,532482358232 ,47,5110378741317 ,16,4161813239278
25.5447828 ,Left ,58,5345154882344 ,47,5041377132284 ,16,434928404864
25.574828 ,Left ,58,5350659769605 ,47,498330469604 ,16,4522108940882
25.5896312 ,Left ,58,545162382128 ,47,4966264467453 ,16,4672136535155
25.612397 ,Left ,58,5141703471348 ,47,4979097792685 ,16,484228041257
25.6271554 ,Left ,58,511546444792 ,47,4995744012374 ,16,4982883151826
25.6424046 ,Left ,58,513227857585 ,47,4835854441813 ,16,5173883603595
25.6648769 ,Left ,58,5346686295412 ,47,4401418782742 ,16,5277807126305
25.6872312 ,Left ,58,560873198942 ,47,3915443112965 ,16,516972352366
25.7023809 ,Left ,58,597571201224 ,47,3542962271419 ,16,4940669561398
25.7247837 ,Left ,58,6164404807592 ,47,3481002038506 ,16,4709108005154
25.7472887 ,Left ,58,6266889892621 ,47,3469926204716 ,16,4635855572595
25.7621268 ,Left ,58,6360771598413 ,47,3273933029361 ,16,4503528993314
25.7848497 ,Left ,58,6768101088782 ,47,3000529330512 ,16,4400938373261
25.8073436 ,Left ,58,6917855505141 ,47,2847898157001 ,16,4309613522891
25.8297422 ,Left ,58,7134756421108 ,47,2743756936021 ,16,4249176240013
25.8524056 ,Left ,58,7094307743549 ,47,2624624582725 ,16,4263312473242
25.8896622 ,Left ,58,7179330910147 ,47,2524749192224 ,16,428246077637
25.9124027 ,Left ,58,7095983535839 ,47,2404618001637 ,16,4296642295066
25.9272542 ,Left ,58,6979865588301 ,47,2322609440447 ,16,4257555976813
25.9420452 ,Left ,58,7104561857243 ,47,2226171048977 ,16,4202984814149
25.9647369 ,Left ,58,7109527016195 ,47,210618449609 ,16,4128851844518
25.9872802 ,Left ,58,7156041953579 ,47,2034868704112 ,16,4060485532958
26.0023911 ,Left ,58,725072340697 ,47,200255085262 ,16,3991711532328
26.0249131 ,Left ,58,7279787573602 ,47,2009054501445 ,16,3985767631378
26.0473167 ,Left ,58,7279787573602 ,47,2009054501445 ,16,3985767631378
26.0622838 ,Left ,58,7204680129637 ,47,1980356193064 ,16,4136154888727
26.0849075 ,Left ,58,7094309111868 ,47,2056792247672 ,16,4309773211117
26.1071588 ,Left ,58,6996355741109 ,47,1961432245573 ,16,4358349247987
26.1222088 ,Left ,58,70158749501 ,47,1951679848682 ,16,4349605229485
26.1447609 ,Left ,58,6828789705052 ,47,1991867904702 ,16,4424742817802
26.1748902 ,Left ,58,6256826115295 ,47,2372822640806 ,16,4705531246454
26.1898135 ,Left ,58,5539112142742 ,47,3032295759439 ,16,5027577034446
26.212122 ,Left ,58,4310746446087 ,47,3262383291841 ,16,4912047117854
26.2272328 ,Left ,58,4180518104193 ,47,3764050307327 ,16,5172116430763
26.2424508 ,Left ,58,3581750421033 ,47,5546320831469 ,16,529383321838
26.2648599 ,Left ,58,2907768063519 ,47,6827812359436 ,16,5243308169114
26.2872315 ,Left ,58,2209172479028 ,47,6639052568592 ,16,4865356130028
26.3097243 ,Left ,58,2155523420404 ,47,5934155012592 ,16,4038858244395
26.3246882 ,Left ,58,265430353015 ,47,5429093928908 ,16,3176901457691
26.3471776 ,Left ,58,2434659372663 ,47,5229309557535 ,16,2299854436012
26.3623869 ,Left ,58,2449160960397 ,47,5033595277043 ,16,1341311472289
26.3848789 ,Left ,58,2288938801346 ,47,4947162451021 ,16,035245448826
26.4072846 ,Left ,58,2217443136577 ,47,518676504938 ,15,9473864628437
26.4221468 ,Left ,58,1884466098562 ,47,5431819283602 ,15,8748906508902
26.4446392 ,Left ,58,1507791179788 ,47,5772291350853 ,15,8095716693716
26.4670656 ,Left ,58,0769701636205 ,47,6142882710813 ,15,7617525738295
26.4822446 ,Left ,58,0135519698469 ,47,6700523039724 ,15,7525084588483
26.5046301 ,Left ,57,9517420655774 ,47,7102657962662 ,15,7551654026038
26.5268841 ,Left ,57,8866804274458 ,47,6613648511992 ,15,7511441721944
26.5494714 ,Left ,57,8931549932309 ,47,5834383209746 ,15,7346995269907
26.5644754 ,Left ,57,97549349118 ,47,5657573759954 ,15,724849822008
26.5870353 ,Left ,57,9771061830457 ,47,6346185512464 ,15,7259119675971
26.6094344 ,Left ,57,8954032218437 ,47,6464724271808 ,15,7238970303291
26.6246181 ,Left ,57,8431351014925 ,47,6466945796122 ,15,6979051869261
26.6470835 ,Left ,57,847784862729 ,47,6720389947821 ,15,6717913192503
26.6695461 ,Left ,57,8377892676868 ,47,6783989166331 ,15,6761673981277
26.6846523 ,Left ,57,7558959970526 ,47,6334873950121 ,15,6678170737681
26.70702 ,Left ,57,8412875419331 ,47,6018201835355 ,15,6772983383708
26.7296559 ,Left ,57,8844872824983 ,47,6298991256075 ,15,6934179589857
26.7443129 ,Left ,57,8806302688204 ,47,656828100507 ,15,7014031754019
26.7670059 ,Left ,57,8524529962057 ,47,6792347649787 ,15,6847296527484
26.7895049 ,Left ,57,782707979532 ,47,7128708380952 ,15,654405896048
26.8044171 ,Left ,57,7274572404446 ,47,7399165306264 ,15,641147550034
26.8271046 ,Left ,57,6957101300066 ,47,7581814723343 ,15,6466162512884
26.8497254 ,Left ,57,6559559705696 ,47,7681045919477 ,15,6558450053997
26.8642892 ,Left ,57,5445472511306 ,47,754491665786 ,15,6818344061232
26.8871 ,Left ,57,510556522396 ,47,7355507460169 ,15,7039797069601
26.9094281 ,Left ,57,5615494783935 ,47,7565673765579 ,15,6816353209576
26.9245771 ,Left ,57,4930452640533 ,47,8200138299554 ,15,6282475280514
26.9468169 ,Left ,57,4033305142926 ,47,8808538353299 ,15,5839907248699
26.9693272 ,Left ,57,3695498709596 ,47,8946497634546 ,15,5511823308994
26.9845537 ,Left ,57,340194723683 ,47,871059453545 ,15,4981534597574
27.006936 ,Left ,57,3338252467226 ,47,8819329709098 ,15,402565082181
27.0295641 ,Left ,57,2601582716538 ,47,9325598258307 ,15,2930227177926
27.0522656 ,Left ,57,1900378284206 ,48,0083060749968 ,15,1801496784061
27.0672228 ,Left ,57,1344778464543 ,48,0823364440059 ,15,058335821622
27.0896282 ,Left ,57,0348746644585 ,48,1622043513065 ,14,9383678228773
27.1046452 ,Left ,56,917269509969 ,48,2327403299509 ,14,8275371861703
27.1266695 ,Left ,56,8184000987154 ,48,2855956675295 ,14,7180986152791
27.149539 ,Left ,56,7269069438489 ,48,3477163344715 ,14,6152654801503
27.1644389 ,Left ,56,6244904478482 ,48,3505936006234 ,14,4658943659738
27.1868483 ,Left ,56,5098602887374 ,48,3712638868129 ,14,3273549847653
27.2093862 ,Left ,56,3984862515464 ,48,3907190362657 ,14,2116220618489
27.231952 ,Left ,56,2963660176285 ,48,4477228321884 ,14,1109850471493
27.2467482 ,Left ,56,1621291462749 ,48,5027757180955 ,14,0346747492987
27.2692905 ,Left ,56,0280458428011 ,48,5170824020618 ,13,9817325249819
27.2920912 ,Left ,55,9642065017836 ,48,4317933132661 ,13,9837970699544
27.3070479 ,Left ,56,042670980884 ,48,4087253546192 ,14,0691992080899
27.3372346 ,Left ,56,0384512126139 ,48,4395045348532 ,14,1485784108761
27.3596203 ,Left ,56,033080720109 ,48,3813545967655 ,14,2477738922937
27.3818866 ,Left ,56,1329602986281 ,48,2538545746112 ,14,3380060751536
27.4193961 ,Left ,56,5460701465777 ,47,8993131254298 ,14,5098248106284
27.4346896 ,Left ,56,7609441559938 ,47,7782635734211 ,14,5909444653113
27.4493366 ,Left ,56,8484449344651 ,47,7902895954133 ,14,6744681467581
27.4726151 ,Left ,56,8539254291656 ,47,8352849684352 ,14,7657504955479
27.4869737 ,Left ,56,8693449678755 ,47,7777656746686 ,14,8491302112688
27.509308 ,Left ,57,0184567000172 ,47,6688497239823 ,14,9044761134073
27.5319455 ,Left ,57,26584089463 ,47,6063137108047 ,14,9659087203958
27.5471541 ,Left ,57,4159687903659 ,47,5911735227811 ,15,0443686874152
27.5694858 ,Left ,57,4666634679375 ,47,5791529079396 ,15,1369005794628
27.5920826 ,Left ,57,5322867250252 ,47,5398642906403 ,15,20980572761
27.6071426 ,Left ,57,63051927053 ,47,4995765622865 ,15,3022481908044
27.6295488 ,Left ,57,7715677795849 ,47,4637434286476 ,15,4215980358055
27.6522148 ,Left ,57,8765251687195 ,47,4489024621159 ,15,5470804065825
27.6669781 ,Left ,57,9909722154094 ,47,4377778077823 ,15,6783189233486
27.6970077 ,Left ,58,0909197435807 ,47,4174522999171 ,15,7882348247906
27.7197119 ,Left ,58,2002451030917 ,47,4008483935408 ,15,8671877697627
27.7344255 ,Left ,58,3157674681742 ,47,3961178038734 ,15,9219321769223
27.749596 ,Left ,58,4122093710283 ,47,41227935584 ,15,9806134213233
27.7720806 ,Left ,58,4754695467669 ,47,4000687912063 ,16,0517919277423
27.7870451 ,Left ,58,5258098690129 ,47,3671384912945 ,16,0870774737343
27.8095001 ,Left ,58,5797492646454 ,47,3475895218646 ,16,1018512634842
27.8319717 ,Left ,58,5908556618459 ,47,3159698268811 ,16,102501278597
27.8471887 ,Left ,58,5789723937852 ,47,3120455304906 ,16,0925307429602
27.8695297 ,Left ,58,5560929810167 ,47,340601426902 ,16,0875634279224
27.8921137 ,Left ,58,5234735964944 ,47,3906766536658 ,16,102919350442
27.9071011 ,Left ,58,4854629974254 ,47,4245656399765 ,16,1369542147169
27.9296298 ,Left ,58,4610107118698 ,47,4398998156439 ,16,168825290402
27.952013 ,Left ,58,4820242969377 ,47,4355782664245 ,16,2028666099532
27.9675831 ,Left ,58,4913102202989 ,47,424785993589 ,16,2206447866721
27.9901054 ,Left ,58,5065749751368 ,47,4207175415745 ,16,234686989271
28.0197787 ,Left ,58,5202294016902 ,47,4303803335732 ,16,2514384898222
28.034902 ,Left ,58,5299778955794 ,47,4470147663793 ,16,2607273543402
28.0573968 ,Left ,58,5309283857385 ,47,4486445652539 ,16,2610026311193
28.087512 ,Left ,58,6079632886588 ,47,3734133361635 ,16,2074253736145
28.1098067 ,Left ,58,6613204072272 ,47,3594727766069 ,16,1690846863831
28.1324215 ,Left ,58,6784348488373 ,47,3673956434989 ,16,1573961521755
28.1471415 ,Left ,58,6745366396905 ,47,3896710071664 ,16,158239025424
28.1698229 ,Left ,58,6677592655567 ,47,4024923039092 ,16,1664619736591
28.1923005 ,Left ,58,687974623893 ,47,3743806854246 ,16,1679171299076
28.2076552 ,Left ,58,711951323294 ,47,3491023205575 ,16,1681595616557
28.2298429 ,Left ,58,7422457411457 ,47,3484180109097 ,16,1737597525672
28.2521954 ,Left ,58,7523435038794 ,47,3526621900815 ,16,1853910072165
28.2672535 ,Left ,58,7451682100284 ,47,354630726327 ,16,1987784788581
28.2897138 ,Left ,58,7445983742302 ,47,3564358232529 ,16,2081604889584
28.3123766 ,Left ,58,7523936125968 ,47,3516888485142 ,16,2152315557674
28.3272151 ,Left ,58,7630007331023 ,47,3314567059481 ,16,2239431928336
28.3496639 ,Left ,58,7822161337355 ,47,3137571377348 ,16,2300361330227
28.3718212 ,Left ,58,806940501342 ,47,2990140792939 ,16,2323706780545
28.3944143 ,Left ,58,8186815394777 ,47,3025073969778 ,16,2357168056957
28.409357 ,Left ,58,8112266884233 ,47,3185762702227 ,16,2420881269083
28.4318798 ,Left ,58,8051519613814 ,47,3327262278046 ,16,244172564827
28.454456 ,Left ,58,8076534115293 ,47,3290525530752 ,16,2444258281888
28.469445 ,Left ,58,8143461347413 ,47,3167878891203 ,16,2352474286237
28.4918218 ,Left ,58,829269056827 ,47,3115442758753 ,16,2175223292383
28.5145678 ,Left ,58,8493777036872 ,47,3122865936665 ,16,2014746928836
28.5295003 ,Left ,58,8653811733165 ,47,318347251576 ,16,1829264080359
28.5518471 ,Left ,58,8790600059504 ,47,3145087001095 ,16,1702944224081
28.5746124 ,Left ,58,901892558681 ,47,3068690176024 ,16,1538382077953
28.5895299 ,Left ,58,9149265154407 ,47,2938279378327 ,16,1436397599979
28.6118599 ,Left ,58,9274588157223 ,47,2908189380749 ,16,1369677183869
28.6346283 ,Left ,58,9550565320206 ,47,2888734856948 ,16,1437716758414
28.6494305 ,Left ,58,96547981044 ,47,2927532804982 ,16,162743775689
28.6719037 ,Left ,58,9965025397837 ,47,2992608306709 ,16,1866094634375
28.6945704 ,Left ,59,0131604391285 ,47,2962617524203 ,16,2079582744644
28.7091636 ,Left ,59,000299131051 ,47,3062165198365 ,16,240861349483
28.7317834 ,Left ,58,9581070922806 ,47,3273573417684 ,16,2780948689481
28.7545614 ,Left ,58,9086094967282 ,47,3567762063638 ,16,3178428808688
28.769438 ,Left ,58,8529498438634 ,47,3844368360584 ,16,3455209950759
28.7921741 ,Left ,58,8137981719643 ,47,4085087607356 ,16,369526146688
28.814716 ,Left ,58,7670312628907 ,47,4368830524741 ,16,3872023627675
28.8292685 ,Left ,58,7227051609961 ,47,4588418479716 ,16,3923032585754
28.8520453 ,Left ,58,6981181191076 ,47,4617212602886 ,16,4126056066214
28.8746219 ,Left ,58,6610025428242 ,47,4828851499837 ,16,4497118912497
28.8895435 ,Left ,58,6035735825677 ,47,5389901300739 ,16,4947805857203
28.9121508 ,Left ,58,585812729592 ,47,5292105179709 ,16,4854603495612
28.9347486 ,Left ,58,5712484553399 ,47,4537049621025 ,16,4465648133604
28.942221 ,Left ,58,6525981843811 ,47,4310214100746 ,16,4124281730491
28.9647255 ,Left ,58,654481296085 ,47,5341823531385 ,16,3737034038556
28.9870707 ,Left ,58,5758813557054 ,47,6242657557627 ,16,3265013687876
29.0020492 ,Left ,58,4824146095041 ,47,6255781970239 ,16,2594454987669
29.0245868 ,Left ,58,4723363546491 ,47,6041582425852 ,16,1636296900943
29.0469918 ,Left ,58,4772007752927 ,47,6271689331683 ,16,036891508679
29.0622565 ,Left ,58,3851930150715 ,47,6799161192347 ,15,9225734059724
29.0849188 ,Left ,58,3070513316963 ,47,7385522862639 ,15,828668292466
29.1071643 ,Left ,58,2254571665188 ,47,7823655867507 ,15,7880248774936
29.1222412 ,Left ,58,1486299488328 ,47,7962909953492 ,15,74750523888
29.1446065 ,Left ,58,0787871703102 ,47,7185164812779 ,15,6879561428155
29.1670937 ,Left ,58,1205766404486 ,47,6216958658871 ,15,6932297658171
29.1818262 ,Left ,58,1488393627707 ,47,6840027167286 ,15,6976857953218
29.2044751 ,Left ,58,1083512498022 ,47,715088465824 ,15,7142358520598
29.2267874 ,Left ,58,0789794152226 ,47,6874152877159 ,15,7022832338401
29.2420737 ,Left ,58,0842321160535 ,47,6856915782466 ,15,6906488634394
29.2643394 ,Left ,58,0708957467391 ,47,7100861896443 ,15,6786602068548
29.2871311 ,Left ,58,027849737856 ,47,7074397436777 ,15,7060436227435
29.3094724 ,Left ,57,9725640340361 ,47,6648296796918 ,15,7015025652651
29.3319465 ,Left ,58,0418286727724 ,47,659232077189 ,15,7051958188953
29.3469687 ,Left ,58,0256160267125 ,47,7152445811069 ,15,7144074698582
29.3620428 ,Left ,57,9849545013861 ,47,752902908439 ,15,7088025223338
29.3847132 ,Left ,57,9459026409505 ,47,7566108521733 ,15,6848390335382
29.4070623 ,Left ,57,8752978966576 ,47,7526218044343 ,15,6521784322781
29.4221597 ,Left ,57,8250531847719 ,47,7676547902503 ,15,6494303320111
29.4446269 ,Left ,57,783261137347 ,47,782146940982 ,15,6715126238506
29.481872 ,Left ,57,6176261560688 ,47,8099446379443 ,15,75950800341
29.5049499 ,Left ,57,516956470514 ,47,8443075531715 ,15,7292304607593
29.5270327 ,Left ,57,4654936509827 ,47,9098421062741 ,15,6753288108091
29.5420866 ,Left ,57,3812035624587 ,48,0096386521394 ,15,6185404537906
29.5649551 ,Left ,57,2810968895578 ,48,0958214093106 ,15,5671472464644
29.5875298 ,Left ,57,1859503867542 ,48,1363691152347 ,15,4873195712489
29.6026383 ,Left ,57,1104362479816 ,48,1518698177477 ,15,3491725659633
29.624949 ,Left ,57,0429971462178 ,48,1847675348307 ,15,1936515237276
29.647119 ,Left ,56,9190284887794 ,48,2562166347704 ,15,0070270754322
29.6623747 ,Left ,56,7982812092905 ,48,3304287028761 ,14,8033643116102
29.6847832 ,Left ,56,6642974964392 ,48,4052631684731 ,14,5886590009809
29.7070098 ,Left ,56,5210952215044 ,48,4644736498999 ,14,4133903090676
29.7220269 ,Left ,56,4002093472483 ,48,4835054739587 ,14,2635262573278
29.7446368 ,Left ,56,2861307768215 ,48,5026249294335 ,14,1417064990583
29.7670018 ,Left ,56,2067610694348 ,48,5058900812845 ,14,0119804965988
29.804659 ,Left ,56,0575701167117 ,48,5130611883641 ,13,9447634308543
29.8271329 ,Left ,55,9820761035067 ,48,5062962258392 ,14,0027995661733
29.8647838 ,Left ,55,993212053785 ,48,4974899351435 ,14,0500938462471
29.9022839 ,Left ,56,0723289006419 ,48,5036730626848 ,14,1800358960319
29.9247965 ,Left ,56,2134425214683 ,48,3500987204229 ,14,2687663722891
29.9470447 ,Left ,56,40304447663 ,48,1518047536366 ,14,3748859860151
29.9847861 ,Left ,56,8922722645185 ,47,7987562371086 ,14,5958960412662
30.0071846 ,Left ,57,0634707692567 ,47,6929162825894 ,14,6624089901759
30.0446339 ,Left ,57,1421241873799 ,47,7769936758094 ,14,764027739217
30.0671303 ,Left ,57,1889579394411 ,47,7480338525005 ,14,8164739529224
30.1046573 ,Left ,57,4390304106242 ,47,5058048732284 ,14,8730990468468
30.1270148 ,Left ,57,6466670728124 ,47,5261726880977 ,14,9320932382597
30.1644272 ,Left ,57,6618828233749 ,47,5957500297058 ,15,09191361666
30.1871591 ,Left ,57,7036651290853 ,47,5670260397963 ,15,1714735659605
30.2245936 ,Left ,57,8386585214987 ,47,4639575692584 ,15,3335699239779
30.2620047 ,Left ,57,9442303078543 ,47,3735339097446 ,15,5629971070322
30.2919302 ,Left ,57,9977463281123 ,47,3543448029415 ,15,6735009163654
30.3296805 ,Left ,58,152625302668 ,47,3134673611897 ,15,8758803792101
30.3445631 ,Left ,58,2322479147042 ,47,2928056179947 ,15,953197995301
30.3821616 ,Left ,58,4354270040332 ,47,1700551091214 ,16,1085019893542
30.4043669 ,Left ,58,4904500348428 ,47,0854493230825 ,16,1389811495519
30.4419727 ,Left ,58,6171540134528 ,47,0070609758162 ,16,1704956420827
30.4644463 ,Left ,58,6338888239964 ,47,0030743878535 ,16,2172757805724
30.5095971 ,Left ,58,7304916383531 ,46,9783332640402 ,16,2754996313246
30.5319595 ,Left ,58,7916474748118 ,46,9731728781779 ,16,281276033244
30.5845612 ,Left ,58,8258153933546 ,47,1681097096019 ,16,3939646416939
30.6220162 ,Left ,58,8163696303282 ,47,2417738635894 ,16,4601437022233
30.6446654 ,Left ,58,8611417253694 ,47,2399169373565 ,16,4698206543041
30.6826495 ,Left ,58,8994884214345 ,47,2840510081944 ,16,5257909016077
30.7049231 ,Left ,58,8581923689974 ,47,3252834776076 ,16,5787376177491
30.7423483 ,Left ,58,8107215183932 ,47,4005329239538 ,16,6744366714218
30.7649674 ,Left ,58,8146490113106 ,47,4174109655207 ,16,7217776493218
30.8026044 ,Left ,58,8202544562068 ,47,4434542922157 ,16,7801896532037
30.8173079 ,Left ,58,8175515308674 ,47,4761850359479 ,16,8131653185444
30.8400669 ,Left ,58,8120992570058 ,47,5035493325347 ,16,8460696298059
30.8548407 ,Left ,58,7825850418562 ,47,535989196538 ,16,8643614984517
30.8775133 ,Left ,58,7665605509463 ,47,5660821621316 ,16,86559404991
30.8998624 ,Left ,58,7354096187774 ,47,6013868440983 ,16,8499577990154
30.9221179 ,Left ,58,7184224626299 ,47,6371454441374 ,16,8275044641471
30.9372028 ,Left ,58,6859203944775 ,47,654470343336 ,16,8051247064845
30.959324 ,Left ,58,6624451830964 ,47,6511845253859 ,16,7802238467254
30.9744957 ,Left ,58,6601686946213 ,47,6431143085037 ,16,7514860401597
30.9969075 ,Left ,58,6636481663332 ,47,6274952073947 ,16,7284335534581
31.0193532 ,Left ,58,6572442871826 ,47,6075575344796 ,16,7011501636609
31.0345479 ,Left ,58,6530937952987 ,47,5853298302449 ,16,6629716590127
31.0570077 ,Left ,58,6371726500834 ,47,5528766868972 ,16,6351546286938
31.0796438 ,Left ,58,61429729139 ,47,5726021448818 ,16,6516800413786
31.094597 ,Left ,58,5950748466103 ,47,5753079658791 ,16,6863259293511
31.117207 ,Left ,58,5629623994159 ,47,5035612178347 ,16,6746248916093
31.1396838 ,Left ,58,5934888836175 ,47,5284180024 ,16,6694055109961
31.1544 ,Left ,58,4937810907215 ,47,6736024318319 ,16,6739267568985
31.1772223 ,Left ,58,3653112932733 ,47,7856321714509 ,16,6694510676524
31.1993543 ,Left ,58,2900365851909 ,47,8051139475454 ,16,6222440956889
31.2219526 ,Left ,58,2650295775766 ,47,7294597310005 ,16,5483168668145
31.2371309 ,Left ,58,3320820295261 ,47,6660878025831 ,16,4466822622309
31.2594066 ,Left ,58,3520914009492 ,47,6603381473207 ,16,3014883172008
31.2821361 ,Left ,58,3336450218422 ,47,6528035306986 ,16,1735402063266
31.2973792 ,Left ,58,3077041552047 ,47,6585716902325 ,16,0686896991806
31.3197881 ,Left ,58,2807848974425 ,47,6764659177199 ,15,9849550084069
31.342563 ,Left ,58,2506690142118 ,47,6992459840693 ,15,9423350768634
31.3573788 ,Left ,58,1891291740604 ,47,6419977496001 ,15,9000855701973
31.3797025 ,Left ,58,1323120583911 ,47,5681787898374 ,15,9110879979694
31.4022541 ,Left ,58,2428110676936 ,47,5404625414659 ,15,9488005750768
31.4171743 ,Left ,58,2419842812504 ,47,6123222108523 ,15,9531419252198
31.439561 ,Left ,58,2056178174121 ,47,6362158662737 ,15,9492968380409
31.4621055 ,Left ,58,1701230190966 ,47,6065008070049 ,15,9328459728182
31.477121 ,Left ,58,1192552290249 ,47,6198487826594 ,15,9001062970573
31.4996406 ,Left ,58,086149564068 ,47,6592094210328 ,15,8523629339915
31.5221407 ,Left ,58,0474280545419 ,47,6703276261416 ,15,8113274490853
31.5370331 ,Left ,57,9404615977905 ,47,6355403495452 ,15,7613997813318
31.5598064 ,Left ,57,98520927473 ,47,642872726096 ,15,7524254492654
31.5822278 ,Left ,57,9941926548944 ,47,7185838136606 ,15,7395432674671
31.5972707 ,Left ,57,9460382231361 ,47,7814247843018 ,15,7313490198425
31.6196205 ,Left ,57,8907429028283 ,47,7751796313979 ,15,7094136538261
31.6422438 ,Left ,57,8271208517123 ,47,7655743741679 ,15,7004222414889
31.6572443 ,Left ,57,7897572990102 ,47,8054824337199 ,15,7191302145964
31.6797354 ,Left ,57,7325592286405 ,47,8362124039876 ,15,7625116271737
31.7019142 ,Left ,57,6874436930082 ,47,8449922161762 ,15,8028584901022
31.7170703 ,Left ,57,5949908781372 ,47,8126361944322 ,15,8197472790298
31.7394326 ,Left ,57,5553215799755 ,47,7874125229494 ,15,8023950746377
31.7620704 ,Left ,57,5681824836877 ,47,8346906110877 ,15,7523457626964
31.7769438 ,Left ,57,4741098666416 ,47,9533616890165 ,15,672613418257
31.7995164 ,Left ,57,3390519389862 ,48,0624627598758 ,15,5992788827907
31.8220854 ,Left ,57,2132876758691 ,48,0998663201088 ,15,536623058932
31.8368579 ,Left ,57,1516456679991 ,48,1401826107357 ,15,457851101223
31.8593171 ,Left ,57,0579539345797 ,48,1889280733733 ,15,3312423354429
31.8819359 ,Left ,56,9569095299513 ,48,2529493465763 ,15,1831578179047
31.897066 ,Left ,56,8887715572648 ,48,3178396901335 ,15,0370868677694
31.9194967 ,Left ,56,8037148894714 ,48,3755464453425 ,14,8621079055301
31.9420276 ,Left ,56,6937205143742 ,48,4337523721423 ,14,6670315125738
31.9645824 ,Left ,56,5726322768307 ,48,4647924514016 ,14,4638621444631
31.9795864 ,Left ,56,467605123236 ,48,4647818485215 ,14,2776129513133
32.0022264 ,Left ,56,383393419675 ,48,4808069073659 ,14,1268268453961
32.024777 ,Left ,56,324209083889 ,48,5064216421278 ,14,0219510824274
32.0397218 ,Left ,56,183230730651 ,48,5088359768876 ,13,9501145460714
32.0622026 ,Left ,56,1185811499171 ,48,4103834255381 ,13,9133101390313
32.0847506 ,Left ,56,2295272523068 ,48,3235460558584 ,13,9497051165934
32.0995662 ,Left ,56,2935727578427 ,48,3605585813871 ,14,0181010516965
32.1218302 ,Left ,56,3124352292666 ,48,3444712082185 ,14,1177196934541
32.1445043 ,Left ,56,3488886033944 ,48,236460149175 ,14,2358564772083
32.1594301 ,Left ,56,5130241278434 ,48,0679104353907 ,14,3414105871316
32.182118 ,Left ,56,7459450925852 ,47,8779612968513 ,14,4047470770098
32.2044406 ,Left ,56,9689066419408 ,47,7278001750815 ,14,4553738751009
32.2197992 ,Left ,57,0801556621344 ,47,7068489066463 ,14,5260018376445
32.2424144 ,Left ,57,1038578962404 ,47,757409099802 ,14,6163715260325
32.2649316 ,Left ,57,1133235717406 ,47,7051328131646 ,14,6968730661641
32.279776 ,Left ,57,2282932589787 ,47,5936486805705 ,14,7535357740689
32.3024794 ,Left ,57,4542479202536 ,47,5111953725542 ,14,8013197344988
32.3243583 ,Left ,57,6049073937381 ,47,498279684306 ,14,862856693068
32.3394664 ,Left ,57,6504244056794 ,47,4918454713561 ,14,9450179597304
32.3618674 ,Left ,57,7053146021708 ,47,4790728312099 ,15,0381744929509
32.3846347 ,Left ,57,7675457775373 ,47,4061567810381 ,15,1384017082883
32.3995676 ,Left ,57,8630419600437 ,47,3228386331984 ,15,234717717553
32.4221264 ,Left ,57,9458214070888 ,47,2704617903807 ,15,3605768018923
32.4446823 ,Left ,58,0233538221492 ,47,222047932475 ,15,5253658968493
32.4598624 ,Left ,58,1031282728101 ,47,1691329562835 ,15,6742567308695
32.4824493 ,Left ,58,199865942063 ,47,125084637929 ,15,7902565202906
32.5046395 ,Left ,58,2917720958702 ,47,0919810445086 ,15,8855824732391
32.5197471 ,Left ,58,3724760777259 ,47,0888938416995 ,15,9738979826089
32.5423326 ,Left ,58,4367212905376 ,47,0770457725878 ,16,0614566994863
32.5646978 ,Left ,58,505552331682 ,47,0551030425395 ,16,1140091754326
32.5792655 ,Left ,58,5734743497466 ,47,0438659861127 ,16,1346186605744
32.6020583 ,Left ,58,6252444034189 ,47,0272718905351 ,16,1297649287209
32.6246324 ,Left ,58,6527385459216 ,47,0356330579072 ,16,1184274948317
32.6393202 ,Left ,58,6547771542748 ,47,0633142993415 ,16,10775534802
32.6618324 ,Left ,58,6657394725188 ,47,096479424667 ,16,1050524511672
32.6845681 ,Left ,58,6444185556214 ,47,119275577218 ,16,1013502496707
32.6995345 ,Left ,58,6502025746226 ,47,1359125186315 ,16,0891240980335
32.7220222 ,Left ,58,6462398437141 ,47,1678486249855 ,16,0890193578284
32.7445372 ,Left ,58,635315735757 ,47,2052512116524 ,16,1120454647211
32.759573 ,Left ,58,6145193922816 ,47,2420429191224 ,16,1418257386742
32.7819175 ,Left ,58,6246400959401 ,47,2458169560588 ,16,1543387004878
32.8044634 ,Left ,58,6449399809538 ,47,2417450920558 ,16,1733402381953
32.8270362 ,Left ,58,7041494094636 ,47,2584764320991 ,16,1864896245617
32.8570891 ,Left ,58,6819465052715 ,47,2671912313361 ,16,2062353011196
32.8872206 ,Left ,58,6305312935882 ,47,3483250617743 ,16,2523832647198
32.9021932 ,Left ,58,6043210516609 ,47,386657490248 ,16,2794957374482
32.9246837 ,Left ,58,5879896813762 ,47,4094584530898 ,16,302041696361
32.9396584 ,Left ,58,5729114922255 ,47,4099689254076 ,16,3212809540864
32.9620055 ,Left ,58,5683620315703 ,47,4120409491715 ,16,3371148858627
32.9845783 ,Left ,58,5808610962207 ,47,4230219492293 ,16,3588788836391
32.99947 ,Left ,58,5498139443395 ,47,4191181575975 ,16,3851373579935
33.0219481 ,Left ,58,530520625991 ,47,4153646506032 ,16,4029033593217
33.0444805 ,Left ,58,5082704912963 ,47,4278594780948 ,16,4267549540669
33.0595018 ,Left ,58,5109624077363 ,47,4479144744319 ,16,437874699953
33.0818841 ,Left ,58,5063467038962 ,47,4471795733297 ,16,4409489470716
33.1045416 ,Left ,58,533285165142 ,47,4424732171651 ,16,4281303125518
33.1274609 ,Left ,58,5547451993593 ,47,4249980564371 ,16,408303723671
33.142374 ,Left ,58,5832194592993 ,47,4158893908973 ,16,3849759632952
33.164995 ,Left ,58,5967448992559 ,47,4085457728352 ,16,3606909831935
33.1873896 ,Left ,58,5789313295814 ,47,4076423370922 ,16,3533092152658
33.2026215 ,Left ,58,5409034506213 ,47,4461581742031 ,16,3812157982877
33.2248178 ,Left ,58,5051322988663 ,47,4899913712423 ,16,3950193212063
33.2473352 ,Left ,58,4691932968909 ,47,4554267759037 ,16,3889224904831
33.2623488 ,Left ,58,4600793352771 ,47,3679142737449 ,16,37812399046
33.284914 ,Left ,58,5742281836516 ,47,3535324776364 ,16,3733985819925
33.3071653 ,Left ,58,5503504700906 ,47,4668943595461 ,16,3564744508317
33.322304 ,Left ,58,4324072206457 ,47,5641588662049 ,16,3215311656581
33.3447521 ,Left ,58,3342597734348 ,47,5806102297212 ,16,2658069999265
33.3673319 ,Left ,58,3281086150169 ,47,5578279336969 ,16,1956586603914
33.3823887 ,Left ,58,3279799027045 ,47,5430231594366 ,16,1101923375876
33.4047449 ,Left ,58,3171125139767 ,47,5618914186311 ,16,0175024551603
33.4271746 ,Left ,58,2757539675208 ,47,5786806055719 ,15,9263635917083
33.4421474 ,Left ,58,2430259071826 ,47,5891349370601 ,15,8394889874844
33.4649299 ,Left ,58,1879024731616 ,47,6304311506212 ,15,7667181234815
33.4873846 ,Left ,58,0981466417012 ,47,6873401463932 ,15,7126337317701
33.5019916 ,Left ,58,0248416623411 ,47,7155110429049 ,15,6690527867764
33.5243293 ,Left ,57,9193881454984 ,47,6743016802436 ,15,6220635877576
33.5468242 ,Left ,57,8985496863387 ,47,5750058829562 ,15,5994217606886
33.5618901 ,Left ,58,0099466399286 ,47,5801869990947 ,15,6042756282627
33.5844895 ,Left ,57,9599002192329 ,47,6640728330602 ,15,6110030842914
33.607245 ,Left ,57,8612778291699 ,47,6782407111732 ,15,6170744811961
33.6220389 ,Left ,57,8185274296485 ,47,6639498479768 ,15,5984147872317
33.6445738 ,Left ,57,8153238260862 ,47,7047297274037 ,15,580929822751
33.667142 ,Left ,57,7836503402923 ,47,7257350696067 ,15,5906335696585
33.6823025 ,Left ,57,6805436444681 ,47,6654080392673 ,15,5807133467905
33.7046225 ,Left ,57,7464723220302 ,47,6093786883766 ,15,5956694810584
33.727214 ,Left ,57,7519146319793 ,47,6667645649747 ,15,6135473310493
33.7421826 ,Left ,57,7242280053717 ,47,7082802820556 ,15,6315302492031
33.7644836 ,Left ,57,6895546452374 ,47,7087167843361 ,15,6346891020961
33.7867855 ,Left ,57,7039880314583 ,47,6813534810197 ,15,6068235085774
33.8018927 ,Left ,57,7200385347115 ,47,6625370677287 ,15,5788561757123
33.8242691 ,Left ,57,7146302937612 ,47,6493499427919 ,15,5643301452238
33.8468435 ,Left ,57,6769493667551 ,47,6720820243627 ,15,5802971868555
33.8618121 ,Left ,57,6424468029805 ,47,7196698721263 ,15,6308794764686
33.8842684 ,Left ,57,5652771635269 ,47,7988619524207 ,15,6755811480982
33.9068041 ,Left ,57,4127619962775 ,47,7954897893021 ,15,6477356688256
33.9294341 ,Left ,57,3763348117167 ,47,7545364596733 ,15,623023433923
33.9443066 ,Left ,57,3792854448836 ,47,81323317897 ,15,5835957094238
33.9669131 ,Left ,57,2504081474879 ,47,9641570326214 ,15,5065126097199
33.9895672 ,Left ,57,082636923156 ,48,0675313919654 ,15,4220819541649
34.004422 ,Left ,56,9676918764815 ,48,1026191488813 ,15,3238128101514
34.02703 ,Left ,56,9024545435371 ,48,1438826972798 ,15,2342855915844
34.0495303 ,Left ,56,8191235841686 ,48,2319727778132 ,15,1273968801115
34.0646553 ,Left ,56,7012961730111 ,48,3122231407982 ,14,9940541320167
34.0872456 ,Left ,56,5997059673641 ,48,3783343898391 ,14,8327365423939
34.1095311 ,Left ,56,5074300949521 ,48,4447312890736 ,14,6727535057731
34.1247212 ,Left ,56,407849510691 ,48,4759098512233 ,14,4846774866816
34.1471724 ,Left ,56,2796952588942 ,48,4947800404526 ,14,309534150437
34.1696318 ,Left ,56,144883918565 ,48,4765817174416 ,14,1628599521692
34.1846615 ,Left ,56,0495395160012 ,48,453556588202 ,14,0479677126727
34.2070038 ,Left ,55,9979458778158 ,48,4280368247476 ,13,9359510231954
34.2294505 ,Left ,55,9538476634754 ,48,3328930344431 ,13,8680532420733
34.2443588 ,Left ,55,989126765702 ,48,2411799101723 ,13,8723933500467
34.2673771 ,Left ,56,0190837879133 ,48,3395669651428 ,13,935125278336
34.2897881 ,Left ,56,0062965655209 ,48,4196448513181 ,14,0175430125934
34.3046947 ,Left ,56,0289006856399 ,48,3269763295011 ,14,1246330316924
34.327313 ,Left ,56,1681072456528 ,48,1564002331758 ,14,2544235799257
34.3497615 ,Left ,56,4151363603876 ,47,9491533399313 ,14,3618118194725
34.3647137 ,Left ,56,6622844270226 ,47,7549685880199 ,14,4481892615746
34.3873133 ,Left ,56,8885863641004 ,47,6369844202032 ,14,5363183653966
34.4096265 ,Left ,56,9910588765805 ,47,6430976435313 ,14,6295634214898
34.4247661 ,Left ,57,008121868386 ,47,6885435997408 ,14,6766865604539
34.4469568 ,Left ,57,0177461418025 ,47,6290052168551 ,14,6920971158845
34.4694376 ,Left ,57,1548501564097 ,47,4817297498767 ,14,7244157264361
34.4844003 ,Left ,57,4123577122296 ,47,4215677480664 ,14,7857013108106
34.5068589 ,Left ,57,5412141339558 ,47,4424434255813 ,14,8625719283859
34.5294477 ,Left ,57,581111781191 ,47,4652234274605 ,14,9450636753926
34.5444958 ,Left ,57,6511664192317 ,47,4632583378005 ,15,0122587770357
34.5671737 ,Left ,57,7240931853752 ,47,4253396388541 ,15,0732331739495
34.5895859 ,Left ,57,8527249280062 ,47,3817864075006 ,15,1668353222334
34.6044032 ,Left ,57,9486128306413 ,47,3610804866442 ,15,2852359883197
34.6270298 ,Left ,58,0050060141315 ,47,3732313334808 ,15,4064432684787
34.6495947 ,Left ,58,0762711667059 ,47,3867120593987 ,15,5336517402902
34.6648041 ,Left ,58,1375772770978 ,47,3893508134601 ,15,6532828337775
34.6871192 ,Left ,58,2047522330197 ,47,3792695744554 ,15,743194875729
34.7093703 ,Left ,58,2618107048064 ,47,3685052731551 ,15,8147391455259
34.724409 ,Left ,58,3232578100183 ,47,3576065388514 ,15,8859830330254
34.7395734 ,Left ,58,4247906066894 ,47,3059747191716 ,15,9342367791185
34.7625422 ,Left ,58,4930464838609 ,47,2193015979878 ,15,9361604806744
34.8000527 ,Left ,58,5734207999841 ,47,1811558526101 ,15,8993455351557
34.8223132 ,Left ,58,5551688495774 ,47,2356148622265 ,15,9321469554861
34.8597175 ,Left ,58,5519482424427 ,47,2468190942096 ,16,0103103827947
34.8818546 ,Left ,58,5779602792984 ,47,2405843517104 ,16,0260279666519
34.9044065 ,Left ,58,5907510151538 ,47,2734179020359 ,16,0571708975182
34.9268214 ,Left ,58,5583041306539 ,47,3196952540069 ,16,113582871687
34.9568958 ,Left ,58,5096293328019 ,47,3591695545408 ,16,1847929197584
34.9794374 ,Left ,58,4997074375944 ,47,3629014511456 ,16,2123268357565
35.0022284 ,Left ,58,5293313210079 ,47,3799440460374 ,16,2347811066533
35.017242 ,Left ,58,4989272902409 ,47,3685067157855 ,16,2617342760159
35.0397931 ,Left ,58,4797658076 ,47,3743311581496 ,16,2783677892667
35.0618808 ,Left ,58,5013768208128 ,47,3846931003707 ,16,2996540169882
35.0775127 ,Left ,58,4926140859252 ,47,4081470508366 ,16,3289240114933
35.0993584 ,Left ,58,4817767644649 ,47,4237934372083 ,16,3496875970857
35.1219567 ,Left ,58,4743028550362 ,47,4173319014227 ,16,3624580048509
35.1371519 ,Left ,58,479992726758 ,47,4183436286448 ,16,3709817095804
35.1594626 ,Left ,58,4957677401785 ,47,4303630330995 ,16,3610236083098
35.1818804 ,Left ,58,5060260887266 ,47,4380197555185 ,16,3468495461837
35.1969988 ,Left ,58,5092814615254 ,47,429418470648 ,16,3325084193186
35.2194809 ,Left ,58,501654947805 ,47,4293716147303 ,16,3248181832405
35.242114 ,Left ,58,4581886771966 ,47,4559078214081 ,16,3350573132042
35.2570871 ,Left ,58,3979937473196 ,47,5221095836197 ,16,3588648588773
35.2794168 ,Left ,58,3706116126946 ,47,5270453983431 ,16,3352627764915
35.3018667 ,Left ,58,2975560402797 ,47,4452941268842 ,16,2990920337616
35.3172234 ,Left ,58,4085905314396 ,47,4137042560648 ,16,2903437567699
35.3396448 ,Left ,58,4207934252503 ,47,5371029306213 ,16,2761537933885
35.3697832 ,Left ,58,334343127885 ,47,6456586236106 ,16,2626104630527
35.3847699 ,Left ,58,2445114244141 ,47,6755218183417 ,16,2213907577584
35.4222119 ,Left ,58,2229493188006 ,47,7154012952281 ,16,0159671671831
35.4597212 ,Left ,58,1667670140476 ,47,7615305542234 ,15,7996006298192
35.4821573 ,Left ,58,1304221567667 ,47,7865647970154 ,15,7219149698644
35.5197374 ,Left ,57,9876055156612 ,47,7958446577069 ,15,5873650219335
35.5419743 ,Left ,57,9016278643771 ,47,6904735074989 ,15,5377896454851
35.5797074 ,Left ,58,0418122988857 ,47,5754857601029 ,15,5609460829167
35.6023331 ,Left ,58,0320633730199 ,47,6369658358913 ,15,6008166343152
35.6397182 ,Left ,57,9438584373528 ,47,6203942889474 ,15,6137303648536
35.6773065 ,Left ,57,9234101346285 ,47,6784469774885 ,15,5766263771441
35.6995475 ,Left ,57,8449485417857 ,47,6341346279202 ,15,5350223599066
35.7373442 ,Left ,57,9177080418723 ,47,6622444643082 ,15,5415995774269
35.7597926 ,Left ,57,8712344586447 ,47,6975718322297 ,15,5779877079387
35.797275 ,Left ,57,762106800288 ,47,6976384584748 ,15,5571469977594
35.8196726 ,Left ,57,7024428350607 ,47,7380231863765 ,15,5532319107914
35.8572897 ,Left ,57,5882243108551 ,47,8007093805662 ,15,5827516486693
35.8797132 ,Left ,57,5534620013158 ,47,7576598909078 ,15,61230199044
35.9172634 ,Left ,57,5584965113202 ,47,683924936425 ,15,608213980891
35.9396006 ,Left ,57,5121740572935 ,47,7745626892089 ,15,5434000434573
35.9695901 ,Left ,57,3926684071822 ,47,893703527622 ,15,4825131854053
36.029293 ,Left ,57,1355988592549 ,48,0121946512203 ,15,3017074362347
36.0670608 ,Left ,56,9030527387803 ,48,1623209802852 ,15,0431287711465
36.0897661 ,Left ,56,7794310455488 ,48,2419124560231 ,14,8883538180547
36.1423292 ,Left ,56,4283268774407 ,48,3857069627714 ,14,382253674667
36.1795943 ,Left ,56,2273017785684 ,48,3590450637148 ,14,0303256966727
36.202301 ,Left ,56,151754911849 ,48,3351516518544 ,13,8958038446339
36.2396909 ,Left ,56,0833175181554 ,48,318445692494 ,13,7417792741934
36.2622523 ,Left ,56,0191147618622 ,48,2694187687298 ,13,7367046701506
36.2772835 ,Left ,56,0192640907308 ,48,1674353680172 ,13,746505604275
36.2997202 ,Left ,56,1601331533206 ,48,1957696148709 ,13,8294506676443
36.3220879 ,Left ,56,1978805859613 ,48,2894099039851 ,13,9248113615418
36.3597248 ,Left ,56,3773443844663 ,48,0304291083764 ,14,2147077526743
36.3821578 ,Left ,56,6437694825535 ,47,8246078552465 ,14,3086162330481
36.4273924 ,Left ,57,0080703437506 ,47,6500402377049 ,14,3901219738632
36.4800907 ,Left ,57,1083934662705 ,47,5197847871355 ,14,6792692943642
36.4948147 ,Left ,57,3806343685332 ,47,4343426620972 ,14,7423147597876
36.5169647 ,Left ,57,5192387118407 ,47,459142476278 ,14,7871757896325
36.5320384 ,Left ,57,5550912387982 ,47,5087502778656 ,14,8544155483066
36.5621905 ,Left ,57,5792299371491 ,47,4948701671603 ,14,9388833571412
36.6145865 ,Left ,57,8592374439425 ,47,3271817452332 ,15,1581598930774
36.6372293 ,Left ,57,9059767141154 ,47,2971245026453 ,15,2515446272055
36.6522771 ,Left ,57,9471690375179 ,47,2967535847964 ,15,3531062099784
36.6744395 ,Left ,57,9815886034344 ,47,3035278054687 ,15,4726538175358
36.7044644 ,Left ,58,003636488606 ,47,2985877067689 ,15,5839822559484
36.7194796 ,Left ,58,0374841947674 ,47,2792647399864 ,15,6689671246615
36.7569182 ,Left ,58,1545064724855 ,47,2625305795622 ,15,8538546849539
36.7720275 ,Left ,58,2004322430682 ,47,210578829951 ,15,9170446507286
36.7946761 ,Left ,58,2703655329767 ,47,1583811059417 ,15,9507096953642
36.8170787 ,Left ,58,3467122833743 ,47,1198308239754 ,15,9726545713366
36.8320372 ,Left ,58,3821210117779 ,47,1037327722722 ,16,003116722125
36.8544222 ,Left ,58,4045959353965 ,47,1236835795426 ,16,0434533399318
36.869547 ,Left ,58,4360077417504 ,47,1385657371935 ,16,0840094006176
36.892389 ,Left ,58,4538204600308 ,47,1336690193845 ,16,1185398898148
36.9147956 ,Left ,58,4956969996272 ,47,1311326894479 ,16,137554981134
36.9373384 ,Left ,58,5347375499049 ,47,1476986838887 ,16,1571247248233
36.9520625 ,Left ,58,5614704155477 ,47,1718444485925 ,16,1912243505264
36.9746105 ,Left ,58,5832645380696 ,47,1944902370014 ,16,2315597413258
36.9971099 ,Left ,58,5993240190997 ,47,1939594292799 ,16,2690063485377
37.0119133 ,Left ,58,6558506041772 ,47,1689087418151 ,16,2947424602234
37.0571708 ,Left ,58,7200824875174 ,47,1655000336197 ,16,3319359955158
37.0870972 ,Left ,58,7275630599549 ,47,191035052159 ,16,3739244853965
37.1395308 ,Left ,58,7314028788053 ,47,3725705189765 ,16,4720254970094
37.1774256 ,Left ,58,7643427608669 ,47,6864069275852 ,16,50223522659
37.1993414 ,Left ,58,672635918278 ,47,602044468674 ,16,5305883963563
37.2371425 ,Left ,58,6525622288484 ,47,5957944095905 ,16,5583905664328
37.2596838 ,Left ,58,6013372303112 ,47,5536540135113 ,16,5686673163674
37.2972175 ,Left ,58,5497820783441 ,47,6124344621985 ,16,5729501495848
37.3195138 ,Left ,58,5122531383926 ,47,6280973911461 ,16,586464609729
37.3572988 ,Left ,58,4731036690058 ,47,6221408734526 ,16,5751290463416
37.3797431 ,Left ,58,4726056176505 ,47,8025812015561 ,16,5735192948446
37.4172141 ,Left ,58,3915930957896 ,47,9192083746553 ,16,5655241885496
37.439578 ,Left ,58,396106954048 ,47,9602862122529 ,16,5428910188803
37.484811 ,Left ,58,4132680934947 ,47,9413931753286 ,16,5114445880722
37.5070549 ,Left ,58,4082681158082 ,47,926847727494 ,16,4931234767489
37.5594224 ,Left ,58,2707298152906 ,47,9883441769534 ,16,5086534148784
37.5972128 ,Left ,58,1779287652293 ,47,914176203743 ,16,5157888914341
37.6195018 ,Left ,58,2292189310904 ,47,9166600226049 ,16,5224657708061
37.6495114 ,Left ,58,0603952735137 ,48,1607192033066 ,16,4787557494023
37.6720736 ,Left ,57,9682709547521 ,48,1302995374769 ,16,4191032128318
