timestamp,event,roll,pitch,yaw
0.0097853 ,Left ,63,6761437366165 ,46,2712274891154 ,74,1754383220832
0.0097876 ,Left ,63,6761437366165 ,46,2712274891154 ,74,1754383220832
0.0097894 ,Left ,63,6761437366165 ,46,2712274891154 ,74,1754383220832
0.0324425 ,Left ,63,6837933165045 ,46,3311306849488 ,74,2343030327929
0.0324443 ,Left ,63,6837933165045 ,46,3311306849488 ,74,2343030327929
0.0324457 ,Left ,63,6837933165045 ,46,3311306849488 ,74,2343030327929
0.0548624 ,Left ,63,6894819468038 ,46,4046796020135 ,74,2759303744709
0.0548644 ,Left ,63,6894819468038 ,46,4046796020135 ,74,2759303744709
0.0548659 ,Left ,63,6894819468038 ,46,4046796020135 ,74,2759303744709
0.0698736 ,Left ,63,6929573784989 ,46,4731407799195 ,74,3151458992111
0.0698753 ,Left ,63,6929573784989 ,46,4731407799195 ,74,3151458992111
0.0698768 ,Left ,63,6929573784989 ,46,4731407799195 ,74,3151458992111
0.0924302 ,Left ,63,6960534005509 ,46,5304891745436 ,74,3467245608546
0.0924324 ,Left ,63,6960534005509 ,46,5304891745436 ,74,3467245608546
0.0924342 ,Left ,63,6960534005509 ,46,5304891745436 ,74,3467245608546
0.114866 ,Left ,63,6974105262271 ,46,5797378176487 ,74,3591788269494
0.114868 ,Left ,63,6974105262271 ,46,5797378176487 ,74,3591788269494
0.1148697 ,Left ,63,6974105262271 ,46,5797378176487 ,74,3591788269494
0.1298826 ,Left ,63,6996365377132 ,46,6192350494955 ,74,3559318542955
0.1298974 ,Left ,63,6996365377132 ,46,6192350494955 ,74,3559318542955
0.1298988 ,Left ,63,6996365377132 ,46,6192350494955 ,74,3559318542955
0.1674919 ,Left ,63,7078186014012 ,46,6560367548902 ,74,3413818879773
0.1674941 ,Left ,63,7078186014012 ,46,6560367548902 ,74,3413818879773
0.1674959 ,Left ,63,7078186014012 ,46,6560367548902 ,74,3413818879773
0.1900601 ,Left ,63,7001129145763 ,46,683741199002 ,74,3241941173038
0.1900638 ,Left ,63,7001129145763 ,46,683741199002 ,74,3241941173038
0.1900668 ,Left ,63,7001129145763 ,46,683741199002 ,74,3241941173038
0.2052378 ,Left ,63,6855420927309 ,46,7019807496829 ,74,3043106180423
0.2052417 ,Left ,63,6855420927309 ,46,7019807496829 ,74,3043106180423
0.2052447 ,Left ,63,6855420927309 ,46,7019807496829 ,74,3043106180423
0.235044 ,Left ,63,6394760842692 ,46,7301017343297 ,74,2829025806863
0.2350469 ,Left ,63,6394760842692 ,46,7301017343297 ,74,2829025806863
0.2350491 ,Left ,63,6394760842692 ,46,7301017343297 ,74,2829025806863
0.2498992 ,Left ,63,5983093172965 ,46,7532688842762 ,74,2709865369389
0.249901 ,Left ,63,5983093172965 ,46,7532688842762 ,74,2709865369389
0.2499025 ,Left ,63,5983093172965 ,46,7532688842762 ,74,2709865369389
0.2725162 ,Left ,63,5596573227881 ,46,7754688517135 ,74,2598889662921
0.2725183 ,Left ,63,5596573227881 ,46,7754688517135 ,74,2598889662921
0.2725198 ,Left ,63,5596573227881 ,46,7754688517135 ,74,2598889662921
0.2951229 ,Left ,63,5179209930067 ,46,8017773138156 ,74,2550158050989
0.2951249 ,Left ,63,5179209930067 ,46,8017773138156 ,74,2550158050989
0.2951264 ,Left ,63,5179209930067 ,46,8017773138156 ,74,2550158050989
0.3098762 ,Left ,63,4747216397952 ,46,836457087535 ,74,2406330522438
0.3098781 ,Left ,63,4747216397952 ,46,836457087535 ,74,2406330522438
0.3098796 ,Left ,63,4747216397952 ,46,836457087535 ,74,2406330522438
0.3324697 ,Left ,63,4219163382136 ,46,8650399516334 ,74,2236943622639
0.3324719 ,Left ,63,4219163382136 ,46,8650399516334 ,74,2236943622639
0.3324755 ,Left ,63,4219163382136 ,46,8650399516334 ,74,2236943622639
0.355072 ,Left ,63,369044805186 ,46,8779775982064 ,74,213574881055
0.3550743 ,Left ,63,369044805186 ,46,8779775982064 ,74,213574881055
0.3550842 ,Left ,63,369044805186 ,46,8779775982064 ,74,213574881055
0.3698265 ,Left ,63,3190994355667 ,46,8759729586335 ,74,1991045675515
0.3698286 ,Left ,63,3190994355667 ,46,8759729586335 ,74,1991045675515
0.3698302 ,Left ,63,3190994355667 ,46,8759729586335 ,74,1991045675515
0.3925412 ,Left ,63,2779179183937 ,46,8562401522087 ,74,1778181297817
0.3925434 ,Left ,63,2779179183937 ,46,8562401522087 ,74,1778181297817
0.3925449 ,Left ,63,2779179183937 ,46,8562401522087 ,74,1778181297817
0.4148954 ,Left ,63,2276288321099 ,46,8277504101887 ,74,1446177678701
0.4148976 ,Left ,63,2276288321099 ,46,8277504101887 ,74,1446177678701
0.4148991 ,Left ,63,2276288321099 ,46,8277504101887 ,74,1446177678701
0.4301316 ,Left ,63,2041170026846 ,46,7934895377487 ,74,0967442960666
0.4301343 ,Left ,63,2041170026846 ,46,7934895377487 ,74,0967442960666
0.4301363 ,Left ,63,2041170026846 ,46,7934895377487 ,74,0967442960666
0.4526166 ,Left ,63,1866553072075 ,46,7581349963999 ,74,0325251998563
0.4526198 ,Left ,63,1866553072075 ,46,7581349963999 ,74,0325251998563
0.4526222 ,Left ,63,1866553072075 ,46,7581349963999 ,74,0325251998563
0.4751186 ,Left ,63,1628488750457 ,46,7160626528526 ,73,9669743443703
0.4751215 ,Left ,63,1628488750457 ,46,7160626528526 ,73,9669743443703
0.475124 ,Left ,63,1628488750457 ,46,7160626528526 ,73,9669743443703
0.4899452 ,Left ,63,1515433050629 ,46,6802381591712 ,73,8927594073377
0.4899479 ,Left ,63,1515433050629 ,46,6802381591712 ,73,8927594073377
0.4899503 ,Left ,63,1515433050629 ,46,6802381591712 ,73,8927594073377
0.512566 ,Left ,63,1208487725913 ,46,6476732183218 ,73,8133836127165
0.5125711 ,Left ,63,1208487725913 ,46,6476732183218 ,73,8133836127165
0.5125772 ,Left ,63,1208487725913 ,46,6476732183218 ,73,8133836127165
0.5348774 ,Left ,63,0882411994556 ,46,6247437220976 ,73,7375013815426
0.5348794 ,Left ,63,0882411994556 ,46,6247437220976 ,73,7375013815426
0.5348809 ,Left ,63,0882411994556 ,46,6247437220976 ,73,7375013815426
0.5501658 ,Left ,63,0918237683644 ,46,6118193504055 ,73,6795874865191
0.5501679 ,Left ,63,0918237683644 ,46,6118193504055 ,73,6795874865191
0.5501693 ,Left ,63,0918237683644 ,46,6118193504055 ,73,6795874865191
0.5724178 ,Left ,63,125188262524 ,46,6016952400604 ,73,6407141870305
0.57242 ,Left ,63,125188262524 ,46,6016952400604 ,73,6407141870305
0.5724215 ,Left ,63,125188262524 ,46,6016952400604 ,73,6407141870305
0.5948979 ,Left ,63,1393526877073 ,46,5841608261469 ,73,6208539924264
0.5948997 ,Left ,63,1393526877073 ,46,5841608261469 ,73,6208539924264
0.5949012 ,Left ,63,1393526877073 ,46,5841608261469 ,73,6208539924264
0.6098836 ,Left ,63,1533991253906 ,46,5697142672622 ,73,6111465204925
0.6098858 ,Left ,63,1533991253906 ,46,5697142672622 ,73,6111465204925
0.6098874 ,Left ,63,1533991253906 ,46,5697142672622 ,73,6111465204925
0.6323976 ,Left ,63,1946643507675 ,46,5320474142825 ,73,6104303258038
0.6323995 ,Left ,63,1946643507675 ,46,5320474142825 ,73,6104303258038
0.6324011 ,Left ,63,1946643507675 ,46,5320474142825 ,73,6104303258038
0.6548378 ,Left ,63,2270103406628 ,46,4580669704908 ,73,6180588424376
0.654841 ,Left ,63,2270103406628 ,46,4580669704908 ,73,6180588424376
0.6548434 ,Left ,63,2270103406628 ,46,4580669704908 ,73,6180588424376
0.6700775 ,Left ,63,2388307089645 ,46,3698589239641 ,73,6210078015224
0.6700811 ,Left ,63,2388307089645 ,46,3698589239641 ,73,6210078015224
0.6700841 ,Left ,63,2388307089645 ,46,3698589239641 ,73,6210078015224
0.6924194 ,Left ,63,2548637705202 ,46,2994203501226 ,73,5736676196165
0.6924213 ,Left ,63,2548637705202 ,46,2994203501226 ,73,5736676196165
0.6924228 ,Left ,63,2548637705202 ,46,2994203501226 ,73,5736676196165
0.7149955 ,Left ,63,2338067726507 ,46,2401854412309 ,73,4886155359592
0.7149975 ,Left ,63,2338067726507 ,46,2401854412309 ,73,4886155359592
0.714999 ,Left ,63,2338067726507 ,46,2401854412309 ,73,4886155359592
0.7375101 ,Left ,63,1637965282189 ,46,1888374612417 ,73,3866761992012
0.7375124 ,Left ,63,1637965282189 ,46,1888374612417 ,73,3866761992012
0.7375142 ,Left ,63,1637965282189 ,46,1888374612417 ,73,3866761992012
0.7525207 ,Left ,63,1100174264443 ,46,1560844388462 ,73,2693963219252
0.7525237 ,Left ,63,1100174264443 ,46,1560844388462 ,73,2693963219252
0.7525258 ,Left ,63,1100174264443 ,46,1560844388462 ,73,2693963219252
0.7750723 ,Left ,63,0689517051645 ,46,1259227001518 ,73,1212247661197
0.7750757 ,Left ,63,0689517051645 ,46,1259227001518 ,73,1212247661197
0.7750784 ,Left ,63,0689517051645 ,46,1259227001518 ,73,1212247661197
0.7977522 ,Left ,62,9734015382806 ,46,1002760534937 ,72,9519408672129
0.7977562 ,Left ,62,9734015382806 ,46,1002760534937 ,72,9519408672129
0.7977593 ,Left ,62,9734015382806 ,46,1002760534937 ,72,9519408672129
0.8125949 ,Left ,62,8827895080154 ,46,0809866039741 ,72,7729877847762
0.8125987 ,Left ,62,8827895080154 ,46,0809866039741 ,72,7729877847762
0.8126018 ,Left ,62,8827895080154 ,46,0809866039741 ,72,7729877847762
0.8348162 ,Left ,62,7808595228438 ,46,0534142240252 ,72,6167442445211
0.8348181 ,Left ,62,7808595228438 ,46,0534142240252 ,72,6167442445211
0.8348197 ,Left ,62,7808595228438 ,46,0534142240252 ,72,6167442445211
0.8576354 ,Left ,62,7109651454128 ,46,0348015185224 ,72,4934230369374
0.8576374 ,Left ,62,7109651454128 ,46,0348015185224 ,72,4934230369374
0.8576389 ,Left ,62,7109651454128 ,46,0348015185224 ,72,4934230369374
0.8724562 ,Left ,62,6832254612536 ,46,0496198284996 ,72,4009455763092
0.8724584 ,Left ,62,6832254612536 ,46,0496198284996 ,72,4009455763092
0.87246 ,Left ,62,6832254612536 ,46,0496198284996 ,72,4009455763092
0.8949356 ,Left ,62,7246047619252 ,46,0717363729816 ,72,3396627868117
0.8949377 ,Left ,62,7246047619252 ,46,0717363729816 ,72,3396627868117
0.8949393 ,Left ,62,7246047619252 ,46,0717363729816 ,72,3396627868117
0.9174398 ,Left ,62,6830393496333 ,46,0625063126101 ,72,2596519425934
0.9174415 ,Left ,62,6830393496333 ,46,0625063126101 ,72,2596519425934
0.917443 ,Left ,62,6830393496333 ,46,0625063126101 ,72,2596519425934
0.9324947 ,Left ,62,6675334301839 ,46,0382222960503 ,72,1812068614832
0.9324972 ,Left ,62,6675334301839 ,46,0382222960503 ,72,1812068614832
0.9324991 ,Left ,62,6675334301839 ,46,0382222960503 ,72,1812068614832
0.9548581 ,Left ,62,6730643059703 ,46,0430315995561 ,72,1146357608941
0.9548603 ,Left ,62,6730643059703 ,46,0430315995561 ,72,1146357608941
0.954862 ,Left ,62,6730643059703 ,46,0430315995561 ,72,1146357608941
0.9776013 ,Left ,62,6252043609491 ,46,0689922238648 ,72,0542284368461
0.9776044 ,Left ,62,6252043609491 ,46,0689922238648 ,72,0542284368461
0.9776064 ,Left ,62,6252043609491 ,46,0689922238648 ,72,0542284368461
0.9926339 ,Left ,62,5779807053293 ,46,1014209772246 ,71,9733594151715
0.9926397 ,Left ,62,5779807053293 ,46,1014209772246 ,71,9733594151715
0.9926423 ,Left ,62,5779807053293 ,46,1014209772246 ,71,9733594151715
1.0149911 ,Left ,62,577587271503 ,46,1363272016702 ,71,8872582336543
1.0149942 ,Left ,62,577587271503 ,46,1363272016702 ,71,8872582336543
1.0149969 ,Left ,62,577587271503 ,46,1363272016702 ,71,8872582336543
1.0376844 ,Left ,62,6090301721734 ,46,1632302677268 ,71,806145149128
1.0376873 ,Left ,62,6090301721734 ,46,1632302677268 ,71,806145149128
1.0376895 ,Left ,62,6090301721734 ,46,1632302677268 ,71,806145149128
1.0525636 ,Left ,62,6031645652474 ,46,1786760513827 ,71,7386006736021
1.0525668 ,Left ,62,6031645652474 ,46,1786760513827 ,71,7386006736021
1.052569 ,Left ,62,6031645652474 ,46,1786760513827 ,71,7386006736021
1.0748933 ,Left ,62,5572540161316 ,46,1906332222445 ,71,6836851477327
1.0748951 ,Left ,62,5572540161316 ,46,1906332222445 ,71,6836851477327
1.0748966 ,Left ,62,5572540161316 ,46,1906332222445 ,71,6836851477327
1.097307 ,Left ,62,4858032469984 ,46,1950651666033 ,71,6406772995174
1.0973091 ,Left ,62,4858032469984 ,46,1950651666033 ,71,6406772995174
1.0973108 ,Left ,62,4858032469984 ,46,1950651666033 ,71,6406772995174
1.1126658 ,Left ,62,4397907017577 ,46,174508414526 ,71,5953809423074
1.1126686 ,Left ,62,4397907017577 ,46,174508414526 ,71,5953809423074
1.1126707 ,Left ,62,4397907017577 ,46,174508414526 ,71,5953809423074
1.1349186 ,Left ,62,4209250619586 ,46,1448174915993 ,71,564528887422
1.1349207 ,Left ,62,4209250619586 ,46,1448174915993 ,71,564528887422
1.1349223 ,Left ,62,4209250619586 ,46,1448174915993 ,71,564528887422
1.1574284 ,Left ,62,411949945203 ,46,1407609084176 ,71,5245007245107
1.1574306 ,Left ,62,411949945203 ,46,1407609084176 ,71,5245007245107
1.1574323 ,Left ,62,411949945203 ,46,1407609084176 ,71,5245007245107
1.172285 ,Left ,62,382490850389 ,46,1331280730626 ,71,4817291139718
1.1722871 ,Left ,62,382490850389 ,46,1331280730626 ,71,4817291139718
1.1722886 ,Left ,62,382490850389 ,46,1331280730626 ,71,4817291139718
1.1947907 ,Left ,62,3231242537984 ,46,1176073408824 ,71,4584112792027
1.1947924 ,Left ,62,3231242537984 ,46,1176073408824 ,71,4584112792027
1.1947939 ,Left ,62,3231242537984 ,46,1176073408824 ,71,4584112792027
1.2174797 ,Left ,62,2961635778579 ,46,1082955871861 ,71,4441487274925
1.2174822 ,Left ,62,2961635778579 ,46,1082955871861 ,71,4441487274925
1.2174841 ,Left ,62,2961635778579 ,46,1082955871861 ,71,4441487274925
1.232279 ,Left ,62,2925826538688 ,46,1105340418222 ,71,418779880896
1.2322811 ,Left ,62,2925826538688 ,46,1105340418222 ,71,418779880896
1.2322828 ,Left ,62,2925826538688 ,46,1105340418222 ,71,418779880896
1.254898 ,Left ,62,2683173892305 ,46,106169740278 ,71,3869489093741
1.2548999 ,Left ,62,2683173892305 ,46,106169740278 ,71,3869489093741
1.2549016 ,Left ,62,2683173892305 ,46,106169740278 ,71,3869489093741
1.2775923 ,Left ,62,2635756142507 ,46,0991562891189 ,71,3499825778404
1.2775943 ,Left ,62,2635756142507 ,46,0991562891189 ,71,3499825778404
1.2775957 ,Left ,62,2635756142507 ,46,0991562891189 ,71,3499825778404
1.2923663 ,Left ,62,2345208694275 ,46,084709302849 ,71,3169729870896
1.2923682 ,Left ,62,2345208694275 ,46,084709302849 ,71,3169729870896
1.2923697 ,Left ,62,2345208694275 ,46,084709302849 ,71,3169729870896
1.3149248 ,Left ,62,1999498787265 ,46,0787258330231 ,71,279995914285
1.3149275 ,Left ,62,1999498787265 ,46,0787258330231 ,71,279995914285
1.3149298 ,Left ,62,1999498787265 ,46,0787258330231 ,71,279995914285
1.337493 ,Left ,62,1164003121846 ,46,0901098108522 ,71,266725050598
1.337495 ,Left ,62,1164003121846 ,46,0901098108522 ,71,266725050598
1.3374965 ,Left ,62,1164003121846 ,46,0901098108522 ,71,266725050598
1.3524694 ,Left ,62,0174716283971 ,46,1417077116616 ,71,2715343019083
1.3524716 ,Left ,62,0174716283971 ,46,1417077116616 ,71,2715343019083
1.3524732 ,Left ,62,0174716283971 ,46,1417077116616 ,71,2715343019083
1.3749239 ,Left ,61,9276778173408 ,46,2163524018521 ,71,3132538367769
1.3749261 ,Left ,61,9276778173408 ,46,2163524018521 ,71,3132538367769
1.3749278 ,Left ,61,9276778173408 ,46,2163524018521 ,71,3132538367769
1.3976098 ,Left ,61,8840975268544 ,46,2406274489389 ,71,3788367518065
1.3976123 ,Left ,61,8840975268544 ,46,2406274489389 ,71,3788367518065
1.3976142 ,Left ,61,8840975268544 ,46,2406274489389 ,71,3788367518065
1.4125597 ,Left ,61,9107766224222 ,46,2284169958818 ,71,4474344396803
1.4125624 ,Left ,61,9107766224222 ,46,2284169958818 ,71,4474344396803
1.4125645 ,Left ,61,9107766224222 ,46,2284169958818 ,71,4474344396803
1.4349833 ,Left ,62,0127885105603 ,46,2227369448773 ,71,5028764050324
1.4349862 ,Left ,62,0127885105603 ,46,2227369448773 ,71,5028764050324
1.4349885 ,Left ,62,0127885105603 ,46,2227369448773 ,71,5028764050324
1.4574165 ,Left ,62,0862687897486 ,46,2295982044202 ,71,520283699364
1.4574183 ,Left ,62,0862687897486 ,46,2295982044202 ,71,520283699364
1.4574199 ,Left ,62,0862687897486 ,46,2295982044202 ,71,520283699364
1.4725202 ,Left ,62,128974831138 ,46,237948402695 ,71,5178909957365
1.4725227 ,Left ,62,128974831138 ,46,237948402695 ,71,5178909957365
1.4725247 ,Left ,62,128974831138 ,46,237948402695 ,71,5178909957365
1.4948493 ,Left ,62,2006025276698 ,46,2609677114811 ,71,5320039007516
1.4948542 ,Left ,62,2006025276698 ,46,2609677114811 ,71,5320039007516
1.4948561 ,Left ,62,2006025276698 ,46,2609677114811 ,71,5320039007516
1.5176762 ,Left ,62,264258187005 ,46,2814015832944 ,71,543862301066
1.5176784 ,Left ,62,264258187005 ,46,2814015832944 ,71,543862301066
1.51768 ,Left ,62,264258187005 ,46,2814015832944 ,71,543862301066
1.5331379 ,Left ,62,3153026869136 ,46,2853390547588 ,71,5449455446705
1.5332117 ,Left ,62,3153026869136 ,46,2853390547588 ,71,5449455446705
1.5332194 ,Left ,62,3153026869136 ,46,2853390547588 ,71,5449455446705
1.5555211 ,Left ,62,3600753834089 ,46,2760592251619 ,71,5376528944241
1.5555288 ,Left ,62,3600753834089 ,46,2760592251619 ,71,5376528944241
1.5555355 ,Left ,62,3600753834089 ,46,2760592251619 ,71,5376528944241
1.5775243 ,Left ,62,39500807916 ,46,2378394821961 ,71,5129986362634
1.5775279 ,Left ,62,39500807916 ,46,2378394821961 ,71,5129986362634
1.5775308 ,Left ,62,39500807916 ,46,2378394821961 ,71,5129986362634
1.5926766 ,Left ,62,4199113444461 ,46,1850557284969 ,71,4672587045286
1.5926797 ,Left ,62,4199113444461 ,46,1850557284969 ,71,4672587045286
1.5926821 ,Left ,62,4199113444461 ,46,1850557284969 ,71,4672587045286
1.6150898 ,Left ,62,3830210127795 ,46,1349532341165 ,71,3978902435568
1.615093 ,Left ,62,3830210127795 ,46,1349532341165 ,71,3978902435568
1.6150954 ,Left ,62,3830210127795 ,46,1349532341165 ,71,3978902435568
1.6374917 ,Left ,62,3313832339937 ,46,1166325648049 ,71,313575451314
1.6374947 ,Left ,62,3313832339937 ,46,1166325648049 ,71,313575451314
1.6374971 ,Left ,62,3313832339937 ,46,1166325648049 ,71,313575451314
1.6599208 ,Left ,62,2540504668045 ,46,1086336335793 ,71,2276964234768
1.6599226 ,Left ,62,2540504668045 ,46,1086336335793 ,71,2276964234768
1.6599242 ,Left ,62,2540504668045 ,46,1086336335793 ,71,2276964234768
1.6750182 ,Left ,62,1875734191842 ,46,10242385336 ,71,1703995944102
1.6750202 ,Left ,62,1875734191842 ,46,10242385336 ,71,1703995944102
1.6750216 ,Left ,62,1875734191842 ,46,10242385336 ,71,1703995944102
1.6975212 ,Left ,62,0865378321374 ,46,0840358881087 ,71,1250370890336
1.6975246 ,Left ,62,0865378321374 ,46,0840358881087 ,71,1250370890336
1.6975261 ,Left ,62,0865378321374 ,46,0840358881087 ,71,1250370890336
1.7199348 ,Left ,61,958730534186 ,46,0352390674185 ,71,1018434042389
1.7199372 ,Left ,61,958730534186 ,46,0352390674185 ,71,1018434042389
1.7199391 ,Left ,61,958730534186 ,46,0352390674185 ,71,1018434042389
1.734858 ,Left ,61,937838307347 ,45,9696434776648 ,71,1388208130129
1.7348731 ,Left ,61,937838307347 ,45,9696434776648 ,71,1388208130129
1.7348746 ,Left ,61,937838307347 ,45,9696434776648 ,71,1388208130129
1.7582439 ,Left ,61,9011946493507 ,45,8978798660957 ,71,2215298092822
1.7582517 ,Left ,61,9011946493507 ,45,8978798660957 ,71,2215298092822
1.7582583 ,Left ,61,9011946493507 ,45,8978798660957 ,71,2215298092822
1.7807955 ,Left ,61,9688132942334 ,45,9283192688013 ,71,2771496809339
1.7808035 ,Left ,61,9688132942334 ,45,9283192688013 ,71,2771496809339
1.7808102 ,Left ,61,9688132942334 ,45,9283192688013 ,71,2771496809339
1.7955211 ,Left ,62,0896541356878 ,46,0196618587546 ,71,2644584225323
1.7955288 ,Left ,62,0896541356878 ,46,0196618587546 ,71,2644584225323
1.7955355 ,Left ,62,0896541356878 ,46,0196618587546 ,71,2644584225323
1.8175921 ,Left ,62,1494040016193 ,46,1126157488429 ,71,2190430412556
1.8175966 ,Left ,62,1494040016193 ,46,1126157488429 ,71,2190430412556
1.8176002 ,Left ,62,1494040016193 ,46,1126157488429 ,71,2190430412556
1.8476298 ,Left ,62,126377711492 ,46,1675479608781 ,71,2010915198022
1.8476334 ,Left ,62,126377711492 ,46,1675479608781 ,71,2010915198022
1.8476362 ,Left ,62,126377711492 ,46,1675479608781 ,71,2010915198022
1.8625761 ,Left ,62,0437938561358 ,46,2062938706085 ,71,1828465743127
1.8625796 ,Left ,62,0437938561358 ,46,2062938706085 ,71,1828465743127
1.8625825 ,Left ,62,0437938561358 ,46,2062938706085 ,71,1828465743127
1.9002793 ,Left ,61,8936875559312 ,46,1090705491669 ,71,1927461663295
1.9002854 ,Left ,61,8936875559312 ,46,1090705491669 ,71,1927461663295
1.9002883 ,Left ,61,8936875559312 ,46,1090705491669 ,71,1927461663295
1.9150918 ,Left ,61,8851839662613 ,46,0143262835706 ,71,2818167930555
1.9150955 ,Left ,61,8851839662613 ,46,0143262835706 ,71,2818167930555
1.9150983 ,Left ,61,8851839662613 ,46,0143262835706 ,71,2818167930555
1.9373854 ,Left ,61,9541807743126 ,46,003374766892 ,71,3504285835509
1.9373873 ,Left ,61,9541807743126 ,46,003374766892 ,71,3504285835509
1.9373888 ,Left ,61,9541807743126 ,46,003374766892 ,71,3504285835509
1.9676617 ,Left ,62,0510348555541 ,46,0932888464411 ,71,3329528639669
1.9676641 ,Left ,62,0510348555541 ,46,0932888464411 ,71,3329528639669
1.9676658 ,Left ,62,0510348555541 ,46,0932888464411 ,71,3329528639669
1.9824943 ,Left ,62,1695006449006 ,46,1778613950501 ,71,2913473113418
1.9824968 ,Left ,62,1695006449006 ,46,1778613950501 ,71,2913473113418
1.9824986 ,Left ,62,1695006449006 ,46,1778613950501 ,71,2913473113418
2.0049206 ,Left ,62,2222978055063 ,46,2244865162452 ,71,2780617320677
2.0049229 ,Left ,62,2222978055063 ,46,2244865162452 ,71,2780617320677
2.0049248 ,Left ,62,2222978055063 ,46,2244865162452 ,71,2780617320677
2.0200559 ,Left ,62,2560538363927 ,46,2397586765698 ,71,2760689666486
2.0200591 ,Left ,62,2560538363927 ,46,2397586765698 ,71,2760689666486
2.0200618 ,Left ,62,2560538363927 ,46,2397586765698 ,71,2760689666486
2.0351157 ,Left ,62,2255603881692 ,46,2580696400562 ,71,2504327570684
2.035119 ,Left ,62,2255603881692 ,46,2580696400562 ,71,2504327570684
2.0351217 ,Left ,62,2255603881692 ,46,2580696400562 ,71,2504327570684
2.0574304 ,Left ,62,2082084200628 ,46,2733744152008 ,71,2043426602058
2.0574322 ,Left ,62,2082084200628 ,46,2733744152008 ,71,2043426602058
2.0574337 ,Left ,62,2082084200628 ,46,2733744152008 ,71,2043426602058
2.0800797 ,Left ,62,1723916440326 ,46,2786349516366 ,71,1457783624564
2.0800823 ,Left ,62,1723916440326 ,46,2786349516366 ,71,1457783624564
2.0800838 ,Left ,62,1723916440326 ,46,2786349516366 ,71,1457783624564
2.0951241 ,Left ,62,1742764312472 ,46,300517071076 ,71,0865815267783
2.0951264 ,Left ,62,1742764312472 ,46,300517071076 ,71,0865815267783
2.0951281 ,Left ,62,1742764312472 ,46,300517071076 ,71,0865815267783
2.1174189 ,Left ,62,1523080252496 ,46,3077022225948 ,71,0206034291714
2.1174208 ,Left ,62,1523080252496 ,46,3077022225948 ,71,0206034291714
2.1174222 ,Left ,62,1523080252496 ,46,3077022225948 ,71,0206034291714
2.1399979 ,Left ,62,1069617642986 ,46,3140831282889 ,70,9637300243597
2.14 ,Left ,62,1069617642986 ,46,3140831282889 ,70,9637300243597
2.1400017 ,Left ,62,1069617642986 ,46,3140831282889 ,70,9637300243597
2.1550882 ,Left ,62,0422685963781 ,46,3074044354925 ,70,912904442858
2.1550905 ,Left ,62,0422685963781 ,46,3074044354925 ,70,912904442858
2.1550923 ,Left ,62,0422685963781 ,46,3074044354925 ,70,912904442858
2.1776927 ,Left ,61,9839534630013 ,46,3014837548331 ,70,8637231039596
2.1776954 ,Left ,61,9839534630013 ,46,3014837548331 ,70,8637231039596
2.1776975 ,Left ,61,9839534630013 ,46,3014837548331 ,70,8637231039596
2.2003484 ,Left ,61,9526086433872 ,46,2942770993054 ,70,8004281951616
2.2003521 ,Left ,61,9526086433872 ,46,2942770993054 ,70,8004281951616
2.2003551 ,Left ,61,9526086433872 ,46,2942770993054 ,70,8004281951616
2.2148935 ,Left ,61,9420723236722 ,46,280378295198 ,70,7556800641013
2.2148954 ,Left ,61,9420723236722 ,46,280378295198 ,70,7556800641013
2.2148969 ,Left ,61,9420723236722 ,46,280378295198 ,70,7556800641013
2.2376646 ,Left ,61,9517450660094 ,46,2736975879728 ,70,7470925478438
2.2376666 ,Left ,61,9517450660094 ,46,2736975879728 ,70,7470925478438
2.2376681 ,Left ,61,9517450660094 ,46,2736975879728 ,70,7470925478438
2.2601994 ,Left ,61,9624737684623 ,46,2579883098235 ,70,7634267749737
2.2602019 ,Left ,61,9624737684623 ,46,2579883098235 ,70,7634267749737
2.2602038 ,Left ,61,9624737684623 ,46,2579883098235 ,70,7634267749737
2.2749599 ,Left ,61,9901130781218 ,46,2447734447757 ,70,7727531211519
2.274963 ,Left ,61,9901130781218 ,46,2447734447757 ,70,7727531211519
2.2749656 ,Left ,61,9901130781218 ,46,2447734447757 ,70,7727531211519
2.2975991 ,Left ,62,0020793416415 ,46,2353701221342 ,70,7719995082378
2.2976033 ,Left ,62,0020793416415 ,46,2353701221342 ,70,7719995082378
2.2976068 ,Left ,62,0020793416415 ,46,2353701221342 ,70,7719995082378
2.3201936 ,Left ,61,9853520665186 ,46,2370675197847 ,70,7638749720671
2.320198 ,Left ,61,9853520665186 ,46,2370675197847 ,70,7638749720671
2.3202015 ,Left ,61,9853520665186 ,46,2370675197847 ,70,7638749720671
2.3352421 ,Left ,61,9676885061492 ,46,2543340775071 ,70,7468517040127
2.3352465 ,Left ,61,9676885061492 ,46,2543340775071 ,70,7468517040127
2.33525 ,Left ,61,9676885061492 ,46,2543340775071 ,70,7468517040127
2.3578628 ,Left ,61,9663505494592 ,46,2822486028946 ,70,7170643570908
2.3578673 ,Left ,61,9663505494592 ,46,2822486028946 ,70,7170643570908
2.3578709 ,Left ,61,9663505494592 ,46,2822486028946 ,70,7170643570908
2.380115 ,Left ,61,9849584269794 ,46,3072081438471 ,70,6600784482956
2.3801195 ,Left ,61,9849584269794 ,46,3072081438471 ,70,6600784482956
2.3801231 ,Left ,61,9849584269794 ,46,3072081438471 ,70,6600784482956
2.3951328 ,Left ,61,9636883116981 ,46,3362505460813 ,70,5941754566377
2.3951365 ,Left ,61,9636883116981 ,46,3362505460813 ,70,5941754566377
2.3951393 ,Left ,61,9636883116981 ,46,3362505460813 ,70,5941754566377
2.4176317 ,Left ,61,8944656093084 ,46,3666648323861 ,70,5280937612007
2.4176352 ,Left ,61,8944656093084 ,46,3666648323861 ,70,5280937612007
2.4176381 ,Left ,61,8944656093084 ,46,3666648323861 ,70,5280937612007
2.439944 ,Left ,61,8117634865569 ,46,3904941079467 ,70,4714036421847
2.4399459 ,Left ,61,8117634865569 ,46,3904941079467 ,70,4714036421847
2.4399473 ,Left ,61,8117634865569 ,46,3904941079467 ,70,4714036421847
2.4551062 ,Left ,61,6956443970131 ,46,4199870435381 ,70,4296512021527
2.4551082 ,Left ,61,6956443970131 ,46,4199870435381 ,70,4296512021527
2.4551097 ,Left ,61,6956443970131 ,46,4199870435381 ,70,4296512021527
2.4773984 ,Left ,61,5822058332576 ,46,4549519528526 ,70,3770299318733
2.4774003 ,Left ,61,5822058332576 ,46,4549519528526 ,70,3770299318733
2.4774019 ,Left ,61,5822058332576 ,46,4549519528526 ,70,3770299318733
2.5008768 ,Left ,61,4610561040695 ,46,4711639528627 ,70,3096037736743
2.5008848 ,Left ,61,4610561040695 ,46,4711639528627 ,70,3096037736743
2.5008917 ,Left ,61,4610561040695 ,46,4711639528627 ,70,3096037736743
2.5155083 ,Left ,61,3455154849673 ,46,4800244179856 ,70,2709797840707
2.5155163 ,Left ,61,3455154849673 ,46,4800244179856 ,70,2709797840707
2.5155231 ,Left ,61,3455154849673 ,46,4800244179856 ,70,2709797840707
2.537686 ,Left ,61,2602434020732 ,46,4708498531284 ,70,2325194179833
2.5376916 ,Left ,61,2602434020732 ,46,4708498531284 ,70,2325194179833
2.5376962 ,Left ,61,2602434020732 ,46,4708498531284 ,70,2325194179833
2.5599968 ,Left ,61,1993222287964 ,46,4506649151615 ,70,2246931497297
2.5599998 ,Left ,61,1993222287964 ,46,4506649151615 ,70,2246931497297
2.5600023 ,Left ,61,1993222287964 ,46,4506649151615 ,70,2246931497297
2.5823977 ,Left ,61,1398382816817 ,46,455281442922 ,70,2483733891034
2.5823995 ,Left ,61,1398382816817 ,46,455281442922 ,70,2483733891034
2.5824009 ,Left ,61,1398382816817 ,46,455281442922 ,70,2483733891034
2.5972865 ,Left ,61,0340234509099 ,46,5016721498291 ,70,2446581989173
2.5972882 ,Left ,61,0340234509099 ,46,5016721498291 ,70,2446581989173
2.5972897 ,Left ,61,0340234509099 ,46,5016721498291 ,70,2446581989173
2.6199016 ,Left ,60,9578272683137 ,46,5679444051919 ,70,235422965479
2.6199037 ,Left ,60,9578272683137 ,46,5679444051919 ,70,235422965479
2.6199054 ,Left ,60,9578272683137 ,46,5679444051919 ,70,235422965479
2.6423673 ,Left ,61,0024999395928 ,46,6193733384249 ,70,2655241134741
2.6423696 ,Left ,61,0024999395928 ,46,6193733384249 ,70,2655241134741
2.6423715 ,Left ,61,0024999395928 ,46,6193733384249 ,70,2655241134741
2.6576313 ,Left ,61,0909931491634 ,46,6512356205379 ,70,29210742284
2.6576348 ,Left ,61,0909931491634 ,46,6512356205379 ,70,29210742284
2.6576374 ,Left ,61,0909931491634 ,46,6512356205379 ,70,29210742284
2.6802698 ,Left ,61,1913860739777 ,46,6809996981762 ,70,2860265099133
2.6802718 ,Left ,61,1913860739777 ,46,6809996981762 ,70,2860265099133
2.6802732 ,Left ,61,1913860739777 ,46,6809996981762 ,70,2860265099133
2.7024283 ,Left ,61,2428846026621 ,46,6657915751859 ,70,2611199392248
2.7024304 ,Left ,61,2428846026621 ,46,6657915751859 ,70,2611199392248
2.7024319 ,Left ,61,2428846026621 ,46,6657915751859 ,70,2611199392248
2.7175114 ,Left ,61,3190086291231 ,46,6255434298466 ,70,2675135295145
2.7175145 ,Left ,61,3190086291231 ,46,6255434298466 ,70,2675135295145
2.717516 ,Left ,61,3190086291231 ,46,6255434298466 ,70,2675135295145
2.7403914 ,Left ,61,3802072583434 ,46,5698417248012 ,70,3121761797111
2.7403993 ,Left ,61,3802072583434 ,46,5698417248012 ,70,3121761797111
2.740406 ,Left ,61,3802072583434 ,46,5698417248012 ,70,3121761797111
2.7633484 ,Left ,61,4611034110619 ,46,5000639169944 ,70,3587361029495
2.7633565 ,Left ,61,4611034110619 ,46,5000639169944 ,70,3587361029495
2.7633631 ,Left ,61,4611034110619 ,46,5000639169944 ,70,3587361029495
2.7779539 ,Left ,61,5694326356721 ,46,4446729097828 ,70,3770409748232
2.7779617 ,Left ,61,5694326356721 ,46,4446729097828 ,70,3770409748232
2.7779685 ,Left ,61,5694326356721 ,46,4446729097828 ,70,3770409748232
2.8001874 ,Left ,61,6926856923244 ,46,4180347490079 ,70,3609864338388
2.8001905 ,Left ,61,6926856923244 ,46,4180347490079 ,70,3609864338388
2.800193 ,Left ,61,6926856923244 ,46,4180347490079 ,70,3609864338388
2.8233013 ,Left ,61,7729235592884 ,46,4194564296872 ,70,3354620251065
2.8233095 ,Left ,61,7729235592884 ,46,4194564296872 ,70,3354620251065
2.8233162 ,Left ,61,7729235592884 ,46,4194564296872 ,70,3354620251065
2.838088 ,Left ,61,77681889362 ,46,4560651610644 ,70,3153016786087
2.8380959 ,Left ,61,77681889362 ,46,4560651610644 ,70,3153016786087
2.8381026 ,Left ,61,77681889362 ,46,4560651610644 ,70,3153016786087
2.8602234 ,Left ,61,7782407859714 ,46,5087885941194 ,70,2917887655167
2.8602292 ,Left ,61,7782407859714 ,46,5087885941194 ,70,2917887655167
2.8602338 ,Left ,61,7782407859714 ,46,5087885941194 ,70,2917887655167
2.8824942 ,Left ,61,738241809451 ,46,5644725340382 ,70,2805326202233
2.882497 ,Left ,61,738241809451 ,46,5644725340382 ,70,2805326202233
2.8824991 ,Left ,61,738241809451 ,46,5644725340382 ,70,2805326202233
2.8975171 ,Left ,61,6837292950574 ,46,6268708795228 ,70,2795558595101
2.8975197 ,Left ,61,6837292950574 ,46,6268708795228 ,70,2795558595101
2.8975218 ,Left ,61,6837292950574 ,46,6268708795228 ,70,2795558595101
2.9200167 ,Left ,61,6222774232276 ,46,6851345155846 ,70,286524482899
2.9200195 ,Left ,61,6222774232276 ,46,6851345155846 ,70,286524482899
2.9200217 ,Left ,61,6222774232276 ,46,6851345155846 ,70,286524482899
2.9424953 ,Left ,61,5435674867973 ,46,7492319826448 ,70,3055710545915
2.942498 ,Left ,61,5435674867973 ,46,7492319826448 ,70,3055710545915
2.9425001 ,Left ,61,5435674867973 ,46,7492319826448 ,70,3055710545915
2.9572702 ,Left ,61,434790647994 ,46,8316062652123 ,70,3058736531096
2.9572723 ,Left ,61,434790647994 ,46,8316062652123 ,70,3058736531096
2.9572869 ,Left ,61,434790647994 ,46,8316062652123 ,70,3058736531096
2.9798977 ,Left ,61,3659227849948 ,46,9198488901404 ,70,2805154259323
2.9798998 ,Left ,61,3659227849948 ,46,9198488901404 ,70,2805154259323
2.9799016 ,Left ,61,3659227849948 ,46,9198488901404 ,70,2805154259323
3.0025073 ,Left ,61,3138541940672 ,46,9850519705363 ,70,248417839771
3.0025093 ,Left ,61,3138541940672 ,46,9850519705363 ,70,248417839771
3.0025109 ,Left ,61,3138541940672 ,46,9850519705363 ,70,248417839771
3.0176185 ,Left ,61,2750490715559 ,47,0124988022853 ,70,2179625178569
3.017621 ,Left ,61,2750490715559 ,47,0124988022853 ,70,2179625178569
3.0176229 ,Left ,61,2750490715559 ,47,0124988022853 ,70,2179625178569
3.0400143 ,Left ,61,1850273660685 ,47,0268379290047 ,70,1767649670665
3.0400167 ,Left ,61,1850273660685 ,47,0268379290047 ,70,1767649670665
3.0400186 ,Left ,61,1850273660685 ,47,0268379290047 ,70,1767649670665
3.0626844 ,Left ,61,0137128078471 ,47,0332328428036 ,70,1220052448652
3.0626873 ,Left ,61,0137128078471 ,47,0332328428036 ,70,1220052448652
3.0626897 ,Left ,61,0137128078471 ,47,0332328428036 ,70,1220052448652
3.0775029 ,Left ,60,8220350535991 ,46,9840201234873 ,70,0535750203875
3.0775049 ,Left ,60,8220350535991 ,46,9840201234873 ,70,0535750203875
3.0775064 ,Left ,60,8220350535991 ,46,9840201234873 ,70,0535750203875
3.1002194 ,Left ,60,6884169530835 ,46,9080219751729 ,70,0491457581228
3.1002214 ,Left ,60,6884169530835 ,46,9080219751729 ,70,0491457581228
3.1002229 ,Left ,60,6884169530835 ,46,9080219751729 ,70,0491457581228
3.1225229 ,Left ,60,6094263637372 ,46,8619013459145 ,70,0732746788409
3.1225249 ,Left ,60,6094263637372 ,46,8619013459145 ,70,0732746788409
3.1225264 ,Left ,60,6094263637372 ,46,8619013459145 ,70,0732746788409
3.1374362 ,Left ,60,5659234918711 ,46,881132255973 ,70,1426644864266
3.1374381 ,Left ,60,5659234918711 ,46,881132255973 ,70,1426644864266
3.1374396 ,Left ,60,5659234918711 ,46,881132255973 ,70,1426644864266
3.1599938 ,Left ,60,683163994694 ,46,9383433248424 ,70,2225117818264
3.1599962 ,Left ,60,683163994694 ,46,9383433248424 ,70,2225117818264
3.1599981 ,Left ,60,683163994694 ,46,9383433248424 ,70,2225117818264
3.1823939 ,Left ,60,7905169369727 ,46,9415455224319 ,70,2676601901436
3.1823963 ,Left ,60,7905169369727 ,46,9415455224319 ,70,2676601901436
3.1823982 ,Left ,60,7905169369727 ,46,9415455224319 ,70,2676601901436
3.1977765 ,Left ,60,9012858932544 ,46,9194420358858 ,70,2826996561628
3.197779 ,Left ,60,9012858932544 ,46,9194420358858 ,70,2826996561628
3.197781 ,Left ,60,9012858932544 ,46,9194420358858 ,70,2826996561628
3.2200469 ,Left ,61,0541736172305 ,46,8938015023523 ,70,2619701704214
3.2200506 ,Left ,61,0541736172305 ,46,8938015023523 ,70,2619701704214
3.2200532 ,Left ,61,0541736172305 ,46,8938015023523 ,70,2619701704214
3.242558 ,Left ,61,1946020203845 ,46,8304864487269 ,70,2196624976685
3.2425611 ,Left ,61,1946020203845 ,46,8304864487269 ,70,2196624976685
3.2425637 ,Left ,61,1946020203845 ,46,8304864487269 ,70,2196624976685
3.2574271 ,Left ,61,2965046977744 ,46,7432935239164 ,70,203189165888
3.2574303 ,Left ,61,2965046977744 ,46,7432935239164 ,70,203189165888
3.2574329 ,Left ,61,2965046977744 ,46,7432935239164 ,70,203189165888
3.2798639 ,Left ,61,4301013405932 ,46,6565904835472 ,70,1949212680173
3.2798658 ,Left ,61,4301013405932 ,46,6565904835472 ,70,1949212680173
3.2798673 ,Left ,61,4301013405932 ,46,6565904835472 ,70,1949212680173
3.3026543 ,Left ,61,5643116918806 ,46,5948044171043 ,70,2075617149243
3.3026566 ,Left ,61,5643116918806 ,46,5948044171043 ,70,2075617149243
3.3026583 ,Left ,61,5643116918806 ,46,5948044171043 ,70,2075617149243
3.3173915 ,Left ,61,6747632072481 ,46,5493305614128 ,70,2131525920885
3.3173942 ,Left ,61,6747632072481 ,46,5493305614128 ,70,2131525920885
3.3173966 ,Left ,61,6747632072481 ,46,5493305614128 ,70,2131525920885
3.3400232 ,Left ,61,7738151283759 ,46,5230746236327 ,70,1959992779479
3.3400254 ,Left ,61,7738151283759 ,46,5230746236327 ,70,1959992779479
3.340027 ,Left ,61,7738151283759 ,46,5230746236327 ,70,1959992779479
3.3625148 ,Left ,61,8112407203166 ,46,5073636125575 ,70,168216373158
3.3625168 ,Left ,61,8112407203166 ,46,5073636125575 ,70,168216373158
3.3625183 ,Left ,61,8112407203166 ,46,5073636125575 ,70,168216373158
3.3773845 ,Left ,61,7910895443664 ,46,4838990109977 ,70,1355119634043
3.3773864 ,Left ,61,7910895443664 ,46,4838990109977 ,70,1355119634043
3.3773879 ,Left ,61,7910895443664 ,46,4838990109977 ,70,1355119634043
3.3999001 ,Left ,61,7012079859768 ,46,4483300905549 ,70,1191257419856
3.399902 ,Left ,61,7012079859768 ,46,4483300905549 ,70,1191257419856
3.3999036 ,Left ,61,7012079859768 ,46,4483300905549 ,70,1191257419856
3.4225357 ,Left ,61,5909314496153 ,46,4328064282441 ,70,1191861515736
3.4225382 ,Left ,61,5909314496153 ,46,4328064282441 ,70,1191861515736
3.4225401 ,Left ,61,5909314496153 ,46,4328064282441 ,70,1191861515736
3.4376157 ,Left ,61,5399123150124 ,46,4474922973374 ,70,1178331915962
3.4376182 ,Left ,61,5399123150124 ,46,4474922973374 ,70,1178331915962
3.4376201 ,Left ,61,5399123150124 ,46,4474922973374 ,70,1178331915962
3.4599259 ,Left ,61,5095612195009 ,46,483399506672 ,70,1503755659718
3.4599283 ,Left ,61,5095612195009 ,46,483399506672 ,70,1503755659718
3.4599302 ,Left ,61,5095612195009 ,46,483399506672 ,70,1503755659718
3.4823203 ,Left ,61,5504892297613 ,46,5306156081935 ,70,2068101322364
3.4823229 ,Left ,61,5504892297613 ,46,5306156081935 ,70,2068101322364
3.4823249 ,Left ,61,5504892297613 ,46,5306156081935 ,70,2068101322364
3.5051412 ,Left ,61,5962189935241 ,46,5946805222144 ,70,2508321011617
3.5051437 ,Left ,61,5962189935241 ,46,5946805222144 ,70,2508321011617
3.5051456 ,Left ,61,5962189935241 ,46,5946805222144 ,70,2508321011617
3.5199469 ,Left ,61,6586713826136 ,46,6521993399552 ,70,2640214668453
3.5199494 ,Left ,61,6586713826136 ,46,6521993399552 ,70,2640214668453
3.5199514 ,Left ,61,6586713826136 ,46,6521993399552 ,70,2640214668453
3.5423498 ,Left ,61,7074372108699 ,46,6867481417705 ,70,2625025850023
3.5423516 ,Left ,61,7074372108699 ,46,6867481417705 ,70,2625025850023
3.5423531 ,Left ,61,7074372108699 ,46,6867481417705 ,70,2625025850023
3.5574698 ,Left ,61,7116401257505 ,46,6967294593859 ,70,2610667814717
3.5574722 ,Left ,61,7116401257505 ,46,6967294593859 ,70,2610667814717
3.5574742 ,Left ,61,7116401257505 ,46,6967294593859 ,70,2610667814717
3.5801995 ,Left ,61,7265899002191 ,46,7103759261748 ,70,2736253336609
3.5802021 ,Left ,61,7265899002191 ,46,7103759261748 ,70,2736253336609
3.5802039 ,Left ,61,7265899002191 ,46,7103759261748 ,70,2736253336609
3.6026709 ,Left ,61,7698903587031 ,46,7052787362798 ,70,2801981893167
3.6026751 ,Left ,61,7698903587031 ,46,7052787362798 ,70,2801981893167
3.602677 ,Left ,61,7698903587031 ,46,7052787362798 ,70,2801981893167
3.6176855 ,Left ,61,7913037773943 ,46,6627590608361 ,70,2866245171553
3.6176882 ,Left ,61,7913037773943 ,46,6627590608361 ,70,2866245171553
3.6176904 ,Left ,61,7913037773943 ,46,6627590608361 ,70,2866245171553
3.6399241 ,Left ,61,8238930916767 ,46,6020411656304 ,70,3057034367027
3.6399261 ,Left ,61,8238930916767 ,46,6020411656304 ,70,3057034367027
3.6399277 ,Left ,61,8238930916767 ,46,6020411656304 ,70,3057034367027
3.6627498 ,Left ,61,8787087916928 ,46,5529514076534 ,70,3271959844924
3.6627646 ,Left ,61,8787087916928 ,46,5529514076534 ,70,3271959844924
3.6627661 ,Left ,61,8787087916928 ,46,5529514076534 ,70,3271959844924
3.6775509 ,Left ,61,923787187101 ,46,5134704588407 ,70,3446593780748
3.677553 ,Left ,61,923787187101 ,46,5134704588407 ,70,3446593780748
3.6775545 ,Left ,61,923787187101 ,46,5134704588407 ,70,3446593780748
3.6924265 ,Left ,61,9446942717183 ,46,4840220027635 ,70,3551485945148
3.6924288 ,Left ,61,9446942717183 ,46,4840220027635 ,70,3551485945148
3.6924306 ,Left ,61,9446942717183 ,46,4840220027635 ,70,3551485945148
3.7151697 ,Left ,62,0024386112081 ,46,4637505100863 ,70,3650093347961
3.715172 ,Left ,62,0024386112081 ,46,4637505100863 ,70,3650093347961
3.7151737 ,Left ,62,0024386112081 ,46,4637505100863 ,70,3650093347961
3.7299566 ,Left ,62,0410353463796 ,46,4484800167904 ,70,3836690366284
3.7299611 ,Left ,62,0410353463796 ,46,4484800167904 ,70,3836690366284
3.7299633 ,Left ,62,0410353463796 ,46,4484800167904 ,70,3836690366284
3.7532443 ,Left ,62,0722961897175 ,46,4449637791306 ,70,4047439209821
3.7532526 ,Left ,62,0722961897175 ,46,4449637791306 ,70,4047439209821
3.7532623 ,Left ,62,0722961897175 ,46,4449637791306 ,70,4047439209821
3.7755432 ,Left ,62,0950770443189 ,46,4480496923719 ,70,4264703617994
3.7755513 ,Left ,62,0950770443189 ,46,4480496923719 ,70,4264703617994
3.775558 ,Left ,62,0950770443189 ,46,4480496923719 ,70,4264703617994
3.7907143 ,Left ,62,100934798102 ,46,4622694299533 ,70,4458118553314
3.7907223 ,Left ,62,100934798102 ,46,4622694299533 ,70,4458118553314
3.790729 ,Left ,62,100934798102 ,46,4622694299533 ,70,4458118553314
3.8129818 ,Left ,62,1103756518968 ,46,4777188858992 ,70,4636741761335
3.8129975 ,Left ,62,1103756518968 ,46,4777188858992 ,70,4636741761335
3.8130179 ,Left ,62,1103756518968 ,46,4777188858992 ,70,4636741761335
3.8352682 ,Left ,62,1278820761511 ,46,4900601256949 ,70,4793150166088
3.8352709 ,Left ,62,1278820761511 ,46,4900601256949 ,70,4793150166088
3.835273 ,Left ,62,1278820761511 ,46,4900601256949 ,70,4793150166088
3.8499712 ,Left ,62,1477982149753 ,46,5000465416605 ,70,4891349550696
3.8499762 ,Left ,62,1477982149753 ,46,5000465416605 ,70,4891349550696
3.8499785 ,Left ,62,1477982149753 ,46,5000465416605 ,70,4891349550696
3.8725555 ,Left ,62,1594212865914 ,46,4995032869475 ,70,4940579733771
3.8725582 ,Left ,62,1594212865914 ,46,4995032869475 ,70,4940579733771
3.8725603 ,Left ,62,1594212865914 ,46,4995032869475 ,70,4940579733771
3.8949361 ,Left ,62,1581900473906 ,46,498083830663 ,70,4933201832914
3.8949387 ,Left ,62,1581900473906 ,46,498083830663 ,70,4933201832914
3.8949408 ,Left ,62,1581900473906 ,46,498083830663 ,70,4933201832914
3.9102479 ,Left ,62,1634264923516 ,46,5047541301369 ,70,4939604396383
3.91025 ,Left ,62,1634264923516 ,46,5047541301369 ,70,4939604396383
3.9102515 ,Left ,62,1634264923516 ,46,5047541301369 ,70,4939604396383
3.9324771 ,Left ,62,1723616209502 ,46,5172499376447 ,70,4942744658431
3.9324792 ,Left ,62,1723616209502 ,46,5172499376447 ,70,4942744658431
3.9324808 ,Left ,62,1723616209502 ,46,5172499376447 ,70,4942744658431
3.9550119 ,Left ,62,1654334633188 ,46,5352330167677 ,70,5017013031812
3.9550149 ,Left ,62,1654334633188 ,46,5352330167677 ,70,5017013031812
3.9550169 ,Left ,62,1654334633188 ,46,5352330167677 ,70,5017013031812
3.9926223 ,Left ,62,1706099236298 ,46,5633418335842 ,70,4929751840344
3.9926253 ,Left ,62,1706099236298 ,46,5633418335842 ,70,4929751840344
3.9926278 ,Left ,62,1706099236298 ,46,5633418335842 ,70,4929751840344
4.0152054 ,Left ,62,1696788449042 ,46,5704969744128 ,70,48968682116
4.015213 ,Left ,62,1696788449042 ,46,5704969744128 ,70,48968682116
4.0152158 ,Left ,62,1696788449042 ,46,5704969744128 ,70,48968682116
4.0304978 ,Left ,62,1776523398405 ,46,5736729941478 ,70,4785725068584
4.0305056 ,Left ,62,1776523398405 ,46,5736729941478 ,70,4785725068584
4.0305125 ,Left ,62,1776523398405 ,46,5736729941478 ,70,4785725068584
4.0530162 ,Left ,62,1697818781229 ,46,5671708963799 ,70,4750079089373
4.0530242 ,Left ,62,1697818781229 ,46,5671708963799 ,70,4750079089373
4.0530308 ,Left ,62,1697818781229 ,46,5671708963799 ,70,4750079089373
4.0751489 ,Left ,62,1499849908372 ,46,5576595359034 ,70,4787935708234
4.075152 ,Left ,62,1499849908372 ,46,5576595359034 ,70,4787935708234
4.0751544 ,Left ,62,1499849908372 ,46,5576595359034 ,70,4787935708234
4.0900071 ,Left ,62,1261821517299 ,46,5504806650887 ,70,4824485232412
4.0900099 ,Left ,62,1261821517299 ,46,5504806650887 ,70,4824485232412
4.0900123 ,Left ,62,1261821517299 ,46,5504806650887 ,70,4824485232412
4.1126309 ,Left ,62,1045869531556 ,46,5565965975088 ,70,4883338292345
4.1126341 ,Left ,62,1045869531556 ,46,5565965975088 ,70,4883338292345
4.1126365 ,Left ,62,1045869531556 ,46,5565965975088 ,70,4883338292345
4.134977 ,Left ,62,0891193479156 ,46,5659669157106 ,70,4992351025131
4.1349791 ,Left ,62,0891193479156 ,46,5659669157106 ,70,4992351025131
4.1349806 ,Left ,62,0891193479156 ,46,5659669157106 ,70,4992351025131
4.1499569 ,Left ,62,0978603633412 ,46,5750740888494 ,70,5094335486426
4.1499586 ,Left ,62,0978603633412 ,46,5750740888494 ,70,5094335486426
4.1499601 ,Left ,62,0978603633412 ,46,5750740888494 ,70,5094335486426
4.1726079 ,Left ,62,1049701725836 ,46,5800723168122 ,70,5261641860126
4.1726101 ,Left ,62,1049701725836 ,46,5800723168122 ,70,5261641860126
4.1726117 ,Left ,62,1049701725836 ,46,5800723168122 ,70,5261641860126
4.1950363 ,Left ,62,1157670089784 ,46,5930378333283 ,70,5462104705167
4.1950392 ,Left ,62,1157670089784 ,46,5930378333283 ,70,5462104705167
4.1950415 ,Left ,62,1157670089784 ,46,5930378333283 ,70,5462104705167
4.2326314 ,Left ,62,1072186480925 ,46,6249196027481 ,70,5904082327292
4.2326344 ,Left ,62,1072186480925 ,46,6249196027481 ,70,5904082327292
4.2326367 ,Left ,62,1072186480925 ,46,6249196027481 ,70,5904082327292
4.2549694 ,Left ,62,11736139925 ,46,6404329369534 ,70,6111897528747
4.2549725 ,Left ,62,11736139925 ,46,6404329369534 ,70,6111897528747
4.254975 ,Left ,62,11736139925 ,46,6404329369534 ,70,6111897528747
4.2924655 ,Left ,62,1431268190347 ,46,6524531205626 ,70,653228373207
4.2924679 ,Left ,62,1431268190347 ,46,6524531205626 ,70,653228373207
4.2924697 ,Left ,62,1431268190347 ,46,6524531205626 ,70,653228373207
4.3226464 ,Left ,62,1461778299753 ,46,656717305867 ,70,6661729759064
4.3226488 ,Left ,62,1461778299753 ,46,656717305867 ,70,6661729759064
4.3226507 ,Left ,62,1461778299753 ,46,656717305867 ,70,6661729759064
4.3524422 ,Left ,62,1633540554068 ,46,6635883046028 ,70,6719815481571
4.3524445 ,Left ,62,1633540554068 ,46,6635883046028 ,70,6719815481571
4.3524462 ,Left ,62,1633540554068 ,46,6635883046028 ,70,6719815481571
4.3750209 ,Left ,62,1719147046042 ,46,6683058478863 ,70,6698786426827
4.3750232 ,Left ,62,1719147046042 ,46,6683058478863 ,70,6698786426827
4.3750249 ,Left ,62,1719147046042 ,46,6683058478863 ,70,6698786426827
4.4124523 ,Left ,62,1811537242849 ,46,6767172591006 ,70,6581948796957
4.4124545 ,Left ,62,1811537242849 ,46,6767172591006 ,70,6581948796957
4.4124564 ,Left ,62,1811537242849 ,46,6767172591006 ,70,6581948796957
4.4353918 ,Left ,62,1863222779321 ,46,6820681184633 ,70,6501994590123
4.4353962 ,Left ,62,1863222779321 ,46,6820681184633 ,70,6501994590123
4.4353998 ,Left ,62,1863222779321 ,46,6820681184633 ,70,6501994590123
4.4726949 ,Left ,62,1924560434202 ,46,6958140573057 ,70,6314367832366
4.4726989 ,Left ,62,1924560434202 ,46,6958140573057 ,70,6314367832366
4.4727018 ,Left ,62,1924560434202 ,46,6958140573057 ,70,6314367832366
4.4948587 ,Left ,62,2113566246981 ,46,7048076387475 ,70,6247424640598
4.4948609 ,Left ,62,2113566246981 ,46,7048076387475 ,70,6247424640598
4.4948625 ,Left ,62,2113566246981 ,46,7048076387475 ,70,6247424640598
4.5324198 ,Left ,62,2496703404008 ,46,7268007057576 ,70,6128730391424
4.5324219 ,Left ,62,2496703404008 ,46,7268007057576 ,70,6128730391424
4.5324234 ,Left ,62,2496703404008 ,46,7268007057576 ,70,6128730391424
4.5550044 ,Left ,62,2670091713533 ,46,7392536753828 ,70,612558736519
4.5550099 ,Left ,62,2670091713533 ,46,7392536753828 ,70,612558736519
4.5550122 ,Left ,62,2670091713533 ,46,7392536753828 ,70,612558736519
4.5926436 ,Left ,62,2942286062462 ,46,7691052954627 ,70,6120031236962
4.5926478 ,Left ,62,2942286062462 ,46,7691052954627 ,70,6120031236962
4.5926514 ,Left ,62,2942286062462 ,46,7691052954627 ,70,6120031236962
4.6149325 ,Left ,62,2943615453433 ,46,779919338071 ,70,6266088220766
4.6149361 ,Left ,62,2943615453433 ,46,779919338071 ,70,6266088220766
4.614952 ,Left ,62,2943615453433 ,46,779919338071 ,70,6266088220766
4.6524837 ,Left ,62,3004243959355 ,46,7729941908334 ,70,6775936758748
4.6524859 ,Left ,62,3004243959355 ,46,7729941908334 ,70,6775936758748
4.6524877 ,Left ,62,3004243959355 ,46,7729941908334 ,70,6775936758748
4.6752348 ,Left ,62,3228335108496 ,46,7585426814363 ,70,7184079043859
4.6752383 ,Left ,62,3228335108496 ,46,7585426814363 ,70,7184079043859
4.675241 ,Left ,62,3228335108496 ,46,7585426814363 ,70,7184079043859
4.712467 ,Left ,62,3713716341521 ,46,7240688791172 ,70,832488219041
4.712469 ,Left ,62,3713716341521 ,46,7240688791172 ,70,832488219041
4.7124705 ,Left ,62,3713716341521 ,46,7240688791172 ,70,832488219041
4.7350329 ,Left ,62,4115741207483 ,46,714568986343 ,70,8985500725652
4.7350354 ,Left ,62,4115741207483 ,46,714568986343 ,70,8985500725652
4.7350373 ,Left ,62,4115741207483 ,46,714568986343 ,70,8985500725652
4.7725626 ,Left ,62,4624531595305 ,46,7181380361346 ,71,0520995505712
4.7725659 ,Left ,62,4624531595305 ,46,7181380361346 ,71,0520995505712
4.772568 ,Left ,62,4624531595305 ,46,7181380361346 ,71,0520995505712
4.7951161 ,Left ,62,4770680069447 ,46,7169488560742 ,71,1077267024329
4.7951188 ,Left ,62,4770680069447 ,46,7169488560742 ,71,1077267024329
4.7951209 ,Left ,62,4770680069447 ,46,7169488560742 ,71,1077267024329
4.8326218 ,Left ,62,5003459946111 ,46,7186417602258 ,71,2164349860996
4.8326251 ,Left ,62,5003459946111 ,46,7186417602258 ,71,2164349860996
4.8326277 ,Left ,62,5003459946111 ,46,7186417602258 ,71,2164349860996
4.8548784 ,Left ,62,5066735886209 ,46,6993301878116 ,71,2725285757976
4.8548816 ,Left ,62,5066735886209 ,46,6993301878116 ,71,2725285757976
4.8548832 ,Left ,62,5066735886209 ,46,6993301878116 ,71,2725285757976
4.8932902 ,Left ,62,5154532243388 ,46,5999145044516 ,71,3662169992819
4.8932982 ,Left ,62,5154532243388 ,46,5999145044516 ,71,3662169992819
4.893305 ,Left ,62,5154532243388 ,46,5999145044516 ,71,3662169992819
4.9153534 ,Left ,62,5525592815884 ,46,5280836135396 ,71,3810166950776
4.9153591 ,Left ,62,5525592815884 ,46,5280836135396 ,71,3810166950776
4.9153639 ,Left ,62,5525592815884 ,46,5280836135396 ,71,3810166950776
4.9532266 ,Left ,62,5581784988415 ,46,4021343197344 ,71,3535192108547
4.9532349 ,Left ,62,5581784988415 ,46,4021343197344 ,71,3535192108547
4.9532416 ,Left ,62,5581784988415 ,46,4021343197344 ,71,3535192108547
4.9759534 ,Left ,62,5682554435365 ,46,3478526023974 ,71,2980416493194
4.9759615 ,Left ,62,5682554435365 ,46,3478526023974 ,71,2980416493194
4.9759682 ,Left ,62,5682554435365 ,46,3478526023974 ,71,2980416493194
5.0132298 ,Left ,62,5184612347251 ,46,2269483543953 ,71,070033264723
5.0132378 ,Left ,62,5184612347251 ,46,2269483543953 ,71,070033264723
5.0132446 ,Left ,62,5184612347251 ,46,2269483543953 ,71,070033264723
5.0351949 ,Left ,62,4693249192021 ,46,1803623441273 ,70,8965046250526
5.0351976 ,Left ,62,4693249192021 ,46,1803623441273 ,70,8965046250526
5.0351997 ,Left ,62,4693249192021 ,46,1803623441273 ,70,8965046250526
5.0724322 ,Left ,62,2490592219795 ,46,1177994349042 ,70,561559243211
5.0724342 ,Left ,62,2490592219795 ,46,1177994349042 ,70,561559243211
5.0724357 ,Left ,62,2490592219795 ,46,1177994349042 ,70,561559243211
5.0951509 ,Left ,62,168224932184 ,46,0839518941561 ,70,4067510847811
5.0951546 ,Left ,62,168224932184 ,46,0839518941561 ,70,4067510847811
5.0951562 ,Left ,62,168224932184 ,46,0839518941561 ,70,4067510847811
5.1401346 ,Left ,62,132991938383 ,46,0118819541541 ,70,1945727231951
5.1401395 ,Left ,62,132991938383 ,46,0118819541541 ,70,1945727231951
5.1401419 ,Left ,62,132991938383 ,46,0118819541541 ,70,1945727231951
5.1627485 ,Left ,62,1294002787876 ,46,003385294946 ,70,1451361729366
5.1627529 ,Left ,62,1294002787876 ,46,003385294946 ,70,1451361729366
5.1627564 ,Left ,62,1294002787876 ,46,003385294946 ,70,1451361729366
5.215079 ,Left ,62,176807965214 ,46,0903757043735 ,70,0971007570625
5.2150809 ,Left ,62,176807965214 ,46,0903757043735 ,70,0971007570625
5.2150823 ,Left ,62,176807965214 ,46,0903757043735 ,70,0971007570625
5.2525001 ,Left ,62,1914074054258 ,46,1835596246144 ,70,0814063949933
5.2525022 ,Left ,62,1914074054258 ,46,1835596246144 ,70,0814063949933
5.2525037 ,Left ,62,1914074054258 ,46,1835596246144 ,70,0814063949933
5.2899749 ,Left ,62,1181351621457 ,46,2626746954464 ,70,0560078809339
5.2899768 ,Left ,62,1181351621457 ,46,2626746954464 ,70,0560078809339
5.2899784 ,Left ,62,1181351621457 ,46,2626746954464 ,70,0560078809339
5.312437 ,Left ,62,03069352661 ,46,310912001341 ,70,0398272933657
5.3124388 ,Left ,62,03069352661 ,46,310912001341 ,70,0398272933657
5.3124403 ,Left ,62,03069352661 ,46,310912001341 ,70,0398272933657
5.349939 ,Left ,61,9285464498049 ,46,4637198749102 ,70,0224734910288
5.3499409 ,Left ,61,9285464498049 ,46,4637198749102 ,70,0224734910288
5.3499424 ,Left ,61,9285464498049 ,46,4637198749102 ,70,0224734910288
5.372698 ,Left ,61,8465952997722 ,46,5158723801089 ,70,018982070123
5.3727011 ,Left ,61,8465952997722 ,46,5158723801089 ,70,018982070123
5.3727031 ,Left ,61,8465952997722 ,46,5158723801089 ,70,018982070123
5.3953723 ,Left ,61,7212334032109 ,46,5387865642 ,70,0200015301258
5.3953767 ,Left ,61,7212334032109 ,46,5387865642 ,70,0200015301258
5.3953802 ,Left ,61,7212334032109 ,46,5387865642 ,70,0200015301258
5.4326693 ,Left ,61,4632657933108 ,46,5590660386334 ,70,0506506351651
5.4326751 ,Left ,61,4632657933108 ,46,5590660386334 ,70,0506506351651
5.432678 ,Left ,61,4632657933108 ,46,5590660386334 ,70,0506506351651
5.4552278 ,Left ,61,3003244860919 ,46,5442243267686 ,70,0772697968766
5.4552318 ,Left ,61,3003244860919 ,46,5442243267686 ,70,0772697968766
5.4552347 ,Left ,61,3003244860919 ,46,5442243267686 ,70,0772697968766
5.4926861 ,Left ,60,9562438554274 ,46,5895832974073 ,70,1115239299143
5.4926897 ,Left ,60,9562438554274 ,46,5895832974073 ,70,1115239299143
5.4926926 ,Left ,60,9562438554274 ,46,5895832974073 ,70,1115239299143
5.5151608 ,Left ,60,7707067657628 ,46,6253253396181 ,70,113687538784
5.5151628 ,Left ,60,7707067657628 ,46,6253253396181 ,70,113687538784
5.5151643 ,Left ,60,7707067657628 ,46,6253253396181 ,70,113687538784
5.545164 ,Left ,60,5878094379676 ,46,6749840206429 ,70,1678592055928
5.5451665 ,Left ,60,5878094379676 ,46,6749840206429 ,70,1678592055928
5.5451684 ,Left ,60,5878094379676 ,46,6749840206429 ,70,1678592055928
5.5675211 ,Left ,60,6731275695776 ,46,6726488915797 ,70,2358029843918
5.5675232 ,Left ,60,6731275695776 ,46,6726488915797 ,70,2358029843918
5.5675281 ,Left ,60,6731275695776 ,46,6726488915797 ,70,2358029843918
5.5900279 ,Left ,60,7704770267188 ,46,6615099647468 ,70,2665777125813
5.5900299 ,Left ,60,7704770267188 ,46,6615099647468 ,70,2665777125813
5.5900313 ,Left ,60,7704770267188 ,46,6615099647468 ,70,2665777125813
5.6050327 ,Left ,60,8433471952207 ,46,6559809816863 ,70,2501937306096
5.6050347 ,Left ,60,8433471952207 ,46,6559809816863 ,70,2501937306096
5.6050362 ,Left ,60,8433471952207 ,46,6559809816863 ,70,2501937306096
5.6274516 ,Left ,60,8562065036256 ,46,6330237296031 ,70,2032149094421
5.6274537 ,Left ,60,8562065036256 ,46,6330237296031 ,70,2032149094421
5.6274554 ,Left ,60,8562065036256 ,46,6330237296031 ,70,2032149094421
5.649992 ,Left ,60,89931635216 ,46,6133849476721 ,70,1622544294564
5.6499957 ,Left ,60,89931635216 ,46,6133849476721 ,70,1622544294564
5.6499983 ,Left ,60,89931635216 ,46,6133849476721 ,70,1622544294564
5.6647806 ,Left ,60,9188869372456 ,46,5850756635347 ,70,1123340792973
5.6647826 ,Left ,60,9188869372456 ,46,5850756635347 ,70,1123340792973
5.6647841 ,Left ,60,9188869372456 ,46,5850756635347 ,70,1123340792973
5.6876315 ,Left ,60,9574665856098 ,46,560845101041 ,70,082198733384
5.6876335 ,Left ,60,9574665856098 ,46,560845101041 ,70,082198733384
5.6876365 ,Left ,60,9574665856098 ,46,560845101041 ,70,082198733384
5.7100896 ,Left ,60,9383100348295 ,46,5466927333631 ,70,0910748316728
5.7100923 ,Left ,60,9383100348295 ,46,5466927333631 ,70,0910748316728
5.7100945 ,Left ,60,9383100348295 ,46,5466927333631 ,70,0910748316728
5.7249404 ,Left ,60,9853577293691 ,46,5675758605893 ,70,1282165670544
5.7249429 ,Left ,60,9853577293691 ,46,5675758605893 ,70,1282165670544
5.7249449 ,Left ,60,9853577293691 ,46,5675758605893 ,70,1282165670544
5.747588 ,Left ,61,0632467037167 ,46,6065186374303 ,70,1416195946329
5.7475906 ,Left ,61,0632467037167 ,46,6065186374303 ,70,1416195946329
5.7475927 ,Left ,61,0632467037167 ,46,6065186374303 ,70,1416195946329
5.7699403 ,Left ,61,1227271146806 ,46,6585519618276 ,70,132205807805
5.7699424 ,Left ,61,1227271146806 ,46,6585519618276 ,70,132205807805
5.769944 ,Left ,61,1227271146806 ,46,6585519618276 ,70,132205807805
5.7849654 ,Left ,61,1640186999625 ,46,7035557264403 ,70,107426171637
5.784968 ,Left ,61,1640186999625 ,46,7035557264403 ,70,107426171637
5.7849702 ,Left ,61,1640186999625 ,46,7035557264403 ,70,107426171637
5.8076492 ,Left ,61,1628961907219 ,46,7102574330294 ,70,0880416408243
5.8076531 ,Left ,61,1628961907219 ,46,7102574330294 ,70,0880416408243
5.8076563 ,Left ,61,1628961907219 ,46,7102574330294 ,70,0880416408243
5.8304636 ,Left ,61,1676947815779 ,46,7179022853302 ,70,0515459099989
5.8304675 ,Left ,61,1676947815779 ,46,7179022853302 ,70,0515459099989
5.8304708 ,Left ,61,1676947815779 ,46,7179022853302 ,70,0515459099989
5.8452451 ,Left ,61,1558701009174 ,46,7208449990746 ,69,9866747096254
5.8452527 ,Left ,61,1558701009174 ,46,7208449990746 ,69,9866747096254
5.8452561 ,Left ,61,1558701009174 ,46,7208449990746 ,69,9866747096254
5.8678382 ,Left ,61,1390396481467 ,46,7276693412003 ,69,9357528154632
5.8678423 ,Left ,61,1390396481467 ,46,7276693412003 ,69,9357528154632
5.8678455 ,Left ,61,1390396481467 ,46,7276693412003 ,69,9357528154632
5.8899208 ,Left ,61,1361291083259 ,46,752099140667 ,69,9084503647038
5.8899229 ,Left ,61,1361291083259 ,46,752099140667 ,69,9084503647038
5.8899376 ,Left ,61,1361291083259 ,46,752099140667 ,69,9084503647038
5.9049566 ,Left ,61,1527948624437 ,46,7823265979646 ,69,8965680730024
5.9049586 ,Left ,61,1527948624437 ,46,7823265979646 ,69,8965680730024
5.9049601 ,Left ,61,1527948624437 ,46,7823265979646 ,69,8965680730024
5.9274756 ,Left ,61,2004515886073 ,46,7826250944419 ,69,9125254608811
5.9274781 ,Left ,61,2004515886073 ,46,7826250944419 ,69,9125254608811
5.9274798 ,Left ,61,2004515886073 ,46,7826250944419 ,69,9125254608811
5.9503534 ,Left ,61,2201115664376 ,46,7543325363175 ,69,9442082663546
5.95036 ,Left ,61,2201115664376 ,46,7543325363175 ,69,9442082663546
5.9503633 ,Left ,61,2201115664376 ,46,7543325363175 ,69,9442082663546
5.9653094 ,Left ,61,2506974939182 ,46,7375393064778 ,69,9602231126338
5.9653134 ,Left ,61,2506974939182 ,46,7375393064778 ,69,9602231126338
5.9653166 ,Left ,61,2506974939182 ,46,7375393064778 ,69,9602231126338
5.9875168 ,Left ,61,243978730714 ,46,7258856661761 ,69,9529824917429
5.9875189 ,Left ,61,243978730714 ,46,7258856661761 ,69,9529824917429
5.9875204 ,Left ,61,243978730714 ,46,7258856661761 ,69,9529824917429
6.0101376 ,Left ,61,2243577347185 ,46,7148361257075 ,69,9304158051906
6.0101397 ,Left ,61,2243577347185 ,46,7148361257075 ,69,9304158051906
6.0101412 ,Left ,61,2243577347185 ,46,7148361257075 ,69,9304158051906
6.0251902 ,Left ,61,2234967544421 ,46,6934844216759 ,69,905260497259
6.0251922 ,Left ,61,2234967544421 ,46,6934844216759 ,69,905260497259
6.0251937 ,Left ,61,2234967544421 ,46,6934844216759 ,69,905260497259
6.0474525 ,Left ,61,2626492761664 ,46,6661694488508 ,69,8903717963083
6.0474549 ,Left ,61,2626492761664 ,46,6661694488508 ,69,8903717963083
6.0474568 ,Left ,61,2626492761664 ,46,6661694488508 ,69,8903717963083
6.0699962 ,Left ,61,2840114415507 ,46,6159863981417 ,69,8654682138854
6.0699981 ,Left ,61,2840114415507 ,46,6159863981417 ,69,8654682138854
6.0699996 ,Left ,61,2840114415507 ,46,6159863981417 ,69,8654682138854
6.0850967 ,Left ,61,2876773532132 ,46,5513751640264 ,69,8412891701133
6.0850991 ,Left ,61,2876773532132 ,46,5513751640264 ,69,8412891701133
6.0851009 ,Left ,61,2876773532132 ,46,5513751640264 ,69,8412891701133
6.1076155 ,Left ,61,2926038926205 ,46,4989459331942 ,69,8209564546431
6.1076178 ,Left ,61,2926038926205 ,46,4989459331942 ,69,8209564546431
6.1076195 ,Left ,61,2926038926205 ,46,4989459331942 ,69,8209564546431
6.1298772 ,Left ,61,3198160919331 ,46,456726682407 ,69,8101358305245
6.1316873 ,Left ,61,3198160919331 ,46,456726682407 ,69,8101358305245
6.131689 ,Left ,61,3198160919331 ,46,456726682407 ,69,8101358305245
6.1449103 ,Left ,61,3362869118926 ,46,4113635189705 ,69,8124298014007
6.144914 ,Left ,61,3362869118926 ,46,4113635189705 ,69,8124298014007
6.1449155 ,Left ,61,3362869118926 ,46,4113635189705 ,69,8124298014007
6.167392 ,Left ,61,3602896867853 ,46,3674691517334 ,69,8217063022812
6.1673938 ,Left ,61,3602896867853 ,46,3674691517334 ,69,8217063022812
6.1673953 ,Left ,61,3602896867853 ,46,3674691517334 ,69,8217063022812
6.1900801 ,Left ,61,3911394046327 ,46,3323868137712 ,69,8371438607389
6.1900826 ,Left ,61,3911394046327 ,46,3323868137712 ,69,8371438607389
6.1900842 ,Left ,61,3911394046327 ,46,3323868137712 ,69,8371438607389
6.2051667 ,Left ,61,4280640290023 ,46,3130766637339 ,69,8531609927716
6.2051691 ,Left ,61,4280640290023 ,46,3130766637339 ,69,8531609927716
6.2051708 ,Left ,61,4280640290023 ,46,3130766637339 ,69,8531609927716
6.2275693 ,Left ,61,4650815393678 ,46,3035639117264 ,69,8589791725573
6.2275715 ,Left ,61,4650815393678 ,46,3035639117264 ,69,8589791725573
6.2275732 ,Left ,61,4650815393678 ,46,3035639117264 ,69,8589791725573
6.2501775 ,Left ,61,5066805273187 ,46,305831649366 ,69,8448475639096
6.2501807 ,Left ,61,5066805273187 ,46,305831649366 ,69,8448475639096
6.2501828 ,Left ,61,5066805273187 ,46,305831649366 ,69,8448475639096
6.2652831 ,Left ,61,5374570145366 ,46,3024205706085 ,69,8355023949538
6.2652863 ,Left ,61,5374570145366 ,46,3024205706085 ,69,8355023949538
6.2652889 ,Left ,61,5374570145366 ,46,3024205706085 ,69,8355023949538
6.2877156 ,Left ,61,5227439659075 ,46,3006475796782 ,69,8351710880168
6.2877207 ,Left ,61,5227439659075 ,46,3006475796782 ,69,8351710880168
6.2877386 ,Left ,61,5227439659075 ,46,3006475796782 ,69,8351710880168
6.3103603 ,Left ,61,4835083293083 ,46,3234984071406 ,69,8385794318853
6.3103637 ,Left ,61,4835083293083 ,46,3234984071406 ,69,8385794318853
6.3103666 ,Left ,61,4835083293083 ,46,3234984071406 ,69,8385794318853
6.3249943 ,Left ,61,4215493172204 ,46,3672004782265 ,69,825897876673
6.3249962 ,Left ,61,4215493172204 ,46,3672004782265 ,69,825897876673
6.3250035 ,Left ,61,4215493172204 ,46,3672004782265 ,69,825897876673
6.3481978 ,Left ,61,408573556433 ,46,4310284167273 ,69,8459772028637
6.3482059 ,Left ,61,408573556433 ,46,4310284167273 ,69,8459772028637
6.3482126 ,Left ,61,408573556433 ,46,4310284167273 ,69,8459772028637
6.378042 ,Left ,61,3834963635144 ,46,4985131213612 ,69,8754786703476
6.3780499 ,Left ,61,3834963635144 ,46,4985131213612 ,69,8754786703476
6.3780566 ,Left ,61,3834963635144 ,46,4985131213612 ,69,8754786703476
6.3927529 ,Left ,61,330823923879 ,46,6027491492193 ,69,8850418843418
6.3927566 ,Left ,61,330823923879 ,46,6027491492193 ,69,8850418843418
6.3927598 ,Left ,61,330823923879 ,46,6027491492193 ,69,8850418843418
6.4152045 ,Left ,61,3246756924161 ,46,740779679711 ,69,8704876595655
6.415207 ,Left ,61,3246756924161 ,46,740779679711 ,69,8704876595655
6.4152086 ,Left ,61,3246756924161 ,46,740779679711 ,69,8704876595655
6.4298924 ,Left ,61,3874853029635 ,46,8446365586399 ,69,8421518033267
6.4298942 ,Left ,61,3874853029635 ,46,8446365586399 ,69,8421518033267
6.4298957 ,Left ,61,3874853029635 ,46,8446365586399 ,69,8421518033267
6.4449436 ,Left ,61,4247548997454 ,46,8771921181903 ,69,8192690542765
6.4449454 ,Left ,61,4247548997454 ,46,8771921181903 ,69,8192690542765
6.4449469 ,Left ,61,4247548997454 ,46,8771921181903 ,69,8192690542765
6.4674351 ,Left ,61,348866120439 ,46,8863322015869 ,69,8300534306712
6.467437 ,Left ,61,348866120439 ,46,8863322015869 ,69,8300534306712
6.4674385 ,Left ,61,348866120439 ,46,8863322015869 ,69,8300534306712
6.4900881 ,Left ,61,2757001469091 ,46,919826535564 ,69,8354710876795
6.4900907 ,Left ,61,2757001469091 ,46,919826535564 ,69,8354710876795
6.4900928 ,Left ,61,2757001469091 ,46,919826535564 ,69,8354710876795
6.5051007 ,Left ,61,2032049732664 ,46,9551497513784 ,69,8496942278036
6.5051105 ,Left ,61,2032049732664 ,46,9551497513784 ,69,8496942278036
6.5051138 ,Left ,61,2032049732664 ,46,9551497513784 ,69,8496942278036
6.5279591 ,Left ,61,1827669881612 ,46,9718153177761 ,69,8460262738946
6.5279648 ,Left ,61,1827669881612 ,46,9718153177761 ,69,8460262738946
6.5279694 ,Left ,61,1827669881612 ,46,9718153177761 ,69,8460262738946
6.5503629 ,Left ,61,1293253940384 ,46,96609996356 ,69,8639917672586
6.5503665 ,Left ,61,1293253940384 ,46,96609996356 ,69,8639917672586
6.5503693 ,Left ,61,1293253940384 ,46,96609996356 ,69,8639917672586
6.5727774 ,Left ,61,0976100884257 ,46,9467749331898 ,69,8815337708553
6.572781 ,Left ,61,0976100884257 ,46,9467749331898 ,69,8815337708553
6.5727839 ,Left ,61,0976100884257 ,46,9467749331898 ,69,8815337708553
6.587647 ,Left ,61,0324611472809 ,46,9247824551186 ,69,8823570477419
6.5876506 ,Left ,61,0324611472809 ,46,9247824551186 ,69,8823570477419
6.5876539 ,Left ,61,0324611472809 ,46,9247824551186 ,69,8823570477419
6.61005 ,Left ,60,9377097271692 ,46,864995453849 ,69,8647343022877
6.6100538 ,Left ,60,9377097271692 ,46,864995453849 ,69,8647343022877
6.6100568 ,Left ,60,9377097271692 ,46,864995453849 ,69,8647343022877
6.6329401 ,Left ,60,8936409951597 ,46,7850621675325 ,69,8760483921388
6.632944 ,Left ,60,8936409951597 ,46,7850621675325 ,69,8760483921388
6.632947 ,Left ,60,8936409951597 ,46,7850621675325 ,69,8760483921388
6.6475515 ,Left ,60,9221547407511 ,46,7200822861176 ,69,8800955607534
6.6475549 ,Left ,60,9221547407511 ,46,7200822861176 ,69,8800955607534
6.6475577 ,Left ,60,9221547407511 ,46,7200822861176 ,69,8800955607534
6.6700406 ,Left ,60,978343976559 ,46,7279072421402 ,69,8519200489317
6.6700504 ,Left ,60,978343976559 ,46,7279072421402 ,69,8519200489317
6.6700552 ,Left ,60,978343976559 ,46,7279072421402 ,69,8519200489317
6.6925535 ,Left ,61,0362379430497 ,46,7660813785977 ,69,8014740943191
6.6925686 ,Left ,61,0362379430497 ,46,7660813785977 ,69,8014740943191
6.6925701 ,Left ,61,0362379430497 ,46,7660813785977 ,69,8014740943191
6.7074199 ,Left ,61,1092932481992 ,46,7923962871986 ,69,7661274288389
6.707422 ,Left ,61,1092932481992 ,46,7923962871986 ,69,7661274288389
6.7074235 ,Left ,61,1092932481992 ,46,7923962871986 ,69,7661274288389
6.7300515 ,Left ,61,2156215051246 ,46,7879135937034 ,69,7454963468055
6.730054 ,Left ,61,2156215051246 ,46,7879135937034 ,69,7454963468055
6.7300559 ,Left ,61,2156215051246 ,46,7879135937034 ,69,7454963468055
6.7526433 ,Left ,61,2810508486655 ,46,7490150977756 ,69,7315132124098
6.7526455 ,Left ,61,2810508486655 ,46,7490150977756 ,69,7315132124098
6.7526472 ,Left ,61,2810508486655 ,46,7490150977756 ,69,7315132124098
6.7672925 ,Left ,61,3526013969061 ,46,7181675957934 ,69,7050502955949
6.7672945 ,Left ,61,3526013969061 ,46,7181675957934 ,69,7050502955949
6.767296 ,Left ,61,3526013969061 ,46,7181675957934 ,69,7050502955949
6.7899548 ,Left ,61,3964576491328 ,46,6936414780224 ,69,6757800736932
6.7899566 ,Left ,61,3964576491328 ,46,6936414780224 ,69,6757800736932
6.7899581 ,Left ,61,3964576491328 ,46,6936414780224 ,69,6757800736932
6.8126063 ,Left ,61,4241284564457 ,46,6829132687656 ,69,6324590963539
6.812609 ,Left ,61,4241284564457 ,46,6829132687656 ,69,6324590963539
6.8126108 ,Left ,61,4241284564457 ,46,6829132687656 ,69,6324590963539
6.8277283 ,Left ,61,4549984330298 ,46,6871851747307 ,69,5808201854324
6.8277317 ,Left ,61,4549984330298 ,46,6871851747307 ,69,5808201854324
6.8277344 ,Left ,61,4549984330298 ,46,6871851747307 ,69,5808201854324
6.8500164 ,Left ,61,4699784765591 ,46,6971997589496 ,69,5339786876855
6.8500197 ,Left ,61,4699784765591 ,46,6971997589496 ,69,5339786876855
6.8500224 ,Left ,61,4699784765591 ,46,6971997589496 ,69,5339786876855
6.87269 ,Left ,61,4576830172336 ,46,7277319659086 ,69,4940145896471
6.8726934 ,Left ,61,4576830172336 ,46,7277319659086 ,69,4940145896471
6.8726961 ,Left ,61,4576830172336 ,46,7277319659086 ,69,4940145896471
6.887735 ,Left ,61,4224672051247 ,46,7949051854662 ,69,4621862892629
6.8877405 ,Left ,61,4224672051247 ,46,7949051854662 ,69,4621862892629
6.8877433 ,Left ,61,4224672051247 ,46,7949051854662 ,69,4621862892629
6.9101876 ,Left ,61,3607816892914 ,46,8810704793571 ,69,4292625525137
6.910191 ,Left ,61,3607816892914 ,46,8810704793571 ,69,4292625525137
6.9101937 ,Left ,61,3607816892914 ,46,8810704793571 ,69,4292625525137
6.9326557 ,Left ,61,288989476881 ,46,9599724880848 ,69,395086869166
6.9326587 ,Left ,61,288989476881 ,46,9599724880848 ,69,395086869166
6.9326614 ,Left ,61,288989476881 ,46,9599724880848 ,69,395086869166
6.947702 ,Left ,61,16926213516 ,47,0367143451316 ,69,3624872306647
6.9477056 ,Left ,61,16926213516 ,47,0367143451316 ,69,3624872306647
6.9477083 ,Left ,61,16926213516 ,47,0367143451316 ,69,3624872306647
6.9699165 ,Left ,61,0638512554216 ,47,1245206251354 ,69,3202821958702
6.9699183 ,Left ,61,0638512554216 ,47,1245206251354 ,69,3202821958702
6.9699198 ,Left ,61,0638512554216 ,47,1245206251354 ,69,3202821958702
6.9925297 ,Left ,60,9613425675281 ,47,2002883262483 ,69,264584291801
6.9925317 ,Left ,60,9613425675281 ,47,2002883262483 ,69,264584291801
6.9925332 ,Left ,60,9613425675281 ,47,2002883262483 ,69,264584291801
7.007466 ,Left ,60,8056297577166 ,47,2454223573737 ,69,2426760563878
7.0074823 ,Left ,60,8056297577166 ,47,2454223573737 ,69,2426760563878
7.0074839 ,Left ,60,8056297577166 ,47,2454223573737 ,69,2426760563878
7.0308378 ,Left ,60,6535367096742 ,47,2669261010627 ,69,2429146781088
7.0308479 ,Left ,60,6535367096742 ,47,2669261010627 ,69,2429146781088
7.0308547 ,Left ,60,6535367096742 ,47,2669261010627 ,69,2429146781088
7.0533233 ,Left ,60,5390678282941 ,47,2290344052525 ,69,2141104982625
7.0533314 ,Left ,60,5390678282941 ,47,2290344052525 ,69,2141104982625
7.0533382 ,Left ,60,5390678282941 ,47,2290344052525 ,69,2141104982625
7.0683782 ,Left ,60,4685251435651 ,47,1255465495133 ,69,1915862685176
7.0683859 ,Left ,60,4685251435651 ,47,1255465495133 ,69,1915862685176
7.0683905 ,Left ,60,4685251435651 ,47,1255465495133 ,69,1915862685176
7.0902441 ,Left ,60,3791322243361 ,46,9983320244688 ,69,2193207628726
7.0902472 ,Left ,60,3791322243361 ,46,9983320244688 ,69,2193207628726
7.0902493 ,Left ,60,3791322243361 ,46,9983320244688 ,69,2193207628726
7.1126993 ,Left ,60,3987128944027 ,46,9396718407227 ,69,2726367788582
7.112702 ,Left ,60,3987128944027 ,46,9396718407227 ,69,2726367788582
7.1127041 ,Left ,60,3987128944027 ,46,9396718407227 ,69,2726367788582
7.1276032 ,Left ,60,396341706061 ,46,9437839782296 ,69,3092910239803
7.127606 ,Left ,60,396341706061 ,46,9437839782296 ,69,3092910239803
7.1276101 ,Left ,60,396341706061 ,46,9437839782296 ,69,3092910239803
7.1501682 ,Left ,60,4954523632063 ,46,9687959278257 ,69,345839027331
7.1501712 ,Left ,60,4954523632063 ,46,9687959278257 ,69,345839027331
7.1501735 ,Left ,60,4954523632063 ,46,9687959278257 ,69,345839027331
7.1724075 ,Left ,60,6086156188781 ,46,9798113440843 ,69,3812002353636
7.1724094 ,Left ,60,6086156188781 ,46,9798113440843 ,69,3812002353636
7.1724109 ,Left ,60,6086156188781 ,46,9798113440843 ,69,3812002353636
7.1874932 ,Left ,60,764970784775 ,46,962946428555 ,69,3976114665809
7.1874951 ,Left ,60,764970784775 ,46,962946428555 ,69,3976114665809
7.1874965 ,Left ,60,764970784775 ,46,962946428555 ,69,3976114665809
7.2099522 ,Left ,60,8949966530216 ,46,8775618279217 ,69,3948443172508
7.2099545 ,Left ,60,8949966530216 ,46,8775618279217 ,69,3948443172508
7.2099563 ,Left ,60,8949966530216 ,46,8775618279217 ,69,3948443172508
7.2324542 ,Left ,60,9957830778155 ,46,7570216311153 ,69,3827117657995
7.2324562 ,Left ,60,9957830778155 ,46,7570216311153 ,69,3827117657995
7.2324708 ,Left ,60,9957830778155 ,46,7570216311153 ,69,3827117657995
7.2474726 ,Left ,61,0790509322386 ,46,6253094498155 ,69,3718132292152
7.2474745 ,Left ,61,0790509322386 ,46,6253094498155 ,69,3718132292152
7.247476 ,Left ,61,0790509322386 ,46,6253094498155 ,69,3718132292152
7.2699651 ,Left ,61,1358539466729 ,46,5073311738192 ,69,3791623496893
7.2699675 ,Left ,61,1358539466729 ,46,5073311738192 ,69,3791623496893
7.2699694 ,Left ,61,1358539466729 ,46,5073311738192 ,69,3791623496893
7.2927997 ,Left ,61,1831008303425 ,46,4047998128498 ,69,3897540789528
7.2928036 ,Left ,61,1831008303425 ,46,4047998128498 ,69,3897540789528
7.2928067 ,Left ,61,1831008303425 ,46,4047998128498 ,69,3897540789528
7.3151922 ,Left ,61,3147401054369 ,46,3180091834677 ,69,3832715135141
7.3151969 ,Left ,61,3147401054369 ,46,3180091834677 ,69,3832715135141
7.3152005 ,Left ,61,3147401054369 ,46,3180091834677 ,69,3832715135141
7.3302899 ,Left ,61,4552164755951 ,46,2411828815879 ,69,3885966525023
7.330293 ,Left ,61,4552164755951 ,46,2411828815879 ,69,3885966525023
7.3302954 ,Left ,61,4552164755951 ,46,2411828815879 ,69,3885966525023
7.3527527 ,Left ,61,5623238804739 ,46,1852658101752 ,69,4036004504402
7.3527576 ,Left ,61,5623238804739 ,46,1852658101752 ,69,4036004504402
7.3527612 ,Left ,61,5623238804739 ,46,1852658101752 ,69,4036004504402
7.375162 ,Left ,61,6567428714259 ,46,1557101268736 ,69,427161790341
7.3751651 ,Left ,61,6567428714259 ,46,1557101268736 ,69,427161790341
7.3751675 ,Left ,61,6567428714259 ,46,1557101268736 ,69,427161790341
7.3899184 ,Left ,61,7597791173179 ,46,1635301711013 ,69,4428213130838
7.3899203 ,Left ,61,7597791173179 ,46,1635301711013 ,69,4428213130838
7.3899367 ,Left ,61,7597791173179 ,46,1635301711013 ,69,4428213130838
7.4124982 ,Left ,61,8267332247883 ,46,1935159548667 ,69,4546251869818
7.4125001 ,Left ,61,8267332247883 ,46,1935159548667 ,69,4546251869818
7.4125016 ,Left ,61,8267332247883 ,46,1935159548667 ,69,4546251869818
7.4350195 ,Left ,61,8243749787034 ,46,2396739087541 ,69,4767957058047
7.4350218 ,Left ,61,8243749787034 ,46,2396739087541 ,69,4767957058047
7.4350236 ,Left ,61,8243749787034 ,46,2396739087541 ,69,4767957058047
7.4498577 ,Left ,61,7978253699306 ,46,3206217976516 ,69,4821578841691
7.44986 ,Left ,61,7978253699306 ,46,3206217976516 ,69,4821578841691
7.4498615 ,Left ,61,7978253699306 ,46,3206217976516 ,69,4821578841691
7.472596 ,Left ,61,7271754693899 ,46,4047021111435 ,69,4763053828716
7.4725988 ,Left ,61,7271754693899 ,46,4047021111435 ,69,4763053828716
7.4726008 ,Left ,61,7271754693899 ,46,4047021111435 ,69,4763053828716
7.4950766 ,Left ,61,6708518787505 ,46,4887215381698 ,69,4753826330566
7.4950794 ,Left ,61,6708518787505 ,46,4887215381698 ,69,4753826330566
7.4950815 ,Left ,61,6708518787505 ,46,4887215381698 ,69,4753826330566
7.5100118 ,Left ,61,6421548994791 ,46,5730865971181 ,69,465624576641
7.5100184 ,Left ,61,6421548994791 ,46,5730865971181 ,69,465624576641
7.5100219 ,Left ,61,6421548994791 ,46,5730865971181 ,69,465624576641
7.5325408 ,Left ,61,5679099820176 ,46,6357005310643 ,69,4440758054975
7.5325426 ,Left ,61,5679099820176 ,46,6357005310643 ,69,4440758054975
7.532544 ,Left ,61,5679099820176 ,46,6357005310643 ,69,4440758054975
7.5548819 ,Left ,61,4623847426434 ,46,6826955886259 ,69,4206440879382
7.5548843 ,Left ,61,4623847426434 ,46,6826955886259 ,69,4206440879382
7.5548862 ,Left ,61,4623847426434 ,46,6826955886259 ,69,4206440879382
7.5699925 ,Left ,61,3568253647348 ,46,7279334063531 ,69,4043214097858
7.5699943 ,Left ,61,3568253647348 ,46,7279334063531 ,69,4043214097858
7.5699959 ,Left ,61,3568253647348 ,46,7279334063531 ,69,4043214097858
7.5925165 ,Left ,61,2853002840328 ,46,7828965969323 ,69,3916602510732
7.5925187 ,Left ,61,2853002840328 ,46,7828965969323 ,69,3916602510732
7.5925206 ,Left ,61,2853002840328 ,46,7828965969323 ,69,3916602510732
7.6149033 ,Left ,61,286002562898 ,46,8183833824448 ,69,3765846190797
7.6149053 ,Left ,61,286002562898 ,46,8183833824448 ,69,3765846190797
7.6149067 ,Left ,61,286002562898 ,46,8183833824448 ,69,3765846190797
7.6299436 ,Left ,61,2535181089122 ,46,7985477248442 ,69,386281173241
7.6299457 ,Left ,61,2535181089122 ,46,7985477248442 ,69,386281173241
7.6299475 ,Left ,61,2535181089122 ,46,7985477248442 ,69,386281173241
7.6525261 ,Left ,61,1819484628975 ,46,7869732567612 ,69,4285293463238
7.6525279 ,Left ,61,1819484628975 ,46,7869732567612 ,69,4285293463238
7.6525312 ,Left ,61,1819484628975 ,46,7869732567612 ,69,4285293463238
7.674831 ,Left ,61,1688788684033 ,46,8158868524379 ,69,4689879573221
7.6748333 ,Left ,61,1688788684033 ,46,8158868524379 ,69,4689879573221
7.6748351 ,Left ,61,1688788684033 ,46,8158868524379 ,69,4689879573221
7.6900371 ,Left ,61,1825817772114 ,46,875107421453 ,69,5284138772082
7.6900401 ,Left ,61,1825817772114 ,46,875107421453 ,69,5284138772082
7.6900424 ,Left ,61,1825817772114 ,46,875107421453 ,69,5284138772082
7.7127258 ,Left ,61,2190200808993 ,46,9444094785712 ,69,6183240953708
7.7127296 ,Left ,61,2190200808993 ,46,9444094785712 ,69,6183240953708
7.7127326 ,Left ,61,2190200808993 ,46,9444094785712 ,69,6183240953708
7.7352224 ,Left ,61,2975846212194 ,46,999067690916 ,69,6723071439528
7.7352261 ,Left ,61,2975846212194 ,46,999067690916 ,69,6723071439528
7.7352292 ,Left ,61,2975846212194 ,46,999067690916 ,69,6723071439528
7.750029 ,Left ,61,4102739686634 ,47,0178265667273 ,69,6874774288216
7.7500326 ,Left ,61,4102739686634 ,47,0178265667273 ,69,6874774288216
7.7500357 ,Left ,61,4102739686634 ,47,0178265667273 ,69,6874774288216
7.7727978 ,Left ,61,4810955174545 ,46,9930847501195 ,69,6815556636256
7.7728018 ,Left ,61,4810955174545 ,46,9930847501195 ,69,6815556636256
7.7728048 ,Left ,61,4810955174545 ,46,9930847501195 ,69,6815556636256
7.7950925 ,Left ,61,5097780853948 ,46,9697960835376 ,69,6819529229348
7.7950963 ,Left ,61,5097780853948 ,46,9697960835376 ,69,6819529229348
7.7950994 ,Left ,61,5097780853948 ,46,9697960835376 ,69,6819529229348
7.8100739 ,Left ,61,504189362125 ,46,9352676135113 ,69,6962939269675
7.810077 ,Left ,61,504189362125 ,46,9352676135113 ,69,6962939269675
7.8100795 ,Left ,61,504189362125 ,46,9352676135113 ,69,6962939269675
7.8327068 ,Left ,61,4745961918547 ,46,8834056265163 ,69,7034968884748
7.8327101 ,Left ,61,4745961918547 ,46,8834056265163 ,69,7034968884748
7.8327126 ,Left ,61,4745961918547 ,46,8834056265163 ,69,7034968884748
7.8551736 ,Left ,61,4997260367518 ,46,8206312078909 ,69,7197240364151
7.8551768 ,Left ,61,4997260367518 ,46,8206312078909 ,69,7197240364151
7.8551793 ,Left ,61,4997260367518 ,46,8206312078909 ,69,7197240364151
7.87003 ,Left ,61,5522349037675 ,46,7718085239924 ,69,7610405581235
7.8700332 ,Left ,61,5522349037675 ,46,7718085239924 ,69,7610405581235
7.8700359 ,Left ,61,5522349037675 ,46,7718085239924 ,69,7610405581235
7.8927806 ,Left ,61,6071294789154 ,46,7363997234543 ,69,8071294388459
7.8927839 ,Left ,61,6071294789154 ,46,7363997234543 ,69,8071294388459
7.8927865 ,Left ,61,6071294789154 ,46,7363997234543 ,69,8071294388459
7.9150505 ,Left ,61,6569800865132 ,46,7047082813837 ,69,856054746199
7.9150525 ,Left ,61,6569800865132 ,46,7047082813837 ,69,856054746199
7.9150539 ,Left ,61,6569800865132 ,46,7047082813837 ,69,856054746199
7.9302039 ,Left ,61,6944331195038 ,46,6761507094385 ,69,9095250180357
7.9302062 ,Left ,61,6944331195038 ,46,6761507094385 ,69,9095250180357
7.9302078 ,Left ,61,6944331195038 ,46,6761507094385 ,69,9095250180357
7.9526195 ,Left ,61,7355635776108 ,46,6510633186092 ,69,970138937193
7.9526224 ,Left ,61,7355635776108 ,46,6510633186092 ,69,970138937193
7.9526248 ,Left ,61,7355635776108 ,46,6510633186092 ,69,970138937193
7.9750368 ,Left ,61,7670630492755 ,46,6270391136313 ,70,0321536107628
7.9750397 ,Left ,61,7670630492755 ,46,6270391136313 ,70,0321536107628
7.9750421 ,Left ,61,7670630492755 ,46,6270391136313 ,70,0321536107628
7.9898193 ,Left ,61,783804277928 ,46,6111849737762 ,70,083569515318
7.9898212 ,Left ,61,783804277928 ,46,6111849737762 ,70,083569515318
7.9898226 ,Left ,61,783804277928 ,46,6111849737762 ,70,083569515318
8.0124473 ,Left ,61,807798333906 ,46,6086374640407 ,70,1219871497253
8.0124491 ,Left ,61,807798333906 ,46,6086374640407 ,70,1219871497253
8.0124506 ,Left ,61,807798333906 ,46,6086374640407 ,70,1219871497253
8.0349425 ,Left ,61,790828446278 ,46,6046278509879 ,70,1606487148122
8.034945 ,Left ,61,790828446278 ,46,6046278509879 ,70,1606487148122
8.0349469 ,Left ,61,790828446278 ,46,6046278509879 ,70,1606487148122
8.0502655 ,Left ,61,7782854507907 ,46,6039741206392 ,70,1982546140146
8.0502675 ,Left ,61,7782854507907 ,46,6039741206392 ,70,1982546140146
8.050269 ,Left ,61,7782854507907 ,46,6039741206392 ,70,1982546140146
8.0724939 ,Left ,61,7798855415912 ,46,6037348548479 ,70,2361705502327
8.0724958 ,Left ,61,7798855415912 ,46,6037348548479 ,70,2361705502327
8.0724974 ,Left ,61,7798855415912 ,46,6037348548479 ,70,2361705502327
8.0949772 ,Left ,61,7779598595113 ,46,6084075553794 ,70,2667490183706
8.0949797 ,Left ,61,7779598595113 ,46,6084075553794 ,70,2667490183706
8.0949822 ,Left ,61,7779598595113 ,46,6084075553794 ,70,2667490183706
8.1099516 ,Left ,61,7963475919214 ,46,6094568793564 ,70,2893256969177
8.1099542 ,Left ,61,7963475919214 ,46,6094568793564 ,70,2893256969177
8.1099566 ,Left ,61,7963475919214 ,46,6094568793564 ,70,2893256969177
8.1325539 ,Left ,61,8166245228607 ,46,6062508679487 ,70,3083618591649
8.1325568 ,Left ,61,8166245228607 ,46,6062508679487 ,70,3083618591649
8.1325591 ,Left ,61,8166245228607 ,46,6062508679487 ,70,3083618591649
8.1551967 ,Left ,61,8317660337398 ,46,5987435829266 ,70,3169411091449
8.1552 ,Left ,61,8317660337398 ,46,5987435829266 ,70,3169411091449
8.1552027 ,Left ,61,8317660337398 ,46,5987435829266 ,70,3169411091449
8.1707705 ,Left ,61,861115513502 ,46,5880214397526 ,70,3136181861923
8.1707785 ,Left ,61,861115513502 ,46,5880214397526 ,70,3136181861923
8.1707853 ,Left ,61,861115513502 ,46,5880214397526 ,70,3136181861923
8.1930486 ,Left ,61,8960550988755 ,46,5814124827618 ,70,2963891614356
8.1930613 ,Left ,61,8960550988755 ,46,5814124827618 ,70,2963891614356
8.1930727 ,Left ,61,8960550988755 ,46,5814124827618 ,70,2963891614356
8.2226356 ,Left ,61,9323337565511 ,46,571131825296 ,70,2702918955927
8.2226387 ,Left ,61,9323337565511 ,46,571131825296 ,70,2702918955927
8.2226411 ,Left ,61,9323337565511 ,46,571131825296 ,70,2702918955927
8.2377254 ,Left ,61,9627572198354 ,46,5592412273504 ,70,2343709088601
8.2377285 ,Left ,61,9627572198354 ,46,5592412273504 ,70,2343709088601
8.237731 ,Left ,61,9627572198354 ,46,5592412273504 ,70,2343709088601
8.2602534 ,Left ,61,994183223655 ,46,5396976023191 ,70,188232348108
8.2602565 ,Left ,61,994183223655 ,46,5396976023191 ,70,188232348108
8.2602589 ,Left ,61,994183223655 ,46,5396976023191 ,70,188232348108
8.2749146 ,Left ,62,0164587040069 ,46,5083483095634 ,70,1254918435796
8.2749182 ,Left ,62,0164587040069 ,46,5083483095634 ,70,1254918435796
8.2749198 ,Left ,62,0164587040069 ,46,5083483095634 ,70,1254918435796
8.2899512 ,Left ,62,0408131271737 ,46,462928947854 ,70,053260162523
8.2899531 ,Left ,62,0408131271737 ,46,462928947854 ,70,053260162523
8.2899546 ,Left ,62,0408131271737 ,46,462928947854 ,70,053260162523
8.3125079 ,Left ,62,0374696770031 ,46,4129030998405 ,69,9772553183344
8.31251 ,Left ,62,0374696770031 ,46,4129030998405 ,69,9772553183344
8.3125116 ,Left ,62,0374696770031 ,46,4129030998405 ,69,9772553183344
8.3349635 ,Left ,62,0379353494351 ,46,3709047198382 ,69,9045968353136
8.3349655 ,Left ,62,0379353494351 ,46,3709047198382 ,69,9045968353136
8.3349673 ,Left ,62,0379353494351 ,46,3709047198382 ,69,9045968353136
8.3505784 ,Left ,62,0443170982116 ,46,3312977966118 ,69,8391986830007
8.3505861 ,Left ,62,0443170982116 ,46,3312977966118 ,69,8391986830007
8.3505929 ,Left ,62,0443170982116 ,46,3312977966118 ,69,8391986830007
8.373099 ,Left ,62,0291501552504 ,46,2903725719795 ,69,7936403906776
8.3731067 ,Left ,62,0291501552504 ,46,2903725719795 ,69,7936403906776
8.3731134 ,Left ,62,0291501552504 ,46,2903725719795 ,69,7936403906776
8.3951372 ,Left ,62,0308083467892 ,46,264488439843 ,69,7508550786219
8.3951408 ,Left ,62,0308083467892 ,46,264488439843 ,69,7508550786219
8.3951437 ,Left ,62,0308083467892 ,46,264488439843 ,69,7508550786219
8.4102994 ,Left ,62,0461053217603 ,46,2396402455339 ,69,7053396382806
8.410303 ,Left ,62,0461053217603 ,46,2396402455339 ,69,7053396382806
8.4103059 ,Left ,62,0461053217603 ,46,2396402455339 ,69,7053396382806
8.4326113 ,Left ,62,0525904216554 ,46,2133938043487 ,69,6605192658105
8.4326149 ,Left ,62,0525904216554 ,46,2133938043487 ,69,6605192658105
8.4326178 ,Left ,62,0525904216554 ,46,2133938043487 ,69,6605192658105
8.4553148 ,Left ,62,0345192188973 ,46,1864842949595 ,69,6165235211399
8.4553184 ,Left ,62,0345192188973 ,46,1864842949595 ,69,6165235211399
8.4553213 ,Left ,62,0345192188973 ,46,1864842949595 ,69,6165235211399
8.477821 ,Left ,61,9896306267624 ,46,1713077583888 ,69,5855016252492
8.4778245 ,Left ,61,9896306267624 ,46,1713077583888 ,69,5855016252492
8.4778273 ,Left ,61,9896306267624 ,46,1713077583888 ,69,5855016252492
8.49262 ,Left ,61,9432649975362 ,46,1745236757165 ,69,5656247099406
8.4926234 ,Left ,61,9432649975362 ,46,1745236757165 ,69,5656247099406
8.4926263 ,Left ,61,9432649975362 ,46,1745236757165 ,69,5656247099406
8.5150026 ,Left ,61,9128729614328 ,46,1981291851181 ,69,557628970278
8.5150065 ,Left ,61,9128729614328 ,46,1981291851181 ,69,557628970278
8.5150094 ,Left ,61,9128729614328 ,46,1981291851181 ,69,557628970278
8.5377089 ,Left ,61,903015510919 ,46,2356576191858 ,69,5680728091587
8.5377182 ,Left ,61,903015510919 ,46,2356576191858 ,69,5680728091587
8.5377214 ,Left ,61,903015510919 ,46,2356576191858 ,69,5680728091587
8.552598 ,Left ,61,87543369417 ,46,2757665393091 ,69,5896467990501
8.5526014 ,Left ,61,87543369417 ,46,2757665393091 ,69,5896467990501
8.5526043 ,Left ,61,87543369417 ,46,2757665393091 ,69,5896467990501
8.5751611 ,Left ,61,8374919886161 ,46,3250958751509 ,69,6069881817838
8.5751647 ,Left ,61,8374919886161 ,46,3250958751509 ,69,6069881817838
8.5751678 ,Left ,61,8374919886161 ,46,3250958751509 ,69,6069881817838
8.5978879 ,Left ,61,7968179125675 ,46,381951738433 ,69,623586452163
8.5978915 ,Left ,61,7968179125675 ,46,381951738433 ,69,623586452163
8.5978944 ,Left ,61,7968179125675 ,46,381951738433 ,69,623586452163
8.6124899 ,Left ,61,7441078110141 ,46,4361586090481 ,69,6559955325126
8.6124917 ,Left ,61,7441078110141 ,46,4361586090481 ,69,6559955325126
8.6124932 ,Left ,61,7441078110141 ,46,4361586090481 ,69,6559955325126
8.6349331 ,Left ,61,6974997275075 ,46,4962790316693 ,69,6856100844843
8.6349351 ,Left ,61,6974997275075 ,46,4962790316693 ,69,6856100844843
8.6349366 ,Left ,61,6974997275075 ,46,4962790316693 ,69,6856100844843
8.6575957 ,Left ,61,6598649499602 ,46,5623315449856 ,69,7106553761135
8.6575983 ,Left ,61,6598649499602 ,46,5623315449856 ,69,7106553761135
8.6575999 ,Left ,61,6598649499602 ,46,5623315449856 ,69,7106553761135
8.6725859 ,Left ,61,6339743384202 ,46,6236651400177 ,69,728335593325
8.6725886 ,Left ,61,6339743384202 ,46,6236651400177 ,69,728335593325
8.6725907 ,Left ,61,6339743384202 ,46,6236651400177 ,69,728335593325
8.6950153 ,Left ,61,6007912111411 ,46,6690843582223 ,69,7369588331145
8.6950183 ,Left ,61,6007912111411 ,46,6690843582223 ,69,7369588331145
8.6950205 ,Left ,61,6007912111411 ,46,6690843582223 ,69,7369588331145
8.7176282 ,Left ,61,5574262401821 ,46,6968844489238 ,69,7409631710292
8.7176314 ,Left ,61,5574262401821 ,46,6968844489238 ,69,7409631710292
8.7176338 ,Left ,61,5574262401821 ,46,6968844489238 ,69,7409631710292
8.7325573 ,Left ,61,4911038193081 ,46,6934247983478 ,69,7389545390012
8.7325605 ,Left ,61,4911038193081 ,46,6934247983478 ,69,7389545390012
8.7325631 ,Left ,61,4911038193081 ,46,6934247983478 ,69,7389545390012
8.755057 ,Left ,61,4070948891057 ,46,6763240445129 ,69,748588328197
8.7550604 ,Left ,61,4070948891057 ,46,6763240445129 ,69,748588328197
8.755063 ,Left ,61,4070948891057 ,46,6763240445129 ,69,748588328197
8.7776046 ,Left ,61,3296685543587 ,46,6516899573518 ,69,7652493343265
8.7776066 ,Left ,61,3296685543587 ,46,6516899573518 ,69,7652493343265
8.7776081 ,Left ,61,3296685543587 ,46,6516899573518 ,69,7652493343265
8.7926027 ,Left ,61,2489034603346 ,46,6381694918592 ,69,7819679790252
8.792606 ,Left ,61,2489034603346 ,46,6381694918592 ,69,7819679790252
8.7926074 ,Left ,61,2489034603346 ,46,6381694918592 ,69,7819679790252
8.8149447 ,Left ,61,1733040728115 ,46,6411874841681 ,69,7891838639667
8.8149469 ,Left ,61,1733040728115 ,46,6411874841681 ,69,7891838639667
8.8149484 ,Left ,61,1733040728115 ,46,6411874841681 ,69,7891838639667
8.8451722 ,Left ,61,0394988715601 ,46,5944053073507 ,69,8146979544715
8.8451742 ,Left ,61,0394988715601 ,46,5944053073507 ,69,8146979544715
8.8451756 ,Left ,61,0394988715601 ,46,5944053073507 ,69,8146979544715
8.8601873 ,Left ,60,9744545987613 ,46,5343221650404 ,69,88719175563
8.8601896 ,Left ,60,9744545987613 ,46,5343221650404 ,69,88719175563
8.8601913 ,Left ,60,9744545987613 ,46,5343221650404 ,69,88719175563
8.8825515 ,Left ,60,9662733948534 ,46,5248464363429 ,69,9464052454849
8.8825533 ,Left ,60,9662733948534 ,46,5248464363429 ,69,9464052454849
8.8825548 ,Left ,60,9662733948534 ,46,5248464363429 ,69,9464052454849
8.898185 ,Left ,60,9689724636108 ,46,5619781470339 ,69,9653985135998
8.8981931 ,Left ,60,9689724636108 ,46,5619781470339 ,69,9653985135998
8.8982 ,Left ,60,9689724636108 ,46,5619781470339 ,69,9653985135998
8.9130888 ,Left ,61,0211074216569 ,46,6102903587739 ,69,9613749862815
8.9130964 ,Left ,61,0211074216569 ,46,6102903587739 ,69,9613749862815
8.9131031 ,Left ,61,0211074216569 ,46,6102903587739 ,69,9613749862815
8.9351274 ,Left ,61,0483514598599 ,46,647329567664 ,69,9368131405152
8.9351317 ,Left ,61,0483514598599 ,46,647329567664 ,69,9368131405152
8.9351353 ,Left ,61,0483514598599 ,46,647329567664 ,69,9368131405152
8.9575582 ,Left ,61,1058324749698 ,46,6766760468175 ,69,886308474272
8.95756 ,Left ,61,1058324749698 ,46,6766760468175 ,69,886308474272
8.9575615 ,Left ,61,1058324749698 ,46,6766760468175 ,69,886308474272
8.9725967 ,Left ,61,141761553179 ,46,6897578731354 ,69,8066217420915
8.9726003 ,Left ,61,141761553179 ,46,6897578731354 ,69,8066217420915
8.9726019 ,Left ,61,141761553179 ,46,6897578731354 ,69,8066217420915
8.9954052 ,Left ,61,1710956346327 ,46,6865474402605 ,69,7103506584304
8.9954131 ,Left ,61,1710956346327 ,46,6865474402605 ,69,7103506584304
8.9954199 ,Left ,61,1710956346327 ,46,6865474402605 ,69,7103506584304
9.018046 ,Left ,61,1531680625151 ,46,6701801020598 ,69,6210788972819
9.0180503 ,Left ,61,1531680625151 ,46,6701801020598 ,69,6210788972819
9.0180539 ,Left ,61,1531680625151 ,46,6701801020598 ,69,6210788972819
9.032712 ,Left ,61,1175540401535 ,46,6624807044345 ,69,5608846476062
9.032715 ,Left ,61,1175540401535 ,46,6624807044345 ,69,5608846476062
9.0327174 ,Left ,61,1175540401535 ,46,6624807044345 ,69,5608846476062
9.0548343 ,Left ,61,1157377472552 ,46,6868779430058 ,69,5079206254461
9.0548362 ,Left ,61,1157377472552 ,46,6868779430058 ,69,5079206254461
9.0548377 ,Left ,61,1157377472552 ,46,6868779430058 ,69,5079206254461
9.0775467 ,Left ,61,1267684778759 ,46,6990822608906 ,69,4765494561731
9.0775491 ,Left ,61,1267684778759 ,46,6990822608906 ,69,4765494561731
9.0775507 ,Left ,61,1267684778759 ,46,6990822608906 ,69,4765494561731
9.0925333 ,Left ,61,1160888436864 ,46,5968690988517 ,69,5202654887088
9.0925351 ,Left ,61,1160888436864 ,46,5968690988517 ,69,5202654887088
9.0925366 ,Left ,61,1160888436864 ,46,5968690988517 ,69,5202654887088
9.1151029 ,Left ,61,1609215740562 ,46,4788003768551 ,69,604919262902
9.1151054 ,Left ,61,1609215740562 ,46,4788003768551 ,69,604919262902
9.1151073 ,Left ,61,1609215740562 ,46,4788003768551 ,69,604919262902
9.1377543 ,Left ,61,2001338558174 ,46,4903210349131 ,69,603794082106
9.1377571 ,Left ,61,2001338558174 ,46,4903210349131 ,69,603794082106
9.137759 ,Left ,61,2001338558174 ,46,4903210349131 ,69,603794082106
9.1525791 ,Left ,61,1790465611325 ,46,5854583189685 ,69,5212913327791
9.1525816 ,Left ,61,1790465611325 ,46,5854583189685 ,69,5212913327791
9.1525836 ,Left ,61,1790465611325 ,46,5854583189685 ,69,5212913327791
9.1752122 ,Left ,61,2256054966627 ,46,6609059587446 ,69,456986958059
9.1752142 ,Left ,61,2256054966627 ,46,6609059587446 ,69,456986958059
9.1752156 ,Left ,61,2256054966627 ,46,6609059587446 ,69,456986958059
9.1976648 ,Left ,61,2781651932668 ,46,6868860631504 ,69,4604023540931
9.1976669 ,Left ,61,2781651932668 ,46,6868860631504 ,69,4604023540931
9.1976685 ,Left ,61,2781651932668 ,46,6868860631504 ,69,4604023540931
9.2125212 ,Left ,61,2912053342556 ,46,7129346302816 ,69,4808035906079
9.2125234 ,Left ,61,2912053342556 ,46,7129346302816 ,69,4808035906079
9.2125251 ,Left ,61,2912053342556 ,46,7129346302816 ,69,4808035906079
9.234926 ,Left ,61,2043903277687 ,46,7054928375081 ,69,4933722748532
9.2349286 ,Left ,61,2043903277687 ,46,7054928375081 ,69,4933722748532
9.2349306 ,Left ,61,2043903277687 ,46,7054928375081 ,69,4933722748532
9.257522 ,Left ,61,0937834586066 ,46,6534268880154 ,69,5650336986952
9.257524 ,Left ,61,0937834586066 ,46,6534268880154 ,69,5650336986952
9.2575255 ,Left ,61,0937834586066 ,46,6534268880154 ,69,5650336986952
9.2725215 ,Left ,61,1186324996989 ,46,6019191029882 ,69,6322302853018
9.2725235 ,Left ,61,1186324996989 ,46,6019191029882 ,69,6322302853018
9.272525 ,Left ,61,1186324996989 ,46,6019191029882 ,69,6322302853018
9.2949543 ,Left ,61,1289151334031 ,46,6184713017577 ,69,6437563152422
9.2949567 ,Left ,61,1289151334031 ,46,6184713017577 ,69,6437563152422
9.2949584 ,Left ,61,1289151334031 ,46,6184713017577 ,69,6437563152422
9.3175833 ,Left ,61,1266331956852 ,46,7062962872619 ,69,5936955844622
9.3175862 ,Left ,61,1266331956852 ,46,7062962872619 ,69,5936955844622
9.3175886 ,Left ,61,1266331956852 ,46,7062962872619 ,69,5936955844622
9.3401774 ,Left ,61,0974851864769 ,46,7798277040851 ,69,5354302162058
9.3401806 ,Left ,61,0974851864769 ,46,7798277040851 ,69,5354302162058
9.340183 ,Left ,61,0974851864769 ,46,7798277040851 ,69,5354302162058
9.3626385 ,Left ,61,0576472642087 ,46,8274662399771 ,69,5382154080346
9.3626414 ,Left ,61,0576472642087 ,46,8274662399771 ,69,5382154080346
9.3626437 ,Left ,61,0576472642087 ,46,8274662399771 ,69,5382154080346
9.392403 ,Left ,60,9622791852193 ,46,9291253879471 ,69,5480556257029
9.3924059 ,Left ,60,9622791852193 ,46,9291253879471 ,69,5480556257029
9.3924075 ,Left ,60,9622791852193 ,46,9291253879471 ,69,5480556257029
9.415171 ,Left ,60,9210962980243 ,46,9433649217351 ,69,5379460608737
9.415173 ,Left ,60,9210962980243 ,46,9433649217351 ,69,5379460608737
9.4151745 ,Left ,60,9210962980243 ,46,9433649217351 ,69,5379460608737
9.430287 ,Left ,60,8768151765308 ,46,9218349186604 ,69,5166508297459
9.4302896 ,Left ,60,8768151765308 ,46,9218349186604 ,69,5166508297459
9.4302915 ,Left ,60,8768151765308 ,46,9218349186604 ,69,5166508297459
9.4682574 ,Left ,60,7301520924245 ,46,8290812422289 ,69,464581737122
9.4682654 ,Left ,60,7301520924245 ,46,8290812422289 ,69,464581737122
9.4682721 ,Left ,60,7301520924245 ,46,8290812422289 ,69,464581737122
9.4899183 ,Left ,60,6037039879787 ,46,8115549412131 ,69,495357789412
9.4899201 ,Left ,60,6037039879787 ,46,8115549412131 ,69,495357789412
9.4899216 ,Left ,60,6037039879787 ,46,8115549412131 ,69,495357789412
9.5277001 ,Left ,60,4106191704737 ,46,808447486568 ,69,6087374494144
9.5277023 ,Left ,60,4106191704737 ,46,808447486568 ,69,6087374494144
9.5277041 ,Left ,60,4106191704737 ,46,808447486568 ,69,6087374494144
9.5503403 ,Left ,60,4330344752467 ,46,8234437121341 ,69,6732269942343
9.5503438 ,Left ,60,4330344752467 ,46,8234437121341 ,69,6732269942343
9.5503457 ,Left ,60,4330344752467 ,46,8234437121341 ,69,6732269942343
9.5877375 ,Left ,60,5988180449932 ,46,9021915664895 ,69,6344214791215
9.5877397 ,Left ,60,5988180449932 ,46,9021915664895 ,69,6344214791215
9.5877413 ,Left ,60,5988180449932 ,46,9021915664895 ,69,6344214791215
9.6099534 ,Left ,60,6907562579943 ,46,8935940815048 ,69,5807859165454
9.6099559 ,Left ,60,6907562579943 ,46,8935940815048 ,69,5807859165454
9.6099578 ,Left ,60,6907562579943 ,46,8935940815048 ,69,5807859165454
9.6252829 ,Left ,60,78129642346 ,46,858297528458 ,69,5326928634945
9.6252859 ,Left ,60,78129642346 ,46,858297528458 ,69,5326928634945
9.6252882 ,Left ,60,78129642346 ,46,858297528458 ,69,5326928634945
9.6477459 ,Left ,60,9003116098166 ,46,8516984504615 ,69,4739315314325
9.6477491 ,Left ,60,9003116098166 ,46,8516984504615 ,69,4739315314325
9.6477522 ,Left ,60,9003116098166 ,46,8516984504615 ,69,4739315314325
9.6707403 ,Left ,61,0131447804345 ,46,8636112943352 ,69,3806863780565
9.6707484 ,Left ,61,0131447804345 ,46,8636112943352 ,69,3806863780565
9.6707551 ,Left ,61,0131447804345 ,46,8636112943352 ,69,3806863780565
9.7082681 ,Left ,61,2749811035933 ,46,8837304575571 ,69,213004147595
9.7082761 ,Left ,61,2749811035933 ,46,8837304575571 ,69,213004147595
9.7082829 ,Left ,61,2749811035933 ,46,8837304575571 ,69,213004147595
9.7301618 ,Left ,61,3697982253288 ,46,9230983342717 ,69,1551911138692
9.7301653 ,Left ,61,3697982253288 ,46,9230983342717 ,69,1551911138692
9.7301683 ,Left ,61,3697982253288 ,46,9230983342717 ,69,1551911138692
9.7675787 ,Left ,61,2910440151977 ,47,0739995233366 ,69,1174069087094
9.7675811 ,Left ,61,2910440151977 ,47,0739995233366 ,69,1174069087094
9.7675832 ,Left ,61,2910440151977 ,47,0739995233366 ,69,1174069087094
9.7900282 ,Left ,61,1779927271931 ,47,1435964354566 ,69,1050134178163
9.7900307 ,Left ,61,1779927271931 ,47,1435964354566 ,69,1050134178163
9.7900328 ,Left ,61,1779927271931 ,47,1435964354566 ,69,1050134178163
9.8277174 ,Left ,60,8492629476218 ,47,2130625513472 ,69,106407090136
9.8277201 ,Left ,60,8492629476218 ,47,2130625513472 ,69,106407090136
9.8277222 ,Left ,60,8492629476218 ,47,2130625513472 ,69,106407090136
9.850036 ,Left ,60,7129469623124 ,47,1990415399345 ,69,1118101264259
9.8500435 ,Left ,60,7129469623124 ,47,1990415399345 ,69,1118101264259
9.850045 ,Left ,60,7129469623124 ,47,1990415399345 ,69,1118101264259
9.8876242 ,Left ,60,516516681027 ,47,0378834615692 ,69,2223187747417
9.8876274 ,Left ,60,516516681027 ,47,0378834615692 ,69,2223187747417
9.8876297 ,Left ,60,516516681027 ,47,0378834615692 ,69,2223187747417
9.910101 ,Left ,60,3898919066246 ,46,96424350834 ,69,2934727165534
9.910103 ,Left ,60,3898919066246 ,46,96424350834 ,69,2934727165534
9.9101046 ,Left ,60,3898919066246 ,46,96424350834 ,69,2934727165534
9.9477997 ,Left ,60,3749836549996 ,46,9964066336886 ,69,2516847707173
9.9478026 ,Left ,60,3749836549996 ,46,9964066336886 ,69,2516847707173
9.9478049 ,Left ,60,3749836549996 ,46,9964066336886 ,69,2516847707173
9.9774959 ,Left ,60,4118312040977 ,46,9890442502396 ,69,1857220452088
9.9774979 ,Left ,60,4118312040977 ,46,9890442502396 ,69,1857220452088
9.9774994 ,Left ,60,4118312040977 ,46,9890442502396 ,69,1857220452088
10.0148426 ,Left ,60,6001338357429 ,46,9359535848564 ,69,0312654559227
10.0148447 ,Left ,60,6001338357429 ,46,9359535848564 ,69,0312654559227
10.0148463 ,Left ,60,6001338357429 ,46,9359535848564 ,69,0312654559227
10.0308421 ,Left ,60,671437990986 ,46,8727804957725 ,68,9260961862054
10.0308499 ,Left ,60,671437990986 ,46,8727804957725 ,68,9260961862054
10.0308566 ,Left ,60,671437990986 ,46,8727804957725 ,68,9260961862054
10.0676051 ,Left ,60,9540882023577 ,46,6803402152995 ,68,7352782232329
10.0676069 ,Left ,60,9540882023577 ,46,6803402152995 ,68,7352782232329
10.0676084 ,Left ,60,9540882023577 ,46,6803402152995 ,68,7352782232329
10.0899306 ,Left ,61,1359445255871 ,46,5785425410446 ,68,6734610143219
10.0899327 ,Left ,61,1359445255871 ,46,5785425410446 ,68,6734610143219
10.0899344 ,Left ,61,1359445255871 ,46,5785425410446 ,68,6734610143219
10.127521 ,Left ,61,4419109888651 ,46,4635073734011 ,68,7020244168385
10.1275231 ,Left ,61,4419109888651 ,46,4635073734011 ,68,7020244168385
10.1275246 ,Left ,61,4419109888651 ,46,4635073734011 ,68,7020244168385
10.1508707 ,Left ,61,5653475953439 ,46,4026935379177 ,68,7526171253659
10.1508788 ,Left ,61,5653475953439 ,46,4026935379177 ,68,7526171253659
10.1508856 ,Left ,61,5653475953439 ,46,4026935379177 ,68,7526171253659
10.1882799 ,Left ,61,8478688531908 ,46,3303906140622 ,68,7658711403027
10.188288 ,Left ,61,8478688531908 ,46,3303906140622 ,68,7658711403027
10.1882947 ,Left ,61,8478688531908 ,46,3303906140622 ,68,7658711403027
10.2102814 ,Left ,61,8713098301391 ,46,3414932658371 ,68,7703733428099
10.2102895 ,Left ,61,8713098301391 ,46,3414932658371 ,68,7703733428099
10.2102969 ,Left ,61,8713098301391 ,46,3414932658371 ,68,7703733428099
10.2476059 ,Left ,61,7796632289759 ,46,4201832552918 ,68,7585419789815
10.2476084 ,Left ,61,7796632289759 ,46,4201832552918 ,68,7585419789815
10.2476105 ,Left ,61,7796632289759 ,46,4201832552918 ,68,7585419789815
10.270065 ,Left ,61,6955567970221 ,46,4690340278095 ,68,7510084812805
10.2700714 ,Left ,61,6955567970221 ,46,4690340278095 ,68,7510084812805
10.270074 ,Left ,61,6955567970221 ,46,4690340278095 ,68,7510084812805
10.3081254 ,Left ,61,4682487761991 ,46,5977330565545 ,68,7503172309535
10.3081335 ,Left ,61,4682487761991 ,46,5977330565545 ,68,7503172309535
10.3081402 ,Left ,61,4682487761991 ,46,5977330565545 ,68,7503172309535
10.3309192 ,Left ,61,353407992208 ,46,682661894205 ,68,736535751762
10.3309272 ,Left ,61,353407992208 ,46,682661894205 ,68,736535751762
10.330934 ,Left ,61,353407992208 ,46,682661894205 ,68,736535751762
10.3676964 ,Left ,61,0042220191079 ,46,8322373571178 ,68,7591795899305
10.3677008 ,Left ,61,0042220191079 ,46,8322373571178 ,68,7591795899305
10.3677045 ,Left ,61,0042220191079 ,46,8322373571178 ,68,7591795899305
10.3902036 ,Left ,60,8674200381986 ,46,8981225276636 ,68,8411471945596
10.3902091 ,Left ,60,8674200381986 ,46,8981225276636 ,68,8411471945596
10.3902115 ,Left ,60,8674200381986 ,46,8981225276636 ,68,8411471945596
10.4274566 ,Left ,60,8503844837927 ,47,2247479476654 ,68,9668283634209
10.4274613 ,Left ,60,8503844837927 ,47,2247479476654 ,68,9668283634209
10.4274633 ,Left ,60,8503844837927 ,47,2247479476654 ,68,9668283634209
10.4502354 ,Left ,60,9416215827723 ,47,4086582510769 ,68,9817334749664
10.4502376 ,Left ,60,9416215827723 ,47,4086582510769 ,68,9817334749664
10.4502392 ,Left ,60,9416215827723 ,47,4086582510769 ,68,9817334749664
10.4877697 ,Left ,61,1306744907643 ,47,5186262100288 ,69,063377162141
10.4877724 ,Left ,61,1306744907643 ,47,5186262100288 ,69,063377162141
10.4877745 ,Left ,61,1306744907643 ,47,5186262100288 ,69,063377162141
10.5104566 ,Left ,61,1457213961681 ,47,4843825151721 ,69,1039199619873
10.5104599 ,Left ,61,1457213961681 ,47,4843825151721 ,69,1039199619873
10.5104625 ,Left ,61,1457213961681 ,47,4843825151721 ,69,1039199619873
10.5477003 ,Left ,61,2690029867905 ,47,3102822859899 ,69,1830594560889
10.5477038 ,Left ,61,2690029867905 ,47,3102822859899 ,69,1830594560889
10.5477065 ,Left ,61,2690029867905 ,47,3102822859899 ,69,1830594560889
10.5702841 ,Left ,61,3568389872215 ,47,1878725602953 ,69,2395036587942
10.5702875 ,Left ,61,3568389872215 ,47,1878725602953 ,69,2395036587942
10.5702902 ,Left ,61,3568389872215 ,47,1878725602953 ,69,2395036587942
10.6074465 ,Left ,61,5702547759768 ,46,9890100825675 ,69,3713026808526
10.6074485 ,Left ,61,5702547759768 ,46,9890100825675 ,69,3713026808526
10.60745 ,Left ,61,5702547759768 ,46,9890100825675 ,69,3713026808526
10.6309213 ,Left ,61,6550286629597 ,46,8966305194938 ,69,4506671410265
10.6309293 ,Left ,61,6550286629597 ,46,8966305194938 ,69,4506671410265
10.6309362 ,Left ,61,6550286629597 ,46,8966305194938 ,69,4506671410265
10.6682869 ,Left ,61,8254708265905 ,46,7298168427315 ,69,6027563831037
10.6682949 ,Left ,61,8254708265905 ,46,7298168427315 ,69,6027563831037
10.6683017 ,Left ,61,8254708265905 ,46,7298168427315 ,69,6027563831037
10.6903558 ,Left ,61,8729185761787 ,46,6641481601815 ,69,6771662537331
10.6903589 ,Left ,61,8729185761787 ,46,6641481601815 ,69,6771662537331
10.6903614 ,Left ,61,8729185761787 ,46,6641481601815 ,69,6771662537331
10.7501238 ,Left ,62,0436791604167 ,46,5194464432385 ,69,8228547619529
10.7501262 ,Left ,62,0436791604167 ,46,5194464432385 ,69,8228547619529
10.7501279 ,Left ,62,0436791604167 ,46,5194464432385 ,69,8228547619529
10.8099928 ,Left ,62,1123130394079 ,46,4252456435469 ,69,8686484865644
10.8099947 ,Left ,62,1123130394079 ,46,4252456435469 ,69,8686484865644
10.8099963 ,Left ,62,1123130394079 ,46,4252456435469 ,69,8686484865644
10.8476696 ,Left ,62,1540537964988 ,46,3593925384438 ,69,8786426589336
10.8476722 ,Left ,62,1540537964988 ,46,3593925384438 ,69,8786426589336
10.8476743 ,Left ,62,1540537964988 ,46,3593925384438 ,69,8786426589336
10.8702515 ,Left ,62,1356374860763 ,46,3410222072911 ,69,8773471246365
10.8702544 ,Left ,62,1356374860763 ,46,3410222072911 ,69,8773471246365
10.8702568 ,Left ,62,1356374860763 ,46,3410222072911 ,69,8773471246365
10.9077215 ,Left ,62,1254206714925 ,46,3455449897149 ,69,8314963564989
10.9077237 ,Left ,62,1254206714925 ,46,3455449897149 ,69,8314963564989
10.9077253 ,Left ,62,1254206714925 ,46,3455449897149 ,69,8314963564989
10.9300433 ,Left ,62,1191696959904 ,46,3374835618032 ,69,8141579613383
10.930046 ,Left ,62,1191696959904 ,46,3374835618032 ,69,8141579613383
10.9300477 ,Left ,62,1191696959904 ,46,3374835618032 ,69,8141579613383
10.9675356 ,Left ,62,1181545519982 ,46,338014808814 ,69,7765637494332
10.9675374 ,Left ,62,1181545519982 ,46,338014808814 ,69,7765637494332
10.9675389 ,Left ,62,1181545519982 ,46,338014808814 ,69,7765637494332
10.9903118 ,Left ,62,1335266514362 ,46,3495951330568 ,69,7404766023274
10.9903143 ,Left ,62,1335266514362 ,46,3495951330568 ,69,7404766023274
10.9903162 ,Left ,62,1335266514362 ,46,3495951330568 ,69,7404766023274
11.0276365 ,Left ,62,1832378408834 ,46,3510635245545 ,69,6533508162903
11.0276389 ,Left ,62,1832378408834 ,46,3510635245545 ,69,6533508162903
11.0276406 ,Left ,62,1832378408834 ,46,3510635245545 ,69,6533508162903
11.0503694 ,Left ,62,1958575208285 ,46,3404622425513 ,69,6010583590228
11.0503731 ,Left ,62,1958575208285 ,46,3404622425513 ,69,6010583590228
11.0503762 ,Left ,62,1958575208285 ,46,3404622425513 ,69,6010583590228
11.087539 ,Left ,62,1777430442813 ,46,3070518168203 ,69,5041953139418
11.087541 ,Left ,62,1777430442813 ,46,3070518168203 ,69,5041953139418
11.0875442 ,Left ,62,1777430442813 ,46,3070518168203 ,69,5041953139418
11.1252858 ,Left ,62,1572037053171 ,46,2506786684074 ,69,4183138928095
11.125289 ,Left ,62,1572037053171 ,46,2506786684074 ,69,4183138928095
11.1253047 ,Left ,62,1572037053171 ,46,2506786684074 ,69,4183138928095
11.1482276 ,Left ,62,1361667313727 ,46,2162641875977 ,69,3687118962203
11.1482357 ,Left ,62,1361667313727 ,46,2162641875977 ,69,3687118962203
11.1482424 ,Left ,62,1361667313727 ,46,2162641875977 ,69,3687118962203
11.185212 ,Left ,62,0906448330283 ,46,1500355846972 ,69,2786666094687
11.1852141 ,Left ,62,0906448330283 ,46,1500355846972 ,69,2786666094687
11.1852157 ,Left ,62,0906448330283 ,46,1500355846972 ,69,2786666094687
11.2075754 ,Left ,62,0626339003647 ,46,1140432322034 ,69,2544052558696
11.2075781 ,Left ,62,0626339003647 ,46,1140432322034 ,69,2544052558696
11.2075804 ,Left ,62,0626339003647 ,46,1140432322034 ,69,2544052558696
11.2451246 ,Left ,62,0031699441935 ,46,0743290196758 ,69,2456134287477
11.2451267 ,Left ,62,0031699441935 ,46,0743290196758 ,69,2456134287477
11.2451282 ,Left ,62,0031699441935 ,46,0743290196758 ,69,2456134287477
11.2682556 ,Left ,62,0003375359733 ,46,0625296725781 ,69,2600320047063
11.2682633 ,Left ,62,0003375359733 ,46,0625296725781 ,69,2600320047063
11.26827 ,Left ,62,0003375359733 ,46,0625296725781 ,69,2600320047063
11.2833146 ,Left ,62,0038038976267 ,46,0555281432828 ,69,2794005918494
11.2833225 ,Left ,62,0038038976267 ,46,0555281432828 ,69,2794005918494
11.2833292 ,Left ,62,0038038976267 ,46,0555281432828 ,69,2794005918494
11.3059105 ,Left ,61,9971717599751 ,46,0578948118915 ,69,2950276720044
11.3059186 ,Left ,61,9971717599751 ,46,0578948118915 ,69,2950276720044
11.3059254 ,Left ,61,9971717599751 ,46,0578948118915 ,69,2950276720044
11.3203068 ,Left ,62,0010064589229 ,46,0690067764853 ,69,3070414000779
11.320313 ,Left ,62,0010064589229 ,46,0690067764853 ,69,3070414000779
11.3203177 ,Left ,62,0010064589229 ,46,0690067764853 ,69,3070414000779
11.3426469 ,Left ,61,9995126082796 ,46,0822650226015 ,69,3244752234206
11.3426522 ,Left ,61,9995126082796 ,46,0822650226015 ,69,3244752234206
11.3426546 ,Left ,61,9995126082796 ,46,0822650226015 ,69,3244752234206
11.3651497 ,Left ,61,9940692764502 ,46,1032592658469 ,69,3356602057735
11.3651529 ,Left ,61,9940692764502 ,46,1032592658469 ,69,3356602057735
11.3651554 ,Left ,61,9940692764502 ,46,1032592658469 ,69,3356602057735
11.3800459 ,Left ,61,979734257531 ,46,1436794509823 ,69,3412052223961
11.3800488 ,Left ,61,979734257531 ,46,1436794509823 ,69,3412052223961
11.3800513 ,Left ,61,979734257531 ,46,1436794509823 ,69,3412052223961
11.4028576 ,Left ,61,9507728761785 ,46,204056533501 ,69,339883992092
11.4028608 ,Left ,61,9507728761785 ,46,204056533501 ,69,339883992092
11.4028632 ,Left ,61,9507728761785 ,46,204056533501 ,69,339883992092
11.4250677 ,Left ,61,9130375800573 ,46,2830930521097 ,69,351339764141
11.4250708 ,Left ,61,9130375800573 ,46,2830930521097 ,69,351339764141
11.4250732 ,Left ,61,9130375800573 ,46,2830930521097 ,69,351339764141
11.4401547 ,Left ,61,86479989261 ,46,3664982943713 ,69,3757035315543
11.4401576 ,Left ,61,86479989261 ,46,3664982943713 ,69,3757035315543
11.4401601 ,Left ,61,86479989261 ,46,3664982943713 ,69,3757035315543
11.4625566 ,Left ,61,8043818008735 ,46,445463069602 ,69,40700169606
11.4625586 ,Left ,61,8043818008735 ,46,445463069602 ,69,40700169606
11.4625601 ,Left ,61,8043818008735 ,46,445463069602 ,69,40700169606
11.4852046 ,Left ,61,7434076460623 ,46,5246501507539 ,69,4327253908471
11.4852068 ,Left ,61,7434076460623 ,46,5246501507539 ,69,4327253908471
11.4852084 ,Left ,61,7434076460623 ,46,5246501507539 ,69,4327253908471
11.5001924 ,Left ,61,6666503853277 ,46,6062735562027 ,69,4459726477138
11.5001946 ,Left ,61,6666503853277 ,46,6062735562027 ,69,4459726477138
11.500196 ,Left ,61,6666503853277 ,46,6062735562027 ,69,4459726477138
11.5225672 ,Left ,61,6251557939891 ,46,6804551191831 ,69,446847215915
11.522569 ,Left ,61,6251557939891 ,46,6804551191831 ,69,446847215915
11.5225705 ,Left ,61,6251557939891 ,46,6804551191831 ,69,446847215915
11.5451001 ,Left ,61,5574883496122 ,46,7271437519222 ,69,4501448297995
11.5451048 ,Left ,61,5574883496122 ,46,7271437519222 ,69,4501448297995
11.545107 ,Left ,61,5574883496122 ,46,7271437519222 ,69,4501448297995
11.5600805 ,Left ,61,4462963691617 ,46,7504603798661 ,69,4731452569551
11.5600831 ,Left ,61,4462963691617 ,46,7504603798661 ,69,4731452569551
11.5600852 ,Left ,61,4462963691617 ,46,7504603798661 ,69,4731452569551
11.582516 ,Left ,61,2960316058412 ,46,7537653539304 ,69,4994076188355
11.5825186 ,Left ,61,2960316058412 ,46,7537653539304 ,69,4994076188355
11.5825201 ,Left ,61,2960316058412 ,46,7537653539304 ,69,4994076188355
11.6058017 ,Left ,61,1221586958747 ,46,707411482248 ,69,4940061795276
11.6058096 ,Left ,61,1221586958747 ,46,707411482248 ,69,4940061795276
11.6058165 ,Left ,61,1221586958747 ,46,707411482248 ,69,4940061795276
11.6208257 ,Left ,61,0319554480895 ,46,6298266255678 ,69,5224829932902
11.6208337 ,Left ,61,0319554480895 ,46,6298266255678 ,69,5224829932902
11.6208405 ,Left ,61,0319554480895 ,46,6298266255678 ,69,5224829932902
11.6426979 ,Left ,60,977809052348 ,46,5725413443881 ,69,5627798116022
11.6427024 ,Left ,60,977809052348 ,46,5725413443881 ,69,5627798116022
11.642706 ,Left ,60,977809052348 ,46,5725413443881 ,69,5627798116022
11.6652371 ,Left ,60,9447114976961 ,46,5832016788054 ,69,5714566523904
11.6652402 ,Left ,60,9447114976961 ,46,5832016788054 ,69,5714566523904
11.6652427 ,Left ,60,9447114976961 ,46,5832016788054 ,69,5714566523904
11.6800672 ,Left ,60,9272791647522 ,46,6274716445576 ,69,513835874519
11.6800701 ,Left ,60,9272791647522 ,46,6274716445576 ,69,513835874519
11.6800726 ,Left ,60,9272791647522 ,46,6274716445576 ,69,513835874519
11.7025608 ,Left ,60,982561779662 ,46,6709121649377 ,69,4229964080946
11.7025626 ,Left ,60,982561779662 ,46,6709121649377 ,69,4229964080946
11.7025641 ,Left ,60,982561779662 ,46,6709121649377 ,69,4229964080946
11.7250822 ,Left ,61,0495597147067 ,46,6904949566231 ,69,3321514440347
11.7250846 ,Left ,61,0495597147067 ,46,6904949566231 ,69,3321514440347
11.7250861 ,Left ,61,0495597147067 ,46,6904949566231 ,69,3321514440347
11.7401448 ,Left ,61,1334416041995 ,46,681266834972 ,69,2588848216093
11.740147 ,Left ,61,1334416041995 ,46,681266834972 ,69,2588848216093
11.7401486 ,Left ,61,1334416041995 ,46,681266834972 ,69,2588848216093
11.7625587 ,Left ,61,184210517279 ,46,6496139538191 ,69,2025143226444
11.7625614 ,Left ,61,184210517279 ,46,6496139538191 ,69,2025143226444
11.7625633 ,Left ,61,184210517279 ,46,6496139538191 ,69,2025143226444
11.7855755 ,Left ,61,2465602336575 ,46,5880265367783 ,69,1466364011125
11.7855834 ,Left ,61,2465602336575 ,46,5880265367783 ,69,1466364011125
11.7855903 ,Left ,61,2465602336575 ,46,5880265367783 ,69,1466364011125
11.8004863 ,Left ,61,3091984333956 ,46,5030751320029 ,69,1092577029416
11.800507 ,Left ,61,3091984333956 ,46,5030751320029 ,69,1092577029416
11.8005171 ,Left ,61,3091984333956 ,46,5030751320029 ,69,1092577029416
11.8301113 ,Left ,61,2398742772117 ,46,3967101797912 ,69,1165357679607
11.830114 ,Left ,61,2398742772117 ,46,3967101797912 ,69,1165357679607
11.8301161 ,Left ,61,2398742772117 ,46,3967101797912 ,69,1165357679607
11.8527843 ,Left ,61,2888849578795 ,46,3162106531021 ,69,15926625258
11.852787 ,Left ,61,2888849578795 ,46,3162106531021 ,69,15926625258
11.8527891 ,Left ,61,2888849578795 ,46,3162106531021 ,69,15926625258
11.8825348 ,Left ,61,3818344201515 ,46,3247131391856 ,69,1856368786751
11.8825374 ,Left ,61,3818344201515 ,46,3247131391856 ,69,1856368786751
11.8825396 ,Left ,61,3818344201515 ,46,3247131391856 ,69,1856368786751
11.9052083 ,Left ,61,4343146549355 ,46,3789641538298 ,69,173261817392
11.905211 ,Left ,61,4343146549355 ,46,3789641538298 ,69,173261817392
11.9052132 ,Left ,61,4343146549355 ,46,3789641538298 ,69,173261817392
11.9199427 ,Left ,61,4799494635386 ,46,4276402300775 ,69,1742268176124
11.9199458 ,Left ,61,4799494635386 ,46,4276402300775 ,69,1742268176124
11.9199473 ,Left ,61,4799494635386 ,46,4276402300775 ,69,1742268176124
11.9426406 ,Left ,61,477544589559 ,46,4315756049308 ,69,1751321761503
11.9426433 ,Left ,61,477544589559 ,46,4315756049308 ,69,1751321761503
11.9426449 ,Left ,61,477544589559 ,46,4315756049308 ,69,1751321761503
11.9651804 ,Left ,61,4831338958462 ,46,419914178648 ,69,1593519026736
11.9651827 ,Left ,61,4831338958462 ,46,419914178648 ,69,1593519026736
11.9651845 ,Left ,61,4831338958462 ,46,419914178648 ,69,1593519026736
11.9806376 ,Left ,61,4752228258959 ,46,3747889127746 ,69,167691780798
11.9806454 ,Left ,61,4752228258959 ,46,3747889127746 ,69,167691780798
11.980652 ,Left ,61,4752228258959 ,46,3747889127746 ,69,167691780798
12.0025329 ,Left ,61,5252596317674 ,46,3438133155404 ,69,1681753694372
12.0025348 ,Left ,61,5252596317674 ,46,3438133155404 ,69,1681753694372
12.0025363 ,Left ,61,5252596317674 ,46,3438133155404 ,69,1681753694372
12.0250265 ,Left ,61,4581148434354 ,46,3126026053211 ,69,1904757512818
12.025029 ,Left ,61,4581148434354 ,46,3126026053211 ,69,1904757512818
12.0250311 ,Left ,61,4581148434354 ,46,3126026053211 ,69,1904757512818
12.0399762 ,Left ,61,421283422405 ,46,3201775166153 ,69,2265427762698
12.039979 ,Left ,61,421283422405 ,46,3201775166153 ,69,2265427762698
12.0399813 ,Left ,61,421283422405 ,46,3201775166153 ,69,2265427762698
12.0625862 ,Left ,61,3976977405071 ,46,3817383786111 ,69,2313471996669
12.0625882 ,Left ,61,3976977405071 ,46,3817383786111 ,69,2313471996669
12.0625896 ,Left ,61,3976977405071 ,46,3817383786111 ,69,2313471996669
12.0849969 ,Left ,61,3712055833257 ,46,4756794683783 ,69,2116025085029
12.0849992 ,Left ,61,3712055833257 ,46,4756794683783 ,69,2116025085029
12.0850011 ,Left ,61,3712055833257 ,46,4756794683783 ,69,2116025085029
12.0999399 ,Left ,61,3755982589691 ,46,5477739096691 ,69,1979230247842
12.0999418 ,Left ,61,3755982589691 ,46,5477739096691 ,69,1979230247842
12.0999433 ,Left ,61,3755982589691 ,46,5477739096691 ,69,1979230247842
12.1223693 ,Left ,61,3958835550857 ,46,5951014727545 ,69,1921853600307
12.1223713 ,Left ,61,3958835550857 ,46,5951014727545 ,69,1921853600307
12.1223964 ,Left ,61,3958835550857 ,46,5951014727545 ,69,1921853600307
12.1449636 ,Left ,61,4035178794935 ,46,6045658511989 ,69,1991020300837
12.1449656 ,Left ,61,4035178794935 ,46,6045658511989 ,69,1991020300837
12.1449674 ,Left ,61,4035178794935 ,46,6045658511989 ,69,1991020300837
12.167812 ,Left ,61,4018690578819 ,46,5911954830079 ,69,1971241856094
12.167815 ,Left ,61,4018690578819 ,46,5911954830079 ,69,1971241856094
12.1678173 ,Left ,61,4018690578819 ,46,5911954830079 ,69,1971241856094
12.1827969 ,Left ,61,3541332700628 ,46,576972314929 ,69,2011977541409
12.1827999 ,Left ,61,3541332700628 ,46,576972314929 ,69,2011977541409
12.1828022 ,Left ,61,3541332700628 ,46,576972314929 ,69,2011977541409
12.2051214 ,Left ,61,3150487882726 ,46,578595702626 ,69,2136307063478
12.2051235 ,Left ,61,3150487882726 ,46,578595702626 ,69,2136307063478
12.205125 ,Left ,61,3150487882726 ,46,578595702626 ,69,2136307063478
12.2276554 ,Left ,61,2717300249687 ,46,6009265781436 ,69,2400409145171
12.2276576 ,Left ,61,2717300249687 ,46,6009265781436 ,69,2400409145171
12.2276592 ,Left ,61,2717300249687 ,46,6009265781436 ,69,2400409145171
12.2424964 ,Left ,61,2327385352444 ,46,6305915901443 ,69,2638824773898
12.2424982 ,Left ,61,2327385352444 ,46,6305915901443 ,69,2638824773898
12.2424997 ,Left ,61,2327385352444 ,46,6305915901443 ,69,2638824773898
12.2651166 ,Left ,61,1910881997473 ,46,6673237883501 ,69,2713793329073
12.2651196 ,Left ,61,1910881997473 ,46,6673237883501 ,69,2713793329073
12.2651219 ,Left ,61,1910881997473 ,46,6673237883501 ,69,2713793329073
12.2875764 ,Left ,61,1379042804831 ,46,6995359447272 ,69,2597449179889
12.2875836 ,Left ,61,1379042804831 ,46,6995359447272 ,69,2597449179889
12.287586 ,Left ,61,1379042804831 ,46,6995359447272 ,69,2597449179889
12.3025839 ,Left ,61,0898608055118 ,46,7192881891431 ,69,2481170397405
12.3025866 ,Left ,61,0898608055118 ,46,7192881891431 ,69,2481170397405
12.302589 ,Left ,61,0898608055118 ,46,7192881891431 ,69,2481170397405
12.3250221 ,Left ,61,0228337413646 ,46,7101528729734 ,69,2380873454728
12.3250242 ,Left ,61,0228337413646 ,46,7101528729734 ,69,2380873454728
12.3250258 ,Left ,61,0228337413646 ,46,7101528729734 ,69,2380873454728
12.3477687 ,Left ,60,9654605530101 ,46,6925040239795 ,69,2293513918077
12.3477712 ,Left ,60,9654605530101 ,46,6925040239795 ,69,2293513918077
12.3477732 ,Left ,60,9654605530101 ,46,6925040239795 ,69,2293513918077
12.3628149 ,Left ,60,8816882227951 ,46,6739459251032 ,69,2352055071009
12.3628174 ,Left ,60,8816882227951 ,46,6739459251032 ,69,2352055071009
12.3628193 ,Left ,60,8816882227951 ,46,6739459251032 ,69,2352055071009
12.3849976 ,Left ,60,7497263075704 ,46,6497463657944 ,69,2221923259066
12.3849999 ,Left ,60,7497263075704 ,46,6497463657944 ,69,2221923259066
12.3850018 ,Left ,60,7497263075704 ,46,6497463657944 ,69,2221923259066
12.4078338 ,Left ,60,5992074597244 ,46,6115438358112 ,69,2525172154147
12.4078396 ,Left ,60,5992074597244 ,46,6115438358112 ,69,2525172154147
12.4078453 ,Left ,60,5992074597244 ,46,6115438358112 ,69,2525172154147
12.4227444 ,Left ,60,5162528258329 ,46,5959534381812 ,69,3273143699158
12.4227477 ,Left ,60,5162528258329 ,46,5959534381812 ,69,3273143699158
12.4227504 ,Left ,60,5162528258329 ,46,5959534381812 ,69,3273143699158
12.4451443 ,Left ,60,4697205392493 ,46,648060520655 ,69,371508706075
12.4451498 ,Left ,60,4697205392493 ,46,648060520655 ,69,371508706075
12.4451524 ,Left ,60,4697205392493 ,46,648060520655 ,69,371508706075
12.4678536 ,Left ,60,5140546152902 ,46,7485727282466 ,69,3667536561769
12.4678569 ,Left ,60,5140546152902 ,46,7485727282466 ,69,3667536561769
12.4678596 ,Left ,60,5140546152902 ,46,7485727282466 ,69,3667536561769
12.4826316 ,Left ,60,5989192072376 ,46,8067347702927 ,69,3229581333532
12.4826347 ,Left ,60,5989192072376 ,46,8067347702927 ,69,3229581333532
12.4826373 ,Left ,60,5989192072376 ,46,8067347702927 ,69,3229581333532
12.5051373 ,Left ,60,6632461344569 ,46,8073074949755 ,69,2856830523033
12.5051406 ,Left ,60,6632461344569 ,46,8073074949755 ,69,2856830523033
12.5051433 ,Left ,60,6632461344569 ,46,8073074949755 ,69,2856830523033
