timestamp,event,roll,pitch,yaw
0.0175634 ,Left ,72,890899276881 ,48,3705157649756 ,49,5236376492617
0.0175655 ,Left ,72,890899276881 ,48,3705157649756 ,49,5236376492617
0.017567 ,Left ,72,890899276881 ,48,3705157649756 ,49,5236376492617
0.0387349 ,Left ,72,8911179211117 ,48,3702411189586 ,49,5180867682588
0.0387367 ,Left ,72,8911179211117 ,48,3702411189586 ,49,5180867682588
0.0387382 ,Left ,72,8911179211117 ,48,3702411189586 ,49,5180867682588
0.0552935 ,Left ,72,8938443327356 ,48,3689137755477 ,49,5194569752638
0.0552953 ,Left ,72,8938443327356 ,48,3689137755477 ,49,5194569752638
0.0552968 ,Left ,72,8938443327356 ,48,3689137755477 ,49,5194569752638
0.0779211 ,Left ,72,8932624296288 ,48,3694670055586 ,49,5277178926066
0.0779233 ,Left ,72,8932624296288 ,48,3694670055586 ,49,5277178926066
0.0779249 ,Left ,72,8932624296288 ,48,3694670055586 ,49,5277178926066
0.0990185 ,Left ,72,8974003530764 ,48,36663515274 ,49,5456031522665
0.0990209 ,Left ,72,8974003530764 ,48,36663515274 ,49,5456031522665
0.0990228 ,Left ,72,8974003530764 ,48,36663515274 ,49,5456031522665
0.1154543 ,Left ,72,9037118884159 ,48,3616418532122 ,49,5717840240402
0.1154567 ,Left ,72,9037118884159 ,48,3616418532122 ,49,5717840240402
0.1154586 ,Left ,72,9037118884159 ,48,3616418532122 ,49,5717840240402
0.1382517 ,Left ,72,909996367945 ,48,3541558324926 ,49,6036923546762
0.1382541 ,Left ,72,909996367945 ,48,3541558324926 ,49,6036923546762
0.1382562 ,Left ,72,909996367945 ,48,3541558324926 ,49,6036923546762
0.1605114 ,Left ,72,915966287815 ,48,3508746003043 ,49,6367140916872
0.160516 ,Left ,72,915966287815 ,48,3508746003043 ,49,6367140916872
0.1605196 ,Left ,72,915966287815 ,48,3508746003043 ,49,6367140916872
0.1755008 ,Left ,72,9192172923347 ,48,3449672988901 ,49,6699495585004
0.1755049 ,Left ,72,9192172923347 ,48,3449672988901 ,49,6699495585004
0.1755086 ,Left ,72,9192172923347 ,48,3449672988901 ,49,6699495585004
0.1978401 ,Left ,72,9173909667442 ,48,3468749855743 ,49,700288828131
0.1978442 ,Left ,72,9173909667442 ,48,3468749855743 ,49,700288828131
0.1978478 ,Left ,72,9173909667442 ,48,3468749855743 ,49,700288828131
0.2203606 ,Left ,72,9133656111134 ,48,345723533019 ,49,7253864208727
0.2203625 ,Left ,72,9133656111134 ,48,345723533019 ,49,7253864208727
0.220364 ,Left ,72,9133656111134 ,48,345723533019 ,49,7253864208727
0.2427704 ,Left ,72,9067971362649 ,48,3458304761207 ,49,7491605702646
0.2427722 ,Left ,72,9067971362649 ,48,3458304761207 ,49,7491605702646
0.2427737 ,Left ,72,9067971362649 ,48,3458304761207 ,49,7491605702646
0.2579289 ,Left ,72,9055866115677 ,48,3483916039197 ,49,766966642265
0.2579311 ,Left ,72,9055866115677 ,48,3483916039197 ,49,766966642265
0.2579328 ,Left ,72,9055866115677 ,48,3483916039197 ,49,766966642265
0.2803669 ,Left ,72,9049240466071 ,48,3530732231943 ,49,7763909823619
0.2803689 ,Left ,72,9049240466071 ,48,3530732231943 ,49,7763909823619
0.2803705 ,Left ,72,9049240466071 ,48,3530732231943 ,49,7763909823619
0.2946978 ,Left ,72,8914385470917 ,48,3599870800076 ,49,7779686525689
0.2947 ,Left ,72,8914385470917 ,48,3599870800076 ,49,7779686525689
0.2947019 ,Left ,72,8914385470917 ,48,3599870800076 ,49,7779686525689
0.3180965 ,Left ,72,8783129932738 ,48,3679159062022 ,49,7753771057921
0.3181007 ,Left ,72,8783129932738 ,48,3679159062022 ,49,7753771057921
0.3181045 ,Left ,72,8783129932738 ,48,3679159062022 ,49,7753771057921
0.3405185 ,Left ,72,8647277882494 ,48,3814296899643 ,49,772360105226
0.3405235 ,Left ,72,8647277882494 ,48,3814296899643 ,49,772360105226
0.3405278 ,Left ,72,8647277882494 ,48,3814296899643 ,49,772360105226
0.35493 ,Left ,72,8593667160077 ,48,3946737782787 ,49,7662763933982
0.3549339 ,Left ,72,8593667160077 ,48,3946737782787 ,49,7662763933982
0.3549373 ,Left ,72,8593667160077 ,48,3946737782787 ,49,7662763933982
0.3779577 ,Left ,72,8567645715308 ,48,4102206343206 ,49,7515593224868
0.3779611 ,Left ,72,8567645715308 ,48,4102206343206 ,49,7515593224868
0.377964 ,Left ,72,8567645715308 ,48,4102206343206 ,49,7515593224868
0.4004504 ,Left ,72,8469376343788 ,48,4211562350267 ,49,7305892746025
0.4004538 ,Left ,72,8469376343788 ,48,4211562350267 ,49,7305892746025
0.4004565 ,Left ,72,8469376343788 ,48,4211562350267 ,49,7305892746025
0.415343 ,Left ,72,8374284245175 ,48,4279611578596 ,49,7113164326842
0.4153467 ,Left ,72,8374284245175 ,48,4279611578596 ,49,7113164326842
0.4153575 ,Left ,72,8374284245175 ,48,4279611578596 ,49,7113164326842
0.4379442 ,Left ,72,8273889474252 ,48,4327584872729 ,49,7032298722725
0.4379463 ,Left ,72,8273889474252 ,48,4327584872729 ,49,7032298722725
0.4379478 ,Left ,72,8273889474252 ,48,4327584872729 ,49,7032298722725
0.4603122 ,Left ,72,8190707160078 ,48,439815640293 ,49,7072962660857
0.4603142 ,Left ,72,8190707160078 ,48,439815640293 ,49,7072962660857
0.4603158 ,Left ,72,8190707160078 ,48,439815640293 ,49,7072962660857
0.4745949 ,Left ,72,8070593977826 ,48,4532959060674 ,49,7248755532847
0.4745969 ,Left ,72,8070593977826 ,48,4532959060674 ,49,7248755532847
0.4745985 ,Left ,72,8070593977826 ,48,4532959060674 ,49,7248755532847
0.4979482 ,Left ,72,7820712526208 ,48,4628754633982 ,49,7474574432343
0.4979508 ,Left ,72,7820712526208 ,48,4628754633982 ,49,7474574432343
0.4979529 ,Left ,72,7820712526208 ,48,4628754633982 ,49,7474574432343
0.520301 ,Left ,72,7569649232369 ,48,4702411692389 ,49,7785160069901
0.5203029 ,Left ,72,7569649232369 ,48,4702411692389 ,49,7785160069901
0.5203044 ,Left ,72,7569649232369 ,48,4702411692389 ,49,7785160069901
0.5351663 ,Left ,72,7290983086575 ,48,469929049547 ,49,8156708388527
0.5351738 ,Left ,72,7290983086575 ,48,469929049547 ,49,8156708388527
0.5351805 ,Left ,72,7290983086575 ,48,469929049547 ,49,8156708388527
0.5584515 ,Left ,72,7260527956518 ,48,4790988090539 ,49,8675889951054
0.5584591 ,Left ,72,7260527956518 ,48,4790988090539 ,49,8675889951054
0.5584657 ,Left ,72,7260527956518 ,48,4790988090539 ,49,8675889951054
0.580966 ,Left ,72,7173566732008 ,48,4887821686731 ,49,9251498843718
0.580974 ,Left ,72,7173566732008 ,48,4887821686731 ,49,9251498843718
0.5809808 ,Left ,72,7173566732008 ,48,4887821686731 ,49,9251498843718
0.5950867 ,Left ,72,7009265929954 ,48,4965514644094 ,49,9971512285815
0.5950919 ,Left ,72,7009265929954 ,48,4965514644094 ,49,9971512285815
0.5950966 ,Left ,72,7009265929954 ,48,4965514644094 ,49,9971512285815
0.6180706 ,Left ,72,6560835405119 ,48,4927517894632 ,50,0781124209582
0.6180759 ,Left ,72,6560835405119 ,48,4927517894632 ,50,0781124209582
0.6180805 ,Left ,72,6560835405119 ,48,4927517894632 ,50,0781124209582
0.6404505 ,Left ,72,5960322704129 ,48,4763227395446 ,50,1718499223041
0.6404558 ,Left ,72,5960322704129 ,48,4763227395446 ,50,1718499223041
0.6404605 ,Left ,72,5960322704129 ,48,4763227395446 ,50,1718499223041
0.6617392 ,Left ,72,5560491623324 ,48,4613087132568 ,50,2811507172609
0.6617447 ,Left ,72,5560491623324 ,48,4613087132568 ,50,2811507172609
0.6617493 ,Left ,72,5560491623324 ,48,4613087132568 ,50,2811507172609
0.677936 ,Left ,72,5518491333709 ,48,4585652263601 ,50,3891513305846
0.6779401 ,Left ,72,5518491333709 ,48,4585652263601 ,50,3891513305846
0.6779438 ,Left ,72,5518491333709 ,48,4585652263601 ,50,3891513305846
0.7003682 ,Left ,72,5074129114098 ,48,4477669161703 ,50,4943484552035
0.7003701 ,Left ,72,5074129114098 ,48,4477669161703 ,50,4943484552035
0.7003716 ,Left ,72,5074129114098 ,48,4477669161703 ,50,4943484552035
0.7214956 ,Left ,72,4248955935464 ,48,4280912810528 ,50,5980109184136
0.7214978 ,Left ,72,4248955935464 ,48,4280912810528 ,50,5980109184136
0.7214993 ,Left ,72,4248955935464 ,48,4280912810528 ,50,5980109184136
0.7379196 ,Left ,72,3549107665356 ,48,4245057050148 ,50,7094993281602
0.7379217 ,Left ,72,3549107665356 ,48,4245057050148 ,50,7094993281602
0.7379233 ,Left ,72,3549107665356 ,48,4245057050148 ,50,7094993281602
0.7603915 ,Left ,72,2879502668011 ,48,4166836513133 ,50,8324718666757
0.7603945 ,Left ,72,2879502668011 ,48,4166836513133 ,50,8324718666757
0.7603966 ,Left ,72,2879502668011 ,48,4166836513133 ,50,8324718666757
0.7817938 ,Left ,72,2236740133527 ,48,3851248266888 ,50,9628365367374
0.7818011 ,Left ,72,2236740133527 ,48,3851248266888 ,50,9628365367374
0.7818042 ,Left ,72,2236740133527 ,48,3851248266888 ,50,9628365367374
0.7979149 ,Left ,72,1780813963561 ,48,3494364535205 ,51,0790691717676
0.797919 ,Left ,72,1780813963561 ,48,3494364535205 ,51,0790691717676
0.7979226 ,Left ,72,1780813963561 ,48,3494364535205 ,51,0790691717676
0.820393 ,Left ,72,14549328464 ,48,3021117464939 ,51,1902516971142
0.820397 ,Left ,72,14549328464 ,48,3021117464939 ,51,1902516971142
0.8204006 ,Left ,72,14549328464 ,48,3021117464939 ,51,1902516971142
0.8413792 ,Left ,72,1177038789272 ,48,2669706795646 ,51,3139815621888
0.8413821 ,Left ,72,1177038789272 ,48,2669706795646 ,51,3139815621888
0.8413844 ,Left ,72,1177038789272 ,48,2669706795646 ,51,3139815621888
0.8638538 ,Left ,72,0844616539441 ,48,2339788089205 ,51,4571903527152
0.8638565 ,Left ,72,0844616539441 ,48,2339788089205 ,51,4571903527152
0.8638585 ,Left ,72,0844616539441 ,48,2339788089205 ,51,4571903527152
0.8802181 ,Left ,72,0540760846962 ,48,184339287932 ,51,6146145506681
0.8802205 ,Left ,72,0540760846962 ,48,184339287932 ,51,6146145506681
0.8802226 ,Left ,72,0540760846962 ,48,184339287932 ,51,6146145506681
0.9011494 ,Left ,72,0386691853825 ,48,1099102271955 ,51,7636968919936
0.9011514 ,Left ,72,0386691853825 ,48,1099102271955 ,51,7636968919936
0.9011529 ,Left ,72,0386691853825 ,48,1099102271955 ,51,7636968919936
0.9176199 ,Left ,72,0364339322136 ,48,0292585447478 ,51,8976645403563
0.917635 ,Left ,72,0364339322136 ,48,0292585447478 ,51,8976645403563
0.9176365 ,Left ,72,0364339322136 ,48,0292585447478 ,51,8976645403563
0.9401748 ,Left ,72,054816223041 ,47,9652458284681 ,52,0147798910291
0.9401767 ,Left ,72,054816223041 ,47,9652458284681 ,52,0147798910291
0.9401781 ,Left ,72,054816223041 ,47,9652458284681 ,52,0147798910291
0.9687128 ,Left ,72,07110647572 ,47,9319407211838 ,52,1192939923374
0.9687149 ,Left ,72,07110647572 ,47,9319407211838 ,52,1192939923374
0.9687164 ,Left ,72,07110647572 ,47,9319407211838 ,52,1192939923374
0.9776341 ,Left ,72,0598013852191 ,47,9139184539287 ,52,2215966288997
0.9776491 ,Left ,72,0598013852191 ,47,9139184539287 ,52,2215966288997
0.9776506 ,Left ,72,0598013852191 ,47,9139184539287 ,52,2215966288997
1.0001458 ,Left ,72,0562308131401 ,47,8941199440859 ,52,3249156994255
1.0001476 ,Left ,72,0562308131401 ,47,8941199440859 ,52,3249156994255
1.0001622 ,Left ,72,0562308131401 ,47,8941199440859 ,52,3249156994255
1.0211339 ,Left ,72,06829432532 ,47,8809500247528 ,52,4056451841849
1.0211362 ,Left ,72,06829432532 ,47,8809500247528 ,52,4056451841849
1.0211377 ,Left ,72,06829432532 ,47,8809500247528 ,52,4056451841849
1.0372316 ,Left ,72,075896290819 ,47,880144495751 ,52,4662847223847
1.0372335 ,Left ,72,075896290819 ,47,880144495751 ,52,4662847223847
1.037235 ,Left ,72,075896290819 ,47,880144495751 ,52,4662847223847
1.0603029 ,Left ,72,081370270956 ,47,9048248552515 ,52,4993790661563
1.0603048 ,Left ,72,081370270956 ,47,9048248552515 ,52,4993790661563
1.0603063 ,Left ,72,081370270956 ,47,9048248552515 ,52,4993790661563
1.0829254 ,Left ,72,0694543130599 ,47,9387186516725 ,52,5121970962165
1.0829278 ,Left ,72,0694543130599 ,47,9387186516725 ,52,5121970962165
1.0829297 ,Left ,72,0694543130599 ,47,9387186516725 ,52,5121970962165
1.0976969 ,Left ,72,050150119788 ,47,978520789429 ,52,5069863260496
1.0976986 ,Left ,72,050150119788 ,47,978520789429 ,52,5069863260496
1.0977002 ,Left ,72,050150119788 ,47,978520789429 ,52,5069863260496
1.1202901 ,Left ,71,9954614801167 ,48,0238453252246 ,52,503691660805
1.1202933 ,Left ,71,9954614801167 ,48,0238453252246 ,52,503691660805
1.120296 ,Left ,71,9954614801167 ,48,0238453252246 ,52,503691660805
1.1430444 ,Left ,71,9174617437464 ,48,0616934105496 ,52,5064017160267
1.1430492 ,Left ,71,9174617437464 ,48,0616934105496 ,52,5064017160267
1.1430536 ,Left ,71,9174617437464 ,48,0616934105496 ,52,5064017160267
1.1578854 ,Left ,71,8447582514032 ,48,0846519974371 ,52,5022411986586
1.1578873 ,Left ,71,8447582514032 ,48,0846519974371 ,52,5022411986586
1.1578888 ,Left ,71,8447582514032 ,48,0846519974371 ,52,5022411986586
1.1801493 ,Left ,71,7767522766375 ,48,1023898481861 ,52,4910050783103
1.180151 ,Left ,71,7767522766375 ,48,1023898481861 ,52,4910050783103
1.1801525 ,Left ,71,7767522766375 ,48,1023898481861 ,52,4910050783103
1.2033167 ,Left ,71,7193958861879 ,48,1260008541849 ,52,4771754352001
1.2033243 ,Left ,71,7193958861879 ,48,1260008541849 ,52,4771754352001
1.2033381 ,Left ,71,7193958861879 ,48,1260008541849 ,52,4771754352001
1.2175816 ,Left ,71,6771362130473 ,48,1479635283777 ,52,4720531393094
1.2175893 ,Left ,71,6771362130473 ,48,1479635283777 ,52,4720531393094
1.2175962 ,Left ,71,6771362130473 ,48,1479635283777 ,52,4720531393094
1.2482641 ,Left ,71,6449216160796 ,48,1696748522659 ,52,4717056709978
1.2482717 ,Left ,71,6449216160796 ,48,1696748522659 ,52,4717056709978
1.2482784 ,Left ,71,6449216160796 ,48,1696748522659 ,52,4717056709978
1.2633555 ,Left ,71,6204162438106 ,48,1821931399761 ,52,4818205458681
1.2633629 ,Left ,71,6204162438106 ,48,1821931399761 ,52,4818205458681
1.2633698 ,Left ,71,6204162438106 ,48,1821931399761 ,52,4818205458681
1.2773039 ,Left ,71,5849829867868 ,48,1815166208546 ,52,4909732687706
1.2773163 ,Left ,71,5849829867868 ,48,1815166208546 ,52,4909732687706
1.2773199 ,Left ,71,5849829867868 ,48,1815166208546 ,52,4909732687706
1.3004155 ,Left ,71,5571112302708 ,48,1711147828522 ,52,5051170247515
1.3004197 ,Left ,71,5571112302708 ,48,1711147828522 ,52,5051170247515
1.3004233 ,Left ,71,5571112302708 ,48,1711147828522 ,52,5051170247515
1.3229188 ,Left ,71,5366920211723 ,48,15674356877 ,52,5261726627083
1.3229255 ,Left ,71,5366920211723 ,48,15674356877 ,52,5261726627083
1.3229291 ,Left ,71,5366920211723 ,48,15674356877 ,52,5261726627083
1.3374591 ,Left ,71,521559121096 ,48,1461657858039 ,52,5603846620471
1.3374634 ,Left ,71,521559121096 ,48,1461657858039 ,52,5603846620471
1.337467 ,Left ,71,521559121096 ,48,1461657858039 ,52,5603846620471
1.3605308 ,Left ,71,4964342413868 ,48,139243454901 ,52,5823754198841
1.3605385 ,Left ,71,4964342413868 ,48,139243454901 ,52,5823754198841
1.3605464 ,Left ,71,4964342413868 ,48,139243454901 ,52,5823754198841
1.3843974 ,Left ,71,4676638279739 ,48,1134354827073 ,52,5939891096831
1.3844016 ,Left ,71,4676638279739 ,48,1134354827073 ,52,5939891096831
1.3844051 ,Left ,71,4676638279739 ,48,1134354827073 ,52,5939891096831
1.3972876 ,Left ,71,41449756822 ,48,0924427129182 ,52,6071742592506
1.3972916 ,Left ,71,41449756822 ,48,0924427129182 ,52,6071742592506
1.3972952 ,Left ,71,41449756822 ,48,0924427129182 ,52,6071742592506
1.4203773 ,Left ,71,3724226085779 ,48,1022625383584 ,52,6297917109036
1.4203792 ,Left ,71,3724226085779 ,48,1022625383584 ,52,6297917109036
1.4203807 ,Left ,71,3724226085779 ,48,1022625383584 ,52,6297917109036
1.4256894 ,Left ,71,3059647407584 ,48,1297163736836 ,52,6435773749779
1.4256913 ,Left ,71,3059647407584 ,48,1297163736836 ,52,6435773749779
1.4256928 ,Left ,71,3059647407584 ,48,1297163736836 ,52,6435773749779
1.4481056 ,Left ,71,2615595888028 ,48,2123748720742 ,52,6433733553705
1.4481074 ,Left ,71,2615595888028 ,48,2123748720742 ,52,6433733553705
1.448109 ,Left ,71,2615595888028 ,48,2123748720742 ,52,6433733553705
1.4648022 ,Left ,71,2147071054511 ,48,2978658746443 ,52,6177416189743
1.4648042 ,Left ,71,2147071054511 ,48,2978658746443 ,52,6177416189743
1.4648058 ,Left ,71,2147071054511 ,48,2978658746443 ,52,6177416189743
1.4858959 ,Left ,71,1970719536692 ,48,3679755091392 ,52,5629861220871
1.4858985 ,Left ,71,1970719536692 ,48,3679755091392 ,52,5629861220871
1.4859002 ,Left ,71,1970719536692 ,48,3679755091392 ,52,5629861220871
1.5079683 ,Left ,71,2134582949335 ,48,4288035010955 ,52,4863824489815
1.5079703 ,Left ,71,2134582949335 ,48,4288035010955 ,52,4863824489815
1.5079718 ,Left ,71,2134582949335 ,48,4288035010955 ,52,4863824489815
1.5260542 ,Left ,71,2140608863985 ,48,4649696027911 ,52,4028682404121
1.5260562 ,Left ,71,2140608863985 ,48,4649696027911 ,52,4028682404121
1.5260579 ,Left ,71,2140608863985 ,48,4649696027911 ,52,4028682404121
1.5456798 ,Left ,71,2355984872795 ,48,4685017496465 ,52,3261086145454
1.5456824 ,Left ,71,2355984872795 ,48,4685017496465 ,52,3261086145454
1.5456845 ,Left ,71,2355984872795 ,48,4685017496465 ,52,3261086145454
1.5682014 ,Left ,71,2742958186898 ,48,4499657385484 ,52,2595683505689
1.5682045 ,Left ,71,2742958186898 ,48,4499657385484 ,52,2595683505689
1.5682071 ,Left ,71,2742958186898 ,48,4499657385484 ,52,2595683505689
1.584874 ,Left ,71,3054103574314 ,48,4260134679731 ,52,2009000924303
1.5848772 ,Left ,71,3054103574314 ,48,4260134679731 ,52,2009000924303
1.5848799 ,Left ,71,3054103574314 ,48,4260134679731 ,52,2009000924303
1.6058495 ,Left ,71,309822180481 ,48,4022051648361 ,52,152377942808
1.6058528 ,Left ,71,309822180481 ,48,4022051648361 ,52,152377942808
1.6058554 ,Left ,71,309822180481 ,48,4022051648361 ,52,152377942808
1.6282487 ,Left ,71,3086187107377 ,48,3635433720332 ,52,1167970373082
1.628254 ,Left ,71,3086187107377 ,48,3635433720332 ,52,1167970373082
1.6282566 ,Left ,71,3086187107377 ,48,3635433720332 ,52,1167970373082
1.644692 ,Left ,71,3226071315936 ,48,3275558243636 ,52,0883187342122
1.6446951 ,Left ,71,3226071315936 ,48,3275558243636 ,52,0883187342122
1.6446977 ,Left ,71,3226071315936 ,48,3275558243636 ,52,0883187342122
1.6660236 ,Left ,71,3544669024646 ,48,2989728517606 ,52,0606915374269
1.6660267 ,Left ,71,3544669024646 ,48,2989728517606 ,52,0606915374269
1.6660294 ,Left ,71,3544669024646 ,48,2989728517606 ,52,0606915374269
1.6964341 ,Left ,71,3865643530975 ,48,2777328758357 ,52,0362871461943
1.6964374 ,Left ,71,3865643530975 ,48,2777328758357 ,52,0362871461943
1.6964401 ,Left ,71,3865643530975 ,48,2777328758357 ,52,0362871461943
1.7049384 ,Left ,71,4163876740372 ,48,2636860982382 ,52,0125393052665
1.7049417 ,Left ,71,4163876740372 ,48,2636860982382 ,52,0125393052665
1.7049444 ,Left ,71,4163876740372 ,48,2636860982382 ,52,0125393052665
1.7256406 ,Left ,71,4287456281846 ,48,2574459644555 ,51,9999707298013
1.7256426 ,Left ,71,4287456281846 ,48,2574459644555 ,51,9999707298013
1.7256444 ,Left ,71,4287456281846 ,48,2574459644555 ,51,9999707298013
1.7483915 ,Left ,71,4338408577746 ,48,2525730811719 ,51,9961701394343
1.7483942 ,Left ,71,4338408577746 ,48,2525730811719 ,51,9961701394343
1.7483963 ,Left ,71,4338408577746 ,48,2525730811719 ,51,9961701394343
1.7648711 ,Left ,71,4261235953083 ,48,2417929105224 ,51,9951160644404
1.7648743 ,Left ,71,4261235953083 ,48,2417929105224 ,51,9951160644404
1.7648769 ,Left ,71,4261235953083 ,48,2417929105224 ,51,9951160644404
1.7856546 ,Left ,71,4254025513247 ,48,2174617675376 ,52,0006048582511
1.7856575 ,Left ,71,4254025513247 ,48,2174617675376 ,52,0006048582511
1.7856602 ,Left ,71,4254025513247 ,48,2174617675376 ,52,0006048582511
1.8084262 ,Left ,71,4249030762652 ,48,1836828310926 ,52,0088300673251
1.8084295 ,Left ,71,4249030762652 ,48,1836828310926 ,52,0088300673251
1.8084322 ,Left ,71,4249030762652 ,48,1836828310926 ,52,0088300673251
1.8248572 ,Left ,71,4217735029754 ,48,1598035868063 ,52,0172596222775
1.8248604 ,Left ,71,4217735029754 ,48,1598035868063 ,52,0172596222775
1.8248631 ,Left ,71,4217735029754 ,48,1598035868063 ,52,0172596222775
1.8458022 ,Left ,71,4140638230638 ,48,1462855325777 ,52,0165786499043
1.8458055 ,Left ,71,4140638230638 ,48,1462855325777 ,52,0165786499043
1.8458082 ,Left ,71,4140638230638 ,48,1462855325777 ,52,0165786499043
1.8684633 ,Left ,71,3990360244872 ,48,1368907609571 ,52,0117910165178
1.8684666 ,Left ,71,3990360244872 ,48,1368907609571 ,52,0117910165178
1.8684693 ,Left ,71,3990360244872 ,48,1368907609571 ,52,0117910165178
1.8848992 ,Left ,71,3889567188798 ,48,1366185359283 ,52,0040694671454
1.8849024 ,Left ,71,3889567188798 ,48,1366185359283 ,52,0040694671454
1.8849051 ,Left ,71,3889567188798 ,48,1366185359283 ,52,0040694671454
1.9058739 ,Left ,71,3916743609336 ,48,1364512605402 ,52,0040566743325
1.9058776 ,Left ,71,3916743609336 ,48,1364512605402 ,52,0040566743325
1.9058806 ,Left ,71,3916743609336 ,48,1364512605402 ,52,0040566743325
1.9279674 ,Left ,71,381664506989 ,48,1449976821325 ,52,0008136655265
1.9279692 ,Left ,71,381664506989 ,48,1449976821325 ,52,0008136655265
1.9279706 ,Left ,71,381664506989 ,48,1449976821325 ,52,0008136655265
1.9447062 ,Left ,71,3841202970539 ,48,1463643290015 ,52,0018414655331
1.9447084 ,Left ,71,3841202970539 ,48,1463643290015 ,52,0018414655331
1.9447101 ,Left ,71,3841202970539 ,48,1463643290015 ,52,0018414655331
1.9659213 ,Left ,71,3892063980403 ,48,136919058001 ,51,9944147591737
1.9659237 ,Left ,71,3892063980403 ,48,136919058001 ,51,9944147591737
1.9659256 ,Left ,71,3892063980403 ,48,136919058001 ,51,9944147591737
1.9882412 ,Left ,71,386386255467 ,48,1209604936671 ,51,9866759074482
1.9882435 ,Left ,71,386386255467 ,48,1209604936671 ,51,9866759074482
1.9882454 ,Left ,71,386386255467 ,48,1209604936671 ,51,9866759074482
2.0048517 ,Left ,71,3838806060398 ,48,1104654133475 ,51,9784155190747
2.0048541 ,Left ,71,3838806060398 ,48,1104654133475 ,51,9784155190747
2.0048559 ,Left ,71,3838806060398 ,48,1104654133475 ,51,9784155190747
2.0257551 ,Left ,71,3762455972198 ,48,1057662609567 ,51,9696631151333
2.0257575 ,Left ,71,3762455972198 ,48,1057662609567 ,51,9696631151333
2.0257594 ,Left ,71,3762455972198 ,48,1057662609567 ,51,9696631151333
2.0483084 ,Left ,71,3713414389267 ,48,1024182719396 ,51,9621024624203
2.0483107 ,Left ,71,3713414389267 ,48,1024182719396 ,51,9621024624203
2.0483127 ,Left ,71,3713414389267 ,48,1024182719396 ,51,9621024624203
2.0660615 ,Left ,71,3664435058975 ,48,099371163157 ,51,9572992352292
2.066064 ,Left ,71,3664435058975 ,48,099371163157 ,51,9572992352292
2.0660661 ,Left ,71,3664435058975 ,48,099371163157 ,51,9572992352292
2.085949 ,Left ,71,3588184974928 ,48,0925303792908 ,51,9544125815737
2.0859518 ,Left ,71,3588184974928 ,48,0925303792908 ,51,9544125815737
2.0859639 ,Left ,71,3588184974928 ,48,0925303792908 ,51,9544125815737
2.1083093 ,Left ,71,3539196887799 ,48,0876538190293 ,51,9582289726802
2.1083135 ,Left ,71,3539196887799 ,48,0876538190293 ,51,9582289726802
2.108317 ,Left ,71,3539196887799 ,48,0876538190293 ,51,9582289726802
2.1259983 ,Left ,71,3438809588395 ,48,0885758991523 ,51,9615506680052
2.126 ,Left ,71,3438809588395 ,48,0885758991523 ,51,9615506680052
2.1260014 ,Left ,71,3438809588395 ,48,0885758991523 ,51,9615506680052
2.1456124 ,Left ,71,3387353463633 ,48,0922452842123 ,51,9669136644474
2.1456144 ,Left ,71,3387353463633 ,48,0922452842123 ,51,9669136644474
2.1456162 ,Left ,71,3387353463633 ,48,0922452842123 ,51,9669136644474
2.1682926 ,Left ,71,3387353463633 ,48,0922452842123 ,51,9669136644474
2.1682959 ,Left ,71,3387353463633 ,48,0922452842123 ,51,9669136644474
2.1682985 ,Left ,71,3387353463633 ,48,0922452842123 ,51,9669136644474
2.1864581 ,Left ,71,3338881035254 ,48,101072555794 ,51,9689862767094
2.1864625 ,Left ,71,3338881035254 ,48,101072555794 ,51,9689862767094
2.1864661 ,Left ,71,3338881035254 ,48,101072555794 ,51,9689862767094
2.2059174 ,Left ,71,3241916141015 ,48,1156812321443 ,51,9707181745759
2.2059216 ,Left ,71,3241916141015 ,48,1156812321443 ,51,9707181745759
2.2059252 ,Left ,71,3241916141015 ,48,1156812321443 ,51,9707181745759
2.2284764 ,Left ,71,3144860642325 ,48,1260271236032 ,51,971590121504
2.2284808 ,Left ,71,3144860642325 ,48,1260271236032 ,51,971590121504
2.2284844 ,Left ,71,3144860642325 ,48,1260271236032 ,51,971590121504
2.246272 ,Left ,71,3144895171997 ,48,1272425562181 ,51,9700369164668
2.2462762 ,Left ,71,3144895171997 ,48,1272425562181 ,51,9700369164668
2.2462798 ,Left ,71,3144895171997 ,48,1272425562181 ,51,9700369164668
2.2659783 ,Left ,71,3069235780284 ,48,1340945778731 ,51,9653999980746
2.2659826 ,Left ,71,3069235780284 ,48,1340945778731 ,51,9653999980746
2.2659862 ,Left ,71,3069235780284 ,48,1340945778731 ,51,9653999980746
2.2884424 ,Left ,71,2972051282125 ,48,1431982288686 ,51,9552419962646
2.2884467 ,Left ,71,2972051282125 ,48,1431982288686 ,51,9552419962646
2.2884503 ,Left ,71,2972051282125 ,48,1431982288686 ,51,9552419962646
2.3061375 ,Left ,71,2823423484562 ,48,152607248634 ,51,9452723516318
2.306142 ,Left ,71,2823423484562 ,48,152607248634 ,51,9452723516318
2.3061456 ,Left ,71,2823423484562 ,48,152607248634 ,51,9452723516318
2.3257938 ,Left ,71,2728982563322 ,48,1586289146967 ,51,9328665531692
2.3257978 ,Left ,71,2728982563322 ,48,1586289146967 ,51,9328665531692
2.3258015 ,Left ,71,2728982563322 ,48,1586289146967 ,51,9328665531692
2.3480839 ,Left ,71,2704526192949 ,48,1596400405816 ,51,9161661533031
2.3480857 ,Left ,71,2704526192949 ,48,1596400405816 ,51,9161661533031
2.3480871 ,Left ,71,2704526192949 ,48,1596400405816 ,51,9161661533031
2.3662128 ,Left ,71,2703810700601 ,48,1370308133573 ,51,8883450814175
2.3662147 ,Left ,71,2703810700601 ,48,1370308133573 ,51,8883450814175
2.3662162 ,Left ,71,2703810700601 ,48,1370308133573 ,51,8883450814175
2.3858792 ,Left ,71,2952997794352 ,48,1141807661742 ,51,8574918925902
2.3858813 ,Left ,71,2952997794352 ,48,1141807661742 ,51,8574918925902
2.3858831 ,Left ,71,2952997794352 ,48,1141807661742 ,51,8574918925902
2.4081924 ,Left ,71,3257511792775 ,48,1035383779563 ,51,8263723171233
2.4081957 ,Left ,71,3257511792775 ,48,1035383779563 ,51,8263723171233
2.4081983 ,Left ,71,3257511792775 ,48,1035383779563 ,51,8263723171233
2.42614 ,Left ,71,3361784873158 ,48,102608042138 ,51,7980812858522
2.4261435 ,Left ,71,3361784873158 ,48,102608042138 ,51,7980812858522
2.4261465 ,Left ,71,3361784873158 ,48,102608042138 ,51,7980812858522
2.4460051 ,Left ,71,3286348089209 ,48,1045472893383 ,51,7871031968833
2.4460089 ,Left ,71,3286348089209 ,48,1045472893383 ,51,7871031968833
2.4460119 ,Left ,71,3286348089209 ,48,1045472893383 ,51,7871031968833
2.4685154 ,Left ,71,3289765651477 ,48,1045079983067 ,51,774696308011
2.4685191 ,Left ,71,3289765651477 ,48,1045079983067 ,51,774696308011
2.4685221 ,Left ,71,3289765651477 ,48,1045079983067 ,51,774696308011
2.4862143 ,Left ,71,3239332635747 ,48,0776827581402 ,51,7685597801748
2.4862178 ,Left ,71,3239332635747 ,48,0776827581402 ,51,7685597801748
2.4862208 ,Left ,71,3239332635747 ,48,0776827581402 ,51,7685597801748
2.5058252 ,Left ,71,3384275271437 ,48,0330467061055 ,51,7728495406385
2.5058294 ,Left ,71,3384275271437 ,48,0330467061055 ,51,7728495406385
2.5058325 ,Left ,71,3384275271437 ,48,0330467061055 ,51,7728495406385
2.5284597 ,Left ,71,3556398840779 ,47,9915905378603 ,51,782242381343
2.5284634 ,Left ,71,3556398840779 ,47,9915905378603 ,51,782242381343
2.5284664 ,Left ,71,3556398840779 ,47,9915905378603 ,51,782242381343
2.5461359 ,Left ,71,3600380223865 ,47,9673049140634 ,51,790164644588
2.5461378 ,Left ,71,3600380223865 ,47,9673049140634 ,51,790164644588
2.5461393 ,Left ,71,3600380223865 ,47,9673049140634 ,51,790164644588
2.5656315 ,Left ,71,3600726255893 ,47,9578563664255 ,51,7927550737537
2.5656333 ,Left ,71,3600726255893 ,47,9578563664255 ,51,7927550737537
2.5656349 ,Left ,71,3600726255893 ,47,9578563664255 ,51,7927550737537
2.5882026 ,Left ,71,3701271139136 ,47,9572890408104 ,51,7921473836172
2.5882076 ,Left ,71,3701271139136 ,47,9572890408104 ,51,7921473836172
2.5882101 ,Left ,71,3701271139136 ,47,9572890408104 ,51,7921473836172
2.6060435 ,Left ,71,385336588659 ,47,9643509530395 ,51,787527941614
2.6060453 ,Left ,71,385336588659 ,47,9643509530395 ,51,787527941614
2.6060468 ,Left ,71,385336588659 ,47,9643509530395 ,51,787527941614
2.6351393 ,Left ,71,3977499462548 ,47,9776696430148 ,51,7877718542338
2.635147 ,Left ,71,3977499462548 ,47,9776696430148 ,51,7877718542338
2.6351538 ,Left ,71,3977499462548 ,47,9776696430148 ,51,7877718542338
2.6488419 ,Left ,71,4001213367614 ,47,9888093994153 ,51,7889670292262
2.6488497 ,Left ,71,4001213367614 ,47,9888093994153 ,51,7889670292262
2.6488565 ,Left ,71,4001213367614 ,47,9888093994153 ,51,7889670292262
2.6713143 ,Left ,71,4079396167467 ,47,9996228255223 ,51,7901099351175
2.6713221 ,Left ,71,4079396167467 ,47,9996228255223 ,51,7901099351175
2.6713288 ,Left ,71,4079396167467 ,47,9996228255223 ,51,7901099351175
2.6876919 ,Left ,71,4004866105652 ,48,0210507951875 ,51,792243411453
2.6876994 ,Left ,71,4004866105652 ,48,0210507951875 ,51,792243411453
2.6877062 ,Left ,71,4004866105652 ,48,0210507951875 ,51,792243411453
2.70878 ,Left ,71,3854187764144 ,48,0419925698139 ,51,799068494488
2.7087876 ,Left ,71,3854187764144 ,48,0419925698139 ,51,799068494488
2.7087943 ,Left ,71,3854187764144 ,48,0419925698139 ,51,799068494488
2.7265161 ,Left ,71,3657472481306 ,48,0689738535817 ,51,8084679766821
2.7265236 ,Left ,71,3657472481306 ,48,0689738535817 ,51,8084679766821
2.7265304 ,Left ,71,3657472481306 ,48,0689738535817 ,51,8084679766821
2.7473609 ,Left ,71,3406977114631 ,48,0990252926605 ,51,8175324631933
2.7473764 ,Left ,71,3406977114631 ,48,0990252926605 ,51,8175324631933
2.7473831 ,Left ,71,3406977114631 ,48,0990252926605 ,51,8175324631933
2.7687606 ,Left ,71,3187370965931 ,48,1307161326719 ,51,8180836417354
2.7687661 ,Left ,71,3187370965931 ,48,1307161326719 ,51,8180836417354
2.7687708 ,Left ,71,3187370965931 ,48,1307161326719 ,51,8180836417354
2.7861533 ,Left ,71,2992924070724 ,48,1552332916026 ,51,8053522656097
2.7861553 ,Left ,71,2992924070724 ,48,1552332916026 ,51,8053522656097
2.7861568 ,Left ,71,2992924070724 ,48,1552332916026 ,51,8053522656097
2.8072517 ,Left ,71,2941736605949 ,48,1612864765893 ,51,7950416055026
2.8072536 ,Left ,71,2941736605949 ,48,1612864765893 ,51,7950416055026
2.8072551 ,Left ,71,2941736605949 ,48,1612864765893 ,51,7950416055026
2.8288348 ,Left ,71,3090443062092 ,48,1501116432295 ,51,8010411922861
2.828843 ,Left ,71,3090443062092 ,48,1501116432295 ,51,8010411922861
2.8288498 ,Left ,71,3090443062092 ,48,1501116432295 ,51,8010411922861
2.8465495 ,Left ,71,3139094684357 ,48,1349248779933 ,51,8039770099926
2.8465572 ,Left ,71,3139094684357 ,48,1349248779933 ,51,8039770099926
2.846564 ,Left ,71,3139094684357 ,48,1349248779933 ,51,8039770099926
2.8676089 ,Left ,71,3212228702222 ,48,1208148122437 ,51,8051805210032
2.8676164 ,Left ,71,3212228702222 ,48,1208148122437 ,51,8051805210032
2.8676231 ,Left ,71,3212228702222 ,48,1208148122437 ,51,8051805210032
2.8887995 ,Left ,71,3309876382881 ,48,107782848062 ,51,804648259136
2.8888075 ,Left ,71,3309876382881 ,48,107782848062 ,51,804648259136
2.8888143 ,Left ,71,3309876382881 ,48,107782848062 ,51,804648259136
2.9112035 ,Left ,71,345916977373 ,48,0971954841808 ,51,8035591529758
2.9112111 ,Left ,71,345916977373 ,48,0971954841808 ,51,8035591529758
2.9112179 ,Left ,71,345916977373 ,48,0971954841808 ,51,8035591529758
2.9272396 ,Left ,71,3684363067959 ,48,0947032685011 ,51,8037979766446
2.927243 ,Left ,71,3684363067959 ,48,0947032685011 ,51,8037979766446
2.9272459 ,Left ,71,3684363067959 ,48,0947032685011 ,51,8037979766446
2.9483662 ,Left ,71,3857768486965 ,48,0985933115642 ,51,8090632099737
2.9483681 ,Left ,71,3857768486965 ,48,0985933115642 ,51,8090632099737
2.9483696 ,Left ,71,3857768486965 ,48,0985933115642 ,51,8090632099737
2.9659095 ,Left ,71,3930996438572 ,48,0957428220682 ,51,8116179141941
2.9659112 ,Left ,71,3930996438572 ,48,0957428220682 ,51,8116179141941
2.9659127 ,Left ,71,3930996438572 ,48,0957428220682 ,51,8116179141941
2.9887265 ,Left ,71,3933663468328 ,48,0972424210368 ,51,8129830411316
2.9887295 ,Left ,71,3933663468328 ,48,0972424210368 ,51,8129830411316
2.9887314 ,Left ,71,3933663468328 ,48,0972424210368 ,51,8129830411316
3.0158779 ,Left ,71,3933604948536 ,48,1054657885352 ,51,8119580494233
3.0158809 ,Left ,71,3933604948536 ,48,1054657885352 ,51,8119580494233
3.0158831 ,Left ,71,3933604948536 ,48,1054657885352 ,51,8119580494233
3.0261984 ,Left ,71,3909048123831 ,48,1208294998042 ,51,8116361735664
3.0262016 ,Left ,71,3909048123831 ,48,1208294998042 ,51,8116361735664
3.0262042 ,Left ,71,3909048123831 ,48,1208294998042 ,51,8116361735664
3.0487389 ,Left ,71,3811270219144 ,48,1366050440595 ,51,8118450923176
3.0487415 ,Left ,71,3811270219144 ,48,1366050440595 ,51,8118450923176
3.0487436 ,Left ,71,3811270219144 ,48,1366050440595 ,51,8118450923176
3.0680215 ,Left ,71,3686333126148 ,48,1516240065667 ,51,8163664643084
3.0680234 ,Left ,71,3686333126148 ,48,1516240065667 ,51,8163664643084
3.068025 ,Left ,71,3686333126148 ,48,1516240065667 ,51,8163664643084
3.0862204 ,Left ,71,3588694004102 ,48,1637473792965 ,51,821202454882
3.0862226 ,Left ,71,3588694004102 ,48,1637473792965 ,51,821202454882
3.0862244 ,Left ,71,3588694004102 ,48,1637473792965 ,51,821202454882
3.1087625 ,Left ,71,3439516081396 ,48,1725209179143 ,51,8308704551377
3.1087657 ,Left ,71,3439516081396 ,48,1725209179143 ,51,8308704551377
3.1087683 ,Left ,71,3439516081396 ,48,1725209179143 ,51,8308704551377
3.1288676 ,Left ,71,3314848331761 ,48,1781151167048 ,51,8379499683917
3.1288754 ,Left ,71,3314848331761 ,48,1781151167048 ,51,8379499683917
3.1288823 ,Left ,71,3314848331761 ,48,1781151167048 ,51,8379499683917
3.1465802 ,Left ,71,3238981507678 ,48,1819089498296 ,51,8434750295955
3.1465877 ,Left ,71,3238981507678 ,48,1819089498296 ,51,8434750295955
3.1465944 ,Left ,71,3238981507678 ,48,1819089498296 ,51,8434750295955
3.1690426 ,Left ,71,3190377219065 ,48,1882858410993 ,51,8486344122732
3.1690501 ,Left ,71,3190377219065 ,48,1882858410993 ,51,8486344122732
3.1690569 ,Left ,71,3190377219065 ,48,1882858410993 ,51,8486344122732
3.1888991 ,Left ,71,3190377219065 ,48,1882858410993 ,51,8486344122732
3.1889074 ,Left ,71,3190377219065 ,48,1882858410993 ,51,8486344122732
3.1889142 ,Left ,71,3190377219065 ,48,1882858410993 ,51,8486344122732
3.2065238 ,Left ,71,3114629381743 ,48,1929885933004 ,51,8498524224053
3.2065487 ,Left ,71,3114629381743 ,48,1929885933004 ,51,8498524224053
3.2065553 ,Left ,71,3114629381743 ,48,1929885933004 ,51,8498524224053
3.2284501 ,Left ,71,3066049761475 ,48,1975338914732 ,51,8510524726489
3.2284519 ,Left ,71,3066049761475 ,48,1975338914732 ,51,8510524726489
3.2284535 ,Left ,71,3066049761475 ,48,1975338914732 ,51,8510524726489
3.2489909 ,Left ,71,3066012430748 ,48,1963195588524 ,51,8526030294436
3.2489928 ,Left ,71,3066012430748 ,48,1963195588524 ,51,8526030294436
3.2489943 ,Left ,71,3066012430748 ,48,1963195588524 ,51,8526030294436
3.2653974 ,Left ,71,3141924669314 ,48,1973804147332 ,51,840882192457
3.2653994 ,Left ,71,3141924669314 ,48,1973804147332 ,51,840882192457
3.2654009 ,Left ,71,3141924669314 ,48,1973804147332 ,51,840882192457
3.287747 ,Left ,71,3293801002995 ,48,1937310558123 ,51,8153831585387
3.2877493 ,Left ,71,3293801002995 ,48,1937310558123 ,51,8153831585387
3.287751 ,Left ,71,3293801002995 ,48,1937310558123 ,51,8153831585387
3.3088279 ,Left ,71,3467370247841 ,48,1711164539889 ,51,7947164751344
3.3088306 ,Left ,71,3467370247841 ,48,1711164539889 ,51,7947164751344
3.3088329 ,Left ,71,3467370247841 ,48,1711164539889 ,51,7947164751344
3.3255043 ,Left ,71,3842283944549 ,48,1452689352288 ,51,7787755239691
3.3255084 ,Left ,71,3842283944549 ,48,1452689352288 ,51,7787755239691
3.325512 ,Left ,71,3842283944549 ,48,1452689352288 ,51,7787755239691
3.3481519 ,Left ,71,3968098988106 ,48,1263133405239 ,51,7635683567233
3.3481562 ,Left ,71,3968098988106 ,48,1263133405239 ,51,7635683567233
3.3481598 ,Left ,71,3968098988106 ,48,1263133405239 ,51,7635683567233
3.3693296 ,Left ,71,3789127137522 ,48,1160497483112 ,51,7629590693897
3.369334 ,Left ,71,3789127137522 ,48,1160497483112 ,51,7629590693897
3.3693375 ,Left ,71,3789127137522 ,48,1160497483112 ,51,7629590693897
3.3853907 ,Left ,71,3264375525083 ,48,1323705605072 ,51,7867265649996
3.385395 ,Left ,71,3264375525083 ,48,1323705605072 ,51,7867265649996
3.3853986 ,Left ,71,3264375525083 ,48,1323705605072 ,51,7867265649996
3.4079435 ,Left ,71,2519410220089 ,48,1710265706756 ,51,8133633205735
3.4079456 ,Left ,71,2519410220089 ,48,1710265706756 ,51,8133633205735
3.4079471 ,Left ,71,2519410220089 ,48,1710265706756 ,51,8133633205735
3.4288052 ,Left ,71,2195402939373 ,48,201005810225 ,51,8422384994552
3.4288073 ,Left ,71,2195402939373 ,48,201005810225 ,51,8422384994552
3.428809 ,Left ,71,2195402939373 ,48,201005810225 ,51,8422384994552
3.4458121 ,Left ,71,1920183763003 ,48,2075726477568 ,51,8625718095251
3.4458201 ,Left ,71,1920183763003 ,48,2075726477568 ,51,8625718095251
3.4458268 ,Left ,71,1920183763003 ,48,2075726477568 ,51,8625718095251
3.4687536 ,Left ,71,1648537730271 ,48,2217214498277 ,51,8764691824537
3.4687613 ,Left ,71,1648537730271 ,48,2217214498277 ,51,8764691824537
3.468768 ,Left ,71,1648537730271 ,48,2217214498277 ,51,8764691824537
3.489572 ,Left ,71,1403618698974 ,48,2273414859887 ,51,866296799771
3.489587 ,Left ,71,1403618698974 ,48,2273414859887 ,51,866296799771
3.4896009 ,Left ,71,1403618698974 ,48,2273414859887 ,51,866296799771
3.505828 ,Left ,71,1255367947742 ,48,228893937078 ,51,8377409001899
3.5058421 ,Left ,71,1255367947742 ,48,228893937078 ,51,8377409001899
3.5058609 ,Left ,71,1255367947742 ,48,228893937078 ,51,8377409001899
3.5283052 ,Left ,71,0839228489596 ,48,246280570824 ,51,8145779540762
3.5283129 ,Left ,71,0839228489596 ,48,246280570824 ,51,8145779540762
3.5283197 ,Left ,71,0839228489596 ,48,246280570824 ,51,8145779540762
3.5492399 ,Left ,71,0249788291286 ,48,2769938314254 ,51,8143142927793
3.5492546 ,Left ,71,0249788291286 ,48,2769938314254 ,51,8143142927793
3.549262 ,Left ,71,0249788291286 ,48,2769938314254 ,51,8143142927793
3.5660727 ,Left ,70,969881488819 ,48,2573703320524 ,51,8465901301173
3.566076 ,Left ,70,969881488819 ,48,2573703320524 ,51,8465901301173
3.5660789 ,Left ,70,969881488819 ,48,2573703320524 ,51,8465901301173
3.5879754 ,Left ,71,0013601649528 ,48,222631051656 ,51,8937697355939
3.5879774 ,Left ,71,0013601649528 ,48,222631051656 ,51,8937697355939
3.5879789 ,Left ,71,0013601649528 ,48,222631051656 ,51,8937697355939
3.6090012 ,Left ,71,0373350747938 ,48,1788353382877 ,51,9262083011693
3.6090033 ,Left ,71,0373350747938 ,48,1788353382877 ,51,9262083011693
3.6090049 ,Left ,71,0373350747938 ,48,1788353382877 ,51,9262083011693
3.6255069 ,Left ,71,0469359639231 ,48,1667683262762 ,51,9340577407254
3.6255095 ,Left ,71,0469359639231 ,48,1667683262762 ,51,9340577407254
3.6255116 ,Left ,71,0469359639231 ,48,1667683262762 ,51,9340577407254
3.6477123 ,Left ,71,0792497038227 ,48,1757590325411 ,51,93076040341
3.647714 ,Left ,71,0792497038227 ,48,1757590325411 ,51,93076040341
3.6477154 ,Left ,71,0792497038227 ,48,1757590325411 ,51,93076040341
3.6687826 ,Left ,71,1339100759882 ,48,1793680420303 ,51,9155861672251
3.6687846 ,Left ,71,1339100759882 ,48,1793680420303 ,51,9155861672251
3.6687862 ,Left ,71,1339100759882 ,48,1793680420303 ,51,9155861672251
3.6855236 ,Left ,71,1934091145119 ,48,1559230716716 ,51,896617600232
3.6855265 ,Left ,71,1934091145119 ,48,1559230716716 ,51,896617600232
3.6855288 ,Left ,71,1934091145119 ,48,1559230716716 ,51,896617600232
3.7077797 ,Left ,71,2557960967581 ,48,1332702426523 ,51,8732474569096
3.7077828 ,Left ,71,2557960967581 ,48,1332702426523 ,51,8732474569096
3.7077854 ,Left ,71,2557960967581 ,48,1332702426523 ,51,8732474569096
3.7289822 ,Left ,71,2980167387939 ,48,1316986904481 ,51,8663855718434
3.7289875 ,Left ,71,2980167387939 ,48,1316986904481 ,51,8663855718434
3.7289901 ,Left ,71,2980167387939 ,48,1316986904481 ,51,8663855718434
3.7452153 ,Left ,71,3305519613907 ,48,1499107177883 ,51,8829428274602
3.7452182 ,Left ,71,3305519613907 ,48,1499107177883 ,51,8829428274602
3.7452208 ,Left ,71,3305519613907 ,48,1499107177883 ,51,8829428274602
3.7681486 ,Left ,71,3632830275996 ,48,1890882430868 ,51,9262252595701
3.7681529 ,Left ,71,3632830275996 ,48,1890882430868 ,51,9262252595701
3.7681565 ,Left ,71,3632830275996 ,48,1890882430868 ,51,9262252595701
3.7891183 ,Left ,71,3588060842995 ,48,2551320006242 ,51,9809737204172
3.7891225 ,Left ,71,3588060842995 ,48,2551320006242 ,51,9809737204172
3.7891261 ,Left ,71,3588060842995 ,48,2551320006242 ,51,9809737204172
3.8055288 ,Left ,71,3001717095489 ,48,3216385523804 ,52,0488217468892
3.8055334 ,Left ,71,3001717095489 ,48,3216385523804 ,52,0488217468892
3.805537 ,Left ,71,3001717095489 ,48,3216385523804 ,52,0488217468892
3.8280667 ,Left ,71,2067097265798 ,48,3669522427277 ,52,1169275776609
3.8280716 ,Left ,71,2067097265798 ,48,3669522427277 ,52,1169275776609
3.8280759 ,Left ,71,2067097265798 ,48,3669522427277 ,52,1169275776609
3.8505903 ,Left ,71,1224416980171 ,48,3787234512751 ,52,1730713062688
3.8505951 ,Left ,71,1224416980171 ,48,3787234512751 ,52,1730713062688
3.850601 ,Left ,71,1224416980171 ,48,3787234512751 ,52,1730713062688
3.8655738 ,Left ,71,0730181707252 ,48,3852736983053 ,52,1904164378982
3.8655788 ,Left ,71,0730181707252 ,48,3852736983053 ,52,1904164378982
3.8655832 ,Left ,71,0730181707252 ,48,3852736983053 ,52,1904164378982
3.8879848 ,Left ,71,0292105100369 ,48,4073302877806 ,52,177785537627
3.8879898 ,Left ,71,0292105100369 ,48,4073302877806 ,52,177785537627
3.8879942 ,Left ,71,0292105100369 ,48,4073302877806 ,52,177785537627
3.9167123 ,Left ,70,9785169608482 ,48,4482878211276 ,52,1574342565975
3.9167196 ,Left ,70,9785169608482 ,48,4482878211276 ,52,1574342565975
3.9167239 ,Left ,70,9785169608482 ,48,4482878211276 ,52,1574342565975
3.9254864 ,Left ,70,9132805287184 ,48,5017558076378 ,52,1415426825945
3.9254911 ,Left ,70,9132805287184 ,48,5017558076378 ,52,1415426825945
3.9254955 ,Left ,70,9132805287184 ,48,5017558076378 ,52,1415426825945
3.9481877 ,Left ,70,8604327436824 ,48,5515865995523 ,52,1252780129997
3.9481927 ,Left ,70,8604327436824 ,48,5515865995523 ,52,1252780129997
3.948197 ,Left ,70,8604327436824 ,48,5515865995523 ,52,1252780129997
3.9705747 ,Left ,70,8170467618321 ,48,5814682575977 ,52,1208243603714
3.9705796 ,Left ,70,8170467618321 ,48,5814682575977 ,52,1208243603714
3.970584 ,Left ,70,8170467618321 ,48,5814682575977 ,52,1208243603714
3.9851702 ,Left ,70,8020732997516 ,48,5761561867898 ,52,1264737743213
3.985172 ,Left ,70,8020732997516 ,48,5761561867898 ,52,1264737743213
3.9851735 ,Left ,70,8020732997516 ,48,5761561867898 ,52,1264737743213
4.0078974 ,Left ,70,8013730388901 ,48,553498177701 ,52,1337480223422
4.0078995 ,Left ,70,8013730388901 ,48,553498177701 ,52,1337480223422
4.0079011 ,Left ,70,8013730388901 ,48,553498177701 ,52,1337480223422
4.0301444 ,Left ,70,7985880297809 ,48,5375201246195 ,52,1486367479194
4.0301461 ,Left ,70,7985880297809 ,48,5375201246195 ,52,1486367479194
4.0301475 ,Left ,70,7985880297809 ,48,5375201246195 ,52,1486367479194
4.0454767 ,Left ,70,7493482563652 ,48,5351422774564 ,52,1710743405006
4.045479 ,Left ,70,7493482563652 ,48,5351422774564 ,52,1710743405006
4.0454807 ,Left ,70,7493482563652 ,48,5351422774564 ,52,1710743405006
4.067999 ,Left ,70,6903240596069 ,48,5313931241763 ,52,2095187041132
4.0680023 ,Left ,70,6903240596069 ,48,5313931241763 ,52,2095187041132
4.0680049 ,Left ,70,6903240596069 ,48,5313931241763 ,52,2095187041132
4.0903606 ,Left ,70,6576644828478 ,48,4934419311786 ,52,2640770052777
4.0903646 ,Left ,70,6576644828478 ,48,4934419311786 ,52,2640770052777
4.0903682 ,Left ,70,6576644828478 ,48,4934419311786 ,52,2640770052777
4.1047881 ,Left ,70,644824301639 ,48,3917180706388 ,52,3196459257691
4.1047922 ,Left ,70,644824301639 ,48,3917180706388 ,52,3196459257691
4.1047958 ,Left ,70,644824301639 ,48,3917180706388 ,52,3196459257691
4.1280662 ,Left ,70,6784174298376 ,48,2924380846346 ,52,3649295942404
4.128071 ,Left ,70,6784174298376 ,48,2924380846346 ,52,3649295942404
4.1280746 ,Left ,70,6784174298376 ,48,2924380846346 ,52,3649295942404
4.1504217 ,Left ,70,7070460312586 ,48,2653363307919 ,52,3641249354348
4.1504259 ,Left ,70,7070460312586 ,48,2653363307919 ,52,3641249354348
4.1504295 ,Left ,70,7070460312586 ,48,2653363307919 ,52,3641249354348
4.1647063 ,Left ,70,7423001954464 ,48,2963736726288 ,52,3213120475748
4.1647106 ,Left ,70,7423001954464 ,48,2963736726288 ,52,3213120475748
4.1647142 ,Left ,70,7423001954464 ,48,2963736726288 ,52,3213120475748
4.1879813 ,Left ,70,8540913567548 ,48,3283098797788 ,52,24741819971
4.1879855 ,Left ,70,8540913567548 ,48,3283098797788 ,52,24741819971
4.187989 ,Left ,70,8540913567548 ,48,3283098797788 ,52,24741819971
4.2105752 ,Left ,71,0222319583823 ,48,3363735304091 ,52,162367979131
4.2105793 ,Left ,71,0222319583823 ,48,3363735304091 ,52,162367979131
4.2105829 ,Left ,71,0222319583823 ,48,3363735304091 ,52,162367979131
4.2315396 ,Left ,71,1632492674694 ,48,3275459276594 ,52,0784696306442
4.2315437 ,Left ,71,1632492674694 ,48,3275459276594 ,52,0784696306442
4.2315547 ,Left ,71,1632492674694 ,48,3275459276594 ,52,0784696306442
4.2480907 ,Left ,71,2728847193268 ,48,3278528444274 ,52,0163619982377
4.248095 ,Left ,71,2728847193268 ,48,3278528444274 ,52,0163619982377
4.2481 ,Left ,71,2728847193268 ,48,3278528444274 ,52,0163619982377
4.2704025 ,Left ,71,3627905316582 ,48,3270384524108 ,51,9806055265367
4.2704068 ,Left ,71,3627905316582 ,48,3270384524108 ,51,9806055265367
4.2704104 ,Left ,71,3627905316582 ,48,3270384524108 ,51,9806055265367
4.2915887 ,Left ,71,4552760020496 ,48,3268120196474 ,51,9626302093478
4.2915929 ,Left ,71,4552760020496 ,48,3268120196474 ,51,9626302093478
4.2915964 ,Left ,71,4552760020496 ,48,3268120196474 ,51,9626302093478
4.3081658 ,Left ,71,5130393067761 ,48,3378925187164 ,51,9537499891943
4.3081701 ,Left ,71,5130393067761 ,48,3378925187164 ,51,9537499891943
4.3081737 ,Left ,71,5130393067761 ,48,3378925187164 ,51,9537499891943
4.3305533 ,Left ,71,5334256504321 ,48,3588582572169 ,51,9529133536206
4.3305576 ,Left ,71,5334256504321 ,48,3588582572169 ,51,9529133536206
4.3305611 ,Left ,71,5334256504321 ,48,3588582572169 ,51,9529133536206
4.3448789 ,Left ,71,5061583862149 ,48,3787773285787 ,51,9563357233739
4.344883 ,Left ,71,5061583862149 ,48,3787773285787 ,51,9563357233739
4.3448866 ,Left ,71,5061583862149 ,48,3787773285787 ,51,9563357233739
4.3678785 ,Left ,71,4489193285775 ,48,3883762506693 ,51,9641646092684
4.3678817 ,Left ,71,4489193285775 ,48,3883762506693 ,51,9641646092684
4.3678872 ,Left ,71,4489193285775 ,48,3883762506693 ,51,9641646092684
4.390748 ,Left ,71,3841075231148 ,48,3865994718694 ,51,9779442219312
4.3907853 ,Left ,71,3841075231148 ,48,3865994718694 ,51,9779442219312
4.3907952 ,Left ,71,3841075231148 ,48,3865994718694 ,51,9779442219312
4.4133724 ,Left ,71,3037770705413 ,48,3715051541431 ,51,988458540863
4.41338 ,Left ,71,3037770705413 ,48,3715051541431 ,51,988458540863
4.4133868 ,Left ,71,3037770705413 ,48,3715051541431 ,51,988458540863
4.4283628 ,Left ,71,2266287010169 ,48,3719991311418 ,51,9790377303855
4.4283704 ,Left ,71,2266287010169 ,48,3719991311418 ,51,9790377303855
4.4283771 ,Left ,71,2266287010169 ,48,3719991311418 ,51,9790377303855
4.4507758 ,Left ,71,1527959304975 ,48,3928455821099 ,51,9559065236507
4.4507836 ,Left ,71,1527959304975 ,48,3928455821099 ,51,9559065236507
4.4507903 ,Left ,71,1527959304975 ,48,3928455821099 ,51,9559065236507
4.4720007 ,Left ,71,081663888816 ,48,4252165110213 ,51,9267828924144
4.4720134 ,Left ,71,081663888816 ,48,4252165110213 ,51,9267828924144
4.4720234 ,Left ,71,081663888816 ,48,4252165110213 ,51,9267828924144
4.4883679 ,Left ,71,0353305280719 ,48,4580292236226 ,51,8904637010491
4.4883808 ,Left ,71,0353305280719 ,48,4580292236226 ,51,8904637010491
4.4883876 ,Left ,71,0353305280719 ,48,4580292236226 ,51,8904637010491
4.5105464 ,Left ,71,0087765807221 ,48,4798441610384 ,51,8530958002007
4.5105797 ,Left ,71,0087765807221 ,48,4798441610384 ,51,8530958002007
4.5105863 ,Left ,71,0087765807221 ,48,4798441610384 ,51,8530958002007
4.5315867 ,Left ,70,984663886 ,48,5038408825064 ,51,812441647848
4.531591 ,Left ,70,984663886 ,48,5038408825064 ,51,812441647848
4.5315946 ,Left ,70,984663886 ,48,5038408825064 ,51,812441647848
4.5481449 ,Left ,70,9557614105403 ,48,5265032518577 ,51,7708713614053
4.5481492 ,Left ,70,9557614105403 ,48,5265032518577 ,51,7708713614053
4.5481529 ,Left ,70,9557614105403 ,48,5265032518577 ,51,7708713614053
4.570442 ,Left ,70,9263507478295 ,48,5521654096225 ,51,7313691576451
4.5704463 ,Left ,70,9263507478295 ,48,5521654096225 ,51,7313691576451
4.5704498 ,Left ,70,9263507478295 ,48,5521654096225 ,51,7313691576451
4.5915829 ,Left ,70,9122622397131 ,48,5725317343671 ,51,7003819558086
4.5915872 ,Left ,70,9122622397131 ,48,5725317343671 ,51,7003819558086
4.5915908 ,Left ,70,9122622397131 ,48,5725317343671 ,51,7003819558086
4.608052 ,Left ,70,905407264103 ,48,591983831464 ,51,6760079219395
4.6080562 ,Left ,70,905407264103 ,48,591983831464 ,51,6760079219395
4.6080598 ,Left ,70,905407264103 ,48,591983831464 ,51,6760079219395
4.6304247 ,Left ,70,9054186537177 ,48,6015167206393 ,51,6635470308629
4.6304326 ,Left ,70,9054186537177 ,48,6015167206393 ,51,6635470308629
4.6304362 ,Left ,70,9054186537177 ,48,6015167206393 ,51,6635470308629
4.6515538 ,Left ,70,9107510066891 ,48,6025958052704 ,51,6521968094858
4.6515581 ,Left ,70,9107510066891 ,48,6025958052704 ,51,6521968094858
4.6515617 ,Left ,70,9107510066891 ,48,6025958052704 ,51,6521968094858
4.667825 ,Left ,70,9153912990581 ,48,5927700044262 ,51,642074179008
4.6678295 ,Left ,70,9153912990581 ,48,5927700044262 ,51,642074179008
4.6678331 ,Left ,70,9153912990581 ,48,5927700044262 ,51,642074179008
4.6904039 ,Left ,70,922398683647 ,48,5773625749952 ,51,6325538291496
4.6904079 ,Left ,70,922398683647 ,48,5773625749952 ,51,6325538291496
4.6904116 ,Left ,70,922398683647 ,48,5773625749952 ,51,6325538291496
4.7114791 ,Left ,70,9369694421917 ,48,5673852486651 ,51,6247366044103
4.7114831 ,Left ,70,9369694421917 ,48,5673852486651 ,51,6247366044103
4.7114867 ,Left ,70,9369694421917 ,48,5673852486651 ,51,6247366044103
4.7280642 ,Left ,70,9715978467805 ,48,5494039884411 ,51,6157279038204
4.7280685 ,Left ,70,9715978467805 ,48,5494039884411 ,51,6157279038204
4.728072 ,Left ,70,9715978467805 ,48,5494039884411 ,51,6157279038204
4.7508988 ,Left ,71,0131232665503 ,48,5206745456616 ,51,6005438519814
4.750903 ,Left ,71,0131232665503 ,48,5206745456616 ,51,6005438519814
4.7509066 ,Left ,71,0131232665503 ,48,5206745456616 ,51,6005438519814
4.7716521 ,Left ,71,0646908389049 ,48,492018883007 ,51,5778008083887
4.7716596 ,Left ,71,0646908389049 ,48,492018883007 ,51,5778008083887
4.7716634 ,Left ,71,0646908389049 ,48,492018883007 ,51,5778008083887
4.7884357 ,Left ,71,1071104653352 ,48,482360369361 ,51,5477110281625
4.7884399 ,Left ,71,1071104653352 ,48,482360369361 ,51,5477110281625
4.7884435 ,Left ,71,1071104653352 ,48,482360369361 ,51,5477110281625
4.8104838 ,Left ,71,1297608683301 ,48,4888149256366 ,51,5054134615995
4.8104879 ,Left ,71,1297608683301 ,48,4888149256366 ,51,5054134615995
4.8104915 ,Left ,71,1297608683301 ,48,4888149256366 ,51,5054134615995
4.8316346 ,Left ,71,1503564668849 ,48,4999071372032 ,51,4544743568855
4.8316387 ,Left ,71,1503564668849 ,48,4999071372032 ,51,4544743568855
4.8316423 ,Left ,71,1503564668849 ,48,4999071372032 ,51,4544743568855
4.8479706 ,Left ,71,1559274520211 ,48,5156618159243 ,51,4022685460136
4.8479747 ,Left ,71,1559274520211 ,48,5156618159243 ,51,4022685460136
4.8479782 ,Left ,71,1559274520211 ,48,5156618159243 ,51,4022685460136
4.870435 ,Left ,71,1394698314777 ,48,5424149238476 ,51,3541079412166
4.8704393 ,Left ,71,1394698314777 ,48,5424149238476 ,51,3541079412166
4.8704428 ,Left ,71,1394698314777 ,48,5424149238476 ,51,3541079412166
4.8929853 ,Left ,71,0955452194418 ,48,5804257141602 ,51,3224641963008
4.8929899 ,Left ,71,0955452194418 ,48,5804257141602 ,51,3224641963008
4.8929934 ,Left ,71,0955452194418 ,48,5804257141602 ,51,3224641963008
4.9079354 ,Left ,71,0393317815483 ,48,6241118791377 ,51,300331350829
4.9079395 ,Left ,71,0393317815483 ,48,6241118791377 ,51,300331350829
4.9079431 ,Left ,71,0393317815483 ,48,6241118791377 ,51,300331350829
4.9304022 ,Left ,70,9832614765734 ,48,6658263469331 ,51,2741367782803
4.9304062 ,Left ,70,9832614765734 ,48,6658263469331 ,51,2741367782803
4.9304098 ,Left ,70,9832614765734 ,48,6658263469331 ,51,2741367782803
4.9591526 ,Left ,70,9246276597698 ,48,6853528411357 ,51,2480175051777
4.9591574 ,Left ,70,9246276597698 ,48,6853528411357 ,51,2480175051777
4.9591618 ,Left ,70,9246276597698 ,48,6853528411357 ,51,2480175051777
4.9681287 ,Left ,70,8681869516556 ,48,6956715702867 ,51,2270063835629
4.9681336 ,Left ,70,8681869516556 ,48,6956715702867 ,51,2270063835629
4.968138 ,Left ,70,8681869516556 ,48,6956715702867 ,51,2270063835629
4.990489 ,Left ,70,8046295387798 ,48,7359626367812 ,51,2217340339925
4.990494 ,Left ,70,8046295387798 ,48,7359626367812 ,51,2217340339925
4.9904984 ,Left ,70,8046295387798 ,48,7359626367812 ,51,2217340339925
5.0129783 ,Left ,70,7337635613533 ,48,7764997423758 ,51,2583299027461
5.0129832 ,Left ,70,7337635613533 ,48,7764997423758 ,51,2583299027461
5.0129898 ,Left ,70,7337635613533 ,48,7764997423758 ,51,2583299027461
5.0279112 ,Left ,70,6738767427015 ,48,7364825868591 ,51,3581688458628
5.0279161 ,Left ,70,6738767427015 ,48,7364825868591 ,51,3581688458628
5.0279204 ,Left ,70,6738767427015 ,48,7364825868591 ,51,3581688458628
5.0505374 ,Left ,70,6518057132457 ,48,6375801606299 ,51,4937084093186
5.0505423 ,Left ,70,6518057132457 ,48,6375801606299 ,51,4937084093186
5.0505466 ,Left ,70,6518057132457 ,48,6375801606299 ,51,4937084093186
5.0730865 ,Left ,70,6669535535517 ,48,5660388939062 ,51,5861462547023
5.0730914 ,Left ,70,6669535535517 ,48,5660388939062 ,51,5861462547023
5.0730957 ,Left ,70,6669535535517 ,48,5660388939062 ,51,5861462547023
5.0874374 ,Left ,70,7569607850063 ,48,5221989388985 ,51,6208951297812
5.0874423 ,Left ,70,7569607850063 ,48,5221989388985 ,51,6208951297812
5.0874467 ,Left ,70,7569607850063 ,48,5221989388985 ,51,6208951297812
5.1105552 ,Left ,70,8914136230812 ,48,4716106767602 ,51,598101877447
5.1105601 ,Left ,70,8914136230812 ,48,4716106767602 ,51,598101877447
5.1105645 ,Left ,70,8914136230812 ,48,4716106767602 ,51,598101877447
5.1330184 ,Left ,71,0440811631155 ,48,3948802073336 ,51,5593929923152
5.1330232 ,Left ,71,0440811631155 ,48,3948802073336 ,51,5593929923152
5.1330276 ,Left ,71,0440811631155 ,48,3948802073336 ,51,5593929923152
5.153964 ,Left ,71,1650309435009 ,48,2984452437886 ,51,5269852304171
5.1539693 ,Left ,71,1650309435009 ,48,2984452437886 ,51,5269852304171
5.1539736 ,Left ,71,1650309435009 ,48,2984452437886 ,51,5269852304171
5.1705067 ,Left ,71,2521264504472 ,48,2297027894863 ,51,5038483487159
5.1705117 ,Left ,71,2521264504472 ,48,2297027894863 ,51,5038483487159
5.1705162 ,Left ,71,2521264504472 ,48,2297027894863 ,51,5038483487159
5.1932544 ,Left ,71,284858170626 ,48,1906591377748 ,51,4773993583416
5.1932596 ,Left ,71,284858170626 ,48,1906591377748 ,51,4773993583416
5.1932639 ,Left ,71,284858170626 ,48,1906591377748 ,51,4773993583416
5.2143708 ,Left ,71,300665062839 ,48,1481342517999 ,51,4385421881572
5.2143759 ,Left ,71,300665062839 ,48,1481342517999 ,51,4385421881572
5.2143804 ,Left ,71,300665062839 ,48,1481342517999 ,51,4385421881572
5.238039 ,Left ,71,3108687411884 ,48,0837666787162 ,51,4246465018877
5.238044 ,Left ,71,3108687411884 ,48,0837666787162 ,51,4246465018877
5.2380483 ,Left ,71,3108687411884 ,48,0837666787162 ,51,4246465018877
5.2530363 ,Left ,71,3132553485627 ,48,0197881278948 ,51,4489116534763
5.2530412 ,Left ,71,3132553485627 ,48,0197881278948 ,51,4489116534763
5.2530456 ,Left ,71,3132553485627 ,48,0197881278948 ,51,4489116534763
5.2741162 ,Left ,71,2542821535917 ,47,9886513769743 ,51,5205034379221
5.2741212 ,Left ,71,2542821535917 ,47,9886513769743 ,51,5205034379221
5.2741255 ,Left ,71,2542821535917 ,47,9886513769743 ,51,5205034379221
5.2904917 ,Left ,71,191839566034 ,47,9696881885062 ,51,6213393112809
5.2904967 ,Left ,71,191839566034 ,47,9696881885062 ,51,6213393112809
5.290501 ,Left ,71,191839566034 ,47,9696881885062 ,51,6213393112809
5.3130162 ,Left ,71,1329340432197 ,48,0065021136747 ,51,7111382282974
5.313024 ,Left ,71,1329340432197 ,48,0065021136747 ,51,7111382282974
5.3130283 ,Left ,71,1329340432197 ,48,0065021136747 ,51,7111382282974
5.3336932 ,Left ,71,0608860660447 ,48,1044480466192 ,51,7465973431377
5.333695 ,Left ,71,0608860660447 ,48,1044480466192 ,51,7465973431377
5.3336965 ,Left ,71,0608860660447 ,48,1044480466192 ,51,7465973431377
5.3502475 ,Left ,71,0176762489268 ,48,2281891256657 ,51,7418768195002
5.3502493 ,Left ,71,0176762489268 ,48,2281891256657 ,51,7418768195002
5.3502508 ,Left ,71,0176762489268 ,48,2281891256657 ,51,7418768195002
5.372739 ,Left ,71,0293998623674 ,48,3506280550032 ,51,7254872386553
5.3727408 ,Left ,71,0293998623674 ,48,3506280550032 ,51,7254872386553
5.3727424 ,Left ,71,0293998623674 ,48,3506280550032 ,51,7254872386553
5.3937571 ,Left ,71,0755107329725 ,48,4367327984605 ,51,6980603595381
5.3937592 ,Left ,71,0755107329725 ,48,4367327984605 ,51,6980603595381
5.3937611 ,Left ,71,0755107329725 ,48,4367327984605 ,51,6980603595381
5.4104012 ,Left ,71,1284672261039 ,48,4890594710556 ,51,669142082583
5.4104048 ,Left ,71,1284672261039 ,48,4890594710556 ,51,669142082583
5.4104079 ,Left ,71,1284672261039 ,48,4890594710556 ,51,669142082583
5.4330465 ,Left ,71,1812114393394 ,48,5321512259171 ,51,655422095027
5.4330511 ,Left ,71,1812114393394 ,48,5321512259171 ,51,655422095027
5.4330547 ,Left ,71,1812114393394 ,48,5321512259171 ,51,655422095027
5.4543846 ,Left ,71,2092956780542 ,48,5711607736084 ,51,6562069863941
5.45439 ,Left ,71,2092956780542 ,48,5711607736084 ,51,6562069863941
5.4543943 ,Left ,71,2092956780542 ,48,5711607736084 ,51,6562069863941
5.4705542 ,Left ,71,2419790003489 ,48,6023483246541 ,51,6631872203435
5.4705591 ,Left ,71,2419790003489 ,48,6023483246541 ,51,6631872203435
5.4705634 ,Left ,71,2419790003489 ,48,6023483246541 ,51,6631872203435
5.4932603 ,Left ,71,277082765586 ,48,6227661870708 ,51,6742151723935
5.4932654 ,Left ,71,277082765586 ,48,6227661870708 ,51,6742151723935
5.4932698 ,Left ,71,277082765586 ,48,6227661870708 ,51,6742151723935
5.5141792 ,Left ,71,2895198198793 ,48,6224273224945 ,51,6764203342121
5.5141846 ,Left ,71,2895198198793 ,48,6224273224945 ,51,6764203342121
5.5141895 ,Left ,71,2895198198793 ,48,6224273224945 ,51,6764203342121
5.5306131 ,Left ,71,2966493118776 ,48,609266464884 ,51,6734270867079
5.5306179 ,Left ,71,2966493118776 ,48,609266464884 ,51,6734270867079
5.5306222 ,Left ,71,2966493118776 ,48,609266464884 ,51,6734270867079
5.5529557 ,Left ,71,3364689297783 ,48,5940977051278 ,51,6664365369272
5.5529606 ,Left ,71,3364689297783 ,48,5940977051278 ,51,6664365369272
5.552965 ,Left ,71,3364689297783 ,48,5940977051278 ,51,6664365369272
5.5741668 ,Left ,71,3809255752832 ,48,5771672056665 ,51,6577986829361
5.5741718 ,Left ,71,3809255752832 ,48,5771672056665 ,51,6577986829361
5.5741761 ,Left ,71,3809255752832 ,48,5771672056665 ,51,6577986829361
5.5905535 ,Left ,71,4181131218169 ,48,5576006057588 ,51,6471192769548
5.5905585 ,Left ,71,4181131218169 ,48,5576006057588 ,51,6471192769548
5.5905628 ,Left ,71,4181131218169 ,48,5576006057588 ,51,6471192769548
5.6132569 ,Left ,71,4602143498633 ,48,5332470497692 ,51,6324851925876
5.6132657 ,Left ,71,4602143498633 ,48,5332470497692 ,51,6324851925876
5.61327 ,Left ,71,4602143498633 ,48,5332470497692 ,51,6324851925876
5.6340493 ,Left ,71,5024117160786 ,48,5086300493276 ,51,6150438694415
5.6340542 ,Left ,71,5024117160786 ,48,5086300493276 ,51,6150438694415
5.6340585 ,Left ,71,5024117160786 ,48,5086300493276 ,51,6150438694415
5.6503621 ,Left ,71,5371165126943 ,48,4862402087146 ,51,6018060017048
5.6503654 ,Left ,71,5371165126943 ,48,4862402087146 ,51,6018060017048
5.6503682 ,Left ,71,5371165126943 ,48,4862402087146 ,51,6018060017048
5.6729018 ,Left ,71,5672681061562 ,48,4683601030683 ,51,5898474650563
5.6729049 ,Left ,71,5672681061562 ,48,4683601030683 ,51,5898474650563
5.6729077 ,Left ,71,5672681061562 ,48,4683601030683 ,51,5898474650563
5.6940855 ,Left ,71,597210160708 ,48,4492839935998 ,51,5792563552879
5.6940888 ,Left ,71,597210160708 ,48,4492839935998 ,51,5792563552879
5.6940916 ,Left ,71,597210160708 ,48,4492839935998 ,51,5792563552879
5.7103741 ,Left ,71,6220220320534 ,48,4267979090246 ,51,5733895361467
5.7103774 ,Left ,71,6220220320534 ,48,4267979090246 ,51,5733895361467
5.7103802 ,Left ,71,6220220320534 ,48,4267979090246 ,51,5733895361467
5.7330276 ,Left ,71,6367826538186 ,48,4045322515103 ,51,5652079078015
5.733031 ,Left ,71,6367826538186 ,48,4045322515103 ,51,5652079078015
5.7330338 ,Left ,71,6367826538186 ,48,4045322515103 ,51,5652079078015
5.7539569 ,Left ,71,6444475122144 ,48,3908353641458 ,51,5566654244791
5.7539601 ,Left ,71,6444475122144 ,48,3908353641458 ,51,5566654244791
5.7539628 ,Left ,71,6444475122144 ,48,3908353641458 ,51,5566654244791
5.770252 ,Left ,71,6469530710813 ,48,3758836618604 ,51,5470679370716
5.7702541 ,Left ,71,6469530710813 ,48,3758836618604 ,51,5470679370716
5.7702558 ,Left ,71,6469530710813 ,48,3758836618604 ,51,5470679370716
5.7928611 ,Left ,71,6390926866765 ,48,3552972074807 ,51,545470679022
5.7928632 ,Left ,71,6390926866765 ,48,3552972074807 ,51,545470679022
5.7928648 ,Left ,71,6390926866765 ,48,3552972074807 ,51,545470679022
5.8154044 ,Left ,71,6341935559714 ,48,3338914898552 ,51,5510345328873
5.8154063 ,Left ,71,6341935559714 ,48,3338914898552 ,51,5510345328873
5.8154078 ,Left ,71,6341935559714 ,48,3338914898552 ,51,5510345328873
5.8302741 ,Left ,71,6312509484854 ,48,308436322738 ,51,5580207778153
5.8302763 ,Left ,71,6312509484854 ,48,308436322738 ,51,5580207778153
5.8302782 ,Left ,71,6312509484854 ,48,308436322738 ,51,5580207778153
5.8529579 ,Left ,71,6310172243787 ,48,2818954774643 ,51,569276220983
5.8529605 ,Left ,71,6310172243787 ,48,2818954774643 ,51,569276220983
5.8529626 ,Left ,71,6310172243787 ,48,2818954774643 ,51,569276220983
5.8751871 ,Left ,71,6384340071504 ,48,258939875263 ,51,5783398149898
5.8751888 ,Left ,71,6384340071504 ,48,258939875263 ,51,5783398149898
5.8751903 ,Left ,71,6384340071504 ,48,258939875263 ,51,5783398149898
5.8902771 ,Left ,71,6431036163449 ,48,2379156212695 ,51,5913925422986
5.8902793 ,Left ,71,6431036163449 ,48,2379156212695 ,51,5913925422986
5.8902812 ,Left ,71,6431036163449 ,48,2379156212695 ,51,5913925422986
5.9130487 ,Left ,71,6526783933537 ,48,21446172779 ,51,609927927746
5.9130528 ,Left ,71,6526783933537 ,48,21446172779 ,51,609927927746
5.9130559 ,Left ,71,6526783933537 ,48,21446172779 ,51,609927927746
5.9358097 ,Left ,71,6723653489506 ,48,190753424311 ,51,6306755342202
5.9358175 ,Left ,71,6723653489506 ,48,190753424311 ,51,6306755342202
5.9358243 ,Left ,71,6723653489506 ,48,190753424311 ,51,6306755342202
5.9506251 ,Left ,71,699461189118 ,48,1669136003167 ,51,6536410894094
5.9506464 ,Left ,71,699461189118 ,48,1669136003167 ,51,6536410894094
5.9506565 ,Left ,71,699461189118 ,48,1669136003167 ,51,6536410894094
5.972983 ,Left ,71,7314934282461 ,48,1420844231666 ,51,6832705715097
5.9729848 ,Left ,71,7314934282461 ,48,1420844231666 ,51,6832705715097
5.9729919 ,Left ,71,7314934282461 ,48,1420844231666 ,51,6832705715097
5.9954868 ,Left ,71,7662482305029 ,48,119080474684 ,51,7195780593688
5.9954887 ,Left ,71,7662482305029 ,48,119080474684 ,51,7195780593688
5.9954902 ,Left ,71,7662482305029 ,48,119080474684 ,51,7195780593688
6.0097565 ,Left ,71,7958156613609 ,48,1020368198837 ,51,7582032171111
6.0097591 ,Left ,71,7958156613609 ,48,1020368198837 ,51,7582032171111
6.0097608 ,Left ,71,7958156613609 ,48,1020368198837 ,51,7582032171111
6.0332726 ,Left ,71,8279144582052 ,48,0875174175102 ,51,7963277015499
6.0332872 ,Left ,71,8279144582052 ,48,0875174175102 ,51,7963277015499
6.033294 ,Left ,71,8279144582052 ,48,0875174175102 ,51,7963277015499
6.055909 ,Left ,71,847659188043 ,48,0745972112697 ,51,8310488814186
6.0559297 ,Left ,71,847659188043 ,48,0745972112697 ,51,8310488814186
6.0559402 ,Left ,71,847659188043 ,48,0745972112697 ,51,8310488814186
6.0701506 ,Left ,71,8594754203782 ,48,058374404473 ,51,8705817382438
6.0701581 ,Left ,71,8594754203782 ,48,058374404473 ,51,8705817382438
6.0701648 ,Left ,71,8594754203782 ,48,058374404473 ,51,8705817382438
6.0932524 ,Left ,71,8717985326364 ,48,0533195129247 ,51,9119930438437
6.0932601 ,Left ,71,8717985326364 ,48,0533195129247 ,51,9119930438437
6.0932669 ,Left ,71,8717985326364 ,48,0533195129247 ,51,9119930438437
6.1155877 ,Left ,71,8737360314194 ,48,0561236156265 ,51,9571987697531
6.115593 ,Left ,71,8737360314194 ,48,0561236156265 ,51,9571987697531
6.1155978 ,Left ,71,8737360314194 ,48,0561236156265 ,51,9571987697531
6.1380458 ,Left ,71,8757328275213 ,48,0546646439407 ,52,0014846208333
6.1380489 ,Left ,71,8757328275213 ,48,0546646439407 ,52,0014846208333
6.1380513 ,Left ,71,8757328275213 ,48,0546646439407 ,52,0014846208333
6.1530094 ,Left ,71,8777964773263 ,48,0546933169785 ,52,0470071062882
6.1530124 ,Left ,71,8777964773263 ,48,0546933169785 ,52,0470071062882
6.1530149 ,Left ,71,8777964773263 ,48,0546933169785 ,52,0470071062882
6.1755184 ,Left ,71,8826782989674 ,48,0610063681969 ,52,0876185760797
6.1755213 ,Left ,71,8826782989674 ,48,0610063681969 ,52,0876185760797
6.1755237 ,Left ,71,8826782989674 ,48,0610063681969 ,52,0876185760797
6.189695 ,Left ,71,8854085293158 ,48,0751767945848 ,52,1221515050225
6.1896977 ,Left ,71,8854085293158 ,48,0751767945848 ,52,1221515050225
6.1897002 ,Left ,71,8854085293158 ,48,0751767945848 ,52,1221515050225
6.2128661 ,Left ,71,8777735978378 ,48,0887898160418 ,52,1586015813469
6.2128693 ,Left ,71,8777735978378 ,48,0887898160418 ,52,1586015813469
6.212872 ,Left ,71,8777735978378 ,48,0887898160418 ,52,1586015813469
6.2414916 ,Left ,71,870214733508 ,48,0986861093914 ,52,1996548554552
6.2414954 ,Left ,71,870214733508 ,48,0986861093914 ,52,1996548554552
6.2414985 ,Left ,71,870214733508 ,48,0986861093914 ,52,1996548554552
6.2497936 ,Left ,71,8728089496762 ,48,1031221758953 ,52,2337108650169
6.2497971 ,Left ,71,8728089496762 ,48,1031221758953 ,52,2337108650169
6.2498003 ,Left ,71,8728089496762 ,48,1031221758953 ,52,2337108650169
6.2726398 ,Left ,71,8754504623034 ,48,1100337082474 ,52,2646987982036
6.2726416 ,Left ,71,8754504623034 ,48,1100337082474 ,52,2646987982036
6.272643 ,Left ,71,8754504623034 ,48,1100337082474 ,52,2646987982036
6.2952277 ,Left ,71,865703048592 ,48,1228138580399 ,52,2904407658341
6.2952295 ,Left ,71,865703048592 ,48,1228138580399 ,52,2904407658341
6.295231 ,Left ,71,865703048592 ,48,1228138580399 ,52,2904407658341
6.3165795 ,Left ,71,8459004148208 ,48,1418256999209 ,52,3160903992079
6.3165817 ,Left ,71,8459004148208 ,48,1418256999209 ,52,3160903992079
6.3165834 ,Left ,71,8459004148208 ,48,1418256999209 ,52,3160903992079
6.332902 ,Left ,71,8286982447709 ,48,1597004452683 ,52,3458471663217
6.3329044 ,Left ,71,8286982447709 ,48,1597004452683 ,52,3458471663217
6.3329063 ,Left ,71,8286982447709 ,48,1597004452683 ,52,3458471663217
6.3553247 ,Left ,71,8036459294446 ,48,1732046429263 ,52,3819122673871
6.3553278 ,Left ,71,8036459294446 ,48,1732046429263 ,52,3819122673871
6.3553305 ,Left ,71,8036459294446 ,48,1732046429263 ,52,3819122673871
6.3763935 ,Left ,71,7865147598776 ,48,1782365066507 ,52,4215149192298
6.3763969 ,Left ,71,7865147598776 ,48,1782365066507 ,52,4215149192298
6.3764 ,Left ,71,7865147598776 ,48,1782365066507 ,52,4215149192298
6.3933258 ,Left ,71,7667254368411 ,48,1847318476396 ,52,4595700638536
6.3933301 ,Left ,71,7667254368411 ,48,1847318476396 ,52,4595700638536
6.3933337 ,Left ,71,7667254368411 ,48,1847318476396 ,52,4595700638536
6.4153352 ,Left ,71,739080802497 ,48,1930798945617 ,52,4962339043455
6.4153394 ,Left ,71,739080802497 ,48,1930798945617 ,52,4962339043455
6.4153429 ,Left ,71,739080802497 ,48,1930798945617 ,52,4962339043455
6.4367429 ,Left ,71,714484442792 ,48,203769010384 ,52,5299948556117
6.4367473 ,Left ,71,714484442792 ,48,203769010384 ,52,5299948556117
6.4367508 ,Left ,71,714484442792 ,48,203769010384 ,52,5299948556117
6.4531122 ,Left ,71,692427687724 ,48,2058265173409 ,52,5619693891374
6.4531166 ,Left ,71,692427687724 ,48,2058265173409 ,52,5619693891374
6.4531201 ,Left ,71,692427687724 ,48,2058265173409 ,52,5619693891374
6.4755527 ,Left ,71,674783311184 ,48,2022809657171 ,52,5966454670878
6.4755571 ,Left ,71,674783311184 ,48,2022809657171 ,52,5966454670878
6.4755607 ,Left ,71,674783311184 ,48,2022809657171 ,52,5966454670878
6.4965511 ,Left ,71,6674036182721 ,48,1961759864461 ,52,6270197553781
6.4965651 ,Left ,71,6674036182721 ,48,1961759864461 ,52,6270197553781
6.4965687 ,Left ,71,6674036182721 ,48,1961759864461 ,52,6270197553781
6.5204788 ,Left ,71,664818850007 ,48,1903395178777 ,52,6499595319085
6.5204829 ,Left ,71,664818850007 ,48,1903395178777 ,52,6499595319085
6.5204864 ,Left ,71,664818850007 ,48,1903395178777 ,52,6499595319085
6.5353932 ,Left ,71,6497244535434 ,48,189524949291 ,52,6717152505016
6.5353952 ,Left ,71,6497244535434 ,48,189524949291 ,52,6717152505016
6.5353967 ,Left ,71,6497244535434 ,48,189524949291 ,52,6717152505016
6.5562189 ,Left ,71,6275840608387 ,48,1933583332027 ,52,6923158895021
6.5562214 ,Left ,71,6275840608387 ,48,1933583332027 ,52,6923158895021
6.5562231 ,Left ,71,6275840608387 ,48,1933583332027 ,52,6923158895021
6.5727523 ,Left ,71,6079296367652 ,48,1994585423381 ,52,7096317560473
6.5727545 ,Left ,71,6079296367652 ,48,1994585423381 ,52,7096317560473
6.5727562 ,Left ,71,6079296367652 ,48,1994585423381 ,52,7096317560473
6.5954435 ,Left ,71,5907623374362 ,48,2053597889517 ,52,7267660002754
6.5954464 ,Left ,71,5907623374362 ,48,2053597889517 ,52,7267660002754
6.5954487 ,Left ,71,5907623374362 ,48,2053597889517 ,52,7267660002754
6.624044 ,Left ,71,5682228344851 ,48,1998092897145 ,52,7497393265738
6.6240469 ,Left ,71,5682228344851 ,48,1998092897145 ,52,7497393265738
6.6240492 ,Left ,71,5682228344851 ,48,1998092897145 ,52,7497393265738
6.6329807 ,Left ,71,5453704633033 ,48,189080604595 ,52,7759854160188
6.6329835 ,Left ,71,5453704633033 ,48,189080604595 ,52,7759854160188
6.632986 ,Left ,71,5453704633033 ,48,189080604595 ,52,7759854160188
6.6558952 ,Left ,71,5150066000079 ,48,1760352380098 ,52,8003697157155
6.6559162 ,Left ,71,5150066000079 ,48,1760352380098 ,52,8003697157155
6.6559242 ,Left ,71,5150066000079 ,48,1760352380098 ,52,8003697157155
6.6771252 ,Left ,71,4770315400445 ,48,1685783319882 ,52,8188904375484
6.677133 ,Left ,71,4770315400445 ,48,1685783319882 ,52,8188904375484
6.6771398 ,Left ,71,4770315400445 ,48,1685783319882 ,52,8188904375484
6.693778 ,Left ,71,4369239724737 ,48,1593267952966 ,52,8312733923695
6.6937855 ,Left ,71,4369239724737 ,48,1593267952966 ,52,8312733923695
6.6937922 ,Left ,71,4369239724737 ,48,1593267952966 ,52,8312733923695
6.7156725 ,Left ,71,3987896146695 ,48,1428677534383 ,52,8428146140831
6.7156785 ,Left ,71,3987896146695 ,48,1428677534383 ,52,8428146140831
6.7156831 ,Left ,71,3987896146695 ,48,1428677534383 ,52,8428146140831
6.736895 ,Left ,71,3702996000059 ,48,1188331709365 ,52,8559515704338
6.7369006 ,Left ,71,3702996000059 ,48,1188331709365 ,52,8559515704338
6.7369053 ,Left ,71,3702996000059 ,48,1188331709365 ,52,8559515704338
6.7530675 ,Left ,71,34181704314 ,48,0984677895607 ,52,8644370268786
6.7530727 ,Left ,71,34181704314 ,48,0984677895607 ,52,8644370268786
6.7530774 ,Left ,71,34181704314 ,48,0984677895607 ,52,8644370268786
6.7750881 ,Left ,71,2913988668634 ,48,0859235875446 ,52,8765087669793
6.7750899 ,Left ,71,2913988668634 ,48,0859235875446 ,52,8765087669793
6.7751046 ,Left ,71,2913988668634 ,48,0859235875446 ,52,8765087669793
6.7977701 ,Left ,71,2165662732694 ,48,0914569996875 ,52,8947895755183
6.7977718 ,Left ,71,2165662732694 ,48,0914569996875 ,52,8947895755183
6.7977733 ,Left ,71,2165662732694 ,48,0914569996875 ,52,8947895755183
6.8129059 ,Left ,71,1888185860525 ,48,1243444375931 ,52,918022644874
6.8129078 ,Left ,71,1888185860525 ,48,1243444375931 ,52,918022644874
6.8129093 ,Left ,71,1888185860525 ,48,1243444375931 ,52,918022644874
6.8353436 ,Left ,71,1273402668182 ,48,192607991713 ,52,9330472591007
6.8353458 ,Left ,71,1273402668182 ,48,192607991713 ,52,9330472591007
6.8353476 ,Left ,71,1273402668182 ,48,192607991713 ,52,9330472591007
6.8580271 ,Left ,71,0786872989761 ,48,2702766578099 ,52,9304131887004
6.85803 ,Left ,71,0786872989761 ,48,2702766578099 ,52,9304131887004
6.8580324 ,Left ,71,0786872989761 ,48,2702766578099 ,52,9304131887004
6.8729638 ,Left ,71,0665671228488 ,48,3322373697303 ,52,9038623867942
6.8729672 ,Left ,71,0665671228488 ,48,3322373697303 ,52,9038623867942
6.8729702 ,Left ,71,0665671228488 ,48,3322373697303 ,52,9038623867942
6.8951408 ,Left ,71,073035943767 ,48,3870249852318 ,52,8544250776347
6.8951425 ,Left ,71,073035943767 ,48,3870249852318 ,52,8544250776347
6.895144 ,Left ,71,073035943767 ,48,3870249852318 ,52,8544250776347
6.9179222 ,Left ,71,0856604049225 ,48,4131787368534 ,52,7905880205696
6.9179242 ,Left ,71,0856604049225 ,48,4131787368534 ,52,7905880205696
6.9179256 ,Left ,71,0856604049225 ,48,4131787368534 ,52,7905880205696
6.9320769 ,Left ,71,0995935905904 ,48,4181740895243 ,52,7251262377246
6.9320789 ,Left ,71,0995935905904 ,48,4181740895243 ,52,7251262377246
6.9320807 ,Left ,71,0995935905904 ,48,4181740895243 ,52,7251262377246
6.9554522 ,Left ,71,1233164472264 ,48,4154066324869 ,52,6587856840199
6.9554559 ,Left ,71,1233164472264 ,48,4154066324869 ,52,6587856840199
6.9554589 ,Left ,71,1233164472264 ,48,4154066324869 ,52,6587856840199
6.9776647 ,Left ,71,1393301906781 ,48,4036031371235 ,52,5926785624527
6.9776665 ,Left ,71,1393301906781 ,48,4036031371235 ,52,5926785624527
6.9776681 ,Left ,71,1393301906781 ,48,4036031371235 ,52,5926785624527
6.9924971 ,Left ,71,1425641740765 ,48,385506719646 ,52,5238111202712
6.9925047 ,Left ,71,1425641740765 ,48,385506719646 ,52,5238111202712
6.9925114 ,Left ,71,1425641740765 ,48,385506719646 ,52,5238111202712
7.0158221 ,Left ,71,1432180835737 ,48,3500122861114 ,52,458899120535
7.0158296 ,Left ,71,1432180835737 ,48,3500122861114 ,52,458899120535
7.0158364 ,Left ,71,1432180835737 ,48,3500122861114 ,52,458899120535
7.0383698 ,Left ,71,1538170423628 ,48,3186345758464 ,52,3994899094468
7.0383775 ,Left ,71,1538170423628 ,48,3186345758464 ,52,3994899094468
7.0383843 ,Left ,71,1538170423628 ,48,3186345758464 ,52,3994899094468
7.0524028 ,Left ,71,1680518423389 ,48,2990098224116 ,52,3470595262088
7.0524137 ,Left ,71,1680518423389 ,48,2990098224116 ,52,3470595262088
7.0524266 ,Left ,71,1680518423389 ,48,2990098224116 ,52,3470595262088
7.0755778 ,Left ,71,1751157846962 ,48,2964173226134 ,52,3051772618077
7.0755813 ,Left ,71,1751157846962 ,48,2964173226134 ,52,3051772618077
7.0755842 ,Left ,71,1751157846962 ,48,2964173226134 ,52,3051772618077
7.0809514 ,Left ,71,1804969441572 ,48,3062312067384 ,52,2732130785898
7.0809549 ,Left ,71,1804969441572 ,48,3062312067384 ,52,2732130785898
7.0809578 ,Left ,71,1804969441572 ,48,3062312067384 ,52,2732130785898
7.103229 ,Left ,71,1757790191173 ,48,3201171349672 ,52,246729620891
7.1032324 ,Left ,71,1757790191173 ,48,3201171349672 ,52,246729620891
7.1032353 ,Left ,71,1757790191173 ,48,3201171349672 ,52,246729620891
7.1199173 ,Left ,71,1609117827075 ,48,3329088924561 ,52,2292005945631
7.1199209 ,Left ,71,1609117827075 ,48,3329088924561 ,52,2292005945631
7.1199237 ,Left ,71,1609117827075 ,48,3329088924561 ,52,2292005945631
7.1407996 ,Left ,71,1416055601344 ,48,3454725681436 ,52,2192308830133
7.1408031 ,Left ,71,1416055601344 ,48,3454725681436 ,52,2192308830133
7.140806 ,Left ,71,1416055601344 ,48,3454725681436 ,52,2192308830133
7.16322 ,Left ,71,1194698958319 ,48,3591599847661 ,52,2173392231113
7.163222 ,Left ,71,1194698958319 ,48,3591599847661 ,52,2173392231113
7.1632235 ,Left ,71,1194698958319 ,48,3591599847661 ,52,2173392231113
7.1795445 ,Left ,71,0948950630255 ,48,3666753254549 ,52,2206471891336
7.1795462 ,Left ,71,0948950630255 ,48,3666753254549 ,52,2206471891336
7.1795477 ,Left ,71,0948950630255 ,48,3666753254549 ,52,2206471891336
7.2014089 ,Left ,71,0703457263211 ,48,3717907645882 ,52,2270709909038
7.2014171 ,Left ,71,0703457263211 ,48,3717907645882 ,52,2270709909038
7.2014238 ,Left ,71,0703457263211 ,48,3717907645882 ,52,2270709909038
7.2236928 ,Left ,71,050325572823 ,48,368579404802 ,52,2244617162589
7.2237006 ,Left ,71,050325572823 ,48,368579404802 ,52,2244617162589
7.2237074 ,Left ,71,050325572823 ,48,368579404802 ,52,2244617162589
7.2400602 ,Left ,71,0378283292317 ,48,3628622087496 ,52,2051856343335
7.2400656 ,Left ,71,0378283292317 ,48,3628622087496 ,52,2051856343335
7.2400704 ,Left ,71,0378283292317 ,48,3628622087496 ,52,2051856343335
7.2612284 ,Left ,71,0249914399883 ,48,3436678741181 ,52,1779687131504
7.2612338 ,Left ,71,0249914399883 ,48,3436678741181 ,52,1779687131504
7.2612404 ,Left ,71,0249914399883 ,48,3436678741181 ,52,1779687131504
7.2837773 ,Left ,71,0168263383913 ,48,3283768908463 ,52,1510853980146
7.2837832 ,Left ,71,0168263383913 ,48,3283768908463 ,52,1510853980146
7.2837878 ,Left ,71,0168263383913 ,48,3283768908463 ,52,1510853980146
7.2999906 ,Left ,70,996840355068 ,48,3152363085695 ,52,1360522789869
7.2999958 ,Left ,70,996840355068 ,48,3152363085695 ,52,1360522789869
7.3000005 ,Left ,70,996840355068 ,48,3152363085695 ,52,1360522789869
7.3211973 ,Left ,70,9568423134251 ,48,3004779075919 ,52,1320847119931
7.321203 ,Left ,70,9568423134251 ,48,3004779075919 ,52,1320847119931
7.3212077 ,Left ,70,9568423134251 ,48,3004779075919 ,52,1320847119931
7.3513009 ,Left ,70,8825777546312 ,48,2965477954416 ,52,1316220794495
7.3513073 ,Left ,70,8825777546312 ,48,2965477954416 ,52,1316220794495
7.3513119 ,Left ,70,8825777546312 ,48,2965477954416 ,52,1316220794495
7.3614533 ,Left ,70,8526719520962 ,48,28298349067 ,52,1311680639787
7.3614586 ,Left ,70,8526719520962 ,48,28298349067 ,52,1311680639787
7.3614632 ,Left ,70,8526719520962 ,48,28298349067 ,52,1311680639787
7.3809397 ,Left ,70,8572132006138 ,48,2726254492791 ,52,1502970424961
7.3809439 ,Left ,70,8572132006138 ,48,2726254492791 ,52,1502970424961
7.3809474 ,Left ,70,8572132006138 ,48,2726254492791 ,52,1502970424961
7.4034948 ,Left ,70,8347030020196 ,48,2499529153911 ,52,1800208692964
7.4034984 ,Left ,70,8347030020196 ,48,2499529153911 ,52,1800208692964
7.4035013 ,Left ,70,8347030020196 ,48,2499529153911 ,52,1800208692964
7.4199167 ,Left ,70,8344650527146 ,48,2570209193805 ,52,2024793085088
7.4199201 ,Left ,70,8344650527146 ,48,2570209193805 ,52,2024793085088
7.419923 ,Left ,70,8344650527146 ,48,2570209193805 ,52,2024793085088
7.4407449 ,Left ,70,8502353575632 ,48,2875775800147 ,52,1988212347476
7.4407481 ,Left ,70,8502353575632 ,48,2875775800147 ,52,1988212347476
7.440751 ,Left ,70,8502353575632 ,48,2875775800147 ,52,1988212347476
7.4629811 ,Left ,70,870642907294 ,48,315219613965 ,52,1854286045348
7.4629829 ,Left ,70,870642907294 ,48,315219613965 ,52,1854286045348
7.4629844 ,Left ,70,870642907294 ,48,315219613965 ,52,1854286045348
7.4801385 ,Left ,70,8982085647407 ,48,3217172521334 ,52,1732722491923
7.480146 ,Left ,70,8982085647407 ,48,3217172521334 ,52,1732722491923
7.4801529 ,Left ,70,8982085647407 ,48,3217172521334 ,52,1732722491923
7.5013568 ,Left ,70,9226205683754 ,48,3150858185676 ,52,1656359570587
7.5013646 ,Left ,70,9226205683754 ,48,3150858185676 ,52,1656359570587
7.5013713 ,Left ,70,9226205683754 ,48,3150858185676 ,52,1656359570587
7.5237781 ,Left ,70,954521964178 ,48,3040341675167 ,52,1596043453783
7.523786 ,Left ,70,954521964178 ,48,3040341675167 ,52,1596043453783
7.5237936 ,Left ,70,954521964178 ,48,3040341675167 ,52,1596043453783
7.5401293 ,Left ,70,9889072925523 ,48,2955564852959 ,52,1530076957821
7.5401375 ,Left ,70,9889072925523 ,48,2955564852959 ,52,1530076957821
7.5401461 ,Left ,70,9889072925523 ,48,2955564852959 ,52,1530076957821
7.5611299 ,Left ,71,0157789334443 ,48,2848561856142 ,52,1471136493969
7.5611342 ,Left ,71,0157789334443 ,48,2848561856142 ,52,1471136493969
7.5611378 ,Left ,71,0157789334443 ,48,2848561856142 ,52,1471136493969
7.5832208 ,Left ,71,0451641926536 ,48,2746596623049 ,52,1465408724275
7.5832227 ,Left ,71,0451641926536 ,48,2746596623049 ,52,1465408724275
7.5832242 ,Left ,71,0451641926536 ,48,2746596623049 ,52,1465408724275
7.5997923 ,Left ,71,0673767733712 ,48,2604789821485 ,52,1554704569531
7.5997942 ,Left ,71,0673767733712 ,48,2604789821485 ,52,1554704569531
7.5997957 ,Left ,71,0673767733712 ,48,2604789821485 ,52,1554704569531
7.6208553 ,Left ,71,0789281791913 ,48,2384324719682 ,52,1629296477761
7.6208582 ,Left ,71,0789281791913 ,48,2384324719682 ,52,1629296477761
7.6208606 ,Left ,71,0789281791913 ,48,2384324719682 ,52,1629296477761
7.6435419 ,Left ,71,0910148212369 ,48,2157169528341 ,52,1652055742499
7.6435461 ,Left ,71,0910148212369 ,48,2157169528341 ,52,1652055742499
7.6435497 ,Left ,71,0910148212369 ,48,2157169528341 ,52,1652055742499
7.6599255 ,Left ,71,09790337791 ,48,1899485255504 ,52,162512641801
7.6599297 ,Left ,71,09790337791 ,48,1899485255504 ,52,162512641801
7.6599333 ,Left ,71,09790337791 ,48,1899485255504 ,52,162512641801
7.6809463 ,Left ,71,1044751142503 ,48,1635345365317 ,52,1541287053532
7.6809512 ,Left ,71,1044751142503 ,48,1635345365317 ,52,1541287053532
7.6809555 ,Left ,71,1044751142503 ,48,1635345365317 ,52,1541287053532
7.7036246 ,Left ,71,1138223084827 ,48,1384806397079 ,52,1469173789329
7.7036297 ,Left ,71,1138223084827 ,48,1384806397079 ,52,1469173789329
7.703634 ,Left ,71,1138223084827 ,48,1384806397079 ,52,1469173789329
7.721351 ,Left ,71,1211171414787 ,48,1142308018806 ,52,145561112732
7.721359 ,Left ,71,1211171414787 ,48,1142308018806 ,52,145561112732
7.7213634 ,Left ,71,1211171414787 ,48,1142308018806 ,52,145561112732
7.741022 ,Left ,71,120641006803 ,48,097172672624 ,52,1421003175862
7.7410271 ,Left ,71,120641006803 ,48,097172672624 ,52,1421003175862
7.7410314 ,Left ,71,120641006803 ,48,097172672624 ,52,1421003175862
7.7636047 ,Left ,71,1228950877562 ,48,0823519719424 ,52,1355009242048
7.7636098 ,Left ,71,1228950877562 ,48,0823519719424 ,52,1355009242048
7.7636141 ,Left ,71,1228950877562 ,48,0823519719424 ,52,1355009242048
7.7813627 ,Left ,71,1200571574371 ,48,0673107506745 ,52,1361766175083
7.7813677 ,Left ,71,1200571574371 ,48,0673107506745 ,52,1361766175083
7.781372 ,Left ,71,1200571574371 ,48,0673107506745 ,52,1361766175083
7.801199 ,Left ,71,1220276835346 ,48,0419618627492 ,52,1462367713585
7.8012042 ,Left ,71,1220276835346 ,48,0419618627492 ,52,1462367713585
7.8012086 ,Left ,71,1220276835346 ,48,0419618627492 ,52,1462367713585
7.8234815 ,Left ,71,131590332944 ,48,0257622047675 ,52,1433849621908
7.8234868 ,Left ,71,131590332944 ,48,0257622047675 ,52,1433849621908
7.8234912 ,Left ,71,131590332944 ,48,0257622047675 ,52,1433849621908
7.8413475 ,Left ,71,1342109911985 ,48,0226812737836 ,52,1185552549968
7.8413525 ,Left ,71,1342109911985 ,48,0226812737836 ,52,1185552549968
7.8413568 ,Left ,71,1342109911985 ,48,0226812737836 ,52,1185552549968
7.8611727 ,Left ,71,1219647097706 ,48,0080908296056 ,52,0949919292663
7.8611781 ,Left ,71,1219647097706 ,48,0080908296056 ,52,0949919292663
7.8611825 ,Left ,71,1219647097706 ,48,0080908296056 ,52,0949919292663
7.8837152 ,Left ,71,0991924805213 ,47,9887795162156 ,52,0850277271008
7.8837205 ,Left ,71,0991924805213 ,47,9887795162156 ,52,0850277271008
7.8837249 ,Left ,71,0991924805213 ,47,9887795162156 ,52,0850277271008
7.9086511 ,Left ,71,0720271920128 ,47,9966901874178 ,52,0915674236097
7.9086529 ,Left ,71,0720271920128 ,47,9966901874178 ,52,0915674236097
7.9086545 ,Left ,71,0720271920128 ,47,9966901874178 ,52,0915674236097
7.9206456 ,Left ,71,0106777089582 ,48,0369831588805 ,52,0962491069239
7.9206475 ,Left ,71,0106777089582 ,48,0369831588805 ,52,0962491069239
7.920649 ,Left ,71,0106777089582 ,48,0369831588805 ,52,0962491069239
7.9430298 ,Left ,70,9620426983281 ,48,0945625746175 ,52,1114976886873
7.9430315 ,Left ,70,9620426983281 ,48,0945625746175 ,52,1114976886873
7.943033 ,Left ,70,9620426983281 ,48,0945625746175 ,52,1114976886873
7.9615549 ,Left ,70,9207790095849 ,48,142279748742 ,52,1287757907687
7.9615759 ,Left ,70,9207790095849 ,48,142279748742 ,52,1287757907687
7.9615865 ,Left ,70,9207790095849 ,48,142279748742 ,52,1287757907687
7.9815109 ,Left ,70,8872565073352 ,48,1890183031302 ,52,152653861129
7.9815186 ,Left ,70,8872565073352 ,48,1890183031302 ,52,152653861129
7.9815253 ,Left ,70,8872565073352 ,48,1890183031302 ,52,152653861129
8.0038838 ,Left ,70,8417677888056 ,48,2436392927981 ,52,177535091421
8.0038917 ,Left ,70,8417677888056 ,48,2436392927981 ,52,177535091421
8.0038984 ,Left ,70,8417677888056 ,48,2436392927981 ,52,177535091421
8.0212697 ,Left ,70,8225560000893 ,48,2713138237023 ,52,1887932639667
8.0212761 ,Left ,70,8225560000893 ,48,2713138237023 ,52,1887932639667
8.0212797 ,Left ,70,8225560000893 ,48,2713138237023 ,52,1887932639667
8.0407553 ,Left ,70,825257115863 ,48,2747146503138 ,52,1840733881625
8.0407583 ,Left ,70,825257115863 ,48,2747146503138 ,52,1840733881625
8.0407607 ,Left ,70,825257115863 ,48,2747146503138 ,52,1840733881625
8.0632562 ,Left ,70,8372626519489 ,48,2507690455277 ,52,1658665245578
8.0632591 ,Left ,70,8372626519489 ,48,2507690455277 ,52,1658665245578
8.0632616 ,Left ,70,8372626519489 ,48,2507690455277 ,52,1658665245578
8.0813263 ,Left ,70,8583967726413 ,48,2109773727033 ,52,1475515535972
8.0813294 ,Left ,70,8583967726413 ,48,2109773727033 ,52,1475515535972
8.0813318 ,Left ,70,8583967726413 ,48,2109773727033 ,52,1475515535972
8.1008585 ,Left ,70,8798726749303 ,48,1847102443522 ,52,137064300569
8.1008616 ,Left ,70,8798726749303 ,48,1847102443522 ,52,137064300569
8.1008641 ,Left ,70,8798726749303 ,48,1847102443522 ,52,137064300569
8.123229 ,Left ,70,8868943642061 ,48,1714046054113 ,52,1341535349892
8.1232324 ,Left ,70,8868943642061 ,48,1714046054113 ,52,1341535349892
8.1232352 ,Left ,70,8868943642061 ,48,1714046054113 ,52,1341535349892
8.1414967 ,Left ,70,8770190446787 ,48,1700228100116 ,52,1405954278472
8.1415035 ,Left ,70,8770190446787 ,48,1700228100116 ,52,1405954278472
8.1415097 ,Left ,70,8770190446787 ,48,1700228100116 ,52,1405954278472
8.1611474 ,Left ,70,8593282592681 ,48,1596080475746 ,52,1598146670238
8.1611544 ,Left ,70,8593282592681 ,48,1596080475746 ,52,1598146670238
8.1611605 ,Left ,70,8593282592681 ,48,1596080475746 ,52,1598146670238
8.183653 ,Left ,70,861058651087 ,48,1320092531569 ,52,1954664389491
8.18366 ,Left ,70,861058651087 ,48,1320092531569 ,52,1954664389491
8.183666 ,Left ,70,861058651087 ,48,1320092531569 ,52,1954664389491
8.201439 ,Left ,70,8680151368493 ,48,1137900332357 ,52,2309363637897
8.2014458 ,Left ,70,8680151368493 ,48,1137900332357 ,52,2309363637897
8.2014519 ,Left ,70,8680151368493 ,48,1137900332357 ,52,2309363637897
8.2211614 ,Left ,70,8408287428872 ,48,1249870895322 ,52,2617689637363
8.2211667 ,Left ,70,8408287428872 ,48,1249870895322 ,52,2617689637363
8.2211711 ,Left ,70,8408287428872 ,48,1249870895322 ,52,2617689637363
8.243666 ,Left ,70,7699234626215 ,48,1515252760648 ,52,2921738075335
8.2436711 ,Left ,70,7699234626215 ,48,1515252760648 ,52,2921738075335
8.2436754 ,Left ,70,7699234626215 ,48,1515252760648 ,52,2921738075335
8.2613574 ,Left ,70,7063722400236 ,48,177281975363 ,52,3191840951974
8.2613623 ,Left ,70,7063722400236 ,48,177281975363 ,52,3191840951974
8.2613666 ,Left ,70,7063722400236 ,48,177281975363 ,52,3191840951974
8.2811798 ,Left ,70,6678329825329 ,48,1912235431897 ,52,3423378214792
8.2811851 ,Left ,70,6678329825329 ,48,1912235431897 ,52,3423378214792
8.2811895 ,Left ,70,6678329825329 ,48,1912235431897 ,52,3423378214792
8.303687 ,Left ,70,648286420429 ,48,2018530112216 ,52,3601035930477
8.3036922 ,Left ,70,648286420429 ,48,2018530112216 ,52,3601035930477
8.3036965 ,Left ,70,648286420429 ,48,2018530112216 ,52,3601035930477
8.3213814 ,Left ,70,6216535015926 ,48,2118675925013 ,52,3799804733
8.3213864 ,Left ,70,6216535015926 ,48,2118675925013 ,52,3799804733
8.3213908 ,Left ,70,6216535015926 ,48,2118675925013 ,52,3799804733
8.3422659 ,Left ,70,5897935393935 ,48,214907185392 ,52,3969401768473
8.3422701 ,Left ,70,5897935393935 ,48,214907185392 ,52,3969401768473
8.3422736 ,Left ,70,5897935393935 ,48,214907185392 ,52,3969401768473
8.3633277 ,Left ,70,5649745095807 ,48,2038499221369 ,52,4058040173932
8.3633315 ,Left ,70,5649745095807 ,48,2038499221369 ,52,4058040173932
8.3633349 ,Left ,70,5649745095807 ,48,2038499221369 ,52,4058040173932
8.3813092 ,Left ,70,5496042026224 ,48,1812140481612 ,52,4059922870024
8.3813134 ,Left ,70,5496042026224 ,48,1812140481612 ,52,4059922870024
8.3813168 ,Left ,70,5496042026224 ,48,1812140481612 ,52,4059922870024
8.4023109 ,Left ,70,5438085959461 ,48,1524414255231 ,52,3966529201765
8.4023149 ,Left ,70,5438085959461 ,48,1524414255231 ,52,3966529201765
8.4023184 ,Left ,70,5438085959461 ,48,1524414255231 ,52,3966529201765
8.4232789 ,Left ,70,5598943933367 ,48,1185432362661 ,52,3809226652042
8.4232828 ,Left ,70,5598943933367 ,48,1185432362661 ,52,3809226652042
8.4232862 ,Left ,70,5598943933367 ,48,1185432362661 ,52,3809226652042
8.441233 ,Left ,70,5835518432284 ,48,090380983717 ,52,3595896579673
8.4412383 ,Left ,70,5835518432284 ,48,090380983717 ,52,3595896579673
8.4412783 ,Left ,70,5835518432284 ,48,090380983717 ,52,3595896579673
8.4622943 ,Left ,70,6121487442598 ,48,0557703433637 ,52,3235017712569
8.4622982 ,Left ,70,6121487442598 ,48,0557703433637 ,52,3235017712569
8.4623016 ,Left ,70,6121487442598 ,48,0557703433637 ,52,3235017712569
8.4833669 ,Left ,70,6659775841962 ,48,0270074858759 ,52,2695415030016
8.4833689 ,Left ,70,6659775841962 ,48,0270074858759 ,52,2695415030016
8.4833704 ,Left ,70,6659775841962 ,48,0270074858759 ,52,2695415030016
8.5012583 ,Left ,70,7273388607343 ,48,0108536156308 ,52,2073610570205
8.5012673 ,Left ,70,7273388607343 ,48,0108536156308 ,52,2073610570205
8.5012691 ,Left ,70,7273388607343 ,48,0108536156308 ,52,2073610570205
8.5221663 ,Left ,70,7897228611644 ,48,0072287687402 ,52,1549079114373
8.5221698 ,Left ,70,7897228611644 ,48,0072287687402 ,52,1549079114373
8.5221725 ,Left ,70,7897228611644 ,48,0072287687402 ,52,1549079114373
8.5435976 ,Left ,70,8394849930274 ,48,0168116203955 ,52,1221661393479
8.5436019 ,Left ,70,8394849930274 ,48,0168116203955 ,52,1221661393479
8.5436055 ,Left ,70,8394849930274 ,48,0168116203955 ,52,1221661393479
8.5687887 ,Left ,70,8815488736614 ,48,02581502281 ,52,1136928301017
8.5687929 ,Left ,70,8815488736614 ,48,02581502281 ,52,1136928301017
8.5687965 ,Left ,70,8815488736614 ,48,02581502281 ,52,1136928301017
8.5823432 ,Left ,70,914087807768 ,48,0368369062389 ,52,1170321837536
8.5823474 ,Left ,70,914087807768 ,48,0368369062389 ,52,1170321837536
8.5823509 ,Left ,70,914087807768 ,48,0368369062389 ,52,1170321837536
8.6034724 ,Left ,70,9265129209269 ,48,0447319211819 ,52,1304317024941
8.6034766 ,Left ,70,9265129209269 ,48,0447319211819 ,52,1304317024941
8.6034802 ,Left ,70,9265129209269 ,48,0447319211819 ,52,1304317024941
8.6215164 ,Left ,70,9363643841625 ,48,0587631514168 ,52,1584218908701
8.6215206 ,Left ,70,9363643841625 ,48,0587631514168 ,52,1584218908701
8.6215242 ,Left ,70,9363643841625 ,48,0587631514168 ,52,1584218908701
8.64401 ,Left ,70,9341144344058 ,48,083181161092 ,52,1970410717978
8.6440143 ,Left ,70,9341144344058 ,48,083181161092 ,52,1970410717978
8.6440179 ,Left ,70,9341144344058 ,48,083181161092 ,52,1970410717978
8.6634497 ,Left ,70,9146273475841 ,48,1118872239223 ,52,2389671222922
8.6634535 ,Left ,70,9146273475841 ,48,1118872239223 ,52,2389671222922
8.6634564 ,Left ,70,9146273475841 ,48,1118872239223 ,52,2389671222922
8.6813701 ,Left ,70,8780251114141 ,48,1293930295269 ,52,2823591112501
8.6813741 ,Left ,70,8780251114141 ,48,1293930295269 ,52,2823591112501
8.681377 ,Left ,70,8780251114141 ,48,1293930295269 ,52,2823591112501
8.7038891 ,Left ,70,8485153916626 ,48,134829836708 ,52,3212472160914
8.7038926 ,Left ,70,8485153916626 ,48,134829836708 ,52,3212472160914
8.7038955 ,Left ,70,8485153916626 ,48,134829836708 ,52,3212472160914
8.7232532 ,Left ,70,8134279288867 ,48,1302653883152 ,52,3546520892468
8.7232567 ,Left ,70,8134279288867 ,48,1302653883152 ,52,3546520892468
8.7232595 ,Left ,70,8134279288867 ,48,1302653883152 ,52,3546520892468
8.7411706 ,Left ,70,7763115525611 ,48,1247561555026 ,52,3900244180141
8.7411739 ,Left ,70,7763115525611 ,48,1247561555026 ,52,3900244180141
8.7411768 ,Left ,70,7763115525611 ,48,1247561555026 ,52,3900244180141
8.763866 ,Left ,70,7316905472861 ,48,1132327113862 ,52,4282006605436
8.76387 ,Left ,70,7316905472861 ,48,1132327113862 ,52,4282006605436
8.7638734 ,Left ,70,7316905472861 ,48,1132327113862 ,52,4282006605436
8.7833037 ,Left ,70,6625858017387 ,48,1158081709126 ,52,4645094665857
8.7833075 ,Left ,70,6625858017387 ,48,1158081709126 ,52,4645094665857
8.7833109 ,Left ,70,6625858017387 ,48,1158081709126 ,52,4645094665857
8.8012226 ,Left ,70,6132279189969 ,48,1107062838848 ,52,5048831840819
8.8012264 ,Left ,70,6132279189969 ,48,1107062838848 ,52,5048831840819
8.8012297 ,Left ,70,6132279189969 ,48,1107062838848 ,52,5048831840819
8.8238242 ,Left ,70,5762530226618 ,48,1101945678214 ,52,5436808826323
8.823828 ,Left ,70,5762530226618 ,48,1101945678214 ,52,5436808826323
8.8238314 ,Left ,70,5762530226618 ,48,1101945678214 ,52,5436808826323
8.8435581 ,Left ,70,5740850150531 ,48,1066233679487 ,52,5780305990704
8.8435623 ,Left ,70,5740850150531 ,48,1066233679487 ,52,5780305990704
8.8435656 ,Left ,70,5740850150531 ,48,1066233679487 ,52,5780305990704
8.8612151 ,Left ,70,58467114831 ,48,1306750582816 ,52,5862558459201
8.8612188 ,Left ,70,58467114831 ,48,1306750582816 ,52,5862558459201
8.8612222 ,Left ,70,58467114831 ,48,1306750582816 ,52,5862558459201
8.8838467 ,Left ,70,5820602548759 ,48,194710895007 ,52,5632542448576
8.8838506 ,Left ,70,5820602548759 ,48,194710895007 ,52,5632542448576
8.883854 ,Left ,70,5820602548759 ,48,194710895007 ,52,5632542448576
8.9040034 ,Left ,70,6249080598173 ,48,2274687993085 ,52,5292191218053
8.9040075 ,Left ,70,6249080598173 ,48,2274687993085 ,52,5292191218053
8.9040109 ,Left ,70,6249080598173 ,48,2274687993085 ,52,5292191218053
8.9204738 ,Left ,70,7232796171648 ,48,2287187785832 ,52,4863979463675
8.9204779 ,Left ,70,7232796171648 ,48,2287187785832 ,52,4863979463675
8.9204813 ,Left ,70,7232796171648 ,48,2287187785832 ,52,4863979463675
8.9429119 ,Left ,70,8165899749527 ,48,219299396201 ,52,4426512881448
8.9429157 ,Left ,70,8165899749527 ,48,219299396201 ,52,4426512881448
8.9429191 ,Left ,70,8165899749527 ,48,219299396201 ,52,4426512881448
8.964142 ,Left ,70,9026294573123 ,48,2227720913229 ,52,3959238310574
8.964146 ,Left ,70,9026294573123 ,48,2227720913229 ,52,3959238310574
8.9641494 ,Left ,70,9026294573123 ,48,2227720913229 ,52,3959238310574
8.9804528 ,Left ,70,9773572066933 ,48,2367782329544 ,52,3475995727105
8.9804566 ,Left ,70,9773572066933 ,48,2367782329544 ,52,3475995727105
8.98046 ,Left ,70,9773572066933 ,48,2367782329544 ,52,3475995727105
9.0029069 ,Left ,71,0345456935396 ,48,246556518884 ,52,3106541386294
9.0029108 ,Left ,71,0345456935396 ,48,246556518884 ,52,3106541386294
9.0029142 ,Left ,71,0345456935396 ,48,246556518884 ,52,3106541386294
9.0241283 ,Left ,71,0969032201807 ,48,2541154767886 ,52,2918959316667
9.0241325 ,Left ,71,0969032201807 ,48,2541154767886 ,52,2918959316667
9.0241359 ,Left ,71,0969032201807 ,48,2541154767886 ,52,2918959316667
9.0404112 ,Left ,71,1615943241456 ,48,2609878787233 ,52,2799159823534
9.0404154 ,Left ,71,1615943241456 ,48,2609878787233 ,52,2799159823534
9.0404188 ,Left ,71,1615943241456 ,48,2609878787233 ,52,2799159823534
9.0630213 ,Left ,71,2085009241956 ,48,2460444695777 ,52,2732890629101
9.0630254 ,Left ,71,2085009241956 ,48,2460444695777 ,52,2732890629101
9.063029 ,Left ,71,2085009241956 ,48,2460444695777 ,52,2732890629101
9.0841925 ,Left ,71,2325304990135 ,48,2162906844595 ,52,2698306250228
9.0841973 ,Left ,71,2325304990135 ,48,2162906844595 ,52,2698306250228
9.0842006 ,Left ,71,2325304990135 ,48,2162906844595 ,52,2698306250228
9.1004378 ,Left ,71,2190107182653 ,48,1864560417248 ,52,2686491913543
9.1004416 ,Left ,71,2190107182653 ,48,1864560417248 ,52,2686491913543
9.1004449 ,Left ,71,2190107182653 ,48,1864560417248 ,52,2686491913543
9.1229285 ,Left ,71,1813063457958 ,48,1635350140256 ,52,2658048345172
9.1229323 ,Left ,71,1813063457958 ,48,1635350140256 ,52,2658048345172
9.1229357 ,Left ,71,1813063457958 ,48,1635350140256 ,52,2658048345172
9.1372185 ,Left ,71,1312792574561 ,48,1487170975628 ,52,2543698296508
9.1372226 ,Left ,71,1312792574561 ,48,1487170975628 ,52,2543698296508
9.137226 ,Left ,71,1312792574561 ,48,1487170975628 ,52,2543698296508
9.1604275 ,Left ,71,0989247947323 ,48,1429200469307 ,52,235060812521
9.1604308 ,Left ,71,0989247947323 ,48,1429200469307 ,52,235060812521
9.1604336 ,Left ,71,0989247947323 ,48,1429200469307 ,52,235060812521
9.18303 ,Left ,71,0815407210296 ,48,1481926319979 ,52,2117886219656
9.1830334 ,Left ,71,0815407210296 ,48,1481926319979 ,52,2117886219656
9.1830361 ,Left ,71,0815407210296 ,48,1481926319979 ,52,2117886219656
9.2041585 ,Left ,71,0649238295459 ,48,1658970369256 ,52,1885533472195
9.2041618 ,Left ,71,0649238295459 ,48,1658970369256 ,52,1885533472195
9.2041647 ,Left ,71,0649238295459 ,48,1658970369256 ,52,1885533472195
9.220546 ,Left ,71,0405870538845 ,48,1874815248417 ,52,170627556331
9.2205494 ,Left ,71,0405870538845 ,48,1874815248417 ,52,170627556331
9.2205522 ,Left ,71,0405870538845 ,48,1874815248417 ,52,170627556331
9.2430681 ,Left ,71,0214768289657 ,48,207293521339 ,52,1638914773408
9.243072 ,Left ,71,0214768289657 ,48,207293521339 ,52,1638914773408
9.2430752 ,Left ,71,0214768289657 ,48,207293521339 ,52,1638914773408
9.2641244 ,Left ,71,0020214214488 ,48,2216325536259 ,52,157722992646
9.2641282 ,Left ,71,0020214214488 ,48,2216325536259 ,52,157722992646
9.2641314 ,Left ,71,0020214214488 ,48,2216325536259 ,52,157722992646
9.2804113 ,Left ,70,9821856693971 ,48,2337592720059 ,52,1446794736059
9.2804152 ,Left ,70,9821856693971 ,48,2337592720059 ,52,1446794736059
9.2804184 ,Left ,70,9821856693971 ,48,2337592720059 ,52,1446794736059
9.3029325 ,Left ,70,9633362946567 ,48,2561084341709 ,52,1251000120258
9.3029344 ,Left ,70,9633362946567 ,48,2561084341709 ,52,1251000120258
9.3029359 ,Left ,70,9633362946567 ,48,2561084341709 ,52,1251000120258
9.3239949 ,Left ,70,9342713312557 ,48,2823330930408 ,52,098394079151
9.323997 ,Left ,70,9342713312557 ,48,2823330930408 ,52,098394079151
9.3239987 ,Left ,70,9342713312557 ,48,2823330930408 ,52,098394079151
9.340283 ,Left ,70,9078453721864 ,48,306113025624 ,52,0649693077068
9.3402851 ,Left ,70,9078453721864 ,48,306113025624 ,52,0649693077068
9.340287 ,Left ,70,9078453721864 ,48,306113025624 ,52,0649693077068
9.3628942 ,Left ,70,8936439431387 ,48,3268163122148 ,52,0241751632214
9.3628976 ,Left ,70,8936439431387 ,48,3268163122148 ,52,0241751632214
9.3629007 ,Left ,70,8936439431387 ,48,3268163122148 ,52,0241751632214
9.3841503 ,Left ,70,8817693205885 ,48,339129278742 ,51,9843684692817
9.3841553 ,Left ,70,8817693205885 ,48,339129278742 ,51,9843684692817
9.3841597 ,Left ,70,8817693205885 ,48,339129278742 ,51,9843684692817
9.4006599 ,Left ,70,8721423232048 ,48,3392894022433 ,51,9376973543953
9.4007223 ,Left ,70,8721423232048 ,48,3392894022433 ,51,9376973543953
9.4007274 ,Left ,70,8721423232048 ,48,3392894022433 ,51,9376973543953
9.4231373 ,Left ,70,8573751893642 ,48,3292781987376 ,51,8856895534394
9.4231425 ,Left ,70,8573751893642 ,48,3292781987376 ,51,8856895534394
9.4231469 ,Left ,70,8573751893642 ,48,3292781987376 ,51,8856895534394
9.4443916 ,Left ,70,8577110879108 ,48,3175100963226 ,51,837329991244
9.4444044 ,Left ,70,8577110879108 ,48,3175100963226 ,51,837329991244
9.4444095 ,Left ,70,8577110879108 ,48,3175100963226 ,51,837329991244
9.4604104 ,Left ,70,8650049010622 ,48,2969983670851 ,51,7992830784569
9.4604143 ,Left ,70,8650049010622 ,48,2969983670851 ,51,7992830784569
9.4604177 ,Left ,70,8650049010622 ,48,2969983670851 ,51,7992830784569
9.4829205 ,Left ,70,8891355861139 ,48,2651798255159 ,51,7768804518357
9.4829243 ,Left ,70,8891355861139 ,48,2651798255159 ,51,7768804518357
9.4829277 ,Left ,70,8891355861139 ,48,2651798255159 ,51,7768804518357
9.5041238 ,Left ,70,9358624224479 ,48,228051432289 ,51,7650930132125
9.5041278 ,Left ,70,9358624224479 ,48,228051432289 ,51,7650930132125
9.5041312 ,Left ,70,9358624224479 ,48,228051432289 ,51,7650930132125
9.5204766 ,Left ,71,0022780573827 ,48,194481033226 ,51,7555324011627
9.5204804 ,Left ,71,0022780573827 ,48,194481033226 ,51,7555324011627
9.5204838 ,Left ,71,0022780573827 ,48,194481033226 ,51,7555324011627
9.5429188 ,Left ,71,0737005094083 ,48,1668046149581 ,51,7502602074176
9.5429226 ,Left ,71,0737005094083 ,48,1668046149581 ,51,7502602074176
9.542926 ,Left ,71,0737005094083 ,48,1668046149581 ,51,7502602074176
9.5641262 ,Left ,71,1404724776644 ,48,1330340692069 ,51,750266029705
9.5641303 ,Left ,71,1404724776644 ,48,1330340692069 ,51,750266029705
9.5641337 ,Left ,71,1404724776644 ,48,1330340692069 ,51,750266029705
9.580445 ,Left ,71,194684315862 ,48,1045367798842 ,51,7543334431765
9.5804492 ,Left ,71,194684315862 ,48,1045367798842 ,51,7543334431765
9.5804527 ,Left ,71,194684315862 ,48,1045367798842 ,51,7543334431765
9.603127 ,Left ,71,2417436799246 ,48,0800443809944 ,51,754203922432
9.6031311 ,Left ,71,2417436799246 ,48,0800443809944 ,51,754203922432
9.6031344 ,Left ,71,2417436799246 ,48,0800443809944 ,51,754203922432
9.6255563 ,Left ,71,2840643395262 ,48,0630917354086 ,51,745068199104
9.6255603 ,Left ,71,2840643395262 ,48,0630917354086 ,51,745068199104
9.6255637 ,Left ,71,2840643395262 ,48,0630917354086 ,51,745068199104
9.6404045 ,Left ,71,3069730895537 ,48,0651452924831 ,51,7239180335359
9.6404085 ,Left ,71,3069730895537 ,48,0651452924831 ,51,7239180335359
9.6404119 ,Left ,71,3069730895537 ,48,0651452924831 ,51,7239180335359
9.6629 ,Left ,71,3198827433094 ,48,0701954239303 ,51,7002496181895
9.6629049 ,Left ,71,3198827433094 ,48,0701954239303 ,51,7002496181895
9.6629096 ,Left ,71,3198827433094 ,48,0701954239303 ,51,7002496181895
9.6854846 ,Left ,71,3230359000809 ,48,0733310063121 ,51,6804137000894
9.6854885 ,Left ,71,3230359000809 ,48,0733310063121 ,51,6804137000894
9.6854919 ,Left ,71,3230359000809 ,48,0733310063121 ,51,6804137000894
9.7004071 ,Left ,71,3131649250084 ,48,0707862556359 ,51,6660226888862
9.700411 ,Left ,71,3131649250084 ,48,0707862556359 ,51,6660226888862
9.7004144 ,Left ,71,3131649250084 ,48,0707862556359 ,51,6660226888862
9.7229727 ,Left ,71,2965672303872 ,48,0928687422787 ,51,6340477882822
9.7229766 ,Left ,71,2965672303872 ,48,0928687422787 ,51,6340477882822
9.72298 ,Left ,71,2965672303872 ,48,0928687422787 ,51,6340477882822
9.7454253 ,Left ,71,2654737686511 ,48,1730920815868 ,51,58340331671
9.7454359 ,Left ,71,2654737686511 ,48,1730920815868 ,51,58340331671
9.7454393 ,Left ,71,2654737686511 ,48,1730920815868 ,51,58340331671
9.7600052 ,Left ,71,1774049463391 ,48,2981755953186 ,51,5290609925068
9.7600093 ,Left ,71,1774049463391 ,48,2981755953186 ,51,5290609925068
9.7600127 ,Left ,71,1774049463391 ,48,2981755953186 ,51,5290609925068
9.7830365 ,Left ,71,0779927602235 ,48,4572039499182 ,51,4789707284802
9.7830398 ,Left ,71,0779927602235 ,48,4572039499182 ,51,4789707284802
9.7830426 ,Left ,71,0779927602235 ,48,4572039499182 ,51,4789707284802
9.8053935 ,Left ,70,9692181805196 ,48,6317975846118 ,51,4081416464024
9.8053966 ,Left ,70,9692181805196 ,48,6317975846118 ,51,4081416464024
9.8053994 ,Left ,70,9692181805196 ,48,6317975846118 ,51,4081416464024
9.8197152 ,Left ,70,8460785311946 ,48,768231023148 ,51,309999273022
9.8197185 ,Left ,70,8460785311946 ,48,768231023148 ,51,309999273022
9.8197213 ,Left ,70,8460785311946 ,48,768231023148 ,51,309999273022
9.850347 ,Left ,70,7034680857543 ,48,869719781341 ,51,1899746628915
9.8503503 ,Left ,70,7034680857543 ,48,869719781341 ,51,1899746628915
9.850353 ,Left ,70,7034680857543 ,48,869719781341 ,51,1899746628915
9.8655585 ,Left ,70,5457305201864 ,48,922257301123 ,51,0916353932413
9.8655618 ,Left ,70,5457305201864 ,48,922257301123 ,51,0916353932413
9.8655646 ,Left ,70,5457305201864 ,48,922257301123 ,51,0916353932413
9.8880606 ,Left ,70,3931310733005 ,48,9437356266254 ,51,0360440352152
9.888064 ,Left ,70,3931310733005 ,48,9437356266254 ,51,0360440352152
9.8880667 ,Left ,70,3931310733005 ,48,9437356266254 ,51,0360440352152
9.9030639 ,Left ,70,2502380166869 ,48,9182298454191 ,51,0064110527835
9.9030674 ,Left ,70,2502380166869 ,48,9182298454191 ,51,0064110527835
9.9030702 ,Left ,70,2502380166869 ,48,9182298454191 ,51,0064110527835
9.9253662 ,Left ,70,1553428297895 ,48,7862404316022 ,51,0096456958032
9.9253693 ,Left ,70,1553428297895 ,48,7862404316022 ,51,0096456958032
9.9253721 ,Left ,70,1553428297895 ,48,7862404316022 ,51,0096456958032
9.9460789 ,Left ,70,0814347584551 ,48,5708613396013 ,51,0633308388168
9.9460807 ,Left ,70,0814347584551 ,48,5708613396013 ,51,0633308388168
9.9460836 ,Left ,70,0814347584551 ,48,5708613396013 ,51,0633308388168
9.9629734 ,Left ,70,0120280452164 ,48,3297962784291 ,51,149846778004
9.9629754 ,Left ,70,0120280452164 ,48,3297962784291 ,51,149846778004
9.9629769 ,Left ,70,0120280452164 ,48,3297962784291 ,51,149846778004
9.9854615 ,Left ,70,0469789716031 ,48,1412206175107 ,51,2168007763118
9.9854639 ,Left ,70,0469789716031 ,48,1412206175107 ,51,2168007763118
9.9854658 ,Left ,70,0469789716031 ,48,1412206175107 ,51,2168007763118
10.0064469 ,Left ,70,1500950130238 ,48,0803566170602 ,51,2488478494678
10.0064505 ,Left ,70,1500950130238 ,48,0803566170602 ,51,2488478494678
10.0064535 ,Left ,70,1500950130238 ,48,0803566170602 ,51,2488478494678
10.0230456 ,Left ,70,3280290843696 ,48,0367809860672 ,51,2353266693143
10.0230498 ,Left ,70,3280290843696 ,48,0367809860672 ,51,2353266693143
10.0230533 ,Left ,70,3280290843696 ,48,0367809860672 ,51,2353266693143
10.0455104 ,Left ,70,5389425247865 ,47,9710804730222 ,51,2082422178212
10.0455145 ,Left ,70,5389425247865 ,47,9710804730222 ,51,2082422178212
10.0455182 ,Left ,70,5389425247865 ,47,9710804730222 ,51,2082422178212
10.0667626 ,Left ,70,7151822696611 ,47,88052375188 ,51,1724167373961
10.0667669 ,Left ,70,7151822696611 ,47,88052375188 ,51,1724167373961
10.0667706 ,Left ,70,7151822696611 ,47,88052375188 ,51,1724167373961
10.0829337 ,Left ,70,8085394510338 ,47,7845637555857 ,51,1495104832306
10.0829378 ,Left ,70,8085394510338 ,47,7845637555857 ,51,1495104832306
10.0829413 ,Left ,70,8085394510338 ,47,7845637555857 ,51,1495104832306
10.1053962 ,Left ,70,8341609916422 ,47,7004563759259 ,51,1602447639272
10.1053982 ,Left ,70,8341609916422 ,47,7004563759259 ,51,1602447639272
10.1053997 ,Left ,70,8341609916422 ,47,7004563759259 ,51,1602447639272
10.1265326 ,Left ,70,8092897809432 ,47,6397777852329 ,51,1911894754774
10.1265348 ,Left ,70,8092897809432 ,47,6397777852329 ,51,1911894754774
10.1265366 ,Left ,70,8092897809432 ,47,6397777852329 ,51,1911894754774
10.1430298 ,Left ,70,8175994898417 ,47,614969799683 ,51,1842017402756
10.1430327 ,Left ,70,8175994898417 ,47,614969799683 ,51,1842017402756
10.1430351 ,Left ,70,8175994898417 ,47,614969799683 ,51,1842017402756
10.1654906 ,Left ,70,8518086879246 ,47,6147594532999 ,51,1898266298121
10.1654943 ,Left ,70,8518086879246 ,47,6147594532999 ,51,1898266298121
10.1654973 ,Left ,70,8518086879246 ,47,6147594532999 ,51,1898266298121
10.1866611 ,Left ,70,8599501479582 ,47,6259908122445 ,51,2252670087123
10.1866648 ,Left ,70,8599501479582 ,47,6259908122445 ,51,2252670087123
10.1866678 ,Left ,70,8599501479582 ,47,6259908122445 ,51,2252670087123
10.2028995 ,Left ,70,8517400343891 ,47,6868244621989 ,51,2747261032367
10.2029029 ,Left ,70,8517400343891 ,47,6868244621989 ,51,2747261032367
10.2029059 ,Left ,70,8517400343891 ,47,6868244621989 ,51,2747261032367
10.2315651 ,Left ,70,8314768275399 ,47,8009336175948 ,51,3138266827624
10.2315702 ,Left ,70,8314768275399 ,47,8009336175948 ,51,3138266827624
10.2315746 ,Left ,70,8314768275399 ,47,8009336175948 ,51,3138266827624
10.246765 ,Left ,70,8119503083045 ,47,9199841002091 ,51,3365690282279
10.2467716 ,Left ,70,8119503083045 ,47,9199841002091 ,51,3365690282279
10.2467771 ,Left ,70,8119503083045 ,47,9199841002091 ,51,3365690282279
10.2631619 ,Left ,70,8112198457898 ,48,0317784218043 ,51,3410644695675
10.2631667 ,Left ,70,8112198457898 ,48,0317784218043 ,51,3410644695675
10.2631708 ,Left ,70,8112198457898 ,48,0317784218043 ,51,3410644695675
10.2854267 ,Left ,70,8296260135681 ,48,1329808166945 ,51,3762641019337
10.2854299 ,Left ,70,8296260135681 ,48,1329808166945 ,51,3762641019337
10.2854325 ,Left ,70,8296260135681 ,48,1329808166945 ,51,3762641019337
10.306487 ,Left ,70,8775298366884 ,48,2212701667876 ,51,4280609042274
10.3064902 ,Left ,70,8775298366884 ,48,2212701667876 ,51,4280609042274
10.3064928 ,Left ,70,8775298366884 ,48,2212701667876 ,51,4280609042274
10.322686 ,Left ,70,9606452126878 ,48,2983525782706 ,51,4809509137357
10.3226878 ,Left ,70,9606452126878 ,48,2983525782706 ,51,4809509137357
10.3226893 ,Left ,70,9606452126878 ,48,2983525782706 ,51,4809509137357
10.3454382 ,Left ,71,0268267448051 ,48,355149022342 ,51,523784866345
10.3454406 ,Left ,71,0268267448051 ,48,355149022342 ,51,523784866345
10.3454425 ,Left ,71,0268267448051 ,48,355149022342 ,51,523784866345
10.3663379 ,Left ,71,0786934607516 ,48,3977873480346 ,51,5612190311777
10.3663407 ,Left ,71,0786934607516 ,48,3977873480346 ,51,5612190311777
10.3663431 ,Left ,71,0786934607516 ,48,3977873480346 ,51,5612190311777
10.3829996 ,Left ,71,1060894261029 ,48,4314626504703 ,51,5971681964825
10.3830024 ,Left ,71,1060894261029 ,48,4314626504703 ,51,5971681964825
10.3830048 ,Left ,71,1060894261029 ,48,4314626504703 ,51,5971681964825
10.4058321 ,Left ,71,0934938799676 ,48,4469949681759 ,51,629151015265
10.405835 ,Left ,71,0934938799676 ,48,4469949681759 ,51,629151015265
10.4058373 ,Left ,71,0934938799676 ,48,4469949681759 ,51,629151015265
10.4264916 ,Left ,71,0510983713138 ,48,450965951638 ,51,6572702015418
10.4264939 ,Left ,71,0510983713138 ,48,450965951638 ,51,6572702015418
10.4264953 ,Left ,71,0510983713138 ,48,450965951638 ,51,6572702015418
10.4429639 ,Left ,71,003843201402 ,48,4339203822867 ,51,6815819277726
10.4429661 ,Left ,71,003843201402 ,48,4339203822867 ,51,6815819277726
10.4429678 ,Left ,71,003843201402 ,48,4339203822867 ,51,6815819277726
10.4656304 ,Left ,70,9685661319435 ,48,4016072388976 ,51,6988138764421
10.4656353 ,Left ,70,9685661319435 ,48,4016072388976 ,51,6988138764421
10.4656842 ,Left ,70,9685661319435 ,48,4016072388976 ,51,6988138764421
10.4867841 ,Left ,70,9431801553084 ,48,3599086384762 ,51,711273490453
10.4867884 ,Left ,70,9431801553084 ,48,3599086384762 ,51,711273490453
10.486792 ,Left ,70,9431801553084 ,48,3599086384762 ,51,711273490453
10.5029581 ,Left ,70,9352353248328 ,48,3174474924959 ,51,7131675265308
10.5029622 ,Left ,70,9352353248328 ,48,3174474924959 ,51,7131675265308
10.5029659 ,Left ,70,9352353248328 ,48,3174474924959 ,51,7131675265308
10.5255456 ,Left ,70,9447638194987 ,48,2760931607367 ,51,708352391001
10.5255499 ,Left ,70,9447638194987 ,48,2760931607367 ,51,708352391001
10.5255534 ,Left ,70,9447638194987 ,48,2760931607367 ,51,708352391001
10.5479442 ,Left ,70,9615941237796 ,48,2391417665782 ,51,6967669824416
10.5479483 ,Left ,70,9615941237796 ,48,2391417665782 ,51,6967669824416
10.5479518 ,Left ,70,9615941237796 ,48,2391417665782 ,51,6967669824416
10.563002 ,Left ,70,9887304929557 ,48,2043862298335 ,51,6843790486442
10.563006 ,Left ,70,9887304929557 ,48,2043862298335 ,51,6843790486442
10.5630096 ,Left ,70,9887304929557 ,48,2043862298335 ,51,6843790486442
10.5854498 ,Left ,71,023197020225 ,48,1744092703062 ,51,6679242486569
10.5854532 ,Left ,71,023197020225 ,48,1744092703062 ,51,6679242486569
10.5854561 ,Left ,71,023197020225 ,48,1744092703062 ,51,6679242486569
10.6078172 ,Left ,71,0628691524661 ,48,1484619685385 ,51,6520273608685
10.6078205 ,Left ,71,0628691524661 ,48,1484619685385 ,51,6520273608685
10.6078234 ,Left ,71,0628691524661 ,48,1484619685385 ,51,6520273608685
10.6229579 ,Left ,71,1001706886018 ,48,1272671537194 ,51,6398259524096
10.6229612 ,Left ,71,1001706886018 ,48,1272671537194 ,51,6398259524096
10.622964 ,Left ,71,1001706886018 ,48,1272671537194 ,51,6398259524096
10.6453805 ,Left ,71,1299977498493 ,48,1064841197868 ,51,6279672341852
10.6453837 ,Left ,71,1299977498493 ,48,1064841197868 ,51,6279672341852
10.6453866 ,Left ,71,1299977498493 ,48,1064841197868 ,51,6279672341852
10.6679103 ,Left ,71,1499451535594 ,48,0871098842846 ,51,6123412287054
10.6679137 ,Left ,71,1499451535594 ,48,0871098842846 ,51,6123412287054
10.6679167 ,Left ,71,1499451535594 ,48,0871098842846 ,51,6123412287054
10.6890498 ,Left ,71,1602338653433 ,48,0721709845803 ,51,5955074368671
10.6890533 ,Left ,71,1602338653433 ,48,0721709845803 ,51,5955074368671
10.6890562 ,Left ,71,1602338653433 ,48,0721709845803 ,51,5955074368671
10.7056061 ,Left ,71,1584116183938 ,48,0605594482435 ,51,5792198614726
10.7056122 ,Left ,71,1584116183938 ,48,0605594482435 ,51,5792198614726
10.7056163 ,Left ,71,1584116183938 ,48,0605594482435 ,51,5792198614726
10.7280816 ,Left ,71,1364423123045 ,48,0429463968978 ,51,5634821378155
10.7280862 ,Left ,71,1364423123045 ,48,0429463968978 ,51,5634821378155
10.7280902 ,Left ,71,1364423123045 ,48,0429463968978 ,51,5634821378155
10.7422118 ,Left ,71,1093099624609 ,48,0274314594387 ,51,5519355583337
10.7422155 ,Left ,71,1093099624609 ,48,0274314594387 ,51,5519355583337
10.7422187 ,Left ,71,1093099624609 ,48,0274314594387 ,51,5519355583337
10.7652329 ,Left ,71,0869921035306 ,48,0095900103326 ,51,5459074088235
10.7652346 ,Left ,71,0869921035306 ,48,0095900103326 ,51,5459074088235
10.7652361 ,Left ,71,0869921035306 ,48,0095900103326 ,51,5459074088235
10.7881386 ,Left ,71,0696676705842 ,47,996416235177 ,51,5460016483484
10.7881406 ,Left ,71,0696676705842 ,47,996416235177 ,51,5460016483484
10.788142 ,Left ,71,0696676705842 ,47,996416235177 ,51,5460016483484
10.8021721 ,Left ,71,0670732628159 ,47,9792497582396 ,51,552549552078
10.8021739 ,Left ,71,0670732628159 ,47,9792497582396 ,51,552549552078
10.8021754 ,Left ,71,0670732628159 ,47,9792497582396 ,51,552549552078
10.8254786 ,Left ,71,0692577209706 ,47,96098420272 ,51,5630283661901
10.8254812 ,Left ,71,0692577209706 ,47,96098420272 ,51,5630283661901
10.8254833 ,Left ,71,0692577209706 ,47,96098420272 ,51,5630283661901
10.8481108 ,Left ,71,0815871960493 ,47,9467883222241 ,51,576616167565
10.8481145 ,Left ,71,0815871960493 ,47,9467883222241 ,51,576616167565
10.8481175 ,Left ,71,0815871960493 ,47,9467883222241 ,51,576616167565
10.8623388 ,Left ,71,0957166102894 ,47,9340801287629 ,51,5908884167144
10.8623422 ,Left ,71,0957166102894 ,47,9340801287629 ,51,5908884167144
10.8623452 ,Left ,71,0957166102894 ,47,9340801287629 ,51,5908884167144
10.8854209 ,Left ,71,1226906599502 ,47,9267917580312 ,51,6094147116569
10.8854245 ,Left ,71,1226906599502 ,47,9267917580312 ,51,6094147116569
10.8854275 ,Left ,71,1226906599502 ,47,9267917580312 ,51,6094147116569
10.9079674 ,Left ,71,149366471079 ,47,9210401601584 ,51,6289733662502
10.9079693 ,Left ,71,149366471079 ,47,9210401601584 ,51,6289733662502
10.9079708 ,Left ,71,149366471079 ,47,9210401601584 ,51,6289733662502
10.922199 ,Left ,71,1786938129664 ,47,9208979573789 ,51,6505206504495
10.922201 ,Left ,71,1786938129664 ,47,9208979573789 ,51,6505206504495
10.9222025 ,Left ,71,1786938129664 ,47,9208979573789 ,51,6505206504495
10.9454225 ,Left ,71,2057035708146 ,47,9177717264099 ,51,669873367068
10.9454247 ,Left ,71,2057035708146 ,47,9177717264099 ,51,669873367068
10.9454264 ,Left ,71,2057035708146 ,47,9177717264099 ,51,669873367068
10.9679059 ,Left ,71,2251970071605 ,47,9198701217274 ,51,6834331674086
10.9679089 ,Left ,71,2251970071605 ,47,9198701217274 ,51,6834331674086
10.9679115 ,Left ,71,2251970071605 ,47,9198701217274 ,51,6834331674086
10.9823175 ,Left ,71,2350015933877 ,47,9260895065106 ,51,6931137773937
10.9823211 ,Left ,71,2350015933877 ,47,9260895065106 ,51,6931137773937
10.9823241 ,Left ,71,2350015933877 ,47,9260895065106 ,51,6931137773937
11.0054604 ,Left ,71,2375096995191 ,47,937849173741 ,51,699916599034
11.0054642 ,Left ,71,2375096995191 ,47,937849173741 ,51,699916599034
11.0054672 ,Left ,71,2375096995191 ,47,937849173741 ,51,699916599034
11.0282589 ,Left ,71,2346224587468 ,47,9483990837088 ,51,7055899043091
11.0282632 ,Left ,71,2346224587468 ,47,9483990837088 ,51,7055899043091
11.0282667 ,Left ,71,2346224587468 ,47,9483990837088 ,51,7055899043091
11.0492766 ,Left ,71,2347373764705 ,47,9575411991352 ,51,7129425278525
11.0492811 ,Left ,71,2347373764705 ,47,9575411991352 ,51,7129425278525
11.0492848 ,Left ,71,2347373764705 ,47,9575411991352 ,51,7129425278525
11.0654173 ,Left ,71,2347099526033 ,47,9590705181695 ,51,7141413997895
11.0654192 ,Left ,71,2347099526033 ,47,9590705181695 ,51,7141413997895
11.0654206 ,Left ,71,2347099526033 ,47,9590705181695 ,51,7141413997895
11.0876891 ,Left ,71,2322698306891 ,47,9695334892625 ,51,7074023584599
11.0876912 ,Left ,71,2322698306891 ,47,9695334892625 ,51,7074023584599
11.087693 ,Left ,71,2322698306891 ,47,9695334892625 ,51,7074023584599
11.1090435 ,Left ,71,2325815725416 ,47,9795193249967 ,51,6978776468569
11.1090457 ,Left ,71,2325815725416 ,47,9795193249967 ,51,6978776468569
11.1090475 ,Left ,71,2325815725416 ,47,9795193249967 ,51,6978776468569
11.1252488 ,Left ,71,2277796371468 ,47,9894702944389 ,51,685823498856
11.1252511 ,Left ,71,2277796371468 ,47,9894702944389 ,51,685823498856
11.1252528 ,Left ,71,2277796371468 ,47,9894702944389 ,51,685823498856
11.1481332 ,Left ,71,2205130109343 ,47,9998580455737 ,51,6767101559545
11.1481363 ,Left ,71,2205130109343 ,47,9998580455737 ,51,6767101559545
11.1481387 ,Left ,71,2205130109343 ,47,9998580455737 ,51,6767101559545
11.1690991 ,Left ,71,2083438383101 ,48,0147584863057 ,51,6688104188627
11.1691015 ,Left ,71,2083438383101 ,48,0147584863057 ,51,6688104188627
11.1691034 ,Left ,71,2083438383101 ,48,0147584863057 ,51,6688104188627
11.1859656 ,Left ,71,2037285920987 ,48,0307811357272 ,51,6616948987215
11.185974 ,Left ,71,2037285920987 ,48,0307811357272 ,51,6616948987215
11.1859816 ,Left ,71,2037285920987 ,48,0307811357272 ,51,6616948987215
11.2084469 ,Left ,71,2036800440826 ,48,0453769930971 ,51,6556073836881
11.2084554 ,Left ,71,2036800440826 ,48,0453769930971 ,51,6556073836881
11.208463 ,Left ,71,2036800440826 ,48,0453769930971 ,51,6556073836881
11.2365521 ,Left ,71,2087306250852 ,48,0575933230436 ,51,6551665597932
11.236554 ,Left ,71,2087306250852 ,48,0575933230436 ,51,6551665597932
11.2365555 ,Left ,71,2087306250852 ,48,0575933230436 ,51,6551665597932
11.2454188 ,Left ,71,2213443285757 ,48,0669882099458 ,51,6574409297104
11.2454208 ,Left ,71,2213443285757 ,48,0669882099458 ,51,6574409297104
11.2454222 ,Left ,71,2213443285757 ,48,0669882099458 ,51,6574409297104
11.267941 ,Left ,71,2309813879945 ,48,0738235137151 ,51,6599538298785
11.267943 ,Left ,71,2309813879945 ,48,0738235137151 ,51,6599538298785
11.2679445 ,Left ,71,2309813879945 ,48,0738235137151 ,51,6599538298785
11.2887023 ,Left ,71,2408598709377 ,48,0824707008738 ,51,6665745757389
11.2887044 ,Left ,71,2408598709377 ,48,0824707008738 ,51,6665745757389
11.2887063 ,Left ,71,2408598709377 ,48,0824707008738 ,51,6665745757389
11.3053215 ,Left ,71,2531801567392 ,48,0858225392214 ,51,6764750656128
11.3053246 ,Left ,71,2531801567392 ,48,0858225392214 ,51,6764750656128
11.3053272 ,Left ,71,2531801567392 ,48,0858225392214 ,51,6764750656128
