timestamp,event,roll,pitch,yaw
0.0283537 ,Left ,60,504769706003 ,50,4090515713168 ,59,5857782907377
0.0433541 ,Left ,60,5046043133213 ,50,4096459706366 ,59,5837205153766
0.0658571 ,Left ,60,5052857143227 ,50,4114040247366 ,59,5844476204954
0.0886188 ,Left ,60,504816150062 ,50,411194543093 ,59,5840046909134
0.1032094 ,Left ,60,5069339041462 ,50,4106570794737 ,59,5841773289123
0.1259066 ,Left ,60,5069339041462 ,50,4106570794737 ,59,5841773289123
0.1486568 ,Left ,60,5076154605491 ,50,4124150178393 ,59,584904675297
0.1636302 ,Left ,60,5082971625785 ,50,4141729612376 ,59,5856321568693
0.1862687 ,Left ,60,5082971625785 ,50,4141729612376 ,59,5856321568693
0.2089306 ,Left ,60,5081315135479 ,50,4147674841287 ,59,5835745710608
0.2316971 ,Left ,60,5088132730275 ,50,4165254342954 ,59,5843021917225
0.2462194 ,Left ,60,5109311369698 ,50,415988084617 ,59,5844751209598
0.2686745 ,Left ,60,5052131214602 ,50,4172156861576 ,59,5864568357475
0.2912811 ,Left ,60,4986482501889 ,50,4172797411906 ,59,5856538572926
0.3059333 ,Left ,60,4993300952465 ,50,4190379358693 ,59,5863809846737
0.3285926 ,Left ,60,4916808387644 ,50,4243429178694 ,59,5827434157657
0.3509246 ,Left ,60,4916808387644 ,50,4243429178694 ,59,5827434157657
0.3658292 ,Left ,60,4923628053633 ,50,4261012518491 ,59,5834704379342
0.3882586 ,Left ,60,4895131524978 ,50,4357606164494 ,59,5846869488894
0.4110633 ,Left ,60,5017395502387 ,50,4574367401808 ,59,5783760937336
0.4259155 ,Left ,60,499836912787 ,50,4837375891583 ,59,5657322026482
0.4486589 ,Left ,60,4942553280699 ,50,5016857526589 ,59,5434319789162
0.4710449 ,Left ,60,4647765270249 ,50,499864178783 ,59,5177333154071
0.4860514 ,Left ,60,4596093681238 ,50,4867230339508 ,59,4911269601103
0.5083058 ,Left ,60,4280467993302 ,50,4720525798209 ,59,4801966017529
0.5309291 ,Left ,60,4025541676344 ,50,4811818531494 ,59,4760296966965
0.5458233 ,Left ,60,3638421191409 ,50,5355243038727 ,59,45795913747
0.5689011 ,Left ,60,3602343510611 ,50,5757834043145 ,59,4306356850927
0.5913977 ,Left ,60,3132255151981 ,50,6053503763026 ,59,4092699503684
0.6063466 ,Left ,60,3139357062741 ,50,6333416697421 ,59,4145636199143
0.6288016 ,Left ,60,2717400427145 ,50,6849049764167 ,59,4270395355245
0.6510722 ,Left ,60,1972845983674 ,50,7788256979931 ,59,4175826981438
0.6659068 ,Left ,60,1687144672483 ,50,8498047392792 ,59,4039097788583
0.6882163 ,Left ,60,1799287582993 ,50,8885663496241 ,59,3800690348214
0.7109476 ,Left ,60,1706174588975 ,50,8824148785943 ,59,3403629193528
0.7259366 ,Left ,60,1756039679066 ,50,8515794469783 ,59,2858795226487
0.7486394 ,Left ,60,1051983617545 ,50,7921630603449 ,59,2423336472437
0.7710148 ,Left ,60,0437002199611 ,50,7715870734162 ,59,2087769737752
0.7861427 ,Left ,60,0153812547046 ,50,7666161024449 ,59,1822511820041
0.8085217 ,Left ,59,9994899838533 ,50,7578921530492 ,59,1775263517103
0.8310341 ,Left ,60,053969684827 ,50,7051730845696 ,59,160318561469
0.838477 ,Left ,60,2005366611393 ,50,6924527598939 ,59,1733734245294
0.8609287 ,Left ,60,2279860702924 ,50,7758078041006 ,59,1749377588449
0.8836359 ,Left ,60,220815233008 ,50,9035167281608 ,59,1642003919227
0.8985431 ,Left ,60,1658502135316 ,50,9440387884432 ,59,1539418355197
0.9211516 ,Left ,60,2208050604033 ,50,9181082471289 ,59,1457452103502
0.9439634 ,Left ,60,2403149467431 ,50,8701700474302 ,59,1447787489264
0.9584931 ,Left ,60,1578097496221 ,50,8715510773214 ,59,1134500404552
0.9810292 ,Left ,60,0381669437194 ,50,9203026654562 ,59,0897656609634
1.0031717 ,Left ,60,0283658682226 ,50,9626785567773 ,59,0792726393701
1.0183684 ,Left ,60,1768028387719 ,50,9824771711836 ,59,0981329883304
1.0408648 ,Left ,60,2426672441474 ,51,0178653947031 ,59,1293158945746
1.0634293 ,Left ,60,2539445623924 ,51,1003253289691 ,59,1507692648343
1.0785957 ,Left ,60,3057472014202 ,51,1476289550334 ,59,1440354346772
1.1009732 ,Left ,60,3186346656975 ,51,1510994600236 ,59,1683019519314
1.1232484 ,Left ,60,3231604953455 ,51,1796702432421 ,59,215051683742
1.1382291 ,Left ,60,2400637336076 ,51,1835825291263 ,59,2370953877627
1.1608827 ,Left ,60,1484886577428 ,51,124876623967 ,59,2471345713909
1.1836073 ,Left ,60,1434836474218 ,51,010152977482 ,59,2353114202142
1.1984104 ,Left ,60,1231673920678 ,50,9513243100392 ,59,2171795834026
1.2210175 ,Left ,60,0332168042162 ,51,0195195294693 ,59,1987657832157
1.2436241 ,Left ,59,977515017982 ,51,1637395488767 ,59,1653458662463
1.2586426 ,Left ,60,0007603153671 ,51,2854541592195 ,59,1241706427684
1.280943 ,Left ,60,0432901179224 ,51,3107359118525 ,59,1001056826584
1.3033336 ,Left ,60,0292175877378 ,51,2609065014485 ,59,0752819655685
1.318413 ,Left ,59,9287051162615 ,51,1814412387566 ,59,0626162149053
1.3408081 ,Left ,59,8284029534888 ,51,1365505968323 ,59,0306351756524
1.3634294 ,Left ,59,7688074016479 ,51,0757355337684 ,58,9714904519007
1.3783763 ,Left ,59,770213063932 ,50,9459327602375 ,58,9358469172582
1.4011309 ,Left ,59,7426404136047 ,50,7740700939992 ,58,9533222891891
1.4233748 ,Left ,59,7148849889131 ,50,6870053127407 ,58,9920011801998
1.4608484 ,Left ,59,7375054101823 ,50,785593266826 ,59,0091840257733
1.4836515 ,Left ,59,8557163707366 ,50,7844717992983 ,59,007845209401
1.4984818 ,Left ,59,9865623993203 ,50,7216874266526 ,59,0154180633752
1.5209677 ,Left ,60,1088122590616 ,50,6319477318175 ,58,9806288620383
1.5434994 ,Left ,60,1672251126503 ,50,5773932310093 ,58,9264248235575
1.5584264 ,Left ,60,1452425784156 ,50,5889561072424 ,58,8514023223361
1.5810931 ,Left ,60,1537777503664 ,50,6049852427334 ,58,7938045038594
1.6036153 ,Left ,60,2141192077096 ,50,5585093714835 ,58,7681011565129
1.640933 ,Left ,60,2881954744013 ,50,4650063686889 ,58,7958541689939
1.6634039 ,Left ,60,2083848230642 ,50,4677882563506 ,58,7775031383181
1.701375 ,Left ,60,1727698760219 ,50,4589306329741 ,58,74921151543
1.7386869 ,Left ,60,2799520977003 ,50,497096238982 ,58,8140234287143
1.7613357 ,Left ,60,3242940031036 ,50,5027072320923 ,58,8317578331146
1.7987777 ,Left ,60,3251951883308 ,50,4695639266993 ,58,813945958457
1.8213236 ,Left ,60,3014154717212 ,50,4747043640611 ,58,8133499900726
1.8587134 ,Left ,60,2533827273322 ,50,431306890496 ,58,842069488339
1.8808651 ,Left ,60,2212851354138 ,50,391970927159 ,58,8466841097485
1.9184092 ,Left ,60,1389272814487 ,50,3663601716824 ,58,8401237541241
1.9408961 ,Left ,60,1180704846077 ,50,3697040637323 ,58,8347791347963
1.9786767 ,Left ,60,0831248661033 ,50,3527865684113 ,58,8318621478017
2.0009007 ,Left ,60,0571113434741 ,50,3345675339416 ,58,8378759532853
2.0384001 ,Left ,60,0434546520785 ,50,3106892179861 ,58,8521731266494
2.0610366 ,Left ,60,054567333859 ,50,3036277879435 ,58,8572630485697
2.0984702 ,Left ,60,0718711102196 ,50,3115652148038 ,58,8575165616867
2.1208517 ,Left ,60,0708799608871 ,50,3189653265851 ,58,8683522304669
2.1582709 ,Left ,60,0828195520014 ,50,3339590860472 ,58,8828050114893
2.1809597 ,Left ,60,0849341226804 ,50,3334565535248 ,58,8829622635334
2.21838 ,Left ,60,1059626183128 ,50,3632991819601 ,58,8781637067226
2.2407897 ,Left ,60,0968799033403 ,50,3772975065766 ,58,8753857648904
2.2783844 ,Left ,60,0923312831761 ,50,3993233597748 ,58,8908435125672
2.3013 ,Left ,60,1104653471891 ,50,4106091573375 ,58,8921370664993
2.3386102 ,Left ,60,0937066264915 ,50,4218198368686 ,58,9045929326958
2.361052 ,Left ,60,0849142001533 ,50,4168237643991 ,58,914801217228
2.3984912 ,Left ,60,0672304537513 ,50,4910062547897 ,58,9246639600456
2.4210354 ,Left ,60,049522148699 ,50,5636251124755 ,58,9342751644453
2.4585517 ,Left ,60,0209397472159 ,50,5924377510342 ,59,002111127054
2.5184428 ,Left ,59,9469706514188 ,50,7139449570578 ,59,0611810526898
2.5409376 ,Left ,59,9635312677454 ,50,7205664097391 ,59,058910181417
2.5787172 ,Left ,59,9473314446467 ,50,6494889688792 ,59,0484048674548
2.6011801 ,Left ,59,9116951435485 ,50,6143449620335 ,59,0308668374453
2.6383181 ,Left ,59,8694002483445 ,50,6126079025389 ,58,9999794179322
2.6608976 ,Left ,59,8655270311738 ,50,6213304171743 ,58,9772357309246
2.6984732 ,Left ,59,9862610599898 ,50,6143975319902 ,58,996742504466
2.7133524 ,Left ,59,992211602239 ,50,621192166544 ,58,9914227294566
2.7357663 ,Left ,59,9582998876034 ,50,6375865290835 ,58,9694619769865
2.7508786 ,Left ,60,0195907528539 ,50,6416210210319 ,58,9756125247287
2.7733131 ,Left ,60,0097833202334 ,50,67956505316 ,58,9784348937906
2.7963907 ,Left ,59,9483562582964 ,50,7678942160618 ,58,9709677724942
2.8113547 ,Left ,59,9712337665154 ,50,8260120812668 ,58,9481796492863
2.8339707 ,Left ,60,039449493235 ,50,831055704081 ,58,9388624788168
2.8562507 ,Left ,60,0793376325071 ,50,8710058612796 ,58,9402738865166
2.8711192 ,Left ,60,0790661111569 ,50,9229734060645 ,58,9512185743772
2.8934197 ,Left ,60,109791146411 ,50,9345675855006 ,58,9672422925413
2.9160864 ,Left ,60,1126834432094 ,50,9820290354742 ,58,9962726423911
2.9308913 ,Left ,60,0814731011779 ,51,0629522609571 ,59,0110149238938
2.9535776 ,Left ,60,0373110048047 ,51,072716498757 ,59,0066491544016
2.9758883 ,Left ,59,9740670776538 ,51,0003053399587 ,59,0147419981764
2.9909549 ,Left ,59,9884874249293 ,50,9223239213672 ,58,9929107098748
3.0215189 ,Left ,59,9470283494664 ,50,8825083444303 ,58,9597444617277
3.0437461 ,Left ,59,8338521536962 ,50,93917004512 ,58,9350950986653
3.0734446 ,Left ,59,8410284469495 ,51,1541260761695 ,58,8878838331035
3.0958521 ,Left ,59,8847837572593 ,51,1884785166343 ,58,86884328705
3.1183604 ,Left ,59,8307428306501 ,51,1704315529126 ,58,836799881911
3.1332644 ,Left ,59,7627579427184 ,51,1128827831197 ,58,8009643428475
3.1559135 ,Left ,59,7437864776746 ,51,0630776420714 ,58,7655311919121
3.1784443 ,Left ,59,7041477586164 ,51,0005455825182 ,58,727856070989
3.1934006 ,Left ,59,632016896189 ,50,8885376085639 ,58,6940833006598
3.2158337 ,Left ,59,6311428053706 ,50,7491940731479 ,58,7064102129742
3.2384128 ,Left ,59,6647698549948 ,50,6861355517639 ,58,7363905370623
3.2533804 ,Left ,59,6938610428668 ,50,7236626282414 ,58,7475032828066
3.2763684 ,Left ,59,7553555706695 ,50,762307639927 ,58,7455546569855
3.2988329 ,Left ,59,8867387943221 ,50,7265977936656 ,58,7446767348376
3.3136537 ,Left ,60,0514447093798 ,50,6612465052322 ,58,7204555452855
3.3360736 ,Left ,60,0778109460143 ,50,6477737126337 ,58,6871842019299
3.3584797 ,Left ,60,0276538508364 ,50,7081526079431 ,58,6148109884455
3.3734162 ,Left ,60,0261756048163 ,50,7369605137017 ,58,5270572117173
3.3961637 ,Left ,60,0701196384703 ,50,6810674069475 ,58,4580735619754
3.4185903 ,Left ,60,1017236404626 ,50,6023095840255 ,58,4800442931811
3.4336472 ,Left ,60,1162404545637 ,50,5976672117624 ,58,5478084831858
3.455971 ,Left ,60,1143216992648 ,50,680834896591 ,58,6069958345478
3.4862194 ,Left ,60,1578274371242 ,50,7364165990811 ,58,6283252410586
3.5009902 ,Left ,60,2101559709627 ,50,7129922795381 ,58,6243780609349
3.5237448 ,Left ,60,226474922599 ,50,6729527743736 ,58,6235010472218
3.5533384 ,Left ,60,2532445309396 ,50,6187048499005 ,58,6037768353228
3.5758086 ,Left ,60,2863506929889 ,50,6031089097642 ,58,5979176614088
3.5983048 ,Left ,60,2841412620199 ,50,5821415838307 ,58,6118232164203
3.6136176 ,Left ,60,2450389815241 ,50,5554106476083 ,58,6344803176647
3.6360092 ,Left ,60,2048135453367 ,50,5444259850977 ,58,6434299703557
3.6583603 ,Left ,60,1574301030641 ,50,528817127376 ,58,6393294567135
3.6732795 ,Left ,60,1307780244136 ,50,5037249171464 ,58,6344860181078
3.6958866 ,Left ,60,1430563393307 ,50,4780826706347 ,58,6379160497123
3.7183466 ,Left ,60,1534468688141 ,50,465777940709 ,58,6477253408439
3.7336795 ,Left ,60,1417558790865 ,50,4599745690341 ,58,6549748396139
3.7636933 ,Left ,60,1001898803373 ,50,4392181642795 ,58,6565612725696
3.78608 ,Left ,60,0863488720662 ,50,4251566641782 ,58,6651542269242
3.8009329 ,Left ,60,076827266915 ,50,4254827561232 ,58,6728934360153
3.8237028 ,Left ,60,0687157179718 ,50,4369652457393 ,58,669167173584
3.8385254 ,Left ,60,0693312720301 ,50,4387461562399 ,58,6698532875375
3.8534945 ,Left ,60,0697953454962 ,50,4389333461124 ,58,6702713863022
3.8758325 ,Left ,60,0584990267827 ,50,4486771498055 ,58,6613690701918
3.8983411 ,Left ,60,0579354697079 ,50,4554019064281 ,58,6552976062229
3.9133434 ,Left ,60,0558974637249 ,50,4693363919177 ,58,6596184583322
3.9359375 ,Left ,60,0503441296632 ,50,4954003182772 ,58,6762222450895
3.958691 ,Left ,60,0574163330094 ,50,5075056031666 ,58,6914763990289
3.9810836 ,Left ,60,0514089334017 ,50,5246232767141 ,58,709149899084
3.9960115 ,Left ,60,0544951115371 ,50,5736825816262 ,58,7257014823618
4.0182453 ,Left ,60,0387981371052 ,50,6401145495534 ,58,7374626097283
4.0411521 ,Left ,60,0053131746924 ,50,6893572858463 ,58,7458642918996
4.0560983 ,Left ,59,986223913207 ,50,6821776192011 ,58,7645884567699
4.0784776 ,Left ,59,9591280562195 ,50,6591155742573 ,58,7880485170257
4.1008832 ,Left ,59,9234851734641 ,50,6935708401628 ,58,7973998882132
4.1235515 ,Left ,59,9243513276766 ,50,760553499612 ,58,8005138685855
4.1461027 ,Left ,59,9412573329876 ,50,7895341057476 ,58,8013287266917
4.1686635 ,Left ,59,9422658277317 ,50,7796313450551 ,58,7982009451663
4.1837393 ,Left ,59,9219805949686 ,50,7297581660518 ,58,8047406783681
4.1984196 ,Left ,59,8688194706246 ,50,7092296674748 ,58,7813330473728
4.2209714 ,Left ,59,8097777006165 ,50,7061821220387 ,58,76971122966
4.2361432 ,Left ,59,821694471042 ,50,6885932727475 ,58,7335140341967
4.2584673 ,Left ,59,9040310079149 ,50,662240112967 ,58,7445316669748
4.281056 ,Left ,59,9563769323002 ,50,6211090975183 ,58,7687219239165
4.2958909 ,Left ,60,0172580832085 ,50,5926534783695 ,58,7789278707083
4.3184912 ,Left ,60,0466415171428 ,50,5528830129313 ,58,7647674317495
4.3411019 ,Left ,60,0420093341164 ,50,5341395787615 ,58,7536891445008
4.3560329 ,Left ,60,0046079520331 ,50,5662875989528 ,58,7328076492519
4.378242 ,Left ,60,0166762324582 ,50,6561960221844 ,58,7064398278609
4.4009324 ,Left ,60,1120117431237 ,50,7088061550299 ,58,7010601416316
4.415689 ,Left ,60,1986780119264 ,50,7412157079252 ,58,7111852727046
4.4382098 ,Left ,60,1887585149875 ,50,7784850853577 ,58,716223786723
4.4610823 ,Left ,60,1730980103847 ,50,8061500863726 ,58,7302149650624
4.4760813 ,Left ,60,1434808533023 ,50,836296524682 ,58,7474017868795
4.4982386 ,Left ,60,0991278082203 ,50,860340091896 ,58,7627874692686
4.5208488 ,Left ,60,0603604655291 ,50,8585395623882 ,58,7618243101189
4.5359321 ,Left ,60,0268723670463 ,50,8353273412737 ,58,7501719679965
4.5586565 ,Left ,59,9956340374961 ,50,8291326913485 ,58,7698743250504
4.5812711 ,Left ,60,0082791460983 ,50,7840193429866 ,58,7732849209571
4.5959983 ,Left ,60,0564718492709 ,50,7582490082607 ,58,778744283451
4.6185059 ,Left ,59,9487554093096 ,50,8319649092023 ,58,7610141288933
4.6407982 ,Left ,59,8768644310687 ,50,9621715320013 ,58,727680645946
4.6558438 ,Left ,59,8954515710875 ,51,0545985807048 ,58,6947980263118
4.6783293 ,Left ,59,935643341889 ,51,0933405328907 ,58,6724084638995
4.7011351 ,Left ,59,8920843660391 ,51,0832420485068 ,58,6529605637067
4.7161971 ,Left ,59,8438983166909 ,51,0284226502624 ,58,6460900366782
4.7386613 ,Left ,59,8279080432037 ,50,9666746780794 ,58,6260358575747
4.7612661 ,Left ,59,7834954137167 ,50,8937188848393 ,58,6055081439027
4.7761191 ,Left ,59,7602719095184 ,50,8170376394005 ,58,5928541748013
4.798331 ,Left ,59,7364287880392 ,50,7035810165126 ,58,610685178903
4.8214096 ,Left ,59,7258658542189 ,50,6214432724447 ,58,6316685698761
4.8363788 ,Left ,59,7279931955348 ,50,5926011484614 ,58,6480958538776
4.8589179 ,Left ,59,8038070316903 ,50,585138446804 ,58,666399504086
4.8814054 ,Left ,59,9301132513403 ,50,5481077993358 ,58,6805660005854
4.903992 ,Left ,60,0397667596597 ,50,4709844197341 ,58,6818690154297
4.9186814 ,Left ,60,0863032142358 ,50,3850990849322 ,58,6710370644872
4.9412072 ,Left ,60,1019084750199 ,50,3559180849929 ,58,6161624021815
4.9635953 ,Left ,60,0895036197336 ,50,363201209636 ,58,5136656776755
4.9785218 ,Left ,60,1236914744553 ,50,33379481706 ,58,4713474106363
5.0011463 ,Left ,60,1865860111771 ,50,3077212016319 ,58,4731822955044
5.023762 ,Left ,60,2149067609616 ,50,3005413146613 ,58,4587275800341
5.0386297 ,Left ,60,1671466661511 ,50,3215772168939 ,58,4333211003998
5.0611997 ,Left ,60,1210242226429 ,50,4128023106044 ,58,4592322538515
5.083753 ,Left ,60,1085761609685 ,50,548888991751 ,58,5072584301618
5.0985525 ,Left ,60,1709459977071 ,50,6174927631982 ,58,5328487028026
5.1210916 ,Left ,60,20281829697 ,50,5964492531025 ,58,5312429190284
5.1435545 ,Left ,60,2380482224853 ,50,5716721849578 ,58,5269434235017
5.1584412 ,Left ,60,2097680641964 ,50,5551579191065 ,58,503528215613
5.1816737 ,Left ,60,2074350991425 ,50,5313047668371 ,58,486600413406
5.2036109 ,Left ,60,206188802855 ,50,4833492987048 ,58,4789729082484
5.2183228 ,Left ,60,1861635429383 ,50,4344048628472 ,58,4813783962427
5.2411166 ,Left ,60,1440126464418 ,50,4036740092133 ,58,5009586591404
5.2635015 ,Left ,60,1097514329447 ,50,4065405340605 ,58,5129903831405
5.2783701 ,Left ,60,0880828858043 ,50,3917676199819 ,58,5251458385366
5.3009342 ,Left ,60,0961747562249 ,50,3633001308446 ,58,5396103103008
5.3235736 ,Left ,60,126359358678 ,50,3437398567557 ,58,5553665622177
5.3385404 ,Left ,60,1273143726866 ,50,3467791759211 ,58,577640787313
5.361066 ,Left ,60,1023272377093 ,50,3665308530665 ,58,5901296010285
5.3838242 ,Left ,60,0817401923466 ,50,3734880236994 ,58,5987184279631
5.3986253 ,Left ,60,0806470590611 ,50,3674331284644 ,58,6050468122235
5.4212335 ,Left ,60,0813576518512 ,50,357955558935 ,58,6149068682112
5.4434902 ,Left ,60,0752505558182 ,50,3429069965419 ,58,6197033576336
5.4584003 ,Left ,60,0772062698737 ,50,334230337514 ,58,6193167919004
5.4811728 ,Left ,60,0619199863436 ,50,3309321539647 ,58,6231172672448
5.5037809 ,Left ,60,0554361782238 ,50,3442406170809 ,58,6268435037852
5.5184555 ,Left ,60,0600075716654 ,50,3664979977864 ,58,6324126585213
5.5409936 ,Left ,60,0780036773747 ,50,3738462330248 ,58,6410902001416
5.5634139 ,Left ,60,0852609751588 ,50,3773568130782 ,58,6427758147344
5.5783636 ,Left ,60,0708704868744 ,50,3700194522341 ,58,6453426546246
5.6010069 ,Left ,60,0598426430677 ,50,3698426021763 ,58,6420023558543
5.6234263 ,Left ,60,0668324713285 ,50,3810976405938 ,58,6399037042156
5.6384034 ,Left ,60,0470532005157 ,50,3843566778796 ,58,6413536398802
5.6609138 ,Left ,60,0481065135287 ,50,3865857993877 ,58,6463592876585
5.6835933 ,Left ,60,0421882311967 ,50,4176131833327 ,58,647527401986
5.6983435 ,Left ,60,0061870811009 ,50,4691343629403 ,58,6501352925959
5.7208761 ,Left ,59,989232950995 ,50,5102123817127 ,58,661699361279
5.7435494 ,Left ,59,9751596175596 ,50,4998582468741 ,58,6739734323895
5.758445 ,Left ,59,9521779798865 ,50,4891212488766 ,58,686971574401
5.7807817 ,Left ,59,9270198623681 ,50,5332507988003 ,58,6902822012742
5.8033167 ,Left ,59,945115719524 ,50,5918591561446 ,58,6838538346544
5.8184472 ,Left ,59,9840288519003 ,50,6145005358976 ,58,6721385941606
5.8408566 ,Left ,59,97380217215 ,50,5996135321618 ,58,6746686848624
5.863344 ,Left ,59,9038374468856 ,50,5852744310208 ,58,6728913991888
5.8785309 ,Left ,59,8257700087653 ,50,5951598630291 ,58,6486410359229
5.9007948 ,Left ,59,783970761901 ,50,6092133120427 ,58,6340327940296
5.9236088 ,Left ,59,8479695880902 ,50,6340374537883 ,58,6340877408072
5.9458352 ,Left ,59,946623177742 ,50,6161609434546 ,58,6729345603654
5.9608208 ,Left ,59,9786080742558 ,50,5999981219564 ,58,6966433380679
5.9833311 ,Left ,59,9598808755964 ,50,6067884859124 ,58,6839353324854
6.0059198 ,Left ,59,9851226219681 ,50,5718537289904 ,58,6581728527745
6.0211893 ,Left ,60,0106719508201 ,50,5391827930202 ,58,6460508677825
6.0435903 ,Left ,59,9796168995076 ,50,5787529322363 ,58,6281111842273
6.0658907 ,Left ,59,928338992657 ,50,643482697333 ,58,6290278684991
6.0808396 ,Left ,60,008046670532 ,50,6517465960771 ,58,6214046079899
6.1033335 ,Left ,60,0938660976272 ,50,6224531564349 ,58,6277392155088
6.1261552 ,Left ,60,0745251586278 ,50,6176368273591 ,58,6387333082929
6.1411208 ,Left ,60,0348666417991 ,50,6352047312654 ,58,657058041672
6.1633061 ,Left ,60,0498245192765 ,50,6331665075158 ,58,6833865206494
6.1861297 ,Left ,60,0657820791831 ,50,6597842260104 ,58,7194870190553
6.2009811 ,Left ,60,0498812847401 ,50,707356625764 ,58,7378399503866
6.2236143 ,Left ,60,002163732589 ,50,7301409880521 ,58,7271576869251
6.2459876 ,Left ,59,9487738654317 ,50,7270145613821 ,58,7496978355066
6.2611456 ,Left ,59,9730792964179 ,50,6784755003255 ,58,7684158828455
6.283767 ,Left ,59,9522343562502 ,50,6291042131638 ,58,7476893417182
6.3057888 ,Left ,59,8600796272062 ,50,6136298688872 ,58,7217628696203
6.321015 ,Left ,59,787046576413 ,50,6662891031009 ,58,686686446044
6.3433299 ,Left ,59,8148820459257 ,50,7411466196535 ,58,6675776303551
6.3658296 ,Left ,59,8392381304089 ,50,7850916571648 ,58,6612040186443
6.3808693 ,Left ,59,8510767064981 ,50,8011637402911 ,58,6527775206958
6.4034069 ,Left ,59,8221016245298 ,50,7908524389487 ,58,644264868819
6.4258584 ,Left ,59,7891517857376 ,50,7621746782361 ,58,6141372114774
6.4409577 ,Left ,59,7727814400735 ,50,7222411704458 ,58,5868369674919
6.4634447 ,Left ,59,7541272345135 ,50,6798615355175 ,58,5628400438539
6.4858119 ,Left ,59,7428113727356 ,50,6428590520002 ,58,534948030319
6.5008741 ,Left ,59,7037077321069 ,50,57995588986 ,58,4916445798609
6.5233419 ,Left ,59,6686084845936 ,50,4967686808605 ,58,4974970594034
6.5458906 ,Left ,59,6679232431672 ,50,4576821829426 ,58,535661710781
6.5606731 ,Left ,59,6990522865803 ,50,493543175888 ,58,5565401737248
6.5833843 ,Left ,59,7667131281875 ,50,5080564489076 ,58,5596419545486
6.6058461 ,Left ,59,8541604719743 ,50,4668142974704 ,58,5804565331627
6.6135371 ,Left ,59,9220800885278 ,50,3849302966759 ,58,5798558690441
6.6360627 ,Left ,59,9626816059976 ,50,2931251194597 ,58,5414815678696
6.6586459 ,Left ,59,9918225275773 ,50,2808083812263 ,58,4833042378329
6.6737133 ,Left ,59,9758910071875 ,50,3442826041062 ,58,4241535716868
6.6960027 ,Left ,59,9955401645433 ,50,4079525686888 ,58,3815111298458
6.7183668 ,Left ,60,0101686758078 ,50,4092691183175 ,58,3578345400205
6.7333724 ,Left ,60,0248610357916 ,50,3569511729819 ,58,3506196814432
6.7559769 ,Left ,60,0047723164917 ,50,3078081367834 ,58,3684606385217
6.7783361 ,Left ,60,0081036079268 ,50,3175028283258 ,58,3953645654766
6.7933571 ,Left ,60,0429585222091 ,50,3622471069962 ,58,4112977334416
6.8165652 ,Left ,60,0762887970598 ,50,3832217776459 ,58,4110585990673
6.8389624 ,Left ,60,134963213235 ,50,3990472194503 ,58,4052246497885
6.8536316 ,Left ,60,1378751427552 ,50,3951129445391 ,58,4021496880631
6.876296 ,Left ,60,1161573305889 ,50,3887774461217 ,58,393562074388
6.9058641 ,Left ,60,1033859690885 ,50,3743958830666 ,58,3896415216382
6.920841 ,Left ,60,0872198480685 ,50,3703558351665 ,58,3886761855964
6.9434014 ,Left ,60,0726968947083 ,50,350882899573 ,58,4019923016223
6.9586261 ,Left ,60,0585196926153 ,50,3362723767118 ,58,4063205192008
6.9732699 ,Left ,60,037447567925 ,50,3317061725997 ,58,3984961318742
6.9958781 ,Left ,60,0134049769514 ,50,3357572704097 ,58,3996654628457
7.0185555 ,Left ,60,0106631776809 ,50,3435193657588 ,58,4165863316502
7.0335547 ,Left ,60,0363052194023 ,50,3503530756261 ,58,4406006199975
7.0559524 ,Left ,60,058398114209 ,50,3464487346002 ,58,460574641591
7.0784324 ,Left ,60,0504111471993 ,50,3331888605043 ,58,4615943410084
7.0937294 ,Left ,60,0227091244953 ,50,3096231029014 ,58,4596868816884
7.1161042 ,Left ,60,0100287417189 ,50,3015494221929 ,58,4620502959978
7.1384221 ,Left ,60,002398975209 ,50,3000201828411 ,58,4735974922884
7.1535794 ,Left ,60,0091814562759 ,50,2924538449417 ,58,4781013155531
7.1758877 ,Left ,60,0118893387629 ,50,2765051769213 ,58,4858396833875
7.1984568 ,Left ,59,9972744399072 ,50,2702487020428 ,58,4844391699946
7.2136557 ,Left ,59,9937576596794 ,50,2790037938947 ,58,4870914183001
7.2359233 ,Left ,59,997102551026 ,50,3059182184679 ,58,49173491882
7.2584484 ,Left ,60,0134776937936 ,50,3156211896695 ,58,5008414083152
7.2960869 ,Left ,60,0336632357442 ,50,3348467322228 ,58,502695739807
7.3184561 ,Left ,60,0093380524195 ,50,3554784003534 ,58,498577559373
7.3559054 ,Left ,59,9685642469734 ,50,3845378018748 ,58,4956460160272
7.3784484 ,Left ,59,9481446428875 ,50,4062530032083 ,58,5049969940118
7.4160814 ,Left ,59,8887106200438 ,50,4661034628121 ,58,5268035009313
7.4385794 ,Left ,59,8389622870826 ,50,4499710138595 ,58,5396727105872
7.4759432 ,Left ,59,8485781658255 ,50,4626080251799 ,58,5785408390508
7.4982903 ,Left ,59,8617111348052 ,50,5158344370841 ,58,5803223393212
7.5366515 ,Left ,59,9102883136105 ,50,4901992925141 ,58,5665959834336
7.5591915 ,Left ,59,8958707577725 ,50,4568502403727 ,58,5776311221098
7.5959695 ,Left ,59,7739084140652 ,50,5018379660136 ,58,5455748750672
7.6336285 ,Left ,59,9183964732332 ,50,5675799885809 ,58,556827919917
7.6558896 ,Left ,59,985920820825 ,50,5740326191648 ,58,5787805263112
7.6933958 ,Left ,59,9964074991735 ,50,5643943474408 ,58,56595909203
7.7159849 ,Left ,59,9858746534379 ,50,5712345810857 ,58,5671704634628
7.7540526 ,Left ,59,9009187669677 ,50,6848522782584 ,58,5022942663286
7.7760604 ,Left ,59,9709503566117 ,50,6942985437146 ,58,5003869947057
7.8132858 ,Left ,60,0365674681599 ,50,7185879019548 ,58,5157094927523
7.8360652 ,Left ,59,9846812176269 ,50,7494938189878 ,58,5222515794171
7.8735129 ,Left ,59,9485699847053 ,50,8229258183529 ,58,5273289672692
7.8961517 ,Left ,59,8953553280496 ,50,8405987533419 ,58,5165476882675
7.933476 ,Left ,59,8475599895488 ,50,7523782779149 ,58,5353693278612
7.9558566 ,Left ,59,8537310049262 ,50,6977104969374 ,58,5413181120572
7.9936308 ,Left ,59,7434182256676 ,50,7305267780924 ,58,5102559599035
8.0158392 ,Left ,59,7268494501803 ,50,8285717604954 ,58,4896680900124
8.0537191 ,Left ,59,8042125818488 ,50,9094899046375 ,58,4547129944539
8.0761924 ,Left ,59,8063655819976 ,50,9021761630291 ,58,4357567903622
8.1137357 ,Left ,59,7271328769438 ,50,8384018553808 ,58,3747381120688
8.1360068 ,Left ,59,7312247616252 ,50,778179377214 ,58,353626011985
8.1733164 ,Left ,59,6742147614033 ,50,6825360591881 ,58,3421592567004
8.1958973 ,Left ,59,6433559534262 ,50,5741740581405 ,58,3298417931338
8.233758 ,Left ,59,6203747327474 ,50,5191805082408 ,58,3563406580699
8.2560148 ,Left ,59,6380656571974 ,50,5749691785963 ,58,3589740482775
8.2933847 ,Left ,59,8073736637942 ,50,6566350217104 ,58,3942484744906
8.3165728 ,Left ,59,8490851709723 ,50,6105799974622 ,58,4111044105007
8.3543542 ,Left ,59,9388332849788 ,50,5532853595147 ,58,3702427186739
8.3767326 ,Left ,59,9728134453946 ,50,5636309265247 ,58,3435168046054
8.4137171 ,Left ,60,0571069714492 ,50,5044651069519 ,58,3137802390647
8.4363052 ,Left ,59,9967694381827 ,50,4800251740374 ,58,2866910535642
8.4662449 ,Left ,59,9435461944921 ,50,4546792237221 ,58,3049728069941
8.4887228 ,Left ,59,964916778288 ,50,5036676144709 ,58,3250151062789
8.5115658 ,Left ,60,0201102051866 ,50,550308999822 ,58,3461690485541
8.5339971 ,Left ,60,0479047073558 ,50,5498507714718 ,58,3509973540787
8.5486642 ,Left ,60,096938281515 ,50,5336826713809 ,58,3551470591328
8.5714505 ,Left ,60,0841330164262 ,50,5192818291941 ,58,3511499193298
8.5864219 ,Left ,60,0826656736701 ,50,5080954815063 ,58,3471974924805
8.6084488 ,Left ,60,0995065367842 ,50,4813081982524 ,58,3568881108152
8.6308519 ,Left ,60,1032042114847 ,50,4632235954504 ,58,3576873521254
8.6458381 ,Left ,60,0822167502532 ,50,4454565598246 ,58,3645206104094
8.6683969 ,Left ,60,0489770615031 ,50,4200366050598 ,58,3779824041684
8.6910738 ,Left ,60,0370933147078 ,50,3871082971706 ,58,3913189128386
8.7059831 ,Left ,60,0287149986211 ,50,352030200445 ,58,4023103458512
8.7286932 ,Left ,60,0396313156083 ,50,3268406375293 ,58,4119758840652
8.7512486 ,Left ,60,0561441009899 ,50,3077768258956 ,58,4178990883748
8.7735696 ,Left ,60,0476569708136 ,50,2861441269389 ,58,4333561518431
8.7885979 ,Left ,60,0255789613323 ,50,2645795564241 ,58,4449878979578
8.8112084 ,Left ,59,9997451457563 ,50,2419789650508 ,58,458553044859
8.83426 ,Left ,59,9935081944223 ,50,2321810626993 ,58,4673200961928
8.8491056 ,Left ,60,0003746429056 ,50,2393907863879 ,58,4725736859324
8.8713075 ,Left ,59,9937914682747 ,50,252674838548 ,58,476269372139
8.8939425 ,Left ,59,9943835722706 ,50,2544588589366 ,58,4769396107896
8.9088789 ,Left ,59,9949758152961 ,50,2562428825228 ,58,477609970279
8.9312959 ,Left ,59,9974738176623 ,50,2649901360612 ,58,4805486289338
8.9536384 ,Left ,60,0002870322075 ,50,2810671623813 ,58,482133846366
8.9683362 ,Left ,60,0106415392471 ,50,2970555252877 ,58,4817317046125
8.9910358 ,Left ,60,012586696545 ,50,3125005138291 ,58,4786096437152
9.013325 ,Left ,59,9991265673345 ,50,325159536639 ,58,4772839439251
9.0283416 ,Left ,59,9865087466191 ,50,3387401001714 ,58,4845738853677
9.0511352 ,Left ,59,983560479503 ,50,356151270968 ,58,4920542196126
9.0735474 ,Left ,59,9723221391611 ,50,3639738392096 ,58,5042212914419
9.088354 ,Left ,59,9771369202751 ,50,3976764834309 ,58,5009445506638
9.1108912 ,Left ,59,9374479228741 ,50,4443420684134 ,58,5017051915352
9.1332464 ,Left ,59,9142035855141 ,50,4634494668508 ,58,5138358116611
9.1485213 ,Left ,59,8881393224656 ,50,4768372608799 ,58,513274840271
9.1715109 ,Left ,59,8658142661335 ,50,5472870978523 ,58,5168515404593
9.1942697 ,Left ,59,8844208953401 ,50,6225581797669 ,58,5117936940476
9.2089613 ,Left ,59,9223546988654 ,50,6560410254448 ,58,5015502337915
9.2314381 ,Left ,59,9289557283956 ,50,6383916203235 ,58,5112192155111
9.2533138 ,Left ,59,8768346346746 ,50,6135395626553 ,58,5057708075767
9.2685605 ,Left ,59,8029726822647 ,50,594211156374 ,58,4959973174785
9.2909186 ,Left ,59,775849677715 ,50,5849309107649 ,58,4818507321013
9.3217086 ,Left ,59,8735145624093 ,50,5788571140736 ,58,4646948436637
9.3367277 ,Left ,59,9746645352052 ,50,5451913909492 ,58,4917531972057
9.3589389 ,Left ,60,0039642963765 ,50,5451374055316 ,58,507640541813
9.3737488 ,Left ,59,9569983730865 ,50,5375059473625 ,58,5043349781866
9.3884488 ,Left ,59,9895654829525 ,50,5127327896118 ,58,4955738410147
9.4109774 ,Left ,59,9870170754991 ,50,523415718359 ,58,483954253142
9.4334861 ,Left ,59,9694166374234 ,50,5793986701742 ,58,4497937456687
9.4482793 ,Left ,59,9526056836589 ,50,6531109341528 ,58,4382930360664
9.4710957 ,Left ,60,0287406946647 ,50,7121276788288 ,58,4428920935524
9.4936264 ,Left ,60,0510473954517 ,50,718901627879 ,58,4560196238894
9.5083782 ,Left ,60,04008682597 ,50,759588940068 ,58,464103824532
9.5314269 ,Left ,60,0442265195064 ,50,8182438817194 ,58,4691400478806
9.5540656 ,Left ,60,057175173893 ,50,8224153625742 ,58,45948747742
9.5685763 ,Left ,60,0659180778199 ,50,8391476898161 ,58,4785535666776
9.5910701 ,Left ,60,0106893911335 ,50,8942475166837 ,58,5053919660965
9.6136093 ,Left ,59,9446203964991 ,50,9265271883962 ,58,5126009212151
9.6361017 ,Left ,59,9240757361785 ,50,8919297863163 ,58,511412535532
9.650995 ,Left ,59,9271478179993 ,50,8308608493209 ,58,5213674917664
9.6810714 ,Left ,59,9329540136956 ,50,7553138083017 ,58,4802912068309
9.7111365 ,Left ,59,9069194606852 ,50,7309046153391 ,58,4588878995531
9.7262536 ,Left ,59,832952804307 ,50,7580419704602 ,58,4678321407546
9.7412588 ,Left ,59,8240232645804 ,50,8286110636186 ,58,4541521680282
9.7710475 ,Left ,59,9778700832364 ,50,8958525397552 ,58,400727128982
9.7934786 ,Left ,59,9122954348087 ,50,8973148123132 ,58,3768420134239
9.815997 ,Left ,59,8619280322046 ,50,8692075225219 ,58,3535750942057
9.8312205 ,Left ,59,8845563167202 ,50,8243638619742 ,58,3286936519953
9.8537763 ,Left ,59,912927455063 ,50,7731658045719 ,58,3129044212628
9.8761215 ,Left ,59,924788358187 ,50,746267736728 ,58,2949352800259
9.8908314 ,Left ,59,8775811832578 ,50,7143769032653 ,58,2728566792541
9.9136699 ,Left ,59,8312815438949 ,50,6319683809562 ,58,264500557486
9.9358959 ,Left ,59,8420390631792 ,50,5409558683445 ,58,2824257408019
9.9511276 ,Left ,59,8290490047231 ,50,5110803573022 ,58,2947896597142
9.9734711 ,Left ,59,8408254176895 ,50,5097832587488 ,58,289267356606
9.9959949 ,Left ,59,8971716895483 ,50,4851772203486 ,58,2869660766248
10.0109587 ,Left ,59,9798475079008 ,50,4411178255785 ,58,3041421001236
10.0334549 ,Left ,60,0605961037152 ,50,3585483703023 ,58,3229485767076
10.0560042 ,Left ,60,130797341655 ,50,2679565851264 ,58,316869504604
10.0708614 ,Left ,60,1428470461928 ,50,2322389357379 ,58,2998591678328
10.093579 ,Left ,60,1469710198379 ,50,2448733590184 ,58,2641658494193
10.1158383 ,Left ,60,1526265549094 ,50,2137847034783 ,58,2119671868861
10.131181 ,Left ,60,1633645957105 ,50,1688108115621 ,58,1599694529346
10.1535827 ,Left ,60,1441796189931 ,50,175820466739 ,58,1353636734561
10.17631 ,Left ,60,0906037508387 ,50,2322289739852 ,58,1278426665201
10.1911206 ,Left ,60,0211204454815 ,50,2508051961777 ,58,1251948967009
10.2134506 ,Left ,60,0602134577364 ,50,2318486485639 ,58,1862797804733
10.2363299 ,Left ,60,1023450059242 ,50,2843644345702 ,58,2179869397576
10.2511356 ,Left ,60,122728699021 ,50,3654944298553 ,58,2257479336753
10.2735417 ,Left ,60,1904532452097 ,50,3690235889221 ,58,2186713151942
10.2963251 ,Left ,60,1911609750283 ,50,3491954585029 ,58,2143053991247
10.3112955 ,Left ,60,176983719357 ,50,3599626745827 ,58,2123203674031
10.3337385 ,Left ,60,1546622148142 ,50,3604997408906 ,58,2016339495943
10.3557348 ,Left ,60,1552437547412 ,50,3622855367641 ,58,2023152334065
10.3708743 ,Left ,60,1508093964354 ,50,3491902397414 ,58,2336317315566
10.3933047 ,Left ,60,1512566948209 ,50,3473387678457 ,58,2647760149821
10.4159962 ,Left ,60,1238992884669 ,50,343753140777 ,58,2776760489953
10.430954 ,Left ,60,1165564648575 ,50,3174268036336 ,58,2938309268762
10.4534071 ,Left ,60,113108564409 ,50,2916033669663 ,58,3101756675014
10.4760059 ,Left ,60,0909367752914 ,50,306633979304 ,58,3215768641421
10.4909235 ,Left ,60,0933412914406 ,50,337013072438 ,58,329534413782
10.5134343 ,Left ,60,0924570409027 ,50,3601866103078 ,58,3433907048073
10.5359704 ,Left ,60,095562067876 ,50,3578429983694 ,58,3559216962132
10.5509027 ,Left ,60,0855439476563 ,50,3406195416572 ,58,3700762241474
10.5732239 ,Left ,60,057519116886 ,50,3337595911519 ,58,38209489278
10.5960369 ,Left ,60,061153597237 ,50,3334858491336 ,58,3992086791129
10.6190225 ,Left ,60,0657460534645 ,50,3160244399389 ,58,404772503222
10.6340442 ,Left ,60,0587016499524 ,50,2751632464247 ,58,4053036711498
10.65628 ,Left ,60,0521544689399 ,50,2344759445056 ,58,40629153826
10.6786439 ,Left ,60,0298310071902 ,50,2118578487352 ,58,4156864531698
10.693571 ,Left ,60,0432808747491 ,50,2101862027748 ,58,4290623157199
10.7163921 ,Left ,60,0623464001788 ,50,2253119815491 ,58,4315194334389
10.7388299 ,Left ,60,0675192410737 ,50,2526230127024 ,58,4284014544881
10.7535899 ,Left ,60,0567546140945 ,50,2599856305227 ,58,4276598188886
10.7758622 ,Left ,60,0573446753022 ,50,2617693083699 ,58,4283336960058
10.7985797 ,Left ,60,0692968207303 ,50,2686555930262 ,58,4232745006926
10.813597 ,Left ,60,0517847054295 ,50,2553614845753 ,58,4128335926071
10.835957 ,Left ,60,0688190804297 ,50,2512522971454 ,58,4045829745702
10.8586339 ,Left ,60,0819481873911 ,50,261716177493 ,58,4008757893953
10.8735095 ,Left ,60,0423259303557 ,50,2635189524739 ,58,4018673234443
10.8960475 ,Left ,60,0287927504003 ,50,2827256406244 ,58,400816666516
10.9183389 ,Left ,59,9989801262784 ,50,3307853206069 ,58,3946008658977
10.9333649 ,Left ,59,9912857715685 ,50,3765891501272 ,58,3834101866147
10.9561534 ,Left ,59,9450420524908 ,50,3617994715224 ,58,3825756378535
10.9784315 ,Left ,59,9229696119899 ,50,3232776425491 ,58,3952556539557
10.9934794 ,Left ,59,890151167231 ,50,3526759064025 ,58,4099966608553
11.016084 ,Left ,59,8489718870707 ,50,436070106887 ,58,4224606817228
11.0385547 ,Left ,59,8407647909347 ,50,4675396060242 ,58,4233018659701
11.0610201 ,Left ,59,8688417323669 ,50,4602398240118 ,58,4089025364339
11.0835069 ,Left ,59,8813968366859 ,50,4341413993277 ,58,4145106414167
11.1061936 ,Left ,59,8065480679989 ,50,4502126572694 ,58,4056314540858
11.1211417 ,Left ,59,7283999167019 ,50,5091638369545 ,58,391270567689
11.1359464 ,Left ,59,7361051904333 ,50,5759183176984 ,58,3882843238625
11.1583644 ,Left ,59,8039199981596 ,50,588360904546 ,58,3993191048446
11.1732479 ,Left ,59,9202212678227 ,50,5542701668592 ,58,430033166315
11.1958439 ,Left ,59,9235345792336 ,50,5401306708507 ,58,438443097102
11.2184288 ,Left ,59,9374382821189 ,50,5201588376701 ,58,422747487104
11.2333398 ,Left ,59,9551294081505 ,50,503767271302 ,58,4128746055537
11.2561377 ,Left ,59,9395769784436 ,50,5400708722678 ,58,3913875580273
11.2787023 ,Left ,59,9376846411237 ,50,6261896303613 ,58,3687237010772
11.293532 ,Left ,60,020995286933 ,50,6960010742238 ,58,3543839830051
11.3160195 ,Left ,60,0987641164537 ,50,7043673759441 ,58,3697790460304
11.3389392 ,Left ,60,098493556515 ,50,6888199721342 ,58,3858157105368
11.3534068 ,Left ,60,0759476368991 ,50,6927744153319 ,58,3844676827023
11.3760432 ,Left ,60,096325866176 ,50,6884534550803 ,58,3684196434914
11.3983543 ,Left ,60,0625858565931 ,50,6817666005296 ,58,3647760976507
11.4211376 ,Left ,60,043386826074 ,50,6888155805741 ,58,3649913751604
11.4359418 ,Left ,60,0108673372477 ,50,6985310274472 ,58,3539432330743
11.4585131 ,Left ,60,0076571089266 ,50,7005669908985 ,58,3374815129972
11.4733794 ,Left ,59,9594878067755 ,50,6872056619028 ,58,338206620588
11.4959429 ,Left ,60,0016779935063 ,50,6256672387125 ,58,3373009188876
11.5186697 ,Left ,60,0161256446568 ,50,5761289345414 ,58,3415861713428
11.5336017 ,Left ,59,9394069045303 ,50,5945995384677 ,58,3269245122284
11.5558543 ,Left ,59,9000002836906 ,50,6888237702403 ,58,3092422421878
11.579207 ,Left ,59,9429109970417 ,50,7708009160981 ,58,3028593498025
11.601396 ,Left ,59,9926319218721 ,50,8022851477703 ,58,3104380977234
11.616477 ,Left ,60,0270857891979 ,50,8055604640749 ,58,3109434066308
11.6388221 ,Left ,60,0043248285013 ,50,8069875039155 ,58,2920382411675
11.6614875 ,Left ,59,9599512320959 ,50,7878905896987 ,58,2618666018275
11.6760668 ,Left ,59,939364802197 ,50,7590410714905 ,58,2227060498771
11.6985614 ,Left ,59,94945214897 ,50,7167256125742 ,58,207775514326
11.7208349 ,Left ,59,950702744293 ,50,6726358835556 ,58,212425203466
11.7358337 ,Left ,59,9436289827849 ,50,6364144976427 ,58,2187247772917
11.7585904 ,Left ,59,9043129620772 ,50,5787544747918 ,58,2126970237236
11.7809196 ,Left ,59,8457303292428 ,50,4968673872336 ,58,2054569797954
11.796187 ,Left ,59,8110913134693 ,50,4337118627056 ,58,2194932114641
11.8183552 ,Left ,59,8275246426102 ,50,4324080709324 ,58,2377393358301
11.8410052 ,Left ,59,8555397421977 ,50,4667322050358 ,58,2387101150645
11.8557852 ,Left ,59,9122926893508 ,50,4599255751725 ,58,2337479874059
11.8787445 ,Left ,59,980682755092 ,50,3977569055561 ,58,2201630389553
11.9009675 ,Left ,60,0585302628789 ,50,3538547601257 ,58,2282483662233
11.9162037 ,Left ,60,0892273091836 ,50,3306910294105 ,58,2364167500777
11.9384322 ,Left ,60,1401865236171 ,50,3556825269084 ,58,2156979453282
11.9609608 ,Left ,60,1762673634237 ,50,3840404523466 ,58,1842346601829
11.9759511 ,Left ,60,179326340704 ,50,3756051384541 ,58,1501770636123
11.9984416 ,Left ,60,1461267715508 ,50,3878033799987 ,58,1254724966261
12.0209509 ,Left ,60,0928151833877 ,50,4477851955579 ,58,0873831066332
12.0358916 ,Left ,60,0736193645772 ,50,5019964672641 ,58,0465627896863
12.058322 ,Left ,60,0768497445563 ,50,507572634761 ,58,0654984940362
12.0810088 ,Left ,60,102996922524 ,50,5188554271041 ,58,1076816262081
12.0962017 ,Left ,60,1056698847273 ,50,5483324038848 ,58,1389203836312
12.1184798 ,Left ,60,1132178074286 ,50,5546461739823 ,58,1334311427803
12.1412716 ,Left ,60,1484714934243 ,50,5631933305387 ,58,1251880759456
12.1560411 ,Left ,60,1580451496283 ,50,5647759397315 ,58,0928055304023
12.1858312 ,Left ,60,1583022043866 ,50,5382433410762 ,58,0779104445571
12.2084337 ,Left ,60,1714001863065 ,50,492215158298 ,58,0785309118475
12.2234555 ,Left ,60,1622755570664 ,50,4651565546698 ,58,0831002707778
12.238554 ,Left ,60,1422875207747 ,50,4560073852423 ,58,09511323664
12.2607871 ,Left ,60,1130963934522 ,50,44530127824 ,58,1055632731347
12.2758812 ,Left ,60,0949026019374 ,50,4224455647105 ,58,091777459312
12.2983594 ,Left ,60,0840653946309 ,50,3777869039841 ,58,0761997578278
12.3209855 ,Left ,60,0741712117287 ,50,3605237001303 ,58,0652573381395
12.335944 ,Left ,60,0582145601523 ,50,3639384932263 ,58,0668607852098
12.3661551 ,Left ,60,0540501396205 ,50,3664517394524 ,58,0820868645446
12.3812133 ,Left ,60,0426158766858 ,50,357414224619 ,58,0990051840645
12.396044 ,Left ,60,0330632111767 ,50,3468898370286 ,58,1138056596193
12.4338377 ,Left ,60,0041113817421 ,50,3353822381357 ,58,1323748756722
12.4488066 ,Left ,59,9953966869279 ,50,3339879072522 ,58,1312452493477
12.4715445 ,Left ,59,991959733292 ,50,32325012639 ,58,1272334746633
12.4940361 ,Left ,59,9963200924856 ,50,3094556367357 ,58,121136096335
12.5087768 ,Left ,60,0014970758156 ,50,3025956018883 ,58,1258753738505
12.5312208 ,Left ,60,0154936896659 ,50,3154209878464 ,58,1271345786636
12.5538923 ,Left ,60,0146739504655 ,50,3396531338191 ,58,1181010957507
12.5688388 ,Left ,60,0158200402054 ,50,3432322175503 ,58,1194418311992
12.5914221 ,Left ,60,0178077034061 ,50,3433492829155 ,58,1175802462277
12.613782 ,Left ,60,0114816342239 ,50,3466298486868 ,58,1115015196291
12.6287731 ,Left ,59,9976744552867 ,50,3351202375209 ,58,1066040511443
12.6510528 ,Left ,59,9797325806903 ,50,3261451400074 ,58,1016931222468
12.6743034 ,Left ,59,9603611465906 ,50,3666666628151 ,58,0962084716935
12.6891946 ,Left ,59,9075407571477 ,50,4376599105032 ,58,0954031652686
12.7108686 ,Left ,59,8520784881332 ,50,4972503491598 ,58,0987944677395
12.7336462 ,Left ,59,8150469203593 ,50,4886582139859 ,58,1092142552098
12.7483675 ,Left ,59,8194302816416 ,50,4768624110575 ,58,1225898194336
12.7711824 ,Left ,59,7881118200525 ,50,5138368661463 ,58,1314645365015
12.793426 ,Left ,59,7936871834462 ,50,5898054828525 ,58,1332368843864
12.8084134 ,Left ,59,8283135230793 ,50,6106832377523 ,58,1268647246559
12.830967 ,Left ,59,8562731688448 ,50,5687129090463 ,58,1221412684225
12.8540784 ,Left ,59,8465853111818 ,50,5144615140237 ,58,1229100637433
12.8690437 ,Left ,59,8147702811919 ,50,5068482194589 ,58,1194213338281
12.8915936 ,Left ,59,7431408345998 ,50,5234986503995 ,58,1175863868898
12.91383 ,Left ,59,7408593003499 ,50,5388369349567 ,58,0969499697475
12.9513201 ,Left ,59,8986884104834 ,50,5573678150969 ,58,1313935960945
12.9740279 ,Left ,59,9629811815737 ,50,5771384729015 ,58,1508430938977
13.0189976 ,Left ,59,9904509669493 ,50,5500600709517 ,58,1404872579248
13.0414788 ,Left ,59,9953979686893 ,50,5208018833086 ,58,1418815689603
13.0712338 ,Left ,59,9326346255107 ,50,5811181508427 ,58,1150497883565
13.0933364 ,Left ,59,9402908744439 ,50,6037969291884 ,58,1105906116109
13.1315757 ,Left ,60,0847564965868 ,50,5638208917262 ,58,1208372893628
13.1542894 ,Left ,60,0825052787308 ,50,5924979126069 ,58,1260016072888
13.1912294 ,Left ,60,0821738768372 ,50,6705842890016 ,58,1265002292784
13.2138571 ,Left ,60,0963638399547 ,50,7198299876149 ,58,1340272876634
13.2512017 ,Left ,59,974306683051 ,50,7528642863905 ,58,1337631477977
13.2736216 ,Left ,59,9362722017823 ,50,7530092343401 ,58,1508563449543
13.3117329 ,Left ,59,9447439803649 ,50,6522747187194 ,58,1481906592454
13.3343305 ,Left ,59,8895420445531 ,50,6538465109005 ,58,1407639676418
13.3715775 ,Left ,59,8470993864386 ,50,85857554437 ,58,0957287296017
13.3933181 ,Left ,59,9024422924153 ,50,9299332516634 ,58,0999438760932
13.4312488 ,Left ,59,9396235235874 ,50,9285967156776 ,58,0803577730331
13.4536288 ,Left ,59,8719487138515 ,50,9216342909815 ,58,0558012445135
13.491153 ,Left ,59,8716324231962 ,50,8373713933225 ,57,98831806993
13.5135889 ,Left ,59,8811047455291 ,50,7913179647848 ,57,9932801743629
13.5512207 ,Left ,59,8107489473293 ,50,6851746391821 ,57,9702688901198
13.5735737 ,Left ,59,8119182218723 ,50,614321347089 ,57,9999730724173
13.6108704 ,Left ,59,882450664979 ,50,6529387301175 ,58,0554538640566
13.6483556 ,Left ,60,0341570952238 ,50,5782634677862 ,58,063456657773
13.6710246 ,Left ,60,0516885429364 ,50,4883667264384 ,58,0334122923354
13.7083978 ,Left ,60,1130119175246 ,50,3551634928542 ,57,99976920209
13.7309684 ,Left ,60,114800020593 ,50,4056898037218 ,57,9722051383315
13.7685838 ,Left ,60,1649703347043 ,50,442673597584 ,57,9114470993844
13.7912448 ,Left ,60,153532529935 ,50,3798144791198 ,57,963065809258
13.8282996 ,Left ,60,179625666016 ,50,3920332003736 ,58,0226264964358
13.8509251 ,Left ,60,2196225991155 ,50,4248259461567 ,58,0206010231509
13.8886773 ,Left ,60,2682031893938 ,50,3937744805046 ,58,0190319366392
13.9112866 ,Left ,60,2635971246205 ,50,3507621561365 ,58,0190926096414
13.9483894 ,Left ,60,252514689264 ,50,3484450247017 ,58,0213661521283
13.9709156 ,Left ,60,2154557166599 ,50,3674810474222 ,58,0241304719702
14.0083764 ,Left ,60,1866369241038 ,50,2834826544175 ,58,0185949191716
14.0309014 ,Left ,60,175912598866 ,50,251367096577 ,58,0153669799231
14.0683619 ,Left ,60,1303089869034 ,50,2599029694678 ,58,0244361560873
14.09092 ,Left ,60,1301459214346 ,50,2563596986445 ,58,029781262126
14.1283978 ,Left ,60,1208426149674 ,50,2524970652355 ,58,0550148063005
14.1513769 ,Left ,60,0920079430974 ,50,2630176476262 ,58,0577834306794
14.1890597 ,Left ,60,0666926004911 ,50,2619236014017 ,58,0362235114747
14.2113408 ,Left ,60,0526036045404 ,50,2496407184847 ,58,0329604123525
14.2339646 ,Left ,60,0526036045404 ,50,2496407184847 ,58,0329604123525
14.2488192 ,Left ,60,0549823805846 ,50,2644131661707 ,58,0381604022165
14.2636266 ,Left ,60,0568286273071 ,50,2897026922384 ,58,0358596566513
14.2862684 ,Left ,60,0594244029551 ,50,3139987023957 ,58,0379860629357
14.3089073 ,Left ,60,0599912640434 ,50,3157884199037 ,58,0386569831684
14.3237203 ,Left ,60,0620835688276 ,50,3175340209863 ,58,0370698411353
14.3464231 ,Left ,60,0659737712545 ,50,3243577711607 ,58,0336097445328
14.3688844 ,Left ,60,0329443849277 ,50,3543536296867 ,58,0255674257983
14.3837802 ,Left ,60,0215929521291 ,50,4070515421899 ,58,0078988896734
14.40582 ,Left ,60,026153170156 ,50,468936486129 ,58,0162232579235
14.4284367 ,Left ,60,0049893359699 ,50,5106360475741 ,58,0340518313618
14.443556 ,Left ,59,9767670949298 ,50,4753817556951 ,58,0344046614335
14.465893 ,Left ,59,9459878046417 ,50,4218269541485 ,58,0350083361406
14.4884244 ,Left ,59,9322302183921 ,50,4370960884411 ,58,0451412305161
14.5033503 ,Left ,59,9230093653198 ,50,4877583638632 ,58,0522710714579
14.5262332 ,Left ,59,9773363559346 ,50,5086593783273 ,58,0560612251603
14.5488311 ,Left ,60,0050516129455 ,50,4543242886329 ,58,0576158467758
14.563543 ,Left ,60,0053292248346 ,50,4012424671859 ,58,0719868675651
14.586325 ,Left ,59,9439486633842 ,50,3846386240286 ,58,0731269794423
14.6084046 ,Left ,59,8328892965368 ,50,4221594498324 ,58,0640960918628
14.6235933 ,Left ,59,8431951740003 ,50,460154885463 ,58,0227241544486
14.6461338 ,Left ,59,9417183656449 ,50,4683390599373 ,58,0181239513571
14.6690226 ,Left ,60,0258664023244 ,50,451505457208 ,58,037891161934
14.6839889 ,Left ,60,0287776725868 ,50,4519764081918 ,58,0466267626556
14.7061108 ,Left ,59,9672221790494 ,50,4462595406742 ,58,0346110364338
14.72878 ,Left ,59,9887546606904 ,50,4342736648798 ,58,0285532755513
14.7438757 ,Left ,59,9821517252027 ,50,4427858173675 ,58,0263397499358
14.7661038 ,Left ,59,9657001755777 ,50,4938016853394 ,57,9994708542795
14.7891 ,Left ,59,9716890012206 ,50,548029490327 ,58,0029897584796
14.8039947 ,Left ,60,0739095527208 ,50,5984946519645 ,58,0088715192335
14.8264084 ,Left ,60,1129107272253 ,50,6000553180002 ,58,013532099084
14.8489734 ,Left ,60,102880269945 ,50,6019060057972 ,58,0151173184866
14.8636715 ,Left ,60,1060223049804 ,50,605618441742 ,58,0146486616513
14.8861633 ,Left ,60,0569165373394 ,50,6105843881407 ,58,0174667461842
14.9084448 ,Left ,60,0598303574828 ,50,6447025765716 ,58,0205924493279
14.9236559 ,Left ,60,0668506353307 ,50,6973792229583 ,58,0156141687877
14.9458228 ,Left ,60,0425283460424 ,50,7162222061878 ,57,9962294568986
14.9691014 ,Left ,60,0100736881055 ,50,7077374055655 ,57,9689593248531
14.9840036 ,Left ,59,9563148601416 ,50,7177631708917 ,57,9729372767243
15.0063164 ,Left ,59,9230251299816 ,50,7079009700809 ,57,9829037394673
15.0284366 ,Left ,59,9049047706164 ,50,6490801217431 ,57,9765855357277
15.0433824 ,Left ,59,9183171139839 ,50,6034927907629 ,57,9567677146366
15.0661066 ,Left ,59,8871628216748 ,50,6566822566175 ,57,9268425442565
15.0884823 ,Left ,59,8721168456961 ,50,7478519273127 ,57,9171661092223
15.1036375 ,Left ,59,9212271462022 ,50,7997078755556 ,57,935120513064
15.12596 ,Left ,59,9478805614132 ,50,8029539573258 ,57,9581227960352
15.1487121 ,Left ,59,9797694099165 ,50,7987193351081 ,57,9726917504734
15.1636418 ,Left ,59,9617390234492 ,50,8044326334466 ,57,9683276254118
15.1860268 ,Left ,59,9446420342272 ,50,8098972890332 ,57,9515330842621
15.2087028 ,Left ,59,9519129441103 ,50,7957080219616 ,57,9370772559573
15.2235025 ,Left ,59,9635323747949 ,50,7469931751989 ,57,9286218061818
15.2462559 ,Left ,59,9793573232695 ,50,681289354182 ,57,9232912272392
15.2686266 ,Left ,59,9765246798837 ,50,6408553236085 ,57,9140789532627
15.2833727 ,Left ,59,9561403001197 ,50,61476516587 ,57,9054630877019
15.3059151 ,Left ,59,9282337470298 ,50,5863357264128 ,57,8700931356421
15.3284195 ,Left ,59,9287436736877 ,50,5350577847725 ,57,8386747512567
15.3508577 ,Left ,59,9379754126469 ,50,4776731490247 ,57,8211394068045
15.3658566 ,Left ,59,9036966725391 ,50,4817843949982 ,57,8274525939049
15.3886007 ,Left ,59,8366533817228 ,50,5309262869683 ,57,830561325004
15.4108801 ,Left ,59,8392498764792 ,50,5673476619287 ,57,8468390125646
15.4258936 ,Left ,59,8920459802325 ,50,5594645268895 ,57,8704641014913
15.4483081 ,Left ,59,966943037073 ,50,5130254776164 ,57,8984296171525
15.4711343 ,Left ,60,0099125016542 ,50,4510512330695 ,57,9201965812138
15.4860819 ,Left ,60,0661040846755 ,50,4215085745795 ,57,92840994877
15.508606 ,Left ,60,1120732218206 ,50,3845414789178 ,57,9353838870677
15.5311983 ,Left ,60,1417039615674 ,50,3586484769528 ,57,9401691368845
15.5462315 ,Left ,60,1395351592731 ,50,3594021239221 ,57,934127585376
15.5689888 ,Left ,60,1700099838805 ,50,3594787459285 ,57,9030540885163
15.5917013 ,Left ,60,1910842803869 ,50,338949203518 ,57,8667432170836
15.6064546 ,Left ,60,2027243803864 ,50,3217381623744 ,57,8386516420518
15.6290335 ,Left ,60,2004377167231 ,50,3230827759779 ,57,830622149515
15.651869 ,Left ,60,1910737300146 ,50,3448031722536 ,57,8094113944982
15.6661307 ,Left ,60,1905163971798 ,50,3489941803866 ,57,8110073093811
15.6884937 ,Left ,60,1370758670773 ,50,3592514893517 ,57,8450603216307
15.7109599 ,Left ,60,1512163829586 ,50,4012845763513 ,57,8602718364417
15.7259232 ,Left ,60,1445089659695 ,50,4280197314707 ,57,8688081472818
15.748411 ,Left ,60,1906652618816 ,50,4599425391483 ,57,871151306598
15.7786402 ,Left ,60,1940216007575 ,50,4952616314816 ,57,8770037763436
15.7936117 ,Left ,60,2394725317837 ,50,516166278811 ,57,8759784577879
15.8162616 ,Left ,60,2480935453109 ,50,5018276444519 ,57,8740114682718
15.8464442 ,Left ,60,2146604593835 ,50,4837297592838 ,57,8584117543112
15.8689476 ,Left ,60,1921007101211 ,50,4646882023164 ,57,8498337032099
15.8914531 ,Left ,60,2088755005868 ,50,4503521627903 ,57,8425090923932
15.9060789 ,Left ,60,2117282340835 ,50,4410767812503 ,57,8351758153775
15.9283252 ,Left ,60,2005725527698 ,50,4370835142545 ,57,8371299046464
15.9517195 ,Left ,60,1966908251059 ,50,4260766970583 ,57,8478302644468
15.9664116 ,Left ,60,1853581228409 ,50,4065623598402 ,57,8505470341471
15.9886152 ,Left ,60,1865927172978 ,50,3994308267893 ,57,858931593718
16.011131 ,Left ,60,1805565631134 ,50,4030555361949 ,57,8723485024278
16.0259519 ,Left ,60,1776634128403 ,50,4003639876027 ,57,8751212986375
16.048381 ,Left ,60,1713169315764 ,50,3871645205665 ,57,8831225578221
16.0709882 ,Left ,60,1644527127869 ,50,3760016608249 ,57,8890301588233
16.0859545 ,Left ,60,1653925300532 ,50,3659117032847 ,57,9007471860941
16.1087378 ,Left ,60,161845251712 ,50,3598158354118 ,57,9025635748573
16.131314 ,Left ,60,1419279594168 ,50,3565996145125 ,57,9016910568296
16.1457143 ,Left ,60,1217941148455 ,50,3602392731688 ,57,9049859497907
16.1690143 ,Left ,60,122741392382 ,50,3684722826507 ,57,9122132670725
16.1914835 ,Left ,60,1391209495731 ,50,3838998945345 ,57,9104127305948
16.2061034 ,Left ,60,1618890898388 ,50,3920010555325 ,57,9068128256172
16.228503 ,Left ,60,1583151181429 ,50,3903476741454 ,57,8954151356515
16.2508458 ,Left ,60,1634397982694 ,50,3800277461263 ,57,8902359738338
16.2658652 ,Left ,60,1723941740518 ,50,3929502186355 ,57,882769740942
16.2883327 ,Left ,60,143046432726 ,50,4195514454534 ,57,8763723379416
16.3110283 ,Left ,60,124576414066 ,50,4512851661657 ,57,8639744052886
16.3409631 ,Left ,60,0976781458574 ,50,5005402982152 ,57,8692488506845
16.3558221 ,Left ,60,1130218185699 ,50,5385568079091 ,57,8833559021611
16.3784485 ,Left ,60,073731299442 ,50,5319753532238 ,57,8877044892529
16.3934887 ,Left ,60,0436638791244 ,50,5024561923557 ,57,8920317983867
16.4088182 ,Left ,59,9979723421803 ,50,5262055173092 ,57,8996068209299
16.4313359 ,Left ,59,9795465671497 ,50,6158723415455 ,57,9040783141264
16.4539361 ,Left ,60,0070749724424 ,50,6746154467175 ,57,9029222102426
16.4687444 ,Left ,60,0216765442263 ,50,6537832545683 ,57,8913559711868
16.4910092 ,Left ,60,0231126262266 ,50,5695790944215 ,57,8950704816477
16.5136127 ,Left ,59,9843329354049 ,50,5181188937093 ,57,8892856247983
16.5286817 ,Left ,59,8862575995072 ,50,5421241986146 ,57,8769791445911
16.5508676 ,Left ,59,8779325745252 ,50,5879692056131 ,57,8447158792663
16.5736273 ,Left ,59,9565582350751 ,50,6119932050006 ,57,8140428010055
16.588486 ,Left ,59,9983252551845 ,50,5594144553387 ,57,840904190961
16.6112797 ,Left ,60,0419623894412 ,50,521678657238 ,57,8666683246951
16.633812 ,Left ,60,0193652138725 ,50,4987905044021 ,57,8694299306916
16.6486464 ,Left ,60,0672233621869 ,50,456668382852 ,57,8454128443315
16.6715559 ,Left ,60,0540945531469 ,50,4528644543735 ,57,8281775835825
16.6936901 ,Left ,60,0168460243599 ,50,5356437812442 ,57,8099057570733
16.7086727 ,Left ,60,0654672696444 ,50,6326997646409 ,57,7982359385338
16.7314786 ,Left ,60,1204263728325 ,50,6743608647443 ,57,8178511342603
16.7539637 ,Left ,60,1654997929586 ,50,6764624470763 ,57,8421120697193
16.7686806 ,Left ,60,1408448694402 ,50,7129954844046 ,57,8390874224228
16.7910046 ,Left ,60,1476828128979 ,50,7739245432412 ,57,8349299704004
16.8135655 ,Left ,60,1314557305605 ,50,8054337773504 ,57,8417512667214
16.8283503 ,Left ,60,1699022462599 ,50,8114581617893 ,57,8331312012186
16.8514891 ,Left ,60,1883617202453 ,50,8481212407877 ,57,8370399495613
16.8741354 ,Left ,60,1635459889752 ,50,9169981572409 ,57,8322109093801
16.89668 ,Left ,60,1200519634444 ,50,9292768610588 ,57,8273929502865
16.9263188 ,Left ,60,067175355973 ,50,8821861427632 ,57,8225280516111
16.9560774 ,Left ,59,9838487709687 ,50,7930438949747 ,57,8282205961514
16.978368 ,Left ,59,9490126587 ,50,7496653568257 ,57,8248688667297
16.9935209 ,Left ,59,9525564238903 ,50,6996627762522 ,57,8004352415152
17.008678 ,Left ,59,9439700179728 ,50,6849608792009 ,57,7737327585948
17.0307406 ,Left ,59,9005973156772 ,50,6933568379101 ,57,7804667173348
17.0536743 ,Left ,59,9029957412449 ,50,7126090014516 ,57,7974445684635
17.0759441 ,Left ,59,9668832283286 ,50,7364048471161 ,57,8266434519938
17.0910003 ,Left ,60,0070792075696 ,50,7434001865762 ,57,8330600243905
17.1136416 ,Left ,59,989625921881 ,50,7051713041272 ,57,8207287469542
17.1282208 ,Left ,60,0121490945817 ,50,6647150050075 ,57,8119418229248
17.1515081 ,Left ,59,9957973199376 ,50,6653340569075 ,57,7956626444193
17.1740413 ,Left ,60,0148864101389 ,50,6837934504125 ,57,7701729849153
17.1890251 ,Left ,60,0389195919239 ,50,6720507637575 ,57,7286096916412
17.2114458 ,Left ,60,0741755388538 ,50,644211728706 ,57,6854204008997
17.2338033 ,Left ,60,065162992539 ,50,6318968210146 ,57,6507647813644
17.2561121 ,Left ,60,0287786935762 ,50,6299444144017 ,57,6256448276905
17.2709932 ,Left ,60,0012334620141 ,50,6051785487009 ,57,6040302617443
17.2937378 ,Left ,60,0010001515807 ,50,5724943545735 ,57,5955906944199
17.3159811 ,Left ,59,9879511284601 ,50,5290229767662 ,57,5756140340511
17.3312001 ,Left ,59,9314584969822 ,50,5072504086305 ,57,5673746502507
17.3540785 ,Left ,59,8666463668554 ,50,5354305728873 ,57,5811490393803
17.3767227 ,Left ,59,8340353646547 ,50,5562320755329 ,57,6055661700683
17.3915114 ,Left ,59,8645689502781 ,50,5648795250083 ,57,6155919955332
17.4141273 ,Left ,59,9195842319274 ,50,5549321246997 ,57,6048827596336
17.4438074 ,Left ,59,9401245613453 ,50,4943781417172 ,57,6019173817056
17.4586118 ,Left ,59,965362332703 ,50,4021262857805 ,57,6013394706594
17.4809211 ,Left ,60,0113686883147 ,50,3207838759451 ,57,5854080260967
17.5112684 ,Left ,60,0442727395591 ,50,2834758943041 ,57,5905065535291
17.5337251 ,Left ,60,0477866224505 ,50,3345528268132 ,57,5804684761372
17.5635073 ,Left ,60,0172223795317 ,50,3581254079994 ,57,5497638285847
17.5786265 ,Left ,60,0284965211042 ,50,3669120693192 ,57,513597573237
17.6011736 ,Left ,60,0193780817715 ,50,3729333926802 ,57,554929494861
17.6160647 ,Left ,60,0423600491053 ,50,401794749872 ,57,5916622181415
17.6308302 ,Left ,60,0704978169852 ,50,4588352552781 ,57,6087578389601
17.6535087 ,Left ,60,1109244314948 ,50,5003798992087 ,57,6138831096942
17.6759011 ,Left ,60,1215468734751 ,50,4824199178344 ,57,6213048791395
17.6909703 ,Left ,60,16086506969 ,50,4513612063057 ,57,6294224506155
17.7135587 ,Left ,60,1694734156742 ,50,4101302920374 ,57,627096937951
17.7359171 ,Left ,60,2070486265312 ,50,3843953461285 ,57,6261082226614
17.750883 ,Left ,60,2058540441863 ,50,3715795540222 ,57,6218990956537
17.773371 ,Left ,60,1826930491117 ,50,3751574942749 ,57,6144887607235
17.7962006 ,Left ,60,1688233587123 ,50,3535218247847 ,57,633540403157
17.8111189 ,Left ,60,1695888219177 ,50,3285056117955 ,57,6440026567616
17.8411048 ,Left ,60,1799747207438 ,50,2977367658402 ,57,6538473460715
17.8634239 ,Left ,60,1806910814861 ,50,2752383185783 ,57,656741068787
17.8783757 ,Left ,60,1599797124707 ,50,2671077905144 ,57,6585630067788
17.8933069 ,Left ,60,139210194492 ,50,264665182781 ,57,6685272765813
17.9159524 ,Left ,60,1271181778142 ,50,2596185775418 ,57,6869375513516
17.9308768 ,Left ,60,1213140119701 ,50,2434597230008 ,57,7147275470929
17.9535912 ,Left ,60,120480519654 ,50,2317744098161 ,57,7381660281505
17.9762029 ,Left ,60,1080056527858 ,50,2285227338702 ,57,7506278020371
17.9909388 ,Left ,60,0901470349752 ,50,2253560976078 ,57,7480095832952
18.0137414 ,Left ,60,0906552818701 ,50,2195374177488 ,57,7461544066065
18.0361233 ,Left ,60,0997547325345 ,50,2059793480113 ,57,7426128532054
18.0512895 ,Left ,60,0980101377254 ,50,1910777039983 ,57,7437003124383
18.073499 ,Left ,60,1054841012003 ,50,1930591959896 ,57,7513209591124
18.0959116 ,Left ,60,1127034910339 ,50,2097945000314 ,57,7597222641044
18.1111798 ,Left ,60,1213904663582 ,50,2347075557604 ,57,7664233195868
18.1261992 ,Left ,60,1292753639683 ,50,2551488438799 ,57,7699251944765
18.1485282 ,Left ,60,1298220543301 ,50,256940695987 ,57,7705943928859
18.1637867 ,Left ,60,1430410919519 ,50,2630290328293 ,57,761093648684
18.1858734 ,Left ,60,1292280568885 ,50,25765546906 ,57,7623293848747
18.208536 ,Left ,60,1372269023266 ,50,2538091966858 ,57,7681089077667
18.2232683 ,Left ,60,1468947950556 ,50,2594751956556 ,57,7685841974972
18.2460904 ,Left ,60,1163485980025 ,50,2924849180616 ,57,7558568068623
18.2684856 ,Left ,60,0906413596799 ,50,3561462893747 ,57,7406363072822
18.2834529 ,Left ,60,0934751799231 ,50,4144511248088 ,57,7476479010902
18.3062844 ,Left ,60,0645186411882 ,50,4388828119583 ,57,7530825258685
18.3286891 ,Left ,60,0440673163086 ,50,3977586848068 ,57,7585889580434
18.3659516 ,Left ,59,963601126855 ,50,4382261056073 ,57,7789603783886
18.3884773 ,Left ,59,9783771915246 ,50,5058832040468 ,57,7943393255285
18.4034594 ,Left ,60,0384684843005 ,50,5279256285021 ,57,7966042353099
18.4261496 ,Left ,60,0383164740201 ,50,4678981085826 ,57,8000011316309
18.4484163 ,Left ,60,0087409992074 ,50,3948467697959 ,57,7942558532297
18.4635304 ,Left ,59,9443570985923 ,50,3785995227179 ,57,776828353334
18.48614 ,Left ,59,9031137516367 ,50,4285078635229 ,57,76390990622
18.5084272 ,Left ,59,9826988909912 ,50,4896846500747 ,57,7093964840402
18.5233661 ,Left ,60,0602547408995 ,50,5007170693686 ,57,7014427163497
18.5459327 ,Left ,60,0958005433454 ,50,4997285753628 ,57,723487075742
18.5684866 ,Left ,60,1192669491305 ,50,5148593196283 ,57,7307920104506
18.5834826 ,Left ,60,0640428856136 ,50,5094613871091 ,57,717353200315
18.606341 ,Left ,60,1223757654958 ,50,4690362549439 ,57,7074951055432
18.6287217 ,Left ,60,1579753862582 ,50,4440060013407 ,57,7258335150979
18.6667035 ,Left ,60,0239283661679 ,50,6046666262784 ,57,7069791045665
18.6888498 ,Left ,60,1165912675458 ,50,6304777294885 ,57,6829268601125
18.7262526 ,Left ,60,2227669755274 ,50,581357960258 ,57,6706781847869
18.7486887 ,Left ,60,1033407875489 ,50,6149454228858 ,57,6552153903501
18.7861313 ,Left ,60,094473088005 ,50,6762083385957 ,57,6622652431474
18.808292 ,Left ,60,0872349289489 ,50,7009222441344 ,57,6359333078109
18.8462307 ,Left ,59,9416186788436 ,50,6892749143095 ,57,676300254484
18.8685074 ,Left ,59,9388443355509 ,50,6761954017369 ,57,6802296635027
18.9061348 ,Left ,59,9275506415789 ,50,6767118082519 ,57,6328211688578
18.9284456 ,Left ,59,8837103669572 ,50,7825493095632 ,57,5981115338408
18.9658263 ,Left ,59,8720284769574 ,50,9178059592086 ,57,5843228905092
18.9885103 ,Left ,59,8924041412413 ,50,9350066130058 ,57,575518117563
19.0262006 ,Left ,59,8573411915688 ,50,8679408659676 ,57,5206312082819
19.0485983 ,Left ,59,8664557852417 ,50,8234280820187 ,57,4943891461683
19.0860076 ,Left ,59,8403946161596 ,50,7452087251786 ,57,4684585906989
19.1085273 ,Left ,59,8463528126981 ,50,7003402842048 ,57,4522157575239
19.1462682 ,Left ,59,7930682671368 ,50,551313140861 ,57,4513179256748
19.1687578 ,Left ,59,8145778783123 ,50,5494218502159 ,57,4822050051048
19.2061404 ,Left ,59,9015416519512 ,50,6839076294381 ,57,4775530052164
19.2284709 ,Left ,59,9693058105657 ,50,6305739731187 ,57,4898052483491
19.2661895 ,Left ,60,1558827830505 ,50,4166096547074 ,57,5081589719112
19.2885592 ,Left ,60,2013478078455 ,50,4049242423027 ,57,4852977658145
19.3258816 ,Left ,60,1759278097995 ,50,6012679471534 ,57,4244848278675
19.3483816 ,Left ,60,1973951540829 ,50,6513166217011 ,57,4309398183058
19.3859774 ,Left ,60,1384867548035 ,50,5367765041617 ,57,4813304544903
19.4084537 ,Left ,60,1407688053547 ,50,4942487088746 ,57,5012017897989
19.4462113 ,Left ,60,1947811717601 ,50,5484635122431 ,57,5538556279677
19.4686814 ,Left ,60,2338278573286 ,50,5618790026381 ,57,5748162046742
19.5059091 ,Left ,60,2276786887505 ,50,5227816861756 ,57,569375673762
19.5284086 ,Left ,60,2282570525936 ,50,4910451674394 ,57,569293851919
19.5661901 ,Left ,60,2076159503539 ,50,4746620122835 ,57,570335259914
19.5883255 ,Left ,60,171543867735 ,50,4515801924762 ,57,5632244671718
19.6261926 ,Left ,60,1451643218352 ,50,3828738827203 ,57,5736920969315
19.6641154 ,Left ,60,1230634032702 ,50,3738235780585 ,57,5855339120124
19.6867857 ,Left ,60,143334851845 ,50,3751828773763 ,57,5982477137683
19.7243339 ,Left ,60,1176998054926 ,50,3337432235588 ,57,6348874139591
19.7466252 ,Left ,60,1032066873646 ,50,3049663227452 ,57,6491298102739
19.7839132 ,Left ,60,0823579452244 ,50,2787744255993 ,57,674531570606
19.8061917 ,Left ,60,077517975627 ,50,2737231193899 ,57,6808921882169
19.8438454 ,Left ,60,0970189285552 ,50,2864421658675 ,57,6782263434655
19.866347 ,Left ,60,095058003153 ,50,3116258206299 ,57,6800712939742
19.9037491 ,Left ,60,1247075913799 ,50,3437908579101 ,57,6831234728877
19.9263948 ,Left ,60,139091043729 ,50,3450122773117 ,57,6803490183877
19.9636346 ,Left ,60,1290678732123 ,50,363230862275 ,57,6581918298157
19.9860516 ,Left ,60,1125473215279 ,50,3811017920724 ,57,6353052723992
20.0013031 ,Left ,60,1048818148141 ,50,3897916056518 ,57,620613519333
20.0238396 ,Left ,60,0828173885011 ,50,4070483394914 ,57,6095068009024
20.0383826 ,Left ,60,0743303904821 ,50,4477000216523 ,57,6137183615979
20.0609655 ,Left ,60,0398734076384 ,50,4796603757669 ,57,6065410916986
20.0840044 ,Left ,60,0365907817327 ,50,4704746599435 ,57,617931006464
20.099018 ,Left ,60,0019755718061 ,50,4732939449044 ,57,6219176941047
20.1215498 ,Left ,59,9510635481718 ,50,538030606134 ,57,6275228777776
20.1437935 ,Left ,59,9588947823758 ,50,6185639894347 ,57,6275734186821
20.1586382 ,Left ,60,0002184654673 ,50,6449373197958 ,57,6192284753412
20.181141 ,Left ,59,9972935822484 ,50,6166006108152 ,57,6180644441904
20.2038249 ,Left ,59,9767749064939 ,50,560148443129 ,57,6183999540653
20.2186951 ,Left ,59,9232146929149 ,50,5389100219225 ,57,5939073236902
20.2413863 ,Left ,59,8729690660373 ,50,5523824235589 ,57,5619028880924
20.2636202 ,Left ,59,8662812243589 ,50,5847051012253 ,57,5383146740891
20.2785303 ,Left ,59,9731921146174 ,50,5913821363361 ,57,5233265445935
20.3010208 ,Left ,60,038253537333 ,50,5463537993656 ,57,5505208616707
20.3234778 ,Left ,60,0624841920051 ,50,5065980081288 ,57,5774977894895
20.3384224 ,Left ,60,0560076439445 ,50,5005452810254 ,57,5686265363948
20.3611324 ,Left ,60,0945441896398 ,50,4619595951907 ,57,5427339965273
20.3834959 ,Left ,60,1192506036824 ,50,4527537747498 ,57,5398355579895
20.3985627 ,Left ,60,0861890544361 ,50,4947427130439 ,57,5254390184548
20.4210159 ,Left ,60,0630518323888 ,50,5824388248192 ,57,5186901167906
20.443758 ,Left ,60,1721314798761 ,50,6212506708823 ,57,5275299077877
20.4585486 ,Left ,60,2483996706597 ,50,6365058770455 ,57,5361562682197
20.4810943 ,Left ,60,2268874217822 ,50,6469249288235 ,57,5460345403702
20.5036807 ,Left ,60,1695589643288 ,50,6764267223332 ,57,5541838547651
20.5260827 ,Left ,60,1344960339432 ,50,6787045672693 ,57,5536174078852
20.5483619 ,Left ,60,140103668163 ,50,7084205075034 ,57,5557863025036
20.5712381 ,Left ,60,154940743949 ,50,7598004899959 ,57,5555814295992
20.5861482 ,Left ,60,1094057064629 ,50,7693789045151 ,57,5393552492724
20.6008582 ,Left ,60,0947893380477 ,50,7471135475647 ,57,5535060809504
20.6236499 ,Left ,60,013645313082 ,50,7317678378907 ,57,5759397725822
20.6386121 ,Left ,59,9872940543537 ,50,7159674764198 ,57,5447168850225
20.6609491 ,Left ,59,966116273384 ,50,7157626007004 ,57,5215977184997
20.6836584 ,Left ,59,9427647591614 ,50,7479224414757 ,57,5234744387355
20.6985718 ,Left ,59,9755071801304 ,50,8121423076266 ,57,5228351045252
20.7210793 ,Left ,59,9904828681061 ,50,860765109669 ,57,5110256451456
20.7437098 ,Left ,60,0088997583258 ,50,8759811292755 ,57,5096715206219
20.758558 ,Left ,59,9994233140313 ,50,8832975203346 ,57,5007010229739
20.7811695 ,Left ,59,9672811293853 ,50,8999303418133 ,57,4774572569492
20.8036735 ,Left ,59,9521321482258 ,50,8875734783146 ,57,4613690302768
20.8186115 ,Left ,59,9848597550111 ,50,8304188940136 ,57,4460857475171
20.8411773 ,Left ,59,9951397811264 ,50,7645877037877 ,57,4399793039531
20.8638004 ,Left ,59,9796286703743 ,50,7403257523398 ,57,4283229032948
20.8783374 ,Left ,59,9301019304271 ,50,7207125310759 ,57,4001744436054
20.9009244 ,Left ,59,9006804411905 ,50,654969223507 ,57,3905418830045
20.9233602 ,Left ,59,9439219510643 ,50,5837075299595 ,57,4111583523831
20.9383957 ,Left ,59,9808831581173 ,50,5776435989259 ,57,4169782352983
20.9609159 ,Left ,59,9989255168438 ,50,6016776953214 ,57,4139544066557
20.9834996 ,Left ,60,0253596210507 ,50,5973840811539 ,57,4151456976317
20.9986225 ,Left ,60,08975064521 ,50,5395196341027 ,57,4040723426039
21.0211453 ,Left ,60,1796801909846 ,50,4271664799828 ,57,3750677992738
21.0436373 ,Left ,60,2116657894226 ,50,3362143783102 ,57,3412757853065
21.0659007 ,Left ,60,1785844944661 ,50,3384208114531 ,57,3392181926031
21.0811488 ,Left ,60,1689014033733 ,50,3999504881836 ,57,3252723041004
21.1035716 ,Left ,60,1706400597067 ,50,419389409349 ,57,2709689362587
21.1258678 ,Left ,60,1400229890699 ,50,4008307464514 ,57,2136952730474
21.1409331 ,Left ,60,1283309233183 ,50,410110482656 ,57,2451806064409
21.1634837 ,Left ,60,1186401672666 ,50,4637921889177 ,57,2998532144492
21.1859429 ,Left ,60,1523125003166 ,50,5282025458614 ,57,3371031890094
21.2010607 ,Left ,60,2062603315161 ,50,5432874299092 ,57,3367284655966
21.2234322 ,Left ,60,2587201365123 ,50,5225879411025 ,57,3240921757888
21.2462482 ,Left ,60,2132970083268 ,50,4973167862024 ,57,3051609637256
21.2610733 ,Left ,60,2057498614712 ,50,4977846930476 ,57,2899540288127
21.2833496 ,Left ,60,2122823119333 ,50,49058497809 ,57,2881547308015
21.3061658 ,Left ,60,2035558443499 ,50,4622771668257 ,57,2903892791268
21.3209058 ,Left ,60,1644020889962 ,50,4279830770995 ,57,2943382673296
21.3435051 ,Left ,60,1153008024313 ,50,403996412536 ,57,3048430092175
21.3734843 ,Left ,60,0978655712869 ,50,3988255244057 ,57,3080669640555
21.3884398 ,Left ,60,0974720890149 ,50,3964409731195 ,57,3093794254526
21.4111365 ,Left ,60,1097188855752 ,50,3769733373319 ,57,3142743218751
21.4260233 ,Left ,60,126544607274 ,50,3650294751078 ,57,3203630966035
21.4408359 ,Left ,60,1214543353047 ,50,3661892531184 ,57,332775103315
21.463662 ,Left ,60,1008161235982 ,50,3629590069279 ,57,3446198576616
21.4862033 ,Left ,60,0811649816018 ,50,3391791816849 ,57,3538494014948
21.5010534 ,Left ,60,0765731423826 ,50,306251370369 ,57,3677416522788
21.5236247 ,Left ,60,0824008775737 ,50,2841538034821 ,57,3736237887315
21.5462376 ,Left ,60,0737618155474 ,50,2800475745485 ,57,3800530079778
21.5610809 ,Left ,60,0595892102367 ,50,2838749782837 ,57,3778502356571
21.5838436 ,Left ,60,0674337370756 ,50,2832130801076 ,57,3740626822546
21.6064396 ,Left ,60,0753434892163 ,50,2683085795386 ,57,3825978803672
21.6213714 ,Left ,60,1027655814683 ,50,2749700512896 ,57,393253862525
21.6435737 ,Left ,60,1265662566312 ,50,2915475065678 ,57,4029625808109
21.6661529 ,Left ,60,1135883174163 ,50,2958912266684 ,57,4116211759425
21.6812754 ,Left ,60,1263248568128 ,50,2860688166804 ,57,4138201137018
21.703423 ,Left ,60,127126662938 ,50,2670482551377 ,57,4265430292483
21.7262721 ,Left ,60,1245254928041 ,50,2777963495518 ,57,4403254165816
21.7487959 ,Left ,60,1145935495622 ,50,3173051167 ,57,435635713214
21.7634985 ,Left ,60,0894008145813 ,50,3674502084886 ,57,4164734321524
21.7861877 ,Left ,60,1056208961412 ,50,4215470078717 ,57,4063715606441
21.8008328 ,Left ,60,0511472155775 ,50,4698340502325 ,57,4193360780799
21.8236339 ,Left ,59,9956724021816 ,50,469594889469 ,57,4540956664654
21.8460105 ,Left ,59,9631559081084 ,50,4808117155572 ,57,4819879758259
21.8610489 ,Left ,59,9383484591618 ,50,5292608604656 ,57,4934246185356
21.8838281 ,Left ,59,9343533079603 ,50,5720098806492 ,57,4944936586575
21.906259 ,Left ,59,982279853477 ,50,5844209112469 ,57,4801522613042
21.9212754 ,Left ,60,0060325809772 ,50,5476346232846 ,57,4723822262795
21.9437242 ,Left ,59,9741351622579 ,50,5206144271122 ,57,469032785493
21.9663337 ,Left ,59,9136446091869 ,50,5182606715557 ,57,4602435063344
21.9886737 ,Left ,59,8361297034319 ,50,5292638265973 ,57,4505549160753
22.0036149 ,Left ,59,9060516679909 ,50,5635545133121 ,57,4367910613011
22.0263232 ,Left ,60,0113345441866 ,50,5496622359107 ,57,4357141631104
22.0487057 ,Left ,60,1046953404367 ,50,4985871590349 ,57,4424659227639
22.0635862 ,Left ,60,0901760849772 ,50,4518823365908 ,57,4338344609735
22.0863947 ,Left ,60,0937441953858 ,50,4371055783934 ,57,4188565722656
22.1087718 ,Left ,60,0762572096014 ,50,4979640732707 ,57,4121297705671
22.1236043 ,Left ,60,0667068485193 ,50,6158615427116 ,57,4063235450127
22.1461026 ,Left ,60,1093823540157 ,50,6957439849597 ,57,3886734728171
22.1763486 ,Left ,60,2247279227188 ,50,7187056530067 ,57,4123454494424
22.191375 ,Left ,60,26274921151 ,50,7464284703021 ,57,429826219178
22.2286932 ,Left ,60,1574999494359 ,50,8313612261467 ,57,4306855351276
22.2434441 ,Left ,60,1870414958238 ,50,8528860518652 ,57,4410664816448
22.265979 ,Left ,60,1938510590177 ,50,8601259800737 ,57,4713467092622
22.2884486 ,Left ,60,1554368934091 ,50,8435190695879 ,57,4847870546051
22.3037415 ,Left ,60,1045544048573 ,50,8162869907296 ,57,5020008609731
22.3260084 ,Left ,60,0662689913071 ,50,7874786137951 ,57,5071880580584
22.356036 ,Left ,60,0794576263442 ,50,7437210575413 ,57,4960654744848
22.3709668 ,Left ,60,0872998155134 ,50,7250184491513 ,57,490906035901
22.3934064 ,Left ,60,0333503847733 ,50,7497637685381 ,57,478910381503
22.4233164 ,Left ,60,0454895259566 ,50,8767479604262 ,57,4551854795988
22.4459458 ,Left ,60,0790876171485 ,50,8762095038965 ,57,4584287948618
22.4687224 ,Left ,60,1281255668455 ,50,8549499364378 ,57,4564457101574
22.4836229 ,Left ,60,1275549901344 ,50,8392696406308 ,57,44699574277
22.5065526 ,Left ,60,1149813952215 ,50,8071337820994 ,57,4242990469998
22.5289015 ,Left ,60,1350777016943 ,50,7588923220624 ,57,4041899252255
22.543556 ,Left ,60,1384570507892 ,50,7067367911806 ,57,3995304311085
22.5658509 ,Left ,60,1051695101894 ,50,6747108704946 ,57,3980183886895
22.5883728 ,Left ,60,0629161117204 ,50,6425389816963 ,57,3855249704536
22.6034577 ,Left ,60,0334662377995 ,50,5834238152727 ,57,3609081902529
22.6259646 ,Left ,60,0376960885317 ,50,5426033014833 ,57,3541448500167
22.6484524 ,Left ,59,9901035217969 ,50,5367279774826 ,57,3540231394539
22.6637113 ,Left ,59,9528547889131 ,50,5702648059312 ,57,3615779666538
22.6859446 ,Left ,59,9718446147521 ,50,5976593799828 ,57,3807845035303
22.7086877 ,Left ,60,0456141108983 ,50,58996033567 ,57,4041740058384
22.7236632 ,Left ,60,0809350993329 ,50,5264794675623 ,57,4114698103067
22.7461778 ,Left ,60,0981433150282 ,50,4635938395333 ,57,3985544730446
22.7685096 ,Left ,60,1147437156907 ,50,4096269916034 ,57,3779640554008
22.7835479 ,Left ,60,1556627306364 ,50,3679388871374 ,57,3554858422619
22.8059834 ,Left ,60,1741642376619 ,50,3398412440339 ,57,336954912355
22.8286654 ,Left ,60,1853496602185 ,50,3580063238746 ,57,3188457450947
22.8440956 ,Left ,60,1395521385663 ,50,4316060583471 ,57,2930224945146
22.8661563 ,Left ,60,1170050698834 ,50,4866061783493 ,57,2694667263971
22.8893329 ,Left ,60,1045017378838 ,50,4900924015457 ,57,2611030632794
22.9040039 ,Left ,60,1294047656136 ,50,4846561766119 ,57,2931668553067
22.9265052 ,Left ,60,1543427799044 ,50,5217509110736 ,57,3098404697918
22.948998 ,Left ,60,1648645314908 ,50,5428071398514 ,57,3221473914831
22.971397 ,Left ,60,1998069575428 ,50,5200814824217 ,57,3282725710881
22.9862593 ,Left ,60,2018164668063 ,50,4955124303849 ,57,3243284715562
23.008586 ,Left ,60,2046115192799 ,50,4664868768513 ,57,3149259444524
23.0311582 ,Left ,60,2040148086906 ,50,4408381073536 ,57,3043054049923
23.0458767 ,Left ,60,1959087449266 ,50,4204282916577 ,57,294461243313
23.068419 ,Left ,60,1939397078295 ,50,4084868272514 ,57,3009774577519
23.0910258 ,Left ,60,1821554814634 ,50,3935523128254 ,57,3032962154046
23.1059303 ,Left ,60,1785475134298 ,50,3692048273972 ,57,3032965007988
23.1285157 ,Left ,60,1809022090776 ,50,3527024747718 ,57,3062031728951
23.1513078 ,Left ,60,1797512828933 ,50,3404545595725 ,57,3000498448405
23.1662356 ,Left ,60,1593438991891 ,50,3134296465951 ,57,2869787447423
23.1884601 ,Left ,60,1609732253708 ,50,3112187772819 ,57,2864517515983
23.2109959 ,Left ,60,1502985273779 ,50,3256738055813 ,57,2944650131991
23.2260297 ,Left ,60,1277002638345 ,50,3387810194263 ,57,3096167071377
23.2487185 ,Left ,60,1169522973533 ,50,3205268616392 ,57,3340114627085
23.2709706 ,Left ,60,1292170365581 ,50,2797673274488 ,57,346672539685
23.2858821 ,Left ,60,1224996692647 ,50,2404909750098 ,57,3500523703512
23.3085377 ,Left ,60,0931408352921 ,50,2327752102292 ,57,3491108859687
23.3312225 ,Left ,60,0910354231848 ,50,2547351849221 ,57,3352899873994
23.3460353 ,Left ,60,0975835947634 ,50,2662977776419 ,57,3332153154836
23.3683991 ,Left ,60,1211819083332 ,50,2672361117972 ,57,3336165764148
23.3909046 ,Left ,60,1206858244572 ,50,2629329701831 ,57,3405038924745
23.4059367 ,Left ,60,1122391357711 ,50,2693907734243 ,57,3461404593928
23.4284888 ,Left ,60,1121765949394 ,50,2890282181816 ,57,338048878937
23.4508667 ,Left ,60,1404374382401 ,50,3074299155703 ,57,3254495101815
23.4661987 ,Left ,60,1285060442925 ,50,2914561849051 ,57,3255877507295
23.4884868 ,Left ,60,1307928993247 ,50,2825682605852 ,57,3310476063668
23.5108632 ,Left ,60,1073343230543 ,50,3051970025826 ,57,3365692339409
23.5259138 ,Left ,60,0899019551109 ,50,352116191745 ,57,3212044842288
23.5484546 ,Left ,60,0775753792014 ,50,3899624116231 ,57,2967652250901
23.5712581 ,Left ,60,0563216311166 ,50,3803853658706 ,57,2959006736052
23.5861719 ,Left ,60,035080018714 ,50,3546755347666 ,57,3129349637318
23.6088659 ,Left ,59,9636941705468 ,50,3817791951069 ,57,332410849443
23.6308531 ,Left ,59,9076807177264 ,50,4436116892213 ,57,3371289127156
23.6461183 ,Left ,59,9416927872581 ,50,4961796462313 ,57,3446093318948
23.6684283 ,Left ,59,9679084429415 ,50,5230059227623 ,57,3537462456578
23.6909437 ,Left ,59,9759626673514 ,50,5364274443954 ,57,3589925288634
23.7059699 ,Left ,59,9450837030653 ,50,5328183333819 ,57,3527808537953
23.7286484 ,Left ,59,9327076898303 ,50,519406048237 ,57,3240637239799
23.7513699 ,Left ,59,9754244390529 ,50,4819263999408 ,57,2927170298585
23.7661338 ,Left ,59,9770527129158 ,50,4320676217346 ,57,2978164535927
23.7885094 ,Left ,59,958597813859 ,50,4127450173561 ,57,2855323643192
23.8109545 ,Left ,59,9077306478442 ,50,4185693839615 ,57,2640362695469
23.8259394 ,Left ,59,9241557735503 ,50,4478435598571 ,57,2270084624336
23.8484601 ,Left ,59,9874268543137 ,50,457201974103 ,57,2314668963257
23.8712904 ,Left ,60,0466322979188 ,50,4770315816227 ,57,257820868929
23.9013057 ,Left ,59,9769193646277 ,50,5837192772467 ,57,2698706947406
23.9237253 ,Left ,60,0259606746824 ,50,6201946273337 ,57,2779697647266
23.9611803 ,Left ,60,0421017752709 ,50,5353821649933 ,57,308111721149
23.9838064 ,Left ,60,020961129401 ,50,5252308536409 ,57,3091314703066
24.0210083 ,Left ,59,9990927173782 ,50,5771192503581 ,57,2551096031039
24.0434278 ,Left ,60,0205957874259 ,50,5334006490496 ,57,2384638958468
24.0591999 ,Left ,60,0218171223822 ,50,4928934030506 ,57,2400346072054
24.0817285 ,Left ,59,9593908538066 ,50,5192910833337 ,57,2470684747659
24.1043859 ,Left ,59,9546598536217 ,50,5936488158031 ,57,254206397765
24.1191362 ,Left ,60,0171698693005 ,50,6251598003101 ,57,2619625076653
24.141196 ,Left ,60,0930796729529 ,50,6445554170891 ,57,2801047035211
24.1637538 ,Left ,60,0918662941518 ,50,6491475310527 ,57,2793241320174
24.1786482 ,Left ,60,1351754420553 ,50,6812978997467 ,57,279538530085
24.2017977 ,Left ,60,115926337967 ,50,7331509927092 ,57,27615551971
24.2242106 ,Left ,60,1126120595577 ,50,740071954573 ,57,2696605057684
24.2392622 ,Left ,60,0854999221138 ,50,6964027320527 ,57,2732442646551
24.2615615 ,Left ,60,0822858410844 ,50,6465317498106 ,57,2943526709677
24.2836808 ,Left ,60,0450428610296 ,50,6146375975885 ,57,2946881311492
24.3209741 ,Left ,59,9982281462357 ,50,618281319295 ,57,3228063245115
24.3434165 ,Left ,60,0076440402853 ,50,5636776762296 ,57,3162661450247
24.3886004 ,Left ,59,9593489424382 ,50,5045189691794 ,57,332211387522
24.4109087 ,Left ,59,9538843400327 ,50,5670832985512 ,57,3374948373051
24.4410182 ,Left ,60,043880930567 ,50,6637134390814 ,57,3529248421144
24.4636233 ,Left ,60,028541427601 ,50,6679988637234 ,57,3570353395909
24.5017283 ,Left ,60,0194354117975 ,50,6874716469482 ,57,3476841027449
24.5242642 ,Left ,60,0664124182397 ,50,6864369056692 ,57,3372979325598
24.5618948 ,Left ,60,0896342915533 ,50,6368175165696 ,57,3315395786792
24.5842697 ,Left ,60,0625223630646 ,50,618887482034 ,57,3144650633736
24.6211583 ,Left ,60,0485262329823 ,50,5947295925568 ,57,2696663426849
24.6436413 ,Left ,60,0213770778981 ,50,546528451571 ,57,2615288120932
24.6810095 ,Left ,59,9949946032991 ,50,5473493890083 ,57,2908029821677
24.703449 ,Left ,59,98734174577 ,50,6070655708894 ,57,2803895745916
24.7413833 ,Left ,60,1001589645714 ,50,5455218293015 ,57,2749617071787
24.7638791 ,Left ,60,1764706366417 ,50,4494173815586 ,57,2583439483123
24.8013823 ,Left ,60,2234222923983 ,50,3476492834313 ,57,1783120843782
24.8237717 ,Left ,60,1707190382774 ,50,4227836359488 ,57,0999931615397
24.86091 ,Left ,60,1742333247578 ,50,4350120986708 ,57,0603659042604
24.8842624 ,Left ,60,1903312651594 ,50,3655153053819 ,57,0890338435607
24.9211523 ,Left ,60,1512880368898 ,50,3941493070888 ,57,143359790423
24.9436677 ,Left ,60,180888615056 ,50,4524604086077 ,57,1571288633694
24.9809845 ,Left ,60,3006910842206 ,50,4355843410189 ,57,1830383416702
25.0036772 ,Left ,60,2779480585722 ,50,4037114924461 ,57,1745398069415
25.0410494 ,Left ,60,2401836362406 ,50,3663126086357 ,57,1544270653061
25.0634325 ,Left ,60,21312079441 ,50,366068625677 ,57,1602178558886
25.1011207 ,Left ,60,1684436626347 ,50,3525103285521 ,57,1624493520535
25.1236484 ,Left ,60,1514315873596 ,50,3512841522186 ,57,1646682275097
25.1612345 ,Left ,60,1536906040811 ,50,3337444096162 ,57,1653150605192
25.1843554 ,Left ,60,1601645537449 ,50,3204825038487 ,57,1762941542594
25.2217677 ,Left ,60,1168485741647 ,50,3246978097621 ,57,1739460599605
25.243894 ,Left ,60,0979156270344 ,50,3181938112735 ,57,1679868433837
25.281208 ,Left ,60,0936644600826 ,50,2613405849709 ,57,1720617845547
25.3034412 ,Left ,60,0756603862947 ,50,25652632471 ,57,1730336115767
25.3412886 ,Left ,60,0789503916699 ,50,2657751240215 ,57,1616782849595
25.3636162 ,Left ,60,0786864713924 ,50,2628015659863 ,57,1649714412802
25.4016201 ,Left ,60,084795053684 ,50,2790378314905 ,57,1686946379573
25.4236858 ,Left ,60,1004016371906 ,50,2949597414734 ,57,1606007239243
25.4609436 ,Left ,60,0986663205683 ,50,3022756161677 ,57,171166205297
25.4834717 ,Left ,60,0911948248882 ,50,3218154921233 ,57,1750489332321
25.5211313 ,Left ,60,067878758823 ,50,4058170810676 ,57,1650715009967
25.543471 ,Left ,60,0631169687172 ,50,4376603850012 ,57,1728583241878
25.5811082 ,Left ,60,0180715187341 ,50,4129861709613 ,57,2026546969843
25.6034563 ,Left ,59,9840151026924 ,50,4595304214505 ,57,2129328523295
25.6410228 ,Left ,60,0012020614466 ,50,568065762881 ,57,2354438026175
25.6637422 ,Left ,60,005783248461 ,50,5498357028621 ,57,2173731326877
25.7012859 ,Left ,60,0040911695433 ,50,4988118592295 ,57,1940933010887
25.731256 ,Left ,59,9691425479001 ,50,4798346484702 ,57,1594930235574
25.7536373 ,Left ,59,9359332092756 ,50,4846458553956 ,57,1227605104804
25.7762519 ,Left ,59,9092785131597 ,50,4778648601445 ,57,0973977613635
25.8069493 ,Left ,59,9636273634648 ,50,4652403076914 ,57,0853591565394
25.8218378 ,Left ,60,0144991346171 ,50,4319466259001 ,57,1082511071294
25.8445462 ,Left ,60,0632902962054 ,50,4403620647336 ,57,1193606215962
25.8589477 ,Left ,60,0572101222249 ,50,4846695823299 ,57,1230156117865
25.8737876 ,Left ,60,0510354354292 ,50,494230201523 ,57,1234812627355
25.8960098 ,Left ,60,0566592673328 ,50,4717017855643 ,57,1250907081951
25.9184836 ,Left ,60,0560159780115 ,50,4704814219389 ,57,1224534803516
25.933685 ,Left ,60,0384668133488 ,50,5233032440263 ,57,0942935112576
25.956097 ,Left ,59,9956301657707 ,50,5643592257786 ,57,0684898195622
25.9786137 ,Left ,60,0606300902514 ,50,5657182937269 ,57,0454595393107
25.9934089 ,Left ,60,0812393684318 ,50,560578798309 ,57,0540636805858
26.016194 ,Left ,60,0696059671802 ,50,5990911741064 ,57,059411055673
26.0384055 ,Left ,60,1022440006613 ,50,6584331566468 ,57,061156930065
26.0535119 ,Left ,60,1454329048784 ,50,7074413753481 ,57,0629328500774
26.0765527 ,Left ,60,1337444120087 ,50,7541453150293 ,57,0689642074077
26.0985016 ,Left ,60,1013960649455 ,50,762404986913 ,57,0792174082801
26.1134035 ,Left ,60,0807384514839 ,50,7519810668195 ,57,0862408750882
26.1359108 ,Left ,60,0459753153807 ,50,7490861647107 ,57,0798146676672
26.1585621 ,Left ,59,9865027578301 ,50,7582788055694 ,57,0916976239306
26.1736808 ,Left ,60,0130317322661 ,50,7044106999477 ,57,109797316593
26.1960863 ,Left ,60,0218411882637 ,50,6269021347342 ,57,1040655108841
26.2188803 ,Left ,59,9643805522921 ,50,6184022432309 ,57,0917743329493
26.2339073 ,Left ,59,886427372453 ,50,6878781617238 ,57,0714889423326
26.2560964 ,Left ,59,9274028777368 ,50,7767144752633 ,57,0666958580271
26.2786458 ,Left ,60,0094116237303 ,50,8360547628847 ,57,0757024812691
26.2936015 ,Left ,60,0652498715691 ,50,8610068914984 ,57,0768184407848
26.3163313 ,Left ,60,0661754115227 ,50,8747358197748 ,57,0732140219017
26.3388788 ,Left ,60,0367403852468 ,50,8899326222154 ,57,0584697795141
26.3538395 ,Left ,60,0578407128228 ,50,8913512771206 ,57,034040045019
26.3764142 ,Left ,60,0766219423724 ,50,86353124344 ,57,0161393071146
26.3988706 ,Left ,60,0728795956046 ,50,8114047315111 ,57,0171780569276
26.4137333 ,Left ,60,0742781126658 ,50,768394255916 ,57,0260546461619
26.4364088 ,Left ,60,0561775958797 ,50,7472002061977 ,57,0193606241482
26.458365 ,Left ,60,009334843907 ,50,7018792812367 ,56,9894022994507
26.4734853 ,Left ,59,9887353827721 ,50,6275949408246 ,56,9734956212914
26.4961375 ,Left ,60,0093821721696 ,50,5923161226342 ,56,9909299178692
26.5184286 ,Left ,60,0290016671556 ,50,6072058341043 ,57,0041348728986
26.5334317 ,Left ,60,0611996584668 ,50,6030709370106 ,57,0014951285942
26.5567411 ,Left ,60,0857112203011 ,50,5425081453023 ,56,9897560971913
26.5792706 ,Left ,60,1347404346848 ,50,4445561882012 ,56,9678844465629
26.5937255 ,Left ,60,166277490489 ,50,3366503745837 ,56,9367416797704
26.6163025 ,Left ,60,1707945940893 ,50,3354946766347 ,56,8928048032914
26.6388955 ,Left ,60,1477095663105 ,50,4125203519577 ,56,8389686501463
26.6536771 ,Left ,60,1729987476225 ,50,4495761044553 ,56,7928578867138
26.6762796 ,Left ,60,1827609787558 ,50,415831505992 ,56,7489631412851
26.6990104 ,Left ,60,1826853116971 ,50,3764969879314 ,56,7736224456368
26.7213009 ,Left ,60,2013079689315 ,50,3877183331352 ,56,8165922067674
26.7365105 ,Left ,60,2207430395077 ,50,4640582761536 ,56,8458915226729
26.7590462 ,Left ,60,2456673718629 ,50,5026589460841 ,56,8652030330969
26.7814236 ,Left ,60,3125143911266 ,50,5125282521712 ,56,8619150156721
26.7964174 ,Left ,60,3037313249887 ,50,5043873982418 ,56,8541916185482
26.8188408 ,Left ,60,2821851376573 ,50,4966137403665 ,56,8413820902706
26.8412288 ,Left ,60,2837553933563 ,50,4880273103349 ,56,8343788549318
26.8558068 ,Left ,60,2627412758693 ,50,4881374040344 ,56,8345888687428
26.8784618 ,Left ,60,2374068977422 ,50,4876588287906 ,56,8533515338284
26.9009374 ,Left ,60,216478125843 ,50,4827218418707 ,56,868558452893
26.9162425 ,Left ,60,1931100503994 ,50,4531248422135 ,56,8711222196636
26.9386536 ,Left ,60,1883186612588 ,50,4191467111363 ,56,876270406083
26.9611268 ,Left ,60,1855093948496 ,50,402690075152 ,56,8892266191867
26.9762596 ,Left ,60,1945566878325 ,50,4001314979362 ,56,9038022549123
26.9984763 ,Left ,60,2033372331097 ,50,3971028533459 ,56,9141393253679
27.0211239 ,Left ,60,198712694416 ,50,3817815673828 ,56,9253496897034
27.0362102 ,Left ,60,1864655051487 ,50,3613283515078 ,56,9322349413586
27.0584895 ,Left ,60,1713917255346 ,50,3495907797981 ,56,933357512654
27.0811371 ,Left ,60,1465082656558 ,50,3504359829072 ,56,9396175883478
27.0963049 ,Left ,60,1491556943089 ,50,351846238402 ,56,9404181690583
27.1187489 ,Left ,60,1373768808448 ,50,3443901810433 ,56,9453009509206
27.1409014 ,Left ,60,1446481221641 ,50,3359591379538 ,56,9536429372361
27.1559305 ,Left ,60,138790488234 ,50,3367012566463 ,56,9555558768928
27.1785966 ,Left ,60,1243980094055 ,50,3479545803965 ,56,955854357172
27.2015601 ,Left ,60,1247727850115 ,50,3503465521638 ,56,9545493436577
27.2165386 ,Left ,60,1378292506628 ,50,353208460063 ,56,9504424650182
27.2390508 ,Left ,60,1444268797692 ,50,3530899698046 ,56,9531282862152
27.2613445 ,Left ,60,1444268797692 ,50,3530899698046 ,56,9531282862152
27.2760178 ,Left ,60,1400694321647 ,50,3634026103849 ,56,9498246520647
27.2984725 ,Left ,60,1366033241462 ,50,3753995826773 ,56,953389538656
27.3210672 ,Left ,60,1569792161694 ,50,3899455682545 ,56,9538731869864
27.3359962 ,Left ,60,141777645446 ,50,3788092309384 ,56,9530284937231
27.3590753 ,Left ,60,1361053260031 ,50,3735965539883 ,56,9527260763496
27.3813538 ,Left ,60,1198640005015 ,50,3913510421153 ,56,955436133323
27.3962108 ,Left ,60,0831471706119 ,50,437601784492 ,56,9464381667993
27.418384 ,Left ,60,0714227568103 ,50,4910620137703 ,56,937942199519
27.4412137 ,Left ,60,0381297255113 ,50,5151011115607 ,56,945258239244
27.4561352 ,Left ,60,0173911510625 ,50,50519248479 ,56,9505321918757
27.4784285 ,Left ,59,9930804594649 ,50,5244378359885 ,56,9587932042162
27.5012352 ,Left ,59,9748604962798 ,50,5694991205231 ,56,9677491920288
27.5161544 ,Left ,60,0104127736677 ,50,5837558243643 ,56,9777572243156
27.5385784 ,Left ,60,0329065915271 ,50,5753119790684 ,56,9897781141267
27.5611017 ,Left ,60,0195706020788 ,50,5398856628164 ,57,0039440439625
27.5762821 ,Left ,59,9846785179084 ,50,5339289813034 ,57,0010776850128
27.5987429 ,Left ,59,9443544584939 ,50,546384885555 ,56,9888338532038
27.6211041 ,Left ,59,9070493736447 ,50,5764592768805 ,56,9599196638299
27.6360505 ,Left ,59,9984097006455 ,50,5947528504091 ,56,9322542426862
27.6587521 ,Left ,60,0645808662797 ,50,5682777998507 ,56,9441604942628
27.6809012 ,Left ,60,0663943058265 ,50,5559750751014 ,56,9486356977064
27.7034527 ,Left ,60,0410118596548 ,50,5558837130255 ,56,9462889307711
27.7183683 ,Left ,60,0735674478896 ,50,5244451919212 ,56,9240712550398
27.7412598 ,Left ,60,0747948375166 ,50,4770269549375 ,56,9148985569702
27.763697 ,Left ,60,072738033076 ,50,4793274901504 ,56,9092129575019
27.7783854 ,Left ,60,0585517818922 ,50,532682483558 ,56,8963298072851
27.8011453 ,Left ,60,0374065878439 ,50,5837349402967 ,56,8820180663649
27.8235281 ,Left ,60,1223799843668 ,50,600913615581 ,56,8766140617155
27.838384 ,Left ,60,1791458852555 ,50,5979458333507 ,56,8870734736016
27.8609802 ,Left ,60,1792034620181 ,50,6362604581253 ,56,8852285767766
27.8836361 ,Left ,60,1638595380458 ,50,6917185319727 ,56,8792755372886
27.8985568 ,Left ,60,1898301276835 ,50,7163190652718 ,56,8712967312129
27.9213313 ,Left ,60,1900786797084 ,50,7313947479016 ,56,8826246086975
27.9436427 ,Left ,60,1695648340157 ,50,7693081483806 ,56,907913651424
27.9586189 ,Left ,60,1010148504749 ,50,7865097007898 ,56,9134146811256
27.9809599 ,Left ,60,0602918224804 ,50,8105713390903 ,56,9111808328623
28.0034654 ,Left ,60,0413587446734 ,50,7676330369523 ,56,9263723366316
28.0184296 ,Left ,60,0730807862329 ,50,6763676162873 ,56,9284560589391
28.0409689 ,Left ,60,094238258516 ,50,6332437640167 ,56,9244565692792
28.0634671 ,Left ,60,0194823883034 ,50,696259944068 ,56,9091916534655
28.0787198 ,Left ,59,9980895119168 ,50,7949782016348 ,56,8894671881806
28.1010079 ,Left ,60,0041897377485 ,50,8414971812852 ,56,8846220558151
28.1234475 ,Left ,60,0663836495764 ,50,8580295212386 ,56,8836886693252
28.1384166 ,Left ,60,064674681716 ,50,8420181187273 ,56,8823656694496
28.1609244 ,Left ,60,0389788986784 ,50,8120850777368 ,56,8614854551061
28.1840297 ,Left ,60,0333205590389 ,50,7691320891387 ,56,8364035317749
28.1989376 ,Left ,60,0337418798615 ,50,7316300212746 ,56,8218312740189
28.2215526 ,Left ,60,030359842217 ,50,7072220235246 ,56,8218126071476
28.2435719 ,Left ,60,0310169928569 ,50,6902498431654 ,56,8226642578374
28.2585791 ,Left ,59,9935306159261 ,50,6363055544339 ,56,7991919013071
28.2810953 ,Left ,59,9529620205848 ,50,5537915264946 ,56,7832120966238
28.3037056 ,Left ,59,9808711016947 ,50,5179155404515 ,56,8114890549009
28.3184611 ,Left ,60,0192535363157 ,50,5589063836599 ,56,8346140722964
28.3408559 ,Left ,60,0439583648591 ,50,5961673099361 ,56,8322987104445
28.363517 ,Left ,60,0795067396295 ,50,5721325712769 ,56,8193536349768
28.378808 ,Left ,60,1159304022418 ,50,481037238463 ,56,7986051994218
28.4009104 ,Left ,60,1392267260751 ,50,4053033457329 ,56,7524484741508
28.4234264 ,Left ,60,1587653910053 ,50,398974270029 ,56,7018285534798
28.4385385 ,Left ,60,1945899585603 ,50,4010890949535 ,56,6781457284602
28.4610007 ,Left ,60,2339526869362 ,50,4191681815021 ,56,6750302500515
28.4834243 ,Left ,60,2167649701103 ,50,4389851851436 ,56,6446163516617
28.498365 ,Left ,60,131133282992 ,50,4260753922144 ,56,6038856522877
28.5211558 ,Left ,60,1177406421828 ,50,4179261043003 ,56,6377801930798
28.5435718 ,Left ,60,1683580069838 ,50,4618573364516 ,56,6565312341079
28.5584675 ,Left ,60,2113477839112 ,50,5318447240606 ,56,6647630934514
28.5810818 ,Left ,60,2449647248428 ,50,5413685269609 ,56,6857986470348
28.6038453 ,Left ,60,2421179963977 ,50,5229241772433 ,56,7041868004096
28.6259437 ,Left ,60,2196098350965 ,50,5069444363669 ,56,703074530917
28.6409128 ,Left ,60,2062101103245 ,50,4823242987063 ,56,7042670807266
28.6634062 ,Left ,60,1989339738524 ,50,4600032773037 ,56,7003679779827
28.6860255 ,Left ,60,1918358198995 ,50,4451543005226 ,56,7052013678898
28.7011709 ,Left ,60,1760964239466 ,50,42851308292 ,56,7088489771022
28.7234987 ,Left ,60,1514076743084 ,50,4174131891977 ,56,7196929915273
28.7465329 ,Left ,60,1395383700984 ,50,4062980781681 ,56,7297453169637
28.7611878 ,Left ,60,1584639162624 ,50,3945887796756 ,56,7398127741829
28.7837624 ,Left ,60,1655228188906 ,50,3832084928721 ,56,7513891816847
28.8063179 ,Left ,60,1758296826494 ,50,3786326158094 ,56,7592140812104
28.8214787 ,Left ,60,1736487597925 ,50,3659049424568 ,56,7673053406679
28.8440704 ,Left ,60,1642674697928 ,50,3520516686169 ,56,7700988856274
28.8661884 ,Left ,60,1486463575172 ,50,3373678238441 ,56,7683047321927
28.881475 ,Left ,60,1439445211026 ,50,3226364688523 ,56,7775846149337
28.9040143 ,Left ,60,1494124109 ,50,3039175308516 ,56,7927212084997
28.9261905 ,Left ,60,1378668910113 ,50,2862940358821 ,56,8026126330971
28.9415428 ,Left ,60,1268425720686 ,50,2844269360344 ,56,797107822306
28.963853 ,Left ,60,1196777697555 ,50,2922300473514 ,56,7907478076536
28.986156 ,Left ,60,1200580094058 ,50,2987901754431 ,56,7822532166725
29.0011692 ,Left ,60,1242474449182 ,50,2986109700018 ,56,780556420923
29.0235063 ,Left ,60,1247296804217 ,50,3004159536091 ,56,7812141683585
29.0458864 ,Left ,60,1366260178435 ,50,3179296816071 ,56,7775159276198
29.0618525 ,Left ,60,1286233435533 ,50,3279538618407 ,56,778221833256
29.0840429 ,Left ,60,1125857183583 ,50,3301409383604 ,56,7817725580405
29.1063022 ,Left ,60,1384607811512 ,50,3346726187541 ,56,7771244833229
29.121719 ,Left ,60,1383421721154 ,50,3352632763242 ,56,7751636722324
29.1433816 ,Left ,60,1279217723611 ,50,3362609905221 ,56,7725703096134
29.1665317 ,Left ,60,1206317898868 ,50,3446487453006 ,56,7642449203737
29.1817929 ,Left ,60,1121511114286 ,50,3916501905447 ,56,7664669066161
29.2040628 ,Left ,60,0881458514437 ,50,4762104049513 ,56,7799640878172
29.2262706 ,Left ,60,0374862758745 ,50,501475406454 ,56,7858207558885
29.2410742 ,Left ,60,0166332837493 ,50,4903944486677 ,56,7888234149941
29.2635547 ,Left ,59,9996795057831 ,50,5225720428574 ,56,7980366581832
29.286273 ,Left ,60,0043322116951 ,50,5863259962777 ,56,8108906690536
29.3008995 ,Left ,60,0553715422178 ,50,625776653718 ,56,8119946218175
29.3237317 ,Left ,60,0553441107193 ,50,6027755803038 ,56,8041085215407
29.3460292 ,Left ,60,0231674083055 ,50,5281989865113 ,56,8163942315286
29.3611996 ,Left ,59,9699971602313 ,50,4769146095431 ,56,8158975175606
29.3836976 ,Left ,59,9066170604452 ,50,4662256522816 ,56,8072017386404
29.4060657 ,Left ,59,8980879489284 ,50,4921814655612 ,56,7896886584922
29.4211703 ,Left ,59,9875930141638 ,50,4863449438915 ,56,7496796463753
29.4435835 ,Left ,60,027833270948 ,50,4392703592108 ,56,7583615004285
29.4659684 ,Left ,60,0499404472403 ,50,4171478352781 ,56,7801470263482
29.4811301 ,Left ,60,0505457063924 ,50,4334940696095 ,56,793948472523
29.5041151 ,Left ,60,0372542965999 ,50,4300931389054 ,56,7938038778631
29.5263746 ,Left ,60,0732646443775 ,50,4015872879557 ,56,7999705974385
29.5490283 ,Left ,60,0685843984786 ,50,4024575846283 ,56,7935003351504
29.5639454 ,Left ,60,0251720101041 ,50,4513203984914 ,56,7684277343831
29.586696 ,Left ,59,9523646773154 ,50,5040381244322 ,56,7565956741436
29.6089189 ,Left ,60,023354020358 ,50,5028202949257 ,56,7391240654867
29.6242207 ,Left ,60,0948855666416 ,50,4756603050792 ,56,7385399044715
29.6391251 ,Left ,60,0724405016872 ,50,4706704019516 ,56,7559605156672
29.6766818 ,Left ,60,0764487188417 ,50,5788723023162 ,56,7479991623733
29.698936 ,Left ,60,0783561720929 ,50,6087150313104 ,56,7394123550947
29.7362375 ,Left ,60,0389318682061 ,50,6335786610337 ,56,7523609741395
29.7582894 ,Left ,59,9646301416915 ,50,6632166329752 ,56,7345692706315
29.79615 ,Left ,59,9565269999496 ,50,5562853503404 ,56,7467366970897
29.8186499 ,Left ,59,95164240204 ,50,4857590056819 ,56,7483753342062
29.8558994 ,Left ,59,8402928386722 ,50,6562974940499 ,56,7128678057343
29.8784755 ,Left ,59,9138613874607 ,50,7341250921925 ,56,7155521943728
29.9162649 ,Left ,60,0003616172311 ,50,7768518355115 ,56,735575542298
29.9386394 ,Left ,59,9780071032107 ,50,7864327672514 ,56,7199018483824
29.9760684 ,Left ,59,9552678805158 ,50,7654690572647 ,56,6568532327426
29.9987618 ,Left ,59,9537957585666 ,50,741368248231 ,56,6340207846926
30.036124 ,Left ,59,9306125951854 ,50,6966922250716 ,56,6196111466625
30.0584675 ,Left ,59,9293886654028 ,50,6765852879964 ,56,6107172559271
30.0967204 ,Left ,59,8825354475234 ,50,6250722209682 ,56,5855655271315
30.119164 ,Left ,59,8616922386803 ,50,6445458042539 ,56,5838697294169
30.1561268 ,Left ,59,9024322345342 ,50,7063746478023 ,56,5867570826985
30.1786336 ,Left ,59,9376184038956 ,50,7110633112387 ,56,5956394492835
30.2162212 ,Left ,60,0868473990443 ,50,6024178061862 ,56,5919150576618
30.2384181 ,Left ,60,099755167177 ,50,5348305763743 ,56,5726625022258
30.2760387 ,Left ,60,0921666389555 ,50,4901898016392 ,56,521753984551
30.298466 ,Left ,60,0724633769294 ,50,5077645943147 ,56,4924690657837
30.3361907 ,Left ,60,0020200854157 ,50,4730673575998 ,56,5086895968234
30.3585809 ,Left ,60,0173122834783 ,50,4822455256411 ,56,5422388767117
30.3961559 ,Left ,60,0574466621113 ,50,5674256183046 ,56,5568905903042
30.4185868 ,Left ,60,0820188345634 ,50,5505292153696 ,56,5680880450084
30.4562292 ,Left ,60,1343697287072 ,50,5042372009827 ,56,5674603417461
30.4784652 ,Left ,60,133744468933 ,50,4974498975887 ,56,5506330523975
30.5159868 ,Left ,60,1069574266158 ,50,4704384773376 ,56,5478245000736
30.5384426 ,Left ,60,0948389591626 ,50,4309213651394 ,56,5545652397453
30.5760021 ,Left ,60,0698513712478 ,50,3797189953042 ,56,5606924436338
30.5987736 ,Left ,60,0663290282722 ,50,3665652502929 ,56,5518899664968
30.6364193 ,Left ,60,0639388997443 ,50,3344320860444 ,56,5557007722614
30.6589583 ,Left ,60,0610163684726 ,50,3339524441236 ,56,5720469898945
30.6959423 ,Left ,60,0588570141717 ,50,3162606972498 ,56,5951470904903
30.7186782 ,Left ,60,052567662021 ,50,2914583196971 ,56,6054649388355
30.7562041 ,Left ,60,0346157310291 ,50,2543321996694 ,56,6146671004516
30.7786264 ,Left ,60,0168945129916 ,50,2569654823683 ,56,6184753099779
30.8161372 ,Left ,60,0134282575191 ,50,2742195674412 ,56,632280568857
30.8384962 ,Left ,60,0191177977097 ,50,278078730803 ,56,6422780069451
30.8761804 ,Left ,60,0129444157267 ,50,3075593101395 ,56,6450581591573
30.8992328 ,Left ,60,0129444157267 ,50,3075593101395 ,56,6450581591573
30.9363774 ,Left ,60,0445663090418 ,50,3218834521696 ,56,6587169221279
30.9590375 ,Left ,60,0466029366151 ,50,3237564475923 ,56,6571963567193
30.996431 ,Left ,60,0335668315628 ,50,3191278133796 ,56,661021870112
31.0188181 ,Left ,60,051023189401 ,50,3240792883145 ,56,6597252271437
31.0559453 ,Left ,60,0633249397746 ,50,343437170907 ,56,6566484303835
31.078489 ,Left ,60,0650016235036 ,50,3412523093743 ,56,6561267936683
31.1164003 ,Left ,60,0390715392156 ,50,3446818367878 ,56,6363693095032
31.1388944 ,Left ,60,0119719381856 ,50,3414840673573 ,56,6185844015017
31.1760246 ,Left ,59,9533645562384 ,50,3778107452145 ,56,6216659821512
31.1986491 ,Left ,59,9175373774518 ,50,4056931250315 ,56,6485612055117
31.2362577 ,Left ,59,9057832230485 ,50,4954978380139 ,56,6496414463148
31.2587542 ,Left ,59,8915025367897 ,50,560561949546 ,56,6321564226458
31.2962762 ,Left ,59,9468156918062 ,50,5730319871691 ,56,6158461569415
31.3186939 ,Left ,59,9507553455496 ,50,5287626692524 ,56,6017986303797
31.3559816 ,Left ,59,9243718495933 ,50,457022014524 ,56,5950140846721
31.3784524 ,Left ,59,9228373079292 ,50,4497044588783 ,56,5986021756626
31.415991 ,Left ,59,937252297604 ,50,454117757323 ,56,5825805799003
31.430924 ,Left ,60,0126592981321 ,50,4288882865221 ,56,5743516941554
31.4759188 ,Left ,60,0743674662234 ,50,3653260023342 ,56,6022744957838
31.4984772 ,Left ,60,0400537732712 ,50,3648847698673 ,56,5930638493863
31.5134085 ,Left ,60,0571839719518 ,50,3593791135998 ,56,5863975056683
31.5284946 ,Left ,60,0526129307041 ,50,3276231915924 ,56,5900916121996
31.5511123 ,Left ,60,0302949508632 ,50,3229734229994 ,56,5807212968055
31.5735237 ,Left ,59,9935148188898 ,50,3810112898457 ,56,5926102406598
31.5885351 ,Left ,60,0022593699045 ,50,4313014338276 ,56,5931047114788
31.6110261 ,Left ,60,0343780568791 ,50,4582778180533 ,56,5857209516188
31.6336601 ,Left ,60,0444142721254 ,50,4761312768993 ,56,5881048690544
31.6486652 ,Left ,60,0570738636503 ,50,5433970614049 ,56,5865694063501
31.6711123 ,Left ,60,0744395886494 ,50,6332526645362 ,56,5885235500645
31.6934217 ,Left ,60,0781092342904 ,50,6966385756715 ,56,5911679978714
31.7085368 ,Left ,60,0807874944038 ,50,7499665276211 ,56,5861114387531
31.7309484 ,Left ,60,0480800782002 ,50,7685043075243 ,56,5745192475787
31.7535213 ,Left ,60,005469637546 ,50,7574132601278 ,56,5650127214575
31.7686233 ,Left ,59,9749667185309 ,50,7535391674248 ,56,5628595131257
31.7910879 ,Left ,59,9247744325484 ,50,7871230327121 ,56,5484962636959
31.8137735 ,Left ,59,8604004426698 ,50,8235879041516 ,56,579308494676
31.8286163 ,Left ,59,8983647534351 ,50,7176048246476 ,56,6067290410975
31.8511306 ,Left ,59,9787651272677 ,50,6401690216771 ,56,6009652813913
31.8813962 ,Left ,59,8875221345857 ,50,700473222144 ,56,5751156990403
31.8963701 ,Left ,59,846889139621 ,50,8038223551632 ,56,5656216693633
31.9188274 ,Left ,59,907611720081 ,50,8452902962605 ,56,5867184559088
31.933825 ,Left ,60,0154086260984 ,50,834854031317 ,56,6039318381503
31.9561687 ,Left ,60,0445464267569 ,50,8307624126856 ,56,6116555215419
31.9711338 ,Left ,59,9793820840661 ,50,8471597378709 ,56,5940093494791
31.9938432 ,Left ,59,9741542876089 ,50,8497800395076 ,56,5508345818752
32.0086529 ,Left ,59,9825109783978 ,50,8192369958667 ,56,5103202583134
32.0310348 ,Left ,59,9889719094368 ,50,7691463353314 ,56,4983560855753
32.0535303 ,Left ,59,9815815515948 ,50,7261511132402 ,56,4940410960021
32.0687771 ,Left ,59,9378276006271 ,50,6958587611692 ,56,4928923771687
32.0909201 ,Left ,59,8816646355202 ,50,6362260425248 ,56,4726923122886
32.1134922 ,Left ,59,8857666989677 ,50,5891776472125 ,56,493077683268
32.128489 ,Left ,59,9041149463213 ,50,6254823487813 ,56,4979898613983
32.1511033 ,Left ,59,9286660678663 ,50,6792481567457 ,56,4782356217857
32.1734297 ,Left ,59,950814891831 ,50,6431621518159 ,56,4601475640846
32.1884946 ,Left ,59,9999519164026 ,50,5675451039788 ,56,4436779734535
32.2113254 ,Left ,60,026453679985 ,50,4581422253 ,56,4159945180641
32.2336422 ,Left ,60,0332709039574 ,50,3817132458405 ,56,3582092660308
32.2486363 ,Left ,60,0280612982853 ,50,3767713395245 ,56,3001254395096
32.2711613 ,Left ,60,0276021487579 ,50,3962802478276 ,56,2459616831018
32.2936287 ,Left ,59,9995766830024 ,50,353005520303 ,56,183863137904
32.3161922 ,Left ,59,9924792124183 ,50,3087155600395 ,56,1772868936292
32.3310275 ,Left ,60,010793963118 ,50,3386983506729 ,56,2340840803075
32.3535244 ,Left ,60,025721417181 ,50,4457906111082 ,56,2807443627462
32.3760201 ,Left ,60,0811086482307 ,50,5226776356889 ,56,3064147169802
32.3909849 ,Left ,60,1214513077882 ,50,5222029427028 ,56,3158701536098
32.4137136 ,Left ,60,1515518774694 ,50,5030344381373 ,56,3244772827183
32.4359865 ,Left ,60,1304975958873 ,50,4753192363261 ,56,3136183896962
32.4509148 ,Left ,60,1366868500826 ,50,4662964747342 ,56,2860207450592
32.4734494 ,Left ,60,1513015719347 ,50,4620355181647 ,56,271190523007
32.4960635 ,Left ,60,1382570509301 ,50,444718587141 ,56,2811314308364
32.5112826 ,Left ,60,1130926292222 ,50,4304141327787 ,56,2890076916015
32.5334409 ,Left ,60,0694901193829 ,50,4179346449809 ,56,2960632587221
32.5558855 ,Left ,60,0605406739945 ,50,4052798593435 ,56,2953261615445
32.5710343 ,Left ,60,072044015871 ,50,3760525457048 ,56,3073540038512
32.5934083 ,Left ,60,0913612860351 ,50,3428467440878 ,56,3208518560495
32.6162246 ,Left ,60,1022833463449 ,50,3182106529526 ,56,3385794698454
32.6309652 ,Left ,60,0999731979311 ,50,3224903486898 ,56,3522871851444
32.6540021 ,Left ,60,0713208510528 ,50,3315222156021 ,56,3614450066815
32.676589 ,Left ,60,048081100991 ,50,3256312265669 ,56,374350110279
32.6911838 ,Left ,60,0482384916341 ,50,3094742572637 ,56,3920183646495
32.7137243 ,Left ,60,0468306347602 ,50,2973922316835 ,56,4046966582851
32.736103 ,Left ,60,0190825689999 ,50,291770710984 ,56,413179561075
32.751126 ,Left ,60,0089022742879 ,50,2989980822666 ,56,4231517673299
32.7734917 ,Left ,59,9787256280103 ,50,3038531303521 ,56,4265034691115
32.7960197 ,Left ,59,9766830708763 ,50,3111714549478 ,56,4369506949857
32.8110183 ,Left ,59,9810144444438 ,50,3238386403131 ,56,4541433595154
32.8334953 ,Left ,60,0015810181784 ,50,3307713251833 ,56,4640007806825
32.8560571 ,Left ,60,0101182699454 ,50,3398965147618 ,56,4637196590247
32.8712593 ,Left ,59,9865215591881 ,50,3489209991406 ,56,4625204014868
32.8936824 ,Left ,59,9853042278745 ,50,3512396740101 ,56,463374589065
32.9160136 ,Left ,59,9954062318349 ,50,3604423336066 ,56,4609344507744
32.930993 ,Left ,60,0097593715058 ,50,3605782607783 ,56,4579149399694
32.9534882 ,Left ,60,023420866754 ,50,3559242526779 ,56,4575042575464
32.9759976 ,Left ,60,0070719828856 ,50,3655749666915 ,56,4635070687732
32.9913664 ,Left ,60,0075350006285 ,50,3673862770114 ,56,4641560483712
33.0137636 ,Left ,60,0115536646786 ,50,3594863369636 ,56,4596619287513
33.036333 ,Left ,60,0277277262072 ,50,3337809401869 ,56,4651758264927
33.051309 ,Left ,60,0294077865391 ,50,3332740193726 ,56,4649681587543
33.0733295 ,Left ,59,9985613618092 ,50,361402482909 ,56,4488280539788
33.0962127 ,Left ,59,9828468431577 ,50,403692394976 ,56,4511526104862
33.1109678 ,Left ,59,94959362952 ,50,4471637110454 ,56,4669093398738
33.1334553 ,Left ,59,9384756243445 ,50,4439956808937 ,56,4960422726768
33.1561677 ,Left ,59,9396106741972 ,50,4570507226402 ,56,5004449061574
33.1709997 ,Left ,59,9330957501519 ,50,5136432432614 ,56,5037368085334
33.1936327 ,Left ,59,9274942640839 ,50,5573928507586 ,56,5008128920164
33.2160738 ,Left ,59,9196058363082 ,50,5684385778105 ,56,5037020945485
33.2387011 ,Left ,59,9236004026618 ,50,5539293995477 ,56,5138788496585
33.2537572 ,Left ,59,9149182833026 ,50,5210007293276 ,56,4921097521996
33.2759306 ,Left ,59,9105764685086 ,50,4954615350441 ,56,4773275286476
33.2910375 ,Left ,59,8657388777823 ,50,4944245287476 ,56,469027063633
33.3136133 ,Left ,59,8503051909601 ,50,5067272068512 ,56,4529728928405
33.3361555 ,Left ,59,8829686407176 ,50,5344714330868 ,56,4500687480257
33.3586492 ,Left ,59,9263348145008 ,50,5257445836061 ,56,4694898132104
33.373722 ,Left ,60,0043453907983 ,50,5248927175884 ,56,4819989944339
33.3959294 ,Left ,59,9700074105014 ,50,5332311035217 ,56,4715591533853
33.4185101 ,Left ,59,9920427360095 ,50,5153799198737 ,56,4551024552112
33.4334407 ,Left ,60,0045969810096 ,50,4887519361057 ,56,4514051151978
33.4561006 ,Left ,59,9863904407061 ,50,4985809898651 ,56,4323251942453
33.4786823 ,Left ,59,96450569763 ,50,5498742642658 ,56,4160230676685
33.4936645 ,Left ,59,9862366165659 ,50,5812839171588 ,56,4219201227086
33.5163003 ,Left ,60,0449059596961 ,50,5918792099741 ,56,4241410732936
33.5385149 ,Left ,60,0936873619748 ,50,6261174780898 ,56,4439817789152
33.5533682 ,Left ,60,0809123062713 ,50,7197419114422 ,56,4530326002021
33.5761546 ,Left ,60,1177999483743 ,50,8214134515999 ,56,4590140264927
33.5985899 ,Left ,60,1077783577697 ,50,8699414400538 ,56,4638305927943
33.6137974 ,Left ,60,1593424126872 ,50,8843404947448 ,56,4713605980644
33.6359138 ,Left ,60,1596013598334 ,50,8918213528667 ,56,4800973259585
33.659278 ,Left ,60,1269210311441 ,50,9106302518017 ,56,4874804170818
33.6740009 ,Left ,60,0955106381725 ,50,9203708441463 ,56,4836551584243
33.6965609 ,Left ,60,0852758259116 ,50,8890152806108 ,56,4700824360096
33.7187833 ,Left ,60,0801241559473 ,50,8573108337863 ,56,4672855338724
33.733639 ,Left ,60,0462364581336 ,50,8322393217819 ,56,4496595690344
33.7562244 ,Left ,60,0187627874218 ,50,8099380145811 ,56,4313003831158
33.7784464 ,Left ,60,0022596730154 ,50,7779627104511 ,56,4171132583731
33.7934685 ,Left ,59,9821533979429 ,50,7693485126165 ,56,3979467662967
33.816024 ,Left ,59,9447164336705 ,50,7978412155293 ,56,3978147422077
33.8387346 ,Left ,59,9388560174925 ,50,8196712171514 ,56,3981294787562
33.8533944 ,Left ,59,9899014453401 ,50,8443025594195 ,56,400413581899
33.876148 ,Left ,60,0134692773729 ,50,8716585530505 ,56,4116639213216
33.8985298 ,Left ,60,021068592974 ,50,8964723894214 ,56,4143269395661
33.9135597 ,Left ,60,0669821767838 ,50,888303879719 ,56,4117884678772
33.9360816 ,Left ,60,1131184414347 ,50,8769781170525 ,56,3937540448498
33.9584819 ,Left ,60,0821000669952 ,50,8986548791787 ,56,370899614013
33.9733924 ,Left ,60,0476218401451 ,50,9040203176768 ,56,3485049507491
33.9962532 ,Left ,60,0860083843035 ,50,8755545454436 ,56,3303065535135
34.01858 ,Left ,60,1123847020392 ,50,8197375911998 ,56,3181187418703
34.0335904 ,Left ,60,0931549568938 ,50,7666273805946 ,56,3195562639012
34.0559896 ,Left ,60,0887662726336 ,50,7406561170679 ,56,3313485945605
34.0783598 ,Left ,60,0806587936808 ,50,723543094992 ,56,3250516193582
34.0934204 ,Left ,60,0620104744455 ,50,6808192297422 ,56,3072483187892
34.1159741 ,Left ,60,0588284398578 ,50,6383783287096 ,56,3241743657411
34.1386809 ,Left ,60,0764443051785 ,50,6332945563173 ,56,3738986825405
34.1537329 ,Left ,60,0629994709345 ,50,6913959279301 ,56,3899147699659
34.1762975 ,Left ,60,060321581949 ,50,7495922306502 ,56,3860339557563
34.1987783 ,Left ,60,1123801815447 ,50,7438204172022 ,56,3782687735915
34.2137041 ,Left ,60,1663470708609 ,50,6701126350916 ,56,3606200120583
34.2362547 ,Left ,60,2114259026189 ,50,5780179644899 ,56,3335837522135
34.2586125 ,Left ,60,1941293317226 ,50,4899436321326 ,56,3193307556809
34.2809948 ,Left ,60,1787370279091 ,50,5142648062116 ,56,2991016135791
34.2961821 ,Left ,60,1736685362526 ,50,5923022391995 ,56,268578880457
34.3185243 ,Left ,60,1904553605696 ,50,6105476013765 ,56,2280561137637
34.3409896 ,Left ,60,2111097619345 ,50,552022436185 ,56,2165364028877
34.3559916 ,Left ,60,2027898635508 ,50,4748015240342 ,56,2586721417197
34.378551 ,Left ,60,1947319039526 ,50,4665189071205 ,56,2823919442537
34.4010449 ,Left ,60,1925105638667 ,50,5296838310265 ,56,3012250430093
34.4160674 ,Left ,60,2480100158332 ,50,6001516731787 ,56,3150523375782
34.43856 ,Left ,60,2755250573966 ,50,6190246638592 ,56,3237372991479
34.4611765 ,Left ,60,3406171111393 ,50,6116094348385 ,56,3206524232302
34.4759653 ,Left ,60,3103913239849 ,50,5812970882861 ,56,3098162153242
34.4983765 ,Left ,60,3006626098393 ,50,5814821960635 ,56,2903919507446
34.5210535 ,Left ,60,2987869316736 ,50,5767972135534 ,56,2802689956083
34.5359989 ,Left ,60,2826896514922 ,50,5623224113782 ,56,2759673495391
34.5586751 ,Left ,60,2538610859576 ,50,5212427615847 ,56,2786178676214
34.5809591 ,Left ,60,2344957787154 ,50,4862983203168 ,56,2819860916615
34.595961 ,Left ,60,2312649151026 ,50,4610969211359 ,56,2835352503207
34.6185681 ,Left ,60,205813516339 ,50,4379620472308 ,56,2862082000587
34.648665 ,Left ,60,2031942740715 ,50,4123149029958 ,56,29006854447
34.6638329 ,Left ,60,2095097264998 ,50,3884602695356 ,56,301294876338
34.6863736 ,Left ,60,1889510775775 ,50,3775143311717 ,56,3084780538191
34.7164502 ,Left ,60,136707834156 ,50,3756440434206 ,56,3081200112988
34.7386858 ,Left ,60,1308878956135 ,50,3748311910342 ,56,3197296914341
34.7614005 ,Left ,60,1426965335786 ,50,3877459703992 ,56,3251688192757
34.7764012 ,Left ,60,1382698976378 ,50,3990538619997 ,56,3241649013062
34.7984838 ,Left ,60,1165262466059 ,50,3929562680424 ,56,3247808781492
34.8211921 ,Left ,60,1357795700194 ,50,3895166555785 ,56,3166656993292
34.8361205 ,Left ,60,1357795700194 ,50,3895166555785 ,56,3166656993292
34.8587029 ,Left ,60,1302578401333 ,50,4008732114413 ,56,3181316505981
34.8815831 ,Left ,60,1379825276361 ,50,4174987145582 ,56,3200837745288
34.8965159 ,Left ,60,1503606931333 ,50,4374803130099 ,56,3213586019005
34.9191357 ,Left ,60,1507027941122 ,50,4398832941332 ,56,320072053057
34.9418058 ,Left ,60,1284741337522 ,50,4336390277505 ,56,3203221097001
34.9563781 ,Left ,60,1223660420802 ,50,4379499475237 ,56,3108512344018
34.9788173 ,Left ,60,1127842081228 ,50,4655195636099 ,56,3025585829932
35.001073 ,Left ,60,1011059040546 ,50,5117815251339 ,56,2962039959483
35.0159763 ,Left ,60,0990559682461 ,50,5379801809666 ,56,3068117279102
35.0386743 ,Left ,60,0759809252314 ,50,5620478467497 ,56,323145293047
35.0610138 ,Left ,60,0461598530791 ,50,5458981852267 ,56,3529438203422
35.0759628 ,Left ,60,0038865422257 ,50,5551839038615 ,56,3752493944691
35.0985943 ,Left ,59,9981085496094 ,50,6157866628927 ,56,3990360799674
35.1213625 ,Left ,60,017007075621 ,50,653363721745 ,56,4067299767621
35.1364078 ,Left ,60,0509875766729 ,50,6493229377264 ,56,4039846580716
35.1586854 ,Left ,60,0637691344929 ,50,5672679257409 ,56,411427392195
35.1812072 ,Left ,60,0417279779247 ,50,5039419080823 ,56,4073924429119
35.2036927 ,Left ,59,9927141470813 ,50,5056812794936 ,56,3873796403448
35.2261929 ,Left ,59,9190409303202 ,50,5427784268745 ,56,3620916515334
35.2483987 ,Left ,60,0027779874761 ,50,5936653098502 ,56,3149839609737
35.2636384 ,Left ,60,0773009370499 ,50,5780777680835 ,56,3243824490565
35.2784628 ,Left ,60,1227687069882 ,50,5660640534213 ,56,3472538317794
35.3010522 ,Left ,60,1334181481347 ,50,5871327676119 ,56,3468538266646
35.3235567 ,Left ,60,1247125000691 ,50,5629747700133 ,56,3296552315616
35.3385472 ,Left ,60,132124352307 ,50,5176625947436 ,56,329853006123
35.3609184 ,Left ,60,1051839606214 ,50,5336762644771 ,56,3162989424412
35.383513 ,Left ,60,0937846199574 ,50,6160404948536 ,56,3009656065214
35.3911444 ,Left ,60,1245273465499 ,50,6562535822452 ,56,2941035196576
35.4138563 ,Left ,60,2202208237407 ,50,6727148095209 ,56,2766686962676
35.4517255 ,Left ,60,242888216762 ,50,6788650329013 ,56,2828132410714
35.4741023 ,Left ,60,2228564221367 ,50,7034371574336 ,56,258052298154
35.5110318 ,Left ,60,2183856371495 ,50,8069354991881 ,56,2507162599735
35.5335268 ,Left ,60,1827272731901 ,50,8496687718123 ,56,2430445595658
35.5710326 ,Left ,60,077675334213 ,50,8877309598249 ,56,2586080715676
35.5934737 ,Left ,60,0519669709273 ,50,8340838652147 ,56,2840880219272
35.6311787 ,Left ,60,07573404536 ,50,7595871593452 ,56,2553781135167
35.6537541 ,Left ,59,99606451857 ,50,8672257169108 ,56,2337955427451
35.6909697 ,Left ,60,1310828509007 ,50,9363699072328 ,56,2319603042241
35.7135661 ,Left ,60,1493964561928 ,50,9287531513405 ,56,2247610344201
35.7513322 ,Left ,60,0714551443976 ,50,8455567648963 ,56,1980957507114
35.7737704 ,Left ,60,0770994398708 ,50,7968315472384 ,56,1846172195683
35.8110987 ,Left ,60,0469409811683 ,50,7423440329672 ,56,1576485107875
35.8337194 ,Left ,60,0202689000024 ,50,6580703483338 ,56,1690702161353
35.8712175 ,Left ,60,0612638068876 ,50,6373604534909 ,56,2094917835282
35.8937284 ,Left ,60,1125140330381 ,50,6505240839235 ,56,2161901472885
35.9313965 ,Left ,60,2188240205977 ,50,480337655098 ,56,2077511134887
35.9540979 ,Left ,60,2446623304876 ,50,3661758500683 ,56,1652548533139
35.9913912 ,Left ,60,2300867577073 ,50,266206458518 ,56,0661009772331
36.0137094 ,Left ,60,2661908203863 ,50,3097732531896 ,55,9894750024154
36.0511753 ,Left ,60,190076111344 ,50,3216962951976 ,55,9712245908147
36.0737826 ,Left ,60,1745256655348 ,50,262862287057 ,56,031622708847
36.1109835 ,Left ,60,20970314385 ,50,3876368447282 ,56,0633758372298
36.1336049 ,Left ,60,2459379273347 ,50,4721185391318 ,56,0716787750947
36.1712809 ,Left ,60,2884250246357 ,50,4570646021844 ,56,0929105744285
36.193803 ,Left ,60,2765635595048 ,50,4404765379416 ,56,0925275499354
36.2311852 ,Left ,60,2349052048847 ,50,4210738277877 ,56,0869950129412
36.2536407 ,Left ,60,2075205718994 ,50,4169313530648 ,56,0958972190528
36.2910002 ,Left ,60,1939399148977 ,50,376538027981 ,56,1313897240915
36.313747 ,Left ,60,1998561452332 ,50,3346280229402 ,56,1282102095032
36.3509943 ,Left ,60,2157577972218 ,50,245186446451 ,56,1308311427041
36.3736594 ,Left ,60,2021950809246 ,50,2485017398648 ,56,1351577615361
36.4113187 ,Left ,60,1733515444262 ,50,2792273509498 ,56,1412347214638
36.433728 ,Left ,60,171272735328 ,50,2858682660861 ,56,1536301457685
36.4712518 ,Left ,60,1476295638007 ,50,2773780554355 ,56,1677839390641
36.493908 ,Left ,60,1345006618864 ,50,2731220689285 ,56,1696264618539
36.5314452 ,Left ,60,1092950681805 ,50,2524131002662 ,56,1651512848381
36.5536631 ,Left ,60,1114570853823 ,50,2520625347362 ,56,1652727324271
36.5985888 ,Left ,60,1146453931147 ,50,26833787288 ,56,1646311667869
36.6211478 ,Left ,60,1150841569807 ,50,2701500295381 ,56,1652798562173
36.6737016 ,Left ,60,1284678319809 ,50,2868152780145 ,56,1633223005937
36.7112093 ,Left ,60,1411466267259 ,50,3236945361979 ,56,1514653262248
36.7337941 ,Left ,60,1322357996946 ,50,3193284905468 ,56,1515963263403
36.7717769 ,Left ,60,1060898405435 ,50,3407208318985 ,56,1649574471011
36.7942565 ,Left ,60,0678338757209 ,50,3900926512063 ,56,1637003182827
36.8312113 ,Left ,60,0312310396538 ,50,4059691496546 ,56,1619030811236
36.8534562 ,Left ,59,9960608417044 ,50,373196593272 ,56,1943413248424
36.8913019 ,Left ,59,9391967639933 ,50,4816522367151 ,56,2483293611516
36.9137035 ,Left ,59,9555168450232 ,50,538609724738 ,56,2556984137653
36.9512872 ,Left ,59,9690345046704 ,50,5412351662872 ,56,2388159517979
36.973792 ,Left ,59,9696784151576 ,50,4925889817339 ,56,2146475303736
37.0109894 ,Left ,59,9652784563862 ,50,4123635369818 ,56,1757863597581
37.033452 ,Left ,59,8977515911374 ,50,4046978004698 ,56,1556757361768
37.0710877 ,Left ,59,9144512206498 ,50,4072112026618 ,56,1244236825286
37.0935676 ,Left ,59,9894632517026 ,50,3977999634238 ,56,1539580200243
37.1311949 ,Left ,60,0359276626953 ,50,4295875679787 ,56,1577040254431
37.1610014 ,Left ,60,0598419097616 ,50,4110089039837 ,56,1368436290023
37.2136119 ,Left ,59,9757890799854 ,50,5017721215716 ,56,0850407342021
37.2510408 ,Left ,60,1005604743038 ,50,5425601133887 ,56,0605907788327
37.2659907 ,Left ,60,108467223823 ,50,5774896997678 ,56,0708124410424
37.2888035 ,Left ,60,1110133535698 ,50,6484084028505 ,56,0820684619623
37.3036543 ,Left ,60,1334142751529 ,50,6678208374766 ,56,0799922457583
37.3261788 ,Left ,60,1437452380012 ,50,6934719694448 ,56,0915312092656
37.3488137 ,Left ,60,1506302791148 ,50,7523686622194 ,56,1055867201892
37.3638258 ,Left ,60,0925835763909 ,50,7885205458054 ,56,0978842038287
37.3861053 ,Left ,60,0405250304388 ,50,8159661667493 ,56,0815836173864
37.4085188 ,Left ,60,0373752592867 ,50,8130467075098 ,56,0990729140005
