timestamp,event,roll,pitch,yaw
0.5018755 ,Left ,41.3111805171416 ,53.2945940388087 ,76.7563395165911
0.5162343 ,Left ,41.3366534124164 ,53.3314015127421 ,76.7572263875779
0.5448699 ,Left ,41.3477860345424 ,53.3580561572458 ,76.7727231570232
0.5619202 ,Left ,41.3162539095663 ,53.3588967986909 ,76.7917812372347
0.5762014 ,Left ,41.2900691584466 ,53.3446133692625 ,76.809250680173
0.5994787 ,Left ,41.2865727598229 ,53.3201897023517 ,76.8138612098981
0.6218458 ,Left ,41.287010107349 ,53.2856448469768 ,76.8074161186589
0.6363226 ,Left ,41.2944915289637 ,53.250699234342 ,76.8084050140937
0.6604881 ,Left ,41.2878803663014 ,53.2123582543718 ,76.8131723229606
0.6818319 ,Left ,41.2659958649611 ,53.2034807146154 ,76.8102595685546
0.6962416 ,Left ,41.2417480323814 ,53.2200035538899 ,76.7907139102297
0.7193744 ,Left ,41.2312270662451 ,53.2535325884289 ,76.7805516471903
0.7420598 ,Left ,41.2187400644901 ,53.2693312715657 ,76.7904772304095
0.7634203 ,Left ,41.2042284632535 ,53.2632414071951 ,76.8103340177442
0.7793965 ,Left ,41.2064811697551 ,53.2458832443627 ,76.825462600765
0.8018582 ,Left ,41.2383158180286 ,53.2148126764118 ,76.8364778611888
0.823128 ,Left ,41.2620377054975 ,53.17875721178 ,76.8435629781013
0.8395285 ,Left ,41.2621576362758 ,53.1447422990975 ,76.8400429827386
0.8619065 ,Left ,41.2623985283451 ,53.118263520458 ,76.8322541828672
0.8830607 ,Left ,41.2581976173375 ,53.0956486604978 ,76.821654358917
0.9069674 ,Left ,41.2452538242219 ,53.082780654451 ,76.813965629043
0.922588 ,Left ,41.237055434546 ,53.0784312759441 ,76.8010198172543
0.9429587 ,Left ,41.2321113585824 ,53.0732165337186 ,76.7966956005808
0.9593377 ,Left ,41.2321465246772 ,53.0705435611288 ,76.7972226559503
0.9827814 ,Left ,41.2298678656207 ,53.0648260163462 ,76.7922750561717
1.0031137 ,Left ,41.2292205172224 ,53.0523145142401 ,76.7884190823003
1.0194695 ,Left ,41.2592984595522 ,53.0309341666078 ,76.7859861286517
1.0420242 ,Left ,41.2748470014035 ,52.9967253487396 ,76.7820663882405
1.0630484 ,Left ,41.2665691088962 ,52.9780960668341 ,76.7807234279958
1.0806548 ,Left ,41.2600431471027 ,52.9861648193935 ,76.781052055176
1.1019882 ,Left ,41.2649955218206 ,53.0045190763276 ,76.7670137599701
1.1230475 ,Left ,41.2895507515576 ,53.048112912583 ,76.7506335321508
1.1394556 ,Left ,41.3078983852868 ,53.0972371213987 ,76.7472159651081
1.1619207 ,Left ,41.3035447866082 ,53.1537071844178 ,76.7130784076682
1.1673737 ,Left ,41.3272857456618 ,53.2268638063815 ,76.6640902711225
1.189842 ,Left ,41.2886581177517 ,53.2873414812304 ,76.6338696423756
1.2063539 ,Left ,41.207778960468 ,53.3434553471338 ,76.6165990835661
1.2290998 ,Left ,41.114521782904 ,53.3329620672217 ,76.5887248823347
1.2498801 ,Left ,41.1211478790129 ,53.2751100605354 ,76.5503746007105
1.2648871 ,Left ,41.115026868817 ,53.2169277682128 ,76.5120821152766
1.2872773 ,Left ,41.0493886225084 ,53.164201187179 ,76.4616657407822
1.3098727 ,Left ,40.988986898144 ,53.0956334323089 ,76.3947050745443
1.3262149 ,Left ,40.9666750320698 ,53.0160511137939 ,76.3284405852895
1.3473086 ,Left ,40.9086740235297 ,52.9734170666752 ,76.2974717228981
1.3699959 ,Left ,40.8614568291173 ,53.0346998818825 ,76.3087292143613
1.3877846 ,Left ,40.8677691961258 ,53.141399668173 ,76.3017890438942
1.4075452 ,Left ,40.9084980061242 ,53.2472599199742 ,76.3036454949621
1.4299554 ,Left ,40.9593990177112 ,53.2754011495229 ,76.3241340037474
1.4448922 ,Left ,41.0057354486068 ,53.2104249583177 ,76.3138505390717
1.467456 ,Left ,40.9609193487267 ,53.1868861142891 ,76.2876567161779
1.4899129 ,Left ,40.8938650922895 ,53.2129709448354 ,76.2575616239044
1.5048774 ,Left ,40.8341122159925 ,53.2081787254194 ,76.1417847170916
1.5273589 ,Left ,40.8630522437617 ,53.2223203389209 ,76.0800808462479
1.5503104 ,Left ,40.8162773899221 ,53.2257007976348 ,76.0714243222884
1.5649618 ,Left ,40.8332040305185 ,53.2235636768866 ,76.0680319896825
1.5873439 ,Left ,40.8967036231417 ,53.2111267151454 ,76.0687162206384
1.6097821 ,Left ,40.8907109173073 ,53.2332120576263 ,76.0782666236481
1.6251742 ,Left ,40.8784413439895 ,53.3185445699304 ,76.1449348619885
1.6481307 ,Left ,40.7708398448266 ,53.3748475076552 ,76.1361946136737
1.6700509 ,Left ,40.7581173973453 ,53.3331481527541 ,76.1437561222422
1.6847154 ,Left ,40.7784798291609 ,53.2763807817581 ,76.0977931042479
1.7091413 ,Left ,40.7276553118043 ,53.3025218919785 ,76.0638804321158
1.7298871 ,Left ,40.6512861878961 ,53.4597621193864 ,76.081259262221
1.7447578 ,Left ,40.5886895306004 ,53.6952987371983 ,76.0628716639917
1.7672825 ,Left ,40.5572934122465 ,53.8625751846476 ,76.0449741345408
1.7898253 ,Left ,40.5491782772323 ,53.9162697672752 ,76.0304679167157
1.8048691 ,Left ,40.5016092285844 ,53.8957580537518 ,75.9760097566053
1.8274088 ,Left ,40.4385156462923 ,53.8796663710658 ,75.9148142584968
1.8499553 ,Left ,40.4308032318775 ,53.8968251915965 ,75.8758438164489
1.8663073 ,Left ,40.3510275133475 ,53.9106950892448 ,75.880840678913
1.8873409 ,Left ,40.2973082784593 ,53.8901734411669 ,75.8998409703535
1.9098502 ,Left ,40.2279001972391 ,53.846259534799 ,75.8892812764361
1.9266719 ,Left ,40.1476619464454 ,53.8295301888408 ,75.848223735516
1.9474304 ,Left ,40.086034561708 ,53.8543296934608 ,75.7824527777403
1.9698485 ,Left ,40.0399750711176 ,53.8959693776483 ,75.7130966812381
1.9863659 ,Left ,39.9755596883311 ,53.9093403103507 ,75.6751638980986
2.0149037 ,Left ,39.8866266447799 ,53.9235051832401 ,75.6799041020487
2.029875 ,Left ,39.861128118006 ,53.9822450850492 ,75.7202988793439
2.0461565 ,Left ,39.8710612949373 ,54.0135938845258 ,75.7115069936516
2.0673326 ,Left ,39.9416991712546 ,53.9433556009753 ,75.7067076441289
2.0899447 ,Left ,40.0166323256242 ,53.7238758014346 ,75.6763262676261
2.1064417 ,Left ,39.9755019311613 ,53.5418977719128 ,75.6723029986688
2.1273744 ,Left ,39.9834775052085 ,53.4805403162231 ,75.7703189935904
2.1498297 ,Left ,40.0214184458063 ,53.4078993543637 ,75.7954704294749
2.1679651 ,Left ,40.1401637614259 ,53.3082606708262 ,75.7640886145945
2.1875352 ,Left ,40.1908046545164 ,53.1753741877568 ,75.778134815565
2.2098733 ,Left ,40.2184116575706 ,53.0583090304417 ,75.7756194333006
2.2276924 ,Left ,40.2045430090037 ,53.0569645023888 ,75.7640860904491
2.2475476 ,Left ,40.2366022917843 ,53.1222423160778 ,75.7511568838243
2.2698035 ,Left ,40.3348771067181 ,53.2045577053708 ,75.7404418077512
2.2877276 ,Left ,40.4269138596553 ,53.2428877976219 ,75.7413230744531
2.307606 ,Left ,40.4567579769233 ,53.2023671903095 ,75.7460874477728
2.3373954 ,Left ,40.4648972482782 ,53.1445431231655 ,75.7656504228376
2.347769 ,Left ,40.5128707267522 ,53.1372870255947 ,75.8296213311866
2.3673982 ,Left ,40.5789099038642 ,53.1393277210755 ,75.9241693106121
2.3870669 ,Left ,40.6226756699459 ,53.1532134828596 ,76.0250456614428
2.4079076 ,Left ,40.6650822938132 ,53.1603179052523 ,76.1279723340254
2.4274024 ,Left ,40.7272253373038 ,53.1359300573283 ,76.2268835064665
2.4498077 ,Left ,40.801597046183 ,53.0872258553072 ,76.3062338488859
2.4677421 ,Left ,40.8421344372777 ,53.0361863131372 ,76.3718416989646
2.4874378 ,Left ,40.8581812974841 ,52.9891319895509 ,76.4148817563734
2.5098118 ,Left ,40.8478864954173 ,52.9610374519148 ,76.4197219707917
2.5277108 ,Left ,40.8421226389456 ,52.9565011676587 ,76.4092019684496
2.547476 ,Left ,40.8448531426093 ,52.9447289075515 ,76.3834185021815
2.5699412 ,Left ,40.854191262641 ,52.9262646178848 ,76.3630068305156
2.5877806 ,Left ,40.8372327745641 ,52.9235168653627 ,76.3304487036056
2.6072928 ,Left ,40.826478641574 ,52.961155942012 ,76.3004793390805
2.6253168 ,Left ,40.8444450856645 ,53.0137218071259 ,76.2301219670863
2.6476899 ,Left ,40.8800712151207 ,53.0984245897545 ,76.1651118877537
2.6674016 ,Left ,40.8604699765528 ,53.1599240719616 ,76.1358455838062
2.6851977 ,Left ,40.7808428239402 ,53.2015766836233 ,76.1272882122925
2.7077865 ,Left ,40.6967495251041 ,53.2052361724049 ,76.0930884350763
2.7273547 ,Left ,40.7016257491091 ,53.1799193999533 ,76.0478854366415
2.7452574 ,Left ,40.7476141796697 ,53.133121755344 ,76.0313487980752
2.7678024 ,Left ,40.728561787267 ,53.0659967006646 ,76.0153411073722
2.7888188 ,Left ,40.7143808142183 ,53.0038366237506 ,75.9882606270054
2.8053216 ,Left ,40.6616881434932 ,52.9500523786309 ,75.9289944851818
2.8278169 ,Left ,40.6182502797656 ,52.88046825661 ,75.8774344631712
2.848774 ,Left ,40.6059594719894 ,52.8491213617988 ,75.8533702750719
2.8712961 ,Left ,40.5913677324796 ,52.824635771149 ,75.8317196793292
2.8877197 ,Left ,40.5800962675384 ,52.8474903361704 ,75.8143634609608
2.9108594 ,Left ,40.5632700923181 ,52.8970452731161 ,75.8228384513115
2.9252864 ,Left ,40.604654286107 ,52.9564708831434 ,75.8493739733267
2.9476047 ,Left ,40.6637715651683 ,53.0166111133988 ,75.8687237525489
2.9689889 ,Left ,40.690398583062 ,53.0559269477277 ,75.8941938187761
2.9851475 ,Left ,40.6708924320206 ,53.0880934139013 ,75.9013040927496
3.0079085 ,Left ,40.6146058483003 ,53.112588779969 ,75.8722877387497
3.0288607 ,Left ,40.5855859731141 ,53.113960342322 ,75.805277063127
3.0443822 ,Left ,40.5697321304585 ,53.1907818396326 ,75.7471452245433
3.0670327 ,Left ,40.5413637194361 ,53.2768286282138 ,75.7726899321183
3.0894736 ,Left ,40.5275779748271 ,53.3702120655729 ,75.821013661833
3.104484 ,Left ,40.5537622109078 ,53.4039267947913 ,75.8084922114383
3.1273357 ,Left ,40.5662828792966 ,53.4060408875512 ,75.8176105084231
3.1494957 ,Left ,40.5093220965328 ,53.4186628872653 ,75.8431122828304
3.164437 ,Left ,40.4159792261385 ,53.4157658699308 ,75.834086993239
3.1868565 ,Left ,40.4387041055858 ,53.3803765290997 ,75.8269157980493
3.2094632 ,Left ,40.4369402896061 ,53.3322371260391 ,75.8400353363208
3.2246442 ,Left ,40.3587657455948 ,53.2857850201935 ,75.8465874126728
3.2469294 ,Left ,40.2979477187329 ,53.2722147365077 ,75.8607490896183
3.2693697 ,Left ,40.3412803056804 ,53.3314912198016 ,75.8377631172723
3.2837686 ,Left ,40.3252849702229 ,53.371541767441 ,75.8642349957407
3.3070414 ,Left ,40.2988598348173 ,53.5102208358395 ,75.9187087327511
3.3294298 ,Left ,40.2455918404898 ,53.6607726677164 ,75.9160211693744
3.3437783 ,Left ,40.307701862707 ,53.728687417615 ,75.9194089968038
3.3669722 ,Left ,40.3459925627547 ,53.6983575899646 ,75.9509106645158
3.3894609 ,Left ,40.3319389546883 ,53.6182483548434 ,75.9512713805706
3.4106222 ,Left ,40.2873105311442 ,53.5897960251367 ,75.9333516588271
3.426923 ,Left ,40.2643885278384 ,53.5632629878957 ,75.9097053816282
3.4493985 ,Left ,40.2459796287419 ,53.5249172112358 ,75.8941203944983
3.4638501 ,Left ,40.2701366274788 ,53.5180888183369 ,75.9052861508209
3.4868732 ,Left ,40.2402271162474 ,53.5052503383268 ,75.9087653828812
3.5094701 ,Left ,40.1642614203729 ,53.5251836462937 ,75.8605184206303
3.5250785 ,Left ,40.1253702563908 ,53.5670652608908 ,75.7643520448632
3.5468962 ,Left ,40.1427978596026 ,53.6280806628092 ,75.6859765029297
3.5693598 ,Left ,40.1232623906966 ,53.6528872864316 ,75.6421297450898
3.5905106 ,Left ,40.0327480511408 ,53.6890655804563 ,75.6087242561693
3.6068305 ,Left ,39.9794475359035 ,53.7624500788837 ,75.6365084072657
3.6294322 ,Left ,39.9564676610895 ,53.831787804175 ,75.7016764577517
3.6504405 ,Left ,40.0193947809535 ,53.839012091321 ,75.7447504094409
3.6668967 ,Left ,40.1825737013284 ,53.7374970983144 ,75.7719694664268
3.6893399 ,Left ,40.2425587113576 ,53.5283168861277 ,75.7364337487509
3.7104893 ,Left ,40.1982633028454 ,53.4220382335519 ,75.7905272247322
3.727418 ,Left ,40.1793903723789 ,53.3699225495968 ,75.8461835454542
3.7494073 ,Left ,40.2229041433796 ,53.285073010777 ,75.7924634577332
3.7705247 ,Left ,40.3098178708034 ,53.1981595164797 ,75.7661413739346
3.7863525 ,Left ,40.2781477406465 ,53.0874390280581 ,75.7821926963769
3.8095297 ,Left ,40.2463333650039 ,53.007222623768 ,75.7925031824464
3.8306125 ,Left ,40.3132691219371 ,52.9863543153842 ,75.8297596937014
3.8465107 ,Left ,40.3898645309164 ,53.0053123605315 ,75.8622037416046
3.8693753 ,Left ,40.4474887394115 ,53.0388267632758 ,75.8595568299579
3.8923794 ,Left ,40.5006215761667 ,53.0512168636897 ,75.8719110298026
3.90616 ,Left ,40.5064194768176 ,53.0171871755827 ,75.9024375910265
3.9299645 ,Left ,40.477582751405 ,53.0351623055033 ,75.9362126970048
3.9516224 ,Left ,40.4983169710729 ,53.0773091078677 ,75.94666889861
3.9662924 ,Left ,40.5894753806658 ,53.1001832836382 ,75.9635188265589
3.9894849 ,Left ,40.6584654946821 ,53.0870524413799 ,75.9902745874429
4.0119913 ,Left ,40.6437027604237 ,53.0316617664048 ,76.0234786844636
4.0262036 ,Left ,40.6507439882779 ,52.9449307363768 ,76.0429533335704
4.0494738 ,Left ,40.6925675911831 ,52.8417281832243 ,76.0611836666582
4.0719885 ,Left ,40.6966877368093 ,52.7632618954669 ,76.0889271531468
4.0868556 ,Left ,40.7273994242721 ,52.7152030850382 ,76.1164537828397
4.1097659 ,Left ,40.7831994238101 ,52.6752629294236 ,76.1389215338699
4.1321097 ,Left ,40.8017341942248 ,52.6418397899575 ,76.1415468149158
4.1468856 ,Left ,40.8235882223802 ,52.6186212000521 ,76.1503237229133
4.1694774 ,Left ,40.8483013763503 ,52.6416891390496 ,76.1642333433536
4.1919669 ,Left ,40.8763382627291 ,52.7121829401173 ,76.1854746244119
4.206139 ,Left ,40.8241747129536 ,52.7756686566183 ,76.1509773679566
4.2294143 ,Left ,40.9006427701076 ,52.8412243938296 ,76.0734052575136
4.2518818 ,Left ,40.8857933701558 ,52.9500896583408 ,76.1130028763521
4.2662473 ,Left ,40.7797727466101 ,53.0503416045061 ,76.1605672579345
4.2893784 ,Left ,40.7259986064271 ,53.1070239535947 ,76.1368202294974
4.3126909 ,Left ,40.7959424065391 ,53.0944867337576 ,76.1235173742392
4.333002 ,Left ,40.8354697421215 ,53.0487464487338 ,76.1387350368906
4.34949 ,Left ,40.785769542694 ,53.0159469141982 ,76.147683687949
4.3718864 ,Left ,40.7019584956289 ,52.9776859756313 ,76.0796258514097
4.3930868 ,Left ,40.682578292533 ,52.9439763665191 ,76.008045208741
4.409378 ,Left ,40.6234669721071 ,52.8884036105915 ,75.9938844864681
4.4319917 ,Left ,40.5939370249502 ,52.8505663540633 ,76.0001306954708
4.45304 ,Left ,40.5812764053362 ,52.8232486671967 ,75.9567147514245
4.4693743 ,Left ,40.607989275727 ,52.8227348635651 ,75.9966040585303
4.4920119 ,Left ,40.6052763894268 ,52.8913992073105 ,76.019064849843
4.513097 ,Left ,40.6520432327964 ,52.9982783382495 ,76.019313602546
4.5371595 ,Left ,40.7277099424377 ,53.0614453820634 ,76.0380290992957
4.5517967 ,Left ,40.7430819091834 ,53.0751445646832 ,76.0346395957989
4.5730373 ,Left ,40.6724619801079 ,53.0894419608861 ,76.0202619094955
4.5896711 ,Left ,40.6025247323686 ,53.0744986202862 ,75.9752998336062
4.612315 ,Left ,40.5998941899486 ,53.0833783285536 ,75.8818821442304
4.6331506 ,Left ,40.591614669833 ,53.1144391737222 ,75.8741159417539
4.6493404 ,Left ,40.5512971841229 ,53.104798179158 ,75.9377976563471
4.6721861 ,Left ,40.5374942547764 ,53.1036033647188 ,75.9260562377365
4.6931807 ,Left ,40.5676683976586 ,53.1486297763088 ,75.9096025835929
4.7093934 ,Left ,40.5666891184908 ,53.2624611779837 ,75.9047769696302
4.7318021 ,Left ,40.5501540438003 ,53.3380299416232 ,75.8841002319762
4.7531158 ,Left ,40.4505210112224 ,53.3529175610657 ,75.9036825766743
4.7693614 ,Left ,40.3271432687573 ,53.3608296309874 ,75.8595168364804
4.7931096 ,Left ,40.3259335798036 ,53.443912841432 ,75.8459918177502
4.8136229 ,Left ,40.280125054095 ,53.517297496125 ,75.8723168226186
4.8293614 ,Left ,40.2235242767505 ,53.6633392581359 ,75.9017967508316
4.8518444 ,Left ,40.215589781025 ,53.7734985026506 ,75.8908144523967
4.8729294 ,Left ,40.2400969146217 ,53.7793507434502 ,75.9057420321954
4.8886764 ,Left ,40.2025909580351 ,53.7228770718753 ,75.9162294764178
4.9118416 ,Left ,40.1310462432333 ,53.6675849287744 ,75.8912948854616
4.9328871 ,Left ,40.096312961155 ,53.6488747401327 ,75.8753947392622
4.9501177 ,Left ,40.1532332119339 ,53.6355848041483 ,75.8772644955828
4.971944 ,Left ,40.1864099676295 ,53.6188311115698 ,75.8855507804573
4.9943311 ,Left ,40.1215951186922 ,53.6534127390234 ,75.8809961964524
5.0094756 ,Left ,40.0440851430273 ,53.707485260021 ,75.8316504873913
5.0317998 ,Left ,40.0519754085742 ,53.7777724049474 ,75.7684933844144
5.0543428 ,Left ,40.0375251320067 ,53.8130105935063 ,75.7086946092367
5.0692973 ,Left ,40.0413217573681 ,53.8222591012161 ,75.6934543598827
5.0923127 ,Left ,40.009219960555 ,53.8679945367009 ,75.7598808300839
5.1145152 ,Left ,40.0262290656162 ,53.9219806591758 ,75.8260493339958
5.1287622 ,Left ,40.122789651097 ,53.887183098844 ,75.8421974144042
5.1519136 ,Left ,40.2504185293939 ,53.720139632287 ,75.8440039516703
5.1746468 ,Left ,40.2551025692233 ,53.5582779258937 ,75.9006368631148
5.1954707 ,Left ,40.2238837416255 ,53.4936686026179 ,76.0051071835356
5.2119339 ,Left ,40.1841155041556 ,53.4040213221452 ,75.9525585952778
5.2343469 ,Left ,40.3057600244217 ,53.3062717533337 ,75.8884441437334
5.2488061 ,Left ,40.3503383930539 ,53.1710940474256 ,75.8759495318097
5.2718702 ,Left ,40.2967876506109 ,52.999873607846 ,75.8554457337035
5.2944348 ,Left ,40.296464387353 ,52.9355433674945 ,75.8667990929077
5.3155656 ,Left ,40.4257129892893 ,52.9394718756291 ,75.9203339384881
5.3320108 ,Left ,40.5256926773544 ,52.9592067889437 ,75.9747900495822
5.3546583 ,Left ,40.5733861522251 ,52.9505995112917 ,76.0451010944756
5.3755688 ,Left ,40.5873802464117 ,52.8961906654497 ,76.1148698719275
5.3919484 ,Left ,40.626528824221 ,52.8935664891119 ,76.1707283624855
5.4147116 ,Left ,40.6880905081553 ,52.9156253158646 ,76.2190083034231
5.4355896 ,Left ,40.7548750689299 ,52.9322247773668 ,76.2738969707759
5.4521389 ,Left ,40.7835369781912 ,52.9236092517116 ,76.3090664294167
5.4744515 ,Left ,40.7765078516457 ,52.8877578956506 ,76.3307657464165
5.4960066 ,Left ,40.7767523125944 ,52.8459119996985 ,76.3453493708759
5.5119029 ,Left ,40.8416822400892 ,52.8024402457933 ,76.3541784141208
5.534491 ,Left ,40.8827284662713 ,52.7645548894282 ,76.3580047248408
5.5554816 ,Left ,40.8831567806495 ,52.7459339391311 ,76.3620488037566
5.5719422 ,Left ,40.8817514705603 ,52.758293430514 ,76.3598322689899
5.5944936 ,Left ,40.9046478161805 ,52.7724040235089 ,76.3545378536883
5.615508 ,Left ,40.9586627713489 ,52.7897051315135 ,76.3627727942493
5.6320034 ,Left ,40.9524481714177 ,52.8216637762682 ,76.3671529434857
5.6544977 ,Left ,40.9105210340779 ,52.9054887158886 ,76.3693369179424
5.675831 ,Left ,40.8712689233061 ,53.0008293356143 ,76.3471689096813
5.6913313 ,Left ,40.9431212162199 ,53.1209565695955 ,76.2946812198152
5.7158294 ,Left ,40.8931015169794 ,53.2462901052037 ,76.3258722787928
5.7369752 ,Left ,40.7704131729178 ,53.3471552369084 ,76.3780479060615
5.7596323 ,Left ,40.706880515792 ,53.3905025990096 ,76.3718914394502
5.7762741 ,Left ,40.7504831775482 ,53.3487192730412 ,76.363662233878
5.7969162 ,Left ,40.7433223038032 ,53.2835663883699 ,76.3559998413843
5.8119986 ,Left ,40.6875462345702 ,53.2285885586097 ,76.3761878110319
5.8344978 ,Left ,40.6271000925971 ,53.1749685443543 ,76.3044525509006
5.8555262 ,Left ,40.5848482780024 ,53.0803004627142 ,76.2066633190149
5.8712892 ,Left ,40.5380383631256 ,53.0068041802553 ,76.2113981744502
5.8944209 ,Left ,40.4878741393177 ,52.9949730945846 ,76.1486978560716
5.9155115 ,Left ,40.4994896775942 ,52.9998149390483 ,76.1479718729885
5.9333709 ,Left ,40.5889240678843 ,53.0101103760005 ,76.1953788609681
5.9544489 ,Left ,40.6235871304512 ,53.027757921374 ,76.2082810151481
5.9769194 ,Left ,40.6495128884949 ,53.0523122191482 ,76.2373970880361
5.9919837 ,Left ,40.6802846584703 ,53.0677090228525 ,76.2297201003572
6.0143678 ,Left ,40.6452077394648 ,53.0497829461651 ,76.2048031399074
6.0371017 ,Left ,40.6074938361942 ,53.043106759822 ,76.1376961150722
6.0519152 ,Left ,40.6223582207904 ,53.1071883447194 ,76.1054729107399
6.0746348 ,Left ,40.6123363925496 ,53.1680431678731 ,76.1511282584858
6.0969517 ,Left ,40.6128531834792 ,53.2026691388687 ,76.2029218147974
6.1112301 ,Left ,40.6277762949394 ,53.2081429004722 ,76.2047033666705
6.1343789 ,Left ,40.6444002128426 ,53.2200328476728 ,76.2012382553918
6.1569316 ,Left ,40.5838107012616 ,53.3056590435129 ,76.1796772804352
6.1713225 ,Left ,40.5933344234797 ,53.3517700806799 ,76.1529384515154
6.1944247 ,Left ,40.5430321030488 ,53.3583288917214 ,76.1725142735634
6.2230514 ,Left ,40.4898328406778 ,53.3215570574431 ,76.1768387543004
6.2379899 ,Left ,40.4514809296803 ,53.3908728753691 ,76.1686087106312
6.2544716 ,Left ,40.4324511727269 ,53.510145369851 ,76.1617584642279
6.2769187 ,Left ,40.4099275867743 ,53.6640332309547 ,76.167912488567
6.2979619 ,Left ,40.3783013370264 ,53.7480099169946 ,76.1558143908278
6.3144321 ,Left ,40.3862247350994 ,53.7454871569835 ,76.1637993698064
6.3373218 ,Left ,40.3321092485448 ,53.6770950799826 ,76.1455929456505
6.3582279 ,Left ,40.2944539183703 ,53.6322381937742 ,76.1134041858571
6.3744934 ,Left ,40.2993923232944 ,53.6215073769242 ,76.0953726984362
6.3970162 ,Left ,40.3474395062005 ,53.6050396728341 ,76.1220710876645
6.4112633 ,Left ,40.3351070293366 ,53.5607395233969 ,76.1305609404757
6.4344341 ,Left ,40.3020220678162 ,53.5338210867383 ,76.1343122977961
6.4569964 ,Left ,40.2821886993428 ,53.563080930565 ,76.1266843972192
6.478028 ,Left ,40.2879756947536 ,53.6338696002517 ,76.1082492959017
6.4945468 ,Left ,40.2858055366404 ,53.7134154195174 ,76.0675816775341
6.5169846 ,Left ,40.2222826791607 ,53.7475112838237 ,76.0006401603403
6.5380379 ,Left ,40.1494760279017 ,53.7892974541228 ,75.9400093570209
6.5544279 ,Left ,40.0920774700537 ,53.8500828870536 ,75.8598549544788
6.5768724 ,Left ,40.1052240044531 ,53.8938705921008 ,75.8138184669112
6.5982055 ,Left ,40.0798573851681 ,53.9274252423148 ,75.8627331701952
6.6145428 ,Left ,40.1492744066516 ,53.9495192288787 ,75.9365362012992
6.6369261 ,Left ,40.2401087803307 ,53.8461482756471 ,75.9458382591827
6.6579923 ,Left ,40.3143691197779 ,53.6035755372062 ,75.9055380927935
6.6743936 ,Left ,40.2849007986486 ,53.3892802877545 ,75.9315636936084
6.6969545 ,Left ,40.2829223530252 ,53.3087136743517 ,76.0732236606634
6.7181679 ,Left ,40.2731341416405 ,53.301824872591 ,76.0955458271719
6.7344697 ,Left ,40.33322225647 ,53.2619643643344 ,76.0553227605446
6.7568643 ,Left ,40.3240382895008 ,53.1556551706469 ,76.1202988196522
6.7780257 ,Left ,40.3136947965363 ,53.055850481593 ,76.1539029484904
6.7947931 ,Left ,40.3561124406108 ,53.0348163027326 ,76.1788671707378
6.8169601 ,Left ,40.4151233686401 ,53.0602032458276 ,76.2024955348576
6.837907 ,Left ,40.4521386467698 ,53.088754209994 ,76.1905738975725
6.853739 ,Left ,40.4979569376032 ,53.0917527548396 ,76.2064666549339
6.8612971 ,Left ,40.5119247044981 ,53.0648487291536 ,76.2337504307175
6.8822744 ,Left ,40.5369372708526 ,53.0976388644631 ,76.2519303066863
6.9050484 ,Left ,40.583053262806 ,53.1205808236032 ,76.2670368239711
6.9198249 ,Left ,40.6419295546657 ,53.0984301494439 ,76.3106440472505
6.9424403 ,Left ,40.664259084992 ,53.0416872357687 ,76.3477583661495
6.9647884 ,Left ,40.6701885045839 ,52.9439738331284 ,76.3693743063639
6.9812327 ,Left ,40.7335034541431 ,52.8475528773419 ,76.3647818974576
7.0025164 ,Left ,40.7874184942845 ,52.7815357568648 ,76.3684147949171
7.0336244 ,Left ,40.8172721207806 ,52.7653808982913 ,76.3891115677655
7.0397206 ,Left ,40.8441056139077 ,52.7683649947704 ,76.3946664722019
7.0623054 ,Left ,40.8773639579794 ,52.7826273161055 ,76.4116024365307
7.0848359 ,Left ,40.9120022081117 ,52.7932720674297 ,76.4319435151524
7.0999957 ,Left ,40.9347216755229 ,52.8076919123939 ,76.4422382232451
7.1223404 ,Left ,40.9530396718476 ,52.8421579909935 ,76.4465002268576
7.1449149 ,Left ,40.9307292078897 ,52.8758307546316 ,76.4481464720849
7.1600056 ,Left ,40.900902342666 ,52.8968501883987 ,76.4352156574474
7.1824943 ,Left ,40.892056407274 ,52.9354649608162 ,76.4420431292731
7.2048021 ,Left ,40.8891623587042 ,52.9918500062929 ,76.4412333969896
7.2199196 ,Left ,40.8592640601641 ,53.0541088125701 ,76.4358408908818
7.2427456 ,Left ,40.8320192799444 ,53.0982986508067 ,76.4274327059107
7.2647657 ,Left ,40.9083228364838 ,53.121511366369 ,76.3554199376554
7.2798043 ,Left ,40.8202273898862 ,53.1311703308467 ,76.3520986870323
7.3102524 ,Left ,40.7470297827036 ,53.1615729595591 ,76.3820837394287
7.3335865 ,Left ,40.693384402734 ,53.1764967650533 ,76.3478913098574
7.3401585 ,Left ,40.7529317825118 ,53.170112115855 ,76.3167061791877
7.3625246 ,Left ,40.7983230396741 ,53.1488434751602 ,76.328895149464
7.3847268 ,Left ,40.7973249565927 ,53.1060991388996 ,76.3591826159346
7.3999369 ,Left ,40.7255317069761 ,53.1040330607392 ,76.3112534507875
7.4223552 ,Left ,40.6831417133617 ,53.043081275085 ,76.2621956496718
7.4449443 ,Left ,40.6647436784731 ,52.9717538763875 ,76.2224509140918
7.4598455 ,Left ,40.6956802590142 ,52.9165788867842 ,76.2046745432563
7.4824189 ,Left ,40.670733299435 ,52.8457417319257 ,76.1944684970867
7.5047547 ,Left ,40.6425969919781 ,52.8478671504141 ,76.1425577812196
7.5212348 ,Left ,40.6480250103587 ,52.8578595232058 ,76.1390213307123
7.5447429 ,Left ,40.7209518630911 ,52.8739511605791 ,76.1643460809951
7.5648052 ,Left ,40.7787933080861 ,52.9156974332902 ,76.1760241341474
7.5812286 ,Left ,40.7831817990183 ,52.9579549577858 ,76.193881147081
7.602317 ,Left ,40.7564119743986 ,53.0231436348684 ,76.1746938513423
7.6248526 ,Left ,40.6991084356562 ,53.0473140238241 ,76.1615257455069
7.6413457 ,Left ,40.6578835196521 ,53.0826093042972 ,76.1175719334544
7.6625101 ,Left ,40.6257253274099 ,53.1037603757416 ,76.062146464881
7.6848797 ,Left ,40.6310293186836 ,53.0863388499962 ,76.1047321327463
7.7012012 ,Left ,40.6039762404104 ,53.0744617680202 ,76.1259694757063
7.7222899 ,Left ,40.5527948246923 ,53.104656396002 ,76.1009307849877
7.7447187 ,Left ,40.5370773608463 ,53.2008047008193 ,76.0817459209508
7.7627146 ,Left ,40.5125714281218 ,53.2577447272261 ,76.0509952664675
7.782353 ,Left ,40.4570914931286 ,53.2694632992979 ,76.0770806264987
7.8050331 ,Left ,40.3970944008839 ,53.2829423530459 ,76.1164900986197
7.8212309 ,Left ,40.3685875459244 ,53.3588048758077 ,76.1355666386807
7.8453565 ,Left ,40.3176352116222 ,53.4580937063184 ,76.1586648305522
7.8648097 ,Left ,40.270585290096 ,53.5874360794835 ,76.1683847325807
7.8826321 ,Left ,40.2409034954054 ,53.6282718990773 ,76.1356979334094
7.9023168 ,Left ,40.2727585014537 ,53.590617608725 ,76.1201809782038
7.9247927 ,Left ,40.2233616242986 ,53.5350663987786 ,76.1026698854022
7.9427377 ,Left ,40.1580961651639 ,53.5119693359915 ,76.088706914167
7.9624751 ,Left ,40.1278746546094 ,53.5104359325755 ,76.0775393809909
7.9801981 ,Left ,40.1321890709742 ,53.513433014927 ,76.0603805210692
8.0028155 ,Left ,40.1593977007166 ,53.5010202876662 ,76.0467671309545
8.0223235 ,Left ,40.1493797169422 ,53.5114557673277 ,76.0315363335131
8.0401576 ,Left ,40.1383133966188 ,53.5459788953378 ,76.023841810154
8.0629812 ,Left ,40.1387165330748 ,53.5797585989879 ,76.0166061066943
8.082429 ,Left ,40.1547013213115 ,53.5947085172681 ,76.0034594009408
8.1003041 ,Left ,40.1314254430938 ,53.6085732204503 ,76.005974396833
8.1228809 ,Left ,40.0881735381121 ,53.6334822274774 ,76.0110536947455
8.1426356 ,Left ,40.0503035066785 ,53.6347150836367 ,75.9794123629229
8.1647321 ,Left ,40.0410693918377 ,53.6389767467014 ,75.9589837652569
8.1828668 ,Left ,40.0404199085563 ,53.6413433291967 ,75.958324796924
8.2023351 ,Left ,40.0375622565449 ,53.6268054433725 ,75.9840177750452
8.2201752 ,Left ,40.0460536372864 ,53.6163954451997 ,75.9936307293854
8.2435445 ,Left ,40.16356647101 ,53.5059508751372 ,75.973060058828
8.2637635 ,Left ,40.2226058957728 ,53.3104313071325 ,75.9444968337365
8.2848587 ,Left ,40.1695552359316 ,53.2392698775552 ,76.041166749758
8.3044708 ,Left ,40.1734384995665 ,53.2224574912785 ,76.1027854204076
8.3224071 ,Left ,40.2251218607293 ,53.1911705031914 ,76.0471595610687
8.3448892 ,Left ,40.3279534418821 ,53.1001588688226 ,76.0507248020828
8.3627826 ,Left ,40.327799643182 ,52.9730988350824 ,76.1004351250278
8.3823245 ,Left ,40.2626552477255 ,52.8891885778537 ,76.1106340532348
8.404941 ,Left ,40.285977401757 ,52.8955790136518 ,76.1310524943993
8.4231802 ,Left ,40.391699228288 ,52.939917368086 ,76.1597661932365
8.4437072 ,Left ,40.4829429153824 ,52.9538995139078 ,76.1774298410528
8.4602614 ,Left ,40.4997413729298 ,52.9207025064997 ,76.1898216888778
8.4828061 ,Left ,40.4870638954652 ,52.875559294049 ,76.2054923883269
8.5036529 ,Left ,40.5182308521589 ,52.8549642608961 ,76.2147682559695
8.5201718 ,Left ,40.5744412007183 ,52.8306354805252 ,76.2183333433264
8.5461817 ,Left ,40.6167569758144 ,52.7921699017419 ,76.2285610750976
8.5637379 ,Left ,40.6224679471371 ,52.7446510795477 ,76.2343532006033
8.580222 ,Left ,40.6324886474344 ,52.6987160974277 ,76.2417861551696
8.602789 ,Left ,40.6691643187008 ,52.6564642870794 ,76.2328261520626
8.6237578 ,Left ,40.7110752715995 ,52.6355437954348 ,76.2450760780264
8.6402749 ,Left ,40.7315209129094 ,52.6219553290508 ,76.2521478169806
8.6626915 ,Left ,40.7465105869931 ,52.6119731219121 ,76.2599456081443
8.683876 ,Left ,40.7667987564732 ,52.6184872939884 ,76.281213800021
8.7002398 ,Left ,40.7951795260208 ,52.6248992485964 ,76.2943840590279
8.721885 ,Left ,40.8073786637272 ,52.622132875246 ,76.2827892410486
8.7430766 ,Left ,40.8172122958009 ,52.6700128387188 ,76.291652917588
8.76009 ,Left ,40.7800226032353 ,52.7526913367234 ,76.3329432469811
8.7819556 ,Left ,40.7965268688795 ,52.8589807037778 ,76.3222195254254
8.8044449 ,Left ,40.8385934277775 ,52.9622407012316 ,76.3067380024798
8.8193281 ,Left ,40.7959576054946 ,53.0148987677209 ,76.3374140523813
8.8421735 ,Left ,40.6941307444626 ,53.0459008286964 ,76.3457215136649
8.864578 ,Left ,40.6758400901485 ,53.0508529161129 ,76.3149578845472
8.8793067 ,Left ,40.7165837791629 ,52.9943987552895 ,76.2763148255143
8.9020674 ,Left ,40.6939621187548 ,52.916237833518 ,76.2361251362534
8.9243364 ,Left ,40.616366959696 ,52.870736187965 ,76.1874864239828
8.9390073 ,Left ,40.5211307553969 ,52.8160178621405 ,76.1082643110848
8.9621431 ,Left ,40.485854939411 ,52.7717786587678 ,76.0837579709456
8.9846787 ,Left ,40.4495821380326 ,52.7702728165089 ,76.0624345470961
8.9989205 ,Left ,40.5200798576154 ,52.7402644809725 ,76.119107651096
9.0220723 ,Left ,40.522047087142 ,52.7738690843717 ,76.1819950589544
9.0444332 ,Left ,40.5475426665368 ,52.8471836561173 ,76.2000242808791
9.0587331 ,Left ,40.6235333550199 ,52.8805773531698 ,76.2266766409388
9.0818457 ,Left ,40.6463699564432 ,52.8986710765972 ,76.2389496303014
9.1044671 ,Left ,40.5612346285189 ,52.9052721482904 ,76.2368356612515
9.1187558 ,Left ,40.4978693340361 ,52.9450389496381 ,76.2034384880689
9.1494552 ,Left ,40.5183818099954 ,53.0057839160984 ,76.1609394144136
9.1645394 ,Left ,40.5374934682295 ,53.0112540835124 ,76.1829297128456
9.1789476 ,Left ,40.5122328394778 ,53.0034756613539 ,76.1626106597717
9.202075 ,Left ,40.4950815291381 ,53.0262259960775 ,76.1435155576328
9.2319343 ,Left ,40.4798193864294 ,53.0983353930514 ,76.1444527768926
9.2386796 ,Left ,40.4489063219902 ,53.1323310956026 ,76.1413924728233
9.2618905 ,Left ,40.3952351354103 ,53.1705978178197 ,76.1497048648615
9.2844244 ,Left ,40.3327518473027 ,53.1325250416929 ,76.1483175570605
9.3054575 ,Left ,40.2937291067326 ,53.2079894343309 ,76.1322798144232
9.3218944 ,Left ,40.2497171742062 ,53.3963136778621 ,76.1501018214151
9.3443977 ,Left ,40.2249392541034 ,53.6246292501818 ,76.1875276574936
9.3654332 ,Left ,40.2011111673133 ,53.776320615844 ,76.1720053006145
9.3819588 ,Left ,40.1979784442202 ,53.8128304241724 ,76.1531935670874
9.4044381 ,Left ,40.1514404409258 ,53.7472170322583 ,76.1422754065446
9.4256412 ,Left ,40.1002810000405 ,53.651653249861 ,76.095444872647
9.4420748 ,Left ,40.0841011928193 ,53.6123558271598 ,76.038453499257
9.4645211 ,Left ,40.1079276617983 ,53.5823278833604 ,76.0266335810609
9.4855173 ,Left ,40.090577532719 ,53.563387521707 ,76.0536199237844
9.5079832 ,Left ,40.0562022858742 ,53.5479124873721 ,76.0618630173416
9.5307177 ,Left ,40.0680341900738 ,53.5099310031329 ,76.0638459661919
9.5455522 ,Left ,40.0653447864518 ,53.5021391390628 ,76.0661411178631
9.5618672 ,Left ,40.0201233141578 ,53.5407184762833 ,76.0629014933309
9.5843754 ,Left ,40.019196659204 ,53.5905567773838 ,76.068281905946
9.6055139 ,Left ,40.010316960722 ,53.6536558002725 ,76.1261249969163
9.6218178 ,Left ,39.9987138218537 ,53.7636888389276 ,76.1974585846341
9.644689 ,Left ,39.9845187295277 ,53.8622023545259 ,76.2282499784241
9.6654741 ,Left ,40.1060812685034 ,53.8327588837775 ,76.2874235668932
9.6812533 ,Left ,40.2522502807599 ,53.6036057152204 ,76.2545111927497
9.704431 ,Left ,40.1671571893063 ,53.3842228645534 ,76.2164567523518
9.7268836 ,Left ,40.1609541942947 ,53.3652828071794 ,76.2596344127513
9.7413139 ,Left ,40.1594143824403 ,53.3428000195688 ,76.1803367248964
9.7647246 ,Left ,40.2947981727515 ,53.2844899118957 ,76.1221870191483
9.7869984 ,Left ,40.2857376393581 ,53.1430272498307 ,76.1449930283842
9.8096244 ,Left ,40.2385845083639 ,52.9807997258455 ,76.1429225240052
9.8243138 ,Left ,40.249440221121 ,52.9241689993323 ,76.1403016941301
9.846923 ,Left ,40.3390155811343 ,52.9182309882421 ,76.1530896985907
9.8614732 ,Left ,40.4051821423146 ,52.9537962360676 ,76.1656774704287
9.8844677 ,Left ,40.471986991922 ,52.9598310825548 ,76.1850168618508
9.9068376 ,Left ,40.5222448156649 ,52.8903075090698 ,76.1905335515866
9.9212296 ,Left ,40.5504310992783 ,52.8142374762012 ,76.2063339534472
9.9444082 ,Left ,40.5516863849994 ,52.7989751963686 ,76.2463133381396
9.9669734 ,Left ,40.5836847930291 ,52.8082729606664 ,76.282897902108
9.9812699 ,Left ,40.6206627249991 ,52.8236799513213 ,76.3136208739054
10.0044006 ,Left ,40.677760687148 ,52.8127830790791 ,76.360901826303
10.0317861 ,Left ,40.7253952368807 ,52.7800268620444 ,76.3870974324298
10.0493959 ,Left ,40.7351811863537 ,52.7427454801302 ,76.4082239894689
10.0644804 ,Left ,40.7643047582899 ,52.7220132125333 ,76.4236632425575
10.0869304 ,Left ,40.7911456344745 ,52.7075052792 ,76.4141747473845
10.101259 ,Left ,40.8136684877643 ,52.7023360268785 ,76.4125683142021
10.1245132 ,Left ,40.8191413971458 ,52.6872726616971 ,76.4113456534547
10.1468341 ,Left ,40.8361192887691 ,52.6607307625677 ,76.4128112179633
10.1611685 ,Left ,40.8865469555852 ,52.6306319175604 ,76.4005611387545
10.1844603 ,Left ,40.8924887343814 ,52.6395223413194 ,76.4032940858874
10.2068285 ,Left ,40.8753432255298 ,52.6899703305647 ,76.4339992326312
10.2285403 ,Left ,40.8619982621848 ,52.7504399788311 ,76.4309960713164
10.2444723 ,Left ,40.8766493067521 ,52.8272414986549 ,76.4118908170073
10.2669471 ,Left ,40.8934185218115 ,52.8956972925208 ,76.4095005185274
10.2879706 ,Left ,40.9239006173196 ,52.9634414337056 ,76.3981471094069
10.3044575 ,Left ,40.8585056841002 ,53.0434228436858 ,76.4287792397084
10.3270295 ,Left ,40.7854722369983 ,53.1011792210313 ,76.4535924359322
10.3479335 ,Left ,40.775901285802 ,53.1120244951178 ,76.4255212396618
10.3643538 ,Left ,40.8238040755836 ,53.0871931060284 ,76.3974480615528
10.3883686 ,Left ,40.8144930903571 ,53.0361104692295 ,76.3563314286726
10.4078719 ,Left ,40.7685392258703 ,52.9834679878363 ,76.3469053963153
10.4244991 ,Left ,40.7286280153003 ,52.9415350572841 ,76.3090216379099
10.4468404 ,Left ,40.6968210134885 ,52.8635308941928 ,76.2433514560361
10.4681751 ,Left ,40.7019706748191 ,52.7776498409767 ,76.2323009819833
10.4842864 ,Left ,40.7206605998058 ,52.7240079128315 ,76.2206680882228
10.5068512 ,Left ,40.7347802617761 ,52.6963097867613 ,76.2415854103404
10.5282792 ,Left ,40.7263285537458 ,52.6873130792409 ,76.2485456998195
10.5467379 ,Left ,40.7444870401127 ,52.6995134827828 ,76.254002976468
10.5668163 ,Left ,40.755582166902 ,52.7478734288251 ,76.259486479583
10.5878743 ,Left ,40.7371971610349 ,52.8482616803921 ,76.3016838462874
10.6043886 ,Left ,40.6932556991832 ,52.9001201461495 ,76.3201893379637
10.6268837 ,Left ,40.6826381738469 ,52.9888514780584 ,76.3540177868304
10.6479187 ,Left ,40.7170766224058 ,53.0511919803987 ,76.3393793829907
10.6643708 ,Left ,40.7314787737286 ,53.0642273911733 ,76.3521024856456
10.6868434 ,Left ,40.6951173337252 ,53.0486354436668 ,76.35441661437
10.7105632 ,Left ,40.6124482198928 ,53.0480810245247 ,76.3466531413996
10.7244106 ,Left ,40.5631141376582 ,53.018788362104 ,76.3021734204766
10.7469809 ,Left ,40.5657832855827 ,53.0102957007035 ,76.2659930176784
10.7695095 ,Left ,40.5548279633369 ,52.9855753326936 ,76.2769490217939
10.7843883 ,Left ,40.5601288084171 ,52.9531269842344 ,76.2889514455145
10.8069013 ,Left ,40.6008113134331 ,52.9330398175195 ,76.2613511793791
10.8293872 ,Left ,40.6076025641229 ,52.9434278288624 ,76.2544152207997
10.8437481 ,Left ,40.6007814740175 ,53.0084597366722 ,76.2673354970122
10.8668419 ,Left ,40.5453642707487 ,53.057533598673 ,76.2550416656403
10.8971228 ,Left ,40.528571008525 ,53.0897368339067 ,76.2117684699217
10.9045023 ,Left ,40.4346631693728 ,53.0673833007147 ,76.230181480576
10.9271049 ,Left ,40.3934393653294 ,53.0640971560461 ,76.2566393950509
10.9494691 ,Left ,40.3706751284716 ,53.1033920832403 ,76.2570276519218
10.970468 ,Left ,40.2888495565569 ,53.1734984221041 ,76.2406806353504
10.9869925 ,Left ,40.2297288849887 ,53.3381226875421 ,76.2172089272974
11.0094424 ,Left ,40.2473658173446 ,53.4650931882721 ,76.1833328590424
11.0305335 ,Left ,40.2277111209454 ,53.5241434370119 ,76.1787521968423
11.0469298 ,Left ,40.2451153575481 ,53.5113489464849 ,76.2055603119494
11.069344 ,Left ,40.212035886426 ,53.4233697238171 ,76.1943124202808
11.0838025 ,Left ,40.1643696326161 ,53.3800710823478 ,76.1584428476732
11.1075378 ,Left ,40.1773608361532 ,53.3702722248788 ,76.1261577955734
11.1294849 ,Left ,40.2356681144739 ,53.3683845073735 ,76.1094608165304
11.1437357 ,Left ,40.2680450918874 ,53.3676886935437 ,76.1142451432853
11.1730216 ,Left ,40.2540590363785 ,53.3600748284008 ,76.1377808939951
11.1893613 ,Left ,40.2223000509607 ,53.353673746123 ,76.1376189805374
11.2105531 ,Left ,40.2115331124107 ,53.3649690544017 ,76.1033705223042
11.2269414 ,Left ,40.1835388872159 ,53.3653286513377 ,76.066597955795
11.2507612 ,Left ,40.1519355832315 ,53.3528507464951 ,76.0522206741453
11.270443 ,Left ,40.0833381008295 ,53.3435694389779 ,76.0240570656097
11.2868779 ,Left ,40.0185479317087 ,53.3518424721883 ,75.9824291974155
11.3095863 ,Left ,40.0061550607069 ,53.4274953134442 ,75.9811864374997
11.3304806 ,Left ,40.0916278864069 ,53.5194596460863 ,76.0218669379174
11.3468425 ,Left ,40.1436730734062 ,53.5745143710684 ,76.0508487003816
11.3696503 ,Left ,40.1810079922172 ,53.5250561414349 ,76.077006774377
11.3907068 ,Left ,40.1947093768979 ,53.3290257694541 ,76.0778081398471
11.4068582 ,Left ,40.2174887096491 ,53.2196916121027 ,76.1392223147119
11.4293558 ,Left ,40.2687238478475 ,53.1768264397339 ,76.2105938551542
11.4505217 ,Left ,40.2879225822203 ,53.1776129462672 ,76.1993419105912
11.4669626 ,Left ,40.3791140769276 ,53.2001526541958 ,76.1940793998648
11.4893631 ,Left ,40.326890979479 ,53.1290424268556 ,76.1689073379217
11.5106639 ,Left ,40.3489297784264 ,53.0192942859994 ,76.1779794603654
11.5268647 ,Left ,40.4317719321569 ,52.9456709805684 ,76.2230134563641
11.5494687 ,Left ,40.4604488295129 ,52.9209119972676 ,76.2741434041758
11.5707133 ,Left ,40.4565594088063 ,52.9538237446389 ,76.2831155422939
11.5862458 ,Left ,40.5226652076119 ,52.9774009163563 ,76.3083922170012
11.6092957 ,Left ,40.5909319337606 ,52.8988320429337 ,76.3394599399177
11.6319438 ,Left ,40.5991520698073 ,52.8635518655813 ,76.363309961534
11.6468835 ,Left ,40.6133881630124 ,52.8656780771045 ,76.3780207306309
11.6694959 ,Left ,40.6681248891928 ,52.8568736963886 ,76.3944313220109
11.6919074 ,Left ,40.6941501863552 ,52.8368816340246 ,76.4014150627662
11.7069246 ,Left ,40.6997125498694 ,52.8029004558818 ,76.4041938029889
11.729767 ,Left ,40.7036286654019 ,52.7690045428014 ,76.4131362512781
11.7519681 ,Left ,40.7310544930498 ,52.7265713875874 ,76.4157411425637
11.7668218 ,Left ,40.7658449421056 ,52.6842144516176 ,76.4127833724888
11.7894658 ,Left ,40.7678403339937 ,52.6663103372873 ,76.4253933189399
11.8118783 ,Left ,40.7648885890904 ,52.6585313011649 ,76.427726185018
11.8261549 ,Left ,40.8036686430102 ,52.6591537351226 ,76.4242092477138
11.8493636 ,Left ,40.8183469983716 ,52.6798166456797 ,76.4440349331185
11.8718751 ,Left ,40.8133836726673 ,52.7315542543231 ,76.4563789768616
11.8861956 ,Left ,40.8329320440878 ,52.8438025341517 ,76.4623218465679
11.909819 ,Left ,40.8739335670386 ,52.9785797790999 ,76.4565247201763
11.9320997 ,Left ,40.8700162416373 ,53.0827169720879 ,76.4714282465201
11.9530567 ,Left ,40.7769608015922 ,53.1440622973494 ,76.4903608447005
11.9695289 ,Left ,40.7191250861584 ,53.1747631223966 ,76.4952192560699
11.9921222 ,Left ,40.7493995675293 ,53.1453206014439 ,76.48142915844
12.0069648 ,Left ,40.7493271219457 ,53.0763604668272 ,76.4636384935057
12.0297855 ,Left ,40.7058687849549 ,53.0154867713143 ,76.4178905405856
12.0518496 ,Left ,40.6075038594626 ,52.9646430279144 ,76.337050671809
12.0730643 ,Left ,40.5585529963972 ,52.8656040728422 ,76.3232983841965
12.0893993 ,Left ,40.5610247113483 ,52.7911106215081 ,76.3481820168444
12.1123576 ,Left ,40.5373955715936 ,52.7575028784219 ,76.3087410248766
12.1332132 ,Left ,40.5965836388959 ,52.7262163814249 ,76.3562855939317
12.1495002 ,Left ,40.5852007581573 ,52.739342052217 ,76.3966075039096
12.1719354 ,Left ,40.653903507686 ,52.7669191657232 ,76.4170658156645
12.1930326 ,Left ,40.7009562658771 ,52.7971377026657 ,76.4236637303366
12.2094094 ,Left ,40.7063192202779 ,52.8352920411664 ,76.408169602812
12.2318373 ,Left ,40.6345540771649 ,52.872852208087 ,76.3741439786312
12.2529475 ,Left ,40.5960335781666 ,52.9545488641457 ,76.3389203790799
12.2694321 ,Left ,40.5795669909241 ,53.0553266965299 ,76.3216401139491
12.2918079 ,Left ,40.5765145621737 ,53.1336570481647 ,76.3406608730556
12.3129831 ,Left ,40.5600612479516 ,53.187572776879 ,76.343041051285
12.3294381 ,Left ,40.5629508055413 ,53.223405096015 ,76.3382284175874
12.351876 ,Left ,40.4764716161516 ,53.2670793254186 ,76.3376002330227
12.3729543 ,Left ,40.4421481652443 ,53.2709913249334 ,76.3419715674309
12.3893612 ,Left ,40.4230633468796 ,53.2627846778294 ,76.3576055473133
12.4119433 ,Left ,40.353005394273 ,53.2280719884405 ,76.3225554256121
12.4331489 ,Left ,40.3612369126124 ,53.3033508832439 ,76.292436577752
12.4493551 ,Left ,40.2976361607735 ,53.3386876520953 ,76.3255938871276
12.4717748 ,Left ,40.2509139911554 ,53.4476086879225 ,76.3743281766509
12.4931447 ,Left ,40.2481705621978 ,53.5290958114074 ,76.3649313750876
12.5087507 ,Left ,40.3187289588402 ,53.5592831305776 ,76.3919032728224
12.5318356 ,Left ,40.2843874593556 ,53.5064901655933 ,76.3856267222876
12.552783 ,Left ,40.1898253907941 ,53.4190369470706 ,76.3292414347776
12.561662 ,Left ,40.1796070549784 ,53.3743777279043 ,76.287598370248
12.5747654 ,Left ,40.2632076855476 ,53.3462461006643 ,76.2822974163161
12.5979074 ,Left ,40.2446600390195 ,53.3426611951338 ,76.265945822469
12.6196789 ,Left ,40.180831349643 ,53.3954871701885 ,76.2231828875574
12.6362019 ,Left ,40.1609190198168 ,53.4985399948528 ,76.1597412962516
12.6572668 ,Left ,40.1280967365203 ,53.5527580698063 ,76.0966665237297
12.6797214 ,Left ,40.0747666453703 ,53.5732443962833 ,76.0457271755421
12.694965 ,Left ,40.0456686172838 ,53.5687295501752 ,76.0036511909462
12.7173042 ,Left ,39.9835697819477 ,53.5521336735684 ,76.019305161987
12.7404199 ,Left ,40.0720792053477 ,53.5665169930449 ,76.0915404459973
12.7561457 ,Left ,40.177555117268 ,53.5154432529102 ,76.1268779376496
12.7784883 ,Left ,40.3301117177647 ,53.3460565875299 ,76.1471565521454
12.7999109 ,Left ,40.3371192052582 ,53.2064431708997 ,76.2278809673794
12.8161209 ,Left ,40.3608379269036 ,53.1654410616531 ,76.3309890469074
12.8374687 ,Left ,40.3811389991002 ,53.1255143831413 ,76.3246899343501
12.8616409 ,Left ,40.5118114052258 ,53.0561780905591 ,76.3225285583682
12.8768337 ,Left ,40.4884115387935 ,52.941122851235 ,76.3498804409241
12.8973001 ,Left ,40.4329200468402 ,52.8993688407042 ,76.3756597203374
12.9198517 ,Left ,40.5281970754545 ,52.9092693310405 ,76.4244094219076
12.9361887 ,Left ,40.595474799099 ,52.9659521551847 ,76.4551747256372
12.957326 ,Left ,40.6676579258077 ,53.0199410037143 ,76.4665570974472
12.9798019 ,Left ,40.6928568009091 ,53.0111741574892 ,76.4905413234984
12.9951108 ,Left ,40.7106048720013 ,53.0133061078578 ,76.5168343917604
13.0171922 ,Left ,40.7278600956087 ,53.0468480291023 ,76.5217722804754
13.0397828 ,Left ,40.7799631726599 ,53.0531976462016 ,76.542214524854
13.0563087 ,Left ,40.8025003452943 ,53.0179653669649 ,76.5595812297551
13.0775932 ,Left ,40.7618399615041 ,52.9587632464557 ,76.5590835324006
13.0999988 ,Left ,40.7663648880835 ,52.8890443873585 ,76.543986270215
13.1163157 ,Left ,40.8067144924083 ,52.8175266406175 ,76.5022005404916
13.1400818 ,Left ,40.8417475779973 ,52.7821513151772 ,76.4791252184275
13.1598905 ,Left ,40.8357506860917 ,52.7773777175401 ,76.4567707001828
13.1761574 ,Left ,40.8208104368583 ,52.7976078816446 ,76.4438491570893
13.1972834 ,Left ,40.8409821799603 ,52.8275897941702 ,76.4329686833011
13.2197768 ,Left ,40.8842293618411 ,52.8873543865324 ,76.4226830807012
13.2396205 ,Left ,40.8682227186713 ,52.9980857973674 ,76.4667011506186
13.2572476 ,Left ,40.8580539189206 ,53.1320268768742 ,76.5024242085468
13.2798563 ,Left ,40.8210787651224 ,53.2332976536822 ,76.5100398283485
13.2963458 ,Left ,40.7421293811307 ,53.2775439523968 ,76.5074075851758
13.317346 ,Left ,40.7027926573788 ,53.255173043731 ,76.4897323008834
13.3399376 ,Left ,40.7454960519264 ,53.1647031827918 ,76.4689716404427
13.3581005 ,Left ,40.7269794666785 ,53.0503341154394 ,76.4243429361158
13.3776603 ,Left ,40.6823114335268 ,52.9902676844533 ,76.4006267777725
13.3999534 ,Left ,40.5842919538341 ,52.9015577851068 ,76.3526194236367
13.417691 ,Left ,40.5073266455159 ,52.8453767358066 ,76.3030566214153
13.4373301 ,Left ,40.5789729178536 ,52.8532655200823 ,76.2742109643018
13.4599336 ,Left ,40.6504972281728 ,52.8082312850218 ,76.2880132395729
13.4761322 ,Left ,40.5935348126906 ,52.8237823514911 ,76.3358980855487
13.4974238 ,Left ,40.5613278072475 ,52.9186678073014 ,76.3456859508904
13.5198284 ,Left ,40.6596451002742 ,52.9498098799467 ,76.3242610722317
13.5396072 ,Left ,40.7277017427261 ,52.9453160582498 ,76.3303138631665
13.5627375 ,Left ,40.6742660451508 ,52.9460900851735 ,76.3492113618395
13.5798103 ,Left ,40.5861558695605 ,52.9425207650052 ,76.3125330069381
13.5976341 ,Left ,40.6300666667478 ,52.9848987074912 ,76.2715555651305
13.6173132 ,Left ,40.6537454645723 ,53.0171730486693 ,76.2932105568568
13.6398363 ,Left ,40.5877956736878 ,53.0498580779411 ,76.3146873740831
13.6576286 ,Left ,40.5907608733932 ,53.0856681644154 ,76.3097423955611
13.6775519 ,Left ,40.6082445997777 ,53.0892846151481 ,76.292427825999
13.6952461 ,Left ,40.5651632036782 ,53.1342318843458 ,76.287495829151
13.7175739 ,Left ,40.5072841091106 ,53.1665832149565 ,76.2726629453024
13.7372207 ,Left ,40.4577844175246 ,53.1940285464492 ,76.2791932362129
13.7551514 ,Left ,40.4224642170474 ,53.1543393736321 ,76.2333729486584
13.7821942 ,Left ,40.3701137471737 ,53.2886757718494 ,76.2026077069375
13.797371 ,Left ,40.2969424222139 ,53.454155073669 ,76.2144493890158
13.8197632 ,Left ,40.2466762201385 ,53.6483839037666 ,76.2308947338769
13.8376075 ,Left ,40.2296318712379 ,53.7661527670918 ,76.205262519595
13.8572413 ,Left ,40.2029592020146 ,53.7878102688099 ,76.2038543574322
13.8797829 ,Left ,40.1368942269776 ,53.7075513143583 ,76.1820682788868
13.8977559 ,Left ,40.1275473300111 ,53.5784550771454 ,76.122621941648
13.9173002 ,Left ,40.1318313102162 ,53.4985239564012 ,76.0728633959151
13.9351004 ,Left ,40.1311775706751 ,53.44945133949 ,76.0773144870754
13.9577272 ,Left ,40.1100373386651 ,53.4173413136481 ,76.086060005058
13.9797448 ,Left ,40.158929012566 ,53.3931244189959 ,76.0852341594267
13.9951971 ,Left ,40.2421041867496 ,53.3402431452358 ,76.0731920145935
14.0176188 ,Left ,40.2462929600133 ,53.3327279759155 ,76.07364339003
14.0373352 ,Left ,40.2208027833402 ,53.372942328484 ,76.0621391482581
14.0551224 ,Left ,40.2309202460708 ,53.4294646673268 ,76.0138139124386
14.077748 ,Left ,40.2241242616134 ,53.493690471745 ,75.9645918679157
14.0973116 ,Left ,40.1536393691151 ,53.5727364615019 ,75.9616469678614
14.1151174 ,Left ,40.0941978238028 ,53.6369975148244 ,75.9500380278414
14.1396163 ,Left ,40.0664761157674 ,53.6740187973682 ,75.9830133505603
14.158804 ,Left ,40.1568958827941 ,53.7105776965006 ,76.0573412394555
14.1798403 ,Left ,40.2054402982589 ,53.6714498539972 ,76.085416129288
14.1977866 ,Left ,40.2960103938762 ,53.5162959289576 ,76.0922462257016
14.2187402 ,Left ,40.3281361907676 ,53.3262653564926 ,76.0927794110262
14.2397798 ,Left ,40.3779230210015 ,53.2478386178689 ,76.1937295634737
14.2576505 ,Left ,40.4218598433026 ,53.1846359600856 ,76.2181630859019
14.2787605 ,Left ,40.4766036685025 ,53.1391288005449 ,76.1863912339832
14.2999532 ,Left ,40.4932103890823 ,53.0706764646229 ,76.2213218529224
14.3176719 ,Left ,40.5624639026252 ,52.9688538106035 ,76.2476322949643
14.3387147 ,Left ,40.5645567433903 ,52.929658482992 ,76.2801604871662
14.3599488 ,Left ,40.6016446276074 ,52.9762643094311 ,76.323234493599
14.3780574 ,Left ,40.5953096506279 ,53.0541998935252 ,76.2780468408102
14.3987517 ,Left ,40.6739380498247 ,53.0878710550532 ,76.2706016078666
14.4138016 ,Left ,40.7027131402255 ,53.0162329502499 ,76.2783563628435
14.4371505 ,Left ,40.6644516914229 ,52.9372183926115 ,76.2605723703929
14.4596442 ,Left ,40.621327797335 ,52.9071904062859 ,76.2523986880241
14.4805057 ,Left ,40.6367548448473 ,52.87652291062 ,76.2304725778914
14.4968155 ,Left ,40.6997069560696 ,52.8341014014656 ,76.227310792595
14.5194669 ,Left ,40.7405697711724 ,52.7714567071773 ,76.2488345265823
14.5344871 ,Left ,40.7392208330112 ,52.7025134839259 ,76.2764336736207
14.5568311 ,Left ,40.7459180330773 ,52.6491996124482 ,76.3015680285739
14.5796405 ,Left ,40.767872811243 ,52.6051407773231 ,76.3178615263699
14.5942834 ,Left ,40.8117354213554 ,52.5837920653695 ,76.3331084526191
14.616894 ,Left ,40.8423635697452 ,52.5690783073209 ,76.3567684844214
14.6393876 ,Left ,40.8256354355502 ,52.5742545007933 ,76.3717534502408
14.6604559 ,Left ,40.8427146577595 ,52.5727502610453 ,76.3708382934949
14.6768067 ,Left ,40.8626891946831 ,52.5816950619176 ,76.3670112259119
14.699523 ,Left ,40.8883484880785 ,52.6274648239691 ,76.3912442767186
14.7204944 ,Left ,40.8719912622451 ,52.7289380501286 ,76.4331283171333
14.7369013 ,Left ,40.8878350246017 ,52.8983350377284 ,76.4319063333525
14.7593728 ,Left ,40.8576739122786 ,53.0369818329794 ,76.4551474020438
14.7805296 ,Left ,40.7804878339617 ,53.1142509531114 ,76.4958646116366
14.8041372 ,Left ,40.7123681121012 ,53.1138173341541 ,76.4776716246159
14.8267882 ,Left ,40.7406249816575 ,53.0468591414392 ,76.4685383602697
14.840341 ,Left ,40.6991447785743 ,52.9637490102702 ,76.4548956211347
14.8567827 ,Left ,40.618818466612 ,52.9086034426025 ,76.4205325225443
14.8794416 ,Left ,40.5141843334465 ,52.8584782617375 ,76.3327052026408
14.9003886 ,Left ,40.4848036454198 ,52.7631546283599 ,76.2835016274128
14.916784 ,Left ,40.4447517149365 ,52.7092475981517 ,76.2592725691969
14.9392521 ,Left ,40.4683452942194 ,52.7130501086824 ,76.2677043620869
14.9603853 ,Left ,40.5128521462905 ,52.7348335505496 ,76.3324037355789
14.9778395 ,Left ,40.5257943296716 ,52.805054839081 ,76.3758620677432
15.0003187 ,Left ,40.5899143265822 ,52.8729104279933 ,76.3916097063066
15.0204715 ,Left ,40.6160051148124 ,52.88673134417 ,76.4101161575447
15.0368081 ,Left ,40.5803312459939 ,52.8955392256894 ,76.3923928876307
15.0592636 ,Left ,40.4871293872747 ,52.899417673551 ,76.3463987324392
15.0804381 ,Left ,40.4481162409829 ,52.9985614164029 ,76.3130979585736
15.0967943 ,Left ,40.4210983153124 ,53.1029988932677 ,76.3166402197729
15.1195741 ,Left ,40.4064403780383 ,53.2178540014345 ,76.339606345627
15.1406766 ,Left ,40.4319038395005 ,53.2530140345521 ,76.3419426922809
15.1571099 ,Left ,40.4559836463813 ,53.2384433979528 ,76.3703657901209
15.1795037 ,Left ,40.3504624137457 ,53.2203912737384 ,76.3750234056688
15.2004966 ,Left ,40.2949477243311 ,53.1791874347556 ,76.3284771831867
15.216986 ,Left ,40.2789485897068 ,53.1176919422087 ,76.3362585156181
15.2395654 ,Left ,40.2654780116166 ,53.0522217442621 ,76.3413117984548
15.2620261 ,Left ,40.2166217545033 ,53.0784005843747 ,76.3261885018422
15.276979 ,Left ,40.1538449687415 ,53.175272202058 ,76.3244000226173
15.2995663 ,Left ,40.1097415352146 ,53.3693366076565 ,76.3314617937796
15.320518 ,Left ,40.1108131555485 ,53.5400163792526 ,76.317185242524
15.3361 ,Left ,40.1190577831189 ,53.6184452841957 ,76.324136430046
15.3594319 ,Left ,40.1092498238241 ,53.6068197492187 ,76.3386872366103
15.3805693 ,Left ,40.0330840479488 ,53.5659718916147 ,76.3119668301228
15.3961373 ,Left ,40.0091039656134 ,53.5718303130971 ,76.2569958820921
15.4193031 ,Left ,40.0115369037482 ,53.594732364576 ,76.1947914938341
15.4418913 ,Left ,40.0634831857468 ,53.5706445535968 ,76.1589790269115
15.4562021 ,Left ,40.0569291582794 ,53.5404619517075 ,76.1415552436042
15.4794189 ,Left ,40.0087608702396 ,53.546974439942 ,76.123882835615
15.5019027 ,Left ,39.9851653840764 ,53.5531766068726 ,76.0937662612108
15.516877 ,Left ,40.0148511113578 ,53.5522894377179 ,76.0709774656891
15.5393477 ,Left ,40.0402810653944 ,53.5303986585123 ,76.0757696156163
15.5618857 ,Left ,39.9723623881772 ,53.5022881099611 ,76.1392744769869
15.5761055 ,Left ,39.9971138240872 ,53.4639811096284 ,76.2136188537573
15.599367 ,Left ,40.1325998687455 ,53.3742701386938 ,76.2492191974679
15.6218435 ,Left ,40.2671129792376 ,53.1836786628774 ,76.2221505266784
15.6362101 ,Left ,40.2413338874311 ,53.0702757008365 ,76.2561802779766
15.6593029 ,Left ,40.2493800413081 ,53.0745734123136 ,76.35311661961
15.6818391 ,Left ,40.274265695551 ,53.0934271881224 ,76.3363827258367
15.7028971 ,Left ,40.3866767727509 ,53.0796555648557 ,76.3141085774822
15.7197991 ,Left ,40.3644825086403 ,52.9927679815304 ,76.3354175135539
15.7418985 ,Left ,40.280945972475 ,52.8798574389515 ,76.3382681553335
15.7632535 ,Left ,40.3706594175479 ,52.8093703861614 ,76.3681489674883
15.7793116 ,Left ,40.4758456628805 ,52.759161516876 ,76.3984671554688
15.801891 ,Left ,40.4377714643902 ,52.7877166975659 ,76.4021611188771
15.8231491 ,Left ,40.4666021035121 ,52.8109907124269 ,76.3771321822688
15.8392875 ,Left ,40.5516507943942 ,52.7430137686006 ,76.373178695246
15.8618441 ,Left ,40.578979262736 ,52.7261229969806 ,76.3760874228738
15.8912899 ,Left ,40.5761518095193 ,52.7407199215628 ,76.3893733276295
15.8995092 ,Left ,40.6025260755815 ,52.7473960454872 ,76.4123385603779
15.9217394 ,Left ,40.6329921318019 ,52.7236468996821 ,76.4220871164481
15.9431741 ,Left ,40.6567104717678 ,52.6890429905762 ,76.4361770725622
15.9592837 ,Left ,40.6523267288359 ,52.6316856351229 ,76.4369842984872
15.98207 ,Left ,40.66977423052 ,52.5725207824195 ,76.4302008455238
16.0030235 ,Left ,40.6778098902553 ,52.5380883752457 ,76.4325508378162
16.0195179 ,Left ,40.6775395253023 ,52.518411584021 ,76.4338981219202
16.0420078 ,Left ,40.6606884540203 ,52.518136961754 ,76.4255765367767
16.0632905 ,Left ,40.6837931309358 ,52.5207088583308 ,76.4193532050306
16.079722 ,Left ,40.7062909630634 ,52.5402324888114 ,76.4031859269546
16.1018982 ,Left ,40.6895401328494 ,52.5885298353034 ,76.4215266390698
16.1303902 ,Left ,40.6832916652551 ,52.6648703145321 ,76.4344785163882
16.1393774 ,Left ,40.6695932540687 ,52.738597038908 ,76.4281472607287
16.1620059 ,Left ,40.7010169718831 ,52.7944816713133 ,76.4242555247474
16.1843765 ,Left ,40.7962603857601 ,52.844540588299 ,76.4122359304408
16.19867 ,Left ,40.7296261731352 ,52.8798389951458 ,76.4368110808767
16.2219146 ,Left ,40.6624590636585 ,52.9000592553188 ,76.4585496935661
16.2443979 ,Left ,40.6429840011181 ,52.9072684253516 ,76.4306166651881
16.2586601 ,Left ,40.7253036691949 ,52.8717625507574 ,76.4051177370918
16.2818552 ,Left ,40.7361319921551 ,52.8082934371463 ,76.4065525653346
16.3043906 ,Left ,40.6554264358933 ,52.7708561513258 ,76.3785482881348
16.3195399 ,Left ,40.5723813585197 ,52.7678734175291 ,76.3130419784388
16.341959 ,Left ,40.5465476126572 ,52.7757930362465 ,76.2774241895172
16.3644338 ,Left ,40.5329635193373 ,52.7734481538695 ,76.2847018491564
16.3790451 ,Left ,40.5574190931468 ,52.7725078099124 ,76.2691970077809
16.4017799 ,Left ,40.5911216867565 ,52.7162703869478 ,76.3226543388294
16.4276055 ,Left ,40.5432479069547 ,52.723959898001 ,76.3608766469447
16.4474242 ,Left ,40.5488601306786 ,52.7913627955466 ,76.3604577097832
16.4493755 ,Left ,40.5488601306786 ,52.7913627955466 ,76.3604577097832
16.4540884 ,Left ,40.7253036691949 ,52.8717625507574 ,76.4051177370918
16.4720553 ,Left ,40.6379445494443 ,52.8295583943479 ,76.3828332429121
16.479142 ,Left ,40.6202018906253 ,52.9497939546843 ,76.371290899318
16.49799 ,Left ,40.557411618252 ,52.8775296927862 ,76.3801500564209
16.5137679 ,Left ,40.6357388753933 ,52.6596323482607 ,76.3546378196207
16.5353816 ,Left ,40.6078561897866 ,52.8539297797449 ,76.2731681541073
16.5511369 ,Left ,40.5203350121107 ,52.9789359273106 ,76.2747169428736
16.5736905 ,Left ,40.6542555282298 ,52.9534101517982 ,76.3495101263145
16.5955211 ,Left ,40.4364087239038 ,53.2171439528667 ,76.3295912113232
16.6111056 ,Left ,40.6204153992071 ,53.0177611891245 ,76.3819072267188
16.6336635 ,Left ,40.5590117981469 ,52.9302632607845 ,76.4434738696632
16.6568569 ,Left ,40.4476234519306 ,52.9433111730805 ,76.4219316132186
16.6711559 ,Left ,40.4087550107882 ,52.9007087999185 ,76.3785545306757
16.6937934 ,Left ,40.4307548341306 ,52.8562273712018 ,76.3702790826231
16.7244825 ,Left ,40.3512726577337 ,52.869257595868 ,76.334703802448
16.7379466 ,Left ,40.2813536313939 ,52.9434459243961 ,76.3520592451452
16.75365 ,Left ,40.1947471537981 ,53.2742829523234 ,76.3432106938616
16.7769174 ,Left ,40.3497957317127 ,53.1905830314657 ,76.3592350775186
16.7980316 ,Left ,40.450362092804 ,53.2570741556223 ,76.3739384737441
16.8150433 ,Left ,40.456459232003 ,53.1589883628907 ,76.3836966274482
16.836865 ,Left ,40.3735673854412 ,53.0817963022924 ,76.3392663088377
16.8579869 ,Left ,40.340054655705 ,53.0550663756336 ,76.2938049277631
16.87358 ,Left ,40.4181312856373 ,53.0434298489972 ,76.2551909279842
16.89694 ,Left ,40.4585731139377 ,53.0358185674528 ,76.259021850362
16.9111109 ,Left ,40.3938101809518 ,53.0425515325299 ,76.2612880201687
16.9336013 ,Left ,40.356129044705 ,53.0641010220209 ,76.2568217500209
16.9568264 ,Left ,40.3669008780072 ,53.0804849791202 ,76.2473869560931
16.9713013 ,Left ,40.2886781355109 ,53.1289064044639 ,76.2097361660711
16.993781 ,Left ,40.186240773372 ,53.2076063754474 ,76.1494957177742
17.0231296 ,Left ,40.1403872970821 ,53.3142025288095 ,76.0695346006984
17.0380693 ,Left ,40.145764231174 ,53.3617886682222 ,76.0264305823261
17.0537337 ,Left ,40.1786539263279 ,53.3979304420943 ,76.0638283596776
17.0767933 ,Left ,40.2381113299628 ,53.4503675831693 ,76.116812306094
17.0980503 ,Left ,40.3499288356807 ,53.4114860921266 ,76.1384088094728
17.1137453 ,Left ,40.4355951744231 ,53.2659004474105 ,76.1389718793933
17.1369111 ,Left ,40.4302060610167 ,53.1444746754498 ,76.20856402331
17.157832 ,Left ,40.4274014852793 ,53.0959508076965 ,76.3101180288406
17.1737386 ,Left ,40.5383661561494 ,53.1083064550284 ,76.3707884580785
17.1969426 ,Left ,40.6163013628087 ,53.0929875176216 ,76.404982367596
17.2178958 ,Left ,40.643099877962 ,53.0455562301874 ,76.4266774138253
17.2337326 ,Left ,40.4763666171015 ,52.9281012058989 ,76.4270238888725
17.2569593 ,Left ,40.4554072384279 ,52.766292875715 ,76.4116356645918
17.2779867 ,Left ,40.5480968055837 ,52.6182978544907 ,76.4110930507303
17.2937076 ,Left ,40.5616174018853 ,52.5648608308477 ,76.4320192312787
17.3242625 ,Left ,40.5084394029016 ,52.658402149038 ,76.4341459415977
17.3469496 ,Left ,40.5387931319903 ,52.7901151792318 ,76.4192896171884
17.3618394 ,Left ,40.6837793067068 ,52.7683135855144 ,76.4526765775807
17.3843994 ,Left ,40.7281217069769 ,52.6939226658427 ,76.4697032758377
17.4067607 ,Left ,40.7060030572873 ,52.6800401274689 ,76.4846079338977
17.4212086 ,Left ,40.7612422012176 ,52.6724184724476 ,76.5157425551032
17.4443041 ,Left ,40.8428744102474 ,52.6619523335955 ,76.5534828602529
17.4729189 ,Left ,40.8622790744432 ,52.6447992330272 ,76.5737738384306
17.4813392 ,Left ,40.8638993697213 ,52.6467370966268 ,76.5889466294827
17.5043767 ,Left ,40.8942016526346 ,52.6390471961835 ,76.5953014694249
17.5268091 ,Left ,40.9083408891907 ,52.6310328458031 ,76.5905477558057
17.5412372 ,Left ,40.8844471871937 ,52.6184520745611 ,76.5805673104632
17.5643549 ,Left ,40.8542431702934 ,52.6028017427557 ,76.5694418230592
17.5868938 ,Left ,40.8630027410396 ,52.5830985063906 ,76.5588663464737
17.6013755 ,Left ,40.8577239613841 ,52.5701195792634 ,76.5474963815863
17.6243926 ,Left ,40.8524674610746 ,52.588645194258 ,76.5509676009534
17.646932 ,Left ,40.8770065099144 ,52.6292206875901 ,76.5580708407338
17.6612158 ,Left ,40.898377320451 ,52.6839695489403 ,76.5786350310534
17.6844924 ,Left ,40.914842490431 ,52.7401337709045 ,76.5879930745867
17.7067748 ,Left ,40.9178079052448 ,52.7928194938238 ,76.5862159051771
17.7214529 ,Left ,40.9044236313914 ,52.8424421207448 ,76.5856246356191
17.7457771 ,Left ,40.871697667414 ,52.8852521187052 ,76.5816382143181
17.7670144 ,Left ,40.8427087420989 ,52.9224293432061 ,76.5628085418098
17.7881364 ,Left ,40.832211965843 ,52.9375736430577 ,76.5588722711991
17.8043029 ,Left ,40.8238218815499 ,52.9462584996959 ,76.5562464008971
17.8267948 ,Left ,40.8141744334416 ,52.947842770696 ,76.564351772993
17.8481537 ,Left ,40.8045711894475 ,52.937984143125 ,76.5718799896354
17.8643478 ,Left ,40.7975897901152 ,52.9302879875304 ,76.5781902388059
17.886885 ,Left ,30.589386355742402 ,39.6885811621467 ,57.437456990932205
17.9078548 ,Left ,20.3919912734794 ,26.458932904125 ,38.29519977002925
17.9245399 ,Left ,10.19504092648875 ,13.2290246054381 ,19.1494826324409
20.112228 ,Left ,41.0647653456289 ,52.0072871987404 ,76.9988841279907
20.1287279 ,Left ,41.0282252848429 ,52.0677466766174 ,76.9951281327606
20.1497734 ,Left ,41.0333294626858 ,52.0997427165899 ,76.983536067945
20.1723274 ,Left ,41.04804002845 ,52.1221680357331 ,76.9655502699273
20.1886919 ,Left ,41.055114652532 ,52.1374274011703 ,76.9568977822631
20.2111901 ,Left ,41.0596856672611 ,52.1832439929373 ,76.9712717406128
20.2322984 ,Left ,41.0652434062097 ,52.2451060282579 ,77.003412736836
20.2487688 ,Left ,41.0746175833533 ,52.2906299632285 ,77.0100325314841
20.271132 ,Left ,41.0777246309984 ,52.3338175031673 ,77.0064560185725
20.2923863 ,Left ,41.0571664055064 ,52.3689929416033 ,76.998150257443
20.3086985 ,Left ,41.0048741385281 ,52.3672118799488 ,76.9620132953939
20.3314018 ,Left ,41.0670498526616 ,52.3588441433042 ,76.878430907639
20.3524348 ,Left ,41.0287183215326 ,52.3612919289516 ,76.8316770283076
20.376084 ,Left ,40.9792706879746 ,52.4146964404817 ,76.82030424117
20.3910616 ,Left ,40.8671519119132 ,52.4811666087156 ,76.757197571729
20.4122266 ,Left ,40.8806058800121 ,52.5462883115347 ,76.7336095249338
20.4286831 ,Left ,40.967570954567 ,52.5378540533052 ,76.7476236171635
20.4511421 ,Left ,40.9147028914308 ,52.5150820651483 ,76.7687605020104
20.4721595 ,Left ,40.8311495748664 ,52.5372979762924 ,76.8013126672699
20.4887454 ,Left ,40.7525028254284 ,52.5340010922539 ,76.7881408291449
20.5120134 ,Left ,40.7396810951865 ,52.5276841022128 ,76.7738911963589
20.5344259 ,Left ,40.7609973109559 ,52.5274259067967 ,76.787419156755
20.5487517 ,Left ,40.7788738335384 ,52.4997623989634 ,76.7916359615073
20.571986 ,Left ,40.7636060742997 ,52.4884395729768 ,76.8015420794116
20.5943079 ,Left ,40.7256375371667 ,52.5032085884581 ,76.7703068413939
20.6086239 ,Left ,40.685549321286 ,52.4851558226909 ,76.750938631433
20.6318026 ,Left ,40.6723264901641 ,52.468302633941 ,76.6701236810703
20.6543643 ,Left ,40.6645454240819 ,52.4483845914518 ,76.6395183758442
20.675413 ,Left ,40.6690896031586 ,52.4175970573984 ,76.6576496037861
20.6918905 ,Left ,40.6449040620771 ,52.4352988159069 ,76.6818302386007
20.7144246 ,Left ,40.6964605555599 ,52.4737108860889 ,76.6844311622424
20.7355287 ,Left ,40.7290543461088 ,52.53194862686 ,76.7133473435128
20.7519173 ,Left ,40.6882899003221 ,52.5800689901503 ,76.7043726843202
20.774375 ,Left ,40.6293781135547 ,52.6034262168872 ,76.6581527870865
20.7957117 ,Left ,40.6318412106612 ,52.6251134646532 ,76.6214997948738
20.8120714 ,Left ,40.637193706341 ,52.6360107477843 ,76.6114650829924
20.8343005 ,Left ,40.6062090790944 ,52.6394443125145 ,76.6248678397066
20.8555385 ,Left ,40.6194948818819 ,52.643175219106 ,76.6020715108569
20.8718999 ,Left ,40.6253500152858 ,52.6583529654532 ,76.572488199854
20.8942646 ,Left ,40.5931061491697 ,52.7317163629919 ,76.564760415536
20.9182753 ,Left ,40.5563181663077 ,52.7793461758369 ,76.5479121470432
20.932033 ,Left ,40.4725424611871 ,52.8148590412666 ,76.5398855290698
20.9543755 ,Left ,40.427875756892 ,52.7870540164429 ,76.5453759784697
20.9753264 ,Left ,40.404666430612 ,52.8329041512159 ,76.5289941571588
20.9918134 ,Left ,40.3441912320255 ,52.9491215976539 ,76.5443101568595
21.0143839 ,Left ,40.2908956215487 ,53.109348910464 ,76.5486578183148
21.0354086 ,Left ,40.2763034823673 ,53.2162979795073 ,76.5393676251302
21.0511263 ,Left ,40.3446571177575 ,53.2082770020483 ,76.545602202804
21.0743225 ,Left ,40.3506736345162 ,53.153395143389 ,76.5429230312136
21.0968683 ,Left ,40.239865070388 ,53.147435516293 ,76.51906536818
21.1111824 ,Left ,40.1791092406911 ,53.1799999770345 ,76.5151869870626
21.1348858 ,Left ,40.2496387348969 ,53.2041981420207 ,76.5172614262703
21.1566147 ,Left ,40.2698134542702 ,53.2122406067356 ,76.4977514545871
21.1711391 ,Left ,40.1815660378564 ,53.2647425411577 ,76.4646392309158
21.1946158 ,Left ,40.1170646869612 ,53.327728464534 ,76.4329921311094
21.2167977 ,Left ,40.1167645991365 ,53.3682856594467 ,76.3741376780885
21.2318231 ,Left ,40.1105406809781 ,53.4427669730827 ,76.3345481454393
21.2542417 ,Left ,40.0412788413298 ,53.4996019427927 ,76.2925203449553
21.2769942 ,Left ,39.9996574934974 ,53.5075083639374 ,76.2539647572099
21.2911599 ,Left ,39.9497998187321 ,53.5177750108053 ,76.2830540034137
21.3144133 ,Left ,40.0107652562671 ,53.5263993905434 ,76.3671155540994
21.3366963 ,Left ,40.077060881692 ,53.4869824311681 ,76.4221013381209
21.3511616 ,Left ,40.2066629244635 ,53.3314176357597 ,76.4569199422068
21.3743093 ,Left ,40.2595158067589 ,53.1370964537149 ,76.4596410264874
21.3970104 ,Left ,40.2193332271294 ,53.0858925715676 ,76.5660154054738
21.4255422 ,Left ,40.2327972646699 ,53.0559392692917 ,76.6162381638863
21.4342692 ,Left ,40.2994870356739 ,53.0092372426315 ,76.5492897911833
21.4568368 ,Left ,40.3723011400088 ,52.9104079374375 ,76.5611663953025
21.4780099 ,Left ,40.4049522870223 ,52.8002896591815 ,76.6049262549609
21.4943849 ,Left ,40.3979855644408 ,52.7452529067205 ,76.625315199553
21.5168197 ,Left ,40.4637472256417 ,52.7475415713083 ,76.6355278631208
21.5402569 ,Left ,40.5606493475934 ,52.7533106715265 ,76.649930190396
21.5544051 ,Left ,40.6173078615573 ,52.724365678259 ,76.6694225828569
21.5769057 ,Left ,40.6148640203179 ,52.6939278386939 ,76.7050526586372
21.5981943 ,Left ,40.6275329791818 ,52.7236929889487 ,76.7358635628421
21.6144116 ,Left ,40.6927240575237 ,52.7443472786965 ,76.7682532548984
21.6367796 ,Left ,40.7389384792298 ,52.7465455245262 ,76.806412303898
21.6579198 ,Left ,40.7364448607069 ,52.7194633418091 ,76.8442923261263
21.6745701 ,Left ,40.7178941176278 ,52.6730708257016 ,76.8714195729701
21.6968168 ,Left ,40.7593409266283 ,52.6194991668851 ,76.8909708698037
21.7192782 ,Left ,40.8203836734704 ,52.5057776998227 ,76.8988748246187
21.7405992 ,Left ,40.7834037352235 ,52.6595252012393 ,76.8636288165484
21.7568564 ,Left ,40.7889122051961 ,52.6096035128395 ,76.8912883737237
21.7779281 ,Left ,40.8673124810843 ,52.4548618619102 ,76.9194392716975
21.7942974 ,Left ,40.9669858841407 ,52.3773267028184 ,76.9226012402568
21.8167922 ,Left ,40.961117752683 ,52.5426220315778 ,76.9174459234021
21.8380848 ,Left ,40.8489243602637 ,52.8673317391774 ,76.89890350012
21.8542831 ,Left ,40.7418152360371 ,53.0612583718217 ,76.8903338274626
21.8768261 ,Left ,40.7887479051318 ,52.9927650845513 ,76.8350901173465
21.8980151 ,Left ,40.9628510604555 ,52.8110740663137 ,76.843976830896
21.9142719 ,Left ,40.9494307105535 ,52.7863204125776 ,76.8870197942333
21.9367844 ,Left ,40.7682663547762 ,52.9938392671477 ,76.8844712145201
21.9578589 ,Left ,40.6494392794937 ,53.2480875840278 ,76.8099679886055
21.973722 ,Left ,40.6509037729522 ,53.306902524868 ,76.7630817377521
21.9973763 ,Left ,40.7016917075855 ,53.124292661992 ,76.7643309560281
22.0179715 ,Left ,40.5872054258384 ,53.0894780948583 ,76.7743739202769
22.0420726 ,Left ,40.5082136337547 ,53.0609085140175 ,76.7718700501858
22.0566923 ,Left ,40.4754436952063 ,53.0163371502048 ,76.7169344992916
22.0796191 ,Left ,40.4450531284382 ,53.002723319337 ,76.6894056193268
22.0936334 ,Left ,40.4388958175566 ,52.9915501727764 ,76.6652205339287
22.1168119 ,Left ,40.441176693963 ,52.9707406762842 ,76.7006414239842
22.1394626 ,Left ,40.4630919027343 ,52.9608963982377 ,76.7314057083954
22.1542969 ,Left ,40.4701232338465 ,53.0095993165982 ,76.7449406380257
22.1767299 ,Left ,40.5055439909685 ,53.0560574114401 ,76.7607148873296
22.1993952 ,Left ,40.5160207031095 ,53.066309248431 ,76.7403041049247
22.2139301 ,Left ,40.4643696841007 ,53.0762734693492 ,76.7260628023187
22.2367681 ,Left ,40.4180982256895 ,53.1053109213503 ,76.7002594000985
22.2592658 ,Left ,40.3544512233066 ,53.1522652748687 ,76.6719397685708
22.2736578 ,Left ,40.4105603737058 ,53.1722596307166 ,76.700641704916
22.2969061 ,Left ,40.4041855593042 ,53.1616898054513 ,76.6920765012858
22.3195289 ,Left ,40.3638997990732 ,53.1957615257569 ,76.6888408957519
22.3337276 ,Left ,40.3169045272013 ,53.2557539811285 ,76.7011314721667
22.3568795 ,Left ,40.2776580514673 ,53.281247512992 ,76.6803090076813
22.3793512 ,Left ,40.2539726328087 ,53.3083721642185 ,76.6680975472003
22.3937398 ,Left ,40.2227101832716 ,53.2564015310841 ,76.6871123192995
22.4168063 ,Left ,40.132043750288 ,53.2848846207677 ,76.6570462138377
22.4393957 ,Left ,40.078617814042 ,53.4338513569506 ,76.6329788968841
22.4607103 ,Left ,40.0292506165 ,53.6499186467357 ,76.6455576261319
22.4768698 ,Left ,40.0414021022111 ,53.8345643270831 ,76.6535017879825
22.4993643 ,Left ,40.0188426259513 ,53.9011191018637 ,76.6425321271325
22.5204275 ,Left ,40.0026190889643 ,53.8584514519402 ,76.6712482461844
22.5368735 ,Left ,39.9593877434602 ,53.7427542751665 ,76.6606434614284
22.5592716 ,Left ,39.9283639448365 ,53.6388592597879 ,76.6160214357274
22.5805651 ,Left ,39.9470509627683 ,53.5810172578997 ,76.5913027792767
22.5968536 ,Left ,39.9997218784579 ,53.5084037197593 ,76.6055962607606
22.6194504 ,Left ,40.0251971700728 ,53.4509927871214 ,76.6178188888804
22.6405082 ,Left ,40.0470837989968 ,53.4324536376267 ,76.6253413432376
22.6571403 ,Left ,40.076639002227 ,53.4506560821261 ,76.6266123019574
22.6796924 ,Left ,40.0901764445422 ,53.5029576322863 ,76.6029318215945
22.7005452 ,Left ,40.0752061000007 ,53.5665692899252 ,76.5268183807288
22.7168429 ,Left ,40.0332046982158 ,53.6410216600708 ,76.4645911962218
22.7394172 ,Left ,39.9445486439917 ,53.7426375826898 ,76.4150326214867
22.7603505 ,Left ,39.8594952585637 ,53.7924641193434 ,76.3489090936329
22.776924 ,Left ,39.8434104814491 ,53.7758226229593 ,76.2644042960949
22.7993303 ,Left ,39.8545333221343 ,53.7315046964978 ,76.2298952838094
22.820549 ,Left ,39.8104295519844 ,53.7542194274768 ,76.2648982682816
22.8367755 ,Left ,39.8201768793557 ,53.8157251562917 ,76.2905599631508
22.8593958 ,Left ,40.0229190408168 ,53.7522576578246 ,76.3456823012734
22.8815702 ,Left ,40.1991392879174 ,53.5604907086485 ,76.3702394997979
22.902959 ,Left ,40.1807942457767 ,53.3821444574166 ,76.392682709312
22.9193103 ,Left ,40.1516188975268 ,53.3280953975964 ,76.5223308179497
22.9405188 ,Left ,40.2035881201971 ,53.2940594541813 ,76.5920806134737
22.9561561 ,Left ,40.3252466328466 ,53.2586175569526 ,76.5809961392765
22.9794367 ,Left ,40.4063367892918 ,53.2078933366015 ,76.6376302168966
23.0018079 ,Left ,40.4132335598674 ,53.1277886114448 ,76.7062629807498
23.0160944 ,Left ,40.3377527588571 ,53.085611851248 ,76.7536851740661
23.0394141 ,Left ,40.4496904790546 ,53.1053500842545 ,76.7871687054688
23.0618994 ,Left ,40.5053644837962 ,53.1705044273217 ,76.7943700535685
23.0760922 ,Left ,40.5520589477113 ,53.2177137100419 ,76.7957408249149
23.0994043 ,Left ,40.5964061117048 ,53.1775788290693 ,76.8051261126006
23.1218568 ,Left ,40.5940395499933 ,53.0721025327607 ,76.7950523069649
23.1360866 ,Left ,40.5455429130976 ,53.0436601791397 ,76.7972239153875
23.1593609 ,Left ,40.5094222662628 ,53.0425290674628 ,76.7972868859385
23.1818164 ,Left ,40.5418580614008 ,53.0326091652971 ,76.7879628700689
23.1962013 ,Left ,40.5970279890373 ,52.9925657967702 ,76.8042828497093
23.2193427 ,Left ,40.6045793717171 ,52.9369744829754 ,76.8266437809125
23.2418743 ,Left ,30.434767325103977 ,39.66447996238425 ,57.63497557706588
23.2560621 ,Left ,20.2996504489093 ,26.4206943140666 ,38.4285923295625
23.2793273 ,Left ,10.1573068632327 ,13.201906265794324 ,19.215747912880776
24.7710821 ,Left ,40.7814899752556 ,52.4177852764026 ,77.0008670319366
24.7936713 ,Left ,40.7903726479334 ,52.3791514643958 ,77.0381682515007
24.8072515 ,Left ,40.7937933034522 ,52.3591143849026 ,77.057704106672
24.8298014 ,Left ,40.8252789439897 ,52.348753255446 ,77.0609373335786
24.8462018 ,Left ,40.8541044142267 ,52.3513856733624 ,77.058893952601
24.8672364 ,Left ,40.8573390032267 ,52.3715394056925 ,77.0504646993563
24.8896953 ,Left ,40.8483760553302 ,52.3939931996456 ,77.0380084945383
24.9075794 ,Left ,40.8569657327242 ,52.4109851362218 ,77.019701996674
24.9272558 ,Left ,40.8605503819398 ,52.4174646205213 ,76.9986311037498
24.9497499 ,Left ,40.8515408217197 ,52.4301176639852 ,76.9915689926986
24.9675478 ,Left ,40.8258487958973 ,52.4428596085556 ,76.9772935580621
24.9875819 ,Left ,40.8136304838621 ,52.4404065556323 ,76.965413528652
25.009745 ,Left ,40.8245356098357 ,52.4176260879683 ,76.9453652057465
25.0275588 ,Left ,40.8167072488021 ,52.397313622715 ,76.9235155360394
25.0500421 ,Left ,40.7983323698267 ,52.3979263862871 ,76.9121491165537
25.0726768 ,Left ,40.7891590607132 ,52.4076622401301 ,76.8937782247043
25.087567 ,Left ,40.7950916859709 ,52.4339526320491 ,76.8772151534584
25.1071505 ,Left ,40.7998384041244 ,52.4640883332485 ,76.8692669142961
25.1298873 ,Left ,40.7964621021222 ,52.4878951748971 ,76.8653338090433
25.1483582 ,Left ,40.7878928898669 ,52.5175326033017 ,76.8576440789293
25.16727 ,Left ,40.7868901376146 ,52.5445010370933 ,76.8460548400198
25.1896712 ,Left ,40.7863228967996 ,52.5545427450132 ,76.831499255126
25.2076796 ,Left ,40.781256415688 ,52.5511324926591 ,76.8239946673001
25.2272451 ,Left ,40.7701342414279 ,52.5362593336852 ,76.814450623296
25.2451097 ,Left ,40.757742004073 ,52.5244232033997 ,76.8106338687056
25.2675363 ,Left ,40.757742004073 ,52.5244232033997 ,76.8106338687056
25.2871977 ,Left ,40.757742004073 ,52.5244232033997 ,76.8106338687056
25.305274 ,Left ,40.7577446895132 ,52.5217735166111 ,76.8112501604565
25.3276566 ,Left ,40.7570200119232 ,52.5179913053884 ,76.8218370113247
25.3471594 ,Left ,40.750773677818 ,52.5218722256362 ,76.8381888371678
25.3677963 ,Left ,40.7426461135582 ,52.5375371010353 ,76.8531217545576
25.3876793 ,Left ,40.7267712007973 ,52.5550875074443 ,76.8691171218316
25.4072606 ,Left ,40.717972139945 ,52.5629993362315 ,76.8884699928755
25.4252611 ,Left ,40.705195017953 ,52.5665804772665 ,76.9161257662254
25.4495023 ,Left ,40.6924785889368 ,52.5691966467717 ,76.9632755564581
25.4701668 ,Left ,40.6828242934267 ,52.5480883506393 ,77.0275699853752
25.4851067 ,Left ,40.6899757548245 ,52.5216641202268 ,77.0886407899057
25.5076027 ,Left ,40.7370982734179 ,52.4870326670787 ,77.1308597363776
25.5286322 ,Left ,40.7893359021984 ,52.4318186906356 ,77.1599514435446
25.5451869 ,Left ,40.8437221398776 ,52.3598746379019 ,77.1800640990306
25.5677111 ,Left ,40.9108940411398 ,52.2800478622504 ,77.1884409696929
25.5886864 ,Left ,40.9811862931383 ,52.21280431708 ,77.1677801349469
25.6050608 ,Left ,41.0487338900614 ,52.176244862488 ,77.1357700394798
25.6276973 ,Left ,41.1333736346449 ,52.1534009178887 ,77.1214126146717
25.6487303 ,Left ,41.196490523018 ,52.1378646291074 ,77.1362692162945
25.6650861 ,Left ,41.2226802711413 ,52.1547652027362 ,77.1826186334065
25.6936126 ,Left ,41.2798049725238 ,52.1890191460512 ,77.2358680676153
25.7087103 ,Left ,41.3360822675251 ,52.2198780070788 ,77.291020288549
25.7251709 ,Left ,41.3547117827211 ,52.2431424270229 ,77.3601879183131
25.7477684 ,Left ,41.3725213030025 ,52.2676727328223 ,77.42702929827
25.7687558 ,Left ,41.4097875919495 ,52.2906793284639 ,77.4859751250716
25.7835866 ,Left ,41.4270348889127 ,52.3085910316372 ,77.5256361875548
25.8068293 ,Left ,41.4508706300246 ,52.3139466118748 ,77.5571859010474
25.8293849 ,Left ,41.4869194797749 ,52.2779456290644 ,77.5741706157928
25.8505682 ,Left ,41.5474801371827 ,52.2094583693663 ,77.581411234565
25.8669232 ,Left ,41.5804798638703 ,52.1323578772064 ,77.5685686848489
25.8894637 ,Left ,41.5721031596496 ,52.0787366691213 ,77.5405756145321
25.9035836 ,Left ,41.5454548780946 ,52.0615067590799 ,77.5158148800869
25.9268818 ,Left ,41.559219542215 ,52.0344894761518 ,77.5111632077301
25.9497734 ,Left ,41.5789650516685 ,52.0088588962446 ,77.5140376445297
25.963824 ,Left ,41.5713271934941 ,51.9851769792886 ,77.5337045654459
25.9867597 ,Left ,41.5740019035956 ,51.9750332949544 ,77.5385237123641
26.0093839 ,Left ,41.6519047492912 ,51.9465606564694 ,77.5362220808636
26.0235676 ,Left ,41.7202405491298 ,51.8987456737986 ,77.531350676127
26.0469146 ,Left ,41.7575217810864 ,51.8977404473332 ,77.566562829002
26.0693574 ,Left ,41.7204861213087 ,51.9493065136553 ,77.5655119098169
26.0836773 ,Left ,41.7343431839592 ,52.0350855795536 ,77.5231451765987
26.1070299 ,Left ,41.6859707473292 ,52.1233340692663 ,77.4737965328534
26.1293568 ,Left ,41.5400641630005 ,52.1947147385595 ,77.4176198747952
26.158048 ,Left ,41.4711656407103 ,52.2144492495547 ,77.3932327026035
26.1668291 ,Left ,41.4709209367277 ,52.1666795581449 ,77.3612971902268
26.1893672 ,Left ,41.5679155381572 ,52.0953213139263 ,77.3730365738576
26.2106144 ,Left ,41.612346805431 ,52.0175611429608 ,77.3998290818698
26.226798 ,Left ,41.6185800709835 ,51.9745285338529 ,77.4127664906069
26.2493315 ,Left ,41.5749220316315 ,51.961115213479 ,77.4111296763316
26.2636504 ,Left ,41.5297440420475 ,51.9663988566142 ,77.3899714758715
26.2868177 ,Left ,41.4893724565013 ,51.958424186616 ,77.352043534257
26.3094095 ,Left ,41.4689760942672 ,51.9294313937434 ,77.3130403168766
26.3237193 ,Left ,41.4049761024037 ,51.8761368966315 ,77.2969104953421
26.3469034 ,Left ,41.3233786542805 ,51.862566223384 ,77.2491654234404
26.3693047 ,Left ,41.2535470370839 ,51.8742902590759 ,77.2088543627941
26.3903998 ,Left ,41.3295552427341 ,51.8826228376386 ,77.2307024592487
26.4067736 ,Left ,41.3864532513041 ,51.9111687383474 ,77.2473851827803
26.4293342 ,Left ,41.393126039947 ,51.9811984964942 ,77.2436349176632
26.4504096 ,Left ,41.365725580058 ,52.1016519736763 ,77.2317702448355
26.4668078 ,Left ,41.2713538156234 ,52.189213555551 ,77.1842626051568
26.489323 ,Left ,41.2191012515731 ,52.2585215984046 ,77.0989782140478
26.5103988 ,Left ,41.1616012080657 ,52.3436578799782 ,77.0049356157053
26.5267675 ,Left ,41.1430924067294 ,52.4503356375574 ,77.0125662762439
26.5493052 ,Left ,41.1501064687012 ,52.5389605717841 ,77.0122961459589
26.5704233 ,Left ,41.1716958316419 ,52.6087935442078 ,77.018003385909
26.5867785 ,Left ,41.1450889038109 ,52.6579325610899 ,77.0212409288054
26.609237 ,Left ,41.0348643960904 ,52.7354436175252 ,77.0080578856843
26.6302728 ,Left ,40.952284047955 ,52.7905444969833 ,76.9704593756925
26.6467551 ,Left ,40.9343980358455 ,52.8076761335653 ,76.9305950129535
26.6693228 ,Left ,40.8533531265462 ,52.7756804564208 ,76.9446712727365
26.690435 ,Left ,40.7774042203846 ,52.7650297141838 ,76.9347893295874
26.7061514 ,Left ,40.7115148897262 ,52.8102903983107 ,76.9232727474628
26.7354931 ,Left ,40.6738361726205 ,52.8946687178791 ,76.9249823753482
26.7504568 ,Left ,40.6442174390339 ,53.00084514982 ,76.9048212664459
26.7661389 ,Left ,40.6927785574151 ,53.0264787388523 ,76.8902760647106
26.7893571 ,Left ,40.6925097718476 ,53.0363011660665 ,76.8981230372464
26.8117602 ,Left ,40.6194611029555 ,53.0314407686099 ,76.8891407617254
26.8268382 ,Left ,40.5591733147916 ,53.0359438061108 ,76.8590227923997
26.8493928 ,Left ,40.5588928981953 ,53.0597403187304 ,76.8288021480673
26.8718166 ,Left ,40.5497598191593 ,53.0778813669427 ,76.7958908284503
26.8868276 ,Left ,40.4653822314723 ,53.1067809937973 ,76.7319813287807
26.9092642 ,Left ,40.3714994980946 ,53.1481831511949 ,76.649538543614
26.9321295 ,Left ,40.3057795642203 ,53.191187564743 ,76.5497619939456
26.9461312 ,Left ,40.2302761788552 ,53.2228714919229 ,76.4138840006052
26.9693743 ,Left ,40.21353660702 ,53.2630013544546 ,76.3184553636397
26.9917881 ,Left ,40.1753310390139 ,53.3124962024486 ,76.2737710616039
27.0127438 ,Left ,40.1344148062274 ,53.4115544161157 ,76.3032981271362
27.0292255 ,Left ,40.0426858307127 ,53.5186494701883 ,76.3197606275419
27.0518827 ,Left ,40.1110450748441 ,53.5545503063749 ,76.3802767108248
27.0728572 ,Left ,40.2809170961849 ,53.4726533986577 ,76.4152708175586
27.0895344 ,Left ,40.3225879450199 ,53.2780835087301 ,76.4265964271352
27.1118799 ,Left ,40.3184947188129 ,53.1516610400789 ,76.4884800032694
27.1328107 ,Left ,40.3353608391148 ,53.0967487234519 ,76.6156393687669
27.1493332 ,Left ,40.3691087374727 ,53.0788946717187 ,76.6771888676062
27.1718899 ,Left ,40.4361378738777 ,53.0797881207334 ,76.6788766492201
27.1928545 ,Left ,40.4477112176241 ,52.9948566088894 ,76.7062453601365
27.2094777 ,Left ,40.5275119004529 ,52.849877657015 ,76.7574126466413
27.2317659 ,Left ,40.5450252304322 ,52.7731231862668 ,76.7942568231231
27.2528723 ,Left ,40.5859777808619 ,52.7958914512601 ,76.8323121501213
27.2696964 ,Left ,40.641726944801 ,52.8481016509147 ,76.8445572617178
27.2918299 ,Left ,40.7549244306071 ,52.85297581189 ,76.881402074367
27.3127794 ,Left ,40.8291132305415 ,52.7758074850043 ,76.9286472419697
27.329366 ,Left ,40.8278156846884 ,52.7126284955324 ,76.9861290990582
27.3517703 ,Left ,40.8405867277582 ,52.705185125749 ,77.0509606265081
27.3729563 ,Left ,40.8908993316946 ,52.7085101676714 ,77.1163380501128
27.3893059 ,Left ,40.9316930426004 ,52.7004524765729 ,77.1933433316138
27.4118376 ,Left ,40.9604045896145 ,52.6646834282763 ,77.2794773949394
27.4330205 ,Left ,40.9866276009614 ,52.6157713491494 ,77.3402751214636
27.4493616 ,Left ,41.0208830309564 ,52.5768265401904 ,77.3768856287285
27.4718601 ,Left ,30.78853366686585 ,39.41834293711395 ,58.04641632861832
27.4929411 ,Left ,20.52930391557365 ,26.2822711749881 ,38.69290796260715
27.5092917 ,Left ,10.264730866764374 ,13.142953161504774 ,19.34196167423495
35.0395947 ,Left ,41.3087081856504 ,52.4348083326253 ,77.8051452201541
35.0623616 ,Left ,41.2996642047253 ,52.4363607777909 ,77.7974036457724
35.0705487 ,Left ,41.2902508402397 ,52.4441891099249 ,77.7954339417981
35.091832 ,Left ,41.2915963912949 ,52.4438418540281 ,77.7889954009244
35.1129844 ,Left ,41.288520015382 ,52.4460221221345 ,77.7859359400606
35.1293475 ,Left ,41.2721768626802 ,52.4435027586965 ,77.7870447254284
35.1518913 ,Left ,41.2601211268358 ,52.4395745659232 ,77.778291787233
35.1730911 ,Left ,41.2512463910411 ,52.4361191328087 ,77.7720095225352
35.1893969 ,Left ,41.2415124272126 ,52.4274946728484 ,77.7693644965505
35.2119594 ,Left ,41.2347775350594 ,52.4328267463004 ,77.7701980333856
35.2333109 ,Left ,41.2262914106497 ,52.4485755064977 ,77.776134619041
35.2494831 ,Left ,41.2220192916177 ,52.4687809153997 ,77.7858396795891
35.2743565 ,Left ,41.2271708800502 ,52.4915363956015 ,77.7964626746131
35.2943304 ,Left ,41.2407722077888 ,52.5108973890923 ,77.8087004999798
35.3167637 ,Left ,41.2471781108583 ,52.5307451500824 ,77.8256848986608
35.3316064 ,Left ,41.2574898801027 ,52.5367710871973 ,77.8508704693167
35.3544987 ,Left ,41.2768865163649 ,52.528752918282 ,77.8641012863284
35.3687537 ,Left ,41.2893048073015 ,52.5122837365001 ,77.8768235450266
35.376135 ,Left ,41.2869210000034 ,52.496404206755 ,77.8865377830962
35.3972549 ,Left ,41.2804005768115 ,52.4806323327058 ,77.8883380270887
35.4199029 ,Left ,41.2587966857093 ,52.4734516290869 ,77.8756571726668
35.4355776 ,Left ,41.2540889618344 ,52.4555676099702 ,77.8611056010371
35.4572029 ,Left ,41.2462226660352 ,52.4334425985253 ,77.8512104081331
35.4796108 ,Left ,41.2283173767304 ,52.4259068495088 ,77.8478493998537
35.4967278 ,Left ,41.2057289660338 ,52.4279829619133 ,77.8566167506845
35.5172939 ,Left ,41.2019345856662 ,52.4408878264718 ,77.8686577069453
35.539602 ,Left ,41.2020758218298 ,52.4729458397849 ,77.8911442746248
35.5547836 ,Left ,41.2027518417476 ,52.5042231142458 ,77.9204707841559
35.5772374 ,Left ,41.2290103951494 ,52.5408987204355 ,77.9524059142261
35.5995412 ,Left ,41.2574593303401 ,52.5777119372336 ,77.9769555609495
35.6147908 ,Left ,41.271889292667 ,52.6196462968346 ,78.0042391170551
35.6372063 ,Left ,41.2870334276899 ,52.659358167573 ,78.0189416750772
35.6597304 ,Left ,41.306302368283 ,52.6845856560149 ,78.0253432003123
35.6761967 ,Left ,41.3155269722367 ,52.6958445802957 ,78.0178527081349
35.6971742 ,Left ,41.327064765293 ,52.700407601958 ,78.0078007049018
35.719709 ,Left ,41.324765270169 ,52.701183226033 ,77.9949792277979
35.7361328 ,Left ,41.3148408522347 ,52.7020762784966 ,77.9743644805114
35.7571533 ,Left ,41.2961926258048 ,52.7048571518858 ,77.9461911306036
35.779743 ,Left ,41.2631518032909 ,52.7130741734179 ,77.9110967866222
35.7947928 ,Left ,41.2129505868713 ,52.7311814175059 ,77.8749345924423
35.8171695 ,Left ,41.1547744419554 ,52.7563430051575 ,77.8398594079771
35.8398461 ,Left ,41.0952483822346 ,52.7889771659441 ,77.8065734746085
35.8548475 ,Left ,41.0543161678527 ,52.8297341729537 ,77.7773631413926
35.877205 ,Left ,41.0195990004531 ,52.8681790723203 ,77.7629261417388
35.8999284 ,Left ,40.9991422399776 ,52.8932808668173 ,77.757146771675
35.9161228 ,Left ,40.9981041215002 ,52.9173439701848 ,77.7596865204646
35.9371473 ,Left ,41.0094605104118 ,52.9382801676152 ,77.7623662965331
35.9598963 ,Left ,41.0281296015949 ,52.9523030649039 ,77.7680581442587
35.9775992 ,Left ,41.0413046004061 ,52.9537221560121 ,77.7738179064506
35.9970963 ,Left ,41.0673816021785 ,52.9510392709708 ,77.7743000752097
36.0197701 ,Left ,41.1002676151171 ,52.9384734164312 ,77.7780852382145
36.0360655 ,Left ,41.1060847982689 ,52.920609037842 ,77.7733385868472
36.0573361 ,Left ,41.1485512152412 ,52.8708629910293 ,77.7678960291814
36.0796478 ,Left ,41.2091548288707 ,52.8158978837284 ,77.7557519066464
36.0963471 ,Left ,41.2644391824869 ,52.7700705464906 ,77.7312021484709
36.1173208 ,Left ,41.2762947851197 ,52.7450975145648 ,77.7194939639831
36.1478365 ,Left ,41.2580491608384 ,52.7567479659743 ,77.7185700460563
36.1561213 ,Left ,41.2496294404555 ,52.8129248558559 ,77.710635690495
36.177362 ,Left ,41.2573934424102 ,52.8924963447463 ,77.7106115319761
36.1996665 ,Left ,41.2186171023612 ,52.9533887965633 ,77.7029034804089
36.2160161 ,Left ,41.3043997838313 ,52.9955907732588 ,77.6384828164141
36.2372795 ,Left ,41.2696481851838 ,53.0401484090222 ,77.6004491554978
36.2597108 ,Left ,41.168690839199 ,53.1012405005905 ,77.5950044227392
36.2774921 ,Left ,41.0255731443758 ,53.1681194989078 ,77.5635755711726
36.2971319 ,Left ,41.031504365146 ,53.1846320882837 ,77.5006005161656
36.3197419 ,Left ,41.0913796842772 ,53.1666657138545 ,77.4469663882979
36.3375659 ,Left ,41.0254808317804 ,53.1472254493252 ,77.4115765337591
36.3573025 ,Left ,40.9528036641199 ,53.141614315011 ,77.4051063991392
36.3796724 ,Left ,40.8974754884554 ,53.1096389001792 ,77.3471805170363
36.3975255 ,Left ,40.8573638313443 ,53.0514032470271 ,77.2880073648545
36.4172121 ,Left ,40.8255194069386 ,53.012855880007 ,77.2743624267267
36.4397306 ,Left ,40.8340645500988 ,52.9397632006521 ,77.2351541256208
36.4575604 ,Left ,40.8473330180207 ,52.8703343247179 ,77.1945304633932
36.4772616 ,Left ,40.8466883387868 ,52.8424676659581 ,77.1588392901704
36.4996671 ,Left ,40.843119874974 ,52.8748083217991 ,77.1561568490659
36.5176005 ,Left ,40.7810521323073 ,52.9147565347796 ,77.1545797661675
36.5371072 ,Left ,40.8037165496045 ,52.9563264587317 ,77.1660308680948
36.5597041 ,Left ,40.9172899994038 ,52.9530925988043 ,77.1572657631205
36.5775466 ,Left ,40.9280745153796 ,52.9615385623903 ,77.2038738104913
36.5971342 ,Left ,40.8823929797378 ,52.9705138060867 ,77.22343296416
36.6197984 ,Left ,40.8325624485855 ,52.9768785917928 ,77.1960483952585
36.6376421 ,Left ,40.8439799595814 ,52.9803245697566 ,77.1672455890721
36.6600722 ,Left ,40.8047860191131 ,52.968388858437 ,77.1538237809412
36.6796004 ,Left ,40.7664755477348 ,52.9453664855997 ,77.1747094278967
36.7050568 ,Left ,40.8147502524742 ,52.9020174294849 ,77.1899023596239
36.7200355 ,Left ,40.825303829793 ,52.8856752686481 ,77.1871106493591
36.7350692 ,Left ,40.8064209473627 ,52.9233440332047 ,77.181480261593
36.7574799 ,Left ,40.7887804658827 ,53.017198766898 ,77.1866100132345
36.7771636 ,Left ,40.7520670344739 ,53.0650490370587 ,77.1707773027689
36.7950661 ,Left ,40.7249723617106 ,53.1065820332357 ,77.1758535628261
36.8174743 ,Left ,40.6737043757277 ,53.0840521370683 ,77.1744866374498
36.8370343 ,Left ,40.6569968055029 ,53.0782652516082 ,77.1508721452357
36.8551075 ,Left ,40.6374226400988 ,53.1196097919272 ,77.1382190241146
36.8775764 ,Left ,40.5687287016427 ,53.2071134244016 ,77.1480686641732
36.8985502 ,Left ,40.5324639425187 ,53.3113934555077 ,77.1562463169429
36.9196725 ,Left ,40.5256855168686 ,53.3676166504423 ,77.1213275365781
36.9377522 ,Left ,40.5100593537515 ,53.3244312387274 ,77.0887756999074
36.9587852 ,Left ,40.4965013638384 ,53.2319241329449 ,77.0656247142055
36.9813242 ,Left ,40.4983761469501 ,53.1108376724298 ,77.0539119688131
36.9975023 ,Left ,40.4950060338023 ,52.9969381663483 ,77.0207633487453
37.0188475 ,Left ,40.459372978367 ,52.9762912219043 ,77.0053595573241
37.0396567 ,Left ,40.3928083175897 ,53.0115961242956 ,76.9871945998905
37.0577639 ,Left ,40.3590228539655 ,53.0535553227897 ,76.945764979159
37.0786414 ,Left ,40.3420719919857 ,53.0876970355109 ,76.8794471521658
37.0949819 ,Left ,40.3105208316743 ,53.1443481803564 ,76.8310167470099
37.1188522 ,Left ,40.2486861274622 ,53.2189273176569 ,76.7675045995353
37.1385007 ,Left ,40.1773477451757 ,53.2636265589774 ,76.6844970066646
37.1596361 ,Left ,40.1535947150246 ,53.3166032557154 ,76.6000529256415
37.1775345 ,Left ,40.121811921518 ,53.4013102920472 ,76.5842226321946
37.2000937 ,Left ,40.0340595011226 ,53.4777601003185 ,76.6002154678267
37.2203743 ,Left ,39.9606476370896 ,53.5239095804305 ,76.6379866568866
37.2367685 ,Left ,40.0306280838814 ,53.499542648257 ,76.6828835789632
37.2597633 ,Left ,40.205095201419 ,53.3463280655473 ,76.7142185970661
37.2803295 ,Left ,40.2166249193822 ,53.1388591400718 ,76.716709895171
37.3053822 ,Left ,40.2112397705059 ,52.9538010621321 ,76.755606883631
37.3197918 ,Left ,40.2371443462196 ,52.8208877249102 ,76.8093954009935
37.3404953 ,Left ,40.3066831032932 ,52.7157354108526 ,76.8741993593179
37.3567821 ,Left ,40.3683790248368 ,52.616070526027 ,76.930742084508
37.3791537 ,Left ,40.4516575844228 ,52.5279275270637 ,77.0000915292995
37.4004187 ,Left ,40.5578305953559 ,52.4414018564497 ,77.072230193629
37.4166892 ,Left ,40.6118459634877 ,52.3538947907221 ,77.1213322767533
37.4392856 ,Left ,40.6654004526189 ,52.2969690245705 ,77.1609699234131
37.4603706 ,Left ,40.7011684987229 ,52.3014702396578 ,77.1875455298759
37.4767297 ,Left ,40.7631215855569 ,52.346010493006 ,77.1956576238655
37.4993087 ,Left ,40.7973343951601 ,52.4471848707104 ,77.2311720797031
37.5135285 ,Left ,40.7878651010027 ,52.5443654313686 ,77.2700014175783
37.5371632 ,Left ,40.7168944684378 ,52.6181902732167 ,77.2710910548857
37.5593396 ,Left ,40.5895461886677 ,52.650628213585 ,77.2537132419187
37.573631 ,Left ,40.5878100191815 ,52.6459664914131 ,77.2520185714951
37.5967688 ,Left ,40.6328903211306 ,52.5994357093097 ,77.2177233376935
37.6193278 ,Left ,40.5684475807403 ,52.5399478374042 ,77.1556673414907
37.640423 ,Left ,40.530054876658 ,52.5215619289818 ,77.1261180083124
37.6567888 ,Left ,40.4549625812647 ,52.4914475603528 ,77.0774681352684
37.6791986 ,Left ,40.5075384149914 ,52.4441358335467 ,77.0477599979996
37.7002232 ,Left ,40.5613831108924 ,52.3911672347224 ,77.0354532393527
37.7168402 ,Left ,40.5766547652611 ,52.3637687865732 ,77.0497665822028
37.7393621 ,Left ,40.596404697104 ,52.3701284529536 ,77.0618479621175
37.7604003 ,Left ,40.6200234326144 ,52.3887766833804 ,77.0767617575223
37.7771048 ,Left ,40.6498855009126 ,52.4190819454584 ,77.105639686364
37.7991898 ,Left ,40.6858705726314 ,52.4409384614303 ,77.1354675532624
37.820417 ,Left ,40.720869658505 ,52.4441135150721 ,77.1603431625209
37.8371469 ,Left ,40.7308972320494 ,52.4432061411916 ,77.1893507097848
37.8593074 ,Left ,40.7356207316964 ,52.4301660141236 ,77.2098226322964
37.8801933 ,Left ,40.7546794500076 ,52.4154581744807 ,77.2178707331156
37.8967678 ,Left ,40.7821206709085 ,52.3987846690994 ,77.2330167248924
37.919213 ,Left ,40.788296508818 ,52.3958856540114 ,77.244588697635
37.9403652 ,Left ,40.7757368358502 ,52.407242537403 ,77.2454138476837
37.9566624 ,Left ,40.801976203296 ,52.4129165237716 ,77.2434557060614
37.9792489 ,Left ,40.8283525249505 ,52.4149037275438 ,77.2485827522107
38.0004183 ,Left ,40.8551083333291 ,52.4147828100408 ,77.2665890499739
38.0167635 ,Left ,40.8674026840771 ,52.431727987704 ,77.2824499464758
38.0392003 ,Left ,40.8753263426424 ,52.4564564922369 ,77.300495035352
38.0603401 ,Left ,40.9022900973423 ,52.4507148352769 ,77.3291785672906
38.0767931 ,Left ,40.9424102888565 ,52.438092863363 ,77.3624784103266
38.0993446 ,Left ,40.9595931018715 ,52.4346635157224 ,77.3904699200776
38.1203769 ,Left ,40.9581100651068 ,52.4497982831902 ,77.4261898207937
38.1369691 ,Left ,40.9477479273319 ,52.4658694943185 ,77.4516614258354
38.1592437 ,Left ,40.9853609137945 ,52.4687657927897 ,77.4792465490302
38.181668 ,Left ,41.0053509030027 ,52.4744746178534 ,77.5012523997433
38.1967021 ,Left ,41.0045625741556 ,52.4827911804089 ,77.5287881573317
38.2212614 ,Left ,41.0019254259735 ,52.5012777761118 ,77.5477711750269
38.2418374 ,Left ,41.0168924304917 ,52.5212061217398 ,77.5562006399086
38.2566173 ,Left ,41.0356560165054 ,52.5387526707546 ,77.5637515409345
38.2792647 ,Left ,41.0370699627583 ,52.5607718362022 ,77.5715089575292
38.3020257 ,Left ,41.0440492655872 ,52.5784845185119 ,77.5757190541993
38.3162705 ,Left ,41.0629174988334 ,52.5770593931858 ,77.5714843992822
38.3392566 ,Left ,41.0583277467269 ,52.5722442073267 ,77.5674888880344
38.3618052 ,Left ,41.0391405523264 ,52.5739625419037 ,77.562322210496
38.3760733 ,Left ,41.0347690638103 ,52.5816167195525 ,77.5524005784277
38.3992882 ,Left ,41.0342508441526 ,52.5895504063174 ,77.5409682642779
38.4217412 ,Left ,41.0450514370962 ,52.5787615919224 ,77.5371394065761
38.4361145 ,Left ,41.0519252676162 ,52.5761184926788 ,77.5357288761099
38.4593942 ,Left ,41.0673946424448 ,52.5905152301219 ,77.5415341583114
38.48181 ,Left ,41.0581194976833 ,52.6189184625659 ,77.4970229319901
38.4961517 ,Left ,41.0909099249534 ,52.6776112049115 ,77.4640182777609
38.5192041 ,Left ,41.0837925790616 ,52.6930377516188 ,77.4501600778743
38.5417806 ,Left ,41.0078224575196 ,52.696531744118 ,77.4367623402442
38.5629708 ,Left ,41.0143374949149 ,52.7013724711094 ,77.421295129384
38.5791691 ,Left ,41.0457693132818 ,52.6924242352723 ,77.39598002877
38.6019617 ,Left ,41.0425449720575 ,52.6847238656762 ,77.3982341908898
38.6160111 ,Left ,41.038260329495 ,52.6682589850913 ,77.389740226651
38.6392527 ,Left ,41.0260412474934 ,52.6599885438353 ,77.362520019431
38.661659 ,Left ,41.0241012611482 ,52.6590859117486 ,77.3537027090839
38.6828768 ,Left ,40.997811419813 ,52.646643070191 ,77.3372925571258
38.69933 ,Left ,41.010157441559 ,52.6180094888673 ,77.3330072615118
38.7217153 ,Left ,40.9843705864717 ,52.5666379034543 ,77.3249049420865
38.7427734 ,Left ,40.9378008802907 ,52.5111339289066 ,77.3166378447212
38.7593555 ,Left ,40.9690783042767 ,52.4680295884446 ,77.2979768773199
38.7817925 ,Left ,41.0159991034977 ,52.4345039414085 ,77.2863401165097
38.802937 ,Left ,40.9929334843907 ,52.4402560914634 ,77.2786780113267
38.8193405 ,Left ,40.933157253393 ,52.4809198163015 ,77.2859375632317
38.8416634 ,Left ,40.9388502584368 ,52.5910116452647 ,77.2904994164087
38.8628755 ,Left ,40.9449112365841 ,52.7077374902467 ,77.3227448805337
38.8792593 ,Left ,40.9072355958038 ,52.7928453860787 ,77.3446061958925
38.9017922 ,Left ,40.8370846741263 ,52.8496697836377 ,77.3385964988309
38.9229576 ,Left ,40.8171798910489 ,52.8408670075464 ,77.3264086272126
38.9392939 ,Left ,40.8345001215768 ,52.8014445572713 ,77.3298871118492
38.9617309 ,Left ,40.8792106222774 ,52.7136802458472 ,77.3067438464486
38.9829286 ,Left ,40.86459074931 ,52.6205286004546 ,77.2786504089063
38.9991977 ,Left ,40.8349170403887 ,52.5711291442765 ,77.2583669367654
39.0219976 ,Left ,40.8306518212077 ,52.5220226910416 ,77.2281888897793
39.0429337 ,Left ,40.8302747835105 ,52.5010825598676 ,77.210606331349
39.0586958 ,Left ,40.8303256806761 ,52.4965869283288 ,77.2147456800125
39.0816637 ,Left ,40.8372842929157 ,52.5008938271805 ,77.2310998117554
39.1043552 ,Left ,40.8290267392647 ,52.5054927867142 ,77.2579225292358
39.1192718 ,Left ,40.8036756290353 ,52.5264018983729 ,77.2763240185279
39.1419563 ,Left ,40.7683250891743 ,52.5485673736563 ,77.277639283794
39.1641594 ,Left ,40.7308648633272 ,52.5520493692483 ,77.2774660068266
39.179284 ,Left ,40.7530999007533 ,52.5674798377093 ,77.2970193419933
39.2022911 ,Left ,40.7350477844106 ,52.5861901209446 ,77.3142454828763
39.2242587 ,Left ,40.675282257372 ,52.6202914354813 ,77.3266000605274
39.238562 ,Left ,40.6205798212088 ,52.6787863269555 ,77.3068915324617
39.2617898 ,Left ,40.5856874415524 ,52.7354369981142 ,77.2882457051487
39.284181 ,Left ,40.5867032560212 ,52.7873669920726 ,77.2704216165129
39.298637 ,Left ,40.5716734554623 ,52.8147456896396 ,77.2655611762463
39.3218054 ,Left ,40.545325455544 ,52.8127264647963 ,77.282920773094
39.3442399 ,Left ,40.5198518709309 ,52.791286926492 ,77.2847856503057
39.3586914 ,Left ,40.5421380024856 ,52.7442832447315 ,77.2851742855599
39.3818083 ,Left ,40.6068667068771 ,52.6697884186754 ,77.283435729765
39.4042655 ,Left ,40.641165183811 ,52.6134446767474 ,77.2701343572968
39.418644 ,Left ,40.6411081089922 ,52.5780684292641 ,77.2489168816792
39.4418091 ,Left ,40.658353557402 ,52.5512753148755 ,77.2240898054187
39.4642406 ,Left ,40.7037778647212 ,52.526452576154 ,77.1982359899076
39.4785973 ,Left ,40.7474940058322 ,52.5333406717489 ,77.1722848524787
39.5018008 ,Left ,40.725467622078 ,52.6016759929252 ,77.1921110744081
39.5241784 ,Left ,40.6961019094455 ,52.6713819809684 ,77.2328983251512
39.5386377 ,Left ,40.7060084391304 ,52.7526812251697 ,77.2613700006726
39.5617638 ,Left ,40.6965514309069 ,52.8201034886508 ,77.2662597572957
39.5842109 ,Left ,40.6451983752675 ,52.8744608034442 ,77.2624507805251
39.6053686 ,Left ,40.5934576700724 ,52.8761527234084 ,77.2469799959841
39.6216789 ,Left ,40.6008075022514 ,52.8379055527628 ,77.2334576925174
39.6442017 ,Left ,40.588333281409 ,52.7867727126121 ,77.2030671838411
39.6652962 ,Left ,40.5271310275052 ,52.727188981234 ,77.1744465468294
39.6816622 ,Left ,40.4676377900648 ,52.7019071236188 ,77.1450691871264
39.7041659 ,Left ,40.4594930297211 ,52.7208007215577 ,77.1147192399932
39.7253256 ,Left ,40.4790274441944 ,52.7058845104257 ,77.0739059224384
39.7422432 ,Left ,40.4861706086598 ,52.7257658264238 ,77.0612164784385
39.7642597 ,Left ,40.4797689694557 ,52.767986108035 ,77.0638683005602
39.785528 ,Left ,40.4831923554497 ,52.8247344377849 ,77.0796709648583
39.8047909 ,Left ,40.4542120179884 ,52.8939513392153 ,77.1137569495364
39.8242372 ,Left ,40.4115737716231 ,52.9827892071561 ,77.1163574896665
39.8454664 ,Left ,40.392498263737 ,53.0894254045229 ,77.1185369574605
39.8616861 ,Left ,40.3583889232237 ,53.1509532833242 ,77.1019037492067
39.8844608 ,Left ,40.349796926273 ,53.1904026162136 ,77.0996339295163
39.905775 ,Left ,40.3176481809565 ,53.1720688537348 ,77.09229799553
39.9216636 ,Left ,40.3459834004901 ,53.1232629487149 ,77.1015109084057
39.9441796 ,Left ,40.3793255488226 ,53.0544433000228 ,77.1133822060274
39.9653743 ,Left ,40.3921106464807 ,52.979932450335 ,77.1287013722437
39.981701 ,Left ,40.4885741918369 ,52.9066743004895 ,77.1596527494369
40.0041625 ,Left ,40.6112675323234 ,52.8308816218565 ,77.2000451711197
40.0253622 ,Left ,40.6944314848813 ,52.7752603603203 ,77.2469184179772
40.0410347 ,Left ,40.7343846782772 ,52.7636332982706 ,77.2869569644717
40.0643038 ,Left ,40.7707313592238 ,52.7932341320877 ,77.315969996687
40.0866634 ,Left ,40.797411306834 ,52.8336829584321 ,77.333374562358
40.1017652 ,Left ,40.7894578011242 ,52.895673660848 ,77.3455008342691
40.1243167 ,Left ,40.7635015851139 ,52.9894199855462 ,77.3466932576559
40.1467735 ,Left ,40.7129166752388 ,53.0889420085508 ,77.3438047836078
40.1617656 ,Left ,40.6525769536532 ,53.1791569464358 ,77.3222646373198
40.1842309 ,Left ,40.5966063006673 ,53.2501524842348 ,77.2714777961856
40.2073072 ,Left ,40.5483878095473 ,53.2913218874503 ,77.2173556053419
40.2211417 ,Left ,40.4892322771966 ,53.3132911258742 ,77.157439955428
40.2443827 ,Left ,40.4244290644875 ,53.3168902621167 ,77.1120837885917
40.266775 ,Left ,40.3845506973513 ,53.3017078146801 ,77.0872373418555
40.281045 ,Left ,40.3628593076024 ,53.2733786915267 ,77.0824979386942
40.3042117 ,Left ,40.3752801726054 ,53.2308933728147 ,77.0941250996049
40.3264438 ,Left ,40.4079560267196 ,53.1707912526359 ,77.1106398466617
40.3412046 ,Left ,40.4278835182026 ,53.1017162346104 ,77.1357127043108
40.3642413 ,Left ,40.5013903150163 ,53.032677760056 ,77.1878804286236
40.3869342 ,Left ,40.6041910309327 ,52.9386074363106 ,77.2377298331348
40.401184 ,Left ,40.670640033551 ,52.8520151058709 ,77.2861576269235
40.4242984 ,Left ,40.7265026725381 ,52.7867908961807 ,77.3455462295739
40.446706 ,Left ,40.8078778809676 ,52.7247991382681 ,77.4066148357049
40.4678755 ,Left ,40.9171582724971 ,52.6709646454386 ,77.4595178311538
40.4841789 ,Left ,41.01773186425 ,52.6198814167326 ,77.5203369899349
40.5068166 ,Left ,41.0955770972684 ,52.5791556959635 ,77.5910633359517
40.5278531 ,Left ,41.1721942545777 ,52.5394641721032 ,77.6593806671807
40.5442275 ,Left ,41.2546700699707 ,52.5099999837352 ,77.7271843510813
40.5666874 ,Left ,41.2965183265895 ,52.477236847044 ,77.7875968657205
40.5879914 ,Left ,41.3185967003941 ,52.445173527972 ,77.8396075896362
40.6102798 ,Left ,41.345272754447 ,52.4118246934326 ,77.8683088326259
40.6345923 ,Left ,41.3761977368425 ,52.3912068118586 ,77.8895671355128
40.647678 ,Left ,41.3873624271361 ,52.3964720231518 ,77.9080425965649
40.6641607 ,Left ,41.379204112026 ,52.4194282784363 ,77.9093279740079
40.6867866 ,Left ,41.3607471192433 ,52.4725810825225 ,77.8914883852507
40.7079804 ,Left ,41.3171901509344 ,52.5354456498451 ,77.864595839389
40.7244675 ,Left ,41.2527172786329 ,52.6157814459031 ,77.8242394263393
40.746847 ,Left ,41.1813961757772 ,52.7274684160431 ,77.766498524804
40.768002 ,Left ,41.1142953113437 ,52.8447309771474 ,77.7039519975379
40.7841684 ,Left ,41.0381735601875 ,52.9570084047349 ,77.6375592969824
40.806776 ,Left ,40.9400139106542 ,53.0826669446118 ,77.5647129208878
40.827908 ,Left ,40.8065165234326 ,53.2096488938025 ,77.4553054385125
40.8443293 ,Left ,40.698307990401 ,53.3155490498718 ,77.3494421493089
40.866814 ,Left ,40.6447557363865 ,53.3947697467417 ,77.2607214607666
40.8879038 ,Left ,40.5638118060351 ,53.4678627116579 ,77.1862693339108
40.9035032 ,Left ,40.4231579879248 ,53.5416609385854 ,77.1078854559234
40.9267776 ,Left ,40.2947874443942 ,53.6058206714378 ,77.0374337913842
40.9478158 ,Left ,40.2259588546371 ,53.6687333845419 ,76.9422639695467
40.9636476 ,Left ,40.2249199957544 ,53.7058384318571 ,76.8452596730002
40.9869697 ,Left ,40.2074843273526 ,53.6988574404185 ,76.8057024466721
41.009292 ,Left ,40.2003038400801 ,53.7013161689707 ,76.8199639138855
41.0235578 ,Left ,40.1946756768966 ,53.7146134103182 ,76.8508228280459
41.0466533 ,Left ,40.3576285207261 ,53.6497536516858 ,76.9227006719475
41.0696963 ,Left ,40.5655585064537 ,53.4910799527951 ,76.9880581957216
41.0746233 ,Left ,40.6605642407293 ,53.2952958383147 ,77.0467479579958
41.091137 ,Left ,40.6623870583585 ,53.1813632666631 ,77.2063924166721
41.1121529 ,Left ,40.7283752909299 ,53.0715510958439 ,77.330143322201
41.1346652 ,Left ,40.8603915655343 ,52.9471172259243 ,77.391245474484
41.1510052 ,Left ,41.0130149764306 ,52.8186347809241 ,77.4376441184243
41.1721342 ,Left ,41.0868723443445 ,52.7125177983344 ,77.4645431345807
41.1948374 ,Left ,41.0512738524826 ,52.649472320773 ,77.4766519402001
41.2110399 ,Left ,40.9848739466691 ,52.6513359689214 ,77.4804808146347
41.2321355 ,Left ,41.058387444453 ,52.6706505024529 ,77.4832731199045
41.254691 ,Left ,41.1902835503708 ,52.6731131614676 ,77.4936935810493
41.2710042 ,Left ,41.2412082168361 ,52.6592517423891 ,77.5574886954845
41.2922466 ,Left ,41.196412066086 ,52.6127136442391 ,77.6290960028454
41.31468 ,Left ,41.1589235511649 ,52.6051880104936 ,77.6885910315436
41.3310015 ,Left ,41.190044291944 ,52.610676229976 ,77.7184252717623
41.3520143 ,Left ,41.2195322180203 ,52.6063253393479 ,77.734216548092
41.3746608 ,Left ,41.219209261021 ,52.5978915410707 ,77.7588473155467
41.3896285 ,Left ,41.1765652141599 ,52.5791088359482 ,77.7731636032685
41.4201855 ,Left ,41.1272700165778 ,52.5539480144367 ,77.7717167845307
41.4353206 ,Left ,41.0981193298996 ,52.5289090384457 ,77.7683266567278
41.4497246 ,Left ,41.0824698203481 ,52.5119771918925 ,77.7631232340677
41.472356 ,Left ,41.0667135379368 ,52.5010727150241 ,77.7731431107112
41.5035314 ,Left ,41.0607938485308 ,52.5016327921113 ,77.7973107384319
41.5098769 ,Left ,41.0689590744675 ,52.517932826759 ,77.8272208949966
41.5322648 ,Left ,41.1020806040056 ,52.5258116602421 ,77.8718110964597
41.5547089 ,Left ,41.1508780731602 ,52.5259128951395 ,77.920455764123
41.571047 ,Left ,41.2038607007068 ,52.5320678824639 ,77.9572551271839
41.5923525 ,Left ,41.2626548828888 ,52.5417207365817 ,77.9888211710444
41.6147163 ,Left ,41.3148012210387 ,52.5450655624848 ,78.0167066808127
41.6313369 ,Left ,41.3590593923326 ,52.5289242901979 ,78.0339554124671
41.6598012 ,Left ,41.3893567634276 ,52.5024565253104 ,78.0440079029332
41.674601 ,Left ,41.4135436371772 ,52.4861013829802 ,78.0372148571212
41.6910001 ,Left ,41.4135324458502 ,52.4794677624119 ,78.0188815038118
41.7123469 ,Left ,41.3940673849802 ,52.4803416089976 ,77.9981076820284
41.7345722 ,Left ,41.3548501991267 ,52.4910312362033 ,77.974046489745
41.7511189 ,Left ,41.3113879549862 ,52.5133089207113 ,77.9451184661989
41.7723606 ,Left ,41.2709972560175 ,52.550238927583 ,77.9227690010896
41.7946826 ,Left ,41.2435564523135 ,52.5988395028952 ,77.9050791909065
41.8109732 ,Left ,41.223946918742 ,52.632744293379 ,77.9005423700982
41.8321366 ,Left ,41.1960706940657 ,52.6611093300422 ,77.8891589075871
41.8545985 ,Left ,41.1922493075467 ,52.6880940073609 ,77.8915952055667
41.8711197 ,Left ,41.1725474738666 ,52.7261209511884 ,77.9059474580696
41.8921519 ,Left ,41.1564729439269 ,52.7922061506386 ,77.9240685998147
41.9146864 ,Left ,41.1384499372742 ,52.8559887515085 ,77.9138028317001
41.9325848 ,Left ,41.1261539222438 ,52.9260405199377 ,77.8977287474561
41.9596302 ,Left ,41.1139245255301 ,52.9825956156639 ,77.880539452362
41.9774793 ,Left ,41.0907430979085 ,53.0069014868971 ,77.8560359486169
42.0001017 ,Left ,41.0963231517192 ,52.9832416867683 ,77.7871923618415
42.0121099 ,Left ,41.1241392139109 ,52.9671668175588 ,77.7045933942495
42.0345929 ,Left ,41.0344424792212 ,53.0022202728711 ,77.6723841889484
42.0525898 ,Left ,40.966997854665 ,53.0209279945119 ,77.6801458454243
42.0721346 ,Left ,40.9195977986848 ,53.0143649799752 ,77.6315639438822
42.0946702 ,Left ,41.0292240857429 ,52.9769490716277 ,77.6002198330483
42.1124903 ,Left ,41.0262810902442 ,52.9359287675224 ,77.5862002582244
42.1322018 ,Left ,40.9695239092371 ,52.9358118807572 ,77.617447610047
42.1547893 ,Left ,40.8561680028594 ,52.9252700520315 ,77.5805765974556
42.1726507 ,Left ,40.7973773740256 ,52.9011135770732 ,77.5229697576868
42.1921481 ,Left ,40.7679265012424 ,52.8565718042067 ,77.4846526315518
42.2147172 ,Left ,40.723186646588 ,52.798307855535 ,77.4437879514002
42.2325822 ,Left ,40.6956336178163 ,52.7686092794321 ,77.39319523144
42.254931 ,Left ,40.694691314432 ,52.6774036055583 ,77.4058425029333
42.2748384 ,Left ,40.6355794596207 ,52.6305944095172 ,77.4089635369035
42.2925319 ,Left ,40.7339472878741 ,52.6163290761813 ,77.3885903709859
42.3120241 ,Left ,40.8290483316262 ,52.643542534549 ,77.392010478641
42.3346458 ,Left ,40.8612196372512 ,52.7688487488702 ,77.4126602782474
42.3526173 ,Left ,40.7728587406954 ,52.8790555589289 ,77.4080938816124
42.3738328 ,Left ,40.7465630857962 ,52.9713499705982 ,77.3673489753342
42.3948057 ,Left ,40.7553251417069 ,53.0458298072241 ,77.321504336742
42.4127339 ,Left ,40.7072534790634 ,53.0853075674709 ,77.3491092728603
42.4321881 ,Left ,40.6788508971404 ,53.0996581250007 ,77.3861070780119
42.4546954 ,Left ,40.6706760887818 ,53.0898476532663 ,77.3609927669817
42.4725883 ,Left ,40.7157502143649 ,53.0812089109948 ,77.3477851491002
42.4921307 ,Left ,40.6877255895117 ,53.1109075419294 ,77.3652227261605
42.5100003 ,Left ,40.5971046117301 ,53.1564466671253 ,77.3834939025574
42.5325193 ,Left ,40.6058090339893 ,53.1905197469269 ,77.403592371019
42.5537346 ,Left ,40.5620218447193 ,53.1643669058599 ,77.4528327562677
42.570099 ,Left ,40.4984092233645 ,53.1366902807783 ,77.4587485457275
42.5925606 ,Left ,40.5080286680447 ,53.1496185767266 ,77.4798053754161
42.6135944 ,Left ,40.4697528590658 ,53.2397780470407 ,77.4724782589324
42.6346279 ,Left ,40.4400121542623 ,53.3705834530365 ,77.4645657605614
42.6528403 ,Left ,40.4657051438085 ,53.4111136486268 ,77.4369466956827
42.6735528 ,Left ,40.5375703026396 ,53.3927839774875 ,77.4542892574791
42.6946562 ,Left ,40.5178719022644 ,53.3344113644897 ,77.4411408633185
42.7124905 ,Left ,40.4936256493228 ,53.3098829159257 ,77.4364223491914
42.7336395 ,Left ,40.4709173880211 ,53.3130802443189 ,77.4253528694445
42.7500934 ,Left ,40.4966045110859 ,53.3311316648564 ,77.4086475307787
42.7724577 ,Left ,40.4938400719842 ,53.3862868937721 ,77.4048470902764
42.7936066 ,Left ,40.4436137290376 ,53.4437121492574 ,77.3811459137195
42.8099905 ,Left ,40.3816610664948 ,53.504081496178 ,77.3270090988016
42.8331225 ,Left ,40.3271910030675 ,53.5655819800826 ,77.2609722250556
42.8629022 ,Left ,40.2674164665835 ,53.6306939872496 ,77.2052038134799
42.8777749 ,Left ,40.1999733970372 ,53.6939841178218 ,77.132348298461
42.8929026 ,Left ,40.1556804173903 ,53.7377880148075 ,77.0963989355433
42.9149919 ,Left ,40.107952106019 ,53.8236207123434 ,77.1346764754816
42.9354245 ,Left ,40.1006648700209 ,53.8942476399671 ,77.1752701677352
42.9542684 ,Left ,40.2516342755629 ,53.9022931633465 ,77.2236410975872
42.9741547 ,Left ,40.4434957073965 ,53.7711573860025 ,77.2585519154048
42.9952406 ,Left ,40.4368661743474 ,53.5574692488389 ,77.2405873154781
43.0116003 ,Left ,40.3269701502377 ,53.4606788583168 ,77.3173539252176
43.0342283 ,Left ,40.3426798669829 ,53.4381977634782 ,77.392656974752
43.0553215 ,Left ,40.4149602481443 ,53.4208399131127 ,77.3502918688281
43.0716929 ,Left ,40.4965164051838 ,53.3741898410988 ,77.315764055076
43.0941818 ,Left ,40.4496980188009 ,53.2305374405142 ,77.3362181020944
43.1154524 ,Left ,40.4629151887323 ,53.0789253634748 ,77.3634138684482
43.1321558 ,Left ,40.5009632763003 ,53.0175833338518 ,77.3881096871424
43.1548464 ,Left ,40.534757454241 ,53.0149882357607 ,77.3956779310592
43.1752237 ,Left ,40.6679497858281 ,53.0234106169531 ,77.4069655222639
43.1917883 ,Left ,40.7813340329773 ,52.9841137035727 ,77.4397642004125
43.2143453 ,Left ,40.7788143918021 ,52.9186704605438 ,77.4755532209963
43.2354443 ,Left ,40.7494859822902 ,52.9266701184605 ,77.5241157024468
43.2518875 ,Left ,40.8060615878825 ,52.9376759361602 ,77.5558461077442
43.2742366 ,Left ,40.8989856270656 ,52.9345704060306 ,77.5703837186899
43.2886771 ,Left ,40.9569275488471 ,52.9163310562175 ,77.6013682289214
43.3116109 ,Left ,40.9833437635114 ,52.8815781547382 ,77.6397606887274
43.334457 ,Left ,41.014949957564 ,52.8435061092464 ,77.6680988972104
43.3485298 ,Left ,41.0319669810248 ,52.813391142836 ,77.6889595974271
43.3716415 ,Left ,41.0386623753307 ,52.8087871626344 ,77.7045359498322
43.3941331 ,Left ,41.0543592108004 ,52.8193912972938 ,77.7176616257152
43.4152032 ,Left ,41.0740507616485 ,52.8395395338153 ,77.7347842498436
43.4315962 ,Left ,41.0997957656124 ,52.8693953653137 ,77.7484860552679
43.4542785 ,Left ,41.1116924954367 ,52.8959498865695 ,77.7503350222317
43.4752603 ,Left ,41.1144035967236 ,52.9462881773612 ,77.7468382601255
43.4916942 ,Left ,41.1040737895887 ,53.0189813131442 ,77.7595092701582
43.5142171 ,Left ,41.0821020450614 ,53.1124651156619 ,77.7612707715503
43.5352938 ,Left ,41.0703967803391 ,53.1902203863405 ,77.7239544195345
43.5516536 ,Left ,41.0787153481665 ,53.2267734961354 ,77.6701202529907
43.5748502 ,Left ,41.1206405693962 ,53.2371662828077 ,77.5896257048436
43.5955244 ,Left ,41.0283404549131 ,53.2797710097643 ,77.5626980112705
43.6116889 ,Left ,40.9076321937174 ,53.3107803405189 ,77.5545119924481
43.6341232 ,Left ,40.8969331151694 ,53.3119118015218 ,77.5113769809277
43.6554165 ,Left ,40.9417772858599 ,53.2952439785984 ,77.4868426045431
43.6716019 ,Left ,40.9464655681457 ,53.2432551688855 ,77.4689308109827
43.6942695 ,Left ,40.8758396990594 ,53.2150522160796 ,77.4885406414872
43.7157913 ,Left ,40.8163119982275 ,53.2125503399381 ,77.4684454861369
43.7314432 ,Left ,40.7449338577276 ,53.178035903963 ,77.3731404507258
43.7542718 ,Left ,40.7227047833235 ,53.1131942905512 ,77.3654844731695
43.7753251 ,Left ,40.6590223415313 ,53.037848495796 ,77.3577510572294
43.7911971 ,Left ,40.7042898018298 ,53.0513209870573 ,77.3560208343789
43.814235 ,Left ,40.7357412922302 ,53.0549575363765 ,77.3635733590541
43.8368786 ,Left ,40.7346910183584 ,53.1019661894835 ,77.3804899398486
43.851734 ,Left ,40.7669794372175 ,53.1532409375201 ,77.3886077693314
43.8743076 ,Left ,40.7947136389258 ,53.1426961438876 ,77.3831872842758
43.8968331 ,Left ,40.7584647243704 ,53.1471567574263 ,77.3430715470145
43.9178196 ,Left ,40.6843865716851 ,53.1688670872723 ,77.290171211864
43.9416357 ,Left ,40.66981270772 ,53.205249606257 ,77.2351748724006
43.962798 ,Left ,40.6321699250841 ,53.2774136066261 ,77.2313194624409
43.97099 ,Left ,40.6576456351413 ,53.3172848977056 ,77.2754074741863
43.9942303 ,Left ,40.6358603964543 ,53.3565008986278 ,77.2735594854466
44.0167357 ,Left ,40.6258715479716 ,53.4149745806198 ,77.3007026806884
44.0310912 ,Left ,40.5911366325375 ,53.5059241416023 ,77.3313022285249
44.0540998 ,Left ,40.5749055724517 ,53.5676897904016 ,77.3471192671483
44.0767808 ,Left ,40.5737297029088 ,53.5882109182394 ,77.3567732472227
44.0913066 ,Left ,40.5161445860756 ,53.52203474468 ,77.3932587197456
44.114164 ,Left ,40.4576844768604 ,53.4752048213519 ,77.3809959028537
44.1382595 ,Left ,40.4411050165315 ,53.5426552062351 ,77.3728728298158
44.1579486 ,Left ,40.4293100596599 ,53.6286905269891 ,77.3663707119461
44.1742829 ,Left ,40.4285659916298 ,53.7751753110391 ,77.3759216383369
44.1969443 ,Left ,40.4436119363312 ,53.8337639231428 ,77.3686776274281
44.2177431 ,Left ,40.5071483516405 ,53.8032030747024 ,77.4042603524711
44.2343284 ,Left ,40.4759680123435 ,53.6981261880018 ,77.4007582320822
44.2570085 ,Left ,40.4422013942347 ,53.6178474386084 ,77.3816911404709
44.2711491 ,Left ,40.4525233348573 ,53.5937111961331 ,77.3963803813741
44.294099 ,Left ,40.4889552124511 ,53.5848729321658 ,77.404721512427
44.316688 ,Left ,40.515986459472 ,53.5807501239794 ,77.3956707095138
44.3391299 ,Left ,40.5102976748439 ,53.6091327732207 ,77.3956074082069
44.3546977 ,Left ,40.4619221127558 ,53.6719111359892 ,77.3994363583964
44.3766212 ,Left ,40.4261932183483 ,53.75316926493 ,77.3607270278819
44.3977941 ,Left ,40.4395523175609 ,53.8409301801964 ,77.2860134778752
44.4142766 ,Left ,40.4309823692206 ,53.8858673143755 ,77.2147851165711
44.4369336 ,Left ,40.3698536864192 ,53.9096966674539 ,77.1373554704997
44.4578444 ,Left ,40.2870155897742 ,53.92851883764 ,77.0863471982175
44.474893 ,Left ,40.3412250347254 ,53.9886686146219 ,77.1074258302872
44.4967689 ,Left ,40.3994424849059 ,54.0153582097256 ,77.1016087251019
44.5179318 ,Left ,40.5135487135374 ,53.934762953555 ,77.121509492816
44.5342928 ,Left ,40.5626139221131 ,53.7626764594492 ,77.1297631921489
44.5566482 ,Left ,40.5196824369824 ,53.6296850676328 ,77.1936350034503
44.5778143 ,Left ,40.537566212295 ,53.5508268977217 ,77.2752315556183
44.5941596 ,Left ,40.600134206769 ,53.4719564676806 ,77.280331102263
44.6167394 ,Left ,40.7177154087501 ,53.3724108229384 ,77.2920127659233
44.6377914 ,Left ,40.8042166367628 ,53.2208715987356 ,77.3631894670799
44.6536344 ,Left ,40.8232592943692 ,53.1077770127509 ,77.4150594264615
44.6767279 ,Left ,40.8728214784849 ,53.0354423695424 ,77.4319016475094
44.6992955 ,Left ,40.9025225122115 ,53.0296433418499 ,77.4030840057045
44.7135637 ,Left ,40.9859676724905 ,53.0263199443288 ,77.4018243900672
44.7367687 ,Left ,41.0236472356286 ,52.9906249686372 ,77.4443389705133
44.7592358 ,Left ,40.9899801218166 ,52.9465838688122 ,77.4871187489264
44.7803068 ,Left ,41.0130069734674 ,52.9525935893597 ,77.550702905627
44.7967166 ,Left ,41.1058478165392 ,52.9655586546614 ,77.628426907412
44.8193021 ,Left ,41.1604881239271 ,52.9696812700994 ,77.6882285335361
44.8335408 ,Left ,41.1673379248588 ,52.963787623335 ,77.723755196951
44.8567762 ,Left ,41.1661680890515 ,52.9505467885421 ,77.7424576959224
44.8792646 ,Left ,41.1468587654714 ,52.9334519844894 ,77.7503968553099
44.8942266 ,Left ,41.1388008412082 ,52.9201887316535 ,77.7454283183882
44.9166451 ,Left ,41.1464150503859 ,52.9069616552746 ,77.7425739825036
44.9391511 ,Left ,41.1708581579973 ,52.9031373707361 ,77.7436111503671
44.9535131 ,Left ,41.1437188850433 ,52.9120999570418 ,77.7391925264991
44.9766851 ,Left ,41.1271130933115 ,52.9374760545873 ,77.7319595069831
44.9991298 ,Left ,41.1697344426387 ,52.9570857453839 ,77.7211933516135
45.013726 ,Left ,41.1667631716694 ,53.0163392028124 ,77.7173904307613
45.0369454 ,Left ,41.1142263398782 ,53.109073910762 ,77.7338069461902
45.0592627 ,Left ,41.0716749585527 ,53.202970120419 ,77.7417104551372
45.0804952 ,Left ,41.117856249089 ,53.2860653674024 ,77.6666633414155
45.0966546 ,Left ,41.1500017242115 ,53.3569384293025 ,77.6271587200732
45.1194791 ,Left ,41.0618554313826 ,53.458827298136 ,77.6449411273969
45.1403859 ,Left ,40.8989315392407 ,53.5483931275476 ,77.6365617763134
45.1566603 ,Left ,40.8439514936948 ,53.5731860127868 ,77.5931938284234
45.1792382 ,Left ,40.9029334675528 ,53.523240589575 ,77.5644607299511
45.2005309 ,Left ,40.9172770056578 ,53.4367011416357 ,77.5401668908194
