timestamp,event,roll,pitch,yaw
0.028345 ,Left ,49.89287298118 ,53.4769891464078 ,94.3938510090745
0.0506928 ,Left ,49.9142554324067 ,53.462057813997 ,94.4376137978319
0.0880735 ,Left ,49.8903241003878 ,53.4273370294262 ,94.4896799686685
0.1106826 ,Left ,49.8631045130919 ,53.4084911855325 ,94.5008207717277
0.1480529 ,Left ,49.8679545266789 ,53.3816481861751 ,94.5024498961608
0.1706083 ,Left ,49.8717904410964 ,53.3762414598769 ,94.5109124843702
0.2082921 ,Left ,49.8956236319087 ,53.3720480380277 ,94.5416049696698
0.2311226 ,Left ,49.9160633750788 ,53.369168018307 ,94.5609616945644
0.2679604 ,Left ,49.9531931345322 ,53.3651897848606 ,94.5866572393236
0.2905921 ,Left ,49.9495696391446 ,53.3703775037818 ,94.5983155571959
0.3320978 ,Left ,49.9477702071868 ,53.3736039866619 ,94.6237858196764
0.3504728 ,Left ,49.9644258658405 ,53.3763011388917 ,94.635694628265
0.3883909 ,Left ,50.0010153616851 ,53.3742023345255 ,94.6596154047291
0.410398 ,Left ,50.0129026269759 ,53.3719121912437 ,94.6744923278977
0.4499051 ,Left ,50.0165286965792 ,53.350448250789 ,94.6933682411144
0.4705868 ,Left ,50.0243485167328 ,53.3317198520634 ,94.6999514212286
0.5080031 ,Left ,50.0386911495415 ,53.2822234648838 ,94.7199131333772
0.5310157 ,Left ,50.0430144410905 ,53.2629732554949 ,94.7306948302546
0.5679557 ,Left ,50.0396154512584 ,53.2244741310559 ,94.7510223163317
0.5903992 ,Left ,50.0386609939495 ,53.216153454432 ,94.767108166589
0.6280835 ,Left ,50.0626382585563 ,53.1996071078638 ,94.8009761368839
0.6504202 ,Left ,50.0632850987838 ,53.1935489919576 ,94.8173015349496
0.6879372 ,Left ,50.0533927161428 ,53.1797019874301 ,94.8341263913329
0.7051004 ,Left ,50.0442778972406 ,53.1781975382827 ,94.8395658369694
0.7257937 ,Left ,50.0423312143515 ,53.1778788673448 ,94.8393594630886
0.7406644 ,Left ,50.0397665700799 ,53.1774687346666 ,94.8326805101679
0.7645881 ,Left ,50.027185322425 ,53.1776018158322 ,94.8259431402137
0.7857421 ,Left ,50.0057021452432 ,53.1840095776167 ,94.8194119802397
0.8005583 ,Left ,50.0055068629975 ,53.1840420037064 ,94.8175680289606
0.8238798 ,Left ,50.0209783479135 ,53.1727229654492 ,94.8151018996159
0.8463612 ,Left ,50.046372586388 ,53.1629751216651 ,94.8154991219922
0.8763611 ,Left ,50.0564675085351 ,53.1566821582065 ,94.827288862698
0.8831434 ,Left ,50.0724273707079 ,53.1626562703331 ,94.858339191114
0.9178685 ,Left ,50.1003067148949 ,53.1761164008261 ,94.9018448549863
0.9231193 ,Left ,50.1364841704436 ,53.1871048776827 ,94.9452483861975
0.9503518 ,Left ,50.1689263709679 ,53.2016557097276 ,94.976548292938
0.9689368 ,Left ,50.1818568467615 ,53.222808665367 ,95.0006603375636
1.0052045 ,Left ,50.1734422437461 ,53.2447224918924 ,95.0299129566156
1.0055731 ,Left ,50.1513718533837 ,53.2704808895048 ,95.0469139724241
1.0255929 ,Left ,50.1492996747502 ,53.2957417364055 ,95.0458312689632
1.0408444 ,Left ,50.1582395232956 ,53.3073859381663 ,95.0352885031605
1.0630866 ,Left ,50.1678418556271 ,53.3130271604342 ,95.0218732553916
1.085543 ,Left ,50.1648578120504 ,53.3228752253639 ,95.0081779589746
1.1006036 ,Left ,50.1483651330625 ,53.3303051556808 ,94.9938923221524
1.1249181 ,Left ,50.1285193705226 ,53.3315338913055 ,94.9762501911058
1.1478541 ,Left ,50.1160280962048 ,53.3338697083253 ,94.9548626109357
1.161498 ,Left ,50.1072705601518 ,53.337063693598 ,94.9329829098861
1.1831121 ,Left ,50.094275558213 ,53.3312211291421 ,94.9130856837159
1.2056107 ,Left ,50.0854318421061 ,53.3261642612659 ,94.8964078845113
1.2206202 ,Left ,50.0746216509328 ,53.3089732618674 ,94.8800221482986
1.2430575 ,Left ,50.0536037433548 ,53.2820373837161 ,94.8640856643255
1.2656809 ,Left ,50.0262162522328 ,53.2504457791574 ,94.8364254303562
1.2808969 ,Left ,49.9999083369738 ,53.2447972028482 ,94.802465840341
1.3030986 ,Left ,49.943655897598 ,53.2807851032149 ,94.8133440474448
1.3258135 ,Left ,49.8019230394293 ,53.3229766797982 ,94.811858239102
1.3495178 ,Left ,49.7162371883114 ,53.3665041149418 ,94.7812273255754
1.3682971 ,Left ,49.75960700513 ,53.3780186294058 ,94.7421158003394
1.3856102 ,Left ,49.8014150953329 ,53.3891854154123 ,94.724846228241
1.408037 ,Left ,49.7713731733 ,53.4023509119216 ,94.6872855409007
1.4231024 ,Left ,49.7198130083807 ,53.4378068518086 ,94.651698664055
1.4455547 ,Left ,49.6283116636595 ,53.4977066076658 ,94.6515756676007
1.4605633 ,Left ,49.5063560795187 ,53.5365553559998 ,94.6658235739625
1.4831469 ,Left ,49.4532815940982 ,53.5435805515978 ,94.6456521192075
1.5055986 ,Left ,49.4252361633152 ,53.491322327203 ,94.5988909016679
1.5279378 ,Left ,49.3685814038473 ,53.4082449627978 ,94.5480367592824
1.5431791 ,Left ,49.3128926928106 ,53.3213233653504 ,94.5159676757213
1.5706329 ,Left ,49.2089910519022 ,53.2596374251201 ,94.4989980191649
1.5879859 ,Left ,49.0719234233518 ,53.2359161881975 ,94.4759861239528
1.6032155 ,Left ,48.8980944802823 ,53.2328291163196 ,94.4215640115592
1.6255653 ,Left ,48.8792692161689 ,53.245191949134 ,94.4142313385983
1.6483562 ,Left ,48.9802496585657 ,53.2452799802536 ,94.4318531565705
1.6631148 ,Left ,49.1323680544953 ,53.2101779288326 ,94.4413696353948
1.6856209 ,Left ,49.1707418461361 ,53.2109949083182 ,94.4495315503264
1.7080848 ,Left ,49.0786556086741 ,53.2967067270212 ,94.4912906050851
1.7230867 ,Left ,48.8502769110643 ,53.3673875441425 ,94.529700600057
1.7456692 ,Left ,48.6876845933526 ,53.3689801447286 ,94.4978892552582
1.768852 ,Left ,48.6652047582446 ,53.368104943946 ,94.4555684171501
1.7834437 ,Left ,48.7687514554927 ,53.3305052966233 ,94.4692355262571
1.8131655 ,Left ,48.8352541393719 ,53.323343347206 ,94.5385542457552
1.8357856 ,Left ,48.843118341439 ,53.3411629988551 ,94.5666653693222
1.8505531 ,Left ,48.88215814539 ,53.3774151560155 ,94.5647284631707
1.8656975 ,Left ,48.9259008615983 ,53.418671868562 ,94.5770796881761
1.8882859 ,Left ,48.8964013636114 ,53.4772801814458 ,94.5823084416384
1.9031945 ,Left ,48.8362427615203 ,53.4731856359684 ,94.5873311527608
1.9256145 ,Left ,48.6911742973456 ,53.4023372002997 ,94.5454056707726
1.9484112 ,Left ,48.7553412516572 ,53.3236480764566 ,94.5338428124019
1.9634013 ,Left ,48.8246841469991 ,53.219657113379 ,94.5089078858351
1.9856437 ,Left ,48.8170910727287 ,53.1842522896432 ,94.4902041019715
2.008317 ,Left ,48.7622549900722 ,53.2180713991236 ,94.461356108839
2.0230809 ,Left ,48.8206749248274 ,53.2352409639169 ,94.4244591952445
2.0530479 ,Left ,48.9662776702595 ,53.22650861897 ,94.3995873654952
2.0756691 ,Left ,49.0269918908732 ,53.2229619186736 ,94.3860049049554
2.0907704 ,Left ,48.9385906678923 ,53.2530199684743 ,94.371416420292
2.1056087 ,Left ,48.8061588780838 ,53.2981536301402 ,94.3069128085664
2.1281295 ,Left ,48.7478423871777 ,53.3255498137102 ,94.2037594556516
2.1507595 ,Left ,48.8014069098152 ,53.3412140415453 ,94.1047347669236
2.1655974 ,Left ,48.8492110717668 ,53.3588230663428 ,94.030078505495
2.1881159 ,Left ,48.7804316246946 ,53.3824816957071 ,93.9550706927425
2.2104332 ,Left ,48.6605988942581 ,53.40807531351 ,93.8742549015917
2.2255868 ,Left ,48.5865249713463 ,53.4119800165405 ,93.7916905051266
2.2481483 ,Left ,48.5171181957028 ,53.3904592869884 ,93.705587662648
2.2715251 ,Left ,48.4487361937723 ,53.3410453946899 ,93.6293715057404
2.2856777 ,Left ,48.3562465728482 ,53.2455445585712 ,93.5877724629407
2.3080422 ,Left ,48.335457999096 ,53.1648022517006 ,93.5705673687753
2.323014 ,Left ,48.3499520410319 ,53.1167006359519 ,93.5376778557922
2.3457214 ,Left ,48.2487938516872 ,53.1510308072951 ,93.5546166931083
2.3680973 ,Left ,48.2504105608716 ,53.1527047872138 ,93.5910864127812
2.3848316 ,Left ,48.411379680403 ,53.0756163997376 ,93.6208632792051
2.4063925 ,Left ,48.5003076605267 ,53.0090590434187 ,93.6734147907193
2.4280576 ,Left ,48.4398940984427 ,52.9798868299117 ,93.7625155525752
2.4507262 ,Left ,48.3304368687734 ,52.9250577765568 ,93.8287507096288
2.4655881 ,Left ,48.3514099793484 ,52.8520449922019 ,93.8512718545436
2.4882915 ,Left ,48.4931164969646 ,52.79228346561 ,93.8769993575877
2.5104424 ,Left ,48.5759188376908 ,52.7506873450081 ,93.8877360860322
2.525585 ,Left ,48.575708480921 ,52.712361258284 ,93.8686452363691
2.5481026 ,Left ,48.6565656179266 ,52.6762177962826 ,93.8707911247886
2.5705749 ,Left ,48.6554049834211 ,52.7202226399701 ,93.88803305625
2.5855553 ,Left ,48.6841092151982 ,52.7799879689916 ,93.9161859438045
2.6107722 ,Left ,48.8297507130072 ,52.8074584823741 ,94.0006223042376
2.6305347 ,Left ,48.9287867665542 ,52.791801873905 ,94.0920360446434
2.6455451 ,Left ,48.8859752918718 ,52.7619131803359 ,94.1889729275596
2.6679999 ,Left ,48.8191406999631 ,52.7256802645454 ,94.2715484940299
2.6906065 ,Left ,48.8722916059251 ,52.6573552296586 ,94.3472444249134
2.7057795 ,Left ,49.0002606203481 ,52.552228829651 ,94.4147650083988
2.7280417 ,Left ,49.0976451296313 ,52.4553151193723 ,94.4732290981259
2.7506364 ,Left ,49.1169832616435 ,52.4039038076933 ,94.5257431970536
2.7672474 ,Left ,49.1331844105598 ,52.3695243641988 ,94.5543334183476
2.7882524 ,Left ,49.1929065830989 ,52.3264753559381 ,94.5648380380899
2.8105587 ,Left ,49.2553761875421 ,52.2857462694567 ,94.5653866852098
2.8257735 ,Left ,49.2928340808951 ,52.2505671645299 ,94.5614711153942
2.848683 ,Left ,49.2865005212737 ,52.2236843272206 ,94.5465686205088
2.8721545 ,Left ,49.2590149065323 ,52.21274911922 ,94.5230055393123
2.8882344 ,Left ,49.2517986003997 ,52.2091147402969 ,94.4961118928946
2.9080942 ,Left ,49.2800611086616 ,52.2198716607242 ,94.4770242550312
2.9379839 ,Left ,49.2834798178082 ,52.2441845266958 ,94.4744761423299
2.953002 ,Left ,49.2687377161796 ,52.2850586637473 ,94.4788347030156
2.9758457 ,Left ,49.2693943664726 ,52.3289137732206 ,94.4861838684881
3.0057403 ,Left ,49.2830470115258 ,52.4106004463852 ,94.5152246615079
3.0282306 ,Left ,49.2570201947681 ,52.4518434367881 ,94.5280258823068
3.0505388 ,Left ,49.2305243056278 ,52.4948743767901 ,94.5379634099745
3.0655021 ,Left ,49.2088714032287 ,52.5266868711601 ,94.5345320082606
3.0880869 ,Left ,49.2264088632494 ,52.5574592712954 ,94.525844683282
3.1104947 ,Left ,49.2531722177185 ,52.573855250235 ,94.5250507999708
3.1254417 ,Left ,49.2857369867303 ,52.577338745424 ,94.5192309535449
3.1494149 ,Left ,49.3303403708625 ,52.5712596207733 ,94.5198563422612
3.1707267 ,Left ,49.3428800968032 ,52.5615517317588 ,94.5307436151704
3.1872416 ,Left ,49.3465763005173 ,52.5623495333714 ,94.5528903120167
3.208084 ,Left ,49.3624042587726 ,52.5771015663111 ,94.5832821585879
3.2320948 ,Left ,49.4150110666121 ,52.5763487006724 ,94.5964050639696
3.2455149 ,Left ,49.4603907347746 ,52.5721653919789 ,94.6098066891996
3.2681453 ,Left ,49.4689301886103 ,52.5737319791018 ,94.6441961656209
3.2906437 ,Left ,49.4629907876398 ,52.5688376641892 ,94.6810692781939
3.3055214 ,Left ,49.4586502747235 ,52.5642728854533 ,94.7144520849475
3.3279493 ,Left ,49.4718809067992 ,52.5606575913943 ,94.7473574619526
3.3508204 ,Left ,49.4817091287679 ,52.5565638468324 ,94.7864142356484
3.3666817 ,Left ,49.4732943290929 ,52.5611963811656 ,94.8132022314014
3.389365 ,Left ,49.4697299062916 ,52.5626159892643 ,94.8439792818538
3.4105186 ,Left ,49.4685985753697 ,52.5525163994126 ,94.8574995112457
3.435228 ,Left ,49.4498838464918 ,52.5356978610954 ,94.8605349604497
3.4482618 ,Left ,49.4655390255021 ,52.5106063378243 ,94.8569406401583
3.4707682 ,Left ,49.4407280255065 ,52.5105105216268 ,94.8432426934585
3.4929114 ,Left ,49.3634277912842 ,52.5453724494515 ,94.8377500356447
3.5080638 ,Left ,49.2494980066379 ,52.6334990423844 ,94.8304446302125
3.5306722 ,Left ,49.1424834509661 ,52.76281103738 ,94.8461198686166
3.5531092 ,Left ,49.091585855569 ,52.8631547358306 ,94.8383491887678
3.5685476 ,Left ,49.085377398179 ,52.9236203477289 ,94.8378426653116
3.590594 ,Left ,49.0461567348603 ,52.9588315392989 ,94.8400241948524
3.6131994 ,Left ,48.9317314238658 ,53.0257843924239 ,94.8549018837861
3.6282461 ,Left ,48.9012363890593 ,53.0620023078635 ,94.828344543986
3.6506061 ,Left ,48.968165644737 ,53.0421454713497 ,94.7728543470521
3.6730895 ,Left ,48.9875248466007 ,53.006938429647 ,94.7288743917168
3.6881484 ,Left ,48.8865700769933 ,52.9743710445848 ,94.7132644762433
3.7179271 ,Left ,48.763522468905 ,52.9158971434001 ,94.6881821120165
3.7407487 ,Left ,48.6611363124165 ,52.8282940998334 ,94.6392523072423
3.7557611 ,Left ,48.593908841068 ,52.7465133864002 ,94.59451489024
3.7781311 ,Left ,48.62406225383 ,52.6656173822146 ,94.5734271232844
3.7932734 ,Left ,48.6489680020884 ,52.6144841419563 ,94.5752200385835
3.8084413 ,Left ,48.5884204764286 ,52.5983739332608 ,94.5750181188372
3.8314008 ,Left ,48.6138630249987 ,52.5970524680154 ,94.590411277407
3.8605717 ,Left ,48.6880210141574 ,52.607908463859 ,94.6008626146481
3.8755464 ,Left ,48.6868314186668 ,52.6716151845404 ,94.6225423786608
3.8982451 ,Left ,48.5542508144399 ,52.7469170998616 ,94.6353807865494
3.9129523 ,Left ,48.4121586256353 ,52.786608458556 ,94.6297182016595
3.9356509 ,Left ,48.4248629557036 ,52.8088134208607 ,94.6374495444698
3.9505586 ,Left ,48.5172569908719 ,52.7694081153442 ,94.6624098661836
3.9730674 ,Left ,48.5546000134161 ,52.747143392028 ,94.7030474359547
3.9956171 ,Left ,48.5499241715193 ,52.7621396301689 ,94.7014954402403
4.01057 ,Left ,48.4829805581978 ,52.8081185440691 ,94.6847132718655
4.0407909 ,Left ,48.4053666275024 ,52.8673000396759 ,94.6438309342338
4.0554675 ,Left ,48.3825604848631 ,52.8506546860261 ,94.562965054029
4.0780626 ,Left ,48.3362549773204 ,52.8109849306573 ,94.503940356263
4.0931281 ,Left ,48.2751786024676 ,52.7961517077809 ,94.4396859819886
4.1082446 ,Left ,48.252851382915 ,52.7586035377952 ,94.3424231187172
4.1305836 ,Left ,48.2325004460116 ,52.7495216603385 ,94.3003545908016
4.1532714 ,Left ,48.1551297988481 ,52.789428756794 ,94.2534315189304
4.1682048 ,Left ,48.1729135986937 ,52.8010359030263 ,94.2152359404493
4.1906081 ,Left ,48.2418287604957 ,52.787083158414 ,94.2033341508758
4.2129754 ,Left ,48.2839862786271 ,52.7584921831567 ,94.1935319867657
4.2279933 ,Left ,48.3264019653777 ,52.7881384172251 ,94.1975744274671
4.2505533 ,Left ,48.367172675818 ,52.8252617459524 ,94.1986176924263
4.2729931 ,Left ,48.3446691694402 ,52.8802028089775 ,94.1773997459029
4.2881459 ,Left ,48.401744707158 ,52.9410875055941 ,94.1482880607214
4.333088 ,Left ,48.4698093770831 ,52.9908154403558 ,94.1308494930235
4.3555633 ,Left ,48.4751454134474 ,53.0391871551137 ,94.1184736406568
4.3936091 ,Left ,48.4175644160885 ,53.0749595770899 ,94.0136261773748
4.4217654 ,Left ,48.4256743781441 ,53.076067575689 ,93.9988770540365
4.4308997 ,Left ,48.3925444304548 ,53.0790506681269 ,93.9733387268869
4.4531063 ,Left ,48.3046234723816 ,53.075575559617 ,93.9443612752964
4.4754099 ,Left ,48.2370704098022 ,53.0676762814363 ,93.91177413867
4.4904898 ,Left ,48.1637981054102 ,53.0493514833431 ,93.8990893919781
4.513086 ,Left ,48.1122165199376 ,53.0297363278968 ,93.9010692784637
4.5429012 ,Left ,48.0463182385342 ,53.081614683011 ,93.957814460719
4.5658862 ,Left ,48.1159845620396 ,53.0519045393757 ,94.0335627442455
4.5882484 ,Left ,48.2818193632099 ,52.9351601404608 ,94.0909029675246
4.6030701 ,Left ,48.3427397891589 ,52.8265999686429 ,94.1349349787448
4.6254723 ,Left ,48.3333126515208 ,52.7708345997765 ,94.2349310828271
4.6481881 ,Left ,48.1833092411272 ,52.7246972112029 ,94.2966924137129
4.6628575 ,Left ,48.1439042138882 ,52.6506362698936 ,94.2591801588726
4.685557 ,Left ,48.2525387939088 ,52.5107934078078 ,94.2052524470875
4.7080241 ,Left ,48.3960034663579 ,52.4073049109511 ,94.1955886163206
4.7231222 ,Left ,48.4663191577792 ,52.3416344942197 ,94.2252751932496
4.7531921 ,Left ,48.3220650856234 ,52.3886012289098 ,94.2634516532431
4.7756509 ,Left ,48.3656772283432 ,52.4111774216955 ,94.2890074270669
4.7832104 ,Left ,48.5625930366795 ,52.3855551076676 ,94.3136715307429
4.8056765 ,Left ,48.6891777659032 ,52.3354690307601 ,94.3443373738812
4.8282055 ,Left ,48.6604592119268 ,52.3080618275114 ,94.3932021110882
4.8431555 ,Left ,48.5762631665504 ,52.2831319768425 ,94.4469800216649
4.8655856 ,Left ,48.5248698015101 ,52.2275282573315 ,94.4717885159559
4.8883008 ,Left ,48.5994912876298 ,52.1512751784083 ,94.468771469724
4.9031355 ,Left ,48.6518358421585 ,52.0748117541157 ,94.4569773744778
4.9255848 ,Left ,48.5703743469547 ,52.0243198148712 ,94.4357906443166
4.9484038 ,Left ,48.4462610942914 ,51.9911132064768 ,94.3879161687475
4.963333 ,Left ,48.4489592840112 ,51.9459852799502 ,94.3365973962846
4.9855884 ,Left ,48.5114041227899 ,51.8868621064043 ,94.3113513238953
5.0082494 ,Left ,48.4986058004479 ,51.856418167531 ,94.3015971043948
5.0230908 ,Left ,48.4227394095845 ,51.8608736713975 ,94.3044955745716
5.0455338 ,Left ,48.3898201891637 ,51.8809680068452 ,94.3105066511125
5.0830283 ,Left ,48.5113867166363 ,51.8966700214781 ,94.3655165855345
5.1057567 ,Left ,48.537861883793 ,51.9350495491507 ,94.4211924457097
5.1429842 ,Left ,48.568116372245 ,52.0430775402058 ,94.533509135499
5.1657226 ,Left ,48.6441644230774 ,52.0749220202727 ,94.5685108890594
5.2031896 ,Left ,48.6578410477593 ,52.1561850332873 ,94.6248817455329
5.2256185 ,Left ,48.5878122697555 ,52.2219604687722 ,94.6341205486301
5.2630714 ,Left ,48.4273073459189 ,52.3060079502371 ,94.637382656768
5.2854945 ,Left ,48.3920820685913 ,52.3118225161552 ,94.6306629019358
5.3229966 ,Left ,48.2872806730702 ,52.355572643727 ,94.6269511779107
5.3455723 ,Left ,48.243312900506 ,52.4232058661404 ,94.6203748477219
5.3830646 ,Left ,48.314155640704 ,52.5362124941389 ,94.5720459124609
5.4057256 ,Left ,48.2898038580422 ,52.5651568471926 ,94.5559339742888
5.4429745 ,Left ,48.0145355124121 ,52.6524065100283 ,94.5296654428872
5.4684521 ,Left ,47.8945286877099 ,52.6370903734684 ,94.4687607612955
5.5034657 ,Left ,47.7850407439836 ,52.5301814269315 ,94.3818226016178
5.5254669 ,Left ,47.6845464782786 ,52.462416415268 ,94.4039001209172
5.5629138 ,Left ,47.3730792262458 ,52.5208013219983 ,94.4117698030876
5.5856052 ,Left ,47.545662778064 ,52.549225613697 ,94.4253512385481
5.6234847 ,Left ,47.551073092834 ,52.6818478477343 ,94.4652846117432
5.6454519 ,Left ,47.3514968583607 ,52.7398029043568 ,94.4397241337728
5.6831011 ,Left ,47.2244468468509 ,52.7623290009307 ,94.3052405926559
5.7054649 ,Left ,47.2199521203721 ,52.7642210448092 ,94.3423370130623
5.7429971 ,Left ,47.3423432235391 ,52.8309133082353 ,94.5135958414797
5.7656507 ,Left ,47.4120963029008 ,52.8448255692283 ,94.5786730331129
5.8032113 ,Left ,47.3031471673488 ,52.9030116057217 ,94.5857281521385
5.8352948 ,Left ,47.305451849379 ,52.8448878675078 ,94.4884311076911
5.8856107 ,Left ,47.4270892535831 ,52.862938514806 ,94.3919275452355
5.9229876 ,Left ,47.5491102900781 ,53.0158070961746 ,94.3687214104149
5.9457272 ,Left ,47.7293990607865 ,53.0969111598577 ,94.3390898477202
5.9832551 ,Left ,47.6363186214894 ,53.3003391230489 ,94.3100532587508
6.005767 ,Left ,47.5874159804711 ,53.3619166135548 ,94.2803347623331
6.0430047 ,Left ,47.6565254978846 ,53.326826352624 ,94.25487008488
6.065786 ,Left ,47.6885474205352 ,53.3008457602422 ,94.2639919210857
6.1105497 ,Left ,47.5888973774034 ,53.2882430001812 ,94.2079060488513
6.1705482 ,Left ,47.4646383882256 ,53.3196388159407 ,93.966912371609
6.2309868 ,Left ,47.5374866864568 ,53.1353588364615 ,93.8645059362477
6.2454286 ,Left ,47.5202292653638 ,53.1666104323254 ,93.8734278984226
6.2834281 ,Left ,47.6756053830301 ,53.0956588126253 ,93.9418037093615
6.3056909 ,Left ,47.7607444314529 ,52.9588380548733 ,93.9989594280896
6.3430965 ,Left ,47.610566787946 ,52.7303151614354 ,94.1753588283774
6.3580732 ,Left ,47.4971320578316 ,52.6396523093169 ,94.1975505022724
6.380597 ,Left ,47.6441962803797 ,52.4595472993418 ,94.1730163055962
6.3956958 ,Left ,47.9542747995209 ,52.2934093084683 ,94.2269614601821
6.419078 ,Left ,48.0449591269034 ,52.2371975777175 ,94.2870285385428
6.4405627 ,Left ,47.9381275373933 ,52.2840824363585 ,94.3695507596914
6.4556519 ,Left ,47.9861731180775 ,52.322820709616 ,94.4598205492083
6.478063 ,Left ,48.1505584113034 ,52.2876093802266 ,94.5039039301886
6.5005938 ,Left ,48.2306210857625 ,52.2411988609422 ,94.5354342745229
6.5169773 ,Left ,48.2124854439936 ,52.2062759488392 ,94.5776176040976
6.5381127 ,Left ,48.1167567547292 ,52.1580894571935 ,94.6109873757602
6.5605364 ,Left ,48.0203478719464 ,52.1050320350271 ,94.6248463991612
6.5841366 ,Left ,47.9725865137589 ,52.0450918422356 ,94.6143175200167
6.5979736 ,Left ,47.9709165685731 ,52.0000098823847 ,94.5915954182603
6.6279406 ,Left ,47.9688972589773 ,51.9858851864332 ,94.556535495822
6.6428953 ,Left ,47.9566460424819 ,51.9937531727149 ,94.5183344973277
6.6674637 ,Left ,47.9607851145989 ,52.0073160052481 ,94.4996519237639
6.680657 ,Left ,47.9818838590298 ,52.003345909222 ,94.5071092814628
6.6955321 ,Left ,48.0143664011294 ,51.9773451358837 ,94.5097064475724
6.7181183 ,Left ,48.013090749337 ,51.95652991525 ,94.4950488641157
6.740538 ,Left ,47.9993457098041 ,51.9418310799381 ,94.4868827019692
6.7556232 ,Left ,48.0133128502821 ,51.9282663406693 ,94.4835795951265
6.7780524 ,Left ,48.0587227559995 ,51.9256420527473 ,94.4746291581122
6.8080729 ,Left ,48.0611899028768 ,51.9243801579869 ,94.4793944946508
6.8230097 ,Left ,48.0747614232999 ,51.9026769622648 ,94.4753732490089
6.8531481 ,Left ,48.0970762348963 ,51.8768992017441 ,94.4756542620113
6.8837482 ,Left ,48.0891732057509 ,51.8649015166153 ,94.5013114774035
6.9130187 ,Left ,48.0857575920593 ,51.876582648767 ,94.509750468386
6.9281838 ,Left ,48.0985057609428 ,51.8850616546335 ,94.5163262248864
6.9432228 ,Left ,48.1086409430184 ,51.8894161217627 ,94.5302009775729
6.9581323 ,Left ,48.1162318529386 ,51.8906286005504 ,94.5286419208332
6.9805375 ,Left ,48.1121683615442 ,51.8972917583511 ,94.5163802264085
6.9955301 ,Left ,48.0926071401094 ,51.9460285286778 ,94.5289787203176
7.0180828 ,Left ,48.0717045628178 ,51.9816362418153 ,94.5193105560789
7.0405591 ,Left ,47.9729233506883 ,52.0224028003334 ,94.4848575003184
7.0556059 ,Left ,47.940261474858 ,52.0369366746635 ,94.453566899135
7.0779988 ,Left ,48.0337829357122 ,52.0279016843434 ,94.465506754096
7.1081769 ,Left ,48.0377433374294 ,52.0076952716281 ,94.4438027689194
7.1231794 ,Left ,47.9652458827495 ,52.0203563517286 ,94.4318349196406
7.1457241 ,Left ,47.8373299294801 ,52.0596343676836 ,94.4306228917535
7.1605162 ,Left ,47.6774702560815 ,52.0757579892986 ,94.3990246111952
7.1831533 ,Left ,47.5993006410543 ,52.0687429643864 ,94.3458845130689
7.1981949 ,Left ,47.5289518726506 ,52.0915212122585 ,94.3360501210088
7.220769 ,Left ,47.4931612036742 ,52.1053974883468 ,94.36843514947
7.2431791 ,Left ,47.5604208133522 ,52.128051441651 ,94.4164634804082
7.2582767 ,Left ,47.6621409183206 ,52.1279721153056 ,94.4512048133964
7.2810299 ,Left ,47.734695203153 ,52.1341063645267 ,94.4796721126564
7.3089638 ,Left ,47.6999961265039 ,52.2071403898706 ,94.5062099950789
7.326214 ,Left ,47.5655853406044 ,52.3233733572827 ,94.5683940621754
7.3406515 ,Left ,47.4148102951038 ,52.3886382865966 ,94.5845017577673
7.3630666 ,Left ,47.3410442798933 ,52.3842955502785 ,94.5271082734729
7.3781214 ,Left ,47.4594042036249 ,52.3327896563807 ,94.5287724339351
7.4021152 ,Left ,47.4896781838459 ,52.3311318170986 ,94.576978937731
7.4230748 ,Left ,47.431898343878 ,52.366802650062 ,94.6004031461589
7.4380793 ,Left ,47.5408271449952 ,52.3731279640607 ,94.6348134331677
7.4605754 ,Left ,47.6421652922492 ,52.4375126186545 ,94.6999285660945
7.4833115 ,Left ,47.5919204168682 ,52.5218761884094 ,94.7212005559521
7.5046951 ,Left ,47.4796148414993 ,52.5659634482207 ,94.7024222766026
7.5205797 ,Left ,47.3533515425402 ,52.5310231698157 ,94.6644400245699
7.5431341 ,Left ,47.3077682686734 ,52.4467417287566 ,94.5892828726216
7.5580463 ,Left ,47.4574373323048 ,52.3480018329723 ,94.5826508079921
7.5805646 ,Left ,47.5106347572849 ,52.2857799369663 ,94.5888070266866
7.6030836 ,Left ,47.4156835402464 ,52.3367867469113 ,94.5793552924601
7.6189818 ,Left ,47.3918023591615 ,52.417130170173 ,94.5624848105193
7.640571 ,Left ,47.5695622203761 ,52.4616838571527 ,94.5785504570376
7.6632234 ,Left ,47.6687479129556 ,52.5179283838256 ,94.5802521197749
7.6780125 ,Left ,47.6414906072549 ,52.6078465662304 ,94.5659836942437
7.7015522 ,Left ,47.5603612092302 ,52.7151292046183 ,94.5601791540057
7.723097 ,Left ,47.5527292165387 ,52.7899862036685 ,94.5384742041649
7.7454706 ,Left ,47.641776096812 ,52.8311268000254 ,94.5121350078999
7.7603998 ,Left ,47.7311465487501 ,52.8585558755273 ,94.5223884641858
7.7835888 ,Left ,47.7328097285169 ,52.8896127114863 ,94.536788223185
7.8054943 ,Left ,47.6565819562995 ,52.914305022926 ,94.5321381895843
7.8208355 ,Left ,47.5752401876607 ,52.911280292331 ,94.5083671565006
7.8433129 ,Left ,47.6177024637813 ,52.869964645914 ,94.4629564562893
7.8582664 ,Left ,47.6822170486166 ,52.80446333305 ,94.413715703536
7.8807262 ,Left ,47.6708635024413 ,52.7617446374988 ,94.3611252777765
7.903067 ,Left ,47.5969653041237 ,52.7644538811358 ,94.3214340838528
7.9181157 ,Left ,47.5264326262572 ,52.7771229336855 ,94.2750679158298
7.9406566 ,Left ,47.5198918434806 ,52.7901902043179 ,94.2155272184199
7.9631895 ,Left ,47.5061002882688 ,52.8176810735186 ,94.1520579510986
7.9781309 ,Left ,47.449076366178 ,52.8661482587428 ,94.133828514405
8.0009076 ,Left ,47.2894654603071 ,52.8602520673478 ,94.1170673411105
8.0230697 ,Left ,47.2228724170593 ,52.8054827830671 ,94.1025395109187
8.0382301 ,Left ,47.3811891179943 ,52.7738953323913 ,94.1892572473252
8.0607426 ,Left ,47.3425645186587 ,52.7966383810718 ,94.2430603478941
8.0831364 ,Left ,47.4042810205239 ,52.7808758907289 ,94.2926575001662
8.1055352 ,Left ,47.5545010776075 ,52.6817825339248 ,94.358596837223
8.1211899 ,Left ,47.5691236734588 ,52.6611531035076 ,94.4683108717447
8.1430408 ,Left ,47.4557751991356 ,52.644550945987 ,94.5978142150568
8.1663198 ,Left ,47.3432409454428 ,52.6074309517276 ,94.6163007733534
8.1805224 ,Left ,47.3753505288356 ,52.452357281593 ,94.5375609282185
8.2029905 ,Left ,47.597245063838 ,52.2344696967703 ,94.5218336037937
8.2257703 ,Left ,47.7409155110855 ,52.0807223767468 ,94.563935584595
8.2405304 ,Left ,47.6248593840706 ,52.0971071759316 ,94.6603110416367
8.2631391 ,Left ,47.5670698632617 ,52.1819055882944 ,94.7390449486154
8.2857169 ,Left ,47.7668629076836 ,52.2023598256383 ,94.8067320528303
8.3006056 ,Left ,47.9985276218638 ,52.2249168853451 ,94.9086238401166
8.323083 ,Left ,48.0438074029955 ,52.2651448773267 ,95.0147026857663
8.3456078 ,Left ,47.9426882081454 ,52.2983321671683 ,95.0750756551164
8.3682723 ,Left ,47.9082284916606 ,52.3182374742031 ,95.1018245277982
8.3904262 ,Left ,47.9495842556702 ,52.3118136478669 ,95.0877285450934
8.4205127 ,Left ,48.0685177552712 ,52.2625821012315 ,95.0463371130806
8.4432038 ,Left ,48.0526888009412 ,52.2457706303309 ,95.0360825932357
8.4655163 ,Left ,47.9911332498861 ,52.2395717430679 ,95.0203629428067
8.4805139 ,Left ,48.0224099976473 ,52.2335093614021 ,95.0029373780526
8.5032635 ,Left ,48.1304029691348 ,52.229738995492 ,94.9884464273041
8.5256816 ,Left ,48.1916970957629 ,52.2355011772136 ,94.951127359816
8.5405585 ,Left ,48.1525159146555 ,52.2654951463525 ,94.9187074847503
8.5707478 ,Left ,48.0765154762075 ,52.3153164383383 ,94.8871675161358
8.5929406 ,Left ,48.0010675378916 ,52.3665138040151 ,94.8435363491501
8.6082234 ,Left ,47.9994814932008 ,52.3995346528342 ,94.7972805442354
8.6229571 ,Left ,48.0210205548477 ,52.4028780408378 ,94.7553572776484
8.645689 ,Left ,47.9830208437923 ,52.3913215856381 ,94.7271490305613
8.660601 ,Left ,47.9056515689726 ,52.3763251778775 ,94.7180306428149
8.6831334 ,Left ,47.8457376421082 ,52.3542820313408 ,94.7120699892674
8.7055856 ,Left ,47.8526853710611 ,52.3117468960443 ,94.7089198482423
8.720731 ,Left ,47.9284900382124 ,52.2649984929927 ,94.7149128556486
8.7517432 ,Left ,47.9832841944956 ,52.2388096908861 ,94.7252264330343
8.7729148 ,Left ,47.9815928557286 ,52.2453340693252 ,94.7422279919864
8.7879192 ,Left ,47.9953330738077 ,52.2619857976823 ,94.7523203121946
8.8030406 ,Left ,48.049666494162 ,52.2829586114189 ,94.7588815656099
8.833111 ,Left ,48.1179372564302 ,52.2945550480181 ,94.7712200552554
8.8480773 ,Left ,48.1473909044848 ,52.3041172045896 ,94.7889386588376
8.8783071 ,Left ,48.1263384377801 ,52.3408036452181 ,94.8001673962924
8.9010697 ,Left ,48.135160452303 ,52.3623286819266 ,94.807202622297
8.9156201 ,Left ,48.1256649074768 ,52.3956576557684 ,94.8320268419976
8.9380749 ,Left ,48.1754720927226 ,52.6325156337416 ,94.8609913975413
9.0057388 ,Left ,48.1256649074768 ,52.3956576557684 ,94.8320268419976
9.0281104 ,Left ,48.1754720927226 ,52.6325156337416 ,94.8609913975413
9.0430398 ,Left ,48.0093513548457 ,52.8366795747391 ,94.78893413877
9.0580514 ,Left ,47.8753576272899 ,53.0261210591466 ,94.7631373946555
9.0806019 ,Left ,47.7621830979657 ,52.8718023278321 ,94.7731589355963
9.1031925 ,Left ,47.6647719760735 ,52.835501808434 ,94.7259299439109
9.1198039 ,Left ,47.6508515063779 ,52.7826627182482 ,94.6743685060753
9.1405836 ,Left ,47.5863850610518 ,52.6994248172355 ,94.6550431373371
9.1631241 ,Left ,47.4566564067851 ,52.6246655588999 ,94.6539664132435
9.178108 ,Left ,47.3580390301542 ,52.5745044086851 ,94.6493555384078
9.2009324 ,Left ,47.4330803394107 ,52.5679561921356 ,94.6960324543559
9.2230649 ,Left ,47.5430281004942 ,52.8261424069745 ,94.760557390084
9.2381786 ,Left ,47.5863010402421 ,53.0609651725174 ,94.7853036483854
9.2605475 ,Left ,47.6001269349966 ,53.2557461093187 ,94.8179853486534
9.2836425 ,Left ,47.4986999667571 ,53.3590747025359 ,94.8815428511249
9.2980285 ,Left ,47.3723975883324 ,53.3783683429759 ,94.8648511291265
9.3206566 ,Left ,47.3440093906555 ,53.3415162974302 ,94.8239455580495
9.3431822 ,Left ,47.4518619432028 ,53.2635329354256 ,94.8675782370302
9.3584746 ,Left ,47.5270815077318 ,53.1943461939269 ,95.0073604331836
9.3805972 ,Left ,47.4986074259343 ,53.1834261522762 ,95.0904843962584
9.4030363 ,Left ,47.4993268062911 ,53.2125729738703 ,95.1398978851471
9.4186054 ,Left ,47.5315000009915 ,53.275354875627 ,95.21428858143
9.440547 ,Left ,47.4752586195129 ,53.2929680020795 ,95.2137135805669
9.4630883 ,Left ,47.3935448844045 ,53.2179921142611 ,95.1565464857158
9.4779894 ,Left ,47.3592658129616 ,53.1500028044782 ,95.1057758645159
9.5005229 ,Left ,47.2749775767857 ,53.0860206663972 ,95.0201942362265
9.5230599 ,Left ,47.274950932268 ,53.0419923232753 ,94.9885325017856
9.5380408 ,Left ,47.2672048346692 ,53.0625478813739 ,94.9859400134481
9.5604627 ,Left ,47.317213057229 ,53.0921460109022 ,94.9620215976759
9.5838095 ,Left ,47.4000611535146 ,53.1414435649159 ,94.9451856489275
9.5980359 ,Left ,47.402280411119 ,53.1896331637438 ,94.9484314557464
9.6214932 ,Left ,47.3671677413185 ,53.2504616427875 ,94.9565237383577
9.6429635 ,Left ,47.4199150849393 ,53.2977592157371 ,94.9499717549195
9.6579915 ,Left ,47.4887929063954 ,53.3281499467679 ,94.9208257210594
9.6880674 ,Left ,47.4918925519692 ,53.3683929973857 ,94.887932666702
9.7104148 ,Left ,47.5126637707677 ,53.4224083052963 ,94.8733976808694
9.7256604 ,Left ,47.5355220924372 ,53.4659948140659 ,94.8780121949537
9.740465 ,Left ,47.5044940436428 ,53.4937625184168 ,94.8575554418429
9.7630906 ,Left ,47.5333392481529 ,53.4906254574395 ,94.8298038409168
9.7857796 ,Left ,47.5956324077817 ,53.4593906424597 ,94.8089106596615
9.8080581 ,Left ,47.5974386833666 ,53.4247278204081 ,94.790274260199
9.8232675 ,Left ,47.5460337019589 ,53.4125931185144 ,94.7570040893806
9.8455123 ,Left ,47.542875858367 ,53.4170624135776 ,94.7051005706921
9.8700106 ,Left ,47.5948677467653 ,53.4155759354414 ,94.639721884588
9.8830135 ,Left ,47.6065257699614 ,53.4110655915392 ,94.5977462992152
9.9054734 ,Left ,47.5331896826214 ,53.4003871425601 ,94.5507809663517
9.9279348 ,Left ,47.4437981244515 ,53.3586349764246 ,94.4700499531681
9.9429638 ,Left ,47.344237948624 ,53.2982708037243 ,94.4092439842213
9.9654805 ,Left ,47.3681570475627 ,53.2607382100693 ,94.3837515209346
9.9890502 ,Left ,47.4351096673428 ,53.2454970918221 ,94.3715183066586
10.0030667 ,Left ,47.3857578947604 ,53.2750926170358 ,94.4045866439945
10.0254855 ,Left ,47.4805880721586 ,53.2641163585725 ,94.4841042359438
10.0479472 ,Left ,47.6233537212795 ,53.141221179187 ,94.5293633673679
10.0704984 ,Left ,47.5908169422752 ,53.1120769584523 ,94.5996962683501
10.0856225 ,Left ,47.4553477012144 ,53.1307911513498 ,94.6786119317768
10.1082365 ,Left ,47.3297846066824 ,53.1159239197908 ,94.6683470355288
10.1305699 ,Left ,47.373801898843 ,53.0124905319812 ,94.5935251256479
10.1455458 ,Left ,47.5738376129898 ,52.8488938478756 ,94.5974132823709
10.1605361 ,Left ,47.6700879006993 ,52.7072755953746 ,94.6553721069385
10.1845604 ,Left ,47.5283613566282 ,52.6882705952167 ,94.7519781236629
10.1980196 ,Left ,47.5512842374727 ,52.6952533010613 ,94.8364728746317
10.2206869 ,Left ,47.7861495281063 ,52.6643801297497 ,94.899186356481
10.2430053 ,Left ,47.9525432871325 ,52.6761488781197 ,95.0074097435934
10.2580228 ,Left ,47.8953577213284 ,52.7404565745603 ,95.1170165426148
10.2805097 ,Left ,47.7994246326001 ,52.7817741768391 ,95.1541662377135
10.3030465 ,Left ,47.8587404586283 ,52.7641922713853 ,95.1449679244967
10.3189879 ,Left ,47.9851174764616 ,52.7092901909874 ,95.135976138323
10.3405932 ,Left ,48.0473693445611 ,52.6339400166944 ,95.1453985608217
10.3630468 ,Left ,48.0332788407104 ,52.5716046754799 ,95.1650899203964
10.3780262 ,Left ,47.9821868545665 ,52.5217474584055 ,95.1896007242017
10.4008779 ,Left ,47.960904197025 ,52.4683720056167 ,95.2115595874366
10.4380432 ,Left ,48.0517634958444 ,52.3706369789251 ,95.2424146469222
10.4605181 ,Left ,48.0939327886385 ,52.3476773131226 ,95.2547777120161
10.4979146 ,Left ,48.1282966873036 ,52.3871340428219 ,95.3141260537783
10.5205539 ,Left ,48.1522776892874 ,52.4255493376749 ,95.3417426055854
10.558297 ,Left ,48.2552498779932 ,52.5015392656238 ,95.3887154610411
10.5805514 ,Left ,48.2860666417575 ,52.5208256987976 ,95.4139700351835
10.6182857 ,Left ,48.3319388773609 ,52.550323490996 ,95.4473621161035
10.6449902 ,Left ,48.360486665509 ,52.5561755998573 ,95.445352693104
10.6798004 ,Left ,48.4531613530292 ,52.5608207296569 ,95.431815422468
10.7007472 ,Left ,48.516820758105 ,52.5579370185436 ,95.4332728240551
10.739852 ,Left ,48.5640605601389 ,52.5893028630855 ,95.4633854357922
10.7604269 ,Left ,48.5852109860572 ,52.6102252666476 ,95.4699606953019
10.7980374 ,Left ,48.674032987862 ,52.636387653578 ,95.4701334478737
10.821207 ,Left ,48.6888054059871 ,52.6720696866162 ,95.4734455236764
10.8579082 ,Left ,48.6865935146086 ,52.7587587122162 ,95.4804642945663
10.8804486 ,Left ,48.6940182043786 ,52.7894306835865 ,95.4815554831327
10.9182648 ,Left ,48.6904342229111 ,52.835176735649 ,95.5139592835177
10.9405266 ,Left ,48.6778696211821 ,52.8698408575024 ,95.5392573114343
10.9780587 ,Left ,48.721481386079 ,52.9187055557121 ,95.5938134873841
11.0016384 ,Left ,48.7293381311969 ,52.8182246023668 ,95.6294980868536
11.0380322 ,Left ,48.8447460884403 ,52.7432359587507 ,95.6341446556964
11.0605943 ,Left ,48.8593095959515 ,52.744878569753 ,95.6232712445359
11.0978754 ,Left ,48.7999951438157 ,52.431754742661 ,95.5603528404917
11.1204642 ,Left ,48.7211516790529 ,52.2166784117249 ,95.5154716963489
11.157989 ,Left ,48.5181443419422 ,52.0618870285597 ,95.446315065003
11.1805966 ,Left ,48.4674397318488 ,52.1829584988271 ,95.4526933360505
11.2182005 ,Left ,48.3317899031446 ,52.7109486798024 ,95.4682470202889
11.2406072 ,Left ,48.3973818126986 ,52.9034490710107 ,95.4622333483536
11.2779114 ,Left ,48.5454833935314 ,52.9356210504899 ,95.5125652004977
11.3008435 ,Left ,48.5090672653642 ,52.9693173172484 ,95.5517253632922
11.3455041 ,Left ,48.2947957864632 ,53.0305191054965 ,95.5874635388926
11.3682125 ,Left ,48.2798492545568 ,53.0166222216655 ,95.5376499206742
11.3980124 ,Left ,48.3563265837591 ,52.9139866506092 ,95.4220654725728
11.4206529 ,Left ,48.2782404596576 ,52.8538859133858 ,95.3789966599679
11.4579883 ,Left ,47.9971590545014 ,52.7697306616382 ,95.2790586179887
11.480456 ,Left ,47.89908168647 ,52.7168519333038 ,95.2202628717142
11.5186025 ,Left ,47.9002666517278 ,52.6142907438424 ,95.1866260520492
11.5411979 ,Left ,47.9500288496768 ,52.5927521826495 ,95.2401681031584
11.5778582 ,Left ,47.945083355633 ,52.6904027876356 ,95.3070814490762
11.6007327 ,Left ,47.9399123578544 ,52.8360068905372 ,95.3825431294167
11.6381843 ,Left ,47.6858940166967 ,53.0154599669531 ,95.4050361674596
11.6603672 ,Left ,47.7271882173888 ,52.9872327616306 ,95.3998878197357
11.6979433 ,Left ,47.7746862889896 ,52.9026769969164 ,95.6052575241843
11.7203791 ,Left ,47.7414805363043 ,52.9259761129936 ,95.6409847531594
11.7582198 ,Left ,47.8323910746293 ,53.0184144150899 ,95.7715911318632
11.7803139 ,Left ,47.7573764262257 ,53.0560456938574 ,95.8019241656942
11.8180288 ,Left ,47.6310356728207 ,52.981136210879 ,95.6802148217857
11.8406282 ,Left ,47.644255981405 ,52.8506538424735 ,95.5867251475578
11.8855602 ,Left ,47.573294717699 ,52.7459405593014 ,95.5510170636575
11.9379679 ,Left ,47.7169458520166 ,52.9198808300339 ,95.4896677068239
11.9603769 ,Left ,47.7710161258949 ,52.9591366859093 ,95.4585499221634
11.9757621 ,Left ,47.6546206978199 ,53.0302722676986 ,95.3929280252695
11.9906849 ,Left ,47.5578833952078 ,53.0724260989302 ,95.2696846355245
12.0131235 ,Left ,47.5749109954971 ,53.0907257540144 ,95.1428100038425
12.0376307 ,Left ,47.6115699900616 ,53.0968550805854 ,95.0540212873284
12.0521442 ,Left ,47.5767870513893 ,53.0931280717301 ,94.9825740738261
12.0732468 ,Left ,47.4702762294598 ,53.0797806289642 ,94.9313004601238
12.0955717 ,Left ,47.3955573599897 ,53.0452075264728 ,94.8826411850764
12.110696 ,Left ,47.3281858375259 ,52.9849267089968 ,94.8232500530949
12.133058 ,Left ,47.3237117562572 ,52.8920463961522 ,94.7813085470746
12.1554892 ,Left ,47.4295975696087 ,52.8209359116956 ,94.8048874544397
12.170586 ,Left ,47.3698602867593 ,52.8069368202787 ,94.8551112993364
12.1932435 ,Left ,47.2911589302722 ,52.8333899410511 ,94.9240801435217
12.2155661 ,Left ,47.427839500201 ,52.783209767412 ,94.9583766432668
12.2307149 ,Left ,47.6982415938321 ,52.6752399569309 ,95.0126279854494
12.2536904 ,Left ,47.7995656992304 ,52.6219423466744 ,95.0937642234748
12.2756206 ,Left ,47.7050372802609 ,52.6068205136676 ,95.1770744263132
12.2909873 ,Left ,47.5270579893101 ,52.6100196174949 ,95.2015779111429
12.3131559 ,Left ,47.5530743447823 ,52.571801712837 ,95.162649045642
12.3355101 ,Left ,47.6169986246656 ,52.4533492181568 ,95.1132952492419
12.3507785 ,Left ,47.651164437351 ,52.2948988201471 ,95.12396832959
12.3730307 ,Left ,47.7158212734371 ,52.1713334428538 ,95.2416840445153
12.3957316 ,Left ,47.68537254845 ,52.0999768115724 ,95.3699693572542
12.4105647 ,Left ,47.7237035221417 ,52.0689856097071 ,95.4504729189411
12.4357499 ,Left ,47.9533722945846 ,52.0466158324058 ,95.5007951155813
12.455523 ,Left ,48.117281799391 ,52.0401763670217 ,95.5487213450983
12.47792 ,Left ,48.135040291877 ,52.0559768417402 ,95.5802640635657
12.4932254 ,Left ,48.117803045294 ,52.0580613084271 ,95.5904926386217
12.5155725 ,Left ,48.1330245060722 ,52.0366631273785 ,95.5947662684788
12.5382167 ,Left ,48.1904920236657 ,51.9882441924796 ,95.6138077294225
12.5530773 ,Left ,48.2460731024837 ,51.9374962640377 ,95.630863031295
12.5757568 ,Left ,48.261841272884 ,51.9096472037434 ,95.6618734548089
12.5905984 ,Left ,48.2760849993638 ,51.9063115701058 ,95.719772089815
12.613143 ,Left ,48.3074884914062 ,51.9136827308386 ,95.7919123515086
12.6384231 ,Left ,48.3667329781628 ,51.9144204070646 ,95.8570878281252
12.6537078 ,Left ,48.4223365219311 ,51.9131004520849 ,95.8919057236859
12.673193 ,Left ,48.4281857803431 ,51.9182392853992 ,95.9021078660926
12.6955522 ,Left ,48.4290501824868 ,51.9419095702902 ,95.902466979597
12.7106384 ,Left ,48.4250883118422 ,51.9708200827153 ,95.9005528709079
12.7330152 ,Left ,48.4104162254115 ,51.9977281057324 ,95.8824658724315
12.7557173 ,Left ,48.4122063648144 ,52.0187720776177 ,95.8635201413953
12.7705474 ,Left ,48.4251089271445 ,52.031593645208 ,95.8480491841433
12.7930214 ,Left ,48.4168640340542 ,52.0512487780205 ,95.8249207409469
12.8156062 ,Left ,48.3922101094402 ,52.080999730178 ,95.8117990785029
12.8755839 ,Left ,48.3844071984981 ,52.1747018597469 ,95.7719503429453
12.8979088 ,Left ,48.3797364691927 ,52.3236986428714 ,95.7234055847816
12.9372038 ,Left ,48.3011106498256 ,52.5160161396048 ,95.6242302676139
12.9580092 ,Left ,48.2921622497458 ,52.3145612938975 ,95.5970534511592
12.9880357 ,Left ,48.2233092339275 ,52.338262588977 ,95.5427854167652
13.0105462 ,Left ,48.1446366602706 ,52.4807526075806 ,95.5320047775196
13.0330117 ,Left ,48.1722731792848 ,52.5508912929525 ,95.5591237167694
13.0480117 ,Left ,48.2076873495574 ,52.5518350742563 ,95.560329999376
13.0706844 ,Left ,48.1814976440878 ,52.5956203402378 ,95.5592241882518
13.0929696 ,Left ,48.1523691736287 ,52.6138385615809 ,95.5707307101285
13.1080317 ,Left ,48.0828198706075 ,52.6363853692959 ,95.5785738094313
13.1304213 ,Left ,48.0089156516399 ,52.6058198314912 ,95.5621194714681
13.1529733 ,Left ,47.9340021464699 ,52.5350697361734 ,95.5353094242714
13.1688276 ,Left ,47.8790483397133 ,52.586432609392 ,95.491296568912
13.1905926 ,Left ,47.887510793222 ,52.532475850604 ,95.4958238394299
13.2130759 ,Left ,47.7842035308296 ,52.6556986531662 ,95.5142057931503
13.2356297 ,Left ,47.5162109870227 ,52.6089710660563 ,95.5072020390599
13.2506834 ,Left ,47.3194414734666 ,52.6258266801578 ,95.4547974242372
13.2730287 ,Left ,47.3080885010632 ,52.6352296498413 ,95.4138682858851
13.2957285 ,Left ,47.4503738471697 ,52.604429999024 ,95.4280657789718
13.3106284 ,Left ,47.5484774545388 ,52.5627800918564 ,95.4605835076765
13.3330028 ,Left ,47.5156562669538 ,52.5988845697703 ,95.5058577160478
13.3555731 ,Left ,47.3956828692886 ,52.6621396954661 ,95.5678935965695
13.3705421 ,Left ,47.3063108998449 ,52.6986683363313 ,95.5553307372897
13.3930748 ,Left ,47.3295762106051 ,52.698561264945 ,95.5103888904249
13.4162183 ,Left ,47.4032277007348 ,52.6439117751713 ,95.4926293249401
13.4305941 ,Left ,47.3932045613084 ,52.6107107253923 ,95.5446710426649
13.4530534 ,Left ,47.3664469725302 ,52.6174849276976 ,95.6066565986943
13.4680994 ,Left ,47.4606951192661 ,52.6299746874109 ,95.6639036762602
13.4906028 ,Left ,47.5619815116346 ,52.6829175332435 ,95.7291669735208
13.5129533 ,Left ,47.5921670152583 ,52.7886125230413 ,95.8075880579229
13.5358989 ,Left ,47.5045283659146 ,52.8724639558337 ,95.8371059399087
13.550817 ,Left ,47.4659562470768 ,52.8902745955761 ,95.7920554232708
13.5730307 ,Left ,47.4497271224891 ,52.852157789091 ,95.7548195238903
13.5956371 ,Left ,47.3729685082534 ,52.7850786463227 ,95.6998490483866
13.6104861 ,Left ,47.3831950220117 ,52.7027391857184 ,95.663151807902
13.6331953 ,Left ,47.4279291432192 ,52.621161243598 ,95.6570760065126
13.6479586 ,Left ,47.3939633534784 ,52.5877331412692 ,95.6653039022312
13.6705662 ,Left ,47.321478385061 ,52.6307169118028 ,95.6525222587959
13.6930279 ,Left ,47.2727850777825 ,52.7377635699739 ,95.6354245552612
13.7154506 ,Left ,47.3118104399764 ,52.8525342618078 ,95.620242319886
13.738084 ,Left ,47.4142807085195 ,52.9329715453952 ,95.616969611758
13.7606125 ,Left ,47.4969099677762 ,52.9733050760496 ,95.6139763202558
13.7756219 ,Left ,47.4820376934461 ,52.9790986142879 ,95.6117865859329
13.7979567 ,Left ,47.4137738724986 ,53.013586097929 ,95.6110841568934
13.8205001 ,Left ,47.3391504339048 ,53.0735738146949 ,95.5880798084651
13.8355132 ,Left ,47.3352582875616 ,53.1258774573569 ,95.5508574609742
13.8580319 ,Left ,47.4074707751514 ,53.1632158335001 ,95.5217377922957
13.8805534 ,Left ,47.4617916751761 ,53.1851062644452 ,95.5052844822737
13.8954848 ,Left ,47.4443393924652 ,53.196699366619 ,95.5062272141383
13.9189076 ,Left ,47.3844332122663 ,53.1941494338516 ,95.4981943165874
13.9404587 ,Left ,47.3794804598709 ,53.1742852583144 ,95.47939024341
13.9556422 ,Left ,47.4416203934688 ,53.1343663438904 ,95.4682493612192
13.9779575 ,Left ,47.4920737855224 ,53.0920776078971 ,95.473859757988
14.0005546 ,Left ,47.4754657496792 ,53.0603189780115 ,95.4769575318971
14.0154003 ,Left ,47.4633140289993 ,53.039218435847 ,95.4817318711133
14.0379965 ,Left ,47.4805100817881 ,53.0318002828107 ,95.4842076679242
14.0605689 ,Left ,47.4897353855177 ,53.0254030477699 ,95.4879129157578
14.0755721 ,Left ,47.4600642449454 ,53.0167185738674 ,95.4760782631032
14.097987 ,Left ,47.420165810032 ,52.9929084851382 ,95.4384695138527
14.1205655 ,Left ,47.3702280736516 ,52.9607110620272 ,95.3868569148203
14.1356021 ,Left ,47.2751916486332 ,52.9339308581826 ,95.308180922321
14.1582228 ,Left ,47.1583763686361 ,52.9356451756581 ,95.2341085542039
14.1804623 ,Left ,47.0263184392101 ,52.944602598901 ,95.1596530575336
14.1954873 ,Left ,46.9451945583566 ,52.8945652703032 ,95.1034764257674
14.2181099 ,Left ,46.8764696293755 ,52.8248463564829 ,95.0562297573079
14.240574 ,Left ,46.9184297747625 ,52.7748848160475 ,95.096244815384
14.2556969 ,Left ,46.9487884455125 ,52.7647375233009 ,95.1835408777294
14.2779346 ,Left ,47.0298945624776 ,52.743485712679 ,95.267072279543
14.3006029 ,Left ,47.1791432156366 ,52.6553880483075 ,95.3160469831106
14.3155303 ,Left ,47.2307995920254 ,52.6435640565126 ,95.4036085571485
14.3454015 ,Left ,47.2275599429146 ,52.641195347206 ,95.5099032466174
14.3682294 ,Left ,47.1321756489315 ,52.6302508269095 ,95.5082167429571
14.3981293 ,Left ,47.2590540990661 ,52.466440058123 ,95.4176073644297
14.4205761 ,Left ,47.4136734556063 ,52.3844865875776 ,95.4649872707159
14.4430308 ,Left ,47.42004069168 ,52.3979930720671 ,95.5606158681392
14.4580493 ,Left ,47.3935457330606 ,52.435389401993 ,95.6358036785979
14.480544 ,Left ,47.5750838550905 ,52.4385765231004 ,95.7103912153437
14.5036682 ,Left ,47.8018749159043 ,52.4315817353934 ,95.7936964596686
14.5199173 ,Left ,47.9384384278085 ,52.4295216274117 ,95.8686182481594
14.5480239 ,Left ,48.0018843657761 ,52.4391656527633 ,95.936484595532
14.5721564 ,Left ,48.0021957854741 ,52.4399178478544 ,95.9874617659145
14.585732 ,Left ,47.9899054894138 ,52.4340277395275 ,96.0177322629861
14.6005753 ,Left ,47.9992559778294 ,52.4279401315519 ,96.027556984289
14.6230137 ,Left ,48.0705948580471 ,52.4100953257148 ,96.0517275340011
14.6379821 ,Left ,48.108913484657 ,52.3885820404687 ,96.0785134943312
14.6605183 ,Left ,48.1265295719576 ,52.3741051167538 ,96.1022757705871
14.6753882 ,Left ,48.1232239632371 ,52.3712039025241 ,96.1299565729785
14.6980109 ,Left ,48.1487097316748 ,52.3828687176673 ,96.1467865840922
14.721591 ,Left ,48.1961247559727 ,52.409144707482 ,96.1670320512755
14.7357588 ,Left ,48.2263538680198 ,52.4426978617276 ,96.1789535488217
14.7580143 ,Left ,48.2234708831806 ,52.485988904417 ,96.1858778889536
14.7804881 ,Left ,48.2386282520136 ,52.5253028453611 ,96.1903770390129
14.8032693 ,Left ,48.2745006207572 ,52.5487500708618 ,96.1836915696353
14.8182877 ,Left ,48.3011121106391 ,52.5694816231742 ,96.1810161928157
14.84054 ,Left ,48.3209171144967 ,52.5962505363378 ,96.1991371355477
14.8628413 ,Left ,48.331238698439 ,52.6217956940258 ,96.2178510601177
14.8781349 ,Left ,48.3366705535287 ,52.6367608338627 ,96.2328190613694
14.9004497 ,Left ,48.381838554373 ,52.6212590914951 ,96.2555489742256
14.9235342 ,Left ,48.4669780294698 ,52.6066228041982 ,96.2873859419931
14.9380464 ,Left ,48.5220383608125 ,52.6067553716578 ,96.3336495399496
14.9605212 ,Left ,48.5222856486597 ,52.6598314905229 ,96.3857787742676
14.9829768 ,Left ,48.5338579278327 ,52.770285699198 ,96.4176184653818
14.997862 ,Left ,48.4844083869035 ,52.9127419949998 ,96.4249015740983
15.0205517 ,Left ,48.4936044497429 ,52.8590361425099 ,96.4347393389259
15.0432037 ,Left ,48.4667239973929 ,52.8020444742373 ,96.4114852039319
15.0581784 ,Left ,48.3637107888191 ,52.8474182752996 ,96.3976092358269
15.0805347 ,Left ,48.2358168359472 ,53.0196362391736 ,96.3832284803077
15.1030524 ,Left ,48.1257207240891 ,53.2618671093825 ,96.343321368195
15.1184105 ,Left ,48.0739007700571 ,53.476794556862 ,96.2930914369875
15.1406758 ,Left ,48.1175854038241 ,53.5845340086658 ,96.2585894977076
15.1631384 ,Left ,48.2201273409015 ,53.5327082991785 ,96.2548549259855
15.17808 ,Left ,48.2675401963718 ,53.3552365852665 ,96.2703328917441
15.2023256 ,Left ,48.2358899748908 ,53.1118579182136 ,96.2833004883167
15.2231084 ,Left ,48.2100964873941 ,52.8641054397404 ,96.2711641564046
15.2380447 ,Left ,48.1930201850925 ,52.7271835658391 ,96.2454495396922
15.260744 ,Left ,48.2569198895566 ,52.7481863895041 ,96.2425268626448
15.2829502 ,Left ,48.1751943688485 ,52.7953951474203 ,96.188453494808
15.2981053 ,Left ,48.0435215920128 ,52.8115251663737 ,96.1076580435851
15.3205111 ,Left ,48.0127696175224 ,52.8089650682918 ,96.0908830311697
15.3429892 ,Left ,47.9945456327174 ,52.7843238650419 ,96.0736396883258
15.3654466 ,Left ,48.045355791457 ,52.7365934766351 ,96.0246603498892
15.3804861 ,Left ,48.0221663585987 ,52.7221238007831 ,95.9883232004606
15.4031774 ,Left ,47.9171714614799 ,52.7599765216034 ,96.0128445296141
15.425329 ,Left ,47.7375767810961 ,52.833166805111 ,96.0468746331412
15.4405148 ,Left ,47.5679449357663 ,52.8874841072155 ,96.0373854291193
15.4631297 ,Left ,47.468311176627 ,52.882916994991 ,95.9997460884094
15.4858977 ,Left ,47.5932627573335 ,52.7843379539134 ,96.0148861482907
15.5005214 ,Left ,47.6922971815248 ,52.6832574583565 ,96.0688316374471
15.5231564 ,Left ,47.6066211693786 ,52.6577538657519 ,96.1059756558613
15.5456016 ,Left ,47.5188024452237 ,52.7133846090676 ,96.1477219877016
15.5606295 ,Left ,47.6448671839667 ,52.720078481138 ,96.1789435118873
15.5830132 ,Left ,47.7512078556463 ,52.7334049818931 ,96.1977872991149
15.6055668 ,Left ,47.7166087133303 ,52.8113918236083 ,96.2473873272479
15.6204666 ,Left ,47.5377077099686 ,52.9130792959754 ,96.2979143593881
15.6431448 ,Left ,47.3399521922258 ,52.9387977907411 ,96.2440507230646
15.6654691 ,Left ,47.3589788108313 ,52.8852740597626 ,96.1305514091254
15.6805765 ,Left ,47.4464068843918 ,52.7929750883239 ,96.0771014001737
15.7030573 ,Left ,47.5455564971782 ,52.6949246404538 ,96.1779339725443
15.7255378 ,Left ,47.5366482827384 ,52.6631977318133 ,96.3354164316144
15.7406033 ,Left ,47.4789509889121 ,52.7059327564924 ,96.4459721363655
15.7630252 ,Left ,47.5454021811166 ,52.7948082816097 ,96.5504654119909
15.786774 ,Left ,47.6750862257175 ,52.8587948637621 ,96.6660181464768
15.792963 ,Left ,47.7041597074864 ,52.8372047852557 ,96.7784258893025
15.815484 ,Left ,47.7052151606771 ,52.7724831275203 ,96.8409186477182
15.8380142 ,Left ,47.6779114817206 ,52.7480372515698 ,96.8364767315881
15.8529674 ,Left ,47.6973815288795 ,52.7605455846299 ,96.8492349223168
15.8755406 ,Left ,47.71086195395 ,52.8009703836275 ,96.8487300025604
15.912961 ,Left ,47.7584599076553 ,52.834008025725 ,96.7686088717133
15.9357499 ,Left ,47.7487518884671 ,52.8431031657707 ,96.7395170819502
15.9805935 ,Left ,47.7571539305645 ,52.8005465561747 ,96.7378601399021
16.0030869 ,Left ,47.8241975656012 ,52.7692556918514 ,96.7658409464501
16.0330085 ,Left ,47.8741883824922 ,52.7390220207169 ,96.8044898031716
16.0555633 ,Left ,47.8615336696762 ,52.7476012742763 ,96.8044516335075
16.0931513 ,Left ,47.9105715246375 ,52.782392987988 ,96.780986286276
16.1154791 ,Left ,47.9210179379081 ,52.7940194571516 ,96.7596536343992
16.1538798 ,Left ,47.9064361119511 ,52.7810650598882 ,96.6945243736594
16.1755437 ,Left ,47.9136572232447 ,52.7631848461292 ,96.6451899846686
16.2131286 ,Left ,47.9001578034173 ,52.7001301738552 ,96.5287802823592
16.2357914 ,Left ,47.7841278522425 ,52.6649937029583 ,96.4401388844886
16.2731743 ,Left ,47.5080390643116 ,52.5500495009967 ,96.2556354985324
16.2956861 ,Left ,47.5480094179069 ,52.5377313077434 ,96.2684684175002
16.3407728 ,Left ,47.7097677154546 ,52.674440012541 ,96.4345022691864
16.3630624 ,Left ,47.8541760855264 ,52.7464341846246 ,96.4935093004347
16.392973 ,Left ,47.9215895905038 ,52.9130896670667 ,96.6370056395017
16.4156662 ,Left ,47.8219340335399 ,52.979053597756 ,96.6572006985565
16.4529942 ,Left ,47.836979708156 ,52.9609923243655 ,96.591415087731
16.4756167 ,Left ,47.8392852999817 ,52.9056464391811 ,96.5505189216064
16.5131743 ,Left ,47.5132238934546 ,52.7411627265722 ,96.4772169859496
16.5432117 ,Left ,47.5088291981997 ,52.6524346475183 ,96.4240349566442
16.5805326 ,Left ,47.6063171900912 ,52.5474106595653 ,96.4062984665355
16.5956154 ,Left ,47.4682545851024 ,52.6586172824275 ,96.3766451396775
16.6329702 ,Left ,47.7177016830585 ,52.8213211659847 ,96.3114177472449
16.6555739 ,Left ,47.7982813141757 ,52.867341502144 ,96.3074536750868
16.693301 ,Left ,47.6796716023215 ,52.976948588889 ,96.2812511010261
16.7154319 ,Left ,47.7074902838221 ,52.9948603509144 ,96.2666596000249
16.7530927 ,Left ,47.8686760642253 ,52.9390780154325 ,96.253721990398
16.7756239 ,Left ,47.8612538514366 ,52.9155132807199 ,96.2688456172039
16.8132648 ,Left ,47.8553146321958 ,52.8582210761611 ,96.2768845113733
16.8356315 ,Left ,47.8960083732815 ,52.8468280531971 ,96.2754272346729
16.8728772 ,Left ,47.9418356463902 ,52.8738066337336 ,96.2764732843039
16.8955087 ,Left ,47.9330156021382 ,52.9004004856764 ,96.2789282358513
16.9328223 ,Left ,47.9506373412743 ,52.9505979428799 ,96.2609296041062
16.955469 ,Left ,47.9392820715759 ,52.9863259513074 ,96.2514782430565
16.9931497 ,Left ,47.9385707736107 ,53.051052948169 ,96.2466109748167
17.0153789 ,Left ,47.9616832264184 ,53.0777613807006 ,96.2549443684841
17.0530969 ,Left ,47.9963335565852 ,53.1077308378133 ,96.2641497842926
17.0755108 ,Left ,47.9782954434102 ,53.1233745396395 ,96.2613383866672
17.1128775 ,Left ,47.9527107780572 ,53.1432993430363 ,96.2468445801765
17.1355339 ,Left ,47.9645035225234 ,53.1436032420147 ,96.2282156498551
17.1731228 ,Left ,47.9467523005908 ,53.1531832464604 ,96.1845699460278
17.1955227 ,Left ,47.9052869864063 ,53.1544600791673 ,96.1487225554244
17.233537 ,Left ,47.8022390543838 ,53.1379845032141 ,96.0679817586825
17.2555582 ,Left ,47.7057612419745 ,53.125674701423 ,96.0175096475215
17.293159 ,Left ,47.4924478439733 ,53.0008957311546 ,95.8907579546261
17.3154292 ,Left ,47.5988285897376 ,52.9342290398345 ,95.8785007186053
17.3531688 ,Left ,47.585945902445 ,52.9507447704782 ,96.0060323590309
17.375611 ,Left ,47.7181707989671 ,52.9005702573247 ,96.0588028305723
17.4128893 ,Left ,47.7965526143219 ,52.844317062676 ,96.2206052706612
17.4357732 ,Left ,47.6339678003694 ,52.8190970020239 ,96.2364131976336
17.473085 ,Left ,47.7719701620332 ,52.5876426574284 ,96.0933583299016
17.4955777 ,Left ,47.9652361928724 ,52.4757532782838 ,96.1150199973249
17.5331931 ,Left ,47.7715556329659 ,52.5851984239986 ,96.2822590135863
17.5555272 ,Left ,47.8967990998212 ,52.6169889772233 ,96.385847821185
17.5933208 ,Left ,48.1341995438962 ,52.6678224209748 ,96.53483210233
17.6080096 ,Left ,48.0854550259858 ,52.6943724643734 ,96.6150395568403
17.6307057 ,Left ,48.0365707285994 ,52.6591409881727 ,96.6383871651356
17.6455485 ,Left ,48.1211767704614 ,52.5662911843478 ,96.6133687088433
17.6682152 ,Left ,48.1787486414118 ,52.4664315368479 ,96.5814382503887
17.6905482 ,Left ,48.1302912011097 ,52.4042211833398 ,96.5758546084728
17.7056047 ,Left ,48.0486623049621 ,52.3885527781027 ,96.5878845882633
17.7280516 ,Left ,47.9754418004122 ,52.3835940038443 ,96.598158782026
17.7505555 ,Left ,48.0343176770587 ,52.3392419397971 ,96.6101210158681
17.7654912 ,Left ,48.1470634577483 ,52.2624553654969 ,96.6119833226292
17.7880655 ,Left ,48.1633966344307 ,52.201305180779 ,96.6098508926276
17.7957233 ,Left ,48.1633966344307 ,52.201305180779 ,96.6098508926276
17.8107547 ,Left ,48.0921111939903 ,52.1857403308931 ,96.6033660379584
17.8254975 ,Left ,48.0788907343669 ,52.1788186143654 ,96.573241134773
17.8479263 ,Left ,48.152089877038 ,52.1670831435672 ,96.5386725088633
17.857424 ,Left ,48.152089877038 ,52.1670831435672 ,96.5386725088633
17.8706234 ,Left ,48.1865388129301 ,52.1506013116175 ,96.5286655062126
17.8856444 ,Left ,48.1586865716656 ,52.1485058990841 ,96.5461555723554
17.9080144 ,Left ,48.1238601924737 ,52.1640222967096 ,96.5757664412939
17.9303924 ,Left ,48.1429713688977 ,52.1870027654211 ,96.6029915533238
17.9454985 ,Left ,48.1806659900911 ,52.2175806499239 ,96.6272060342717
17.9682643 ,Left ,48.2152382406895 ,52.2555036882609 ,96.6472414368751
17.9906079 ,Left ,48.2370858125486 ,52.3017930631299 ,96.6656534447798
18.0067853 ,Left ,48.2464318838592 ,52.3503583776923 ,96.676968828564
18.0279441 ,Left ,48.2616239284651 ,52.3881598956492 ,96.6973364074538
18.0502965 ,Left ,48.2889385625593 ,52.4169276770846 ,96.7093849594889
18.0656476 ,Left ,48.3102563674114 ,52.4472983863953 ,96.7235625406379
18.1105554 ,Left ,48.3151875502804 ,52.5220374614009 ,96.7604613364636
18.1407296 ,Left ,48.3651870960448 ,52.5680750107891 ,96.7597826401752
18.1930635 ,Left ,48.290763031928 ,52.9885809857232 ,96.6603949187612
18.21536 ,Left ,48.2073814033465 ,52.7951198390737 ,96.6118352244856
18.2531207 ,Left ,48.0972246285891 ,52.743822008926 ,96.441760653219
18.275376 ,Left ,48.0107137977269 ,52.8887771051099 ,96.4158162297962
18.3128542 ,Left ,47.8840030307573 ,52.925061997939 ,96.429575422331
18.3505807 ,Left ,47.9620101860515 ,52.853135609219 ,96.4370264128181
18.372965 ,Left ,47.8923997292265 ,52.8742218929127 ,96.4541482417814
18.3954674 ,Left ,47.7307127036576 ,52.9116179493503 ,96.4747682221567
18.4329362 ,Left ,47.5454774426781 ,52.6941424521226 ,96.3429883083853
18.4560557 ,Left ,47.4352703788741 ,52.779413124403 ,96.2681062721775
18.4930315 ,Left ,47.2770341816861 ,52.4869309912769 ,96.3592956081928
18.5154057 ,Left ,47.2375175217744 ,52.5058865985572 ,96.4049444410962
18.5530925 ,Left ,47.4600022062709 ,52.5492640512075 ,96.4873590387857
18.5754524 ,Left ,47.349742227543 ,52.5537212225487 ,96.5150099306491
18.6057455 ,Left ,47.1352929998761 ,52.4861692062939 ,96.4902081185547
18.6280502 ,Left ,47.1880434980606 ,52.471754952372 ,96.5121155410024
18.650476 ,Left ,47.2974431327404 ,52.4893868446382 ,96.5946980230517
18.6654851 ,Left ,47.3476825891634 ,52.5087240106038 ,96.6541193953195
18.6880717 ,Left ,47.3233988206168 ,52.5292443373498 ,96.695677899491
18.7104806 ,Left ,47.2287342274519 ,52.551517476483 ,96.696626133777
18.7255943 ,Left ,47.1983192793087 ,52.528248892013 ,96.6139426233188
18.7480256 ,Left ,47.1971268625445 ,52.4339533519289 ,96.5204275805895
18.7707829 ,Left ,47.2127365889903 ,52.3336619170999 ,96.4512848227513
18.7855358 ,Left ,47.1569077983339 ,52.2656839375031 ,96.3665585698647
18.8080888 ,Left ,47.1167191376344 ,52.2371570985371 ,96.3128309117392
18.8304797 ,Left ,47.0820401494255 ,52.2696603658359 ,96.2990670481835
18.8455295 ,Left ,47.1060143306474 ,52.3358856924696 ,96.2585357780746
18.8679686 ,Left ,47.244592992992 ,52.4224917020995 ,96.2347510281101
18.8905612 ,Left ,47.3197586645148 ,52.5407422210584 ,96.2278744034086
18.9059753 ,Left ,47.2408361518656 ,52.6592364700845 ,96.2171619201551
18.928069 ,Left ,47.1383243670539 ,52.7486676288271 ,96.1710191847596
18.9503865 ,Left ,47.1714370630515 ,52.7883245910677 ,96.0996203147112
18.9653596 ,Left ,47.2519210523737 ,52.7888190494707 ,96.0362620370587
18.9886165 ,Left ,47.251767045227 ,52.7969356131761 ,95.9864286951718
19.0104969 ,Left ,47.1452227407936 ,52.8036005916052 ,95.9556949157923
19.0328759 ,Left ,47.0488178018669 ,52.7752502462508 ,95.9194562262158
19.047995 ,Left ,47.0662987215016 ,52.7116058750464 ,95.8659525748395
19.0706093 ,Left ,47.0842345789257 ,52.6511588492251 ,95.8232281138769
19.0929599 ,Left ,47.0627175893937 ,52.5702620687066 ,95.8096952332295
19.1079582 ,Left ,46.925766473436 ,52.5080731228851 ,95.7916248415671
19.1303916 ,Left ,46.9324118924937 ,52.4705278320232 ,95.8057520625251
19.1530674 ,Left ,46.9615849074236 ,52.4902074764711 ,95.8539386319134
19.1678304 ,Left ,46.9944530949873 ,52.5052544592618 ,95.8906786188922
19.1905215 ,Left ,47.0854699332892 ,52.4794870877837 ,95.9216035112726
19.2206725 ,Left ,47.098164434087 ,52.4927832185799 ,95.9939186891041
19.2355231 ,Left ,47.0088120447658 ,52.556464142172 ,96.1018418361933
19.258828 ,Left ,46.9436292105127 ,52.5903194767015 ,96.1691859257692
19.27398 ,Left ,46.9893224512651 ,52.5806374453129 ,96.1581524220927
19.3031891 ,Left ,46.9998205896033 ,52.5490018356131 ,96.1429618118926
19.3178759 ,Left ,46.9451993127262 ,52.4835565410872 ,96.143002509542
19.355533 ,Left ,47.0619009753771 ,52.3927371392224 ,96.2416691419565
19.3778384 ,Left ,47.0448801103459 ,52.424757177425 ,96.3173053170939
19.3930413 ,Left ,47.1595636050484 ,52.4590735015293 ,96.4163249999343
19.4155227 ,Left ,47.3642846788844 ,52.4912535636495 ,96.5295219782747
19.430487 ,Left ,47.4998789208049 ,52.5027916153304 ,96.6346442493596
19.4533932 ,Left ,47.5194275307306 ,52.5432888798639 ,96.707559382475
19.4755431 ,Left ,47.568390242278 ,52.550085176109 ,96.7368745042437
19.4906103 ,Left ,47.6294408735505 ,52.5214381228077 ,96.7487186273991
19.5130183 ,Left ,47.7139494253322 ,52.468944623798 ,96.7524699430502
19.5356392 ,Left ,47.7658253781448 ,52.4221103287584 ,96.7721144519264
19.5505095 ,Left ,47.766971850546 ,52.3873756941838 ,96.8120651242699
19.5730313 ,Left ,47.7610252701277 ,52.3552241228948 ,96.8413380941166
19.5955012 ,Left ,47.7991554239995 ,52.3249158956287 ,96.8628823497515
19.6105692 ,Left ,47.8614573836574 ,52.2846034972494 ,96.8786697611793
19.6329525 ,Left ,47.8771648052722 ,52.2448050482949 ,96.8771275224578
19.655522 ,Left ,47.8348673037866 ,52.1998873099622 ,96.8511913738436
19.6714057 ,Left ,47.8173595327806 ,52.1550786314787 ,96.8184043476161
19.6929998 ,Left ,47.843715979939 ,52.1000691578026 ,96.7771194026235
19.7154591 ,Left ,47.891173001683 ,52.0381004529623 ,96.7460453870713
19.7379648 ,Left ,47.8890493019951 ,51.9848356645329 ,96.7455735785218
19.7604917 ,Left ,47.8266258885698 ,51.9716008632182 ,96.7578886111553
19.7828918 ,Left ,47.766913688538 ,51.9950493327762 ,96.7544034403869
19.7978578 ,Left ,47.7611278361388 ,52.0230734412497 ,96.7417992630831
19.8129795 ,Left ,47.7634740080756 ,52.0481178408672 ,96.7303761937585
19.8356203 ,Left ,47.7745002709697 ,52.0704214006421 ,96.725249723261
19.8504148 ,Left ,47.7646807051138 ,52.1068364641727 ,96.7258915878699
19.8730877 ,Left ,47.7418211385611 ,52.157876908876 ,96.730095315539
19.8956387 ,Left ,47.7387664418884 ,52.2088973086406 ,96.7353218193875
19.9105503 ,Left ,47.7450165842652 ,52.2585899949337 ,96.7341673624745
19.9336029 ,Left ,47.7485691605797 ,52.3094037772181 ,96.724607957035
19.9555184 ,Left ,47.7568018045895 ,52.3436909660508 ,96.7263823039906
19.9720359 ,Left ,47.7843351300395 ,52.3621069907517 ,96.7270065106295
19.9930269 ,Left ,47.8110280629918 ,52.3687042095037 ,96.7269648524538
20.0155638 ,Left ,47.8114438908155 ,52.3846954937962 ,96.7299494132737
20.0304737 ,Left ,47.7967768590927 ,52.39936529733 ,96.7371732633567
20.0530281 ,Left ,47.8048492462764 ,52.3981790968323 ,96.737724823551
20.0754695 ,Left ,47.8426582102863 ,52.3743269528949 ,96.7367911454503
20.0922753 ,Left ,47.879562649755 ,52.3341603207188 ,96.7270860933699
20.1129321 ,Left ,47.858701395192 ,52.2962888975313 ,96.6853876493765
20.1357769 ,Left ,47.8394470178203 ,52.2494743410399 ,96.624723459514
20.150625 ,Left ,47.8198960461722 ,52.2129161497029 ,96.5730904929031
20.1733143 ,Left ,47.8120035628669 ,52.1880753548496 ,96.5347896612338
20.1955207 ,Left ,47.812998576351 ,52.1851188150151 ,96.51729939598
20.21048 ,Left ,47.8029652961008 ,52.2930839934699 ,96.4989396511506
20.233007 ,Left ,47.7993828351646 ,52.2344364040491 ,96.5423517340413
20.2555137 ,Left ,47.7438749536465 ,52.4824669601984 ,96.5458934859537
20.2708034 ,Left ,47.709757949129 ,52.7650151467545 ,96.5277814893414
20.2930943 ,Left ,47.7027651981201 ,52.9849150014696 ,96.4972912436768
20.3156476 ,Left ,47.7512993735869 ,53.0661270596377 ,96.487504269885
20.3305095 ,Left ,47.8196290352515 ,52.9644921942025 ,96.4808842136114
20.3529761 ,Left ,47.8099579361735 ,52.7407681858808 ,96.4760574711712
20.3754942 ,Left ,47.7263575938645 ,52.5145563744318 ,96.522159311958
20.3980335 ,Left ,47.5780433942473 ,52.3332320787931 ,96.5419614774051
20.4130519 ,Left ,47.481735564856 ,52.2778539785026 ,96.511557874039
20.4355994 ,Left ,47.4394540345784 ,52.360917491796 ,96.4968952107299
20.4579682 ,Left ,47.2877706008886 ,52.5681376038891 ,96.4784812139182
20.4730664 ,Left ,47.1569957272166 ,52.8158894515167 ,96.4678563020627
20.4956116 ,Left ,47.1488723825883 ,53.0054305509874 ,96.4558567078831
20.5179999 ,Left ,47.2492327704359 ,53.0145660102433 ,96.4654084605061
20.5329791 ,Left ,47.3475787647224 ,53.0170740396002 ,96.4677522706926
20.5554809 ,Left ,47.3521754897879 ,53.0623391229662 ,96.4874512771224
20.578016 ,Left ,47.2533361722921 ,53.1368131360835 ,96.5109917534954
20.5930131 ,Left ,47.1598654229142 ,53.1752134060925 ,96.4913832116855
20.615387 ,Left ,47.0914229183525 ,53.1689799519565 ,96.452595080971
20.6456627 ,Left ,47.0657173889887 ,53.127343070396 ,96.3867998497012
20.6604599 ,Left ,47.0625051188854 ,53.1177770500486 ,96.4189810664214
20.6829995 ,Left ,47.0300575291234 ,53.145043422128 ,96.4780008438201
20.712949 ,Left ,47.2047238126299 ,53.1787435405036 ,96.5805449635865
20.7356775 ,Left ,47.2158317138185 ,53.2246640675983 ,96.6756985813975
20.7580671 ,Left ,47.164819775754 ,53.2516304743783 ,96.7046896358623
20.7729666 ,Left ,47.1768748307642 ,53.2265669693464 ,96.698440286408
20.7956636 ,Left ,47.1755030230583 ,53.1371844843236 ,96.6661545016975
20.8179693 ,Left ,47.2040256718918 ,53.0548891646198 ,96.5868573985802
20.8329428 ,Left ,47.1612878575208 ,53.0101374201008 ,96.5237662583029
20.8556164 ,Left ,47.0875418295849 ,52.9902078153609 ,96.4923130686142
20.885487 ,Left ,47.0535537286689 ,53.0157361005844 ,96.4606301430266
20.9005599 ,Left ,47.1063524439617 ,53.0572355806601 ,96.3931384886137
20.924942 ,Left ,47.2050690396538 ,53.1120588259595 ,96.3292058427027
20.9389779 ,Left ,47.1882374663921 ,53.1534203001396 ,96.2755317089534
20.9555254 ,Left ,47.1741808828828 ,53.1715985063706 ,96.2230814560296
20.9762563 ,Left ,47.2198825656424 ,53.150424525905 ,96.1648252382699
20.9979155 ,Left ,47.2928524441346 ,53.1351017642229 ,96.1117004247569
21.0206033 ,Left ,47.3418448766932 ,53.144749434128 ,96.084736457146
21.038062 ,Left ,47.365253661595 ,53.1537190371633 ,96.0916901753578
21.0654901 ,Left ,47.3710334509097 ,53.1559723004684 ,96.1123703395039
21.0803661 ,Left ,47.3776095218511 ,53.1677792154822 ,96.1310766947969
21.1031255 ,Left ,47.389442183194 ,53.1873226737029 ,96.1365683055998
21.1178546 ,Left ,47.3942169757532 ,53.205168156 ,96.1295424742096
21.1417133 ,Left ,47.4108331219148 ,53.2021821490645 ,96.1159421688838
21.1570586 ,Left ,47.4142837705868 ,53.1903118642318 ,96.0802969551819
21.1780108 ,Left ,47.3632653765237 ,53.1719245313155 ,96.0430078164286
21.2003221 ,Left ,47.2921458811098 ,53.1430393428423 ,96.0059969165611
21.2155029 ,Left ,47.221250273971 ,53.1259663219264 ,95.9684583839465
21.238016 ,Left ,47.2084503544436 ,53.0686022282543 ,95.9613011513075
21.253081 ,Left ,47.1475350814829 ,53.0236410119546 ,95.9608482887382
21.2755701 ,Left ,47.1339742807105 ,52.992396444777 ,95.9608038132982
21.2982644 ,Left ,47.1278127882497 ,53.0303437588049 ,96.025311654064
21.3130589 ,Left ,47.1932428646579 ,53.0554102893088 ,96.0970614563237
21.3430207 ,Left ,47.3413101048297 ,53.0266236466683 ,96.1745073093424
21.3653527 ,Left ,47.4351981357351 ,52.9458582141492 ,96.2786702697504
21.395503 ,Left ,47.4329242307245 ,52.8504775401602 ,96.5523664397236
21.4179687 ,Left ,47.3287674032204 ,52.8454550610266 ,96.6270419016014
21.4331102 ,Left ,47.2617499173914 ,52.8344851466733 ,96.5944659916676
21.4478745 ,Left ,47.321279542829 ,52.7503170784155 ,96.4976074309295
21.4704857 ,Left ,47.3207504906486 ,52.6594309215814 ,96.4415093564721
21.4930662 ,Left ,47.3862768637989 ,52.6020733148948 ,96.4799206716185
21.5079849 ,Left ,47.3118481718597 ,52.6259075829099 ,96.557865722444
21.53053 ,Left ,47.2551004891416 ,52.7009110891612 ,96.6099748874957
21.5530613 ,Left ,47.342799891187 ,52.7650542741526 ,96.6383084596842
21.5681571 ,Left ,47.427162292088 ,52.8017461412059 ,96.6780308836669
21.5905198 ,Left ,47.3990529814604 ,52.8213706781487 ,96.7148236138696
21.6355416 ,Left ,47.2758038460177 ,52.8159884698238 ,96.6957122619469
21.6580135 ,Left ,47.3126776388269 ,52.8156010703595 ,96.6697425175452
21.687917 ,Left ,47.3490291862249 ,52.8256125636318 ,96.6507074172416
21.7105876 ,Left ,47.3439481990457 ,52.8165911347177 ,96.6686998968377
21.7483032 ,Left ,47.338817917617 ,52.7798762268157 ,96.7367359135043
21.7704913 ,Left ,47.356092054138 ,52.7604761219117 ,96.7715555855461
21.7853303 ,Left ,47.366859406706 ,52.7464952109107 ,96.8074745667745
21.8081395 ,Left ,47.3954043789706 ,52.7474772943661 ,96.8392216178988
21.8385155 ,Left ,47.4392552080622 ,52.7476520699775 ,96.866978769079
21.8905369 ,Left ,47.5119389918058 ,52.7201539298476 ,96.9409362042958
21.9279992 ,Left ,47.607518107567 ,52.7108159659137 ,96.9663881690359
21.958755 ,Left ,47.6178618793953 ,52.7032903287027 ,96.9859139237376
21.9957334 ,Left ,47.5893820566667 ,52.6895250041271 ,97.0235430586228
22.0116689 ,Left ,47.6125857212272 ,52.6885934583457 ,97.0391731397276
22.0480539 ,Left ,47.6558588956609 ,52.7112604318526 ,97.0866221491561
22.0749984 ,Left ,47.6747939598769 ,52.7181206869197 ,97.1072834354749
22.1078102 ,Left ,47.6613930291488 ,52.7362016034153 ,97.130193463196
22.130481 ,Left ,47.6719157086386 ,52.7489017494255 ,97.1302333008499
22.1680128 ,Left ,47.7287750891338 ,52.7742319819789 ,97.1138250640035
22.1904885 ,Left ,47.7614938910214 ,52.785878350497 ,97.0983804448586
22.227803 ,Left ,47.829615616137 ,52.8002216111094 ,97.0447309465949
22.2504266 ,Left ,47.8551202570541 ,52.7853330914066 ,96.987542947746
22.2881122 ,Left ,47.9286128446636 ,52.7366431830324 ,96.8801786033197
22.3103849 ,Left ,47.9475979496386 ,52.7163220076122 ,96.8716654525936
22.3478279 ,Left ,47.9403512192154 ,52.7206294867713 ,96.9255345095068
22.373728 ,Left ,47.9820760200793 ,52.7172367450106 ,96.9711457888572
22.408159 ,Left ,48.1102849495313 ,52.7127549552109 ,97.0808372983169
22.4303451 ,Left ,48.1385725080226 ,52.724361947768 ,97.1453191973853
22.4677926 ,Left ,48.1842639018397 ,52.7559824663514 ,97.2281201894489
22.490491 ,Left ,48.2562170438625 ,52.7628752047627 ,97.2497447308749
22.5278764 ,Left ,48.3594798564763 ,52.7447402700845 ,97.2249403674152
22.5504948 ,Left ,48.3123306093907 ,52.7292819950721 ,97.1863594340845
22.589208 ,Left ,48.172437240082 ,52.6780393950651 ,97.1024808876268
22.6105865 ,Left ,48.1247803269422 ,52.6379460276014 ,97.0518054705605
22.6478142 ,Left ,48.095522334926 ,52.575783634736 ,96.9615464746229
22.6707395 ,Left ,48.0336798454841 ,52.5788002813339 ,96.9756537453985
22.7078921 ,Left ,47.9831640728965 ,52.6098233437576 ,97.0159703468914
22.7304121 ,Left ,48.0162500122951 ,52.6295106498266 ,97.0351333125919
22.767854 ,Left ,47.9921038363352 ,52.7011811807927 ,97.0201805556592
22.7911864 ,Left ,47.9093928663102 ,52.7533761563466 ,97.030399261187
22.8277998 ,Left ,47.8027553657156 ,52.7823292884149 ,96.9496063313302
22.8502907 ,Left ,47.7310849414067 ,52.7364478478781 ,96.8871747621136
22.8880252 ,Left ,47.4684023056098 ,52.6380682988849 ,96.8654503346331
22.9105971 ,Left ,47.4048224716225 ,52.5890715429181 ,96.8663125703812
22.9477115 ,Left ,47.5415287458827 ,52.5832873961834 ,96.9400921955042
22.9762699 ,Left ,47.6530804008066 ,52.599511181781 ,96.9755976457324
23.0079645 ,Left ,47.6854097829726 ,52.6766992626277 ,97.0294380208031
23.0303716 ,Left ,47.6342168700237 ,52.6880425226811 ,97.0609866953541
23.0754831 ,Left ,47.5889231010232 ,52.6801766464778 ,97.0303746079202
23.1280401 ,Left ,47.7990625895533 ,52.7044123557298 ,97.3162450051206
23.1502579 ,Left ,47.8383919401537 ,52.725195896762 ,97.3810021560201
23.1905191 ,Left ,47.7384269659739 ,52.6977861439682 ,97.4405254287742
23.210328 ,Left ,47.6534232838089 ,52.5920979753408 ,97.3940079940816
23.2405387 ,Left ,47.6294224671752 ,52.373117411964 ,97.2003028770538
23.2629174 ,Left ,47.6353521384739 ,52.2983688342132 ,97.1616893960498
23.285584 ,Left ,47.4881873193664 ,52.3389956028576 ,97.1346838409078
23.3003288 ,Left ,47.3820560805383 ,52.4508083149302 ,97.0962389860036
23.3229984 ,Left ,47.436486673583 ,52.56930044921 ,97.067181089819
23.3454063 ,Left ,47.5293517776332 ,52.6691089078779 ,97.0315250605331
23.3605633 ,Left ,47.537154185993 ,52.7781189548096 ,96.9793652980129
23.3828706 ,Left ,47.4937943127536 ,52.8927169795573 ,96.8990352276309
23.4054875 ,Left ,47.495832800496 ,52.9709692365583 ,96.8056776520766
23.4213926 ,Left ,47.4556039078869 ,53.031165065633 ,96.7075783936959
23.4433338 ,Left ,47.4314289430533 ,53.0507475854196 ,96.6283044528341
23.4656662 ,Left ,47.3787210450722 ,53.0313569586719 ,96.5936432162502
23.480442 ,Left ,47.2885938430982 ,52.9776410805416 ,96.5755541766302
23.503149 ,Left ,47.2293896533569 ,52.8974673955101 ,96.5593477412417
23.5254989 ,Left ,47.3633941386377 ,52.7850399919266 ,96.588953214559
23.5405059 ,Left ,47.4692479056856 ,52.7026363204944 ,96.6102621453531
23.5630272 ,Left ,47.4543558561194 ,52.7105748434334 ,96.6303398687038
23.5855642 ,Left ,47.4835627065836 ,52.7698972929473 ,96.6769503028862
23.6006329 ,Left ,47.5191508852832 ,52.8460828703068 ,96.7047953810547
23.6230456 ,Left ,47.5593949608756 ,52.9155027887386 ,96.7126618397891
23.6453142 ,Left ,47.5941994315803 ,52.9667319215306 ,96.723235832434
23.6607294 ,Left ,47.5958338082269 ,52.9888608928006 ,96.7259567178893
23.6832444 ,Left ,47.582607482612 ,52.9855233122605 ,96.7263867953972
23.705547 ,Left ,47.5741465098713 ,52.9794426958687 ,96.7343257816535
23.7206326 ,Left ,47.5817449429709 ,52.9658796331779 ,96.7559799750113
23.7580525 ,Left ,47.6148452803834 ,52.9588743731774 ,96.7830353587954
23.7804906 ,Left ,47.6574275129203 ,52.96333536892 ,96.8203622147086
23.7955169 ,Left ,47.7020158203485 ,52.976331047553 ,96.8669673777446
23.8105402 ,Left ,47.7447032849737 ,52.9914376751319 ,96.917791920859
23.825546 ,Left ,47.7581350342419 ,53.0084337796886 ,96.9510679553194
23.8413419 ,Left ,47.7514035245 ,53.0301995690358 ,96.9641143306404
23.8629712 ,Left ,47.7270062348828 ,53.0512494777234 ,96.9579592186999
23.8855859 ,Left ,47.6956497395917 ,53.0635268059551 ,96.9147607841215
23.900547 ,Left ,47.6274574975191 ,53.0729706547558 ,96.8535232314068
23.9230739 ,Left ,47.5224382546346 ,53.0655123566844 ,96.799806781088
23.9454575 ,Left ,47.3734124287382 ,53.0243920944529 ,96.7232224192328
23.967838 ,Left ,47.3305161174321 ,52.8982945250574 ,96.6459912486726
23.9830725 ,Left ,47.4070214449655 ,52.8214385014253 ,96.6766639049807
24.0054513 ,Left ,47.4082241560802 ,52.819115914953 ,96.7257720923711
24.0281916 ,Left ,47.3259084702116 ,52.8886145901896 ,96.7860290021615
24.0432029 ,Left ,47.4332067664447 ,52.9127214940893 ,96.8438347604402
24.0653954 ,Left ,47.5765030976948 ,52.8921860101764 ,96.8988194779343
24.0879941 ,Left ,47.5899512304966 ,52.8962904978509 ,97.0000427862555
24.1029525 ,Left ,47.4194487399642 ,52.9086323836807 ,97.0765626067278
24.1253822 ,Left ,47.3014865260073 ,52.8971662065705 ,97.0834332555959
24.1562637 ,Left ,47.3238845834192 ,52.8332916262263 ,97.0464065348893
24.1702447 ,Left ,47.3411887623814 ,52.6565609687938 ,96.9780610095824
24.1930309 ,Left ,47.4154275776353 ,52.4839718741173 ,96.9746358743615
24.2079263 ,Left ,47.429954385787 ,52.3783335135519 ,97.0438456027087
24.2229504 ,Left ,47.2578400219745 ,52.4339917455215 ,97.1404937327008
24.2475136 ,Left ,47.2728286083499 ,52.5295159879369 ,97.2151453882185
24.2678853 ,Left ,47.5150129945773 ,52.5643615455667 ,97.2626553379615
24.2830093 ,Left ,47.7055081620118 ,52.5758157147259 ,97.3236181609974
24.3129057 ,Left ,47.794545295404 ,52.5994813773585 ,97.4020215335598
24.3352872 ,Left ,47.819807584321 ,52.6322093124369 ,97.4548960616404
24.3503053 ,Left ,47.9247011869941 ,52.6473229002551 ,97.4803903503653
24.3654406 ,Left ,48.1281993327921 ,52.6334634567603 ,97.4877027174594
24.3881774 ,Left ,48.3389960647029 ,52.5961851611129 ,97.4883236062317
24.4030287 ,Left ,48.3958793218016 ,52.5691654099484 ,97.4872392281093
24.4254137 ,Left ,48.3228802466025 ,52.5457562096435 ,97.4804809744317
24.4480639 ,Left ,48.2423844827439 ,52.5034192968162 ,97.4587650658434
24.4630342 ,Left ,48.2163328076987 ,52.4330886600163 ,97.4254131039581
24.4854252 ,Left ,48.2293053086241 ,52.3507761761764 ,97.4024993753094
24.4929148 ,Left ,48.2293053086241 ,52.3507761761764 ,97.4024993753094
24.5081034 ,Left ,48.2194011246351 ,52.2833868137274 ,97.4019418932728
24.5229948 ,Left ,48.1785247182836 ,52.2302370492444 ,97.4214737666055
24.5456149 ,Left ,48.155855168449 ,52.179403228631 ,97.4546205387503
24.5677866 ,Left ,48.1269044493084 ,52.1339980779311 ,97.4886710735862
24.5830489 ,Left ,48.0925743889845 ,52.0996075469819 ,97.5157460277293
24.6059534 ,Left ,48.0793546705611 ,52.0880924919444 ,97.5371746454578
24.6281528 ,Left ,48.0624410188116 ,52.0767170286699 ,97.5324893253062
24.6434206 ,Left ,48.0667115760064 ,52.0608094818598 ,97.5205504484481
24.6657095 ,Left ,48.068716196251 ,52.0440583231503 ,97.4999002570521
24.6884766 ,Left ,48.0707169083639 ,52.0358794321028 ,97.4908179244271
24.7031486 ,Left ,48.0386104845426 ,52.0431364850045 ,97.4882401701254
24.7254167 ,Left ,48.0120584563929 ,52.052665228967 ,97.4839163330053
24.7481133 ,Left ,48.0350702274931 ,52.0644804262383 ,97.4903203720215
24.7632347 ,Left ,48.0588731793571 ,52.0729673821132 ,97.5051165176484
24.7854861 ,Left ,48.0528857274977 ,52.0849746012251 ,97.5176252201552
24.80802 ,Left ,48.0478280226575 ,52.1004775395229 ,97.520403192
24.8229413 ,Left ,48.0467382833434 ,52.1119101616034 ,97.5173694843133
24.8456971 ,Left ,48.0500263785796 ,52.1158736145157 ,97.5135136904501
24.8679598 ,Left ,48.0713281435856 ,52.1174930095214 ,97.5131913457816
24.8831342 ,Left ,48.0922047922577 ,52.1248172910176 ,97.5120943594636
24.9056078 ,Left ,48.0922047922577 ,52.1248172910176 ,97.5120943594636
24.9281686 ,Left ,48.0980420812854 ,52.1273046035646 ,97.5142258974692
24.9430998 ,Left ,48.1191917049135 ,52.1371380706034 ,97.5211973350577
24.9654565 ,Left ,48.1335191760764 ,52.158079523902 ,97.5267875900466
24.9879777 ,Left ,48.1400147629077 ,52.1761475489308 ,97.5277597258524
25.0029713 ,Left ,48.1427750870182 ,52.1942778952712 ,97.5328317076384
25.0256969 ,Left ,48.1672667557253 ,52.2120350217704 ,97.5392315259921
25.0554558 ,Left ,48.1956683017839 ,52.2344143685844 ,97.551927280258
25.0706748 ,Left ,48.2093882912622 ,52.2560937284873 ,97.5748553286207
25.0938072 ,Left ,48.2116254902785 ,52.2812157469452 ,97.6046312064412
25.1080796 ,Left ,48.2156187799679 ,52.3065276773549 ,97.6330596307319
25.123129 ,Left ,48.2387383957459 ,52.3347042761213 ,97.6563852718957
25.1456446 ,Left ,48.2732496285399 ,52.3656700519191 ,97.6789196227804
25.1680577 ,Left ,48.30831934191 ,52.4049075144686 ,97.7142607276494
25.1980624 ,Left ,48.3296261573275 ,52.4535525027373 ,97.758451113685
25.2129595 ,Left ,48.3475209058251 ,52.5150337946657 ,97.7934055907652
25.2355743 ,Left ,48.378781494869 ,52.5709788442186 ,97.8180954779448
25.2655384 ,Left ,48.4566129139206 ,52.6714444010529 ,97.8525431984622
25.2887587 ,Left ,48.4267391173207 ,52.7240425701683 ,97.8451139962348
25.3132727 ,Left ,48.3560178192856 ,52.7668500593084 ,97.8107160090171
25.3279442 ,Left ,48.2685703616672 ,52.7876156633667 ,97.7486996767944
25.3480859 ,Left ,48.1830826868626 ,52.7918754552661 ,97.6739786982758
25.3775597 ,Left ,48.0836625226106 ,52.7888059232871 ,97.6336510488709
25.3855407 ,Left ,47.9241836893563 ,52.7754685418353 ,97.5926559305036
25.4080901 ,Left ,47.6968540617123 ,52.8014992373501 ,97.5734623908959
25.4304382 ,Left ,47.7005797951841 ,52.8141501442479 ,97.5826518806804
25.4456549 ,Left ,47.721089568133 ,52.8881424788398 ,97.6137707478958
25.467955 ,Left ,47.6690049944816 ,52.999261812617 ,97.5960508477117
25.490634 ,Left ,47.6893596168627 ,53.1094263940663 ,97.5775357878284
25.5056874 ,Left ,47.7031864056714 ,53.1832669270343 ,97.5808964854383
25.5375728 ,Left ,47.6709969447143 ,53.2020282105738 ,97.5702577235005
25.5505501 ,Left ,47.5913738951234 ,53.1975417388225 ,97.5562519990808
25.5657059 ,Left ,47.5277024941789 ,53.16665603656 ,97.5424121055894
25.591988 ,Left ,47.416687220495 ,53.1019913300553 ,97.5167415995229
25.6106365 ,Left ,47.3278213080484 ,52.9885505689691 ,97.4528667484131
25.625652 ,Left ,47.2912081176254 ,52.8947574562245 ,97.4169948678397
25.6481259 ,Left ,47.2304486549011 ,52.8275296766521 ,97.395479699025
25.6706213 ,Left ,47.2023029994203 ,52.8023905032586 ,97.4265474504142
25.6856197 ,Left ,47.2037068595113 ,52.8416541991435 ,97.4975242254812
25.7080213 ,Left ,47.3109122057378 ,52.8739674334249 ,97.5380325491531
25.7306871 ,Left ,47.4350138339415 ,52.9321185103102 ,97.594371810983
25.7530554 ,Left ,47.447665096489 ,53.0138105494699 ,97.6513662615786
25.7759033 ,Left ,47.3226574445488 ,53.0478435555104 ,97.6650178561652
25.797949 ,Left ,47.2628863767628 ,53.019893429461 ,97.6341035676817
25.8352575 ,Left ,47.3368164693903 ,52.9416775263885 ,97.6014581584911
25.8582024 ,Left ,47.3499511075694 ,52.9254769005144 ,97.6609963130847
25.8881485 ,Left ,47.3934251618789 ,52.865688201471 ,97.7156320252778
25.9106229 ,Left ,47.3854096421616 ,52.8896948137737 ,97.7539625444345
25.9259742 ,Left ,47.3547132333804 ,52.9239541937905 ,97.7893621569814
25.949671 ,Left ,47.2676019396971 ,52.8818343241799 ,97.7474408914348
25.9712586 ,Left ,47.1925736714641 ,52.8006072576817 ,97.6535754058834
25.9930368 ,Left ,47.2572544851623 ,52.6926668744896 ,97.5773032563473
26.0093062 ,Left ,47.2896938392293 ,52.585193136898 ,97.5549552393909
26.0306352 ,Left ,47.1669384519827 ,52.5551630656913 ,97.5803706433461
26.0606428 ,Left ,47.0491998013507 ,52.6126952543118 ,97.5898649101189
26.077224 ,Left ,47.1796905518703 ,52.6662948233119 ,97.5844515109525
26.0979087 ,Left ,47.3382434781076 ,52.7165761405343 ,97.5847167916959
26.1140792 ,Left ,47.3663796404369 ,52.7728970701876 ,97.5780619753148
26.1282467 ,Left ,47.3267934355741 ,52.8451291080694 ,97.5561856140232
26.1506498 ,Left ,47.3611482915921 ,52.8972631463709 ,97.511861391238
26.1753253 ,Left ,47.4510626723977 ,52.9442812184242 ,97.4497716571239
26.1882801 ,Left ,47.545110386857 ,52.9902099880288 ,97.3903667761695
26.2106503 ,Left ,47.5601615401402 ,53.0334471604579 ,97.345130346645
26.23319 ,Left ,47.521548626659 ,53.0794726211829 ,97.3154343525053
26.2480493 ,Left ,47.4498672554051 ,53.1085878586432 ,97.276228830438
26.2706474 ,Left ,47.4394915028131 ,53.1315687372644 ,97.25310363217
26.2938469 ,Left ,47.4790977661993 ,53.1295626995267 ,97.2359399324412
26.3105073 ,Left ,47.5215775170182 ,53.115741861028 ,97.2158849399764
26.3304787 ,Left ,47.5028456560733 ,53.1122302386212 ,97.1851901139011
26.3530956 ,Left ,47.4189891171159 ,53.1234364406311 ,97.1632721905717
26.368049 ,Left ,47.3687576348129 ,53.1321529896642 ,97.1237081245834
26.3917167 ,Left ,47.4047091838975 ,53.1313543593001 ,97.0724420839683
26.4130193 ,Left ,47.4248102584594 ,53.1490340751869 ,97.020114703071
26.4280997 ,Left ,47.3523052254835 ,53.1811844454651 ,96.9798590456171
26.4505326 ,Left ,47.2220800712892 ,53.194125111146 ,96.9353576190341
26.4736013 ,Left ,47.1461536235169 ,53.1734764043527 ,96.885410083165
26.4880392 ,Left ,47.0678859706803 ,53.1163854756631 ,96.8513322873397
26.5106672 ,Left ,47.0315225684409 ,53.1068450577523 ,96.8702205369665
26.5404903 ,Left ,47.0872971907404 ,53.1100474743747 ,96.8972344204106
26.5555919 ,Left ,47.2023862176202 ,53.1059261679408 ,96.9395562855549
26.5790602 ,Left ,47.3293764238082 ,53.0483941078153 ,96.9683288687814
26.5931351 ,Left ,47.3566523240105 ,52.9908763962255 ,96.984155697349
26.6081131 ,Left ,47.3173608348136 ,52.9866536475035 ,97.0769977772345
26.6306057 ,Left ,47.2046633861177 ,52.9912482883446 ,97.1315071896723
26.6531005 ,Left ,47.1728905540989 ,52.9433595484163 ,97.08199950351
26.6764881 ,Left ,47.3097566897009 ,52.8055383087387 ,97.0338354682143
26.6909047 ,Left ,47.5067475248557 ,52.6607572189492 ,97.0534499917296
26.7135159 ,Left ,47.5776482194056 ,52.5491412914608 ,97.1108562269051
26.7354122 ,Left ,47.4570405206342 ,52.5723182169185 ,97.1923384760015
26.7504842 ,Left ,47.4777112680203 ,52.6177666806364 ,97.2532455635671
26.7765993 ,Left ,47.6865999636939 ,52.6336792549216 ,97.3015456283892
26.7956367 ,Left ,47.837465557318 ,52.6639361274825 ,97.3755905131214
26.8109907 ,Left ,47.8307550819373 ,52.7094278357653 ,97.4538885817404
26.8329065 ,Left ,47.7876694561073 ,52.7365869774955 ,97.5006743850691
26.8560531 ,Left ,47.7727830578516 ,52.7381479877717 ,97.5110286237223
26.8704193 ,Left ,47.8109416895721 ,52.7272633526894 ,97.5115824442169
26.8931693 ,Left ,47.8418594806642 ,52.7160001309803 ,97.5168882570829
26.9081138 ,Left ,47.870608738408 ,52.7172049781298 ,97.5333936695053
26.9305901 ,Left ,47.8974590220851 ,52.728426828532 ,97.5583862425608
26.9529811 ,Left ,47.9114211430352 ,52.7675582219654 ,97.5742784715687
26.9911294 ,Left ,47.9599825304839 ,52.8538108344759 ,97.5824045366047
26.9991983 ,Left ,48.0782908670602 ,52.9724862698049 ,97.5898365500129
27.0205635 ,Left ,48.2163482128548 ,53.0923643933213 ,97.5975977709781
27.035473 ,Left ,48.2844936499653 ,53.2053113293911 ,97.6052100924518
27.050594 ,Left ,48.2528976238275 ,53.3173707094037 ,97.6145049268803
27.0655819 ,Left ,48.1805487859298 ,53.3939489588474 ,97.6369342260989
27.0894881 ,Left ,48.1105439381715 ,53.4168609459564 ,97.641258464648
27.1039523 ,Left ,48.1007725157274 ,53.3846941627117 ,97.6368002540505
27.1254329 ,Left ,48.1479958565505 ,53.317544514753 ,97.6426049572038
27.1627787 ,Left ,48.1657554062571 ,53.1755281948809 ,97.7222644249595
27.1855845 ,Left ,48.1362628791969 ,53.1295393639614 ,97.7436861416146
27.2003602 ,Left ,48.1580913344269 ,53.084266993256 ,97.750834152948
27.2255168 ,Left ,48.2289362447334 ,53.0464090929985 ,97.7642653014834
27.2454594 ,Left ,48.2806350687358 ,53.0330768909023 ,97.7822116207269
27.2603009 ,Left ,48.2964542571708 ,53.0524951019331 ,97.7982810708152
27.2827769 ,Left ,48.2991618082069 ,53.082554443323 ,97.8085061730277
27.3057497 ,Left ,48.3283828500969 ,53.1056944527104 ,97.8040129299824
27.3202346 ,Left ,48.3490462565324 ,53.1239742075101 ,97.7893162124273
27.3429811 ,Left ,48.3217606087155 ,53.1468752180108 ,97.7696686709481
27.3655053 ,Left ,48.239097892016 ,53.1758553249174 ,97.7495870398964
27.3803843 ,Left ,48.1471376425679 ,53.1829971160015 ,97.73762669294
27.4027789 ,Left ,48.0635149378529 ,53.1806027349383 ,97.7229900222578
27.4255111 ,Left ,48.013248942129 ,53.1510696297802 ,97.7082365762099
27.4403858 ,Left ,47.9010787190291 ,53.1449573177555 ,97.6986618399294
27.4628002 ,Left ,47.8421841190701 ,53.1169516045242 ,97.6573171645223
27.4853081 ,Left ,47.8590927009861 ,53.0951040732405 ,97.6333666549695
27.5229296 ,Left ,47.8584321738431 ,53.0853891366795 ,97.6010238867847
27.5454454 ,Left ,47.8159985195544 ,53.1244526151199 ,97.5818632913307
27.5831083 ,Left ,47.744454618858 ,53.2261665074822 ,97.5605310794507
27.6059543 ,Left ,47.6796452304622 ,53.2186659776497 ,97.5165628512585
27.6430285 ,Left ,47.4757531939719 ,53.1404933207246 ,97.4195003664297
27.6656213 ,Left ,47.3111623816319 ,53.0961438199185 ,97.3843365567999
27.7104518 ,Left ,47.1270098412728 ,53.0322747666641 ,97.371360358612
27.7331273 ,Left ,47.1996957065469 ,53.0217870024354 ,97.4189874568561
27.7628029 ,Left ,47.3823630901352 ,53.0549676834266 ,97.5251628607639
27.7854276 ,Left ,47.3414042860913 ,53.1254325314729 ,97.5850806626265
27.8231024 ,Left ,47.1483146442639 ,53.1097426149707 ,97.5290019483614
27.8455682 ,Left ,47.1759478205179 ,53.0527584345331 ,97.4823471761502
27.8828024 ,Left ,47.2900731477241 ,52.93750259285 ,97.6400715824548
27.9055697 ,Left ,47.318570170107 ,52.9195910200011 ,97.7371400104642
27.9431373 ,Left ,47.3527564094133 ,52.9572993072931 ,97.8937600879992
27.965585 ,Left ,47.3320911308653 ,52.914342045844 ,97.9114461403885
28.0028905 ,Left ,47.3125456572113 ,52.7785854220602 ,97.8472864041243
28.0255469 ,Left ,47.3480208259357 ,52.7330105949531 ,97.7897511984225
28.0628653 ,Left ,47.2384712309775 ,52.8305364458801 ,97.7687060515783
28.085373 ,Left ,47.2764279001765 ,52.908961468542 ,97.7375484995436
28.1239374 ,Left ,47.4877812626342 ,53.0354550503428 ,97.6966942142
28.1455155 ,Left ,47.4576531586685 ,53.1080098218712 ,97.6693751750191
28.1828611 ,Left ,47.4143653114507 ,53.2405086449221 ,97.5862532016457
28.2084288 ,Left ,47.4689022758711 ,53.2825329954385 ,97.5435806394949
28.2438046 ,Left ,47.553755343612 ,53.3405034479909 ,97.5024303637134
28.2654837 ,Left ,47.5493066490169 ,53.3740940177989 ,97.5072750625876
28.3029533 ,Left ,47.5520966433117 ,53.4361376098419 ,97.4922795381456
28.3257747 ,Left ,47.573771796334 ,53.4633995128224 ,97.4633454061281
28.362796 ,Left ,47.574318534235 ,53.4965506468825 ,97.3736170066622
28.3853823 ,Left ,47.539850962497 ,53.4972571731341 ,97.3326153219603
28.4232496 ,Left ,47.3466649767302 ,53.4437727332249 ,97.2854909032982
28.4454263 ,Left ,47.3235710279301 ,53.3138086365603 ,97.2847489705022
28.4905701 ,Left ,47.5119570394645 ,53.1390393166992 ,97.333080530112
28.5131238 ,Left ,47.5070334676322 ,53.1609205126889 ,97.3423639501688
28.5432869 ,Left ,47.6914670005132 ,53.1529474029421 ,97.4273288043265
28.5653615 ,Left ,47.7654979362994 ,53.141790265386 ,97.5066790917455
28.6028645 ,Left ,47.5219073096921 ,53.2306114113439 ,97.7030703721122
28.6254736 ,Left ,47.4318051394354 ,53.2376330303455 ,97.745429118506
28.6705894 ,Left ,47.5860888329007 ,53.0338930319393 ,97.6966797250423
28.6929363 ,Left ,47.7432120679559 ,52.9061853292747 ,97.716679937314
28.7306432 ,Left ,47.6268327166201 ,52.8744037879047 ,97.7648271252154
28.7529247 ,Left ,47.7152071192345 ,52.907245152269 ,97.7920620491715
28.7830876 ,Left ,47.9726519617325 ,52.9567606979525 ,97.8584347265466
28.8055023 ,Left ,47.9344230357886 ,53.0043355753505 ,97.9045878773986
28.8430712 ,Left ,47.8346431945604 ,53.0602996490341 ,97.9254113070559
28.8806522 ,Left ,47.9243623321648 ,53.0147531559755 ,97.9279247507914
28.8956864 ,Left ,47.9000036113176 ,52.9824148180277 ,97.9356858770229
28.9186539 ,Left ,47.8422723351181 ,52.9562862805556 ,97.9477184357444
28.9405248 ,Left ,47.8241717948877 ,52.9520811907926 ,97.9599877012811
28.9554365 ,Left ,47.8389119381676 ,52.9454663752711 ,97.9658537046979
28.9779922 ,Left ,47.8813224854625 ,52.9162106988573 ,97.9586180377202
29.0004504 ,Left ,47.9013026631009 ,52.8826887903456 ,97.9372956995351
29.0155735 ,Left ,47.8744125493402 ,52.8629629812608 ,97.9284369123037
29.0381363 ,Left ,47.8174174671299 ,52.8592339144463 ,97.9232394978071
29.0604876 ,Left ,47.7741778954794 ,52.8420390616366 ,97.9087430329899
29.0754078 ,Left ,47.7733125313484 ,52.811857741204 ,97.89727562947
29.0979209 ,Left ,47.7972483026143 ,52.7752967228175 ,97.9159949560061
29.1205483 ,Left ,47.8157897637326 ,52.7550846767605 ,97.9522597031818
29.1354619 ,Left ,47.8412229768775 ,52.748566397433 ,98.0118928582107
29.1593417 ,Left ,47.8953318615218 ,52.7444902719983 ,98.0875418238891
29.1806147 ,Left ,47.9720539823944 ,52.7448826621746 ,98.1569713656869
29.1955921 ,Left ,48.0384599318192 ,52.7644672445626 ,98.2339777459585
29.2181044 ,Left ,48.0756226665976 ,52.7872969066311 ,98.2927258940799
29.2420462 ,Left ,48.1018041284401 ,52.8072455292042 ,98.3132525906871
29.2557106 ,Left ,48.1238936223978 ,52.8176377069983 ,98.30484727882
29.2784688 ,Left ,48.1262273721528 ,52.8168709663168 ,98.2876193466824
29.3005716 ,Left ,48.1056727240768 ,52.8092863111593 ,98.2727405361951
29.3154623 ,Left ,48.0748068785926 ,52.8024743308874 ,98.2504902888913
29.3427058 ,Left ,48.0402158611996 ,52.7835205621763 ,98.2231042526646
29.3606202 ,Left ,48.0100961527813 ,52.7591345508179 ,98.1986988750243
29.3769331 ,Left ,48.0114981768384 ,52.7283435507069 ,98.1716943348799
29.3981785 ,Left ,48.0010195536069 ,52.7360156567888 ,98.1465033949953
29.4205177 ,Left ,47.9475703871019 ,52.7913518366792 ,98.1359813369828
29.435509 ,Left ,47.9035653777075 ,52.861399431863 ,98.1330147550597
29.4582563 ,Left ,47.8837335221149 ,52.9398785246217 ,98.1213757178859
29.4803456 ,Left ,47.7602204099763 ,53.013708525967 ,98.0901893252492
29.4994736 ,Left ,47.8082689266186 ,53.0348128004432 ,98.1345930244589
29.518063 ,Left ,47.8869004843319 ,53.0307123254226 ,98.1935433667796
29.5405535 ,Left ,47.8223863469825 ,53.045638122026 ,98.2034724391645
29.5628133 ,Left ,47.709853154931 ,53.1334979230207 ,98.2503497792477
29.5780949 ,Left ,47.6526260684632 ,53.2046907115539 ,98.2701712324617
29.6002933 ,Left ,47.6700307545172 ,53.2087347403948 ,98.2323025889059
29.6230056 ,Left ,47.6847179607026 ,53.1618041113825 ,98.1944602320476
29.6380789 ,Left ,47.6173416966175 ,53.0798067293242 ,98.135252867694
29.6606071 ,Left ,47.5173579532627 ,52.9506249678255 ,98.0477335196702
29.6831165 ,Left ,47.4866331535953 ,52.7783943315449 ,97.9691284504303
29.6982889 ,Left ,47.4565340141517 ,52.626589548949 ,97.9284466410192
29.7205349 ,Left ,47.3272888677829 ,52.531800668445 ,97.9412261753769
29.7430904 ,Left ,47.1737257311776 ,52.4941024475555 ,97.9945540833777
29.7580877 ,Left ,47.1052382022651 ,52.4815633263811 ,98.0309363721205
29.7805207 ,Left ,47.2593317011387 ,52.5173129794105 ,98.0760077940916
29.8028094 ,Left ,47.4383702748625 ,52.5681711230513 ,98.1024230640235
29.817967 ,Left ,47.5853493548664 ,52.5952125896859 ,98.1245229643213
29.8406152 ,Left ,47.6079694146109 ,52.6330079379004 ,98.1430886855589
29.8630073 ,Left ,47.5805579909279 ,52.6938698546573 ,98.1650862828334
29.8783012 ,Left ,47.5388033078227 ,52.7700083003913 ,98.1903540848478
29.9006356 ,Left ,47.5013601220779 ,52.7991585021929 ,98.186346254302
29.9244643 ,Left ,47.5211769031407 ,52.7674733432863 ,98.1674606544309
29.9381612 ,Left ,47.5140554413259 ,52.7112322766648 ,98.1555301076538
29.9613385 ,Left ,47.4430885866498 ,52.6525300024077 ,98.1523469354606
29.9831264 ,Left ,47.3590058841836 ,52.6039740171937 ,98.1629418729827
29.9980634 ,Left ,47.3201284688702 ,52.5729000832456 ,98.1663515420483
30.020433 ,Left ,47.3552801416635 ,52.5829728203832 ,98.1723290964656
30.0430985 ,Left ,47.4176634837424 ,52.6006008522046 ,98.1820413621908
30.0580843 ,Left ,47.4564107945982 ,52.6311079824678 ,98.1982069917383
30.0806515 ,Left ,47.4451160612752 ,52.6812380133872 ,98.2187556802055
30.1028974 ,Left ,47.4205308961724 ,52.7347479802253 ,98.2431427490003
30.1180363 ,Left ,47.4205233656608 ,52.7599452214345 ,98.2390745269463
30.1429227 ,Left ,47.5268126327345 ,52.75540765368 ,98.241209269031
30.1631711 ,Left ,47.6352715441692 ,52.7467235482834 ,98.2654919519124
30.1780042 ,Left ,47.6545103773814 ,52.7596791704349 ,98.2700432435534
30.2004718 ,Left ,47.6400248427156 ,52.8103413497715 ,98.2747129503846
30.2235239 ,Left ,47.6567024697027 ,52.8662955450773 ,98.2795961179264
30.2380504 ,Left ,47.6667006511272 ,52.9186429633085 ,98.293932237268
30.260863 ,Left ,47.6813941241649 ,52.9575079228081 ,98.3079496743748
30.2831031 ,Left ,47.6589159834328 ,52.9838783486633 ,98.3351562104313
30.2986311 ,Left ,47.6561589693663 ,53.0003173674135 ,98.3766500977569
30.3205579 ,Left ,47.6179720838138 ,53.0155493148574 ,98.395069063594
30.3444574 ,Left ,47.6506477736308 ,53.00123954018 ,98.4211646437116
30.3605863 ,Left ,47.7174236714549 ,52.9683291256038 ,98.4438277469972
30.3806429 ,Left ,47.7401148301783 ,52.9391228900705 ,98.4601562890592
30.4031953 ,Left ,47.716175460266 ,52.9308165385126 ,98.4699910150387
30.4202759 ,Left ,47.7322762732848 ,52.9257710724831 ,98.4719714847789
30.4407446 ,Left ,47.7670504218862 ,52.9189895738395 ,98.4642726785413
30.4629461 ,Left ,47.7954734703985 ,52.9214175752533 ,98.454854152875
30.4779304 ,Left ,47.7743068970114 ,52.9255160992629 ,98.4408478858862
30.5007385 ,Left ,47.7817462653009 ,52.9214156455607 ,98.4339414748465
30.5231323 ,Left ,47.8011102038666 ,52.9181394518961 ,98.4302531704076
30.5383824 ,Left ,47.8100215308944 ,52.9158428743026 ,98.4194751201085
30.5606185 ,Left ,47.8203167956802 ,52.9193974520476 ,98.4065312493668
30.5831982 ,Left ,47.8302371126718 ,52.9227128912371 ,98.3896886380788
30.5978795 ,Left ,47.7970701268459 ,52.9246398607542 ,98.3511631276248
30.6204281 ,Left ,47.690032488625 ,52.9545383673632 ,98.3150326841463
30.6430514 ,Left ,47.4669901564125 ,52.9912510645659 ,98.2608961983856
30.6655208 ,Left ,47.3902356584857 ,52.9744024216509 ,98.1664196983768
30.6804613 ,Left ,47.5298554193866 ,52.9498044508796 ,98.1353028783459
30.703038 ,Left ,47.5604191831549 ,52.9575418274025 ,98.1121109271793
30.7255769 ,Left ,47.5185481533081 ,53.0265580758501 ,98.0925262634506
30.7408708 ,Left ,47.5273516126444 ,53.0851066054596 ,98.0825051898103
30.7629297 ,Left ,47.5567054709373 ,53.1250782851879 ,98.0704842539308
30.7855909 ,Left ,47.5495081149056 ,53.2082770020483 ,98.0572045429643
30.8004211 ,Left ,47.5055464906453 ,53.3141733201135 ,98.0079476306131
30.8241348 ,Left ,47.4821616442861 ,53.4177432811601 ,97.935738707248
30.8455658 ,Left ,47.5432315838814 ,53.4998267278542 ,97.8530403005076
30.8605838 ,Left ,47.6013380330062 ,53.5638078249583 ,97.7878550414107
30.8829462 ,Left ,47.5744511119667 ,53.6093379518201 ,97.7574618814719
30.9055563 ,Left ,47.4774537538233 ,53.6257004184306 ,97.7129043305541
30.9206147 ,Left ,47.3915983382168 ,53.5936436703339 ,97.6463045838302
30.9443914 ,Left ,47.304333627079 ,53.5221489958094 ,97.5562923816116
30.9675752 ,Left ,47.3133309466522 ,53.4016053917055 ,97.4917065158591
30.9806115 ,Left ,47.3118624261527 ,53.2821633761236 ,97.4735323447723
31.0030083 ,Left ,47.2322375594786 ,53.1924097139261 ,97.4809201357046
31.0255476 ,Left ,47.100886825317 ,53.2118501437368 ,97.5179406699495
31.0406492 ,Left ,47.1256329123752 ,53.2399651152786 ,97.5513360266409
31.0630953 ,Left ,47.3976544649508 ,53.2104611474164 ,97.5915517271629
31.085602 ,Left ,47.6736765253691 ,53.1412902287405 ,97.6597565766439
31.1006791 ,Left ,47.6747206476374 ,53.1396996856623 ,97.7245956289022
31.1235645 ,Left ,47.5223929629293 ,53.1928705054226 ,97.808269777853
31.1460314 ,Left ,47.3846836881323 ,53.2303420416418 ,97.8688721897053
31.1604853 ,Left ,47.4044072245609 ,53.2032138594455 ,97.8321902250511
31.1828916 ,Left ,47.5511071740212 ,53.0864847097393 ,97.7789592786977
31.2055551 ,Left ,47.6860334268566 ,52.9778785903202 ,97.7896256867425
31.2203083 ,Left ,47.7454926817789 ,52.8852265609969 ,97.8458114088248
31.2437787 ,Left ,47.6361339331207 ,52.8931847754425 ,97.9169519000258
31.2653179 ,Left ,47.643142433128 ,52.9413282905236 ,97.9842763098235
31.2804512 ,Left ,47.8511896450523 ,52.9861317481626 ,98.0405711623926
31.3027648 ,Left ,48.0300283866853 ,53.0134346930902 ,98.1052257975498
31.3266187 ,Left ,48.031092947339 ,53.053754878255 ,98.1611025780592
31.3527162 ,Left ,47.9882336566968 ,53.0780105366198 ,98.1786316303117
31.3718995 ,Left ,48.0018908510965 ,53.0583720897123 ,98.1656843302239
31.41418 ,Left ,48.1023287620315 ,52.9446589371202 ,98.1383192757647
31.4242174 ,Left ,48.1225620034357 ,52.8804991170594 ,98.1639101352851
31.4454606 ,Left ,48.0877439152397 ,52.8275030514718 ,98.1953217479045
31.4604665 ,Left ,48.0485244004384 ,52.7741877936389 ,98.2226559698393
31.4829613 ,Left ,48.0136697768296 ,52.7303115510493 ,98.2399446189931
31.505466 ,Left ,48.0207293710104 ,52.7043440182893 ,98.2580478807212
31.5202927 ,Left ,48.0749286393449 ,52.691073551166 ,98.2872240359157
31.5431697 ,Left ,48.1153947681911 ,52.6952694213405 ,98.3276762802692
31.5655355 ,Left ,48.1131331023012 ,52.7056886388714 ,98.3758077497524
31.5806798 ,Left ,48.1078693199128 ,52.7171775431051 ,98.4116910447378
31.6029147 ,Left ,48.1148788918151 ,52.7364752886509 ,98.4365193063172
31.6254001 ,Left ,48.1502904178363 ,52.7676003603462 ,98.47860331496
31.6407406 ,Left ,48.1526514252052 ,52.8117351183949 ,98.5310366199335
31.6629786 ,Left ,48.1646275216202 ,52.8456552124051 ,98.5728415909406
31.685279 ,Left ,48.1951510528795 ,52.8717119254159 ,98.5994331557191
31.7003587 ,Left ,48.2248537727001 ,52.8853225229971 ,98.6113224313923
31.7230248 ,Left ,48.2414179907933 ,52.8934521918544 ,98.6045840533384
31.7456413 ,Left ,48.2244841109272 ,52.9041309569695 ,98.5965219847477
31.7605957 ,Left ,48.197401020296 ,52.9000594964706 ,98.5766095874427
31.7829181 ,Left ,48.192474007391 ,52.8711649325277 ,98.5506401131464
31.8056378 ,Left ,48.2005687513477 ,52.8332564449675 ,98.5320316436463
31.82791 ,Left ,48.1673606793838 ,52.7877466827077 ,98.5492484924889
31.8431248 ,Left ,48.1336448079181 ,52.748349731331 ,98.5665201513067
31.8654556 ,Left ,48.0443759054262 ,52.7079416680054 ,98.5728427366999
31.8881352 ,Left ,48.1073079953543 ,52.644745487545 ,98.5863602183177
31.9029466 ,Left ,48.1381947845968 ,52.6246405550979 ,98.5919825709594
31.9255132 ,Left ,48.0881377734131 ,52.67374074333 ,98.5611481313502
31.948035 ,Left ,48.064511623286 ,52.7403853217539 ,98.5099831686657
31.9630291 ,Left ,48.0676560885138 ,52.7908529085613 ,98.4659390649401
31.9853651 ,Left ,48.041346462559 ,52.8168893969265 ,98.4285024730628
32.0079961 ,Left ,47.9604429417409 ,52.8277667736333 ,98.406761969442
32.0229467 ,Left ,47.8677593162282 ,52.7924517041813 ,98.3772662191468
32.045629 ,Left ,47.7745324108602 ,52.742161603367 ,98.3313935454834
32.0678951 ,Left ,47.6863175717754 ,52.6967070246379 ,98.2995232998129
32.0828946 ,Left ,47.5987040839904 ,52.6489346003486 ,98.2933644595748
32.1053024 ,Left ,47.4386043548084 ,52.6144849833411 ,98.2744752092161
32.1279561 ,Left ,47.3417242070609 ,52.596459521039 ,98.2522358743217
32.1429829 ,Left ,47.3565540973958 ,52.6357010489569 ,98.2694899542946
32.1653663 ,Left ,47.4486546390763 ,52.6862019640291 ,98.2830756379728
32.1878288 ,Left ,47.5765183641436 ,52.7135792936619 ,98.3077760064938
32.2030452 ,Left ,47.6299551742929 ,52.7101605810782 ,98.3344553896589
32.2254905 ,Left ,47.5644977633118 ,52.7744908514344 ,98.3448713499222
32.2478834 ,Left ,47.4536072504958 ,52.8382559386015 ,98.372517177748
32.2629716 ,Left ,47.2867485928999 ,52.8494340738983 ,98.3343403192021
32.2854335 ,Left ,47.2957359160009 ,52.8207470196464 ,98.2652698798547
32.3090605 ,Left ,47.4567505414032 ,52.7684752779565 ,98.2769224623986
32.3304732 ,Left ,47.5065739255826 ,52.7661785018056 ,98.348008638658
32.3526999 ,Left ,47.4928363280419 ,52.8272787256094 ,98.3867879572767
32.3761802 ,Left ,47.5778638817856 ,52.8882630381842 ,98.3918575352579
32.3979805 ,Left ,47.674328914583 ,52.9590372627726 ,98.4190298666094
32.4129018 ,Left ,47.6379118564226 ,53.0597968556153 ,98.425114912301
32.4279565 ,Left ,47.5524450873589 ,53.1156386220459 ,98.4061646339963
32.4504716 ,Left ,47.5282703984601 ,53.0920291457325 ,98.3663383021594
32.4653479 ,Left ,47.5338488094891 ,53.0183884549949 ,98.320216307654
32.4878568 ,Left ,47.4971747614318 ,52.9285331300392 ,98.269061106728
32.5027762 ,Left ,47.5284863966263 ,52.8490106173951 ,98.2592697682179
32.5286936 ,Left ,47.4990023245199 ,52.8139385001314 ,98.2553970823722
32.5480229 ,Left ,47.3837202812835 ,52.8674899957961 ,98.2322877701565
32.5629114 ,Left ,47.424065271229 ,52.9294051868234 ,98.2227201788643
32.5852431 ,Left ,47.5717218202221 ,52.952542071869 ,98.2254647350133
32.6114752 ,Left ,47.6496490462156 ,52.9643142107688 ,98.2280718500648
32.6305882 ,Left ,47.6579517438645 ,53.0147821334169 ,98.2443515276299
32.6454122 ,Left ,47.6599581972708 ,53.0933332835843 ,98.2735891556022
32.6679818 ,Left ,47.6914439335881 ,53.1612364540309 ,98.2971864779322
32.6905116 ,Left ,47.7656423073391 ,53.206058304214 ,98.3013296810169
32.7053645 ,Left ,47.8356535162313 ,53.2323676037414 ,98.2930934445716
32.7203028 ,Left ,47.8311091953676 ,53.2548458218093 ,98.2810040084101
32.7654408 ,Left ,47.7348432139579 ,53.2743884602092 ,98.1987498047456
32.7877725 ,Left ,47.7212417251672 ,53.2722702144478 ,98.1448022590801
32.8029737 ,Left ,47.7424482416651 ,53.2625176177685 ,98.0988275803544
32.8180326 ,Left ,47.7436907892306 ,53.2614474490205 ,98.0536052010259
32.8409781 ,Left ,47.6994550718924 ,53.2680289331716 ,98.011080384703
32.855336 ,Left ,47.6504914093225 ,53.2800586034047 ,97.9658490104595
32.8779419 ,Left ,47.6235684478477 ,53.285091425774 ,97.9191751883752
32.9003578 ,Left ,47.5922391625181 ,53.2785412987462 ,97.8790210797696
32.9152825 ,Left ,47.5623587274562 ,53.2683970304728 ,97.8691536299785
32.9377394 ,Left ,47.545215502789 ,53.23776645649 ,97.8694719594492
32.967834 ,Left ,47.5106316439099 ,53.1915405339885 ,97.8817410351867
33.0053677 ,Left ,47.4680539636483 ,53.0997526412167 ,97.8968050298419
33.0204454 ,Left ,47.4239458952916 ,53.1164176323524 ,97.9181898021069
33.035304 ,Left ,47.30884220216 ,53.1359182072349 ,97.9005284915281
33.0579324 ,Left ,47.4227718616723 ,53.1130240846798 ,97.9245504076362
33.0803726 ,Left ,47.6489879664985 ,53.0392192812724 ,97.9752781873409
33.1179107 ,Left ,47.5009432583231 ,52.9601630194375 ,98.0279236168599
33.1409895 ,Left ,47.3624900955607 ,53.0139323741481 ,98.1112998670099
33.1779189 ,Left ,47.53943336751 ,52.9213788608031 ,98.0328424371778
33.2004155 ,Left ,47.6885758282191 ,52.8410737756982 ,98.0591910412629
33.2377518 ,Left ,47.6110033254374 ,52.7772736847262 ,98.2140275130573
33.2605008 ,Left ,47.6623460225979 ,52.8124780851122 ,98.2627621023266
33.3053675 ,Left ,47.903963936255 ,52.9452846919706 ,98.4166805752226
33.3602844 ,Left ,47.8496471232019 ,53.1445385277339 ,98.5693401924318
33.3878581 ,Left ,47.910124793119 ,53.1561470731667 ,98.5923773717785
33.4177977 ,Left ,47.976561167167 ,53.1361344112573 ,98.6766933881942
33.4469801 ,Left ,47.9955567943166 ,53.1259261817277 ,98.7243422932803
33.4778847 ,Left ,48.051610615457 ,53.093150188177 ,98.8007338003473
33.5003637 ,Left ,48.0702286658787 ,53.0813169394394 ,98.8247435089432
33.537835 ,Left ,48.1471470247944 ,53.0312056420974 ,98.829685093845
33.560418 ,Left ,48.1687003340056 ,53.0117815730462 ,98.8211457401367
33.5979028 ,Left ,48.2117886465993 ,52.9752438141117 ,98.8060842502112
33.6204917 ,Left ,48.23248827798 ,52.9546433352471 ,98.8093909246739
33.6578976 ,Left ,48.2574061660706 ,52.9522666287675 ,98.8236269995329
33.6806899 ,Left ,48.2961749990437 ,52.9422506623415 ,98.8355357958704
33.7177583 ,Left ,48.3131512842703 ,52.9385416929591 ,98.8685950909667
33.7405729 ,Left ,48.2881414224806 ,52.9590466741811 ,98.9022221725722
33.7777624 ,Left ,48.3414010323184 ,52.9899854793076 ,98.9408743564961
33.8003246 ,Left ,48.3734754615654 ,53.0172836491838 ,98.96010950653
33.8379942 ,Left ,48.3640448291249 ,53.0708644630265 ,98.9835313703522
33.8611891 ,Left ,48.369816410341 ,53.0888189847366 ,98.9889155490861
33.8980644 ,Left ,48.3536697886736 ,53.0971364442232 ,98.9673314744528
33.9205765 ,Left ,48.3174902392297 ,53.0797436534686 ,98.9510914909248
33.9583631 ,Left ,48.3008008315252 ,53.0317598268181 ,98.9012893662125
33.9804204 ,Left ,48.2631823268109 ,53.0205288015646 ,98.8925445648821
34.0179522 ,Left ,48.0222962572089 ,53.0426302810933 ,98.8577490122689
34.041588 ,Left ,47.9867321183226 ,53.0750758135298 ,98.8286361274596
34.078046 ,Left ,48.0952497226669 ,53.1338304417301 ,98.8043702466918
34.1080214 ,Left ,48.0658019603646 ,53.1839615434711 ,98.806067534821
34.1605378 ,Left ,47.8106068654882 ,53.336934699825 ,98.7178306128471
34.1980333 ,Left ,47.7122580673309 ,53.3013728797953 ,98.5883820546269
34.2352725 ,Left ,47.502883766903 ,53.1752920426819 ,98.5271919446349
34.2590688 ,Left ,47.5031275766321 ,53.0927281639063 ,98.5242970188444
34.2814911 ,Left ,47.586752013846 ,53.016084196891 ,98.556722665297
34.3268083 ,Left ,47.5734239721858 ,53.0404388768232 ,98.6315537990385
34.3778011 ,Left ,47.7442279753639 ,53.1861850591626 ,98.7257339143612
34.4002592 ,Left ,47.5484137754521 ,53.2223917598006 ,98.7438393878905
34.4378483 ,Left ,47.4696627404501 ,53.1376448327856 ,98.6426188920873
34.4612895 ,Left ,47.5724849422031 ,53.0895231717092 ,98.6863860304507
34.4977691 ,Left ,47.6039659794122 ,53.1035870471936 ,98.811937480058
34.527919 ,Left ,47.679925891504 ,53.2158182880184 ,98.9302167955841
34.5503996 ,Left ,47.6064935180005 ,53.2475235363659 ,98.9338581011671
34.5728936 ,Left ,47.5530367959523 ,53.2241590238485 ,98.9008017276924
34.5953885 ,Left ,47.5743135097069 ,53.1114284221719 ,98.8513807843554
34.6103958 ,Left ,47.5609749684006 ,53.0080720729841 ,98.8094303643869
34.6333346 ,Left ,47.536853171585 ,52.9581390813806 ,98.7798113498091
34.6552815 ,Left ,47.464193584791 ,52.9660579819187 ,98.7602696702655
34.6704717 ,Left ,47.4040309108969 ,53.0411927693467 ,98.7422113928124
34.6929222 ,Left ,47.4840355446374 ,53.1203461645965 ,98.7181087781422
34.7152744 ,Left ,47.6205058782139 ,53.1805248189635 ,98.7017768073314
34.7305901 ,Left ,47.6759372936314 ,53.232736256668 ,98.6936085051515
34.7603327 ,Left ,47.6502252334046 ,53.2769834429375 ,98.6933782922094
34.7831362 ,Left ,47.6393098426331 ,53.302890156381 ,98.6764700878504
34.7978537 ,Left ,47.6708816225156 ,53.3116288134852 ,98.6458262345717
34.81312 ,Left ,47.7138226570662 ,53.3105727381746 ,98.6074592981627
34.8354203 ,Left ,47.7359702112268 ,53.3174104640089 ,98.5799648148806
34.8504188 ,Left ,47.6942106036083 ,53.3219829898175 ,98.5571982678428
34.873011 ,Left ,47.6640903366391 ,53.3273878378269 ,98.536112473701
34.8955969 ,Left ,47.6735543991074 ,53.328330080536 ,98.5155441644253
34.9104656 ,Left ,47.6948570227085 ,53.3214836043523 ,98.4907528748024
34.9330634 ,Left ,47.6729495598852 ,53.3232155891688 ,98.4706917840429
34.9555924 ,Left ,47.6253218872382 ,53.326922600005 ,98.4671786397799
34.9704244 ,Left ,47.5510646678808 ,53.3267138621387 ,98.4512950745883
34.9929295 ,Left ,47.4865254062813 ,53.3159262255251 ,98.4471299402179
35.0156024 ,Left ,47.4249803021291 ,53.2734418016778 ,98.43641061863
35.0305573 ,Left ,47.2706263003132 ,53.2201170976224 ,98.4129356817971
35.053084 ,Left ,47.2787268088321 ,53.1578963937516 ,98.4173083412105
35.0755954 ,Left ,47.3240195751751 ,53.1306832983268 ,98.4223785568608
35.0908454 ,Left ,47.376885673227 ,53.14535917927 ,98.4305900070919
35.1130809 ,Left ,47.4696229895935 ,53.1579136899995 ,98.4429236486409
35.135392 ,Left ,47.5198618260999 ,53.1550747368591 ,98.4544690666732
35.1504579 ,Left ,47.5200004684606 ,53.1681948622681 ,98.5003298397365
35.1729364 ,Left ,47.4676502207134 ,53.1864033366144 ,98.5345958355962
35.1955404 ,Left ,47.411038215179 ,53.1826400715263 ,98.5151099502561
35.2104196 ,Left ,47.3820875336126 ,53.1544289956602 ,98.4677360181263
35.2330845 ,Left ,47.365233508069 ,53.082814489503 ,98.4152038108517
35.2553358 ,Left ,47.3708438506908 ,52.9731002832326 ,98.38822400023
35.277856 ,Left ,47.4615931316785 ,52.8712886022813 ,98.4155821976396
35.2930953 ,Left ,47.5274954026849 ,52.8181196788752 ,98.4809135993864
35.3154152 ,Left ,47.5556872410083 ,52.8205831850308 ,98.5536606229914
35.3378465 ,Left ,47.6581632102352 ,52.8326077628946 ,98.6113042871726
35.3529538 ,Left ,47.8072097702608 ,52.8453674572852 ,98.6630992481822
35.375388 ,Left ,47.9126955201291 ,52.8626165947496 ,98.69116407396
35.4052587 ,Left ,47.944028899829 ,52.8383505237379 ,98.6587190537829
35.4204191 ,Left ,47.8973297101709 ,52.7725227397529 ,98.6041520255088
35.4582803 ,Left ,47.7284888271267 ,52.5857532106821 ,98.5112530758079
35.4729238 ,Left ,47.6500679712345 ,52.512097864452 ,98.4847277389899
35.4988623 ,Left ,47.6070631287496 ,52.4689117380722 ,98.4806742808806
35.5177733 ,Left ,47.60509764978 ,52.4542606418442 ,98.4954254955207
35.5328421 ,Left ,47.6573652300458 ,52.4577777693375 ,98.514962799998
35.5553424 ,Left ,47.6981575748016 ,52.4752311536617 ,98.5461281892734
35.5778614 ,Left ,47.6734043229812 ,52.5097259849341 ,98.5768404952771
35.5936291 ,Left ,47.6337688473104 ,52.5628524124125 ,98.6026804170189
35.6153545 ,Left ,47.6274921046261 ,52.611178277726 ,98.6256755079137
35.6377582 ,Left ,47.6664329378441 ,52.6453274312986 ,98.644156700796
35.6528083 ,Left ,47.7025486689837 ,52.6634795000316 ,98.6632509049463
35.6765637 ,Left ,47.687394787133 ,52.6690668144503 ,98.6948131456415
35.7055795 ,Left ,47.6760124946651 ,52.6600893178442 ,98.7395613798316
35.7203945 ,Left ,47.6747565474165 ,52.6619401875564 ,98.7941239184404
35.7585817 ,Left ,47.6650859269478 ,52.6644512039798 ,98.8633384247045
35.7727906 ,Left ,47.7038522020691 ,52.648982576622 ,98.8758655939275
35.7953536 ,Left ,47.7453788145515 ,52.6117526851069 ,98.8860572739704
35.8177892 ,Left ,47.7550561344225 ,52.5670408488246 ,98.8862173427649
35.8328629 ,Left ,47.7485310861558 ,52.5192323332571 ,98.8773392946398
35.8553166 ,Left ,47.7417879678822 ,52.4674156888266 ,98.8650754983517
35.8781209 ,Left ,47.7393241353455 ,52.4159922313116 ,98.85701310867
35.894451 ,Left ,47.7340866325911 ,52.3676049243775 ,98.8386098568027
35.9154654 ,Left ,47.7451232274787 ,52.3511632856114 ,98.8212050550214
35.9377682 ,Left ,47.7506076183757 ,52.3694658500281 ,98.8006956452552
35.9603313 ,Left ,47.7133046932438 ,52.4499690410951 ,98.7938562905046
35.9827094 ,Left ,47.6746327896549 ,52.5410117412448 ,98.7994292871541
36.0052187 ,Left ,47.5861681231992 ,52.6256205166934 ,98.7912249787605
36.0202471 ,Left ,47.5416545826858 ,52.6760348565584 ,98.7774796487807
36.0355441 ,Left ,47.5623841437792 ,52.7066547660922 ,98.7847635113698
36.0579754 ,Left ,47.5905765407198 ,52.7352788545113 ,98.7633353319915
36.0729696 ,Left ,47.5626074678257 ,52.7728066479946 ,98.7538729410044
36.1005315 ,Left ,47.4834914821356 ,52.7756074903199 ,98.7465608618407
36.1178357 ,Left ,47.4205915682795 ,52.7428357520714 ,98.7044291437205
36.1329426 ,Left ,47.3960939663814 ,52.6879691450323 ,98.6639685084053
36.1552724 ,Left ,47.2938812895575 ,52.6590362467912 ,98.6653479440225
36.1787119 ,Left ,47.1158108379097 ,52.6197276751798 ,98.6672177956435
36.2001702 ,Left ,46.9581179900596 ,52.5941578300209 ,98.6403710710562
36.2155342 ,Left ,46.9861923529255 ,52.5814802213494 ,98.6187278085778
36.2377747 ,Left ,47.0602913721184 ,52.5960042978991 ,98.6214305865731
36.2610381 ,Left ,47.1174740156641 ,52.6091502709085 ,98.6350885487032
36.2764793 ,Left ,47.170506340823 ,52.613126757454 ,98.6606331370776
36.2990858 ,Left ,47.2537495328744 ,52.602902937096 ,98.6903759403056
36.3134406 ,Left ,47.3026666956328 ,52.6149931811165 ,98.697487865669
36.3354036 ,Left ,47.3523566625832 ,52.6254212057319 ,98.7103932361562
36.3579591 ,Left ,47.3707992080491 ,52.668229760488 ,98.7222121661721
36.3727495 ,Left ,47.3838397825375 ,52.7189462765757 ,98.7403363518255
36.3953561 ,Left ,47.3525563531177 ,52.7652153588186 ,98.7433799539987
36.4178974 ,Left ,47.3414920155162 ,52.7776610389941 ,98.756895749
36.4328189 ,Left ,47.3358263142062 ,52.7591192620296 ,98.7717583840498
36.4552798 ,Left ,47.3112744476763 ,52.7181394584433 ,98.7829657345781
36.4778627 ,Left ,47.2990141618251 ,52.6475969258141 ,98.7862849944374
36.4946742 ,Left ,47.3390103378259 ,52.5511565165666 ,98.7901404354838
36.5153031 ,Left ,47.3540955622511 ,52.5000190822188 ,98.7803035930264
36.5377793 ,Left ,47.2619566357428 ,52.5008551682387 ,98.7785273143848
36.5603398 ,Left ,47.1024653485912 ,52.5007638035317 ,98.7674391922953
36.5754617 ,Left ,47.0157779278147 ,52.52773177837 ,98.7282178075919
36.5978785 ,Left ,46.9942884830072 ,52.5864853609234 ,98.7146667984532
36.6204352 ,Left ,47.0121173748311 ,52.6823180363384 ,98.7481267707486
36.6352905 ,Left ,47.112621819677 ,52.7499613783422 ,98.7682119051605
36.6580353 ,Left ,47.2630578586364 ,52.785109714354 ,98.8041636986135
36.6802818 ,Left ,47.3400086353412 ,52.7938418220663 ,98.8357652872523
36.6953867 ,Left ,47.2777161900989 ,52.8430826812532 ,98.8844718828654
36.7179501 ,Left ,47.2223122833347 ,52.8976277567427 ,98.9449119833787
36.7469381 ,Left ,47.2197810831882 ,52.9253034613444 ,98.9715563979662
36.7553116 ,Left ,47.3296356373196 ,52.9074439986545 ,98.9853456878732
36.7779724 ,Left ,47.4118314449143 ,52.8767026406346 ,99.015457927328
36.8113442 ,Left ,47.3276957035771 ,52.8597937283499 ,99.0500456528224
36.822697 ,Left ,47.2737298509519 ,52.8289788936697 ,99.0694607124091
36.8604079 ,Left ,47.3459468554327 ,52.688227290262 ,99.0529795122817
36.8774834 ,Left ,47.2764822040991 ,52.6894160185643 ,99.040756169136
36.8979207 ,Left ,47.1033139137632 ,52.7110024632729 ,99.0628266242846
36.9204452 ,Left ,46.8418630899275 ,52.7714669412229 ,99.0356130356374
36.9428528 ,Left ,46.8187800302029 ,52.826276494707 ,98.9789157526233
36.9662557 ,Left ,46.9776650220922 ,52.9060284490855 ,98.9524516227976
36.9877478 ,Left ,47.1097578853925 ,52.9798002960023 ,98.9304665058961
37.0026635 ,Left ,47.1465635788859 ,53.0400656772165 ,98.9128483105759
37.017842 ,Left ,47.0872199511435 ,53.0809640953871 ,98.9049798799631
37.0404391 ,Left ,47.0432242025377 ,53.0893333173677 ,98.8800840948673
37.0627347 ,Left ,47.0723159972365 ,53.0758987771088 ,98.8312763245115
37.0778608 ,Left ,47.155244981649 ,53.0652291696176 ,98.7936264378484
37.1003433 ,Left ,47.1905978391002 ,53.0586651589141 ,98.7724111940462
37.1289673 ,Left ,47.1937810710021 ,53.063974411441 ,98.7661425001833
37.1378904 ,Left ,47.20017223729 ,53.0710624900918 ,98.7761796873209
37.1611335 ,Left ,47.2562554125169 ,53.0716240728201 ,98.7874749597292
37.1761879 ,Left ,47.3229994858273 ,53.0713215329346 ,98.807864678999
37.19808 ,Left ,47.3743280443441 ,53.0688559472504 ,98.8309531306188
37.2203221 ,Left ,47.41567634154 ,53.0554356570765 ,98.8458742430416
37.235355 ,Left ,47.423298123389 ,53.0490132721911 ,98.8609296658382
37.2652719 ,Left ,47.4162358639039 ,53.0474422996628 ,98.8682248091485
37.2878017 ,Left ,47.4042421212728 ,53.0449990538123 ,98.8653899378991
37.3047153 ,Left ,47.3890197739728 ,53.0511522396244 ,98.8513764223848
37.3317152 ,Left ,47.3938567876295 ,53.0565897780216 ,98.8436000695308
37.347773 ,Left ,47.4083717811239 ,53.0541960280184 ,98.8316566659836
37.3628937 ,Left ,47.4237749479479 ,53.0589216255281 ,98.8112166219142
37.3847876 ,Left ,47.4195295339974 ,53.0935050189934 ,98.8039256723439
37.4003714 ,Left ,47.397004490647 ,53.1290246532499 ,98.790733703753
37.4153538 ,Left ,47.3660762727052 ,53.1639888984278 ,98.7728601681673
37.4377832 ,Left ,47.360077974546 ,53.1681611120545 ,98.7541694557457
37.4616672 ,Left ,47.2935678961697 ,53.114820330877 ,98.7501534507568
37.4827704 ,Left ,47.1824443449439 ,53.0832898734755 ,98.7418790725927
37.4979054 ,Left ,46.9849555718347 ,53.036390898803 ,98.7246278482861
37.5205159 ,Left ,47.053818496353 ,52.9415307144532 ,98.7384530211216
37.5448612 ,Left ,47.0799924829772 ,52.8855234889869 ,98.7385701940523
37.5592441 ,Left ,46.989012239527 ,52.8817876711477 ,98.7284191572183
37.5805193 ,Left ,47.0507225885069 ,52.8661908054244 ,98.7514612477463
37.6027038 ,Left ,47.1443849721861 ,52.8191698830786 ,98.7645116928977
37.6179564 ,Left ,47.1287496816408 ,52.8249259887102 ,98.7901048293246
37.6401823 ,Left ,47.0526023826475 ,52.8635905541906 ,98.8321259591181
37.6629466 ,Left ,46.9277538594124 ,52.8976453603246 ,98.8347470262787
37.6779705 ,Left ,46.9205082830931 ,52.8691071706848 ,98.8054212489201
37.7003358 ,Left ,46.9787746398512 ,52.7595277263676 ,98.7885706302178
37.7229089 ,Left ,47.0977395417681 ,52.6763227973506 ,98.8051840270352
37.7382093 ,Left ,47.1464455012391 ,52.6693334465662 ,98.8433816110651
37.7604134 ,Left ,47.0878494321477 ,52.7557184734003 ,98.8867868877315
37.7904655 ,Left ,47.1770676091155 ,52.8208491755007 ,98.9085413822967
