timestamp,event,roll,pitch,yaw
0.0312463 ,Left ,56,8294464912776 ,43,5714728272913 ,19,2053190424485
0.0542767 ,Left ,56,8294464912776 ,43,5714728272913 ,19,2053190424485
0.0690185 ,Left ,56,833156046267 ,43,5729702456981 ,19,2006509706881
0.09172 ,Left ,56,8384228530265 ,43,5721401737102 ,19,1914626235986
0.114164 ,Left ,56,8451139274266 ,43,5701815586073 ,19,1837018871342
0.1292356 ,Left ,56,8419946916657 ,43,5614848002245 ,19,1809035830768
0.1518191 ,Left ,56,84191155828 ,43,5608858873522 ,19,1814809630727
0.1744795 ,Left ,56,8537592403156 ,43,5631531402778 ,19,1726271730442
0.18912 ,Left ,56,8678984813455 ,43,5647108694232 ,19,1665678706978
0.2116507 ,Left ,56,8689311635225 ,43,5663259271683 ,19,1667828815528
0.2340751 ,Left ,56,8709001552216 ,43,5651056763908 ,19,1656301580989
0.2492388 ,Left ,56,8764548157023 ,43,5704352249305 ,19,1679154715028
0.2716785 ,Left ,56,8929647503617 ,43,564673723044 ,19,1707976390543
0.2942371 ,Left ,56,896806148541 ,43,5318255188087 ,19,2096269920406
0.3093153 ,Left ,56,8542954173604 ,43,4789206605593 ,19,2958304665649
0.3319246 ,Left ,56,8102015648826 ,43,4344772682418 ,19,4095355028541
0.3541529 ,Left ,56,7680308812943 ,43,4088801711247 ,19,5630824135511
0.3693712 ,Left ,56,7375199550378 ,43,3997009478141 ,19,7547228671715
0.3914522 ,Left ,56,7118008293761 ,43,3883645507475 ,19,9707071998975
0.4139903 ,Left ,56,694633036043 ,43,3632181358015 ,20,1982566025
0.4367103 ,Left ,56,6672415896246 ,43,3416283240579 ,20,4062979482843
0.451884 ,Left ,56,6293074244693 ,43,3071242395379 ,20,5899092231975
0.4743648 ,Left ,56,6082197449035 ,43,2675505010434 ,20,7306012198424
0.4892043 ,Left ,56,6151174813654 ,43,2139698027801 ,20,8310684302708
0.5118949 ,Left ,56,5948419736345 ,43,1651549211021 ,20,8782007253401
0.5343488 ,Left ,56,5782391386727 ,43,1159822128795 ,20,887429742999
0.5567053 ,Left ,56,5619181864518 ,43,0815169928587 ,20,8667836368915
0.5719723 ,Left ,56,5641565770656 ,43,0672473977116 ,20,8272659443388
0.5940067 ,Left ,56,5751662534642 ,43,0610531140998 ,20,7874201040536
0.6092044 ,Left ,56,5913621627443 ,43,0503918161224 ,20,746955623036
0.6318677 ,Left ,56,6201617058325 ,43,0357210474313 ,20,7111499971823
0.6542138 ,Left ,56,6411704529184 ,43,0162212570569 ,20,6879585322384
0.6693467 ,Left ,56,6444368795957 ,42,993313132726 ,20,6628496304097
0.6916909 ,Left ,56,6399786231418 ,42,9782554401111 ,20,6454485900459
0.7143278 ,Left ,56,6421683008296 ,42,9625119425409 ,20,6368364562987
0.7293653 ,Left ,56,6490068963219 ,42,949659418786 ,20,6305893885808
0.7518932 ,Left ,56,650097603913 ,42,9439769355613 ,20,630461230097
0.7741537 ,Left ,56,6489797228657 ,42,9423998140137 ,20,6302914725981
0.796607 ,Left ,56,6604064777432 ,42,9532535924827 ,20,6172237592092
0.811771 ,Left ,56,6513856574032 ,42,9541828493617 ,20,6063700646123
0.8348456 ,Left ,56,6498089624494 ,42,9584579395636 ,20,5926939310353
0.8567167 ,Left ,56,6630271086795 ,42,9597735957273 ,20,5679857049246
0.8717265 ,Left ,56,6613942704743 ,42,9517724500287 ,20,5460140776394
0.8942114 ,Left ,56,6823204539118 ,42,9417606215074 ,20,5219764856392
0.9165552 ,Left ,56,7332955867898 ,42,9258943918123 ,20,4926409200615
0.9317117 ,Left ,56,7553221559155 ,42,8991468793303 ,20,4659107921565
0.9544755 ,Left ,56,7836045974477 ,42,8574711246983 ,20,4260194639946
0.9766162 ,Left ,56,7165497574155 ,42,7878187456836 ,20,4300413380751
0.9914215 ,Left ,56,6687081810092 ,42,7721354652936 ,20,3917101668373
1.0142298 ,Left ,56,5269632945486 ,42,7340993077166 ,20,403255932742
1.0366946 ,Left ,56,47637237533 ,42,7174228198112 ,20,4262748510423
1.0516593 ,Left ,56,6394750733084 ,42,8053759028881 ,20,3962029587295
1.0740097 ,Left ,56,7575335778837 ,42,8385210329874 ,20,3785300777346
1.097239 ,Left ,56,8821192082484 ,42,8101843687425 ,20,2995758137149
1.1120413 ,Left ,56,9154062767507 ,42,7745512042091 ,20,1824939022781
1.1348041 ,Left ,56,8784588430851 ,42,7308890247639 ,20,0816401467526
1.1568445 ,Left ,56,8499487786626 ,42,6960159394297 ,19,9974799942918
1.1716056 ,Left ,56,8819466775454 ,42,6929776663276 ,19,9238048827445
1.194325 ,Left ,56,897628622548 ,42,7117393528792 ,19,8933946568874
1.2168265 ,Left ,56,9013194489991 ,42,751596163712 ,19,9022680572789
1.231861 ,Left ,56,9210244055024 ,42,7677088730462 ,19,9300074108275
1.253972 ,Left ,56,9272865590881 ,42,7438869973398 ,19,9694145226847
1.2763405 ,Left ,56,899647538198 ,42,6899159557009 ,20,0117179415837
1.2915241 ,Left ,56,8509463132722 ,42,6310661672882 ,20,0387579537788
1.3140054 ,Left ,56,8237229421634 ,42,560937189049 ,20,0266913687582
1.336676 ,Left ,56,7365774604891 ,42,4913547913782 ,20,0698403600341
1.3518403 ,Left ,56,6440747618101 ,42,6028014650575 ,20,1075752493915
1.3740912 ,Left ,56,5967714340263 ,42,8678535654587 ,20,0609386370273
1.3968618 ,Left ,56,7219556887666 ,43,0748291752922 ,20,0234634936885
1.4117266 ,Left ,56,9402251607528 ,43,1049401578315 ,20,010731764935
1.4340775 ,Left ,57,0050837474765 ,43,0406514490716 ,20,0015985206176
1.4566136 ,Left ,56,8997163978848 ,42,9707942450372 ,20,0223742548228
1.4714614 ,Left ,56,833931381003 ,42,9062874918934 ,20,0482608943286
1.4938596 ,Left ,56,8918685464698 ,42,7823732868137 ,20,039835627077
1.5162723 ,Left ,56,9201019426672 ,42,6511725810352 ,20,036263585151
1.5389907 ,Left ,56,8943160787343 ,42,4879835623089 ,20,0152821396054
1.5541964 ,Left ,56,6706707062782 ,42,4161767581497 ,20,0385770243814
1.5766277 ,Left ,56,4520291610183 ,42,5052606732261 ,20,0495853985966
1.5991484 ,Left ,56,4891030114377 ,42,652944845935 ,20,0366393867972
1.6143969 ,Left ,56,6446956980162 ,42,7297408608174 ,20,0406604786863
1.6368668 ,Left ,56,7713233723917 ,42,7433234521614 ,20,0498529023257
1.6594206 ,Left ,56,7669465864259 ,42,6981290699326 ,20,0684665417753
1.6742746 ,Left ,56,7016792455769 ,42,693305977654 ,20,0887275318274
1.696727 ,Left ,56,6964362393391 ,42,6730752390019 ,20,0748353910518
1.7191739 ,Left ,56,7361675532413 ,42,654964665842 ,20,0754802282519
1.7343811 ,Left ,56,7592897998037 ,42,6673549446015 ,20,0606732910254
1.7567657 ,Left ,56,7099014086581 ,42,6984739928923 ,20,064621191568
1.7789701 ,Left ,56,6964053657858 ,42,7240218958044 ,20,0682540951309
1.7940211 ,Left ,56,7186207791335 ,42,7340817371747 ,20,0751690693392
1.8165155 ,Left ,56,7350199655412 ,42,7429367438323 ,20,0777053962428
1.8391279 ,Left ,56,7159866687872 ,42,7606428150129 ,20,0760167314326
1.8540183 ,Left ,56,7116991595486 ,42,7821907181582 ,20,0639591100245
1.8767635 ,Left ,56,7025847145899 ,42,7931629446292 ,20,0408203448917
1.8993015 ,Left ,56,7046961055833 ,42,7796788444522 ,20,0266865455771
1.9141798 ,Left ,56,717816916193 ,42,7788393994212 ,20,0162005131268
1.9369265 ,Left ,56,7567811281875 ,42,7694058660572 ,20,0020907014603
1.9593292 ,Left ,56,8050965211799 ,42,7416660416977 ,20,0105241692153
1.9741286 ,Left ,56,8186021414407 ,42,7121941199156 ,20,1085806594829
1.9967663 ,Left ,56,8315280106985 ,42,6468756130035 ,20,1918337812467
2.0189025 ,Left ,56,8289306098235 ,42,5726580502987 ,20,2947924735364
2.0340719 ,Left ,56,8984566221354 ,42,616473276762 ,20,278816299731
2.056469 ,Left ,57,1206993427162 ,42,7795652574437 ,20,1592247770055
2.0791429 ,Left ,57,3240117586941 ,42,83690597427 ,20,0426927421389
2.0943545 ,Left ,57,336955153488 ,42,7868447130777 ,19,9947459756007
2.1165626 ,Left ,57,1955098359979 ,42,7425957287705 ,19,9499451692874
2.1389707 ,Left ,57,0833433365177 ,42,7473586530429 ,19,8763311736161
2.1541642 ,Left ,57,0638490188816 ,42,7685096736686 ,19,8018654713959
2.1843164 ,Left ,57,0299089972848 ,42,780042953453 ,19,7012993629419
2.2063667 ,Left ,56,9157503800434 ,42,8159799531296 ,19,6424227802556
2.2218198 ,Left ,56,8063646974998 ,42,871445387626 ,19,6038401826363
2.2443427 ,Left ,56,6710039670615 ,42,9162840650853 ,19,5741969554928
2.259354 ,Left ,56,6024381188658 ,42,950161439814 ,19,5253410293162
2.2742922 ,Left ,56,5431159423661 ,42,9146497978444 ,19,4878196577354
2.2966493 ,Left ,56,4918916145755 ,42,7686006005108 ,19,5293615327623
2.3193461 ,Left ,56,2785304863414 ,42,543357290976 ,19,6919588555174
2.333999 ,Left ,56,2904777811267 ,42,5357548278381 ,19,7286525904181
2.3565997 ,Left ,56,4010814519071 ,42,7028156330335 ,19,6363763976227
2.3790263 ,Left ,56,7041672558455 ,42,6820811739095 ,19,5881128578352
2.39465 ,Left ,56,9153378970499 ,42,4256589721762 ,19,5500447935987
2.4176137 ,Left ,56,8768104445024 ,42,1706789077866 ,19,4836397930123
2.4390226 ,Left ,56,7783130563822 ,42,082311662538 ,19,4349152138265
2.4618411 ,Left ,56,734689366566 ,42,1347860748427 ,19,3467988305669
2.4765524 ,Left ,56,7766573851758 ,42,0215806921665 ,19,3676241444795
2.4990017 ,Left ,56,8078128685421 ,41,8314283134152 ,19,490009798606
2.5220201 ,Left ,56,7252796287492 ,41,949314473327 ,19,5802714433675
2.5370328 ,Left ,56,6627896836392 ,42,3358387301105 ,19,463742949658
2.5597301 ,Left ,56,9412548203611 ,42,5425689118016 ,19,4718311451429
2.581837 ,Left ,57,2094436391938 ,42,4472875365723 ,19,5389475175716
2.5970885 ,Left ,57,1286186741887 ,42,2667605744976 ,19,5820836372506
2.6195971 ,Left ,56,8591585562343 ,42,1824427609099 ,19,6120667366817
2.6420174 ,Left ,56,6606173275761 ,42,1908130312297 ,19,6430743943033
2.6571243 ,Left ,56,692464808138 ,42,2086383586531 ,19,6296951318045
2.6795996 ,Left ,56,7878394074128 ,42,1747686726596 ,19,622538088342
2.7094193 ,Left ,56,782578505422 ,42,077581514533 ,19,7369547819164
2.7392675 ,Left ,56,7555720862437 ,42,0270960705827 ,19,7674537736566
2.7770513 ,Left ,56,7121957472013 ,41,9807743572409 ,19,7969072438438
2.791998 ,Left ,56,6774412723689 ,41,9749762997513 ,19,8153634313326
2.8295998 ,Left ,56,5656902050199 ,41,9616300403271 ,19,8889585177017
2.8594149 ,Left ,56,5543658972775 ,41,9691581117905 ,19,917826078771
2.8745069 ,Left ,56,5455384748126 ,41,9786387654608 ,19,9409635909556
2.8970105 ,Left ,56,5287301277261 ,41,9814459709734 ,19,9670522132316
2.9119377 ,Left ,56,5067950185592 ,41,9728283595784 ,19,9893170938906
2.9268346 ,Left ,56,4987587131065 ,41,9603835715915 ,20,0061948480362
2.9491427 ,Left ,56,4712632764215 ,41,9554036619249 ,20,0341884309749
2.9717557 ,Left ,56,435419398497 ,41,9687295064701 ,20,0585888606635
3.0093098 ,Left ,56,4386530500142 ,42,0062331702179 ,20,0804676186111
3.0317641 ,Left ,56,4433743418631 ,42,0166779904716 ,20,1024938762465
3.0691936 ,Left ,56,4297454338685 ,42,0260810372515 ,20,1433939450038
3.0915297 ,Left ,56,4225355527993 ,42,0441539569556 ,20,1559964619983
3.129138 ,Left ,56,424782973478 ,42,0813028658673 ,20,1574946564127
3.1519013 ,Left ,56,4129714096502 ,42,0877857627314 ,20,1636503720586
3.1891841 ,Left ,56,4389272337561 ,42,07235954364 ,20,1395346725836
3.2115844 ,Left ,56,4540308291744 ,42,060464979528 ,20,1200285522618
3.2491931 ,Left ,56,4485838634734 ,42,0620009791888 ,20,1073976774855
3.2715762 ,Left ,56,4716428946495 ,42,05132144285 ,20,1159607396322
3.3096186 ,Left ,56,4928891015416 ,42,0304540263135 ,20,1274120879616
3.3323303 ,Left ,56,487314404929 ,42,0240918314266 ,20,136397745464
3.3696722 ,Left ,56,490087537925 ,41,9882308309957 ,20,1678143315962
3.3918371 ,Left ,56,4844725471857 ,41,9857903657629 ,20,1790236190188
3.4294029 ,Left ,56,4714706814606 ,42,006554613743 ,20,1895728231683
3.4518978 ,Left ,56,4479170228355 ,42,0280688902545 ,20,2059504262567
3.4893455 ,Left ,56,4287671720477 ,42,0812838392722 ,20,2245399207114
3.5120085 ,Left ,56,4584977076404 ,42,0807192430545 ,20,2381345002947
3.5491909 ,Left ,56,4650954713623 ,42,0303054679524 ,20,2862793840147
3.5717426 ,Left ,56,4688264695784 ,42,0113571723915 ,20,2968931395239
3.6090448 ,Left ,56,4640053470072 ,42,0191553410136 ,20,2933180738509
3.6318441 ,Left ,56,4630793453587 ,42,0221188503445 ,20,2948421464149
3.669371 ,Left ,56,4555940458441 ,42,0248681692383 ,20,2879611889353
3.6918312 ,Left ,56,4588662816302 ,42,0258194319461 ,20,286354276663
3.7294517 ,Left ,56,4327140931468 ,42,0266580477605 ,20,2905901834736
3.7519868 ,Left ,56,4184112331731 ,42,0329249312767 ,20,2908545335508
3.7890386 ,Left ,56,4489254304719 ,42,0383823464771 ,20,291743980122
3.8117592 ,Left ,56,4543836113176 ,42,0423756936798 ,20,29485507346
3.8492368 ,Left ,56,4589170165478 ,42,0495318641582 ,20,2951588719001
3.8716219 ,Left ,56,4646729804629 ,42,0563408090829 ,20,2900363734185
3.9089704 ,Left ,56,4742127371942 ,42,077639006367 ,20,2927732012647
3.9316212 ,Left ,56,4454796818672 ,42,0934304151834 ,20,2959227699292
3.9691502 ,Left ,56,4110738027662 ,42,110244359518 ,20,3084703797584
3.9920566 ,Left ,56,3702003690052 ,42,0868659284386 ,20,3360524365685
4.0292449 ,Left ,56,2810961382542 ,42,1006900840957 ,20,3187765953925
4.0516923 ,Left ,56,1490125442097 ,42,0933413912366 ,20,3446855841511
4.0891402 ,Left ,56,1301670109585 ,42,2511482706563 ,20,3489704614784
4.112063 ,Left ,56,224854341836 ,42,3096753066654 ,20,3262557837225
4.1494157 ,Left ,56,3743554751117 ,42,277684321949 ,20,2158854626688
4.1721313 ,Left ,56,4215891199832 ,42,1688549994274 ,20,1305896557813
4.2094341 ,Left ,56,2783550304274 ,41,8985639247709 ,20,1691457460518
4.231947 ,Left ,56,1040974793599 ,41,8799946829918 ,20,3188882030074
4.2769664 ,Left ,56,316797451289 ,42,1175064836713 ,20,4009529480389
4.3295992 ,Left ,56,7460890292461 ,42,268122605278 ,20,3476620795231
4.3521129 ,Left ,56,6344580645696 ,42,280967886405 ,20,390568824943
4.3894909 ,Left ,56,6162774421836 ,42,3415984766054 ,20,3978748820613
4.4045265 ,Left ,56,5982272147949 ,42,3413540777341 ,20,3946143366005
4.4495762 ,Left ,56,3404133657818 ,42,2714043947593 ,20,4495936977226
4.4721923 ,Left ,56,1248945343775 ,42,1398839857652 ,20,5551174391268
4.5092351 ,Left ,56,1501130599476 ,42,3380646019425 ,20,5908358887548
4.5319967 ,Left ,56,30956429928 ,42,5124717055936 ,20,5327943268689
4.546924 ,Left ,56,4935996867755 ,42,4984483194794 ,20,5199831412824
4.5618374 ,Left ,56,5129290154112 ,42,4536118210296 ,20,5654739447822
4.5841778 ,Left ,56,3947143704099 ,42,4978368902805 ,20,5547226219668
4.6067135 ,Left ,56,2038978829998 ,42,482048977949 ,20,5492489824312
4.6217123 ,Left ,56,0344777988672 ,42,4421522464149 ,20,6323176508381
4.6443496 ,Left ,55,9473910751506 ,42,6892689179159 ,20,6560817375373
4.6666306 ,Left ,55,8774491459338 ,43,1585009115345 ,20,6108463229421
4.6816051 ,Left ,56,2821129342768 ,43,3401461729169 ,20,56048527208
4.7041587 ,Left ,56,6103478048091 ,43,223116547829 ,20,5303363556212
4.7265216 ,Left ,56,6057894319019 ,43,0797296145011 ,20,4527323200165
4.7418627 ,Left ,56,3697815465026 ,43,0003882572198 ,20,4071077970714
4.7641104 ,Left ,56,2498408612757 ,42,9684507554792 ,20,3352277455674
4.786635 ,Left ,56,3667438913884 ,42,9261264714396 ,20,2250046540163
4.8016847 ,Left ,56,4525875182023 ,42,8654217828684 ,20,145293160758
4.8242147 ,Left ,56,4091030646626 ,42,827666194452 ,20,0964103509601
4.8465294 ,Left ,56,3537132411548 ,42,7308127900535 ,20,0622862448834
4.8616886 ,Left ,56,4043313439919 ,42,5899768007715 ,20,0498212113723
4.8841618 ,Left ,56,4869321433883 ,42,4821424573131 ,20,0297370906777
4.9064985 ,Left ,56,4859888947672 ,42,4281783379084 ,20,0040868316449
4.9293448 ,Left ,56,4209833062801 ,42,4136265181202 ,19,9987794579604
4.9516516 ,Left ,56,4047845737977 ,42,4091199108785 ,19,9978675701352
4.9815635 ,Left ,56,3786216648998 ,42,3810819315549 ,20,013479370886
5.0043435 ,Left ,56,3387748146894 ,42,3709772286104 ,20,0240647036171
5.0268268 ,Left ,56,3257856490463 ,42,3515954807404 ,20,0173112447645
5.0418188 ,Left ,56,3047456980524 ,42,3191299284134 ,20,0018753807938
5.0644315 ,Left ,56,2675425513304 ,42,3096913759291 ,19,9962843603932
5.0867489 ,Left ,56,215440798217 ,42,3335368279834 ,20,0000586709537
5.1018375 ,Left ,56,2164697293246 ,42,3564712845108 ,19,9949083684318
5.1241396 ,Left ,56,2303210872307 ,42,3611840180025 ,19,9937412583009
5.1691416 ,Left ,56,203503955144 ,42,4054561883327 ,19,9736832607278
5.2064789 ,Left ,56,2352825308585 ,42,4403404661756 ,19,9045654361332
5.229078 ,Left ,56,3097303283633 ,42,2908540913098 ,19,8683945722114
5.2669153 ,Left ,56,2539930859894 ,42,3665311883219 ,19,8771412898648
5.2891711 ,Left ,56,2457391864069 ,42,2423951984414 ,19,8587667622782
5.3265581 ,Left ,56,3058350792444 ,42,2330295417901 ,19,8433640121952
5.3491709 ,Left ,56,2898366719142 ,42,3377440500328 ,19,8685154821355
5.3941581 ,Left ,56,2001651498119 ,42,4295194435035 ,19,8930368160462
5.416602 ,Left ,56,2078683016866 ,42,4256593723883 ,19,8941326476208
5.4695217 ,Left ,56,2585689294765 ,42,3640995327421 ,19,8936971328801
5.5069852 ,Left ,56,2319760348423 ,42,3601567708821 ,19,898367596695
5.5294637 ,Left ,56,2612578841696 ,42,5018225438614 ,19,8633791335526
5.5442503 ,Left ,56,2509655510881 ,42,4992029402312 ,19,8178650714129
5.5594407 ,Left ,56,230020342891 ,42,5396835572083 ,19,815569251683
5.5819455 ,Left ,56,2201953206845 ,42,5760045326235 ,19,8022408796487
5.6044485 ,Left ,56,209116116464 ,42,5943278967947 ,19,7805812987574
5.6192573 ,Left ,56,1975057267957 ,42,6027564962441 ,19,7740089782758
5.6421046 ,Left ,56,1828869031886 ,42,6325774105667 ,19,7668618163017
5.6645756 ,Left ,56,1869528602144 ,42,6484937992118 ,19,7557180505095
5.6794729 ,Left ,56,1902008327757 ,42,6296940188036 ,19,7523593826074
5.7019052 ,Left ,56,1749745878333 ,42,6240286585974 ,19,7553081963872
5.7244428 ,Left ,56,1348604056493 ,42,6290248215146 ,19,7547579150557
5.7395097 ,Left ,56,1316276960542 ,42,6380464710761 ,19,7438032326221
5.761913 ,Left ,56,1633806516469 ,42,6464772797176 ,19,7204830271611
5.7842141 ,Left ,56,1760133614279 ,42,6478208895527 ,19,7048276692712
5.7992069 ,Left ,56,1526404159942 ,42,6519821054413 ,19,7079512178604
5.8218546 ,Left ,56,1278798282801 ,42,6611925795765 ,19,7117315890299
5.8441105 ,Left ,56,1248505588959 ,42,6647752231741 ,19,7148801111391
5.8591575 ,Left ,56,1095264090602 ,42,7058897373133 ,19,7126638484422
5.8817688 ,Left ,56,0954541731526 ,42,666177904601 ,19,7322925702421
5.9040673 ,Left ,55,8175047580871 ,42,6411450701403 ,19,8799118805555
5.9266315 ,Left ,55,6221149880652 ,42,8363457421582 ,19,9020783840083
5.9417571 ,Left ,55,7394920021903 ,43,101199451273 ,19,8646360608995
5.9641005 ,Left ,56,1330538438133 ,43,120955272415 ,19,8126133692935
5.9793293 ,Left ,56,3186045986778 ,42,9661120876902 ,19,7597541752023
6.0018817 ,Left ,56,1838761765212 ,42,7736448612674 ,19,6942065135894
6.0239814 ,Left ,56,0203261558488 ,42,6001216635525 ,19,6700702227159
6.0464853 ,Left ,56,0085146168283 ,42,5413853756091 ,19,6204505304413
6.0688673 ,Left ,56,1532776473984 ,42,4948441216507 ,19,5566396676174
6.0916447 ,Left ,56,259191279087 ,42,452564860838 ,19,5310772560211
6.1065144 ,Left ,56,2375264046047 ,42,4547873599234 ,19,5292069031265
6.1291004 ,Left ,56,2031822850932 ,42,4477066628177 ,19,5387440796086
6.1517868 ,Left ,56,1939343552184 ,42,4136030298427 ,19,5522618121844
6.1743959 ,Left ,56,2225116834507 ,42,3716853866195 ,19,5502154916072
6.1967473 ,Left ,56,2034508886171 ,42,3240115998696 ,19,5724162252287
6.2115604 ,Left ,56,143492922069 ,42,3308774620996 ,19,5906555136972
6.2265252 ,Left ,56,0901323265059 ,42,2537689058407 ,19,6019629122204
6.2491508 ,Left ,55,9934690279171 ,42,0558544699659 ,19,6856376994246
6.2717476 ,Left ,56,0468004819389 ,42,0451391769968 ,19,7862556062253
6.2865668 ,Left ,56,121019370371 ,42,3436373316114 ,19,7609122527717
6.3090215 ,Left ,56,4734272728812 ,42,6272660738287 ,19,6652747268831
6.3315223 ,Left ,56,7216282873498 ,42,664701876935 ,19,6398844845303
6.3542303 ,Left ,56,7178215963801 ,42,5735165786304 ,19,6844066117404
6.3767358 ,Left ,56,5488092237635 ,42,5018374485168 ,19,690179311791
6.4067577 ,Left ,56,4170208612826 ,42,485215934543 ,19,6443925538556
6.4288549 ,Left ,56,453926010386 ,42,4576439203713 ,19,6056284356414
6.4515033 ,Left ,56,394888737429 ,42,3913565244911 ,19,6143328421177
6.4665274 ,Left ,56,3276590496579 ,42,297809178008 ,19,6686799996567
6.4889589 ,Left ,56,2814891097461 ,42,2047226936854 ,19,7190850485022
6.5115398 ,Left ,56,2559828036989 ,42,1212028382639 ,19,7388120353224
6.5264861 ,Left ,56,2743664038405 ,42,0902081158685 ,19,7333827520821
6.5492312 ,Left ,56,2595225566597 ,42,0838216890819 ,19,729870122982
6.5719005 ,Left ,56,2022001785144 ,42,0873288172685 ,19,750114504814
6.5867833 ,Left ,56,2000897700265 ,42,1010548544098 ,19,7620927984456
6.6091996 ,Left ,56,1998127311165 ,42,0888832392149 ,19,782355805839
6.6316799 ,Left ,56,2033036732666 ,42,0840242164373 ,19,8101023543667
6.646696 ,Left ,56,2140507016753 ,42,0788903030218 ,19,8262995040306
6.6688637 ,Left ,56,2053345018634 ,42,0621889394921 ,19,8443208777808
6.6917411 ,Left ,56,2366949089692 ,42,0659534271769 ,19,8436894220376
6.7065577 ,Left ,56,2404462087784 ,42,066212107356 ,19,8354203266021
6.728996 ,Left ,56,2093198050781 ,42,0675839111217 ,19,8417155921313
6.7515175 ,Left ,56,208731546797 ,42,0956864077151 ,19,8375890333756
6.7667199 ,Left ,56,1996408672879 ,42,1092327471833 ,19,8391234919482
6.7889387 ,Left ,56,2056216012014 ,42,1118145545695 ,19,8470431029881
6.8041102 ,Left ,56,2135281647599 ,42,1250427665749 ,19,8558601933008
6.8267177 ,Left ,56,2006858634142 ,42,1258370466401 ,19,8594948763361
6.8415991 ,Left ,56,2215372447755 ,42,1293128988155 ,19,838879650167
6.864045 ,Left ,56,2545593997247 ,42,1206330789552 ,19,836984632706
6.8866803 ,Left ,56,2763583171662 ,42,1166095477983 ,19,8502333989208
6.9016993 ,Left ,56,2826470622997 ,42,1147306785015 ,19,8755769831906
6.9239427 ,Left ,56,2525231782074 ,42,1241630377024 ,19,8982897641401
6.9466194 ,Left ,56,2574656301774 ,42,1430226203461 ,19,9025349535622
6.9615445 ,Left ,56,2751046167904 ,42,1190066169686 ,19,9200552491751
6.9841344 ,Left ,56,2806420862572 ,42,0757429309424 ,19,9318420761707
7.0069036 ,Left ,56,2797522981458 ,42,0307569532498 ,19,9378855820935
7.0221891 ,Left ,56,2836508448656 ,41,9875096920637 ,19,9402632389421
7.0443406 ,Left ,56,2975739246956 ,41,9562454068827 ,19,9456135016353
7.0668429 ,Left ,56,315781458832 ,41,9358384441254 ,19,9623653844152
7.082165 ,Left ,56,3304481067357 ,41,9298564700454 ,19,9812906388475
7.1046542 ,Left ,56,3390880474744 ,41,9238851861878 ,20,0019168659375
7.1270078 ,Left ,56,3400384866646 ,41,9237773237142 ,20,0183108764373
7.142179 ,Left ,56,3297828421231 ,41,9342083904101 ,20,0316084175724
7.1644757 ,Left ,56,3042473965788 ,41,9510474989401 ,20,0414833648806
7.1869685 ,Left ,56,2937255908956 ,41,9738842684407 ,20,0418138766024
7.2018726 ,Left ,56,2978675557294 ,41,9742584864812 ,20,0526465514355
7.239094 ,Left ,56,283060751374 ,41,9634116421743 ,20,0711411546452
7.2616224 ,Left ,56,260355546178 ,41,9560303312596 ,20,084860049483
7.3065296 ,Left ,56,3741826491899 ,42,101563637383 ,20,0587629582929
7.329317 ,Left ,56,3387475472447 ,42,329594931493 ,20,0710640301288
7.3443399 ,Left ,56,4058539289564 ,42,5118271589158 ,20,0332142069174
7.3667807 ,Left ,56,5256295924196 ,42,5192496174149 ,19,9812555883135
7.3893628 ,Left ,56,6118619834869 ,42,3387997447749 ,19,9471139342995
7.4043972 ,Left ,56,5775303431359 ,42,1356222512544 ,19,9732409209354
7.4265902 ,Left ,56,4667673616128 ,42,1115347079451 ,20,0430163865241
7.4489583 ,Left ,56,3973607153556 ,42,2776206470804 ,20,0910998471369
7.4640808 ,Left ,56,4510973057434 ,42,4491627625145 ,20,0577850001687
7.4865093 ,Left ,56,5666388521989 ,42,4018511733884 ,20,0053605286394
7.509764 ,Left ,56,60765433989 ,42,1750381022418 ,20,0016633377111
7.5248023 ,Left ,56,5276720793355 ,42,0310751515511 ,20,0514131269224
7.5470652 ,Left ,56,4203988269217 ,42,1232544465498 ,20,1111231356331
7.5693707 ,Left ,56,4296031382978 ,42,0708266528522 ,20,1173381333522
7.5844026 ,Left ,56,4210821896726 ,42,0605563990867 ,20,1335107053214
7.606584 ,Left ,56,4265708096727 ,42,0472470469229 ,20,1395189299864
7.6289513 ,Left ,56,4257965772692 ,42,0467612316829 ,20,1427169082753
7.6440102 ,Left ,56,4141365426225 ,42,0458707745552 ,20,14837569284
7.6667546 ,Left ,56,4001479476836 ,42,0451683601873 ,20,1519521899122
7.6893756 ,Left ,56,3979535178436 ,42,0497656989507 ,20,1559614562752
7.7120429 ,Left ,56,3889313322189 ,42,0618030254358 ,20,1693102041398
7.734123 ,Left ,56,3650169176029 ,42,0720093993687 ,20,189870339577
7.7491155 ,Left ,56,3434789069902 ,42,0861449351901 ,20,2102901613207
7.7715816 ,Left ,56,3371540066951 ,42,0911302734924 ,20,2290207136717
7.7941063 ,Left ,56,3225541408657 ,42,0768893093904 ,20,2490939079603
7.8091583 ,Left ,56,2965621031283 ,42,0473938977115 ,20,2651425786366
7.8315118 ,Left ,56,2266049661952 ,42,0537967917296 ,20,2970822110337
7.85408 ,Left ,56,1651071221448 ,42,0602926724624 ,20,3205234936632
7.8691914 ,Left ,56,1587429798011 ,41,983519615192 ,20,3553128869547
7.891555 ,Left ,56,1093303492229 ,41,9360916440878 ,20,3935317537457
7.9145101 ,Left ,56,0803185143737 ,42,1218720353478 ,20,3632518771841
7.9292131 ,Left ,56,1418412999076 ,42,2427688352023 ,20,3331900860812
7.9514691 ,Left ,56,2863469968598 ,42,2912658514532 ,20,2943126370704
7.9748605 ,Left ,56,3668799122902 ,42,287858645571 ,20,256743188108
7.9898854 ,Left ,56,2669722492104 ,42,2735908940681 ,20,2519258253376
8.0123041 ,Left ,56,21145380895 ,42,2730178717412 ,20,227438679283
8.0344498 ,Left ,56,2503126155374 ,42,2582486663912 ,20,2075689701403
8.0494627 ,Left ,56,2834469723794 ,42,2478326043504 ,20,1996605379519
8.0719535 ,Left ,56,2935687589947 ,42,2284778071981 ,20,1979687290608
8.0944964 ,Left ,56,2770005399922 ,42,2038377986325 ,20,2128438047872
8.1092379 ,Left ,56,2783008160909 ,42,1638307007056 ,20,2268896158988
8.1322979 ,Left ,56,2818862570891 ,42,0860858410203 ,20,2221946766483
8.1544513 ,Left ,56,271373518457 ,41,9964777728893 ,20,1904219741219
8.1692488 ,Left ,56,2249281407839 ,41,9034622129359 ,20,1594814940297
8.1918929 ,Left ,56,2357953587895 ,41,7655095271022 ,20,1340364446968
8.2144714 ,Left ,56,1971250963565 ,41,7522624066763 ,20,2206962115824
8.2369174 ,Left ,56,2869265603822 ,41,9138330991175 ,20,1890452388844
8.2519564 ,Left ,56,5293066656502 ,42,0057178520088 ,20,1192494968508
8.2741933 ,Left ,56,7679006628198 ,41,9875677683076 ,20,1428791467594
8.2967009 ,Left ,56,7598638702892 ,42,0414772653181 ,20,1268708422557
8.3117754 ,Left ,56,5042457538467 ,41,9860144255 ,20,1913464592132
8.3343178 ,Left ,56,507464643377 ,41,7901387459685 ,20,2676229992179
8.3565048 ,Left ,56,4071068061745 ,41,7985436454458 ,20,4062210320754
8.3714907 ,Left ,56,3053669038663 ,42,0750101915607 ,20,3427177099009
8.3942998 ,Left ,56,4606803417285 ,42,3611599548261 ,20,2634562163463
8.4166962 ,Left ,56,6876551768558 ,42,3869328068669 ,20,267901311561
8.4242498 ,Left ,56,7240887204686 ,42,3434617027685 ,20,2783540228114
8.4467584 ,Left ,56,5702486089206 ,42,3361069885971 ,20,2837924193214
8.4616704 ,Left ,56,4403873849364 ,42,3396778794071 ,20,2846566904741
8.4844532 ,Left ,56,4219856406006 ,42,3557933932651 ,20,266217677173
8.5010703 ,Left ,56,4783097633969 ,42,3571170722402 ,20,2394070876097
8.5218161 ,Left ,56,5512612528893 ,42,3497002538524 ,20,2265436795121
8.5442746 ,Left ,56,5038534334432 ,42,1505536080579 ,20,2542804716826
8.5591833 ,Left ,56,3080513871065 ,42,0046948999449 ,20,3410546586704
8.5819013 ,Left ,56,2985696369125 ,41,9585521849414 ,20,4115573873206
8.6043837 ,Left ,56,2368439912636 ,41,7516146965202 ,20,5433217885638
8.6192139 ,Left ,56,2335839097562 ,42,0333834043425 ,20,4818241037541
8.641731 ,Left ,56,2933881375797 ,42,1973503201527 ,20,3621024947492
8.664157 ,Left ,56,4449736914807 ,42,4055591100886 ,20,2938186476384
8.679089 ,Left ,56,4607908857039 ,42,3373345253444 ,20,306468445784
8.7016866 ,Left ,56,3892874452742 ,42,2523481321283 ,20,2536516131776
8.7245451 ,Left ,56,2232516449048 ,42,1895480478915 ,20,1768096922507
8.7394387 ,Left ,56,1649767995593 ,42,1528857333923 ,20,0899208618306
8.7622164 ,Left ,56,2197746655344 ,42,1545080433881 ,19,9862451160155
8.7846199 ,Left ,56,2050240546226 ,42,1745515668657 ,19,9155442710873
8.7995612 ,Left ,56,0340253686762 ,42,112053150024 ,19,930773819929
8.8218817 ,Left ,56,0098959308393 ,42,1358945961295 ,19,9260906890245
8.8444384 ,Left ,55,8897524744737 ,42,3374276421897 ,19,9758327615112
8.8589755 ,Left ,55,8144136133785 ,42,3719514594951 ,19,9825688346895
8.8814179 ,Left ,55,8021760607983 ,42,318813460769 ,19,9921667531861
8.9042899 ,Left ,55,7105754092431 ,42,1928283698672 ,20,1226708606811
8.9193758 ,Left ,55,8210992061006 ,42,2652323233282 ,20,1738943941935
8.9419188 ,Left ,56,0199036626862 ,42,484078562269 ,20,0906339052585
8.9641641 ,Left ,56,4553856413806 ,42,4196761555503 ,19,984981266838
8.979058 ,Left ,56,5623063248912 ,42,211176326496 ,19,9192102088751
9.0019392 ,Left ,56,394506341193 ,42,2734426118426 ,19,9113564550825
9.0244217 ,Left ,56,1947426454158 ,42,3755320597113 ,19,8587277623219
9.0394054 ,Left ,56,3121549029501 ,42,2155407509516 ,19,8183617968949
9.0617979 ,Left ,56,1802246736122 ,42,0742103523208 ,20,041832760261
9.0842925 ,Left ,56,0777813558097 ,42,2584435692629 ,20,1337564367734
9.0992304 ,Left ,56,2105762476055 ,42,5360823736493 ,20,0682046441699
9.1217194 ,Left ,56,541134003812 ,42,5061720061886 ,20,0839316820654
9.1441848 ,Left ,56,6544294171807 ,42,3592745460685 ,20,0664269625341
9.1593836 ,Left ,56,4826017012466 ,42,2619883546389 ,20,0989240208034
9.1818795 ,Left ,56,2759508467708 ,42,2813269710973 ,20,1496362398228
9.2043892 ,Left ,56,3159830855672 ,42,2762571683451 ,20,1298154272861
9.2268251 ,Left ,56,3659485060317 ,42,2545157577985 ,20,1113200646795
9.2418888 ,Left ,56,3934475350031 ,42,1844444123244 ,20,1524238579241
9.2641903 ,Left ,56,414152616442 ,42,0609924272848 ,20,2242242977879
9.2867 ,Left ,56,3875592645364 ,41,934624626432 ,20,2944948514139
9.3022367 ,Left ,56,3510447838752 ,41,8507919163967 ,20,3431139377009
9.3239704 ,Left ,56,3664781009657 ,41,8047616746915 ,20,3817550420287
9.3465899 ,Left ,56,3986096929179 ,41,7827259094012 ,20,4058578663914
9.3841961 ,Left ,56,4225962330096 ,41,7428678400699 ,20,5003367222546
9.4070139 ,Left ,56,3672385535209 ,41,744463905351 ,20,5697758547122
9.4447031 ,Left ,56,3313841172297 ,41,7674579221857 ,20,6573456497339
9.4670136 ,Left ,56,3212087680506 ,41,7237817053299 ,20,7004138127707
9.5043007 ,Left ,56,3413937505404 ,41,6545460471186 ,20,7555579636352
9.5265555 ,Left ,56,3089595975652 ,41,6358890345413 ,20,7742797308305
9.5641109 ,Left ,56,263926459563 ,41,6252078101411 ,20,7909807584617
9.586826 ,Left ,56,2584628265982 ,41,623955915254 ,20,8055349370893
9.624058 ,Left ,56,2447464199941 ,41,6312633820129 ,20,8323499690954
9.646743 ,Left ,56,2338903918905 ,41,61294969516 ,20,8313778199427
9.6842029 ,Left ,56,2494051079876 ,41,6069807746009 ,20,84214923605
9.7068542 ,Left ,56,2554490028185 ,41,6102527765291 ,20,838535238767
9.7443774 ,Left ,56,2636748141198 ,41,5964764630378 ,20,8394376716202
9.7669222 ,Left ,56,2549643646364 ,41,6034616249141 ,20,844571788703
9.804386 ,Left ,56,2114916978815 ,41,608694624674 ,20,8559327298698
9.8269138 ,Left ,56,2041300319227 ,41,6031211309526 ,20,8597906674666
9.8643497 ,Left ,56,0542075480704 ,41,6730008233905 ,20,9024316482871
9.8868388 ,Left ,55,9526079082975 ,41,6440848972223 ,20,8554485637971
9.9243603 ,Left ,55,8159172045444 ,41,6302979038227 ,20,9396325670426
9.9464596 ,Left ,55,774525387764 ,41,8244907639585 ,20,9141453865658
9.9842549 ,Left ,56,1090964247194 ,41,9845429101735 ,20,7967974344914
10.006835 ,Left ,56,2512966655593 ,41,9689822814284 ,20,6883626361931
10.0446621 ,Left ,56,1505180525779 ,41,9817186741861 ,20,5752144428713
10.0671152 ,Left ,56,1759921846349 ,42,0077217105742 ,20,5187662192329
10.1043588 ,Left ,56,1770461033225 ,42,0054064108321 ,20,5168231447732
10.1264785 ,Left ,56,103780082876 ,41,9962692224189 ,20,541271244463
10.1647594 ,Left ,56,076504056434 ,41,7429437607212 ,20,5566413003563
10.1873217 ,Left ,56,1780524907098 ,41,7224569316879 ,20,5894981268151
10.2250549 ,Left ,56,5636155183583 ,41,9878184830605 ,20,3939248512734
10.2469258 ,Left ,56,7452842458697 ,41,9552175829555 ,20,4772881119367
10.2616976 ,Left ,56,6660863047155 ,42,0261586396127 ,20,4416140049328
10.2764728 ,Left ,56,495486815447 ,41,9627188778585 ,20,4154822630969
10.2991065 ,Left ,56,5194842761105 ,41,7714118698311 ,20,4226450529582
10.3217778 ,Left ,56,3809693438338 ,41,7882039244016 ,20,5227975799206
10.3367878 ,Left ,56,2658273294999 ,42,0896391047961 ,20,4840756009462
10.359261 ,Left ,56,4226198602729 ,42,3361202342168 ,20,4421764223351
10.381732 ,Left ,56,6946002896567 ,42,3134414414913 ,20,486048170359
10.3967567 ,Left ,56,7413561461398 ,42,2356725657375 ,20,5501659939727
10.418999 ,Left ,56,5759892024375 ,42,2392267489487 ,20,605377086397
10.4415285 ,Left ,56,4438269683336 ,42,2479278756549 ,20,6584490296186
10.4565323 ,Left ,56,4311188550154 ,42,255353143672 ,20,6523256502137
10.4793979 ,Left ,56,4915936035788 ,42,2381787127099 ,20,6392927440955
10.5019088 ,Left ,56,4738537752617 ,42,2205617110046 ,20,6364432808573
10.5167908 ,Left ,56,3089456469355 ,42,1883806232095 ,20,6625739217787
10.5393001 ,Left ,56,1402033801435 ,42,0383686974578 ,20,7545574596783
10.5618703 ,Left ,56,1426723213723 ,41,8691309372021 ,20,9209719663898
10.5769044 ,Left ,56,136047611997 ,41,9734820091055 ,20,9139150061002
10.5992814 ,Left ,56,3417143292634 ,42,0297378571796 ,20,7130698282791
10.6219008 ,Left ,56,6264984128491 ,42,0457420201206 ,20,5007238638205
10.6369337 ,Left ,56,8062862855153 ,41,8501712294349 ,20,4192798916153
10.6593936 ,Left ,56,84819125656 ,41,5935721211968 ,20,3594400181318
10.6818528 ,Left ,56,6981227675117 ,41,4004281351117 ,20,3052907399028
10.7042655 ,Left ,56,4899321640639 ,41,3370479526252 ,20,2984896043382
10.7190881 ,Left ,56,3790198282862 ,41,4688662113735 ,20,2723879247245
10.7415014 ,Left ,56,3872945136372 ,41,7098589283466 ,20,1967612177127
10.7566476 ,Left ,56,4270637491325 ,41,8369312904581 ,20,1265154533551
10.7790671 ,Left ,56,4287519625915 ,41,7387084104943 ,20,1101509646766
10.801804 ,Left ,56,3507631393008 ,41,5813892130177 ,20,1634512504238
10.8168234 ,Left ,56,1271804349515 ,41,5865487220395 ,20,2363456864881
10.8390778 ,Left ,55,8862863760743 ,41,7141906664906 ,20,266715981544
10.8619362 ,Left ,55,7689313223603 ,41,7162709946688 ,20,3048464036459
10.8843981 ,Left ,55,7620739800053 ,41,7332884351821 ,20,410918634005
10.89915 ,Left ,55,7358709228031 ,41,9288831825223 ,20,4221541058027
10.9218635 ,Left ,56,0229991073041 ,42,0056185483655 ,20,3386711413076
10.9444022 ,Left ,56,3568452761314 ,41,7909889456011 ,20,2445915446002
10.9593469 ,Left ,56,2549937247083 ,41,6506084262054 ,20,2573459007509
10.9817453 ,Left ,56,0373640072493 ,41,7102019323936 ,20,200094072289
11.0044254 ,Left ,55,9915495113349 ,41,6605561241541 ,20,1620847167476
11.019459 ,Left ,56,1098296191877 ,41,4575374718516 ,20,1774245606692
11.0417168 ,Left ,56,0644792074561 ,41,5944315398652 ,20,3141684099902
11.0641599 ,Left ,56,0428787718226 ,41,9142108151226 ,20,2860156782366
11.0793652 ,Left ,56,3578901479032 ,42,0291482007234 ,20,2867920509157
11.1017387 ,Left ,56,6567094798007 ,41,8964103887921 ,20,2803245374177
11.1243811 ,Left ,56,6674387432136 ,41,7607279413666 ,20,2442059775567
11.1393249 ,Left ,56,5122605933489 ,41,7180708585049 ,20,2703308758659
11.1616814 ,Left ,56,4363198208868 ,41,7223413269902 ,20,3036415759379
11.1919917 ,Left ,56,5095875249977 ,41,7019352971995 ,20,2814279670654
11.2066079 ,Left ,56,5923345181629 ,41,6697250636032 ,20,2896405551511
11.2291991 ,Left ,56,6550024239404 ,41,5986247302826 ,20,3478721013107
11.2440202 ,Left ,56,6680601143855 ,41,4729556306336 ,20,4274408735928
11.2592043 ,Left ,56,6732607674452 ,41,3442634685196 ,20,5048572200126
11.2816746 ,Left ,56,6863819488819 ,41,2743685816471 ,20,5552161149385
11.3042755 ,Left ,56,7038561196792 ,41,243539090651 ,20,5610690398448
11.3192379 ,Left ,56,7138688935229 ,41,227786987242 ,20,5857081507109
11.3417512 ,Left ,56,7356657243514 ,41,2015228837752 ,20,6264708879648
11.3642726 ,Left ,56,7276240302956 ,41,1905850554176 ,20,6688429979392
11.3791736 ,Left ,56,6990469478208 ,41,1810005341596 ,20,7102902030615
11.4018946 ,Left ,56,6647497071716 ,41,1625592506197 ,20,7430949869604
11.4243844 ,Left ,56,6381730104732 ,41,130844250758 ,20,7682225402019
11.4392588 ,Left ,56,6364684132297 ,41,1129122149212 ,20,7846680445702
11.461913 ,Left ,56,6389079240822 ,41,1090387181682 ,20,7881231405091
11.4842259 ,Left ,56,630079003853 ,41,0998929307071 ,20,8033862647483
11.4992774 ,Left ,56,6096558390124 ,41,0930241899749 ,20,8167070162629
11.5217576 ,Left ,56,5899135759653 ,41,0938200768366 ,20,8237440916004
11.5441358 ,Left ,56,5698723733607 ,41,1182642556113 ,20,8218538591791
11.5594067 ,Left ,56,5667983955316 ,41,1356716258313 ,20,8206906957295
11.5817547 ,Left ,56,5436356523234 ,41,1433983620506 ,20,8339053261652
11.6044735 ,Left ,56,5183959179212 ,41,1564905386292 ,20,8508093435807
11.634464 ,Left ,56,5090219110314 ,41,1810024863937 ,20,8753566507286
11.6580555 ,Left ,56,5125747245351 ,41,194494324904 ,20,8799933160339
11.6791498 ,Left ,56,5185455244522 ,41,2334992434511 ,20,86976879688
11.694392 ,Left ,56,4328353879311 ,41,4467228240964 ,20,8913885936997
11.7168865 ,Left ,56,3867075292029 ,41,5668312081499 ,20,9138879334055
11.7395614 ,Left ,56,4323112389767 ,41,4498264399233 ,20,8715506334615
11.7546323 ,Left ,56,2729728810779 ,41,576073489774 ,20,9285937144326
11.7770728 ,Left ,56,2621756647481 ,41,4594568800353 ,20,8799241918906
11.7994823 ,Left ,56,068877604047 ,41,5386804743986 ,20,953589258708
11.8146637 ,Left ,56,0383959078449 ,41,4423344950107 ,20,9629410769332
11.837009 ,Left ,55,9506051690992 ,41,5494411769896 ,20,9693130775495
11.8589393 ,Left ,56,0598032380598 ,41,6246413173058 ,20,9129974623058
11.8743194 ,Left ,56,1924971063766 ,41,6504297725551 ,20,8454215990704
11.8965794 ,Left ,56,3363566745594 ,41,6168079516891 ,20,7669870517519
11.9191014 ,Left ,56,3238579709067 ,41,6024063680314 ,20,7150851705936
11.9344644 ,Left ,56,2960402870625 ,41,6045932805168 ,20,669977832394
11.9568574 ,Left ,56,3134597286608 ,41,487709978786 ,20,6378160057913
11.9793711 ,Left ,56,2035592488441 ,41,3418654919122 ,20,7026926623917
11.9940602 ,Left ,56,0950663091626 ,41,2267556879418 ,20,7568536300981
12.0242508 ,Left ,56,1395756330281 ,41,1604178364162 ,20,7810651530616
12.0467494 ,Left ,56,0283996824448 ,41,0178488043107 ,20,9096683352111
12.0768005 ,Left ,56,2786479764627 ,41,3754563580817 ,20,9155387170058
12.0992489 ,Left ,56,5668016730645 ,41,4955976512597 ,20,7543498083389
12.1213493 ,Left ,56,6439259510736 ,41,4825952662118 ,20,7774974139405
12.1364625 ,Left ,56,5772057535697 ,41,5035163457798 ,20,7629883582239
12.1590506 ,Left ,56,4084155119189 ,41,4481703948363 ,20,7246558087572
12.1814839 ,Left ,56,293665052101 ,41,2715569119137 ,20,7904259201006
12.196717 ,Left ,56,2133369694251 ,41,320919907904 ,20,9574366690682
12.2191932 ,Left ,56,3090748033018 ,41,6614901371748 ,20,9318136421984
12.2417916 ,Left ,56,6843274065887 ,41,887540853093 ,20,8521785901352
12.2568526 ,Left ,56,909551541405 ,41,8712405954372 ,20,893499297488
12.2794262 ,Left ,56,8284741094122 ,41,8303633080005 ,20,9385374846866
12.3020605 ,Left ,56,6483056812993 ,41,8579108203949 ,20,9614920220618
12.3168682 ,Left ,56,5878976482821 ,41,8859414620265 ,20,9409495008271
12.3390302 ,Left ,56,6244502961804 ,41,9128368712646 ,20,882626680063
12.3614848 ,Left ,56,6280192584897 ,41,8980341792383 ,20,869765038079
12.3764679 ,Left ,56,5827442113101 ,41,8696956123761 ,20,8684691357012
12.3992656 ,Left ,56,486779425477 ,41,7833021336638 ,20,8629866706961
12.4218073 ,Left ,56,3977653805027 ,41,6723158044882 ,20,8942570570131
12.4368325 ,Left ,56,3532904971913 ,41,6251375991256 ,20,9266158164308
12.4669013 ,Left ,56,2353909996594 ,41,5916851491722 ,20,9331656293304
12.4893981 ,Left ,55,9308067364912 ,41,5898207024547 ,21,0427160481241
12.5043062 ,Left ,55,7929245296414 ,41,8053014786007 ,21,1212108678608
12.5268126 ,Left ,55,8480905867966 ,42,1200130421802 ,21,0420861489111
12.5420021 ,Left ,56,1206542618114 ,42,1668735566513 ,20,9347127251059
12.5645709 ,Left ,56,215130491262 ,42,1195350349193 ,20,8693596531137
12.5870125 ,Left ,56,0756625987066 ,42,0577049734092 ,20,7703478943762
12.6018331 ,Left ,55,9372768870408 ,42,0211815292076 ,20,6686263117503
12.6248408 ,Left ,55,9038930417785 ,42,0203976556288 ,20,5406766873511
12.6473106 ,Left ,55,9229436392504 ,42,0218331409756 ,20,4146756726454
12.6621889 ,Left ,55,9271077836388 ,42,0485825918205 ,20,3198887121749
12.6843626 ,Left ,55,8529068549199 ,42,0519440143459 ,20,2985913003157
12.7065786 ,Left ,55,7688388015742 ,42,0692680325523 ,20,3380706623927
12.7217701 ,Left ,55,6311115025466 ,42,096237903141 ,20,3775646262755
12.744104 ,Left ,55,5576026193845 ,41,994431585544 ,20,3741669871605
12.7667038 ,Left ,55,4092814926856 ,41,8084362783966 ,20,4546655713977
12.7821887 ,Left ,55,440788517801 ,41,8441841593684 ,20,488916522471
12.8045509 ,Left ,55,6227917015318 ,41,9458757651202 ,20,4321932803392
12.8270909 ,Left ,56,0540291172294 ,41,8108130985132 ,20,3434168493678
12.841813 ,Left ,56,0223188489789 ,41,6086605957102 ,20,3488268237688
12.8643767 ,Left ,55,8362024782599 ,41,7116797132128 ,20,3506785281622
12.8869286 ,Left ,55,7421639152186 ,41,7860899592193 ,20,2696534232884
12.9093362 ,Left ,55,8906395063022 ,41,6406682301643 ,20,1978363609852
12.9242576 ,Left ,55,7921232114324 ,41,6323539942125 ,20,3549195632365
12.9466314 ,Left ,55,6744239967578 ,41,8662903990838 ,20,3807258901439
12.9693875 ,Left ,55,846448692452 ,42,0590867646283 ,20,3315878098035
12.9841559 ,Left ,56,1975100754258 ,41,9755181692188 ,20,3575074716392
13.0067455 ,Left ,56,299703529208 ,41,8265400376942 ,20,3365795801394
13.029369 ,Left ,56,2410318317075 ,41,782906304593 ,20,3432188114424
13.0443094 ,Left ,56,2281024948633 ,41,7856065032937 ,20,3803973014183
13.0666303 ,Left ,56,3004660991191 ,41,7595486225182 ,20,3944926264665
13.0890498 ,Left ,56,3336344007977 ,41,7352592959439 ,20,4166532787669
13.1040215 ,Left ,56,4000305734745 ,41,6915510635749 ,20,4877655721376
13.1265539 ,Left ,56,4552863738789 ,41,6093805462467 ,20,56110286699
13.1490519 ,Left ,56,4536711730306 ,41,5271867732979 ,20,610505014944
13.1642365 ,Left ,56,4487772827271 ,41,4538105759917 ,20,6500196921093
13.1869555 ,Left ,56,4442614950844 ,41,4042787820279 ,20,6770076230398
13.2094472 ,Left ,56,4431098257604 ,41,3727696981329 ,20,6958220990246
13.2244445 ,Left ,56,4054596053045 ,41,3434957628488 ,20,7333783009084
13.2469204 ,Left ,56,3818532796725 ,41,3189955666755 ,20,7584493109063
13.2695055 ,Left ,56,3614069490424 ,41,3064529577867 ,20,7809087103809
13.2843107 ,Left ,56,3219040929217 ,41,3094031003537 ,20,8085364597207
13.3217409 ,Left ,56,288221346557 ,41,3174433967471 ,20,8424398874461
13.3444795 ,Left ,56,3032995876273 ,41,3135194231945 ,20,8522164070577
13.3594203 ,Left ,56,2871206489058 ,41,3028913902802 ,20,8736171299152
13.3820163 ,Left ,56,2547841487778 ,41,3064490721493 ,20,8916672582328
13.4044975 ,Left ,56,2255245775369 ,41,3257867211822 ,20,8946310877792
13.4194832 ,Left ,56,2316445342815 ,41,3288790287562 ,20,882949464763
13.4418304 ,Left ,56,2331575954697 ,41,3177169404223 ,20,8741812328597
13.4642295 ,Left ,56,2152484143413 ,41,3150493516588 ,20,8683996551283
13.4793821 ,Left ,56,1857619701011 ,41,3257186339035 ,20,8673239199149
13.5018401 ,Left ,56,1590277334988 ,41,3260761248142 ,20,8645867817965
13.5242604 ,Left ,56,1484373081168 ,41,3287131979065 ,20,8590796162531
13.539423 ,Left ,56,1503912188682 ,41,3382988873531 ,20,8566083533148
13.5617272 ,Left ,56,1200544825333 ,41,3434940999242 ,20,8676334400111
13.5843935 ,Left ,56,0674781059538 ,41,3478209515872 ,20,8801803652139
13.5994056 ,Left ,56,0535602695726 ,41,3375695407319 ,20,8885764803122
13.6220796 ,Left ,55,9894151713226 ,41,3115495850661 ,20,9382950919211
13.6444649 ,Left ,55,8544163314781 ,41,3628074318408 ,20,9991618431767
13.6593216 ,Left ,55,6967656566516 ,41,3121563132115 ,20,983489639469
13.681793 ,Left ,55,6658530846059 ,41,223561169347 ,21,016582242571
13.7041781 ,Left ,55,5918662681389 ,41,2368380816677 ,21,0712393055315
13.7267159 ,Left ,55,6175504866342 ,41,4113995348234 ,21,0248784514566
13.7418827 ,Left ,55,7439209653766 ,41,4625344618418 ,20,9553600682645
13.7642864 ,Left ,55,8211651886745 ,41,6007343975254 ,20,9347448574583
13.7790473 ,Left ,55,8324272564067 ,41,5369761012876 ,20,9349477274737
13.8017075 ,Left ,55,6876063248977 ,41,418235099897 ,20,985368864353
13.8242415 ,Left ,55,5085471506842 ,41,4715575309807 ,21,0497952595556
13.8393047 ,Left ,55,4031264090496 ,41,618897836427 ,21,0271250967481
13.8616197 ,Left ,55,4761648498078 ,41,7374671117054 ,20,9538085896852
13.8841546 ,Left ,55,6560092148368 ,41,7029347804491 ,20,8973404179006
13.8992999 ,Left ,55,6732842575894 ,41,5614215072993 ,20,953860532467
13.9216667 ,Left ,55,7026051141443 ,41,5145132948696 ,20,93583778028
13.9440917 ,Left ,55,8420905019561 ,41,5710221920811 ,20,8717208935641
13.9665422 ,Left ,56,0795948109882 ,41,5594731957951 ,20,9050518892342
13.9818897 ,Left ,56,1398208651942 ,41,8097159828513 ,20,9118896640747
14.0043251 ,Left ,55,9535458602649 ,41,9053035041561 ,20,8444547272309
14.0273091 ,Left ,55,9834114815643 ,41,6797392217825 ,20,8019876174695
14.043451 ,Left ,55,8358326970496 ,41,589776489121 ,20,8619606658978
14.0646601 ,Left ,55,7290030897089 ,41,8327807470622 ,20,7944712602925
14.0867968 ,Left ,55,8004982814287 ,42,1627350669881 ,20,713852099149
14.1018197 ,Left ,55,9985176067318 ,42,2382479744311 ,20,7748630054636
14.1241989 ,Left ,56,0770984823079 ,42,2015174617504 ,20,8553913815615
14.1469382 ,Left ,55,9810349185008 ,42,1674126911713 ,20,8688554313051
14.1544037 ,Left ,55,8519290835016 ,42,1105757143136 ,20,8975486000233
14.1768524 ,Left ,55,8464459774018 ,42,0394945173354 ,20,8785988732708
14.1994455 ,Left ,55,917648003661 ,41,9902761035081 ,20,846349225177
14.2220116 ,Left ,55,931107751459 ,41,9614855996013 ,20,8009384151901
14.2592009 ,Left ,55,7179666255159 ,41,8387404295438 ,20,9161205286741
14.2819494 ,Left ,55,7864566919943 ,41,8791246000827 ,20,9761855783675
14.3193597 ,Left ,56,1308908832188 ,42,2646588738794 ,20,7121775197567
14.3418929 ,Left ,56,235205732948 ,42,2389689042885 ,20,6280278840582
14.3794162 ,Left ,56,107929574001 ,42,0908478017227 ,20,5295127248523
14.4018808 ,Left ,55,9782098074177 ,42,0129329612092 ,20,450886351978
14.4394157 ,Left ,55,9716643513359 ,41,9250055751166 ,20,2841838108636
14.4619888 ,Left ,55,9707805666829 ,41,9110154760856 ,20,2557098495013
14.4994544 ,Left ,55,781185762722 ,41,9085269034195 ,20,322695745839
14.5220314 ,Left ,55,6685315093717 ,41,9643516504959 ,20,3653303814876
14.5592903 ,Left ,55,4356956027819 ,41,9549682108537 ,20,4434568234542
14.5816764 ,Left ,55,372397797854 ,41,9556915195173 ,20,565590931971
14.6192598 ,Left ,55,9091862037878 ,42,2084095413219 ,20,4717857386802
14.6413885 ,Left ,56,3320813207299 ,41,9876411418567 ,20,3454812353338
14.6790356 ,Left ,55,8576421939572 ,41,8778006043251 ,20,3348287377708
14.7015375 ,Left ,55,7896749963875 ,41,8856336100288 ,20,2526081949911
14.7391803 ,Left ,55,9610508964998 ,41,7344160047993 ,20,4145337988307
14.7617537 ,Left ,55,8001389955978 ,42,0281026869065 ,20,4406744360377
14.7991119 ,Left ,56,2359731594727 ,42,0930476102968 ,20,3916997136409
14.8220729 ,Left ,56,2694328097927 ,41,9427522923187 ,20,3568283978657
14.8590949 ,Left ,56,0173933327602 ,41,7444256740401 ,20,4239602596664
14.881545 ,Left ,56,1166313587396 ,41,6774286688784 ,20,3922770909056
14.9192266 ,Left ,56,298236717057 ,41,540757658667 ,20,4735830317669
14.9420024 ,Left ,56,3778797328193 ,41,401302734109 ,20,570260911511
14.9790745 ,Left ,56,25848469446 ,41,2883529500379 ,20,7038820839833
15.001689 ,Left ,56,2752457415695 ,41,255256724043 ,20,7561276374245
15.0390732 ,Left ,56,3261275291284 ,41,138616583671 ,20,785313630286
15.0615016 ,Left ,56,2618331482206 ,41,114060643419 ,20,80511210313
15.0992762 ,Left ,56,1587553712278 ,41,1097448901056 ,20,8391841025628
15.1219541 ,Left ,56,1848777721329 ,41,1256438197929 ,20,8345747904715
15.1595704 ,Left ,56,1634247095182 ,41,1688028704918 ,20,8495268138659
15.182174 ,Left ,56,1421007393673 ,41,1885431402385 ,20,8548774899498
15.219233 ,Left ,56,1765001920353 ,41,2025648041827 ,20,8387378115863
15.2418268 ,Left ,56,172368074894 ,41,2253266392497 ,20,8337903457486
15.2794156 ,Left ,56,1369902306895 ,41,2492670708386 ,20,8448338136527
15.3020885 ,Left ,56,0877959085147 ,41,2479382909107 ,20,8630423408247
15.316771 ,Left ,56,0175937258308 ,41,235655747413 ,20,8910605784225
15.339457 ,Left ,55,9558074175053 ,41,2414221957393 ,20,9183942500563
15.362377 ,Left ,55,8119132158582 ,41,245526730731 ,20,9251637957964
15.3771028 ,Left ,55,7318225350148 ,41,2524222683065 ,20,8790334088116
15.3992438 ,Left ,55,6355321702766 ,41,3912635070484 ,20,9619464725031
15.4217984 ,Left ,55,6014246206561 ,41,5091225948406 ,20,9930584909063
15.4366186 ,Left ,55,6912541964655 ,41,579226949642 ,20,9607517874203
15.4590933 ,Left ,55,8958225136579 ,41,7962874932434 ,20,9121772925878
15.4817159 ,Left ,56,0553721814397 ,41,6442607143669 ,20,875553841538
15.4967313 ,Left ,56,0863291024935 ,41,701272191483 ,20,8791541448451
15.5191833 ,Left ,55,914665814379 ,41,6209565653034 ,20,8904052432216
15.5418384 ,Left ,55,7971046054443 ,41,5939410155618 ,20,8730039593041
15.556835 ,Left ,55,827873663358 ,41,5468521054354 ,20,8218020273922
15.5794097 ,Left ,55,866656973116 ,41,4689190363279 ,20,7825987375807
15.6019173 ,Left ,55,8335511669298 ,41,372669756312 ,20,8159600717122
15.6169834 ,Left ,55,6233639845652 ,41,2149260044979 ,20,9660854419503
15.6394382 ,Left ,55,6105018804323 ,41,2612052393892 ,21,0529660701926
15.6620659 ,Left ,55,7889367987618 ,41,3898212746131 ,20,9005615104585
15.6768491 ,Left ,56,0446586635923 ,41,5063098371815 ,20,8253363837302
15.6992796 ,Left ,56,0392120660145 ,41,3989757531162 ,20,9333907363328
15.7220364 ,Left ,55,9195769235292 ,41,4556782286164 ,20,8955721908527
15.7368648 ,Left ,55,7317740396639 ,41,4197021816992 ,20,8511850426691
15.7590033 ,Left ,55,7585287589221 ,41,3127868904605 ,20,8025010213852
15.781535 ,Left ,55,6338757643201 ,41,3444300327504 ,20,9172557716192
15.8192844 ,Left ,55,8192202127376 ,41,9440876530962 ,20,8448978222538
15.8417889 ,Left ,56,0395770904625 ,41,9544335443575 ,20,924729514986
15.8790241 ,Left ,55,824774136093 ,41,9244577323879 ,20,9867181651386
15.9015731 ,Left ,55,7271741308547 ,41,8977480500907 ,20,9849892781004
15.9393957 ,Left ,55,8001111433218 ,41,854908945182 ,20,8918444750644
15.9619639 ,Left ,55,7823819107814 ,41,8175653987303 ,20,9163600589063
15.9993658 ,Left ,55,5606372293965 ,41,6909659608531 ,21,0803342990503
16.0217811 ,Left ,55,415567180833 ,41,6196475553504 ,21,1535249316873
16.0593575 ,Left ,55,1120435065611 ,41,6504300465646 ,21,297199846244
16.0817089 ,Left ,55,2443486599291 ,41,9384118389501 ,21,1902693959322
16.1192319 ,Left ,55,7066990519231 ,41,9358983877571 ,20,9683211528836
16.1417391 ,Left ,55,6355912646746 ,41,8312230470917 ,20,9101670371158
16.1794359 ,Left ,55,5531718991761 ,41,7124989522384 ,20,7413716020005
16.19444 ,Left ,55,6731754753204 ,41,6971223946681 ,20,6166389159489
16.2168882 ,Left ,55,6857100774565 ,41,7014369779491 ,20,5262222812204
16.2319817 ,Left ,55,6097285651701 ,41,7467161832111 ,20,4931072038651
16.2543936 ,Left ,55,5767299561995 ,41,7693424740948 ,20,5072899881366
16.2769159 ,Left ,55,5595424110318 ,41,8220920859198 ,20,5479783447969
16.2920399 ,Left ,55,4789935757622 ,41,938627724562 ,20,5625332412242
16.3143759 ,Left ,55,3624234842668 ,41,9988291058905 ,20,5624769736527
16.3442658 ,Left ,55,4338930527378 ,41,9379342269427 ,20,5796327574935
16.3593305 ,Left ,55,4225035791499 ,41,8431077971905 ,20,6757889633885
16.3820213 ,Left ,55,4803863749399 ,41,9377229468624 ,20,6663589120109
16.3968408 ,Left ,55,759106137472 ,42,0395741109236 ,20,4972184612087
16.4115798 ,Left ,56,1577703444268 ,41,8200754427352 ,20,3746384064273
16.4344446 ,Left ,56,0616840912328 ,41,6633241069629 ,20,4503533486377
16.4566272 ,Left ,55,8278204750596 ,41,7890579996875 ,20,3975157923242
16.4721641 ,Left ,55,8654434786838 ,41,7558126015143 ,20,3301709747046
16.4944531 ,Left ,56,0536378210063 ,41,5245047293096 ,20,299417885862
16.5168112 ,Left ,55,9231128289157 ,41,4539498195568 ,20,4711423005481
16.5317705 ,Left ,55,8114239641627 ,41,6253175144927 ,20,4668877712584
16.5543947 ,Left ,55,9641073125341 ,41,8155770324391 ,20,435045178431
16.5768797 ,Left ,56,269863997974 ,41,7243978162944 ,20,4625483219524
16.5917941 ,Left ,56,3253948508734 ,41,6078946583898 ,20,4948783725247
16.6141765 ,Left ,56,2082109168532 ,41,5739507840421 ,20,5254529976
16.6365863 ,Left ,56,1012643374107 ,41,5874083621232 ,20,5828201211023
16.6592086 ,Left ,56,1851964299934 ,41,5870664318555 ,20,5543455164434
16.6742776 ,Left ,56,1777904751882 ,41,5730337008433 ,20,5499308849458
16.6966074 ,Left ,56,1822959286381 ,41,5411904082521 ,20,6083727347841
16.7192783 ,Left ,56,1780161668454 ,41,4446150307393 ,20,6744429456165
16.7345356 ,Left ,56,2046165227183 ,41,2942908627806 ,20,7338223144815
16.7570682 ,Left ,56,1912970381843 ,41,1580086887077 ,20,7851233896098
16.7794233 ,Left ,56,2004733875227 ,41,0404234947767 ,20,8164559120401
16.794581 ,Left ,56,2425371792797 ,40,9505728061108 ,20,8305878262177
16.816854 ,Left ,56,2839468339655 ,40,8855200247138 ,20,8347450955335
16.8392208 ,Left ,56,2504258725829 ,40,8650867559308 ,20,8468947690967
16.8543277 ,Left ,56,1987088045285 ,40,8627925940348 ,20,8725842259935
16.8765609 ,Left ,56,1949228982327 ,40,8763889419937 ,20,8907967153494
16.9595407 ,Left ,56,2449103847062 ,40,8912188535217 ,20,8857257717937
16.9968405 ,Left ,56,2708043304424 ,40,8976808543096 ,20,8772452528029
17.0121789 ,Left ,56,2787650091979 ,40,8845625669047 ,20,86530627676
17.0345413 ,Left ,56,2538523018082 ,40,8875601071433 ,20,86387787458
17.0496305 ,Left ,56,1947189606826 ,40,9073950071245 ,20,8676300383454
17.0719302 ,Left ,56,1689733626583 ,40,9340976857877 ,20,87863588989
17.0945163 ,Left ,56,1762057267688 ,40,9269351394313 ,20,887257420379
17.1094938 ,Left ,56,180495860542 ,40,9167169981842 ,20,8983147462348
17.1318457 ,Left ,56,1665801618231 ,40,9115111419031 ,20,9125324649008
17.1543363 ,Left ,56,1569270553262 ,40,9148474408833 ,20,9186406920943
17.1767688 ,Left ,56,1708507914316 ,40,9008515067788 ,20,9197462461771
17.1996017 ,Left ,56,1732239056668 ,40,8930375860037 ,20,9210186830187
17.2296273 ,Left ,56,1899044241114 ,40,9243576495549 ,20,9102222962897
17.2518434 ,Left ,56,2324106570641 ,40,9255417673843 ,20,9046446573159
17.2747065 ,Left ,56,2481822509119 ,40,9129346167636 ,20,9030528158494
17.2893835 ,Left ,56,2395226898018 ,40,9052298220955 ,20,9029932981049
17.3116997 ,Left ,56,2527854401936 ,40,9115438404613 ,20,899262437831
17.3343477 ,Left ,56,2657747484694 ,40,9206866096886 ,20,8943813643795
17.3492227 ,Left ,56,2775892405674 ,40,9438668435283 ,20,8756560818447
17.3721859 ,Left ,56,2597821406339 ,40,9708314486866 ,20,8742807677236
17.3949027 ,Left ,56,2473732216232 ,41,0127840213004 ,20,874855016073
17.40981 ,Left ,56,2231392471342 ,41,0547319596614 ,20,8810005945854
17.432469 ,Left ,56,1447522317139 ,41,0326134537946 ,20,9157256916797
17.4694466 ,Left ,56,2473732216232 ,41,0127840213004 ,20,874855016073
17.4917202 ,Left ,56,2231392471342 ,41,0547319596614 ,20,8810005945854
17.5293939 ,Left ,56,0827322856394 ,41,4143412821391 ,20,8758577453055
17.551879 ,Left ,56,0606207358485 ,41,1065273841162 ,20,9220101773285
17.5744616 ,Left ,56,0102773103959 ,41,0844086016951 ,20,9099189520539
17.5965071 ,Left ,56,0267659859217 ,41,2875908266378 ,20,8877758269593
17.6117913 ,Left ,56,1285152964083 ,41,5452412197061 ,20,8612089691918
17.6342661 ,Left ,56,3749354151012 ,41,6221948826931 ,20,7910334009791
17.6568395 ,Left ,56,4712752068618 ,41,5085918251714 ,20,7533945061758
17.6718954 ,Left ,56,3904972238509 ,41,3565402538318 ,20,8024695571115
17.6942956 ,Left ,56,207918405258 ,41,2839857147577 ,20,8302934610553
17.7166587 ,Left ,56,0679783284209 ,41,240042789317 ,20,8468057565725
17.731558 ,Left ,56,1422394139943 ,41,1338237125829 ,20,8125570930189
17.7541135 ,Left ,55,9644314068743 ,41,0151989911141 ,20,9246273051432
17.7766762 ,Left ,55,8775348450304 ,41,1118569964257 ,20,9745490518663
17.7990841 ,Left ,56,0153491681218 ,41,3428031456289 ,20,9009524698392
17.8217672 ,Left ,56,3523870730301 ,41,3347634050969 ,20,8261518919963
17.8368075 ,Left ,56,4794369465862 ,41,2719990735113 ,20,8882506536607
17.8592881 ,Left ,56,2571542394686 ,41,2689321350673 ,20,8450305574546
17.8817296 ,Left ,56,0515757258689 ,41,1235606673505 ,20,8093964796009
17.8969501 ,Left ,55,8978083408457 ,40,9862707507162 ,20,8983970088258
17.9194762 ,Left ,55,8652381186093 ,41,1622165247223 ,20,947176858007
17.9417087 ,Left ,56,0293796868387 ,41,5745239625125 ,20,8991029872162
17.9569557 ,Left ,56,3241819598049 ,41,78186223259 ,20,9044367760123
17.9794363 ,Left ,56,408715534069 ,41,8002815291277 ,20,9976337386606
18.001722 ,Left ,56,2733862672941 ,41,8506934344294 ,21,0235697417451
18.0167894 ,Left ,56,1732086359885 ,41,888427115884 ,21,0412717585483
18.0390307 ,Left ,56,1310905434818 ,41,9125417965668 ,21,0266670925607
18.0615267 ,Left ,56,1237216278888 ,41,9123265285588 ,20,9919224658466
18.0766565 ,Left ,56,0025446086337 ,41,8824543610953 ,20,9416747360349
18.099111 ,Left ,55,7994418283081 ,41,7856401791457 ,20,9523074946641
18.1216512 ,Left ,55,6568165857299 ,41,6042312546343 ,21,1143958117326
18.1366878 ,Left ,55,7120968636681 ,41,5803238987705 ,21,1519081929578
18.1593523 ,Left ,56,0263177807826 ,41,7029368316159 ,20,9848125487303
18.1820822 ,Left ,56,2612123548848 ,41,7931093569733 ,20,7778955359752
18.1969722 ,Left ,56,2879397616394 ,41,7350090703328 ,20,6836146206749
18.2196031 ,Left ,56,2155606710854 ,41,6311124340292 ,20,6946884043706
18.2417925 ,Left ,56,1091762804529 ,41,6043525708928 ,20,6426651058126
18.256903 ,Left ,56,0467630697249 ,41,5914285361539 ,20,5926081074209
18.2794424 ,Left ,56,043429797093 ,41,5890878777899 ,20,545843015215
18.3020096 ,Left ,56,0338363707089 ,41,6046229230605 ,20,5196542179309
18.3169466 ,Left ,56,0044831128927 ,41,6500291676662 ,20,5101980580687
18.3395021 ,Left ,55,9136883703018 ,41,71546594529 ,20,530074162053
18.3619515 ,Left ,55,78458138274 ,41,8003134158978 ,20,5903399479475
18.3767588 ,Left ,55,6387959321618 ,41,9036827070995 ,20,6395193946745
18.3992889 ,Left ,55,4705431634741 ,41,9405875715711 ,20,6375483331792
18.4218583 ,Left ,55,4714078436786 ,41,856827908099 ,20,6062458203149
18.4367298 ,Left ,55,4518884242389 ,41,8302734667494 ,20,6621353789244
18.4593565 ,Left ,55,5438956076617 ,41,9535433601866 ,20,6354989364777
18.4817078 ,Left ,55,9691991113956 ,41,9815667514628 ,20,4682038171093
18.4968545 ,Left ,56,2846130946488 ,41,7665532539729 ,20,3896216480984
18.5194424 ,Left ,56,1371602582765 ,41,707899663699 ,20,4457711043275
18.5414714 ,Left ,55,8372682260945 ,41,7684721090114 ,20,4337873748023
18.5640704 ,Left ,55,9126199983889 ,41,6683577212931 ,20,4162856257836
18.5788925 ,Left ,55,9611314826204 ,41,4924472421482 ,20,5137643584
18.6015469 ,Left ,55,9291095137322 ,41,6514849631137 ,20,6234523801485
18.6241151 ,Left ,55,8963489028803 ,42,0070651821135 ,20,5704412626467
18.639195 ,Left ,56,1946472671385 ,42,0531215823356 ,20,5553082325307
18.6618109 ,Left ,56,3870647580595 ,41,9286086212887 ,20,569399911614
18.6840922 ,Left ,56,3491279289631 ,41,80669712752 ,20,5450673450709
18.6990704 ,Left ,56,1876574493326 ,41,7074270187438 ,20,5961899477334
18.7215447 ,Left ,56,1151590164575 ,41,649459761619 ,20,6433042238552
18.7440825 ,Left ,56,2575341139406 ,41,5830673143317 ,20,6368886563315
18.7590922 ,Left ,56,3214073930695 ,41,5105898004527 ,20,6688616201093
18.7817932 ,Left ,56,347570873013 ,41,3927742671601 ,20,7772266725783
18.8043457 ,Left ,56,3939702436629 ,41,2542771308318 ,20,8782652255488
18.819265 ,Left ,56,4341199812503 ,41,1417060292315 ,20,9484743028207
18.8420524 ,Left ,56,4306043939742 ,41,0673196346586 ,20,9893647133783
18.8645621 ,Left ,56,4358846078315 ,40,99753536373 ,21,0087717873768
18.879465 ,Left ,56,4604545973087 ,40,9478478822368 ,21,0158670946165
18.9017827 ,Left ,56,4486482399967 ,40,9328683499322 ,21,0202368757375
18.9245163 ,Left ,56,3988854582373 ,40,9401312520308 ,21,0399120970696
18.9394913 ,Left ,56,359966274513 ,40,9535976952169 ,21,0580088563845
18.9617305 ,Left ,56,3510303509008 ,40,9531630579776 ,21,0628959407013
18.9845395 ,Left ,56,3666956982286 ,40,9555110501428 ,21,0625904980444
18.9994271 ,Left ,56,3779063128521 ,40,9671306940681 ,21,0625491298574
19.0370425 ,Left ,56,2984098810058 ,40,9962743137497 ,21,0995190554907
19.0669286 ,Left ,56,3071524829341 ,41,0078534213783 ,21,1017259321515
19.0817676 ,Left ,56,2995956507232 ,41,0212777083973 ,21,109226044361
19.1043941 ,Left ,56,4094535477007 ,40,9926640001649 ,21,0540274395115
19.1194438 ,Left ,56,4190236067954 ,41,0678574898332 ,21,0359090884256
19.1342488 ,Left ,56,3873761210882 ,40,9349115768686 ,21,0372571579266
19.1567981 ,Left ,56,2795443700393 ,41,0715697796251 ,21,0969618423113
19.1792089 ,Left ,56,2567293951142 ,40,953229471151 ,21,1076541089732
19.1947357 ,Left ,56,0667093126577 ,41,1470742405998 ,21,1678746502544
19.21696 ,Left ,55,9550843175221 ,40,993465587803 ,21,1346194274757
19.2391002 ,Left ,55,9416898505353 ,41,0456042656014 ,21,1209472477298
19.254114 ,Left ,55,9426757631118 ,40,9987411536012 ,21,22382873825
19.2767478 ,Left ,55,9291215255146 ,41,1519174003104 ,21,2009638260563
19.2990934 ,Left ,55,9996749819265 ,41,3247943766921 ,21,1524929896788
19.3140737 ,Left ,56,1873349969193 ,41,3875544344826 ,21,1053342421589
19.3365392 ,Left ,56,3564979113379 ,41,3612257168051 ,21,0760534099208
19.3594565 ,Left ,56,3443860652961 ,41,3313286554959 ,21,0569503841036
19.3740693 ,Left ,56,2481292367265 ,41,1631947326965 ,21,0514453407677
19.3966922 ,Left ,56,2257948262982 ,41,0401043586024 ,21,0164724238374
19.4192319 ,Left ,56,2785459242503 ,40,9144614492917 ,20,9820339693862
19.4341622 ,Left ,56,2461005183678 ,40,8878666692768 ,20,989933540039
19.4564968 ,Left ,56,1391143331989 ,40,8572542897903 ,21,0221760091708
19.4791231 ,Left ,56,0486075678285 ,40,7569067480287 ,21,0833870717896
19.4943912 ,Left ,55,8698326611949 ,40,5529886692997 ,21,2147974910919
19.5168675 ,Left ,56,1081923824246 ,40,5852689550847 ,21,2418645436021
19.5390928 ,Left ,56,2820151197765 ,40,8096466326697 ,21,0401819077797
19.5541786 ,Left ,56,5150136140234 ,40,829361883134 ,20,9547229376543
19.5766759 ,Left ,56,5496110523828 ,40,8993775599957 ,21,0213432453061
19.5992634 ,Left ,56,3349512727795 ,40,9927432328928 ,20,9796387041981
19.6218082 ,Left ,56,2412510071273 ,40,9314548905721 ,20,9697336342813
19.6368125 ,Left ,56,1443619803048 ,40,7941394078023 ,21,0549550377638
19.6596738 ,Left ,56,0074217856506 ,40,9169731758768 ,21,1086287463868
19.6823295 ,Left ,55,9944084034398 ,41,3065591187291 ,21,0115330995413
19.6969343 ,Left ,56,252554140239 ,41,5271841584106 ,20,9692884481954
19.7193997 ,Left ,56,4107536879893 ,41,4796742628813 ,21,0725052043064
19.7420018 ,Left ,56,3625512626317 ,41,4408792901714 ,21,0957888400502
19.7567301 ,Left ,56,2261776926361 ,41,3978713751665 ,21,1158096544251
19.7793207 ,Left ,56,1394625854413 ,41,3580293160849 ,21,1322251271213
19.8018399 ,Left ,56,1780615677706 ,41,3375329481222 ,21,0971869335021
19.8166124 ,Left ,56,2457104569127 ,41,3487604714424 ,21,0596116241915
19.8393403 ,Left ,56,2349442260348 ,41,3546247509521 ,21,048833855614
19.8617868 ,Left ,56,1397013621784 ,41,310311943729 ,21,0822897572913
19.8691905 ,Left ,56,0559961553904 ,41,2933166233285 ,21,1429705924846
19.8918706 ,Left ,55,9563087898058 ,41,2676785745993 ,21,2320938355223
19.9143781 ,Left ,55,7851337840068 ,41,1486159863167 ,21,3841945632099
19.9368302 ,Left ,55,8233344501917 ,41,1880676273255 ,21,4663828102347
19.9743863 ,Left ,55,9490412240898 ,41,6491235379785 ,21,2137835207031
19.9969362 ,Left ,56,0486421653474 ,41,6163526714344 ,21,1455455044202
20.0343967 ,Left ,55,9112058926841 ,41,6044155618146 ,20,9468668142892
20.056677 ,Left ,55,8739526569721 ,41,6114420493118 ,20,8574316943728
20.09445 ,Left ,55,8596119091629 ,41,5712079606025 ,20,6834004763522
20.1165914 ,Left ,55,825018860322 ,41,5542025417679 ,20,6883350308424
20.1549305 ,Left ,55,6780630329638 ,41,5862871169194 ,20,7242117050166
20.1769893 ,Left ,55,5617929338385 ,41,5836290390117 ,20,682644070175
20.2144227 ,Left ,55,4442797771752 ,41,5487303655439 ,20,8186805559478
20.2368487 ,Left ,55,5146991243329 ,41,6869745652417 ,20,8451376956931
20.2743692 ,Left ,56,2197354310302 ,41,3217710724832 ,20,6332953622126
20.2966732 ,Left ,55,9604378156202 ,41,3401593088058 ,20,6801054660713
20.3343352 ,Left ,55,7458796653608 ,41,3650020394471 ,20,6389448411096
20.356766 ,Left ,55,9977585122298 ,41,150133067308 ,20,6094304881834
20.3942565 ,Left ,55,6914114728095 ,41,3695183497535 ,20,6867873519598
20.4169003 ,Left ,55,9184718085757 ,41,4041890519552 ,20,6639076007463
20.4541643 ,Left ,55,9561860306849 ,41,2005638283694 ,20,7040859158089
20.4766699 ,Left ,55,84891257561 ,41,1378385767477 ,20,7727919704714
20.5140926 ,Left ,55,8430243123634 ,41,0725412492241 ,20,8642021451784
20.536655 ,Left ,55,8526744825068 ,41,0770832891591 ,20,8735849828885
20.5741149 ,Left ,55,9284007734578 ,40,9720677705638 ,20,9670218733754
20.5966189 ,Left ,55,8303918467546 ,40,9136447732975 ,21,0160399117379
20.6349423 ,Left ,55,7198806621624 ,40,8497553307535 ,21,0504888268319
20.6571736 ,Left ,55,7316395954219 ,40,8117398686932 ,21,0529636935018
20.694518 ,Left ,55,5808637056734 ,40,8055664933516 ,21,0955978161661
20.7170074 ,Left ,55,5020363630329 ,40,8381871497238 ,21,1290662797969
20.7544933 ,Left ,55,5482355030155 ,40,8408987481568 ,21,1425141608324
20.776966 ,Left ,55,5218697493716 ,40,8160505973335 ,21,1705262239294
20.7919927 ,Left ,55,486722471993 ,40,8229498039937 ,21,1853610121165
20.8144556 ,Left ,55,4926788062578 ,40,8392930001596 ,21,1904905299568
20.8369871 ,Left ,55,5253662309332 ,40,8399864813358 ,21,1783834298301
20.8518621 ,Left ,55,5332309506298 ,40,8288629731045 ,21,1780720185796
20.8743228 ,Left ,55,4896977308208 ,40,8228942140778 ,21,1993000259743
20.8968111 ,Left ,55,4629969907921 ,40,8421595259177 ,21,2038483014509
20.9115867 ,Left ,55,4588082510167 ,40,8652536624795 ,21,2012456207909
20.934299 ,Left ,55,4481907973872 ,40,8746516976386 ,21,1964422428399
20.9565805 ,Left ,55,4284571358042 ,40,8679460391783 ,21,202592720093
20.9719038 ,Left ,55,3827331858591 ,40,8616657695755 ,21,2178335954021
20.9941082 ,Left ,55,3035844744314 ,40,8624491432939 ,21,2414357655144
21.0165379 ,Left ,55,1791186900704 ,40,8772374767135 ,21,2700054578737
21.0316349 ,Left ,55,0534650793456 ,40,864298523755 ,21,279054516736
21.0542837 ,Left ,55,1416949452867 ,40,7251676238717 ,21,2197276834169
21.0767145 ,Left ,55,0342584642084 ,40,6514201444037 ,21,3486913527292
21.0918456 ,Left ,54,9332020237913 ,40,7270704766666 ,21,3722286046614
21.1143338 ,Left ,55,0640817826468 ,40,8786770396823 ,21,3123000701704
21.1366558 ,Left ,55,2598349015512 ,40,9542111554016 ,21,2548418930732
21.1741976 ,Left ,55,3697611229186 ,40,8622299649864 ,21,2494563955403
21.1965711 ,Left ,55,2955714289383 ,40,7170517973066 ,21,2387924474389
21.2117962 ,Left ,55,2444263139305 ,40,5310293661865 ,21,1698651463923
21.2341315 ,Left ,55,243986735113 ,40,3553059090817 ,21,1560863939883
21.2568381 ,Left ,54,9784104493834 ,40,3407590172067 ,21,3402754815168
21.272334 ,Left ,54,7904360745015 ,40,7255600223117 ,21,4159974869932
21.2943442 ,Left ,54,8769970157396 ,41,2307193331331 ,21,3072778697851
21.3166854 ,Left ,55,2392678551441 ,41,3367711449549 ,21,2242602710459
21.3316397 ,Left ,55,4805874020961 ,41,112246399091 ,21,2301100243812
21.354138 ,Left ,55,4417215123651 ,40,9126433043565 ,21,2623049861376
21.3779632 ,Left ,55,2402158938647 ,40,9188236922164 ,21,3553996406604
21.3917434 ,Left ,55,1239601538871 ,41,1018033125787 ,21,405555972568
21.4141761 ,Left ,55,2246447382157 ,41,2510604126032 ,21,3634711008723
21.4368956 ,Left ,55,3638408745146 ,41,3406328823787 ,21,3337363938016
21.4519904 ,Left ,55,3778887679182 ,41,3206466750288 ,21,3171468297343
21.4741931 ,Left ,55,3042333734 ,41,2974601872188 ,21,2940901747657
21.4966049 ,Left ,55,2815715992494 ,41,27738167123 ,21,2696283680472
21.5340869 ,Left ,55,329298568424 ,41,2164586758446 ,21,2358218560871
21.556766 ,Left ,55,3330525162358 ,41,1985246546611 ,21,2434007420626
21.59453 ,Left ,55,3396380632598 ,41,1896608607256 ,21,2604914398563
21.6168278 ,Left ,55,3556787909235 ,41,1707842758826 ,21,2560528508536
21.6543534 ,Left ,55,2316736790795 ,41,2105491884347 ,21,2749528504329
21.676741 ,Left ,55,1243929330379 ,41,1947375282972 ,21,2262464709135
21.7141386 ,Left ,55,0907632713037 ,41,2092642475168 ,21,271433128735
21.7293776 ,Left ,55,1378784421548 ,41,471440168933 ,21,2621663689292
21.7518551 ,Left ,55,3898437496601 ,41,6906400928075 ,21,1871342924786
21.7668584 ,Left ,55,6435326363842 ,41,6819785573529 ,21,1747617795543
21.7896248 ,Left ,55,6050569512756 ,41,6488851373071 ,21,1920341644699
21.8121744 ,Left ,55,5061803439189 ,41,6654498911093 ,21,1993112450668
21.8271314 ,Left ,55,4869170955253 ,41,621841318548 ,21,215461994834
21.8495258 ,Left ,55,5415478176573 ,41,5728875142368 ,21,1904835858208
21.872239 ,Left ,55,554936865682 ,41,5165076647421 ,21,1720194506903
21.8945287 ,Left ,55,504603435059 ,41,4867362101591 ,21,197061165983
21.916987 ,Left ,55,4166596330091 ,41,4417774122093 ,21,246532399719
21.9469069 ,Left ,55,4648101003851 ,41,3440730685155 ,21,3095415699782
21.969459 ,Left ,55,5822048883961 ,41,5328324130492 ,21,1830804681505
21.9918752 ,Left ,55,6828261939236 ,41,7345162613526 ,21,0165788134702
22.0068466 ,Left ,55,7313426522612 ,41,8132755275148 ,20,9353692459157
22.0292063 ,Left ,55,7136955493672 ,41,8554037263669 ,20,9416718073901
22.0520481 ,Left ,55,7038923499246 ,41,8936399401592 ,20,886201162373
22.0668239 ,Left ,55,6724684907006 ,41,9035522301555 ,20,8369554651001
22.0892107 ,Left ,55,6525090487419 ,41,8869845474417 ,20,7904072961703
22.1119628 ,Left ,55,677112004021 ,41,8330287406498 ,20,7429088215719
22.1270931 ,Left ,55,6910718120619 ,41,7921338186106 ,20,7098128688074
22.1493973 ,Left ,55,6474507256724 ,41,7433678748001 ,20,7061338108456
22.1719775 ,Left ,55,6039080149962 ,41,7050673649263 ,20,7204513142404
22.1869348 ,Left ,55,6282981392494 ,41,6775380282764 ,20,723656836204
22.2094653 ,Left ,55,6258976396253 ,41,6437549115787 ,20,7332092038091
22.2319938 ,Left ,55,6001060094136 ,41,6274189536974 ,20,756779670486
22.24676 ,Left ,55,557101694258 ,41,6280616259652 ,20,780145862405
22.2694257 ,Left ,55,5426857526131 ,41,6246890397393 ,20,8071588328381
22.2918138 ,Left ,55,558853488284 ,41,6275185023829 ,20,8237800352301
22.3068709 ,Left ,55,5531943515178 ,41,6151280822263 ,20,8359919956778
22.3295895 ,Left ,55,5352250422323 ,41,5997276248083 ,20,8427943119115
22.3520581 ,Left ,55,5113797179608 ,41,5898150728106 ,20,8460348716744
22.3665381 ,Left ,55,4707617289431 ,41,6239537210623 ,20,8406699512691
22.3892239 ,Left ,55,4360902433923 ,41,6817953171925 ,20,8251737397578
22.4118205 ,Left ,55,4319344326057 ,41,7307535246892 ,20,8138079848066
22.4266075 ,Left ,55,4253501698387 ,41,7676579248117 ,20,8092853378129
22.4492157 ,Left ,55,3562997198278 ,41,7993632018809 ,20,8244545992346
22.4718248 ,Left ,55,2598672124677 ,41,8475056438815 ,20,8033064437852
22.4940926 ,Left ,55,1355799723438 ,41,8651626694465 ,20,7824283066975
22.509194 ,Left ,55,19017708492 ,41,7871918149391 ,20,7708207375969
22.5317778 ,Left ,55,1466400539815 ,41,6851744589751 ,20,874337343578
22.5544925 ,Left ,55,2929363891096 ,41,7462141605511 ,20,8970400870627
22.5692368 ,Left ,55,589810568433 ,41,8003850928642 ,20,7959388241633
22.5917828 ,Left ,55,901912278507 ,41,6608549569856 ,20,7206336954101
22.614432 ,Left ,55,7837963207079 ,41,6371099549954 ,20,7527442890623
22.6291849 ,Left ,55,5310627632123 ,41,8247125534244 ,20,6965908294777
22.651582 ,Left ,55,5746616596557 ,41,782236259458 ,20,6520913584646
22.6740354 ,Left ,55,7108160025996 ,41,5541809560875 ,20,7018684263283
22.6893286 ,Left ,55,6087818792191 ,41,6376538481825 ,20,8651939913252
22.7116864 ,Left ,55,5578138539671 ,41,889422838077 ,20,8578671310795
22.734214 ,Left ,55,8798321204669 ,41,9246843055653 ,20,8631751619546
22.7491192 ,Left ,56,0560677837664 ,41,7955328581394 ,20,8693930315318
22.7715297 ,Left ,56,0178573900768 ,41,7188647624303 ,20,8684791487631
22.7942089 ,Left ,55,8940297076467 ,41,6856904485159 ,20,9266073787456
22.8092735 ,Left ,55,8643491111 ,41,6771735408893 ,20,9394588763738
22.8316536 ,Left ,55,9295075017736 ,41,655631626123 ,20,9130332939498
22.854324 ,Left ,55,9495854100328 ,41,634973616989 ,20,931061406441
22.8693703 ,Left ,56,0029131390528 ,41,4949099474645 ,20,9974029667332
22.8917092 ,Left ,56,0848438239585 ,41,3100793938309 ,21,0660691945147
22.914169 ,Left ,56,0604925500993 ,41,1789388922433 ,21,1127856325011
22.9292784 ,Left ,56,0033598181805 ,41,1116411095823 ,21,1377714716387
22.9519316 ,Left ,56,0104636966619 ,41,0777666881066 ,21,1346970490573
22.9745111 ,Left ,56,0214224510138 ,41,0772756676159 ,21,1135168714897
22.9896055 ,Left ,55,9745103198212 ,41,0732681815646 ,21,1163756507532
23.0121537 ,Left ,55,9024102629917 ,41,0879908314074 ,21,1438032990901
23.0345848 ,Left ,55,8837248147854 ,41,0928506810902 ,21,1644303834908
23.0493802 ,Left ,55,9119142315793 ,41,0693165045218 ,21,1664571127836
23.0720741 ,Left ,55,9478035549078 ,41,0628275373502 ,21,1671117556868
23.0946042 ,Left ,55,9276586891251 ,41,0766443415808 ,21,1760797219591
23.1094731 ,Left ,55,8888882905544 ,41,0840756024816 ,21,1987912378468
23.1320076 ,Left ,55,9082946067765 ,41,0965288157824 ,21,2047400221136
23.1546159 ,Left ,55,9372833540238 ,41,1166148513994 ,21,2036609076608
23.1696351 ,Left ,55,9240403311214 ,41,1392953998162 ,21,2059947960922
23.1919537 ,Left ,55,8982072566244 ,41,1515230177141 ,21,225690499453
23.2145717 ,Left ,55,8446099194683 ,41,1558936941363 ,21,2416523360141
23.2295328 ,Left ,55,7935175353115 ,41,1358469387529 ,21,2627222805287
23.251598 ,Left ,55,7592121829732 ,41,1550624715044 ,21,298201325491
23.2817347 ,Left ,55,5556124519752 ,41,1691353242442 ,21,3290573121899
23.2968378 ,Left ,55,4124986072629 ,41,1143578785934 ,21,2760304450318
23.3209563 ,Left ,55,3876331927437 ,40,9888514016304 ,21,3020629408294
23.3348302 ,Left ,55,3644068735949 ,41,0033154648192 ,21,3793080300584
23.3498716 ,Left ,55,3084694066995 ,41,1449989785335 ,21,3964331487128
23.3738537 ,Left ,55,3862987520369 ,41,2384046575902 ,21,3966669568452
23.3869349 ,Left ,55,5623828261049 ,41,4427397015901 ,21,3903691575258
23.4092525 ,Left ,55,6773979280752 ,41,3140972494367 ,21,3561968654157
23.4318567 ,Left ,55,6602231688268 ,41,4672118962545 ,21,3499067073985
23.4468996 ,Left ,55,554533371559 ,41,3680094453001 ,21,3449453788077
23.4694261 ,Left ,55,5310327343182 ,41,4961978448095 ,21,3291872318857
23.492436 ,Left ,55,538606564239 ,41,333907532334 ,21,3294069751235
23.5074265 ,Left ,55,4457494673796 ,41,2588374523108 ,21,3267728582284
23.5296418 ,Left ,55,3185469040192 ,41,1872322869821 ,21,3315185846136
23.5519921 ,Left ,55,2788758683253 ,40,9671252096034 ,21,3645964774077
23.5669727 ,Left ,55,4295591156639 ,40,9227885993553 ,21,4689016616189
23.5892602 ,Left ,55,6266896358522 ,41,1138590360262 ,21,35040338913
23.6117306 ,Left ,55,9172631217223 ,41,1628243855913 ,21,2095401084668
23.6269066 ,Left ,56,1119435416494 ,41,0669918735579 ,21,2502157681312
23.6494707 ,Left ,56,069161985758 ,41,0949325695934 ,21,1987992832253
23.6717333 ,Left ,55,9994687931385 ,41,0964717337659 ,21,1782601206215
23.6867095 ,Left ,55,9945747850818 ,40,9026180685038 ,21,1908896509129
23.7091286 ,Left ,55,8300713063431 ,40,9713052879127 ,21,3206164330015
23.7316373 ,Left ,55,7735881934638 ,41,3077745961473 ,21,2569411034997
23.7466382 ,Left ,55,9904183724195 ,41,5489849066662 ,21,224626628531
23.7692547 ,Left ,56,1207485608571 ,41,5431337069976 ,21,323042065962
23.7918818 ,Left ,56,0157968921706 ,41,5366719194469 ,21,3581415630484
23.8074828 ,Left ,55,8390390771367 ,41,5408879244479 ,21,379992462243
23.8299381 ,Left ,55,7652430220089 ,41,5355594460118 ,21,3723846691179
23.8521618 ,Left ,55,8234879838413 ,41,5305231633303 ,21,3105514267498
23.866926 ,Left ,55,8641455207604 ,41,5228074456903 ,21,265391210112
23.8894886 ,Left ,55,8156583688471 ,41,5283088118427 ,21,2542581626675
23.9119509 ,Left ,55,7435428159 ,41,493490254048 ,21,2680360116894
23.9268061 ,Left ,55,7452645389459 ,41,4452679964984 ,21,2840316928056
23.949463 ,Left ,55,7748943267771 ,41,4313496023329 ,21,2656682116278
23.9720284 ,Left ,55,7946309715905 ,41,4292418369322 ,21,2490597370627
23.9868989 ,Left ,55,7758030567939 ,41,4128374160084 ,21,2340579906358
24.009227 ,Left ,55,7301160350264 ,41,3602557581446 ,21,2323799050242
24.0316493 ,Left ,55,6715978436639 ,41,358673751616 ,21,2347635783511
24.0465239 ,Left ,55,5391561959848 ,41,3652966892536 ,21,2667152901672
24.0693184 ,Left ,55,3083229388003 ,41,3160422035887 ,21,4123715803259
24.0918181 ,Left ,55,3523760235069 ,41,4501193220292 ,21,4359548964157
24.106672 ,Left ,55,4840845162114 ,41,7552042822209 ,21,3368162872247
24.1293551 ,Left ,55,6969833933091 ,41,8346309826356 ,21,2487595377734
24.1518406 ,Left ,55,7040166292404 ,41,825302077413 ,21,2443564798693
24.1742958 ,Left ,55,6275888435457 ,41,8054405833811 ,21,173618684009
24.1966186 ,Left ,55,5858361099619 ,41,7970476957212 ,21,09170490463
24.2192821 ,Left ,55,6663298203974 ,41,8062040806228 ,20,9806556792372
24.2343149 ,Left ,55,6961147188741 ,41,7683444168094 ,20,8635587135491
24.2568026 ,Left ,55,6506052393173 ,41,7148648083062 ,20,8235582592597
24.2793557 ,Left ,55,5847009160994 ,41,6810763033585 ,20,8471603770125
24.294407 ,Left ,55,4555655928757 ,41,6495012754997 ,20,8573654868511
24.3168703 ,Left ,55,3798139105332 ,41,5783640292178 ,20,8825211680644
24.3393586 ,Left ,55,2405770489631 ,41,4656725217844 ,20,9951928564854
24.3540806 ,Left ,55,3184470285809 ,41,5276695597297 ,21,0781023108282
24.376629 ,Left ,55,5663394188438 ,41,7128203257353 ,20,981838273981
24.399131 ,Left ,55,9764689272023 ,41,6133948799932 ,20,8473369369465
24.414134 ,Left ,55,9438588924172 ,41,4556735368788 ,20,8966351779377
24.4366865 ,Left ,55,6449802760024 ,41,55226732412 ,20,8971162781294
24.4592195 ,Left ,55,5690867082234 ,41,5332231854087 ,20,8567389202838
24.4745727 ,Left ,55,7007186743347 ,41,339493630396 ,20,7655743188528
24.4964298 ,Left ,55,5560416796883 ,41,2436556630099 ,20,9466641084574
24.5190643 ,Left ,55,459804637982 ,41,4495552243657 ,21,0116367873641
24.5343696 ,Left ,55,7042561014196 ,41,6591083413708 ,20,9724613281373
24.5565119 ,Left ,56,0553657004141 ,41,6124053113781 ,20,984803284668
24.5793072 ,Left ,56,1472111943283 ,41,5305133931144 ,20,9889201917969
24.5943372 ,Left ,56,0587660326681 ,41,4768833792327 ,21,0453313241657
24.6167478 ,Left ,55,9056200235993 ,41,4721563314546 ,21,1294169012898
24.6393975 ,Left ,56,0089957322913 ,41,4291009449638 ,21,1482514848925
24.6544431 ,Left ,56,0575687524445 ,41,3954128420278 ,21,1454749663925
24.6767854 ,Left ,56,105846848643 ,41,2718584497064 ,21,1974748481742
24.6992927 ,Left ,56,1774322044688 ,41,0765669123996 ,21,3063386630298
24.7145735 ,Left ,56,1552622580613 ,40,9438132144424 ,21,3620933761872
24.7369023 ,Left ,56,0964164225873 ,40,8909660766296 ,21,3549007152006
24.7594362 ,Left ,56,0867748463024 ,40,8685240682433 ,21,3566460595865
24.774564 ,Left ,56,1051786823646 ,40,8795657161636 ,21,3659404467148
24.7969802 ,Left ,56,0874473501535 ,40,9079716905982 ,21,3891468239151
24.8194504 ,Left ,56,0389843573257 ,40,9496640152868 ,21,4177540190073
24.8344913 ,Left ,55,9906417157746 ,40,9832942269709 ,21,4339632339725
24.8569799 ,Left ,55,9822462371923 ,40,9956058388286 ,21,444741870135
24.8795164 ,Left ,56,0275185164112 ,40,9941206341593 ,21,4457396761881
24.8943238 ,Left ,56,0706580821145 ,40,9908290742854 ,21,438919243079
24.9170812 ,Left ,56,0382064317846 ,40,9808691544384 ,21,4517000726389
24.9543911 ,Left ,56,0193493400728 ,40,9609915580838 ,21,4571306278965
24.9693312 ,Left ,56,0451396645152 ,40,9443492185888 ,21,4390350919377
24.9921111 ,Left ,56,060981573739 ,40,9332858803278 ,21,426082003449
25.0146204 ,Left ,56,0554203117806 ,40,9298667124078 ,21,4270632306636
25.0295466 ,Left ,56,0443166512252 ,40,9265896208815 ,21,4274476428858
25.0594322 ,Left ,56,0572234078158 ,40,9344045174067 ,21,4190779338912
25.0820277 ,Left ,56,0903335253562 ,40,9282512492121 ,21,401486689337
25.0969194 ,Left ,56,105894451205 ,40,9156621043895 ,21,3813662205093
25.1345037 ,Left ,56,0596987797769 ,40,9170432085916 ,21,3464958335148
25.1494244 ,Left ,56,0756363059312 ,40,9316699353566 ,21,3153791976619
25.1720663 ,Left ,56,0968968219811 ,40,9081758031634 ,21,2926756530045
25.1944875 ,Left ,56,1152723680267 ,40,8892095443296 ,21,2729990263382
25.2094277 ,Left ,56,1022877691702 ,40,8883636783993 ,21,2636486366219
25.2316879 ,Left ,56,0861335223778 ,40,8984248695722 ,21,2546217647507
25.2541963 ,Left ,56,1042028700345 ,40,8970817901179 ,21,2391070151885
25.2766364 ,Left ,56,1042028700345 ,40,8970817901179 ,21,2391070151885
25.291858 ,Left ,56,0869998883836 ,40,9138753337335 ,21,2380452274321
25.3142358 ,Left ,56,0623174823316 ,40,9366089750208 ,21,243724897474
25.3444845 ,Left ,56,063568536763 ,40,9462034674176 ,21,2482545672769
25.359588 ,Left ,56,0753393519122 ,40,9450286379257 ,21,2537221064049
25.3822635 ,Left ,56,0895245513713 ,40,9441577898619 ,21,24615308579
25.3969897 ,Left ,56,1180985801916 ,40,9171697460737 ,21,2116178391105
25.4119075 ,Left ,56,0161589802717 ,40,8850795366535 ,21,2334949537012
25.4344354 ,Left ,56,0918468311662 ,40,6888771850694 ,21,1961916652318
25.4570238 ,Left ,56,1826424539225 ,40,5142546292074 ,21,1611302754044
25.4720973 ,Left ,56,2149408252674 ,40,3634027160343 ,21,1421177894751
25.4944625 ,Left ,56,1233867422475 ,40,2940424428273 ,21,1768371665317
25.517052 ,Left ,55,9849764425314 ,40,3954115310098 ,21,2424035932446
25.531892 ,Left ,55,9213171622506 ,40,6157098798397 ,21,2786969461715
25.5545467 ,Left ,55,9998802612891 ,40,7599542852548 ,21,2342721909669
25.5769475 ,Left ,56,0932821572387 ,40,6449143992038 ,21,184244103418
25.5920638 ,Left ,56,0521963920888 ,40,4403704579825 ,21,210238879371
25.6143711 ,Left ,55,7961980680152 ,40,4271104017448 ,21,2435294871136
25.6370103 ,Left ,55,4961501036801 ,40,480262166741 ,21,2570440291199
25.6521278 ,Left ,55,4285738710132 ,40,5048068584244 ,21,4027058517079
25.6670499 ,Left ,55,5750320444211 ,40,6213235763863 ,21,3175635030793
25.6895208 ,Left ,55,7043659620541 ,40,8522824110766 ,21,2093214611441
25.7045226 ,Left ,55,7995226354049 ,41,0447482611704 ,21,1755709028902
25.7269841 ,Left ,55,8989317172479 ,41,1445218204057 ,21,2032518707482
25.7496186 ,Left ,55,895332420144 ,41,1311316499859 ,21,2321963645023
25.7644165 ,Left ,55,7667161247498 ,41,0863670357609 ,21,2593653375142
25.7870933 ,Left ,55,6935849366789 ,41,0137187354927 ,21,2485244942196
25.8095994 ,Left ,55,7224608294627 ,40,9467429386503 ,21,2249215965374
25.8322109 ,Left ,55,7561740212456 ,40,9006548070107 ,21,2030525394734
25.8694397 ,Left ,55,722749045688 ,40,8371917992847 ,21,1920438857503
25.892217 ,Left ,55,7223576052251 ,40,81813988955 ,21,2077093409092
25.9293807 ,Left ,55,7477435009264 ,40,8103442092411 ,21,2006143269704
25.9520526 ,Left ,55,7342344612263 ,40,8139932474984 ,21,1998532041963
25.9895581 ,Left ,55,6722334462579 ,40,8657978659887 ,21,2201498175956
26.0119363 ,Left ,55,6805301054811 ,40,8858388868868 ,21,2294169753778
26.0570496 ,Left ,55,7155668620508 ,40,9551052887848 ,21,2383704541224
26.0795625 ,Left ,55,7689165270218 ,40,9957850744504 ,21,2363867455251
26.1095928 ,Left ,55,8324694424427 ,41,0035745459682 ,21,2190398558215
26.1322659 ,Left ,55,7829077199338 ,41,059391808182 ,21,2500253130697
26.1692558 ,Left ,55,6485393570203 ,41,0170858888485 ,21,2375525370512
26.191806 ,Left ,55,6835860171014 ,40,9495016171504 ,21,3480547618341
26.2290714 ,Left ,56,1968223396422 ,41,1525578926299 ,21,2675845795175
26.2519281 ,Left ,56,4256330568759 ,41,1322398601936 ,21,2504739242194
26.2894211 ,Left ,56,0825187598156 ,41,2472060003522 ,21,2929473211926
26.311746 ,Left ,56,1053390300301 ,41,0434388238255 ,21,2659661126256
26.3567129 ,Left ,55,9033304094272 ,41,1126074126899 ,21,4204135310172
26.4093397 ,Left ,56,2655797047917 ,41,2097789280043 ,21,458355841484
26.4319375 ,Left ,56,1222161336714 ,41,2031875955652 ,21,4792945084932
26.4695168 ,Left ,56,0660616050641 ,41,1877981521689 ,21,4188011007729
26.492033 ,Left ,56,052646258335 ,41,1757847510805 ,21,3882769128587
26.5295206 ,Left ,56,0129773175914 ,41,1032592581831 ,21,4479085235949
26.55197 ,Left ,55,9834864912703 ,41,1099056987994 ,21,4597428296571
26.5969341 ,Left ,55,927318904766 ,41,1989280710288 ,21,4526428880187
26.6494276 ,Left ,55,7270160570494 ,41,2910356196667 ,21,4751401618332
26.6720647 ,Left ,55,5319481592712 ,41,1822128430113 ,21,5539572135141
26.7095083 ,Left ,55,5724666467589 ,41,2509874018822 ,21,5906140107726
26.7321498 ,Left ,55,6843212556864 ,41,3708210413089 ,21,4828324337896
26.7695772 ,Left ,55,7256770784025 ,41,3191184602088 ,21,4062768724774
26.7920548 ,Left ,55,7055490008432 ,41,3134608768236 ,21,3452448655871
26.829544 ,Left ,55,7239001049248 ,41,302668212371 ,21,1976393831007
26.8519011 ,Left ,55,7391950554758 ,41,2773574978758 ,21,1235547001294
26.8671691 ,Left ,55,7310363433952 ,41,2627627009254 ,21,067192835251
26.8893222 ,Left ,55,6949186842707 ,41,28170542369 ,21,0259830275118
26.9120188 ,Left ,55,6720717991852 ,41,3174017823477 ,20,9949184684754
26.9287522 ,Left ,55,6777801453487 ,41,3616091757775 ,20,9986614914475
26.9494741 ,Left ,55,6960814182311 ,41,5166374967571 ,21,0116452994602
26.9720272 ,Left ,55,7447285850181 ,41,6839111949159 ,20,9682805819832
26.9868812 ,Left ,55,7178674443608 ,41,6464823815674 ,20,9185220495851
27.0095606 ,Left ,55,5570345349609 ,41,6960295556191 ,20,9184017821404
27.0316473 ,Left ,55,6020051653367 ,41,6465289698408 ,20,8438134451338
27.0465963 ,Left ,55,5102772666137 ,41,6617426713265 ,20,875837846851
27.0691237 ,Left ,55,4665693048952 ,41,6069560746149 ,20,9699311688572
27.092493 ,Left ,55,4662568260495 ,41,8072051516071 ,21,0428010028845
27.1073898 ,Left ,55,6851400827976 ,41,9784364508739 ,20,9929938503603
27.1297204 ,Left ,55,9311623013683 ,41,8223333653694 ,20,9804144865687
27.1519368 ,Left ,55,723070197148 ,41,8293287550718 ,20,9245945581863
27.189052 ,Left ,55,7046683163289 ,41,7217761415455 ,20,7572414337028
27.2116787 ,Left ,55,6897808713018 ,41,5800991830149 ,20,8764737436418
27.2491587 ,Left ,55,6428557833639 ,42,0717627840617 ,20,9099753466752
27.2793117 ,Left ,55,9181097904532 ,42,1618579387605 ,20,9390963135816
27.3169787 ,Left ,55,9861022810083 ,41,8841096528435 ,20,9530729230168
27.3316743 ,Left ,55,8564772427133 ,41,781982363528 ,21,0334541439575
27.3692528 ,Left ,56,0415002261179 ,41,6541675569508 ,21,0872990972481
27.3918707 ,Left ,56,1145627496098 ,41,5889443862995 ,21,1288004158507
27.4293752 ,Left ,56,2093009652828 ,41,4029083260381 ,21,3008221899266
27.451892 ,Left ,56,2185093962798 ,41,3188213509283 ,21,346453458482
27.4893501 ,Left ,56,1739571845384 ,41,1887146071205 ,21,4219305005686
27.511911 ,Left ,56,1727292460041 ,41,1360582905011 ,21,4317023545893
27.5493355 ,Left ,56,0953542608614 ,41,0796078952563 ,21,4385514999992
27.5720389 ,Left ,56,0237180470055 ,41,0862729806326 ,21,474093868349
27.6094991 ,Left ,56,053050558022 ,41,1076900851049 ,21,5232855068671
27.6319663 ,Left ,56,0736714481058 ,41,0856812091222 ,21,5294865736352
27.6692602 ,Left ,55,9817144369261 ,41,1019784388912 ,21,5458565727206
27.692046 ,Left ,55,9628051143385 ,41,1306423568046 ,21,5450529671259
27.7368417 ,Left ,56,0021793952866 ,41,1491194560692 ,21,5444342435875
27.7592675 ,Left ,55,9894644244356 ,41,169536830004 ,21,5516672567486
27.7816809 ,Left ,55,9305537160068 ,41,2431541755747 ,21,5815194621221
27.8041411 ,Left ,55,9147574584487 ,41,259856911724 ,21,5914127197618
27.8268135 ,Left ,55,8563119388236 ,41,2758234165286 ,21,6238053485874
27.8418536 ,Left ,55,7343858490623 ,41,3190384269009 ,21,6396136897539
27.8644609 ,Left ,55,5399549956204 ,41,3163855382123 ,21,6412788727956
27.886968 ,Left ,55,4659638948884 ,41,204484820355 ,21,6362070978168
27.9094319 ,Left ,55,4712160971538 ,41,152685486615 ,21,7125244675762
27.9244158 ,Left ,55,5633333615245 ,41,3133791614095 ,21,6716618728156
27.9467684 ,Left ,55,6763504530332 ,41,4643398430875 ,21,5974578486465
27.9616803 ,Left ,55,8063465210969 ,41,5336765568265 ,21,546063055611
27.9840851 ,Left ,55,8853900355179 ,41,549986546087 ,21,5195975941528
28.0071526 ,Left ,55,8953219025618 ,41,5370696526812 ,21,4680968642906
28.0292361 ,Left ,55,8666199501488 ,41,5202123816731 ,21,4213652181473
28.0444114 ,Left ,55,8682583775922 ,41,4720584170455 ,21,3933438246986
28.0669113 ,Left ,55,8975788310258 ,41,4111141055315 ,21,3919506651604
28.0817858 ,Left ,55,9344412750396 ,41,3610967880331 ,21,4022796112918
28.1044674 ,Left ,55,933297733891 ,41,2995160374467 ,21,4169913271213
28.1268676 ,Left ,55,9171677039338 ,41,2283399939575 ,21,4321198249948
28.1419587 ,Left ,55,8948764944022 ,41,168186780316 ,21,4522589607064
28.1642009 ,Left ,55,9124384019152 ,41,1582403742023 ,21,4477983142198
28.1867474 ,Left ,55,9244458214422 ,41,1665538466072 ,21,4315545753358
28.2090688 ,Left ,55,9011794530551 ,41,1794336790642 ,21,434082391273
28.2242193 ,Left ,55,882117127994 ,41,1891252865712 ,21,4445338109233
28.2468365 ,Left ,55,8700911577787 ,41,1851056156336 ,21,4520589718473
28.2766268 ,Left ,55,8096175573699 ,41,1763286923204 ,21,4794940683579
28.2915851 ,Left ,55,719105293005 ,41,1993759324464 ,21,4920480098696
28.3143295 ,Left ,55,5582534685432 ,41,1910952301357 ,21,4962276039437
28.3291995 ,Left ,55,5713575754984 ,41,1361869446091 ,21,4870094099213
28.3443401 ,Left ,55,4714643318661 ,40,988236543465 ,21,5959866517352
28.3667191 ,Left ,55,6347496895373 ,41,0434678452825 ,21,622623789415
28.3891577 ,Left ,55,8767581944448 ,41,2119076044232 ,21,4928700493266
28.4042934 ,Left ,56,1343349786752 ,41,1944526525736 ,21,4629687115535
28.426788 ,Left ,56,1408503827035 ,41,2599596478827 ,21,487287411979
28.4493395 ,Left ,55,8906558355165 ,41,3321640940181 ,21,454175979377
28.4641971 ,Left ,55,9162005911685 ,41,2162777846927 ,21,4513132201083
28.4867286 ,Left ,55,8597361310826 ,41,1998360483038 ,21,5655605232297
28.5092698 ,Left ,55,8037055998525 ,41,4028625599935 ,21,5564909451303
28.5243299 ,Left ,55,9516421161164 ,41,6671637913116 ,21,4811849738933
28.5473058 ,Left ,56,1753541598219 ,41,7030285869868 ,21,493999514223
28.5698893 ,Left ,56,196927287684 ,41,6653858077695 ,21,526133405574
28.584922 ,Left ,56,0547894318314 ,41,6631942869518 ,21,5281951899003
28.6073407 ,Left ,55,9830158757741 ,41,6678994609335 ,21,5224256875789
28.6300683 ,Left ,55,9690789414342 ,41,6799482049208 ,21,4886953273722
28.6444874 ,Left ,56,0078814378911 ,41,6649971966325 ,21,4532184865525
28.6667602 ,Left ,56,0104112481569 ,41,6583887358368 ,21,4581003266546
28.6894666 ,Left ,55,9483235424478 ,41,6408114506463 ,21,472549717359
28.7044364 ,Left ,55,9050003019419 ,41,6050720860009 ,21,4665696188864
28.7268229 ,Left ,55,8690056555504 ,41,5457496774644 ,21,4692930574256
28.7494921 ,Left ,55,838224497476 ,41,4625758488838 ,21,5052313450106
28.7644985 ,Left ,55,7671537587341 ,41,4311755729725 ,21,5627024383952
28.7867237 ,Left ,55,6076655219684 ,41,3784278375692 ,21,5661320846568
28.8092383 ,Left ,55,3276652033754 ,41,2767645490434 ,21,6405200025546
28.8318015 ,Left ,55,2271088244122 ,41,3045834832498 ,21,764997150871
28.8542455 ,Left ,55,2447308105405 ,41,5498378976554 ,21,7849503249608
28.8843191 ,Left ,55,7050519125554 ,41,8849942562746 ,21,6398042444475
28.9071259 ,Left ,55,7413656223164 ,41,8811220958275 ,21,5883727368471
28.9295252 ,Left ,55,6592050624618 ,41,8594572611246 ,21,5383856716809
28.9596676 ,Left ,55,6284987296043 ,41,8394632907153 ,21,4630067131558
28.9747001 ,Left ,55,7257539763343 ,41,8050635955701 ,21,3580408472782
28.9970637 ,Left ,55,8197243935287 ,41,80493116497 ,21,2555858041805
29.019673 ,Left ,55,7934055863297 ,41,8773212980407 ,21,1938913186407
29.0347236 ,Left ,55,8030931113289 ,41,6983663185416 ,21,1235331294475
29.049646 ,Left ,55,9241839588591 ,41,5989470244173 ,21,0446255262893
29.0645402 ,Left ,56,0732987700728 ,41,4910508464387 ,20,9732649499589
29.0872648 ,Left ,56,131897082987 ,41,3283097087734 ,20,957777974089
29.1099265 ,Left ,56,0306802828189 ,41,2509148081619 ,20,9964153002811
29.1247398 ,Left ,55,7813561128916 ,41,2451205628956 ,21,0403817039901
29.132125 ,Left ,55,7813561128916 ,41,2451205628956 ,21,0403817039901
29.1467571 ,Left ,55,5242612207226 ,41,4355422615088 ,21,1058864767333
29.1691124 ,Left ,55,5797330680179 ,41,5391113312862 ,21,1185766753967
29.1918768 ,Left ,55,7538574386426 ,41,5852402593263 ,21,0462827382094
29.2141352 ,Left ,56,242241578697 ,41,3626951279379 ,20,9371707815283
29.2369452 ,Left ,56,4186993995942 ,41,0285249472267 ,20,9431464823827
29.2596534 ,Left ,56,1109423836581 ,41,1635896334793 ,21,080110573381
29.2818593 ,Left ,55,7910798271874 ,41,4880432435079 ,21,0458508237742
29.3045984 ,Left ,55,9022029194677 ,41,44133919318 ,21,0217829466744
29.3271368 ,Left ,56,1006110797609 ,41,0574778080646 ,21,1269162441757
29.3422743 ,Left ,55,9831652585282 ,41,2543841995947 ,21,2805504883566
29.3645219 ,Left ,55,9701997854192 ,41,4049187740123 ,21,1800724590084
29.386849 ,Left ,56,1641743188788 ,41,583602807139 ,21,1762112983582
29.4021687 ,Left ,56,3397643822419 ,41,3206115845092 ,21,1600797338385
29.4246168 ,Left ,56,2137568703075 ,41,3885819101047 ,21,2014406628289
29.4468126 ,Left ,56,0074908071031 ,41,2988448846654 ,21,2909948151171
29.4622476 ,Left ,56,0074187089777 ,41,2675975497121 ,21,3373622601502
29.4842861 ,Left ,56,0116173662645 ,41,2538334164901 ,21,3501513413162
29.5065858 ,Left ,56,0771592536478 ,41,20799372979 ,21,3750643632999
29.5217525 ,Left ,56,1646789726601 ,41,0994282177448 ,21,4445902123772
29.5449183 ,Left ,56,1679901403683 ,40,9608897186705 ,21,522149055842
29.5672595 ,Left ,56,0486589706753 ,40,8754379047986 ,21,5950237211132
29.5823529 ,Left ,56,060938725398 ,40,6559637978115 ,21,5908157997671
29.6047914 ,Left ,56,1686821937647 ,40,5125123718287 ,21,539427150214
29.6269055 ,Left ,56,1615808518208 ,40,3686601538574 ,21,5599128317604
29.6420331 ,Left ,56,1253198159339 ,40,3451800543832 ,21,5697434925821
29.6642604 ,Left ,56,0165736259787 ,40,3738571440796 ,21,6008851677187
29.6867352 ,Left ,56,0123491465089 ,40,3957453615094 ,21,6116708544247
29.7016775 ,Left ,56,0881219696143 ,40,3710836301199 ,21,6118366656864
29.7241769 ,Left ,56,1101932543986 ,40,3546727051149 ,21,6375866328724
29.7470143 ,Left ,56,0384453515082 ,40,3708605984974 ,21,6738404354645
29.7618701 ,Left ,55,9304624686299 ,40,4129580271462 ,21,7144472462966
29.784561 ,Left ,55,9373678501889 ,40,4578625842075 ,21,7199102823782
29.8069527 ,Left ,55,9804403916965 ,40,4681155311795 ,21,7091109654097
29.8220754 ,Left ,55,9747495204638 ,40,4751874366424 ,21,7096187390222
29.8445159 ,Left ,55,9162500623315 ,40,5178648269931 ,21,728493841644
29.8670392 ,Left ,55,915821644594 ,40,5723617860971 ,21,7390697813589
29.8819118 ,Left ,55,9479005026169 ,40,5743794598308 ,21,7243155925402
29.9044433 ,Left ,55,9753103629129 ,40,5739531285784 ,21,7256129410238
29.926747 ,Left ,55,9628350664596 ,40,6213864790337 ,21,7229544387497
29.9420081 ,Left ,55,9053331149587 ,40,6624970096043 ,21,7272164012513
29.9644383 ,Left ,55,8802232991483 ,40,6894289054595 ,21,719768839546
29.9870221 ,Left ,55,8756222369942 ,40,6905079878422 ,21,7197207702239
30.0094595 ,Left ,55,7573978085091 ,40,7260853405343 ,21,7846649331013
30.0318884 ,Left ,55,5066761849691 ,40,7285538565415 ,21,8163107571322
30.0544719 ,Left ,55,3716558152241 ,40,6811005478015 ,21,8329484658847
30.0694263 ,Left ,55,2779387051113 ,40,6486292538978 ,21,9191709252044
30.0920571 ,Left ,55,3687663693142 ,40,8344836082495 ,21,8863049020322
30.1143793 ,Left ,55,5417368334706 ,40,969160707023 ,21,8109257265132
30.1296375 ,Left ,55,708252269835 ,41,0286540075675 ,21,7363221470459
30.1518498 ,Left ,55,8476184685871 ,40,9956637112855 ,21,6679647036226
30.174484 ,Left ,55,8407940929365 ,40,9542408431145 ,21,6036552391174
30.1895468 ,Left ,55,8054568866377 ,40,9265813103475 ,21,5671940673283
30.2120168 ,Left ,55,8029664730382 ,40,9089682739854 ,21,5655574890051
30.2343912 ,Left ,55,776136259949 ,40,9068910500455 ,21,5313690428929
30.2493466 ,Left ,55,7261659583823 ,40,8356984857991 ,21,5466855730962
30.2719243 ,Left ,55,7849768739133 ,40,6577093522329 ,21,603775704323
30.2944755 ,Left ,55,7126811173005 ,40,6294001440287 ,21,7751937974029
30.309397 ,Left ,55,6960158052715 ,40,8147105096831 ,21,7374848219912
30.3321928 ,Left ,55,910658578077 ,40,9801240878418 ,21,5894764180222
30.3549909 ,Left ,56,0902613298593 ,40,9063697432295 ,21,5903903307414
30.3696859 ,Left ,56,0376805454801 ,40,9367299216558 ,21,5836681657293
30.3924185 ,Left ,55,8222782785752 ,40,9301055723289 ,21,5447922309902
30.4163607 ,Left ,55,7456224976494 ,40,7978358966041 ,21,5141334316907
30.4293987 ,Left ,55,6329084797461 ,40,769296329059 ,21,6132904086774
30.4516907 ,Left ,55,5726686247013 ,41,0365311879049 ,21,6152141869204
30.4744098 ,Left ,55,7253529174153 ,41,3818900827404 ,21,5679168585258
30.4893417 ,Left ,56,0051764188046 ,41,4665060847324 ,21,5963972344025
30.5117443 ,Left ,56,0471897547085 ,41,4508265321265 ,21,6447967288506
30.5344356 ,Left ,55,8981513857862 ,41,4358162432931 ,21,6415103789705
30.5493928 ,Left ,55,8380131254852 ,41,4274856067377 ,21,6289267924767
30.5719121 ,Left ,55,9089503952039 ,41,4074458243019 ,21,5759925316681
30.5944031 ,Left ,56,0307038807909 ,41,3737242480598 ,21,5160813981284
30.6094501 ,Left ,56,0392890707839 ,41,3481343595175 ,21,5261601808769
30.6319933 ,Left ,55,956765403128 ,41,3108824870001 ,21,5748313203908
30.6545092 ,Left ,55,8612190949788 ,41,2962525601279 ,21,6295173215912
30.669568 ,Left ,55,733798504998 ,41,2628006493334 ,21,6611016500147
30.6921436 ,Left ,55,5347156128636 ,41,1372443702354 ,21,7939397996259
30.7144851 ,Left ,55,4921432847602 ,41,2038640107857 ,21,8291357873868
30.736876 ,Left ,55,5848345624172 ,41,4918191279978 ,21,7275601724598
30.7518168 ,Left ,55,8031465447615 ,41,6403506754841 ,21,5843720552527
30.7818047 ,Left ,55,8823417497866 ,41,5993556516718 ,21,5274145191461
30.8042444 ,Left ,55,8490082955127 ,41,5398116654413 ,21,4857577502803
30.8193851 ,Left ,55,7278124533476 ,41,5095652162485 ,21,4166983018284
30.8344241 ,Left ,55,7339593426036 ,41,5056379711822 ,21,3283708674771
30.8568706 ,Left ,55,822551820992 ,41,4886081853026 ,21,2188123458075
30.8717549 ,Left ,55,8431251184527 ,41,475997465964 ,21,1560710336522
30.8941336 ,Left ,55,8107758743348 ,41,4851105650176 ,21,1629386483938
30.9166105 ,Left ,55,7455741723968 ,41,4855597844133 ,21,2068029317322
30.9317805 ,Left ,55,6559217146191 ,41,5311591830251 ,21,228866486541
30.9542359 ,Left ,55,5697065058143 ,41,5358225034695 ,21,1939401633638
30.9767293 ,Left ,55,6184450712881 ,41,4524966275105 ,21,1602779545193
30.9915857 ,Left ,55,5382301098195 ,41,3651917344835 ,21,2549225596016
31.0142051 ,Left ,55,5585461106045 ,41,5060328563245 ,21,2839579438415
31.0370811 ,Left ,55,7765585965815 ,41,7365052002567 ,21,1580502658103
31.0516617 ,Left ,56,2304411195422 ,41,5949035221781 ,21,0373055093343
31.0741745 ,Left ,56,2126860476048 ,41,4136183147485 ,21,1027758013528
31.0968132 ,Left ,55,9732094020088 ,41,5932411142281 ,21,0451985946379
31.1119149 ,Left ,55,8798216023816 ,41,6382599583879 ,20,9694287588464
31.1344415 ,Left ,56,0894692686982 ,41,4437927957489 ,20,93221923655
31.1569061 ,Left ,55,9386059179966 ,41,3589699955487 ,21,0938698774866
31.1720679 ,Left ,55,8512032416689 ,41,5550146733244 ,21,0977181464688
31.1945619 ,Left ,55,9991944312185 ,41,7465743289343 ,21,0573436726575
31.2169394 ,Left ,56,3476066671512 ,41,6384031914318 ,21,0617299786859
31.2318243 ,Left ,56,4384358250155 ,41,4176757165159 ,21,0457181902192
31.2544295 ,Left ,56,1787175556211 ,41,3095475461185 ,21,1124985238693
31.2765763 ,Left ,56,036689814312 ,41,0179209404467 ,21,1871418271238
31.2916272 ,Left ,56,1848852264943 ,40,7609038677306 ,21,1624358690061
31.314163 ,Left ,56,3030385278296 ,40,5225412980688 ,21,1559122432818
31.3366548 ,Left ,56,2935724382008 ,40,3350690763538 ,21,2598333195038
31.3442018 ,Left ,56,1605516433965 ,40,2970444276429 ,21,4321610064848
31.3667886 ,Left ,56,0679495340104 ,40,4302213181981 ,21,5405885254536
31.389361 ,Left ,56,0878054350107 ,40,5692152321734 ,21,5706347677556
31.4269007 ,Left ,56,3091618476714 ,40,2338385164684 ,21,541919717849
31.4492703 ,Left ,56,2349867273754 ,40,0503751349163 ,21,5842189048274
31.4643444 ,Left ,56,031097139145 ,40,0883061072467 ,21,6469184731218
31.4869564 ,Left ,55,8714954544462 ,40,2809344625447 ,21,6956359600247
31.5090787 ,Left ,55,9173270593169 ,40,4497082693557 ,21,6826080905557
31.5242508 ,Left ,55,9143245653774 ,40,440633353958 ,21,6916650217036
31.5467785 ,Left ,55,9211994638705 ,40,4401087089519 ,21,7155372574698
31.5619672 ,Left ,55,9115076119814 ,40,4686610798438 ,21,722848375209
31.5844268 ,Left ,55,8886724086369 ,40,5001798967909 ,21,7272023272514
31.608283 ,Left ,55,8909678700973 ,40,5199689674525 ,21,7204135342356
31.629305 ,Left ,55,974634550392 ,40,4626271756894 ,21,6702165878422
31.6593691 ,Left ,55,8169580759526 ,40,5052983728169 ,21,7438254155306
31.681757 ,Left ,55,8958729280779 ,40,5094619993229 ,21,7098347521696
31.7043412 ,Left ,55,8181285574497 ,40,5352673125768 ,21,7618717946163
31.7194127 ,Left ,55,9073183828936 ,40,5770733298217 ,21,7272004978627
31.7416473 ,Left ,55,7589418731472 ,40,6274891000451 ,21,7874244325476
31.7643723 ,Left ,55,6709241222137 ,40,7646039919083 ,21,8225278486942
31.7798976 ,Left ,55,5280992700795 ,40,8876794594434 ,21,8711746767452
31.8018145 ,Left ,55,4157886401735 ,40,8884088220761 ,21,863511228029
31.8242089 ,Left ,55,359729373975 ,40,8577836978467 ,21,7866424506931
31.8391684 ,Left ,55,267912232138 ,40,7659292575251 ,21,8637974818989
31.8619832 ,Left ,55,1294679236123 ,40,8495261484746 ,21,9335360224562
31.8844272 ,Left ,55,2109035189006 ,41,0679362062205 ,21,8867782033414
31.9068194 ,Left ,55,3376388339847 ,41,1992513569649 ,21,8589280583657
31.9218452 ,Left ,55,6531305930756 ,41,1388853188019 ,21,7474637417059
31.9444037 ,Left ,55,6767492048588 ,41,2648317119434 ,21,6860425994138
31.9669411 ,Left ,55,5651085660157 ,41,2660533033611 ,21,6658606042864
31.9820771 ,Left ,55,501399229012 ,41,2577774946767 ,21,6606586654762
32.0042552 ,Left ,55,5713028191542 ,41,2255051006448 ,21,608625584258
32.0266074 ,Left ,55,6150141654371 ,41,1617405244409 ,21,5686757416203
32.0417378 ,Left ,55,5158974821235 ,41,0816481735189 ,21,5729666912142
32.0644125 ,Left ,55,4574320512063 ,40,9730453396665 ,21,6108946129696
32.0868721 ,Left ,55,3952540326973 ,40,8045194208362 ,21,7826360939219
32.1016721 ,Left ,55,5659312042082 ,40,8530919373585 ,21,8598868184393
32.1243052 ,Left ,55,8958988418465 ,41,0324796448577 ,21,705578595636
32.1466762 ,Left ,56,1524460141884 ,41,0084370520926 ,21,6222301568039
32.1617695 ,Left ,56,0818997205073 ,41,1074249368956 ,21,6530082573041
32.1841594 ,Left ,55,8484714330241 ,41,177545405362 ,21,6617463671839
32.2068668 ,Left ,55,7469222388354 ,41,0593059194808 ,21,6601971491571
32.2221947 ,Left ,55,7053693390482 ,40,8338069379016 ,21,7397788189347
32.2446431 ,Left ,55,5689700679014 ,40,9080641616926 ,21,8226221936517
32.2670477 ,Left ,55,5643322655753 ,41,2710693026322 ,21,7578480884839
32.2821193 ,Left ,55,8949515926038 ,41,4739511357438 ,21,6825541222727
32.3048863 ,Left ,56,0480195405171 ,41,4412171422386 ,21,7311976236923
32.3270856 ,Left ,55,9648892696637 ,41,430205960015 ,21,7287946496936
32.3421034 ,Left ,55,8520509474026 ,41,4415544377675 ,21,7119053099074
32.3647699 ,Left ,55,8345453722292 ,41,4368810721771 ,21,6902185254626
32.3867385 ,Left ,55,8863228037516 ,41,4437084448239 ,21,6289653794746
32.4017947 ,Left ,55,9302497422625 ,41,4449681588134 ,21,5967570891407
32.4241927 ,Left ,55,9094934088882 ,41,4438237197528 ,21,6034125607513
32.446854 ,Left ,55,8586054415965 ,41,409105923576 ,21,6130881882847
32.4840621 ,Left ,55,6657911905722 ,41,3832401788366 ,21,6666783130757
32.5067919 ,Left ,55,4853264021156 ,41,2868632613322 ,21,7042041466043
32.544479 ,Left ,55,2959594952778 ,41,461044761636 ,21,8515266982891
32.5670356 ,Left ,55,471917113174 ,41,7529793066943 ,21,7080986255393
32.6047078 ,Left ,55,7308845409104 ,41,7267586970631 ,21,5925870682374
32.6269966 ,Left ,55,6306152716757 ,41,7011227204217 ,21,5123998971174
32.6641375 ,Left ,55,6103866391861 ,41,6834578452831 ,21,3343819853105
32.6866528 ,Left ,55,663641910824 ,41,6373701149259 ,21,2559622684449
32.7242911 ,Left ,55,6107597182124 ,41,6113268013285 ,21,2585697493891
32.746654 ,Left ,55,5146075940248 ,41,6399665075338 ,21,3104823494604
32.7840816 ,Left ,55,3841267309828 ,41,5903898397419 ,21,2940770853953
32.8066005 ,Left ,55,3726400942342 ,41,5476648697853 ,21,3721440052575
32.8440173 ,Left ,55,6590955062687 ,41,8410537379527 ,21,2916911743289
32.8667787 ,Left ,56,0238389654237 ,41,6693781344644 ,21,1940627703223
32.9042344 ,Left ,55,6143373389603 ,41,637775016467 ,21,2011669280309
32.9266128 ,Left ,55,5613932981631 ,41,5278499831174 ,21,1682728566121
32.9643759 ,Left ,55,5773602009651 ,41,3325759806652 ,21,2977335960976
32.9868241 ,Left ,55,5093284491316 ,41,644940676242 ,21,2963146031915
33.0168665 ,Left ,56,2101015689231 ,41,6576443201421 ,21,2191131621625
33.0473765 ,Left ,56,2488730612427 ,41,5396827701013 ,21,1903805577917
33.084245 ,Left ,55,9763160190457 ,41,477323636219 ,21,2449744461439
33.1067661 ,Left ,56,0931666983154 ,41,4391898275891 ,21,1868446710844
33.1441892 ,Left ,56,1555901438413 ,41,2766524318507 ,21,2223088351357
33.1667528 ,Left ,56,1637554424288 ,41,0851535298893 ,21,3511996437508
33.1969343 ,Left ,56,1667692426014 ,40,7937923021695 ,21,4752374231953
33.2194911 ,Left ,56,1777846431071 ,40,7116870007698 ,21,4751817803163
33.2419924 ,Left ,56,2040406287412 ,40,628250142266 ,21,4786365847742
33.2569672 ,Left ,56,1952423012077 ,40,6022786782232 ,21,4748560587839
33.2793051 ,Left ,56,115869257883 ,40,6129671719412 ,21,4695247043763
33.3017782 ,Left ,56,0500149818604 ,40,6401789455868 ,21,474005627409
33.3168101 ,Left ,56,0692430955934 ,40,6393091069946 ,21,4696232102238
33.3393705 ,Left ,56,1060471767378 ,40,6048900191438 ,21,4729184782762
33.3616231 ,Left ,56,1267824861711 ,40,5851306727008 ,21,4733789766887
33.384439 ,Left ,56,1040783497252 ,40,5923122895359 ,21,4764870523403
33.4144797 ,Left ,56,0777635566757 ,40,6086301001209 ,21,4770048759715
33.4442035 ,Left ,56,0559944007601 ,40,6347138148508 ,21,4806652090542
33.4666913 ,Left ,56,0495770825521 ,40,638869401001 ,21,5038677102301
33.50458 ,Left ,56,0392463214877 ,40,6258009454887 ,21,5241006115374
33.5272238 ,Left ,56,0523773017006 ,40,6191956288221 ,21,5139640265656
33.5648793 ,Left ,56,0588507219884 ,40,6159930785552 ,21,5273716429614
33.5869528 ,Left ,56,0455514094576 ,40,628656107068 ,21,5310344085461
33.6244516 ,Left ,56,0376338533072 ,40,6768277735456 ,21,5393925507445
33.6468317 ,Left ,56,033569035676 ,40,7020831383659 ,21,533784560924
33.6841846 ,Left ,55,9774666113671 ,40,8490495498721 ,21,5429574861201
33.7069469 ,Left ,55,9879751299547 ,40,6888985202001 ,21,5280883878266
33.7445467 ,Left ,56,264104857103 ,40,3475409213657 ,21,4157439566831
33.7670752 ,Left ,56,2990357907924 ,40,1438929096022 ,21,4014222653264
33.8046135 ,Left ,56,0544821926555 ,40,0703533219019 ,21,5445080562003
33.8341395 ,Left ,55,9829487312176 ,40,2645270118263 ,21,5895632298907
33.8866189 ,Left ,56,2286532763167 ,40,1707606075498 ,21,4637851618957
33.9242829 ,Left ,56,0178219184273 ,40,2517877762995 ,21,5743704927615
33.9617974 ,Left ,56,0122294175029 ,40,6789614099199 ,21,5535194414187
33.9844219 ,Left ,55,9770837914575 ,40,7377828187154 ,21,559520816326
34.0214626 ,Left ,55,8584029983684 ,40,7608515395563 ,21,6183196023688
34.0449569 ,Left ,55,7057758679481 ,40,7841223393639 ,21,6469864180108
34.0672497 ,Left ,55,6098515583559 ,40,7151360776444 ,21,6120755792722
34.1045276 ,Left ,55,4578308868624 ,40,6260480869253 ,21,7354224381298
34.1268977 ,Left ,55,6482509452058 ,40,7573257220036 ,21,6636631215497
34.1644489 ,Left ,55,9488754985992 ,40,8646686373487 ,21,5599158955852
34.1870615 ,Left ,55,9446962047096 ,40,8636088351969 ,21,5607245438799
34.2018034 ,Left ,55,8385235483888 ,40,9448905597984 ,21,5690886115418
34.2168757 ,Left ,55,7580614061457 ,41,0081638410392 ,21,4994033708519
34.2392538 ,Left ,55,8058368279136 ,40,9667539507291 ,21,4237136752702
34.2616354 ,Left ,55,8876566172944 ,40,8692191252866 ,21,4006280385302
34.2766472 ,Left ,55,8283151519198 ,40,9007635208393 ,21,4988653672751
34.2991648 ,Left ,55,9030120786337 ,41,1154086596294 ,21,4922153111676
34.3216837 ,Left ,56,3156358897067 ,41,2685027070685 ,21,3373144387739
34.3443684 ,Left ,56,5985092545888 ,41,2098002393162 ,21,3367322012351
34.3592185 ,Left ,56,5513893483438 ,41,2547215328388 ,21,3467139908603
34.3817219 ,Left ,56,2725398572565 ,41,2450350164624 ,21,3586258430753
34.4041886 ,Left ,56,2681717841087 ,41,0647432339272 ,21,3593815133631
34.4193501 ,Left ,56,2160615834592 ,40,8857291197541 ,21,4739175626388
34.4416709 ,Left ,56,0836135578986 ,40,9931236588836 ,21,4911290669956
34.464473 ,Left ,56,1356512759942 ,41,3266443838997 ,21,4192935238251
34.4792085 ,Left ,56,4248890403593 ,41,4911441438641 ,21,3759035527456
34.5017793 ,Left ,56,5580314078546 ,41,4237672214268 ,21,4412190984283
34.5242916 ,Left ,56,4228257787973 ,41,3642987712825 ,21,4935658006524
34.539388 ,Left ,56,2826722279051 ,41,3597023505606 ,21,5269505983372
34.5617746 ,Left ,56,2904646736609 ,41,3540684547458 ,21,5383580215931
34.5844414 ,Left ,56,3573777809671 ,41,3707622069967 ,21,5046683260992
34.5992372 ,Left ,56,3564630744996 ,41,3785319094202 ,21,4937029595131
34.6219952 ,Left ,56,2693235357907 ,41,3710969378768 ,21,526758396462
34.6443322 ,Left ,56,1550006579317 ,41,3580480136626 ,21,5422102324206
34.666563 ,Left ,56,0374086423371 ,41,3475333113181 ,21,5573535138412
34.6816512 ,Left ,55,9583205881092 ,41,2477506651554 ,21,6073624629997
34.7045081 ,Left ,55,8753428549357 ,41,1812713355027 ,21,7486749351323
34.7270011 ,Left ,55,891443601641 ,41,3242862640404 ,21,7328980583071
34.7420357 ,Left ,56,0073861705721 ,41,5498370725924 ,21,6143098006297
34.764305 ,Left ,56,119962971049 ,41,6204253704645 ,21,5067383218234
34.7865209 ,Left ,56,0917195659665 ,41,616622356284 ,21,466134275503
34.8018286 ,Left ,56,0272279030882 ,41,6271076903235 ,21,3918606906929
34.8241962 ,Left ,55,9973089412914 ,41,6571572545642 ,21,3087389170961
34.8468638 ,Left ,55,9903419383639 ,41,6471621514573 ,21,2176894880513
34.8616101 ,Left ,55,9969718827305 ,41,6181515261229 ,21,1373590826572
34.8842474 ,Left ,55,9601307077432 ,41,5858324261383 ,21,1081992588394
34.9069219 ,Left ,55,8515013234353 ,41,5951076609223 ,21,1426135196286
34.9295177 ,Left ,55,7025373842654 ,41,6451963770195 ,21,1474795348946
34.9519618 ,Left ,55,6011560391862 ,41,6926636411855 ,21,1093569340695
34.9744394 ,Left ,55,4919276762425 ,41,5990256756877 ,21,1670111306615
34.9893499 ,Left ,55,5102018331905 ,41,5921680254421 ,21,2522340240008
35.0044255 ,Left ,55,5719195624452 ,41,7832844080584 ,21,2449949706269
35.0265639 ,Left ,56,0444317103993 ,41,7944659491384 ,21,0934442272159
35.041794 ,Left ,56,3581760797571 ,41,5814397580938 ,21,0208376933067
35.0641697 ,Left ,56,1264117343699 ,41,5189139300893 ,21,1057392619894
35.0868611 ,Left ,55,7818500871714 ,41,6503135922579 ,21,1059418439036
35.1017624 ,Left ,55,8268415899235 ,41,5872949351284 ,21,0379364252045
35.1243603 ,Left ,56,0439666515355 ,41,3755767738495 ,21,0286406581599
35.1468755 ,Left ,55,9021537404488 ,41,4775214944278 ,21,1909566411032
35.1618381 ,Left ,55,8049282277418 ,41,800990115489 ,21,1729564301759
35.1844175 ,Left ,56,099151945733 ,41,8990257635903 ,21,1225891873251
35.2068873 ,Left ,56,333897027947 ,41,76664316274 ,21,126891121353
35.2219754 ,Left ,56,3418826816993 ,41,6458349334161 ,21,1118549580785
35.2442728 ,Left ,56,2346203244102 ,41,516996562321 ,21,1636984111331
35.2668497 ,Left ,56,1736225615423 ,41,3947038813678 ,21,2342984257483
35.2818025 ,Left ,56,3043872151433 ,41,2907406908478 ,21,2367282469286
35.3042816 ,Left ,56,3762391809182 ,41,2435076521925 ,21,2287531469666
35.3270909 ,Left ,56,3950921155347 ,41,1678967273092 ,21,2724685111586
35.3421054 ,Left ,56,4846445158061 ,41,0463786540302 ,21,3298554505051
35.3645019 ,Left ,56,5078318021269 ,40,9258944844022 ,21,374195088703
35.3870049 ,Left ,56,4266987447142 ,40,8479712696876 ,21,3867706536909
35.4019567 ,Left ,56,3920150215458 ,40,806499435775 ,21,3852954950269
35.4243316 ,Left ,56,4274169247236 ,40,7754243358669 ,21,3782395663632
35.4468673 ,Left ,56,4369052642758 ,40,7664829070389 ,21,377073301421
35.4620077 ,Left ,56,3781243694635 ,40,7830053464211 ,21,3955126115909
35.4844312 ,Left ,56,3484930157889 ,40,8138394345398 ,21,417407626507
35.5065103 ,Left ,56,3524551125853 ,40,8022066993298 ,21,4247952248498
35.5218719 ,Left ,56,3881970738793 ,40,7844204221697 ,21,4315617408918
35.5442288 ,Left ,56,3704362470539 ,40,7992226433959 ,21,4387264297899
35.5817056 ,Left ,56,3315129557245 ,40,8394629091018 ,21,4430577822925
35.6041979 ,Left ,56,3336628575579 ,40,8268034475182 ,21,4568552041733
35.626654 ,Left ,56,3066787515981 ,40,8325919665902 ,21,4647814888994
35.6490787 ,Left ,56,2648012263755 ,41,0324565017305 ,21,4864735434838
35.6641118 ,Left ,56,1655196260618 ,41,0842140377421 ,21,5350984262959
35.6791415 ,Left ,56,1881384345155 ,41,1976348867494 ,21,5333429896685
35.7017061 ,Left ,56,1811913687192 ,41,0959479163351 ,21,5488329319596
35.7240945 ,Left ,56,1556726841757 ,41,2571396084743 ,21,585324957625
35.7391411 ,Left ,56,0607009463053 ,41,1454576954749 ,21,6215214428483
35.7616248 ,Left ,56,011027594288 ,41,271092092212 ,21,6573282311892
35.7842658 ,Left ,55,7857658503344 ,41,465380223751 ,21,7125365638897
35.7993012 ,Left ,55,685532729205 ,41,4472951256721 ,21,6341810821422
35.8219899 ,Left ,55,6214610433936 ,41,3462136728146 ,21,6391872231112
35.8441046 ,Left ,55,4438395047888 ,41,2453265686777 ,21,7430104766752
35.8592266 ,Left ,55,4549021691563 ,41,3808114231067 ,21,7490850637594
35.8815419 ,Left ,55,6733325214927 ,41,4369027522094 ,21,7017258570548
35.9043621 ,Left ,55,9063931446518 ,41,4952814281963 ,21,6171649321381
35.9192443 ,Left ,55,8874245885296 ,41,3047554344087 ,21,6450441977702
35.9416683 ,Left ,55,802581816026 ,41,1634897227602 ,21,6336868802202
35.9643439 ,Left ,55,5319399996188 ,41,1202284716922 ,21,6675724229971
35.9795265 ,Left ,55,4371451766419 ,41,1629333692245 ,21,7916676923737
36.0018558 ,Left ,55,4092766595659 ,41,4145730532235 ,21,8534588443164
36.0242519 ,Left ,55,6054313905001 ,41,6558624345617 ,21,8579511906832
36.0392698 ,Left ,55,8222136953091 ,41,7346457474839 ,21,8170549843682
36.0620724 ,Left ,55,8907413445208 ,41,6783648479549 ,21,8094192829511
36.0840913 ,Left ,55,7784069469744 ,41,6376467206197 ,21,8334449606349
36.099291 ,Left ,55,6984492543603 ,41,622844260341 ,21,8479217554143
36.1218377 ,Left ,55,7736216114438 ,41,5724668111781 ,21,8284604546556
36.144843 ,Left ,55,876626148786 ,41,5131362192823 ,21,7936604764808
36.1595089 ,Left ,55,8967413498462 ,41,4787738272057 ,21,7673070850862
36.1821804 ,Left ,55,8660847187098 ,41,4484200918205 ,21,7298639094686
36.204176 ,Left ,55,8697862325376 ,41,4107496085591 ,21,7068610459055
36.2192283 ,Left ,55,9063561953764 ,41,3601153299921 ,21,688481497033
36.2417079 ,Left ,55,9287537090433 ,41,3012337492128 ,21,6880327592852
36.264598 ,Left ,55,9181526698836 ,41,2434536781129 ,21,6911764780678
36.2795883 ,Left ,55,9081625818032 ,41,2020828620092 ,21,6876695957286
36.3020912 ,Left ,55,9208311212873 ,41,1829789079668 ,21,6655496121835
36.3245096 ,Left ,55,9070702189133 ,41,1857635445989 ,21,6614510910173
36.3395271 ,Left ,55,8123132654498 ,41,1461342355934 ,21,6632427010983
36.3620468 ,Left ,55,6722221261845 ,41,0219257150969 ,21,7197002597619
36.3845015 ,Left ,55,4980821807804 ,40,9917705073769 ,21,8521514993486
36.3993671 ,Left ,55,4246036978852 ,41,1628521548325 ,21,8917649937666
36.4221012 ,Left ,55,7001084208082 ,41,4210361236933 ,21,840582149189
36.4445146 ,Left ,55,9201314204442 ,41,5720094163072 ,21,7776320066751
36.4668726 ,Left ,55,9331218629154 ,41,5609123811158 ,21,8238460332153
36.4895269 ,Left ,55,8445532260399 ,41,5453494586058 ,21,8578689038709
36.5045625 ,Left ,55,7897334746776 ,41,5534330085255 ,21,8384402252982
36.5269799 ,Left ,55,8345833941652 ,41,5062810511385 ,21,7976690741143
36.5494811 ,Left ,55,8920057342546 ,41,4759209382308 ,21,7651251154668
36.5644472 ,Left ,55,8867308517113 ,41,4464024347677 ,21,749564581527
36.5944487 ,Left ,55,8361284001714 ,41,4370170899228 ,21,7236771156176
36.6170356 ,Left ,55,8188758733562 ,41,4231850197138 ,21,7062608006463
36.6393179 ,Left ,55,8903131565811 ,41,3855607939421 ,21,6902983809612
36.6541951 ,Left ,55,9616231100103 ,41,3467792798605 ,21,6706116344075
36.669196 ,Left ,55,9543452939004 ,41,33459608652 ,21,6526999787072
36.6843183 ,Left ,55,9155665521778 ,41,3294832764552 ,21,6442712009954
36.7069092 ,Left ,55,9185819057043 ,41,3234989750909 ,21,627560474723
36.7293741 ,Left ,55,9367409229272 ,41,3238305629403 ,21,6155688465918
36.7519743 ,Left ,55,8930049958035 ,41,3677159333634 ,21,6464547742346
36.7667531 ,Left ,55,7441177270248 ,41,3086245225739 ,21,7096557566287
36.7891628 ,Left ,55,578658573349 ,41,2547981483117 ,21,874057140544
36.8116452 ,Left ,55,5939560677398 ,41,4041934762494 ,21,8906834139995
36.8267445 ,Left ,55,6958849390896 ,41,6060638412639 ,21,8255027486822
36.8493669 ,Left ,55,8550767815883 ,41,6533843959067 ,21,734679874544
36.8717248 ,Left ,55,8329735717076 ,41,666364842545 ,21,7087123537331
36.8865602 ,Left ,55,7886721884062 ,41,6865193502924 ,21,6198373202665
36.9093388 ,Left ,55,8124304241787 ,41,6832217940089 ,21,5181136644278
36.9320295 ,Left ,55,8672371292053 ,41,6744274808285 ,21,4133505478958
36.9467563 ,Left ,55,9088624623622 ,41,6602671489007 ,21,2968871518612
36.9695724 ,Left ,55,9077525045586 ,41,648395587379 ,21,2324418360939
36.9920553 ,Left ,55,8477685722805 ,41,6563102111106 ,21,2399665013613
37.0065688 ,Left ,55,7796552963852 ,41,7100321397685 ,21,2490739086542
37.0291557 ,Left ,55,6052667345681 ,41,7448582309554 ,21,2571974631693
37.0519228 ,Left ,55,6214134554716 ,41,7094467436998 ,21,1954524539118
37.0667228 ,Left ,55,44160575306 ,41,6059197528629 ,21,2967713892445
37.0816398 ,Left ,55,3863421135412 ,41,7158740768058 ,21,3932789815093
37.1044372 ,Left ,55,4887436078707 ,41,9544278520371 ,21,3710354139978
37.1192605 ,Left ,56,0262135133944 ,41,8518037851711 ,21,2301729392951
37.1492158 ,Left ,56,2760101768129 ,41,598798094253 ,21,1571792202672
