timestamp,event,roll,pitch,yaw
3.025424 ,Left ,50.2202964303863 ,51.5342585340333 ,11.2106893413507
3.0556177 ,Left ,50.2076922285933 ,51.5740462321638 ,11.2049614367426
3.0703916 ,Left ,50.2056458065016 ,51.6036936279703 ,11.1952864144363
3.0929136 ,Left ,50.2106538759022 ,51.6060132081259 ,11.195457319195
3.1231251 ,Left ,50.210960201791 ,51.5423098445851 ,11.2541135622665
3.1454797 ,Left ,50.1951943406791 ,51.4927436808968 ,11.3055648403343
3.1831169 ,Left ,50.1294180938765 ,51.3751992103255 ,11.4137987634101
3.2054065 ,Left ,50.1393575866107 ,51.3181110919065 ,11.4662326858644
3.2430659 ,Left ,50.1747399344197 ,51.255581293798 ,11.5347396208266
3.2654139 ,Left ,50.1618591792535 ,51.2461419096448 ,11.561639957715
3.3029171 ,Left ,50.1136576708799 ,51.2357456304639 ,11.5992142776748
3.3254563 ,Left ,50.0902933312323 ,51.2281631160234 ,11.6072083656917
3.3628534 ,Left ,50.0912806967425 ,51.1924009528885 ,11.6094032470761
3.3853724 ,Left ,50.0787916534121 ,51.1658873216247 ,11.6016754752551
3.4303931 ,Left ,50.0240819392984 ,51.1220490461746 ,11.5869067321089
3.4828934 ,Left ,49.9915679152007 ,51.0612006164466 ,11.5567693789262
3.505625 ,Left ,49.9946582694238 ,51.0370947275769 ,11.5495339172345
3.5428008 ,Left ,50.0071502168715 ,50.9781403147119 ,11.5340654729872
3.5652987 ,Left ,50.0060847099077 ,50.9597066309549 ,11.5238088359129
3.6029475 ,Left ,50.0139567594407 ,50.9335256107322 ,11.4927583674005
3.6253533 ,Left ,50.016321876501 ,50.9137530762797 ,11.4733584534176
3.6628599 ,Left ,50.0068371510336 ,50.8525678016675 ,11.437755567875
3.6853841 ,Left ,49.9903931704655 ,50.821188681074 ,11.418013807337
3.7227246 ,Left ,49.9034815835712 ,50.7368236446644 ,11.358193993071
3.7452937 ,Left ,49.8220179085782 ,50.6650353310087 ,11.3163777394181
3.7828368 ,Left ,49.7003359555198 ,50.4610256248397 ,11.2837461504944
3.8055224 ,Left ,49.6792821744048 ,50.3817803812449 ,11.2815453869308
3.8428586 ,Left ,49.6717879774247 ,50.4356088962069 ,11.2336774795401
3.8654619 ,Left ,49.6908630218961 ,50.5442634358851 ,11.217109011873
3.9028617 ,Left ,49.8129770592852 ,50.5841032594542 ,11.2052304625297
3.9254374 ,Left ,49.8374963563295 ,50.5561556635705 ,11.1789023267162
3.9627221 ,Left ,49.7515081536591 ,50.6179776449164 ,10.9928552401714
3.9854093 ,Left ,49.7241635676182 ,50.6690734319259 ,10.8620153901783
4.0228196 ,Left ,49.7958078081515 ,50.6200833151153 ,10.6436640124295
4.0452775 ,Left ,49.8029520753224 ,50.5505178249077 ,10.537762864023
4.0828825 ,Left ,49.7143820507228 ,50.4166568655914 ,10.3896749085446
4.1054291 ,Left ,49.6880402864041 ,50.345336431782 ,10.3702740920238
4.1429674 ,Left ,49.6478554444326 ,50.171858009276 ,10.3370364803542
4.1655388 ,Left ,49.7153888549385 ,50.141008961847 ,10.3457759429725
4.2028054 ,Left ,49.9015618904314 ,50.3239146656225 ,10.2892171493851
4.225417 ,Left ,49.999597063045 ,50.3913576845848 ,10.2591461368006
4.262818 ,Left ,49.9311169153119 ,50.3956329582602 ,10.2368378228483
4.2853859 ,Left ,49.8248178804377 ,50.4347087772397 ,10.1917168712747
4.3227446 ,Left ,49.7994649808055 ,50.4312988241167 ,10.0435282118509
4.3454288 ,Left ,49.817013599148 ,50.3585225133735 ,10.0879308440141
4.3903821 ,Left ,50.0515291453978 ,50.475821526872 ,10.0716503884841
4.405612 ,Left ,50.1495284861259 ,50.6910402092325 ,10.0241753700099
4.4428904 ,Left ,50.2533449697938 ,50.7594052882473 ,10.0937052088204
4.4654883 ,Left ,50.1439840655413 ,50.7217588850736 ,10.142622265714
4.4879574 ,Left ,50.0214175391897 ,50.7090798712555 ,10.1554722629021
4.5032471 ,Left ,49.9345217456921 ,50.7008425999606 ,10.1427961096063
4.5178964 ,Left ,49.9049706511715 ,50.673683760616 ,10.1363737924674
4.5410091 ,Left ,49.9119026661693 ,50.6202598957062 ,10.1356203039256
4.5628326 ,Left ,49.9038062797911 ,50.5654900022975 ,10.1192310341485
4.5929421 ,Left ,49.8757078113047 ,50.5113074359126 ,10.116241453299
4.6228643 ,Left ,49.8142655518221 ,50.4356001180236 ,10.1393338873722
4.6379597 ,Left ,49.7947141525156 ,50.4581009424735 ,10.1093562624791
4.6602995 ,Left ,49.7380417671689 ,50.5603584592533 ,10.09118897805
4.6756187 ,Left ,49.6843641725911 ,50.6825580166158 ,10.1092120864217
4.6979168 ,Left ,49.6616809319812 ,50.760349190828 ,10.1515219397724
4.7280651 ,Left ,49.659132800642 ,50.7821238060627 ,10.1755138013431
4.7432503 ,Left ,49.683219080506 ,50.786499015575 ,10.1808179802038
4.7693391 ,Left ,49.6872943427308 ,50.7747364703608 ,10.1704052820726
4.7805145 ,Left ,49.6705994482569 ,50.7679101242506 ,10.1653958211477
4.7954662 ,Left ,49.6835468262797 ,50.7574850821509 ,10.1660387594855
4.818034 ,Left ,49.7111411576256 ,50.7482973301516 ,10.162392376718
4.8404154 ,Left ,49.7415292010085 ,50.7465913407371 ,10.1741260534476
4.8555631 ,Left ,49.780597557684 ,50.7646367337618 ,10.1901019950534
4.8781506 ,Left ,49.8486062990781 ,50.8033792511275 ,10.1852995783111
4.9003663 ,Left ,49.9109894204135 ,50.8642849787426 ,10.1551222918663
4.9230788 ,Left ,49.932889051038 ,50.9589070191107 ,10.1157256236162
4.9389189 ,Left ,49.9174142475161 ,51.0718242970515 ,10.0715758728994
4.9604452 ,Left ,49.8834650831426 ,51.1636081673205 ,9.99746446646825
4.9829739 ,Left ,49.8659433751336 ,51.2350088108449 ,9.89318643586263
4.9989096 ,Left ,49.8644271444964 ,51.2825052150698 ,9.7774850523199
5.0203905 ,Left ,49.8717038035602 ,51.3006992472667 ,9.66103886561445
5.0428513 ,Left ,49.8805351919885 ,51.2900598018279 ,9.55612047516734
5.0580271 ,Left ,49.8903919059381 ,51.2408704955386 ,9.46595096358415
5.0803589 ,Left ,49.8821092285505 ,51.1647542214185 ,9.37397951308424
5.1028893 ,Left ,49.8773908071797 ,51.0751432997311 ,9.2525601035241
5.1179277 ,Left ,49.8400790651453 ,50.9892208050614 ,9.13434504088674
5.1410608 ,Left ,49.7525949306046 ,50.9328395155346 ,9.06223248149419
5.1629043 ,Left ,49.70861353256 ,50.9043880336127 ,9.01443416019653
5.1779826 ,Left ,49.7313909152673 ,50.8527769205089 ,8.98661656391282
5.2004348 ,Left ,49.6954064018432 ,50.7826672016756 ,9.01065005241683
5.2230972 ,Left ,49.7252534608013 ,50.7282817234829 ,9.0659923629481
5.2381017 ,Left ,49.814496461895 ,50.7188803804466 ,9.10770607127622
5.2605066 ,Left ,49.8416399501813 ,50.7793421381875 ,9.07443992880965
5.2829306 ,Left ,49.8423028138485 ,50.8456818057417 ,9.05283286073766
5.2981328 ,Left ,49.9031478805522 ,50.7982847867162 ,9.12742514028727
5.3204435 ,Left ,50.0153987285889 ,50.6483789706711 ,9.24776512843303
5.3430229 ,Left ,50.0866231772525 ,50.4670534570041 ,9.35956648130811
5.3597785 ,Left ,50.1253854905546 ,50.3029580469441 ,9.46788230436263
5.3806184 ,Left ,50.171067966616 ,50.1766281623814 ,9.62027683968322
5.4027884 ,Left ,50.2229261408935 ,50.0982799292415 ,9.80746654103248
5.4180418 ,Left ,50.2319299784854 ,50.0351669641268 ,9.96935564839963
5.4404969 ,Left ,50.2065309303549 ,49.9814285222215 ,10.0737692872661
5.4629727 ,Left ,50.2312645629498 ,49.9134441220559 ,10.1469987763027
5.4780031 ,Left ,50.2706083186499 ,49.8407557557639 ,10.1845486022477
5.5004693 ,Left ,50.2419229136385 ,49.7848912343175 ,10.171905571436
5.5229736 ,Left ,50.184429684571 ,49.7652684885411 ,10.1430389182669
5.5380514 ,Left ,50.1305060160026 ,49.7627200498317 ,10.1251037197997
5.56054 ,Left ,50.0719320658593 ,49.7901106279867 ,10.1411081076383
5.5856938 ,Left ,50.0396884065894 ,49.8354426373147 ,10.1708578354687
5.5980609 ,Left ,50.0432543351679 ,49.8833616211253 ,10.1739889337269
5.6203802 ,Left ,50.0253633507999 ,49.934328495241 ,10.1572173385766
5.6429382 ,Left ,49.9729720042008 ,49.9986966908479 ,10.1543466963243
5.6579121 ,Left ,49.8941211075992 ,50.0820596295064 ,10.1615467916705
5.6804565 ,Left ,49.841754672321 ,50.1587747638925 ,10.1715518453431
5.7028643 ,Left ,49.874329291293 ,50.2013000483567 ,10.1884631695683
5.7180241 ,Left ,49.9314492174316 ,50.2315049682691 ,10.1934121045973
5.7403833 ,Left ,49.9950537056533 ,50.2881304225017 ,10.1705086699529
5.7630944 ,Left ,50.0639717307857 ,50.3798892055937 ,10.1446083795354
5.7852815 ,Left ,50.1475436650235 ,50.4791449132745 ,10.125371786336
5.8019305 ,Left ,50.2122930412777 ,50.5458093167918 ,10.1168068000183
5.8230626 ,Left ,50.239175331754 ,50.6147154439026 ,10.1216005191104
5.8454538 ,Left ,50.2262097593653 ,50.6987528665515 ,10.1335118790645
5.8605316 ,Left ,50.1909243764504 ,50.7963451171768 ,10.1352867217267
5.8832753 ,Left ,50.2000888428895 ,50.8793099774432 ,10.1425696737166
5.9052021 ,Left ,50.2715589145484 ,50.9253504286605 ,10.1748555112696
5.9204707 ,Left ,50.3561697730085 ,50.9341555227242 ,10.230654239467
5.9429653 ,Left ,50.3979556385783 ,50.930279146155 ,10.29478995932
5.9579204 ,Left ,50.3962488961469 ,50.9306790872093 ,10.3622780365221
5.9806236 ,Left ,50.3768984302022 ,50.9329667328475 ,10.4354051813233
6.0034625 ,Left ,50.3600384002824 ,50.930411351137 ,10.5099545815668
6.0188556 ,Left ,50.3690697396126 ,50.9127816142199 ,10.5943703322087
6.0404525 ,Left ,50.389911010562 ,50.8744487794268 ,10.6972601802671
6.0629631 ,Left ,50.4191209215129 ,50.8184838483916 ,10.8122147645211
6.0854875 ,Left ,50.4421650779079 ,50.7520032659927 ,10.9266321634043
6.1005166 ,Left ,50.4560904077195 ,50.6843184131054 ,11.0422899662305
6.1304106 ,Left ,50.4668321774485 ,50.6093188066587 ,11.1542411737168
6.152923 ,Left ,50.4797860790826 ,50.541499514706 ,11.2690343208842
6.1678551 ,Left ,50.4976611084097 ,50.4882446505056 ,11.3788725005817
6.1834895 ,Left ,50.5193134702358 ,50.4521026278678 ,11.4769898137404
6.2054573 ,Left ,50.5372454142005 ,50.4235391368904 ,11.5643024563277
6.2205062 ,Left ,50.5529380594016 ,50.3894424024725 ,11.6513492022633
6.2427819 ,Left ,50.5631634121078 ,50.3468810600484 ,11.7394304428277
6.2654373 ,Left ,50.559068971158 ,50.2952514976136 ,11.8199316523132
6.2803292 ,Left ,50.5337103981281 ,50.2437335555321 ,11.8865543645903
6.3102507 ,Left ,50.5087911344704 ,50.1942521957811 ,11.9458663489287
6.3330492 ,Left ,50.4868718508986 ,50.1479915763936 ,11.9900548528861
6.3479815 ,Left ,50.4899679644178 ,50.1129815238628 ,12.0151586567761
6.3628863 ,Left ,50.5138535437156 ,50.0887715726866 ,12.0225016395953
6.3853089 ,Left ,50.5254132876836 ,50.0759919515483 ,12.0117297594029
6.4005686 ,Left ,50.5149025065508 ,50.0762261490739 ,11.9954328111393
6.4232207 ,Left ,50.4870529855063 ,50.0854764314449 ,11.9728549031709
6.4454383 ,Left ,50.4804791174935 ,50.0904534148035 ,11.9519765404938
6.4604577 ,Left ,50.4861433690514 ,50.0949305847615 ,11.9204846089008
6.4833723 ,Left ,50.4797931718177 ,50.1062639447526 ,11.8851652797158
6.5053527 ,Left ,50.4659351499453 ,50.114176363041 ,11.8551289632575
6.5204234 ,Left ,50.4405322199623 ,50.1243389262158 ,11.8356824794484
6.5429553 ,Left ,50.4234373216006 ,50.1292185158788 ,11.8101717968193
6.5654656 ,Left ,50.4200629909537 ,50.12675944975 ,11.77588603393
6.580523 ,Left ,50.4160316007215 ,50.1224766950986 ,11.7409744493416
6.6029216 ,Left ,50.3863317725628 ,50.1217568953149 ,11.7127205233452
6.6263189 ,Left ,50.3297048454414 ,50.1105944562256 ,11.6765722740084
6.6405752 ,Left ,50.2545462189876 ,50.0835764025985 ,11.633007999665
6.6628755 ,Left ,50.1714476669968 ,50.0406798672329 ,11.5934050908288
6.6853089 ,Left ,50.0856806445923 ,49.9903058742358 ,11.558957336314
6.7077779 ,Left ,50.0234234474108 ,49.9412467232444 ,11.542419753448
6.7230368 ,Left ,49.9917183549461 ,49.9013387112412 ,11.5239741725565
6.745168 ,Left ,50.0501531586176 ,49.8689001547457 ,11.4997323509849
6.7678519 ,Left ,50.1175915774314 ,49.8602236031952 ,11.4647574192325
6.7831859 ,Left ,50.1025278695193 ,49.9469703620701 ,11.434866337174
6.805362 ,Left ,50.0625309097872 ,50.0450193059898 ,11.4218537890543
6.8278359 ,Left ,50.0557163660374 ,50.0766238698719 ,11.4232385280766
6.8502955 ,Left ,50.1036826891728 ,50.0441233144912 ,11.4172193482599
6.8803882 ,Left ,50.2075073379076 ,49.9560362943555 ,11.3273761625892
6.9032877 ,Left ,50.1886506187618 ,49.9782342205065 ,11.2170892020961
6.925409 ,Left ,50.1493649671392 ,50.0470286468971 ,11.0905192812668
6.9478436 ,Left ,50.1217003997792 ,50.1379981083655 ,10.9554746323011
6.9629654 ,Left ,50.1409767773497 ,50.1829907234994 ,10.8235727113429
6.9852086 ,Left ,50.1610183396389 ,50.172166927358 ,10.7030633509968
7.0078639 ,Left ,50.1257605202093 ,50.1435520044865 ,10.6083166964666
7.0229908 ,Left ,50.0698973689649 ,50.1136116721944 ,10.5453746895346
7.04535 ,Left ,50.0250938717024 ,50.0550605636453 ,10.5406461810663
7.0678168 ,Left ,49.9984187364092 ,49.9656103274646 ,10.5682646830555
7.0829081 ,Left ,49.9863618968092 ,49.864972184471 ,10.560601647
7.1052339 ,Left ,50.0563444745594 ,49.8058731522601 ,10.5736395596605
7.1277859 ,Left ,50.1134846469116 ,49.8642706417651 ,10.5721457095082
7.1429512 ,Left ,50.1351506692994 ,49.9988051912461 ,10.5238891708929
7.1728576 ,Left ,50.1492222752241 ,50.0701255162828 ,10.4857039738034
7.1952781 ,Left ,50.0884607814821 ,50.0785782046416 ,10.4857203948765
7.2102806 ,Left ,49.9883248530588 ,50.0799599120922 ,10.4855445249877
7.2330937 ,Left ,49.8693498256273 ,50.1286311715037 ,10.4466269312109
7.2562157 ,Left ,49.8384416986124 ,50.1347030141522 ,10.3927229612575
7.2702703 ,Left ,49.8751858965992 ,50.1099432010481 ,10.3916720321477
7.2853638 ,Left ,49.9572269397344 ,50.145850647812 ,10.4272381636868
7.3079687 ,Left ,50.0176469491523 ,50.2935620411753 ,10.4240723037249
7.3229024 ,Left ,50.0595185553506 ,50.4783032097789 ,10.4006542646038
7.3453283 ,Left ,50.0771960537619 ,50.5912859018073 ,10.3956322336761
7.3678192 ,Left ,50.0427149179088 ,50.646155898102 ,10.4081698486769
7.3829795 ,Left ,49.9684934535394 ,50.6753994890685 ,10.40801622876
7.4054156 ,Left ,49.9333367131279 ,50.6890241203926 ,10.370262828216
7.4277586 ,Left ,49.9013883536037 ,50.6810628967912 ,10.3436559983482
7.442908 ,Left ,49.919756937383 ,50.6503198377768 ,10.344278529042
7.4656031 ,Left ,49.963261156326 ,50.5844301667005 ,10.3489968698035
7.487897 ,Left ,49.9529037607505 ,50.5285486334629 ,10.3664018978506
7.5029518 ,Left ,49.9339468312222 ,50.4960907868871 ,10.3801737889761
7.5254499 ,Left ,49.9447083126278 ,50.4923220497066 ,10.3620065287672
7.5479002 ,Left ,49.9511582367357 ,50.5309929658451 ,10.3339475038917
7.5629443 ,Left ,49.9595040768741 ,50.5813188028482 ,10.3121583800827
7.5854275 ,Left ,49.9705597370168 ,50.645168265491 ,10.3056898086446
7.607796 ,Left ,49.9985667209013 ,50.6807395899376 ,10.290598627811
7.6229501 ,Left ,50.014148182379 ,50.6856814442958 ,10.2707190559777
7.6454399 ,Left ,50.0293030981465 ,50.6825760573141 ,10.2619885214973
7.6678016 ,Left ,50.0636386442763 ,50.6813476301891 ,10.2580380577046
7.683101 ,Left ,50.1456251198639 ,50.6764756213179 ,10.2412376193824
7.7054631 ,Left ,50.227443973276 ,50.6778909648495 ,10.2166161605833
7.7278298 ,Left ,50.2778567324628 ,50.7266791054709 ,10.1928675084148
7.7431632 ,Left ,50.2794323748001 ,50.8162802227888 ,10.1386943619027
7.765335 ,Left ,50.2263181055742 ,50.9317727217221 ,10.0366068349531
7.7877497 ,Left ,50.2002124378181 ,51.0276703534793 ,9.91312590682722
7.8102927 ,Left ,50.2131735436543 ,51.0821868574598 ,9.78611017410036
7.8253448 ,Left ,50.2410672278791 ,51.1075900321253 ,9.66113253716145
7.8554243 ,Left ,50.2318942895358 ,51.1201625082896 ,9.5286695419345
7.8778798 ,Left ,50.1905210032613 ,51.1201587043224 ,9.39966600093279
7.8928566 ,Left ,50.1528439018232 ,51.1025451178696 ,9.29264888337156
7.9079113 ,Left ,50.1022788876101 ,51.0601821276619 ,9.19636387857531
7.9303318 ,Left ,50.036527073332 ,50.9917982623959 ,9.10618119195926
7.9454767 ,Left ,49.9786409159017 ,50.9251862742278 ,9.04286337350089
7.9678914 ,Left ,49.9465138606018 ,50.8673994568808 ,9.00215022622979
7.9902673 ,Left ,49.9321106833176 ,50.806519936607 ,8.97137592353719
8.0055786 ,Left ,49.9166012651537 ,50.748021208813 ,8.94520717712122
8.0277627 ,Left ,49.8786042256916 ,50.6720740261094 ,8.95018121991153
8.0503915 ,Left ,49.8393436611723 ,50.56240226534 ,8.98081197068511
8.0653744 ,Left ,49.8864723613724 ,50.4783263432609 ,9.02984701906632
8.08914 ,Left ,49.9408416774947 ,50.4767130522373 ,9.04328975312516
8.1102988 ,Left ,50.0239827017787 ,50.5192106435104 ,9.03639660815554
8.1254497 ,Left ,50.1721364836554 ,50.4900999942442 ,9.08407759991557
8.1478423 ,Left ,50.3139926085461 ,50.3689751954107 ,9.16986444020811
8.1702699 ,Left ,50.3573619592881 ,50.2316870073352 ,9.26145210944258
8.1853283 ,Left ,50.3421131517433 ,50.1438938836141 ,9.37772057956598
8.2079611 ,Left ,50.3156608834468 ,50.1142745495364 ,9.50205088107277
8.2302968 ,Left ,50.2736791686078 ,50.1082397640746 ,9.5890623739434
8.2454448 ,Left ,50.264134272079 ,50.1026728006625 ,9.64331754441722
8.2681283 ,Left ,50.2709658780943 ,50.0716424024638 ,9.69426769289783
8.2905045 ,Left ,50.2483518618628 ,49.9930489781156 ,9.71540262510226
8.297967 ,Left ,50.2043581861289 ,49.9051113931881 ,9.7087443055436
8.3204715 ,Left ,50.1675673421738 ,49.8658293089762 ,9.70096709102256
8.342858 ,Left ,50.1948428750498 ,49.8553059078869 ,9.68826467008926
8.3579155 ,Left ,50.2409553773214 ,49.8918685016652 ,9.67278055951893
8.3804283 ,Left ,50.2988740137601 ,49.9531953510724 ,9.66359642528991
8.4179127 ,Left ,50.3974226971919 ,50.0075114294618 ,9.68999633619012
8.4403974 ,Left ,50.4277787261854 ,49.9935268542273 ,9.71744215220133
8.4778753 ,Left ,50.4428605228275 ,49.9697194772539 ,9.76808837896769
8.500757 ,Left ,50.447648119313 ,49.9783919316138 ,9.76817130852184
8.5379454 ,Left ,50.5133811976599 ,50.0192042193421 ,9.73735990126259
8.5603989 ,Left ,50.5739218283422 ,50.0368506811683 ,9.73256009576916
8.5979328 ,Left ,50.6177960282366 ,50.1041215190612 ,9.75347632796057
8.6204324 ,Left ,50.594007154104 ,50.1378624481288 ,9.76964068185475
8.6580546 ,Left ,50.5582990563661 ,50.1702139257987 ,9.85703375133822
8.6804607 ,Left ,50.5771340718386 ,50.1631489173061 ,9.92018800428308
8.718054 ,Left ,50.5730384150977 ,50.1638947042128 ,10.0805192345838
8.7410693 ,Left ,50.5568858832735 ,50.173867341719 ,10.1731253625355
8.7777873 ,Left ,50.5095685063429 ,50.1969065649488 ,10.377770023331
8.800404 ,Left ,50.488150228157 ,50.2027283369546 ,10.4852057314705
8.8230667 ,Left ,50.4821749995034 ,50.205343233554 ,10.5998854348905
8.8377684 ,Left ,50.482376624661 ,50.2079161549107 ,10.7142773697382
8.86043 ,Left ,50.4763058549078 ,50.2045100237262 ,10.8254954118121
8.8830089 ,Left ,50.4596824988461 ,50.2009398931438 ,10.9243782346499
8.897929 ,Left ,50.4370136800105 ,50.2038522081652 ,11.0170940111706
8.9205095 ,Left ,50.4185821108017 ,50.2075765138023 ,11.0961467388504
8.9581229 ,Left ,50.4066415125551 ,50.2106160916421 ,11.2218461376141
8.9803489 ,Left ,50.4031214361785 ,50.2051845607595 ,11.2717909169965
9.0179079 ,Left ,50.3690397235235 ,50.1840314478625 ,11.336383099758
9.0404502 ,Left ,50.3417640296512 ,50.1775580031345 ,11.339625308362
9.0782356 ,Left ,50.3292950911597 ,50.1783570428986 ,11.303129207182
9.1017446 ,Left ,50.3301124417833 ,50.1699550515972 ,11.280416738656
9.1378433 ,Left ,50.3267318790894 ,50.1510076647805 ,11.219668820025
9.1603774 ,Left ,50.3179100835922 ,50.1504365594815 ,11.1803092031708
9.1977102 ,Left ,50.2573384352868 ,50.1502922415827 ,11.1136070038826
9.2203945 ,Left ,50.2132035131192 ,50.1375623117491 ,11.0833797467597
9.2578624 ,Left ,50.1150619283157 ,50.0555505377991 ,11.0251046986352
9.2805945 ,Left ,50.0982661750043 ,49.9975544128806 ,11.0342412630631
9.3193031 ,Left ,50.1038304311117 ,49.9729697512767 ,10.9932173366609
9.3402913 ,Left ,50.14132042883 ,50.0256140497896 ,10.9779945650061
9.3779014 ,Left ,50.1233675998532 ,50.2281565221607 ,10.9922225752624
9.4004286 ,Left ,50.160620000873 ,50.2394925392596 ,11.0077197805381
9.4455018 ,Left ,50.3098221661383 ,50.1901286428428 ,10.9757956906664
9.4679647 ,Left ,50.3230355313398 ,50.1941184279571 ,10.9152481802488
9.5205382 ,Left ,50.3205372803568 ,50.3085299479601 ,10.6003006435306
9.5579645 ,Left ,50.3199279434789 ,50.2795633389246 ,10.3630888679122
9.5804308 ,Left ,50.2613348804185 ,50.2363068962819 ,10.2704523717248
9.617863 ,Left ,50.1694549195929 ,50.0788759618353 ,10.1975071569722
9.641685 ,Left ,50.1382780687982 ,49.954065136642 ,10.209313524194
9.6779449 ,Left ,50.2443305952275 ,49.8301724288107 ,10.2768820899443
9.7024487 ,Left ,50.2647182941321 ,49.9400985083242 ,10.2792999678358
9.7378612 ,Left ,50.3165167353456 ,50.1010366048718 ,10.2757872930219
9.760467 ,Left ,50.2170024524959 ,50.0974017116122 ,10.2835664554442
9.7979309 ,Left ,49.9929836085458 ,50.1394438866179 ,10.1834219828004
9.8204968 ,Left ,49.9873731803134 ,50.1351302720538 ,10.1617616945459
9.8587415 ,Left ,50.1295550926328 ,50.2230550679562 ,10.2316294934697
9.8879661 ,Left ,50.1706437598947 ,50.3834439418044 ,10.2287937666621
9.9254671 ,Left ,50.1914061306825 ,50.5629111715307 ,10.2240250997206
9.9406575 ,Left ,50.1048713035763 ,50.6327761903375 ,10.2622444502871
9.977831 ,Left ,49.9149342050249 ,50.7067068796193 ,10.2851327328858
10.0005702 ,Left ,49.9109366002401 ,50.6692448124249 ,10.3025770792073
10.0377286 ,Left ,49.9197630457628 ,50.5186819714913 ,10.2952550157631
10.0603412 ,Left ,49.9340011046955 ,50.4443466948235 ,10.3115525741612
10.098141 ,Left ,49.9414105759212 ,50.3392029030058 ,10.2787500335875
10.1220123 ,Left ,49.9134911291888 ,50.3913874570832 ,10.2518736652227
10.1578642 ,Left ,49.9529045637994 ,50.5129213105645 ,10.1791408655068
10.1729162 ,Left ,50.0000434211758 ,50.4951815514415 ,10.1663025126414
10.195312 ,Left ,50.0388891967434 ,50.4516484032456 ,10.1687069312156
10.210499 ,Left ,50.077739136815 ,50.4019675755457 ,10.1709728149531
10.2329298 ,Left ,50.1300083865537 ,50.3621708405187 ,10.1669811919671
10.2551984 ,Left ,50.1815532106843 ,50.3451572157362 ,10.1566065386685
10.2704125 ,Left ,50.2212968049304 ,50.3668334301061 ,10.1462915718609
10.2928186 ,Left ,50.2423174485798 ,50.4254631834841 ,10.1218243686294
10.3155288 ,Left ,50.2431076773205 ,50.4989845960887 ,10.070979016449
10.3304074 ,Left ,50.253373300347 ,50.5591294510246 ,10.0094994041914
10.3626696 ,Left ,50.3015145608628 ,50.5988933617174 ,9.93761969464475
10.3762588 ,Left ,50.329561113324 ,50.6290096312982 ,9.84685053339126
10.3905052 ,Left ,50.316760352057 ,50.666044852212 ,9.75533738930168
10.4130378 ,Left ,50.2896441707991 ,50.7216433883306 ,9.68040950633298
10.4355947 ,Left ,50.2560491710936 ,50.7831488620418 ,9.60657559498245
10.4510347 ,Left ,50.2271260273289 ,50.8144876735517 ,9.53276740491444
10.4731346 ,Left ,50.2009106296963 ,50.8082027309969 ,9.46384014798073
10.4958821 ,Left ,50.1587137151599 ,50.7884836222226 ,9.4023022723964
10.5106972 ,Left ,50.106556598792 ,50.7676180785187 ,9.35769212441317
10.5354009 ,Left ,50.0656636653584 ,50.7290529437456 ,9.32444365910259
10.5552769 ,Left ,50.0416448264925 ,50.6650875516495 ,9.2933936145288
10.5704623 ,Left ,50.0172700913173 ,50.5992411650858 ,9.26546503639135
10.5927789 ,Left ,49.9751688815975 ,50.5284710395805 ,9.22792998861478
10.6154148 ,Left ,49.9053136626024 ,50.472072154076 ,9.20548391062832
10.6303903 ,Left ,49.8404909017916 ,50.4244800447206 ,9.20654530685392
10.6541429 ,Left ,49.81583519638 ,50.3955098345353 ,9.22369126340453
10.6752853 ,Left ,49.8056649218226 ,50.394685926288 ,9.24384278973476
10.6906852 ,Left ,49.8301433963266 ,50.4625232048943 ,9.25585233542584
10.7128923 ,Left ,49.8919766241442 ,50.5130100542474 ,9.26099305920282
10.73545 ,Left ,50.0187836680951 ,50.4609287045984 ,9.29007506387411
10.7581592 ,Left ,50.120012229787 ,50.3432689857987 ,9.34478656897982
10.7731611 ,Left ,50.2027928875415 ,50.2124250656835 ,9.40908880434311
10.795421 ,Left ,50.2685715342109 ,50.1005367815416 ,9.47090890446218
10.8178728 ,Left ,50.2844784287311 ,50.0584089190618 ,9.55137370627595
10.8329158 ,Left ,50.2705042942701 ,50.0579383917889 ,9.64299166354732
10.8555704 ,Left ,50.2116482557908 ,50.0962075922485 ,9.72705047513419
10.8778362 ,Left ,50.1852576778811 ,50.1023202559935 ,9.76414714105272
10.8929953 ,Left ,50.1374524711878 ,50.0542244534657 ,9.7795533672486
10.9153126 ,Left ,50.1029094757428 ,49.9774313167835 ,9.81182464092626
10.9378572 ,Left ,50.1389296817783 ,49.8985529825875 ,9.83438677849269
10.9528797 ,Left ,50.1945245770003 ,49.8746899950018 ,9.83550881245659
10.975704 ,Left ,50.2138130981511 ,49.9542753792682 ,9.82197828750057
10.9979115 ,Left ,50.2315578811664 ,50.0995245654876 ,9.82135687485797
11.0131164 ,Left ,50.2285856806292 ,50.1860954665505 ,9.82492810488559
11.0354041 ,Left ,50.2293248971492 ,50.1817138923873 ,9.8372922905362
11.0578786 ,Left ,50.2516977062185 ,50.1173759643535 ,9.85087336926821
11.0729762 ,Left ,50.2924804010496 ,50.0472960452265 ,9.84258674448789
11.1029508 ,Left ,50.316910226782 ,50.0091787784286 ,9.81434742639467
11.1254506 ,Left ,50.3279317806848 ,50.0119745319242 ,9.79573560526589
11.1405935 ,Left ,50.3488974348222 ,50.0072660880985 ,9.80326889837616
11.1630072 ,Left ,50.3555500870584 ,50.015207370646 ,9.81569899426729
11.1779339 ,Left ,50.3508705508988 ,50.0450453936215 ,9.83461094625747
11.193896 ,Left ,50.3442757244159 ,50.0875658361023 ,9.87217866670765
11.215432 ,Left ,50.3341498870434 ,50.1311753830681 ,9.9203763794706
11.2379676 ,Left ,50.3132533192375 ,50.1598898244046 ,9.97771234432208
11.2530403 ,Left ,50.3271142051279 ,50.16289715946 ,10.054945956089
11.2768383 ,Left ,50.3453697687957 ,50.1480553750152 ,10.1302387968272
11.2977456 ,Left ,50.3321833734405 ,50.1313289489625 ,10.1978236604073
11.3130156 ,Left ,50.2870046861062 ,50.1294112142028 ,10.2669706292141
11.3354066 ,Left ,50.2479654930131 ,50.1276738467951 ,10.3359856759397
11.3583037 ,Left ,50.2297088432465 ,50.1150094068143 ,10.395770708487
11.3744013 ,Left ,50.2249571774747 ,50.112229354191 ,10.4447502201867
11.3956329 ,Left ,50.2282544495181 ,50.1211177322891 ,10.487617230993
11.4255404 ,Left ,50.2395329472945 ,50.1293573772538 ,10.5243290811481
11.4482153 ,Left ,50.2427893788979 ,50.1320984387905 ,10.5642022435076
11.4704024 ,Left ,50.2332135656419 ,50.1392669589683 ,10.6055205030665
11.4933979 ,Left ,50.2044433012644 ,50.1673921638415 ,10.6787691371985
11.5154799 ,Left ,50.1960791513572 ,50.1722376049782 ,10.7092183639256
11.5380203 ,Left ,50.1973413987761 ,50.1634312703605 ,10.7396207689737
11.5529822 ,Left ,50.2014962981538 ,50.1453446471878 ,10.7717643304656
11.5826088 ,Left ,50.2007756939288 ,50.1310352171428 ,10.8021009106937
11.6069554 ,Left ,50.1871836107998 ,50.1213016546908 ,10.8263595066331
11.628029 ,Left ,50.1747364226941 ,50.109141820658 ,10.8445303168667
11.650493 ,Left ,50.1756041313394 ,50.0881498498745 ,10.8598187860834
11.665402 ,Left ,50.1800077388577 ,50.0597129486696 ,10.8746705617638
11.6804248 ,Left ,50.1788704421536 ,50.0332630445479 ,10.8838398156452
11.6954174 ,Left ,50.1753684621871 ,50.011793460718 ,10.8898040942959
11.7180479 ,Left ,50.171336475262 ,49.9946934410989 ,10.8850800389583
11.7330442 ,Left ,50.1630025136998 ,49.9771367645837 ,10.866817664883
11.7554957 ,Left ,50.1608402174621 ,49.9594748797397 ,10.8438740939911
11.7779398 ,Left ,50.1514788239638 ,49.9505334624673 ,10.8242271680909
11.8004208 ,Left ,50.1294227066335 ,49.9522414919993 ,10.8043113485755
11.8157707 ,Left ,50.0986298248163 ,49.9466995245932 ,10.7861762560322
11.838094 ,Left ,50.0706622714252 ,49.9257144289174 ,10.7679612695565
11.860483 ,Left ,50.0425032957699 ,49.8924030710935 ,10.7557930814757
11.8754229 ,Left ,49.9866336285558 ,49.8564317494379 ,10.7527035325017
11.8979106 ,Left ,49.9264733449058 ,49.8260972008435 ,10.7668515444784
11.9203959 ,Left ,49.9154063841604 ,49.7949862081445 ,10.7836704231332
11.9429107 ,Left ,49.9411827151185 ,49.7570649347096 ,10.7834435610418
11.9651898 ,Left ,49.9520419119666 ,49.7470432620119 ,10.7861934513224
11.9954572 ,Left ,49.9444694365763 ,49.9474347226121 ,10.7528817464945
12.0200951 ,Left ,49.9871664761738 ,50.0044997427895 ,10.7345963862617
12.0404421 ,Left ,50.072428952797 ,49.9952103299055 ,10.7270206697577
12.0555253 ,Left ,50.1657715462294 ,49.9502187504939 ,10.7157923191201
12.0779235 ,Left ,50.2101681026444 ,49.9182621999784 ,10.7092208428637
12.1006311 ,Left ,50.2236598061336 ,49.9097383316127 ,10.6710813666842
12.1154046 ,Left ,50.2268812588608 ,49.9070944355188 ,10.6054137887822
12.137991 ,Left ,50.2316466154923 ,49.9328002271415 ,10.525920804377
12.1604035 ,Left ,50.2119368377277 ,49.9955495863551 ,10.448473698802
12.1770059 ,Left ,50.1827247825051 ,50.061268725175 ,10.3786470067122
12.1979726 ,Left ,50.1722412974093 ,50.0917394323886 ,10.3189282795852
12.2204263 ,Left ,50.1407753570286 ,50.0717039459365 ,10.2820474530468
12.2394919 ,Left ,50.050993972932 ,50.0055025711066 ,10.2588579880888
12.2580889 ,Left ,49.977869887566 ,49.9029351795168 ,10.246561975744
12.2802099 ,Left ,49.9546422587893 ,49.7530014395712 ,10.2279117430453
12.2953812 ,Left ,49.9455712954514 ,49.614758103326 ,10.2214830036978
12.3180481 ,Left ,49.9459629392585 ,49.5920535994802 ,10.2397859548142
12.3404389 ,Left ,49.8934119420018 ,49.6976121872222 ,10.2082816578941
12.3627109 ,Left ,49.8969996241165 ,49.8806298261808 ,10.1852682150234
12.3779895 ,Left ,49.9281542592065 ,49.9747205824662 ,10.2020889543492
12.4002919 ,Left ,49.9170772672793 ,49.9661739379294 ,10.2281661192243
12.4229112 ,Left ,49.8230770493315 ,49.9422066321058 ,10.2342939527464
12.441889 ,Left ,49.7125162359764 ,49.9604111877781 ,10.2124719050239
12.4605737 ,Left ,49.7365081401591 ,49.9644435006965 ,10.1771155068341
12.4754809 ,Left ,49.7849636780188 ,50.0058820260742 ,10.2030898198784
12.4978315 ,Left ,49.8198822607931 ,50.1294926811308 ,10.2161415000613
12.5204908 ,Left ,49.8738044251156 ,50.2671375582042 ,10.2125033944395
12.5428342 ,Left ,49.9024224759568 ,50.3660411079155 ,10.1981380867466
12.558148 ,Left ,49.8703088584409 ,50.4052867391949 ,10.1896280331887
12.5803394 ,Left ,49.7910743565888 ,50.4377501837688 ,10.1957606492315
12.6030438 ,Left ,49.7226547888603 ,50.4725812035912 ,10.1847971953031
12.6179238 ,Left ,49.6963242327483 ,50.4377169688994 ,10.1418157118765
12.6403645 ,Left ,49.7432044744206 ,50.3566962812133 ,10.1346148515065
12.6553907 ,Left ,49.810456250109 ,50.2875226023013 ,10.1394447611681
12.6777959 ,Left ,49.8393096354414 ,50.2451264380191 ,10.1185637644529
12.7002112 ,Left ,49.839950780963 ,50.1976852188888 ,10.0928788534917
12.7228215 ,Left ,49.8578350237057 ,50.1713081233916 ,10.082412212485
12.7379511 ,Left ,49.892921094509 ,50.1598196216991 ,10.0842444667869
12.7678723 ,Left ,49.8765407649168 ,50.2100365421899 ,10.0605962693901
12.7902822 ,Left ,49.8605265104922 ,50.2804752391431 ,10.0321771933588
12.8052685 ,Left ,49.8854827467528 ,50.3070388855429 ,10.026047851494
12.8431211 ,Left ,49.9759943681338 ,50.2450076071029 ,10.0767271307001
12.8578787 ,Left ,50.0283114938129 ,50.2299216447416 ,10.0786694304723
12.880376 ,Left ,50.0706122052193 ,50.2283236180973 ,10.0651232761562
12.9028155 ,Left ,50.0882203972032 ,50.2634438812558 ,10.063670976527
12.9180519 ,Left ,50.0952641184721 ,50.3347397496917 ,10.0696990376796
12.9402833 ,Left ,50.0849888664305 ,50.4035247880112 ,10.0631559380003
12.9628988 ,Left ,50.0754522108239 ,50.4699051104203 ,10.0258688538615
12.9854238 ,Left ,50.0981936620899 ,50.5359581955242 ,9.97956325895167
13.0081191 ,Left ,50.1261642112718 ,50.5942041552946 ,9.92250339985753
13.0378352 ,Left ,50.1386978373435 ,50.7142622398349 ,9.76737980647671
13.0603017 ,Left ,50.1168932972423 ,50.767737152418 ,9.68592506128485
13.082874 ,Left ,50.0863760131488 ,50.8073964181006 ,9.60111118166012
13.0978055 ,Left ,50.0608276801611 ,50.8169225841477 ,9.52268151214912
13.1203078 ,Left ,50.0395177327354 ,50.8005946675898 ,9.4430296619952
13.142788 ,Left ,50.0163000199428 ,50.7786032134358 ,9.35082523869
13.1652487 ,Left ,49.9912028208297 ,50.7570523695349 ,9.2521965275925
13.1953344 ,Left ,49.972722096895 ,50.723253698873 ,9.15062448465317
13.2253128 ,Left ,49.9541158455952 ,50.6425934541546 ,9.00561196465353
13.2402179 ,Left ,49.9211893447415 ,50.6012927480013 ,8.96782810033389
13.2629455 ,Left ,49.8657430534642 ,50.5787074861807 ,8.94660594438983
13.2781244 ,Left ,49.8169422177959 ,50.5643567340392 ,8.93637531500629
13.3003337 ,Left ,49.7704846147934 ,50.537162700771 ,8.92328932924655
13.3228289 ,Left ,49.762454155882 ,50.5091716672195 ,8.92515737417202
13.337799 ,Left ,49.855614806569 ,50.508781696447 ,8.94265874602423
13.3603237 ,Left ,49.9854727024858 ,50.5257678379085 ,8.9164940091811
13.3826426 ,Left ,50.0204242775234 ,50.5660443567397 ,8.86645230782127
13.4052976 ,Left ,50.0331312068904 ,50.5684554268694 ,8.86037290309189
13.420325 ,Left ,50.0918961190334 ,50.5032109728865 ,8.89790073589216
13.4429016 ,Left ,50.1580779074025 ,50.407324839189 ,8.94931358019151
13.4653422 ,Left ,50.2413391064821 ,50.3081837489285 ,9.00642010623488
13.4805975 ,Left ,50.3239973533331 ,50.2006607343831 ,9.07201755734008
13.503018 ,Left ,50.3780225160997 ,50.1071931559383 ,9.13690327743899
13.5253185 ,Left ,50.3906345411378 ,50.0863003349877 ,9.22105062975214
13.5403395 ,Left ,50.3683475171843 ,50.1184612352789 ,9.30106873178151
13.5627619 ,Left ,50.3206912258411 ,50.1606933609996 ,9.36071193631031
13.5853642 ,Left ,50.3021786993204 ,50.1719917749481 ,9.41066708258106
13.6077234 ,Left ,50.3456744901596 ,50.1135859397506 ,9.45993827584102
13.6305045 ,Left ,50.3416799027601 ,50.0269519860287 ,9.50577192040689
13.6603213 ,Left ,50.2385227160276 ,49.9098914204242 ,9.55656581118316
13.6827618 ,Left ,50.2199967236998 ,49.9157208845078 ,9.54430613948369
13.7051864 ,Left ,50.1998091731732 ,49.9688916710395 ,9.51994259296468
13.7204164 ,Left ,50.1921319082828 ,50.0627839477031 ,9.51276089493278
13.7429984 ,Left ,50.1927861358354 ,50.1438575967525 ,9.52239335871293
13.7653458 ,Left ,50.1827716926656 ,50.1570044008857 ,9.54730008003292
13.7804499 ,Left ,50.1962409331853 ,50.1344448569825 ,9.56589357348747
13.8028833 ,Left ,50.2287960224788 ,50.1080316519505 ,9.57505179378602
13.8253822 ,Left ,50.2764386849602 ,50.091253959198 ,9.570293163607
13.8406866 ,Left ,50.3252521841373 ,50.0782164136799 ,9.56384163531069
13.8627803 ,Left ,50.3710473287859 ,50.0621529804199 ,9.54953681106355
13.8856357 ,Left ,50.3797548012313 ,50.0574268357336 ,9.54944444889259
13.9002787 ,Left ,50.378522585632 ,50.0594903730687 ,9.58055850849607
13.9228505 ,Left ,50.378233345035 ,50.0774553602578 ,9.61956304235788
13.9451629 ,Left ,50.3829963766805 ,50.0917849677386 ,9.66152485635131
13.9603549 ,Left ,50.4152617219804 ,50.0829424670093 ,9.72484592121827
13.9828646 ,Left ,50.4630338125444 ,50.0646201685991 ,9.81261316878675
14.0052885 ,Left ,50.486734346462 ,50.0475272766086 ,9.90652497579478
14.0203141 ,Left ,50.4795219788325 ,50.042347695963 ,10.0006609196619
14.035362 ,Left ,50.463047376015 ,50.0462674807272 ,10.1024804929135
14.073779 ,Left ,50.4430629990642 ,50.0501141042783 ,10.3055939106719
14.0954306 ,Left ,50.4537961900954 ,50.0739421606354 ,10.399271346009
14.1329692 ,Left ,50.4723241071152 ,50.1660821423389 ,10.5610782881823
14.1628881 ,Left ,50.4666013106683 ,50.2248201824851 ,10.6245356267531
14.2002793 ,Left ,50.4702075950041 ,50.3314128614311 ,10.728010733043
14.2152601 ,Left ,50.4737410333568 ,50.3625981938428 ,10.7769334161293
14.25282 ,Left ,50.4606373120981 ,50.3846895095686 ,10.8806867217527
14.2756588 ,Left ,50.4482360576488 ,50.3888037786649 ,10.9124146456392
14.3128256 ,Left ,50.4597773560935 ,50.3841770959191 ,10.9612933826045
14.3360899 ,Left ,50.4695176478242 ,50.3701761383397 ,10.9793838462857
14.3727927 ,Left ,50.4585732185582 ,50.345126140556 ,10.9866395611663
14.3953153 ,Left ,50.4570809325475 ,50.3353461819117 ,10.9851530994038
14.4328773 ,Left ,50.4561582107363 ,50.3212138146918 ,10.9864521559965
14.455317 ,Left ,50.4486060103474 ,50.3178041992906 ,10.9789546438185
14.4936131 ,Left ,50.436952959985 ,50.3262877027161 ,10.9622504259359
14.5152987 ,Left ,50.4308459120899 ,50.3327136077755 ,10.9515851934218
14.5528665 ,Left ,50.4147667203002 ,50.3118968271678 ,10.9253652171728
14.5756505 ,Left ,50.3923574592872 ,50.2787957732148 ,10.9069280186948
14.6128293 ,Left ,50.3009739332582 ,50.2021139259925 ,10.8985248157219
14.6355385 ,Left ,50.2547450776566 ,50.1712804927282 ,10.8769326936596
14.6730396 ,Left ,50.1768669805545 ,50.0918961973208 ,10.8444686837318
14.6969272 ,Left ,50.174990671157 ,50.0574967981948 ,10.8489788688648
14.747825 ,Left ,50.1958369896736 ,50.0872081944272 ,10.8490802732889
14.7930286 ,Left ,50.3176143785097 ,50.3428638235232 ,10.8613564800645
14.8154364 ,Left ,50.3876029536009 ,50.3491014021929 ,10.8434453710764
14.8527786 ,Left ,50.3993372902312 ,50.3645540829228 ,10.7187590650326
14.8792116 ,Left ,50.3729502918856 ,50.4177841155016 ,10.613494657325
14.9054522 ,Left ,50.3615138529064 ,50.4676328498832 ,10.5082908487131
14.9281804 ,Left ,50.379011955222 ,50.4706039682924 ,10.4011734172272
14.9501903 ,Left ,50.3756709220779 ,50.4293441538814 ,10.3058255535478
14.9728758 ,Left ,50.248911312156 ,50.3002545379393 ,10.186269669195
14.9955203 ,Left ,50.2138843033654 ,50.1953300471276 ,10.1565885577333
15.017738 ,Left ,50.2167138414815 ,50.0613583720707 ,10.1636399368546
15.0553602 ,Left ,50.3465632873423 ,49.9710869403708 ,10.1883368455645
15.0781747 ,Left ,50.3290397288692 ,50.1040444406276 ,10.1621762455172
15.1154193 ,Left ,50.3191097118231 ,50.2549841155644 ,10.1186328421023
15.1528714 ,Left ,50.1553200563087 ,50.2435420269243 ,10.0655608139018
15.1752712 ,Left ,50.0712819631038 ,50.2383159778041 ,9.99725701302106
15.2129568 ,Left ,50.122897648541 ,50.2460430494083 ,10.0068996443672
15.2354701 ,Left ,50.1547128850395 ,50.2989939312456 ,10.0332265144849
15.2804124 ,Left ,50.1390108605237 ,50.4267348132515 ,10.0236674410693
15.3029145 ,Left ,50.099450813123 ,50.4989168538107 ,10.0398440528701
15.3329914 ,Left ,49.9667192893455 ,50.5871483121251 ,10.0370647527096
15.3553672 ,Left ,49.94410649632 ,50.5556598166908 ,10.0323411220383
15.3929439 ,Left ,49.9369348798174 ,50.4579417426371 ,10.0439630752913
15.4154473 ,Left ,49.9783167794269 ,50.4035075884313 ,10.0342191367132
15.4529498 ,Left ,49.9810815034487 ,50.3494554477613 ,10.0299882675018
15.4753369 ,Left ,49.9303585799933 ,50.4332332162205 ,10.0009319828373
15.5130355 ,Left ,49.9139584227171 ,50.6179321946478 ,9.95704396862098
15.5353426 ,Left ,49.9681999802718 ,50.6270660204115 ,9.96871381391939
15.5730349 ,Left ,50.0481488436358 ,50.6012632005798 ,9.99373133450351
15.6028637 ,Left ,50.0746907682186 ,50.6069941339741 ,10.0018205027763
15.6402799 ,Left ,50.1506390231081 ,50.657904432183 ,10.0091227247303
15.6553923 ,Left ,50.1791959399846 ,50.7099028016578 ,9.98307042512168
15.6928227 ,Left ,50.1698483967967 ,50.8452532471642 ,9.8336167083102
15.7153985 ,Left ,50.1966166832171 ,50.8854632819676 ,9.75344709514019
15.7530721 ,Left ,50.2336202238437 ,50.9305315591368 ,9.56937794691301
15.775305 ,Left ,50.2204161572509 ,50.9628928665129 ,9.48014126195228
15.8127615 ,Left ,50.1846306880585 ,50.9712294611863 ,9.29988146531318
15.8352745 ,Left ,50.1818598931328 ,50.9413940925658 ,9.23923378128122
15.8727837 ,Left ,50.1827904975211 ,50.8597506019304 ,9.13215426346593
15.8952557 ,Left ,50.1437713546065 ,50.8204620072782 ,9.09246064473376
15.9108105 ,Left ,50.1078920529681 ,50.79036352476 ,9.06529691885964
15.9255527 ,Left ,50.0930462491059 ,50.7561163113747 ,9.03397129436268
15.9496891 ,Left ,50.0826849804294 ,50.7226036861489 ,9.0089993008969
15.9703879 ,Left ,50.0455330326065 ,50.6990272872901 ,9.01159438116811
15.9854448 ,Left ,49.9937985559522 ,50.6797820146058 ,9.03107930328957
16.0079138 ,Left ,49.9104183755086 ,50.6496004079842 ,9.04690419646906
16.0302795 ,Left ,49.8288802140634 ,50.6065338289609 ,9.03948400713005
16.0455268 ,Left ,49.8384032404103 ,50.5693942289629 ,9.04651503539641
16.0677083 ,Left ,49.8762955393399 ,50.5603747147427 ,9.0489777452648
16.0902979 ,Left ,49.8817089605866 ,50.5931627756791 ,9.04237767513439
16.105393 ,Left ,49.9183655434026 ,50.5865529932663 ,9.04947057631571
16.1279719 ,Left ,50.0165731924044 ,50.5114920411711 ,9.0927277882287
16.1502331 ,Left ,50.1446045332968 ,50.4070261578394 ,9.14659031314152
16.1804129 ,Left ,50.1783957607368 ,50.3138357422317 ,9.19544466413173
16.1954728 ,Left ,50.1617153835884 ,50.2963545976411 ,9.25780286277656
16.2176369 ,Left ,50.1076001877119 ,50.32265900362 ,9.3369397977319
16.2327207 ,Left ,50.0548277845906 ,50.3407215435396 ,9.39248246375872
16.2479613 ,Left ,50.0641609424967 ,50.3095010613367 ,9.44561924284503
16.2703764 ,Left ,50.0953330015633 ,50.2308665865585 ,9.48952747744204
16.2853619 ,Left ,50.1036741412554 ,50.138857369154 ,9.49579730037627
16.3078959 ,Left ,50.0569803849017 ,50.0861390642704 ,9.49720630064983
16.3304319 ,Left ,50.0310980135864 ,50.0879991328064 ,9.48785861184441
16.3453321 ,Left ,50.0654233355225 ,50.1140633537106 ,9.46302988967835
16.3755845 ,Left ,50.0969341303278 ,50.177587175549 ,9.44136615669239
16.397937 ,Left ,50.1425901106654 ,50.2672465482794 ,9.43849468727517
16.412996 ,Left ,50.1837433659263 ,50.3156242733473 ,9.43567182089953
16.4351824 ,Left ,50.2365878024991 ,50.3157689690094 ,9.43285385198078
16.4592469 ,Left ,50.3202593965075 ,50.2901559789463 ,9.44098965932745
16.4740266 ,Left ,50.400320116076 ,50.2596070737834 ,9.44097601531225
16.4953443 ,Left ,50.4227282866385 ,50.2467370607997 ,9.43465317533782
16.5103758 ,Left ,50.4463215898004 ,50.2375049208273 ,9.43456585698139
16.5330531 ,Left ,50.4838423466089 ,50.2342322368639 ,9.42987838057321
16.5479275 ,Left ,50.5033011155403 ,50.2444638550308 ,9.43620283467508
16.5731831 ,Left ,50.4942143546125 ,50.2732889351087 ,9.4645265110608
16.5929701 ,Left ,50.4564926044803 ,50.3210499042233 ,9.49762249567399
16.6080093 ,Left ,50.4222713066948 ,50.3596270083485 ,9.53976156933787
16.6302853 ,Left ,50.4323507605062 ,50.3823207859137 ,9.60365976113108
16.6528847 ,Left ,50.4618804336735 ,50.4007523404301 ,9.68617430351143
16.6678893 ,Left ,50.4606921911164 ,50.4247174071042 ,9.7684849159364
16.6904006 ,Left ,50.428790100521 ,50.4666935314365 ,9.85509858653946
16.7127633 ,Left ,50.4021636606794 ,50.5111831002761 ,9.95400777556574
16.7280015 ,Left ,50.3893595129924 ,50.553472472747 ,10.0527650161782
16.7504874 ,Left ,50.396518470547 ,50.5873086223669 ,10.1514940098606
16.7747141 ,Left ,50.4112291281864 ,50.6186662823713 ,10.2486445891482
16.7880161 ,Left ,50.432219280428 ,50.6437939863246 ,10.344230666555
16.8103548 ,Left ,50.443624612793 ,50.663863691605 ,10.4456646976012
16.832902 ,Left ,50.4496719744073 ,50.6795497424282 ,10.5515017347109
16.847948 ,Left ,50.4441023245127 ,50.6911046587406 ,10.6552026448968
16.8704536 ,Left ,50.4322648419553 ,50.6966851034694 ,10.7557151767825
16.8929162 ,Left ,50.4264470223295 ,50.6961014886394 ,10.854678159886
16.908038 ,Left ,50.4336835449383 ,50.6805996565518 ,10.9475640006736
16.9303512 ,Left ,50.4459510433559 ,50.6570959776848 ,11.0296304227131
16.954773 ,Left ,50.4555648254194 ,50.6386306321 ,11.1026638946827
16.9679237 ,Left ,50.4570785553481 ,50.6273345747101 ,11.1616035862683
16.9905039 ,Left ,50.4553199115338 ,50.6193259656245 ,11.2102406406925
17.0127592 ,Left ,50.4618757857993 ,50.6062695602384 ,11.2510344347693
17.0282221 ,Left ,50.4743100907081 ,50.5931727432932 ,11.279808561644
17.0503629 ,Left ,50.478963914538 ,50.5768498975245 ,11.2932065615879
17.0727438 ,Left ,50.4747632381671 ,50.559698510608 ,11.2977435245964
17.0879071 ,Left ,50.4724819830867 ,50.5481041211851 ,11.2963027568178
17.1106165 ,Left ,50.462754161412 ,50.5394062067862 ,11.2823124766888
17.1327874 ,Left ,50.4557554594725 ,50.5277145592084 ,11.2549182928249
17.1480098 ,Left ,50.4547813442914 ,50.5159228253663 ,11.2201439671467
17.1705514 ,Left ,50.4571863986409 ,50.5132543367406 ,11.1853983337422
17.1929916 ,Left ,50.4554737350393 ,50.516281717548 ,11.1487745895884
17.2080011 ,Left ,50.4412139640853 ,50.5135260255224 ,11.1092243412909
17.2303399 ,Left ,50.4093328215638 ,50.490203326136 ,11.0768926027531
17.2528667 ,Left ,50.3729413463334 ,50.447684718821 ,11.0612040088747
17.2679766 ,Left ,50.3184038809818 ,50.4116799332842 ,11.0514894253408
17.2904975 ,Left ,50.256159452532 ,50.3887931033094 ,11.0357211173045
17.3129439 ,Left ,50.2035646144053 ,50.358241289682 ,11.0186228377745
17.3280034 ,Left ,50.1648005330524 ,50.3081966765362 ,11.0137646167531
17.3503298 ,Left ,50.1738267468122 ,50.2470980607588 ,11.0212821651412
17.3730321 ,Left ,50.174016604273 ,50.2015513388017 ,11.0333303987505
17.3883249 ,Left ,50.1479263867267 ,50.237818954805 ,11.0393024438554
17.4107203 ,Left ,50.1511952592285 ,50.3440706526785 ,11.0377956817114
17.4329078 ,Left ,50.2347525400283 ,50.4275600692137 ,11.0173946989503
17.4553406 ,Left ,50.3468363236532 ,50.4534306646241 ,10.9880530614969
17.4703572 ,Left ,50.4220762971941 ,50.4349462623671 ,10.9507277149272
17.4931799 ,Left ,50.4173449496656 ,50.3958580920688 ,10.8913142199067
17.515191 ,Left ,50.374339137376 ,50.389155472419 ,10.8024874006775
17.5304072 ,Left ,50.3283317967338 ,50.410157337182 ,10.6881279741469
17.5528374 ,Left ,50.3160444720616 ,50.427389015634 ,10.5779728301781
17.5753683 ,Left ,50.3520247203582 ,50.4053415407721 ,10.4803782101768
17.5920639 ,Left ,50.3561450767489 ,50.3491594016059 ,10.3912559748064
17.6152375 ,Left ,50.28140186256 ,50.2825956568071 ,10.3139096437725
17.637034 ,Left ,50.2022598853393 ,50.2192243376781 ,10.2594272638432
17.6504565 ,Left ,50.1645979122926 ,50.1376710533713 ,10.2316264878494
17.6728888 ,Left ,50.1400264681191 ,50.0578652276484 ,10.2158990010288
17.695184 ,Left ,50.1375914069892 ,50.0320411970587 ,10.2204815827145
17.7102394 ,Left ,50.1695431421813 ,50.0479946011915 ,10.2281168327618
17.7329094 ,Left ,50.1952458746575 ,50.1255284355321 ,10.2099762421845
17.7552417 ,Left ,50.2116360572637 ,50.212296395288 ,10.191833706681
17.7703935 ,Left ,50.178878448055 ,50.2436656014152 ,10.175036419923
17.7930399 ,Left ,50.0804840296462 ,50.2619171972323 ,10.1666186759654
17.8156177 ,Left ,49.9923771715739 ,50.2868908255345 ,10.1458763578562
17.8303892 ,Left ,49.9427637053227 ,50.2989470840108 ,10.1007231007981
17.8539442 ,Left ,49.9931578088823 ,50.2844224292873 ,10.0951478737008
17.8752592 ,Left ,50.1162820500107 ,50.2848974168368 ,10.1222451551052
17.8905964 ,Left ,50.1334266371984 ,50.3242384552442 ,10.1316462525162
17.9128651 ,Left ,50.0865117206043 ,50.4113133996 ,10.1370598184636
17.9352302 ,Left ,50.0656134290138 ,50.4591476054311 ,10.1473574176334
17.9504089 ,Left ,50.0662403494166 ,50.4548475569869 ,10.1473934960806
17.9728337 ,Left ,50.0492453778589 ,50.4645937726607 ,10.1640817635797
17.9955082 ,Left ,49.9831915189153 ,50.5191044582182 ,10.1534887223613
18.0121282 ,Left ,49.903510980104 ,50.5821229543624 ,10.1406596043028
18.0402916 ,Left ,49.8731827062264 ,50.5653972144421 ,10.1247830172587
18.0629487 ,Left ,49.9120519258606 ,50.5157669298028 ,10.1230006103331
18.0777696 ,Left ,49.9403356489803 ,50.4654540796263 ,10.1117348678171
18.1057078 ,Left ,49.9370645354545 ,50.4377529121332 ,10.0888143933783
18.1151162 ,Left ,49.88893491386 ,50.4165604272821 ,10.0651529701574
18.1302071 ,Left ,49.8713752344583 ,50.3937597721241 ,10.0759862870335
18.1533442 ,Left ,49.8932150971006 ,50.3970520854475 ,10.1038905700289
18.1752097 ,Left ,49.8733680578363 ,50.460879473393 ,10.1106968164311
18.1977321 ,Left ,49.8254984546981 ,50.589110247788 ,10.1096134040549
18.2229184 ,Left ,49.8024580358546 ,50.6805906362505 ,10.1138326693039
18.2503612 ,Left ,49.8641177630486 ,50.6791389640362 ,10.1523152240151
18.2758386 ,Left ,49.908552892428 ,50.6584129808402 ,10.1581238216997
18.2953173 ,Left ,49.9379818955961 ,50.6548047328516 ,10.1541536846907
18.3104917 ,Left ,49.9932728531098 ,50.6549413336723 ,10.1538428509823
18.3330962 ,Left ,50.0596532371072 ,50.645279822042 ,10.1537932999705
18.3556165 ,Left ,50.0983114124182 ,50.6570620349758 ,10.1529304982881
18.3704208 ,Left ,50.1010361997047 ,50.703225998048 ,10.1417105706403
18.3930058 ,Left ,50.0893289369441 ,50.7764423668009 ,10.0992556629674
18.41546 ,Left ,50.1113303142226 ,50.8486690269024 ,10.0374642925394
18.4408925 ,Left ,50.1783773399543 ,50.9103329605529 ,9.96770635950171
18.4536601 ,Left ,50.2215002361968 ,50.9696890944996 ,9.88646495282094
18.4752952 ,Left ,50.2162380451231 ,51.0262061678477 ,9.79914365275127
18.5054296 ,Left ,50.1759470873438 ,51.0772316355505 ,9.70136420844187
18.5204309 ,Left ,50.1285777733644 ,51.1199402140641 ,9.59840109309086
18.5429055 ,Left ,50.0900899279279 ,51.1514927501262 ,9.50332376854654
18.5577687 ,Left ,50.0723209071092 ,51.15625913032 ,9.42322850877387
18.5729425 ,Left ,50.0696070889418 ,51.1361046683882 ,9.3502346383415
18.5953531 ,Left ,50.0672451133989 ,51.0956939733287 ,9.28371512928506
18.6176892 ,Left ,50.0617008515353 ,51.0421589192204 ,9.23442324406269
18.632729 ,Left ,50.0457087798786 ,50.9918944987457 ,9.20345934244624
18.6553041 ,Left ,50.0212148736954 ,50.9462822389364 ,9.17684921418984
18.677937 ,Left ,49.9706706231097 ,50.895973326602 ,9.13551140253556
18.6927748 ,Left ,49.9063486111924 ,50.8174687704543 ,9.1099783629307
18.7152172 ,Left ,49.8512748970167 ,50.7122066133202 ,9.11970561749298
18.7377162 ,Left ,49.8566771465657 ,50.6117024699967 ,9.1511561665044
18.7529706 ,Left ,49.8800475672535 ,50.5320287439003 ,9.17149821925092
18.7753551 ,Left ,49.8256240561187 ,50.5321271014066 ,9.18920803621158
18.7986665 ,Left ,49.7679260053005 ,50.5945052018129 ,9.23854052275712
18.8127713 ,Left ,49.7631734553073 ,50.6370833478876 ,9.28293728171952
18.8353205 ,Left ,49.8198997337509 ,50.6284386990782 ,9.30939200733168
18.8578058 ,Left ,49.9217153838848 ,50.5798845761425 ,9.35275657676573
18.8729148 ,Left ,50.0430554508649 ,50.5210659831106 ,9.41778088100612
18.8953703 ,Left ,50.1160464723234 ,50.470434443867 ,9.48603327683863
18.9178018 ,Left ,50.16883890859 ,50.4338224200164 ,9.55360149679668
18.9329047 ,Left ,50.2071779606993 ,50.4278388320883 ,9.65331619078016
18.9554009 ,Left ,50.2545977229073 ,50.4248523988467 ,9.74984936385605
18.9779442 ,Left ,50.2819540195529 ,50.4240298749422 ,9.81974110189895
18.9928933 ,Left ,50.2772609136831 ,50.4069304327509 ,9.86919739273259
19.015466 ,Left ,50.2591478667905 ,50.3615743491798 ,9.90444116340506
19.0379543 ,Left ,50.1911812440209 ,50.2956205811331 ,9.92082003865398
19.0603113 ,Left ,50.1441618282061 ,50.2005490234606 ,9.91434922103842
19.0753708 ,Left ,50.1592508708476 ,50.1079236233851 ,9.91570281232898
19.0977593 ,Left ,50.1782400318411 ,50.0528332689108 ,9.91397899791484
19.1203148 ,Left ,50.1750455303655 ,50.0621088684466 ,9.8969826143263
19.1354933 ,Left ,50.1875469823117 ,50.1580623019424 ,9.90201664700631
19.1578527 ,Left ,50.2245569770492 ,50.2604341587795 ,9.90406399630224
19.1729313 ,Left ,50.2510012140048 ,50.3233399097229 ,9.91050734848394
19.1954301 ,Left ,50.2625529368816 ,50.3461014511332 ,9.92147947932102
19.2178914 ,Left ,50.2839539115921 ,50.35557210167 ,9.91845096364092
19.2329194 ,Left ,50.316224567142 ,50.3616058995143 ,9.90027921212836
19.2552976 ,Left ,50.34419231802 ,50.3731608909776 ,9.88342599827526
19.2778239 ,Left ,50.3640395435354 ,50.4035835038218 ,9.87597154529151
19.2928497 ,Left ,50.3679180989307 ,50.4289244664584 ,9.86689658225594
19.3153676 ,Left ,50.3811563282684 ,50.4512196838693 ,9.86556596611292
19.3377667 ,Left ,50.4067711160904 ,50.4675550280354 ,9.86264189332362
19.3604308 ,Left ,50.4205226964132 ,50.4795969068252 ,9.84740416223624
19.375381 ,Left ,50.4243954598815 ,50.5049435793207 ,9.8398451918123
19.3978813 ,Left ,50.4468692107285 ,50.5364880730446 ,9.84635675524114
19.4201712 ,Left ,50.4731959046984 ,50.5727609756443 ,9.86698598853325
19.4352229 ,Left ,50.4886844566673 ,50.6306956127584 ,9.90767549302567
19.4578239 ,Left ,50.4922454689451 ,50.7005641422271 ,9.96207441933883
19.4801642 ,Left ,50.4895950529675 ,50.7683471248717 ,10.0285958056529
19.4952521 ,Left ,50.493577069025 ,50.8237356150229 ,10.1029222409449
19.5178279 ,Left ,50.5173577871157 ,50.8807802408647 ,10.1927604765529
19.5402223 ,Left ,50.5459701446391 ,50.9382184487397 ,10.2887041127196
19.5553004 ,Left ,50.5560214707157 ,50.9997981223667 ,10.3887820662242
19.5777275 ,Left ,50.5500458416222 ,51.0606704550556 ,10.4961584109683
19.6004167 ,Left ,50.551989037906 ,51.1067230150046 ,10.6092894010201
19.615372 ,Left ,50.5628184044763 ,51.135258940383 ,10.730307334546
19.6378696 ,Left ,50.5709658853617 ,51.1606200609039 ,10.8570785593227
19.6605441 ,Left ,50.5762500811037 ,51.1828583786614 ,10.9867149330961
19.6752965 ,Left ,50.5855271230563 ,51.1974940686821 ,11.1236218679315
19.6977852 ,Left ,50.6121032644962 ,51.1911507026529 ,11.2625645922784
19.7202184 ,Left ,50.6614185738176 ,51.1637911503423 ,11.3878483890357
19.7352709 ,Left ,50.702287642366 ,51.1267895921606 ,11.5005137296007
19.7579351 ,Left ,50.715440342833 ,51.0833954901791 ,11.6089666343617
19.7728432 ,Left ,50.7088868696263 ,51.0454015736407 ,11.70212167991
19.787951 ,Left ,50.7102847709415 ,51.0046476822641 ,11.7648990270422
19.8104148 ,Left ,50.7205305690987 ,50.9690898674675 ,11.7933878078991
19.8327046 ,Left ,50.7368992123005 ,50.941930537036 ,11.7889507791532
19.8477709 ,Left ,50.7468848239837 ,50.9113313758109 ,11.7600021695472
19.871071 ,Left ,50.7261840286198 ,50.8821696348364 ,11.7306402128397
19.8928024 ,Left ,50.6876186438698 ,50.8661138073029 ,11.6997612909863
19.9077945 ,Left ,50.649734931062 ,50.8581824741148 ,11.6569775106177
19.9303605 ,Left ,50.6264114528883 ,50.8509652746045 ,11.6037647814036
19.9678896 ,Left ,50.6028823797587 ,50.8483957868352 ,11.4920570653001
19.9903028 ,Left ,50.5868479297473 ,50.8382797861725 ,11.437395070088
20.0277632 ,Left ,50.4963468359947 ,50.7815060908994 ,11.345967494872
20.0579496 ,Left ,50.4182367968918 ,50.7463722016715 ,11.32035906798
20.0878063 ,Left ,50.2635705735095 ,50.6752745121807 ,11.2465358351324
20.1103154 ,Left ,50.2256486020111 ,50.6084544398625 ,11.2083488372489
20.1327598 ,Left ,50.2046628367901 ,50.4899004486746 ,11.197486423519
20.1486699 ,Left ,50.2092326255455 ,50.3785189843407 ,11.1931563495819
20.1704041 ,Left ,50.1964611279836 ,50.3376687281271 ,11.2032973501683
20.1929203 ,Left ,50.1763369040594 ,50.4402460494227 ,11.2140303776559
20.2080952 ,Left ,50.226683569542 ,50.6059999517275 ,11.2023539671801
20.2378673 ,Left ,50.3522041415166 ,50.7007677035926 ,11.1875720351178
20.2603179 ,Left ,50.4634187243609 ,50.705598610553 ,11.1788965798705
20.2903327 ,Left ,50.447411293892 ,50.6646068846581 ,11.0617131425414
20.3128062 ,Left ,50.4269160350244 ,50.6726679286824 ,10.9549496494488
20.3278377 ,Left ,50.4404697358786 ,50.6726313735009 ,10.8427137645172
20.3503212 ,Left ,50.467777071779 ,50.6512414978802 ,10.7561128898203
20.3729437 ,Left ,50.4799754683555 ,50.6145747034736 ,10.687391621525
20.3877578 ,Left ,50.460914776795 ,50.5765012816354 ,10.6168034464177
20.410292 ,Left ,50.3939720841203 ,50.5240377683315 ,10.5471234598257
20.4328034 ,Left ,50.3305982585421 ,50.4494928283111 ,10.5048046777007
20.4477771 ,Left ,50.3117916205182 ,50.3533273061677 ,10.4890173436703
20.4705196 ,Left ,50.2905586343816 ,50.2436085579104 ,10.4777536658525
20.4929028 ,Left ,50.3468188487821 ,50.1976351744088 ,10.486558118921
20.5076402 ,Left ,50.4205985274974 ,50.2094611436642 ,10.4790118957648
20.5303334 ,Left ,50.4178940617229 ,50.3051672336129 ,10.4448370238139
20.5677291 ,Left ,50.3130917895021 ,50.4272326712818 ,10.4067069177144
20.5904298 ,Left ,50.2239899629529 ,50.4554437821948 ,10.3933933156217
20.6279711 ,Left ,50.1195078752589 ,50.4394715469904 ,10.3540762182255
20.6502884 ,Left ,50.1662641851793 ,50.43805042255 ,10.3592661700609
20.6887084 ,Left ,50.1741496580487 ,50.5235770739873 ,10.3330355679546
20.7106435 ,Left ,50.1884368484409 ,50.5598000776148 ,10.3345298371741
20.7478169 ,Left ,50.1136680998192 ,50.6219568770563 ,10.3668158428373
20.7705672 ,Left ,50.0929390322647 ,50.6945557506509 ,10.3613599469482
20.8079293 ,Left ,50.0657116312434 ,50.7322107269748 ,10.3206349203488
20.8303913 ,Left ,50.0610055897665 ,50.6824868033416 ,10.3070984119904
20.8677527 ,Left ,49.9611957505377 ,50.6316162776855 ,10.2688321123925
20.8904551 ,Left ,49.9295865724753 ,50.6359540407111 ,10.254101813801
20.928 ,Left ,49.9380905106973 ,50.6758178592955 ,10.2200354862329
20.9579473 ,Left ,49.9313205628318 ,50.7495012977982 ,10.195857153848
21.010961 ,Left ,49.8970266258328 ,50.9219508365772 ,10.1461532710339
21.0478249 ,Left ,49.9748688425387 ,50.9025374629322 ,10.1579717631692
21.070289 ,Left ,50.0310652848072 ,50.9045388732999 ,10.1671683299392
21.1078385 ,Left ,50.167543837504 ,50.8943071377715 ,10.1893747528645
21.1303774 ,Left ,50.1938987091682 ,50.8917802598068 ,10.2085087065318
21.1678248 ,Left ,50.0962641276552 ,50.9771951120669 ,10.1742675650029
21.1902279 ,Left ,50.083101636534 ,51.0282938411096 ,10.1316650357694
21.2277507 ,Left ,50.1790660233259 ,51.0759526747374 ,10.0292495823204
21.250375 ,Left ,50.1680446513664 ,51.1180188640524 ,9.96821020543625
21.2955719 ,Left ,50.0733129137859 ,51.2492315055652 ,9.80667492098066
21.318025 ,Left ,50.068103696027 ,51.2887140145742 ,9.7221430318189
21.3711232 ,Left ,50.0494757294796 ,51.2324988865253 ,9.43970861846406
21.4077106 ,Left ,49.9472821136697 ,51.1013275892307 ,9.28728286324457
21.4305218 ,Left ,49.9386236515173 ,51.0161101536168 ,9.24496282116254
21.4677677 ,Left ,49.8855646455663 ,50.8974781188888 ,9.19397812969047
21.4902311 ,Left ,49.8312517713154 ,50.8305597211859 ,9.19521215599681
21.5283888 ,Left ,49.8010145211968 ,50.7072108660221 ,9.31069110741929
21.5503375 ,Left ,49.8206423454153 ,50.7035791173825 ,9.33152994254805
21.5881451 ,Left ,49.8451570531779 ,50.8304031014258 ,9.35014401314203
21.610217 ,Left ,49.9425673548081 ,50.7667439610707 ,9.38969326487583
21.6403191 ,Left ,50.0975849043584 ,50.5818314092194 ,9.49447817920915
21.6629932 ,Left ,50.0588040904827 ,50.6202360430816 ,9.50593366613147
21.6851903 ,Left ,50.0454186435657 ,50.6752227648775 ,9.51450923090976
21.7077595 ,Left ,50.0978200864596 ,50.6733169024297 ,9.52025953745356
21.7230067 ,Left ,50.1381604517063 ,50.6304593352091 ,9.55235435082091
21.7453533 ,Left ,50.0967301558485 ,50.5741618364823 ,9.57376713300756
21.7677796 ,Left ,50.0101617155443 ,50.5114874141747 ,9.57440275640437
21.7981558 ,Left ,49.9996498241905 ,50.4313880287879 ,9.58102645140799
21.8277546 ,Left ,50.0752880310662 ,50.3468748924407 ,9.59481627857931
21.8431939 ,Left ,50.0937413225398 ,50.4265760966263 ,9.57918708645867
21.8651387 ,Left ,50.1240509974957 ,50.5188801047886 ,9.5574063051669
21.8803583 ,Left ,50.1861345342367 ,50.5688297846458 ,9.54877509826308
21.902759 ,Left ,50.2678655727049 ,50.5760942865805 ,9.55611274433815
21.925685 ,Left ,50.3420596531373 ,50.5531332484971 ,9.55397415390367
21.9404645 ,Left ,50.382779902929 ,50.546643897664 ,9.55440513354133
21.9703922 ,Left ,50.3940007713699 ,50.5491862106584 ,9.56696474545664
21.9927776 ,Left ,50.3884574323933 ,50.5508593015873 ,9.57006875806354
22.0078583 ,Left ,50.3940707335837 ,50.5635017122644 ,9.55303190086044
22.0229174 ,Left ,50.3998803792959 ,50.5842717560803 ,9.52519259335902
22.0455728 ,Left ,50.3990073285925 ,50.6029827690366 ,9.50194291011786
22.0678159 ,Left ,50.4117579333856 ,50.6173236599439 ,9.50988469966912
22.0829822 ,Left ,50.4426357127701 ,50.6095951813198 ,9.54134186073423
22.1053091 ,Left ,50.4417634564683 ,50.5973380398154 ,9.58014429514986
22.1205589 ,Left ,50.4319102432633 ,50.6203560182373 ,9.63440255056727
22.1429954 ,Left ,50.4404199160313 ,50.6681029497745 ,9.70290866033357
22.1657824 ,Left ,50.4833961015985 ,50.709106103394 ,9.76104566906469
22.1881672 ,Left ,50.5466692802133 ,50.7414446964721 ,9.83167387562662
22.2027712 ,Left ,50.5889373900677 ,50.776025537917 ,9.91902221937975
22.2253499 ,Left ,50.5848617181792 ,50.8171910464707 ,10.0164872862743
22.2478399 ,Left ,50.5566341460263 ,50.8704613588045 ,10.1210193161609
22.2627851 ,Left ,50.536079636761 ,50.9275901606438 ,10.2255700583543
22.2851882 ,Left ,50.5245443378053 ,50.9861519847369 ,10.3282567457216
22.3077286 ,Left ,50.5321328335784 ,51.0445371626016 ,10.440394771266
22.3228822 ,Left ,50.5489957616352 ,51.0915496758516 ,10.5633005725233
22.3471945 ,Left ,50.5376183081132 ,51.1153790701026 ,10.6885599619165
22.3677436 ,Left ,50.5036884612823 ,51.1164942060366 ,10.8066304211439
22.3829372 ,Left ,50.4670811418079 ,51.1106407841732 ,10.9211349340339
22.4053954 ,Left ,50.4453689457592 ,51.0954879869026 ,11.03156088755
22.4278188 ,Left ,50.4439881798966 ,51.0750967102414 ,11.1334614357449
22.4438515 ,Left ,50.45011357028 ,51.0602663875375 ,11.2186142059735
22.4653947 ,Left ,50.4537498435246 ,51.0629585597224 ,11.2867635633958
22.4878522 ,Left ,50.4486196080519 ,51.0710180262927 ,11.3439241885903
22.5029585 ,Left ,50.4510009133933 ,51.078363226333 ,11.3878231287521
22.5253317 ,Left ,50.4532872524088 ,51.0816155254358 ,11.4150994789935
22.5477626 ,Left ,50.4580386741426 ,51.0818406350784 ,11.429088692322
22.5630586 ,Left ,50.4634790545444 ,51.0736327115351 ,11.4333964608165
22.5854101 ,Left ,50.4571245141045 ,51.0614070481344 ,11.4425846982411
22.6077474 ,Left ,50.4373355533011 ,51.0418929681049 ,11.4417496323304
22.6228173 ,Left ,50.4101071227908 ,51.0209349576146 ,11.4246647180002
22.6452368 ,Left ,50.3972866782083 ,50.9946330915895 ,11.4000872319553
22.6677088 ,Left ,50.3972983224689 ,50.9697084589172 ,11.3716566715023
22.6828752 ,Left ,50.4074339656744 ,50.9493669844132 ,11.3447566793436
22.7052962 ,Left ,50.4182256445639 ,50.9309354203952 ,11.3145717455013
22.7277887 ,Left ,50.4180176188954 ,50.9103542210831 ,11.2887747489751
22.742819 ,Left ,50.3956580457744 ,50.8854916664278 ,11.2671793001149
22.7652978 ,Left ,50.3592152414967 ,50.8616578983755 ,11.2453047211293
22.7878113 ,Left ,50.3186122145676 ,50.8269377762141 ,11.2155536505176
22.8028124 ,Left ,50.2803028002146 ,50.7809102218632 ,11.1924335525929
22.8252542 ,Left ,50.2526659702319 ,50.7123952252814 ,11.1752561742289
22.8478171 ,Left ,50.1927554842245 ,50.6183995138385 ,11.1456821089706
22.8631525 ,Left ,50.2127908747883 ,50.549035880752 ,11.1384711679776
22.8853612 ,Left ,50.2517533266219 ,50.5038404716298 ,11.1177475086985
22.907716 ,Left ,50.2017458060329 ,50.555110932978 ,11.0960551413555
22.92287 ,Left ,50.1625655654585 ,50.6458730898074 ,11.1041537607601
22.9455374 ,Left ,50.2219229083063 ,50.6780547533779 ,11.1081601632912
22.9677543 ,Left ,50.3141805058679 ,50.6590050818629 ,11.1050583104706
22.9827927 ,Left ,50.3844297373536 ,50.6377061533862 ,11.0818849293128
23.0053304 ,Left ,50.3755208553727 ,50.6288153647255 ,11.0180981021831
23.0278478 ,Left ,50.3600252317832 ,50.6657189472372 ,10.9387268615566
23.0428457 ,Left ,50.3921518282739 ,50.6815059605682 ,10.8449265963156
23.0652246 ,Left ,50.4371144126753 ,50.6641033124582 ,10.7496839307363
23.0877991 ,Left ,50.4335539083948 ,50.6309123094176 ,10.661117285911
23.1101669 ,Left ,50.3799036322036 ,50.5944957088174 ,10.5776147077634
23.1253105 ,Left ,50.3035592216827 ,50.5327371794213 ,10.4984797227362
23.1476735 ,Left ,50.2448706190229 ,50.448225893617 ,10.4396807231577
23.1706637 ,Left ,50.2422522692945 ,50.3445039255838 ,10.4271208722728
23.1852923 ,Left ,50.2546506831261 ,50.2478776977667 ,10.437756925363
23.2078308 ,Left ,50.2496856115966 ,50.2207593795658 ,10.4528065998484
23.2379764 ,Left ,50.2168010685685 ,50.2627299341032 ,10.4560233328258
23.2527226 ,Left ,50.1979110034054 ,50.3820680197594 ,10.4530333246604
23.275139 ,Left ,50.2160825193675 ,50.4539255800672 ,10.4423071058347
23.3053216 ,Left ,50.1266641287169 ,50.410423043928 ,10.3925193884375
23.3287584 ,Left ,50.0229757715274 ,50.3961783563166 ,10.3607835969608
23.3501756 ,Left ,49.9171934218678 ,50.3761571621833 ,10.3058651685381
23.3657501 ,Left ,49.8862379540517 ,50.3515881460211 ,10.2887546274064
23.3887285 ,Left ,49.9053767004914 ,50.3657106576414 ,10.2950044788228
23.4103351 ,Left ,49.9046024479953 ,50.4191177676609 ,10.276020256343
23.4252962 ,Left ,49.8982295651399 ,50.4927715633203 ,10.2568805705867
23.4478753 ,Left ,49.8872574524484 ,50.5456369191958 ,10.2606527154782
23.4702689 ,Left ,49.8579750376859 ,50.6002375859426 ,10.2378652205402
23.4853122 ,Left ,49.8200095615265 ,50.6781783069458 ,10.2157392930512
23.5228699 ,Left ,49.7988061338719 ,50.7567326730292 ,10.2062673544037
23.5454125 ,Left ,49.7683815641622 ,50.7769331594541 ,10.1941609599904
23.5603699 ,Left ,49.7808154776497 ,50.7277873219829 ,10.1970282772742
23.5756763 ,Left ,49.8403332410071 ,50.6468400742793 ,10.2167848161599
23.5903011 ,Left ,49.8693619380711 ,50.5737515212009 ,10.2215469098775
23.6054184 ,Left ,49.8650231302275 ,50.5301035985337 ,10.2174252950895
23.6277826 ,Left ,49.8769040686437 ,50.5037593224826 ,10.2285862311729
23.6502927 ,Left ,49.9341619216263 ,50.497031344256 ,10.2358170716025
23.6653416 ,Left ,49.9766037193441 ,50.5320519985079 ,10.2393452714167
23.6879037 ,Left ,50.0123890927729 ,50.5529595429974 ,10.2473607750223
23.7103407 ,Left ,50.0427946658124 ,50.5142084514548 ,10.2666404198143
23.7253384 ,Left ,50.0356026339989 ,50.4367860043345 ,10.2838357906415
23.7477634 ,Left ,49.9997962260159 ,50.3667785131346 ,10.2777489725097
23.7701893 ,Left ,49.9576090395302 ,50.3213149837606 ,10.2422208518224
23.7854015 ,Left ,49.9307742053553 ,50.2788225763328 ,10.1945554290924
23.807849 ,Left ,49.9293669341312 ,50.262791603936 ,10.1700545302112
23.8302214 ,Left ,49.9299770997815 ,50.2646362453409 ,10.1700471997606
23.8455444 ,Left ,49.9130784860786 ,50.288474359972 ,10.1421127316358
23.867885 ,Left ,49.9387740456211 ,50.3229629858395 ,10.1421177948986
23.8903039 ,Left ,49.9931985563258 ,50.3827360532777 ,10.1361415371204
23.9052539 ,Left ,49.9698874094282 ,50.4680271790523 ,10.1168410357856
23.9278177 ,Left ,49.9268213883142 ,50.5109045316159 ,10.1233199097045
23.95021 ,Left ,49.9334609353732 ,50.510990071635 ,10.1542161598791
23.9653664 ,Left ,49.9566646649816 ,50.5116951544912 ,10.1838900320773
23.9884022 ,Left ,49.9837316666358 ,50.5375491349914 ,10.1887447144998
24.0102334 ,Left ,49.9816089036465 ,50.5934502939765 ,10.1789709288276
24.0252263 ,Left ,49.9856355144664 ,50.6493807341239 ,10.170736477995
24.0478426 ,Left ,49.9676163268915 ,50.67576919777 ,10.1638524530702
24.0702712 ,Left ,49.9243604118458 ,50.6940762325587 ,10.1549752429868
24.0927409 ,Left ,49.8918967689162 ,50.7086646678004 ,10.1340177465484
24.107745 ,Left ,49.8721224537281 ,50.706615601894 ,10.1012849509774
24.1302248 ,Left ,49.861867426442 ,50.6831076648643 ,10.076785389551
24.1527968 ,Left ,49.8739676018518 ,50.6524186767687 ,10.0588757965015
24.1678216 ,Left ,49.8755186579715 ,50.6209852060314 ,10.0347379475441
24.1903434 ,Left ,49.8783890437436 ,50.5994230766852 ,10.0166185419843
24.2128908 ,Left ,49.8775378790445 ,50.5852133211798 ,9.99829676865942
24.2278097 ,Left ,49.894632973694 ,50.5816194843826 ,9.99102899065074
24.2502554 ,Left ,49.8966471453203 ,50.6258931890385 ,9.9857556164141
24.2727415 ,Left ,49.8845144438649 ,50.7031436233691 ,9.96592780881601
24.2878966 ,Left ,49.8974242135528 ,50.7763152167203 ,9.94197712477756
24.3102548 ,Left ,49.9271813544818 ,50.7993355399971 ,9.93618582400559
24.3327282 ,Left ,49.9577083579045 ,50.7854763234387 ,9.94806344675398
24.3477203 ,Left ,49.9933072801582 ,50.7679976193027 ,9.96456559257388
24.3702787 ,Left ,50.0513980726761 ,50.7512736618481 ,9.97232729308402
24.3926922 ,Left ,50.1256407183185 ,50.7476219847651 ,9.96632039326625
24.4078827 ,Left ,50.1838737572671 ,50.7778039798787 ,9.94405902410768
24.4302929 ,Left ,50.1957045084953 ,50.829020600088 ,9.92249818763722
24.4527651 ,Left ,50.1948594780001 ,50.8598818239096 ,9.90213489914231
24.4678507 ,Left ,50.2165303294928 ,50.8733101215539 ,9.86690204031668
24.4905191 ,Left ,50.2310762515725 ,50.8909912979636 ,9.82390695723044
24.5127749 ,Left ,50.2386362653588 ,50.9252242839285 ,9.78206592973411
24.528096 ,Left ,50.2447716707255 ,50.9823323467532 ,9.7275131046213
24.5502665 ,Left ,50.2304101673668 ,51.0478238186145 ,9.65824895141731
24.5727726 ,Left ,50.214682817768 ,51.109496197605 ,9.5919279300763
24.5889099 ,Left ,50.2249308995796 ,51.1507756025597 ,9.52498301433443
24.6117579 ,Left ,50.222481849232 ,51.1654472785438 ,9.45002716559741
24.6327273 ,Left ,50.1763579536817 ,51.1690471924851 ,9.3845392794215
24.6477552 ,Left ,50.114584137449 ,51.1670553841099 ,9.3247389639794
24.6702613 ,Left ,50.0711116277356 ,51.1389288573425 ,9.25658360170602
24.6927193 ,Left ,50.0622688734853 ,51.0700221953799 ,9.18553830648692
24.7079114 ,Left ,50.0673235215249 ,50.9829767507505 ,9.13698827202138
24.7301356 ,Left ,50.0749133876195 ,50.9157239230373 ,9.10528030994184
24.7527067 ,Left ,50.0661006822237 ,50.875552882813 ,9.06798816874131
24.7678565 ,Left ,50.0403680412553 ,50.8402669792812 ,9.0223366232004
24.7902188 ,Left ,49.9979162664539 ,50.8220570110122 ,8.9948355217425
24.8131511 ,Left ,49.9431519695357 ,50.8217574351259 ,8.99339847672529
24.827854 ,Left ,49.8794037889082 ,50.8180201821292 ,8.99641647914345
24.8504074 ,Left ,49.8126255929709 ,50.7969955112615 ,8.99808862979878
24.8728568 ,Left ,49.8062026107306 ,50.7587410796952 ,9.02686209311726
24.8954956 ,Left ,49.8329674687431 ,50.7530328581314 ,9.03083150023909
24.9103347 ,Left ,49.8544925599836 ,50.7710556868983 ,9.0342029143767
24.9327385 ,Left ,49.9276813901813 ,50.7277678545673 ,9.06967565718239
24.9478039 ,Left ,50.0633556467207 ,50.6274711660282 ,9.12071852051604
24.9702325 ,Left ,50.1229956064347 ,50.5106651145534 ,9.17253721703953
24.9928617 ,Left ,50.1064484817085 ,50.4244362732569 ,9.23519525987466
25.0151666 ,Left ,50.0837476078543 ,50.3988592116092 ,9.32243146117076
25.0301654 ,Left ,50.0627467736232 ,50.39926073 ,9.414138332314
25.0602887 ,Left ,50.056596137347 ,50.389122734645 ,9.49186459801944
25.0828603 ,Left ,50.0727324145204 ,50.365939221041 ,9.56679180761278
25.0977607 ,Left ,50.0711870653586 ,50.3196866733239 ,9.6212573209974
25.112859 ,Left ,50.0347098872993 ,50.2740980052444 ,9.6350653584774
25.1352266 ,Left ,50.0287499519704 ,50.235265178146 ,9.64289391154903
25.1502738 ,Left ,50.0430496315656 ,50.2287651357289 ,9.64921774896849
25.172971 ,Left ,50.0265951657012 ,50.2807028288976 ,9.6349726673479
25.1952995 ,Left ,50.0354902210081 ,50.381685964671 ,9.61440173748037
25.2103304 ,Left ,50.0926021282581 ,50.4676753197378 ,9.60066751442302
25.2328655 ,Left ,50.1485077499558 ,50.497080578828 ,9.59819730191433
25.2556372 ,Left ,50.2004392512217 ,50.487027214543 ,9.60508550935428
25.2702748 ,Left ,50.2480747774629 ,50.4701653877156 ,9.60410886180407
25.2926933 ,Left ,50.2719940150644 ,50.4566951928937 ,9.58264455420354
25.3151907 ,Left ,50.2681252723787 ,50.4519028591456 ,9.56079790146934
25.3302638 ,Left ,50.2705395309564 ,50.4471100918753 ,9.5515365889878
25.3526616 ,Left ,50.2945118259405 ,50.4457989149424 ,9.55021937682493
25.3753926 ,Left ,50.3190458600703 ,50.4524166350235 ,9.55666239038555
25.3916185 ,Left ,50.3402450564754 ,50.4803269780655 ,9.57556105749994
25.4127735 ,Left ,50.3493569691925 ,50.5078699466846 ,9.60362271361644
25.4351201 ,Left ,50.3767209276349 ,50.5275568801845 ,9.64741630552449
25.4503761 ,Left ,50.3956979951405 ,50.5577948453641 ,9.71291639177047
25.472789 ,Left ,50.398812436937 ,50.595112872631 ,9.77958319819207
25.4952455 ,Left ,50.3903754494353 ,50.6340804137163 ,9.84765720576442
25.5103638 ,Left ,50.3842640096617 ,50.6723348968684 ,9.92950218335339
25.5253354 ,Left ,50.3903636473272 ,50.7086653799843 ,10.0268942150486
25.5477392 ,Left ,50.403161059755 ,50.7325439328324 ,10.1365557191407
25.5627496 ,Left ,50.4177459280624 ,50.7475639352773 ,10.2612893813096
25.585293 ,Left ,50.422106439384 ,50.7556415759666 ,10.3934333777417
25.6080164 ,Left ,50.4307640884324 ,50.7643585807601 ,10.5206614924409
25.6234402 ,Left ,50.456815071616 ,50.7689883213448 ,10.6557149133658
25.645257 ,Left ,50.5085937846722 ,50.7643839861035 ,10.7907880878128
25.6677734 ,Left ,50.5617032272046 ,50.7465468243932 ,10.9179357595728
25.6827608 ,Left ,50.6001648876234 ,50.723339164478 ,11.0337777293211
25.705297 ,Left ,50.6167215287136 ,50.6975198748974 ,11.1429955211454
25.727859 ,Left ,50.6333046738587 ,50.6612372480294 ,11.2472197041375
25.742791 ,Left ,50.654759814677 ,50.6167573722201 ,11.3469623054917
25.7652887 ,Left ,50.6764998428009 ,50.5741805842689 ,11.4371744165068
25.7876385 ,Left ,50.7040550074242 ,50.5377344621694 ,11.5111336036923
25.802674 ,Left ,50.7321578885094 ,50.5096290260904 ,11.5632794351305
25.8252926 ,Left ,50.7485180425846 ,50.4902885067466 ,11.5994004973399
25.8476518 ,Left ,50.7541046670009 ,50.4712215643767 ,11.6156840321104
25.8629242 ,Left ,38.058156590235974 ,37.8422028772536 ,8.711616335913
25.885281 ,Left ,25.3671071843762 ,25.2207656173274 ,5.8030371561675
25.9228401 ,Left ,12.677062301021975 ,12.60628350184455 ,2.890549942002775
29.1028077 ,Left ,50.3683466552774 ,50.6239519665573 ,10.0049213201156
29.1251754 ,Left ,50.4195094690155 ,50.6803802021792 ,10.0889960747472
29.14032 ,Left ,50.4396142206421 ,50.7693233443276 ,10.1986550924514
29.1626678 ,Left ,50.4463907670598 ,50.8648103501403 ,10.3156459020388
29.1855581 ,Left ,50.4809712669242 ,50.9366051020181 ,10.4407994800215
29.2003408 ,Left ,50.5473923918372 ,50.9789131356804 ,10.5708243366119
29.222905 ,Left ,50.6127654234685 ,51.0170776021879 ,10.6976919863839
29.2452959 ,Left ,50.6530916444252 ,51.065819880252 ,10.8148745823105
29.2676856 ,Left ,50.6732898495061 ,51.127989306855 ,10.9160537949494
29.2827656 ,Left ,50.6831438674647 ,51.1938087715418 ,11.0246614364299
29.3052966 ,Left ,50.681137164568 ,51.2537501914872 ,11.135530950959
29.3202586 ,Left ,50.6663970998724 ,51.3019580256094 ,11.2369883105105
29.3428073 ,Left ,50.6566773634921 ,51.3320621725361 ,11.3185254604334
29.3654229 ,Left ,50.6741158425411 ,51.3315040811255 ,11.380996085323
29.3877121 ,Left ,50.7069644942701 ,51.300121734866 ,11.4439530874587
29.4027518 ,Left ,50.714910325292 ,51.2593284800106 ,11.4968942556222
29.4252813 ,Left ,50.6828498791409 ,51.231750422884 ,11.5228872918006
29.4403071 ,Left ,50.6387218380984 ,51.2089276879002 ,11.5200127750636
29.4628496 ,Left ,50.6172085874403 ,51.1817316101723 ,11.5030351809081
29.4851844 ,Left ,50.6222159641885 ,51.1425893240917 ,11.4802250475053
29.5003929 ,Left ,50.6332035130756 ,51.1032629433567 ,11.4533909092598
29.5228172 ,Left ,50.6205432880081 ,51.0791798624591 ,11.4167026825037
29.5452988 ,Left ,50.5896742527946 ,51.0682088169577 ,11.3703156868336
29.5603118 ,Left ,50.5599211559584 ,51.0609143220184 ,11.3165173155624
29.582895 ,Left ,50.5370756484752 ,51.044710543672 ,11.2587014658134
29.6052399 ,Left ,50.5103333522553 ,51.0175345928361 ,11.2003188855663
29.6203239 ,Left ,50.4642798418533 ,50.9704165085453 ,11.1490185444024
29.642842 ,Left ,50.4096938724578 ,50.9097191376779 ,11.1083104742871
29.6652693 ,Left ,50.3602147816826 ,50.8284705935673 ,11.0664655832139
29.6804091 ,Left ,50.3291273544809 ,50.7384512382861 ,11.0477982636565
29.7027891 ,Left ,50.3152353605314 ,50.648392381301 ,11.0521437279062
29.7251583 ,Left ,50.3016667936211 ,50.56038052875 ,11.0364358403333
29.747712 ,Left ,50.2918576894718 ,50.483453934234 ,11.0043577207148
29.7628922 ,Left ,50.2852986361895 ,50.4486729978673 ,10.9922079996272
29.7852382 ,Left ,50.3239981113959 ,50.4823138589018 ,10.9790316889926
29.8077485 ,Left ,50.3646222643305 ,50.5628716597914 ,10.9463451352949
29.8239285 ,Left ,50.4394274369895 ,50.6065108077903 ,10.916860080095
29.8452663 ,Left ,50.5247496754617 ,50.602913231455 ,10.9148184361134
29.8677384 ,Left ,50.566158192403 ,50.5860868960763 ,10.9136364887399
29.8828659 ,Left ,50.5939509241632 ,50.5558299636569 ,10.8893451177349
29.9053921 ,Left ,50.5824361929962 ,50.5214944040739 ,10.8293471226084
29.9276333 ,Left ,50.5664834317031 ,50.5180961143436 ,10.7240695508996
29.9428701 ,Left ,50.5361794175904 ,50.5790773436427 ,10.6314276190287
29.9652708 ,Left ,50.5064637451163 ,50.6539081057254 ,10.5460010733557
29.9877305 ,Left ,50.4941155611924 ,50.685715508271 ,10.4434048159949
30.0028967 ,Left ,50.4679994499811 ,50.652219295478 ,10.3493367129778
30.0252902 ,Left ,50.3837139145927 ,50.5825401597176 ,10.2895663018542
30.0477434 ,Left ,50.2863276813505 ,50.4902913540096 ,10.2423078779153
30.0629184 ,Left ,50.2005862545314 ,50.3755522371922 ,10.215285457685
30.0853929 ,Left ,50.1738356494982 ,50.2512998535199 ,10.2379867827014
30.107704 ,Left ,50.226201996443 ,50.1620395466037 ,10.2639637240033
30.1229002 ,Left ,50.2900520997357 ,50.1510088506306 ,10.2562942857304
30.1452744 ,Left ,50.2985334849331 ,50.2814514205119 ,10.235597552308
30.167794 ,Left ,50.3153758204491 ,50.4193580934451 ,10.2085636223467
30.1828712 ,Left ,50.2800150044244 ,50.4618882987824 ,10.188388077457
30.205296 ,Left ,50.1917262307682 ,50.4563820137263 ,10.1582258628826
30.2277215 ,Left ,50.0934403318845 ,50.4519462768071 ,10.115487398553
30.2428116 ,Left ,50.0274296329174 ,50.4265030253093 ,10.088680381131
30.2653052 ,Left ,50.041993150786 ,50.4074939892148 ,10.1151194545056
30.2878376 ,Left ,50.0618956367875 ,50.4234965517123 ,10.1384106779713
30.3027657 ,Left ,50.0866278029585 ,50.497254145562 ,10.1628932603141
30.3327267 ,Left ,50.1462390836775 ,50.5655661785308 ,10.1726735198123
30.3552795 ,Left ,50.1522010065468 ,50.5840470148203 ,10.1650172711835
30.3708062 ,Left ,50.1227585244995 ,50.6306315294314 ,10.1735482461605
30.3928547 ,Left ,50.0616028351442 ,50.7287998665059 ,10.1945094271127
30.4155864 ,Left ,49.9864687975266 ,50.8602081571939 ,10.1957136225973
30.4452656 ,Left ,50.0095587632405 ,50.8295316605757 ,10.1367516640698
30.4677793 ,Left ,50.0649497829817 ,50.7091791023415 ,10.1778310188026
30.4901848 ,Left ,50.0604751526842 ,50.6206288402114 ,10.1924568781112
30.5052963 ,Left ,49.9909081306898 ,50.5922452815234 ,10.1498701994651
30.5352075 ,Left ,49.9475796564098 ,50.6184867357373 ,10.1055922325992
30.5577359 ,Left ,49.9566203680388 ,50.6418200408937 ,10.0716821863556
30.5802392 ,Left ,49.9916500848495 ,50.6629077020317 ,10.0474807826873
30.5953329 ,Left ,50.0264060718904 ,50.6883331027337 ,10.0417340496404
30.6103413 ,Left ,50.0139307239183 ,50.7189546871151 ,10.0427757667285
30.6262882 ,Left ,50.0097112764334 ,50.7570575929486 ,10.0298341668585
30.6476771 ,Left ,50.0043743103709 ,50.8221606693237 ,10.0304561263888
30.6626886 ,Left ,50.0146731784203 ,50.8658259441788 ,10.0364270225524
30.6852167 ,Left ,50.0318900009021 ,50.8745626692122 ,10.038248370411
30.7077493 ,Left ,50.0673177013988 ,50.8692247422486 ,10.051602412874
30.7300451 ,Left ,50.11523888052 ,50.8577561537958 ,10.0714747153781
30.7453284 ,Left ,50.1376601071845 ,50.8688925798377 ,10.0842269379955
30.7678063 ,Left ,50.135127776784 ,50.9106686158174 ,10.0883258629349
30.7901734 ,Left ,50.1264511948476 ,50.9543343930277 ,10.0722062240583
30.8054321 ,Left ,50.1704380216703 ,50.9867438851998 ,10.0300139522324
30.8278304 ,Left ,50.2583594109336 ,51.00504464787 ,9.97513352565717
30.8502091 ,Left ,50.3164955190576 ,51.0454449487605 ,9.92085172768264
30.8652863 ,Left ,50.3292998304741 ,51.104588055825 ,9.86361643641981
30.8877562 ,Left ,50.3153399417509 ,51.1701894705216 ,9.80539750968854
30.910083 ,Left ,50.2838568913638 ,51.2330143563197 ,9.74490100760917
30.9253312 ,Left ,50.2795025595726 ,51.2790604739905 ,9.683683051793
30.9477131 ,Left ,50.3071913906082 ,51.3109559114396 ,9.62218916598395
30.9701838 ,Left ,50.3208828243706 ,51.3370484173929 ,9.56490856169886
30.9851837 ,Left ,50.3156839484081 ,51.360922035695 ,9.51150401902749
31.0077274 ,Left ,50.295162992977 ,51.3629039949441 ,9.45000367377163
31.0301622 ,Left ,50.2645321958494 ,51.3474911371399 ,9.37112844391946
31.0453396 ,Left ,50.2123479468044 ,51.3282774167541 ,9.28670989513967
31.0677522 ,Left ,50.1658330887031 ,51.3051214263636 ,9.21657354411718
31.0903333 ,Left ,50.1352110946206 ,51.2712497136634 ,9.16124382243277
31.1053308 ,Left ,50.1255363448119 ,51.2169877028004 ,9.1179878156215
31.127688 ,Left ,50.1024292658555 ,51.1566556398074 ,9.08372358304258
31.1502311 ,Left ,50.07330178712 ,51.1002997732914 ,9.07114215767788
31.1653718 ,Left ,50.0295628262385 ,51.0482391547234 ,9.06744378524163
31.1876979 ,Left ,49.9615635402235 ,50.9750140071616 ,9.06813177295898
31.2101851 ,Left ,49.9201101196849 ,50.8880148068092 ,9.07626422087555
31.2262678 ,Left ,49.9033426031281 ,50.8098763919611 ,9.07870352100385
31.2478532 ,Left ,49.9062260402062 ,50.7644926117761 ,9.07796775202843
31.2627734 ,Left ,49.9338252177075 ,50.7606129759289 ,9.09438868976354
31.2777396 ,Left ,49.958446345674 ,50.816214443161 ,9.10199980439884
31.3077535 ,Left ,50.0244112997042 ,50.8535973660413 ,9.11258630934135
31.3302664 ,Left ,50.1128273120848 ,50.8276968814074 ,9.14330658658297
31.3378463 ,Left ,50.1645633827822 ,50.7659210130097 ,9.18571437629012
31.3603626 ,Left ,50.1754721057276 ,50.7100522421293 ,9.23321342846956
31.3827084 ,Left ,50.1422583472884 ,50.6693550704186 ,9.28906190454631
31.3978097 ,Left ,50.0678830920731 ,50.6595088847144 ,9.36571810075517
31.4203022 ,Left ,49.9950473890894 ,50.6618060916885 ,9.44205533058213
31.4429629 ,Left ,49.9552943204985 ,50.6276647199212 ,9.50230115694101
31.4577303 ,Left ,49.9435007714377 ,50.5604605010213 ,9.54634841059866
31.4802001 ,Left ,49.9752066956961 ,50.4960326546142 ,9.59721994958615
31.5027371 ,Left ,50.0317588222456 ,50.4276817758824 ,9.63270617402577
31.5177325 ,Left ,50.0929292438306 ,50.3556754103511 ,9.64922210989285
31.5403413 ,Left ,50.1362547088638 ,50.3380482685852 ,9.64812746233141
31.5627172 ,Left ,50.1452330723438 ,50.3678407955458 ,9.62178209339157
31.5778171 ,Left ,50.1214955160396 ,50.4424151125639 ,9.60888571492043
31.6002939 ,Left ,50.1077855180521 ,50.5280932738252 ,9.62701305811179
31.6227887 ,Left ,50.1043848124583 ,50.5678882546729 ,9.65154528037628
31.6378821 ,Left ,50.1120922360518 ,50.5655277344488 ,9.66714631494561
31.6602941 ,Left ,50.1534399593114 ,50.5607095542238 ,9.67249281525187
31.6828191 ,Left ,50.1981038606587 ,50.5548767143185 ,9.65453730472414
31.6978935 ,Left ,50.2235707238024 ,50.5530390393586 ,9.633211560752
31.727862 ,Left ,50.2122382337202 ,50.5504972983468 ,9.61443034626053
31.7502829 ,Left ,50.2123218794703 ,50.5321541526905 ,9.59900298118277
31.7804045 ,Left ,50.329168546983 ,50.4897929645889 ,9.58790950141336
31.8176884 ,Left ,50.3052730546231 ,50.568341873717 ,9.61254888757915
31.8410666 ,Left ,50.293248210355 ,50.6248609863191 ,9.65274955340565
31.8778157 ,Left ,50.4046929768156 ,50.6584731522194 ,9.78139284638837
31.9002352 ,Left ,50.4533360568148 ,50.6771551042315 ,9.85638260123335
31.937743 ,Left ,50.4302443733252 ,50.7693279743429 ,10.0153224092533
31.9602954 ,Left ,50.408864239527 ,50.8208455293459 ,10.105909616071
31.9978118 ,Left ,50.4420285115648 ,50.9011300349671 ,10.311052542918
32.0201917 ,Left ,50.4799541871149 ,50.9226361917072 ,10.4300236655982
32.0428641 ,Left ,50.4871676068458 ,50.9380915853142 ,10.5449445358555
32.0584612 ,Left ,50.4605849530058 ,50.9446520945765 ,10.6621548079523
32.0802756 ,Left ,50.4421882048918 ,50.9444487281416 ,10.7867959214262
32.1027954 ,Left ,50.441046211375 ,50.9423876322838 ,10.8950923487175
32.1477639 ,Left ,50.4440203171641 ,50.9697961334145 ,11.0515095235685
32.2003624 ,Left ,50.42058502353 ,50.9904439475389 ,11.1692823482507
32.237507 ,Left ,50.3964730064452 ,50.9619478379229 ,11.1930585303349
32.2603166 ,Left ,50.3887222629552 ,50.9461743780248 ,11.1957830208725
32.297716 ,Left ,50.3730568201496 ,50.9291600982923 ,11.1621771173898
32.3277768 ,Left ,50.3840229579334 ,50.927255672562 ,11.1396911983719
32.3801101 ,Left ,50.3935290343165 ,50.9011236213875 ,11.0899117918053
32.4176117 ,Left ,50.3404401993738 ,50.8252859897656 ,11.0661092382199
32.4404058 ,Left ,50.3147022152195 ,50.7849966779086 ,11.0384472134516
32.4775266 ,Left ,50.2863923519502 ,50.6238257007881 ,10.992326276631
32.500237 ,Left ,50.2731859417065 ,50.5191405256221 ,10.9771015335605
32.5376187 ,Left ,50.1802158254377 ,50.5133148438362 ,10.9742124284589
32.5602907 ,Left ,50.1588501465546 ,50.6201063370429 ,10.9811371526266
32.598044 ,Left ,50.3074357365942 ,50.7897414009365 ,11.0122603189304
32.6202262 ,Left ,50.4344638236704 ,50.7749495733678 ,11.017732843622
32.6427622 ,Left ,50.4738968341685 ,50.748434797351 ,10.9987810897679
32.6800949 ,Left ,50.4161410811753 ,50.7924331637101 ,10.8836904871487
32.7027966 ,Left ,50.432617175434 ,50.8179439533249 ,10.7881324504372
32.7401743 ,Left ,50.5341168872961 ,50.8125081279799 ,10.6037609523508
32.7627228 ,Left ,50.5113686446051 ,50.8188811414708 ,10.528331257834
32.8002076 ,Left ,50.3667625850962 ,50.7559382410002 ,10.3907922524956
32.8227423 ,Left ,50.3244470656736 ,50.6534484590311 ,10.3320005366412
32.8602995 ,Left ,50.2838673630671 ,50.3946266182201 ,10.2911163677435
32.8828093 ,Left ,50.2460941151016 ,50.3007649958282 ,10.2784495227751
32.920211 ,Left ,50.329451519541 ,50.3611573155688 ,10.2529897101433
32.9576299 ,Left ,50.3027008174932 ,50.5279066453128 ,10.2286976553535
32.9811309 ,Left ,50.2241985815546 ,50.5437921621388 ,10.2368342086384
33.0175945 ,Left ,50.107034581588 ,50.5519345157784 ,10.1783198587371
33.0401304 ,Left ,50.1373561532527 ,50.5459590524021 ,10.1541956403364
33.0776795 ,Left ,50.2585894601355 ,50.6757653997975 ,10.1787609440887
33.1002724 ,Left ,50.2518140207402 ,50.7680739548964 ,10.1598957373155
33.1377853 ,Left ,50.1975295279717 ,50.9068127617532 ,10.1638824542575
33.1601666 ,Left ,50.1623769115149 ,50.9552591994465 ,10.1641118474479
33.1751971 ,Left ,50.1076254605639 ,50.9815828014332 ,10.1636994172398
33.1901706 ,Left ,50.04380135152 ,50.9678596981215 ,10.1667269889188
33.2129819 ,Left ,50.0458115465439 ,50.9119552980891 ,10.167461334777
33.2351978 ,Left ,50.0639502486863 ,50.8425347822156 ,10.1734079112874
33.250288 ,Left ,50.0633445137922 ,50.7853668597177 ,10.1694778389347
33.2727847 ,Left ,50.0451425121589 ,50.7503491348175 ,10.1493251225133
33.2951892 ,Left ,50.0173322957374 ,50.7348870663972 ,10.14125203424
33.3102222 ,Left ,50.0299888932162 ,50.7226294444826 ,10.1554903351721
33.3327696 ,Left ,50.0940390416926 ,50.7178593181961 ,10.161594390089
33.3551589 ,Left ,50.1336532990476 ,50.7456834458984 ,10.1498271207228
33.3702616 ,Left ,50.1177392945414 ,50.8163418466766 ,10.1366294955531
33.3927947 ,Left ,50.0918136604595 ,50.8678724623951 ,10.1385432577693
33.4151753 ,Left ,50.0886461093304 ,50.8813500590338 ,10.1582345424037
33.4313679 ,Left ,50.1030412341269 ,50.8726748835152 ,10.1894941031281
33.4528739 ,Left ,50.1689716854849 ,50.8591330875193 ,10.2173648496459
33.4759364 ,Left ,50.2379182166588 ,50.8566839431033 ,10.222179424255
33.4903246 ,Left ,50.2504383080625 ,50.8832356450648 ,10.2084547059258
33.5127292 ,Left ,50.2432093471928 ,50.9675305055491 ,10.1953980000587
33.535262 ,Left ,50.2463986176771 ,51.0851716651075 ,10.1667749849016
33.5576157 ,Left ,50.2404682131131 ,51.1974733772793 ,10.1130199135437
33.5727661 ,Left ,50.2601136755712 ,51.2847898458538 ,10.0449314020707
33.5951606 ,Left ,50.307733819017 ,51.3487186874889 ,9.95786977067562
33.6176924 ,Left ,50.3154274054665 ,51.4112205375659 ,9.86621121043446
33.6327369 ,Left ,50.2771826931007 ,51.4780487740769 ,9.77388889904387
33.655299 ,Left ,50.2275904642917 ,51.5236044749982 ,9.67637953203159
33.6775524 ,Left ,50.1966460035929 ,51.5323481316485 ,9.57390382464258
33.6928073 ,Left ,50.1940142012631 ,51.5016853488672 ,9.46544716461941
33.7153689 ,Left ,50.1804853803731 ,51.4460587592418 ,9.36769693949641
33.7377252 ,Left ,50.1539404497956 ,51.3781569733929 ,9.28044991927705
33.7527113 ,Left ,50.14676851246 ,51.3046603814044 ,9.20020341832571
33.7753305 ,Left ,50.1278083637604 ,51.2225524992816 ,9.13363448397878
33.7978812 ,Left ,50.0983671767137 ,51.1497317480497 ,9.08369707929458
33.8127076 ,Left ,50.057753096515 ,51.0782530502025 ,9.04277664469885
33.8352653 ,Left ,50.0066970852954 ,50.9957708340975 ,9.0221473827383
33.8653383 ,Left ,49.9805563983247 ,50.9062295898496 ,9.01972685496123
33.8801161 ,Left ,49.9253701909153 ,50.8272588491021 ,9.0273218286131
33.9028246 ,Left ,49.8958670175368 ,50.8077148586107 ,9.04721545526176
33.9177596 ,Left ,49.9411630158859 ,50.8592138393302 ,9.04288945048394
33.9328936 ,Left ,49.9707507344248 ,50.9839668834881 ,9.01810337438125
33.9552036 ,Left ,49.9993631501907 ,51.048413845661 ,9.01001446174329
33.9777491 ,Left ,50.0477112584543 ,51.0022702979247 ,9.04214286383489
33.992771 ,Left ,50.0992858411394 ,50.9227512887765 ,9.10585752422105
34.0153234 ,Left ,50.1453776211602 ,50.8404415346648 ,9.15803839381682
34.0378949 ,Left ,50.1756834643139 ,50.7545156995333 ,9.19854344216724
34.052717 ,Left ,50.2124667693591 ,50.6685856388251 ,9.26379163585044
34.0752915 ,Left ,50.2287714531861 ,50.6088015391632 ,9.34697499873428
34.0977966 ,Left ,50.1893211688485 ,50.6004039529744 ,9.42740503438248
34.1128572 ,Left ,50.1267433949326 ,50.6236749888781 ,9.49628993416272
34.1427147 ,Left ,50.0962229920406 ,50.6271022153021 ,9.54235357474097
34.1657128 ,Left ,50.1115642729911 ,50.575677443348 ,9.58021357756574
34.1801505 ,Left ,50.1736069903395 ,50.5055453185888 ,9.60317383692654
34.1952743 ,Left ,50.2193097738867 ,50.448539898608 ,9.62552402361214
34.21772 ,Left ,50.2511920551288 ,50.4263598482583 ,9.63357420021351
34.2328614 ,Left ,50.2563057789926 ,50.430941649698 ,9.61040663699322
34.2552471 ,Left ,50.2496862422134 ,50.4757883097216 ,9.59637973254254
34.277811 ,Left ,50.2548624075838 ,50.5311215777973 ,9.60575358410132
34.2928278 ,Left ,50.2751950224555 ,50.5430820488976 ,9.62146631879838
34.3153571 ,Left ,50.2945720966963 ,50.5390296188001 ,9.63564875257737
34.3377079 ,Left ,50.3096149826725 ,50.5546951771423 ,9.63429621603556
34.3527444 ,Left ,50.3404736775625 ,50.5695287844303 ,9.62387514254944
34.3751736 ,Left ,50.3567221367451 ,50.5767559207157 ,9.61164486160769
34.3978428 ,Left ,50.3565319763735 ,50.5768476430301 ,9.60237280338787
34.4128021 ,Left ,50.3502055992451 ,50.5768526266493 ,9.59139485902407
34.4353007 ,Left ,50.3598449943542 ,50.5759701709625 ,9.57907448409998
34.4577326 ,Left ,50.3799509242536 ,50.5758812966074 ,9.57002762070556
34.472776 ,Left ,50.3976040972901 ,50.5866950296027 ,9.57177876876403
34.495267 ,Left ,50.419844128584 ,50.6040382939796 ,9.5969389027081
34.5177692 ,Left ,50.4402107368561 ,50.6075327591241 ,9.63915006766594
34.5402231 ,Left ,50.4428305133459 ,50.6185289819971 ,9.69041152982734
34.5551652 ,Left ,50.439143094024 ,50.6477860551411 ,9.74627884181576
34.5777223 ,Left ,50.4479543513829 ,50.6772069704888 ,9.80526261164916
34.6003123 ,Left ,50.4548398130839 ,50.7050753976438 ,9.88270764031779
34.6153411 ,Left ,50.4620917162989 ,50.7388368002144 ,9.97407997920934
34.6377375 ,Left ,50.4817664631887 ,50.7788029034103 ,10.0640141765237
34.6602635 ,Left ,50.5046009984342 ,50.8157049483577 ,10.1477203178561
34.6752533 ,Left ,50.5024725903754 ,50.8506228016198 ,10.2323767408295
34.6977498 ,Left ,50.4885144605251 ,50.8854128075161 ,10.3274661425213
34.7202658 ,Left ,50.4748547789219 ,50.914133751607 ,10.4252776846946
34.7352421 ,Left ,50.4704461315633 ,50.9212831811717 ,10.5263189310005
34.7579152 ,Left ,50.4695004632774 ,50.9025968482337 ,10.6287561606809
34.7801677 ,Left ,50.4736965835658 ,50.8697799305352 ,10.7278833315721
34.7952268 ,Left ,50.4830225459312 ,50.83504200154 ,10.8225732587366
34.8177184 ,Left ,50.4915092750253 ,50.8109018936751 ,10.9063081045254
34.8400167 ,Left ,50.4924894543637 ,50.8018476262206 ,10.9762275102604
34.8551925 ,Left ,50.4925088495147 ,50.7973211837178 ,11.0311205249006
34.8779802 ,Left ,50.4915513779886 ,50.7912093301564 ,11.0720286941027
34.9001642 ,Left ,50.4851652203553 ,50.7767982923137 ,11.1021469887389
34.9153784 ,Left ,50.4761349702724 ,50.7675613314512 ,11.1201331256096
34.9378554 ,Left ,50.4734640732351 ,50.7602531503098 ,11.1200985819709
34.960349 ,Left ,50.474645106984 ,50.7474722907074 ,11.1080450986777
34.9751365 ,Left ,50.4738499372949 ,50.7292630502246 ,11.0941177763269
34.9980769 ,Left ,50.4584379328761 ,50.7163025659897 ,11.0818309467118
35.0201608 ,Left ,50.4287877048939 ,50.704437169136 ,11.0614759983752
35.035232 ,Left ,50.4056351354685 ,50.6818728267958 ,11.0430495999725
35.0580256 ,Left ,50.3869699359794 ,50.6597685600348 ,11.0289030405277
35.0802303 ,Left ,50.36356343464 ,50.6476142094952 ,11.0118747155959
35.0951986 ,Left ,50.3186962435879 ,50.6390608299256 ,10.9913141918314
35.1178819 ,Left ,50.281542609279 ,50.6070604682522 ,10.9527574225794
35.140289 ,Left ,50.266026367706 ,50.5548994954594 ,10.9070619276795
35.1553197 ,Left ,50.2227469055383 ,50.5105725747882 ,10.8713125048323
35.1778383 ,Left ,50.2210825562853 ,50.5070707878218 ,10.8484510747952
35.2003358 ,Left ,50.281825289872 ,50.5165213746222 ,10.830891000425
35.2154388 ,Left ,50.3121571431825 ,50.5738286481043 ,10.8193790370506
35.2451662 ,Left ,50.3000156158274 ,50.6502832847299 ,10.8176045249311
35.2677381 ,Left ,50.3249554868843 ,50.6847180404162 ,10.8332314465322
35.2827566 ,Left ,50.3945520352572 ,50.6764870152571 ,10.8481917651723
35.3051402 ,Left ,50.4655051023112 ,50.6452855185476 ,10.8308274528702
35.327694 ,Left ,50.4912091436011 ,50.6283905181796 ,10.7792076950354
35.3428285 ,Left ,50.4746066235857 ,50.626455929317 ,10.7196108882657
35.3655256 ,Left ,50.458810386154 ,50.6347029771693 ,10.6309138148979
35.3802373 ,Left ,50.4410401337235 ,50.6497929045752 ,10.5327139162963
35.4102298 ,Left ,50.4480623587815 ,50.6643664327069 ,10.4518426449448
35.425275 ,Left ,50.461953253113 ,50.6683933701844 ,10.3799606328576
35.4626581 ,Left ,50.3923429606921 ,50.5921377739306 ,10.2574896723184
35.4777865 ,Left ,50.3129526303438 ,50.5102111953064 ,10.2165110812459
35.5002894 ,Left ,50.2789144533137 ,50.4090227469381 ,10.1913050730432
35.522816 ,Left ,50.3110902807963 ,50.302091310141 ,10.1988382073065
35.5377639 ,Left ,50.3039045097176 ,50.2306809898649 ,10.2122629896367
35.5602417 ,Left ,50.3334868657328 ,50.2391831299165 ,10.2246462573395
35.58285 ,Left ,50.3622783990164 ,50.2890526496224 ,10.2173702882961
35.5979062 ,Left ,50.3453700801014 ,50.3808153401127 ,10.196344570447
35.6202776 ,Left ,50.2868134514899 ,50.4575910760952 ,10.1899281102792
35.6427429 ,Left ,50.1989436880066 ,50.4887423266217 ,10.193655439263
35.6576368 ,Left ,50.0862274080309 ,50.501525590566 ,10.1766462116459
35.6801233 ,Left ,50.0391954983262 ,50.4781054482075 ,10.1515320341951
35.7028222 ,Left ,50.0945919847272 ,50.4168286278334 ,10.1464702963446
35.7178044 ,Left ,50.1338657611318 ,50.3629766798945 ,10.1268907764343
35.7402161 ,Left ,50.09664292083 ,50.369060121281 ,10.0989154305498
35.7627727 ,Left ,50.082378146759 ,50.4371729570594 ,10.1107588908715
35.777806 ,Left ,50.1255618807842 ,50.4925331039513 ,10.1373441922754
35.8003363 ,Left ,50.1538595894216 ,50.5282450207747 ,10.1451798503019
35.8226292 ,Left ,50.1663165552917 ,50.5773199005281 ,10.1637908852719
35.837824 ,Left ,50.1594902048488 ,50.653333458433 ,10.1986282987493
35.8602822 ,Left ,50.1125831493835 ,50.7508790637144 ,10.2216803689872
35.8826563 ,Left ,50.0598281984812 ,50.8707052862866 ,10.2053804693475
35.897748 ,Left ,50.0658022753536 ,50.9463687177604 ,10.1815060477064
35.9204187 ,Left ,50.1252437865747 ,50.9409636073438 ,10.1756068555025
35.9427116 ,Left ,50.1883864717498 ,50.9078703132602 ,10.1882620792178
35.9579229 ,Left ,50.1931539820306 ,50.8919249169053 ,10.1824000217917
35.9803063 ,Left ,50.1511912580002 ,50.8913905886299 ,10.1535510925423
36.0027397 ,Left ,50.1199831837686 ,50.89132883037 ,10.1374745867416
36.0178237 ,Left ,50.133808169524 ,50.8846642427555 ,10.1255921086184
36.0402894 ,Left ,50.1599231603768 ,50.8658076558546 ,10.110947822845
36.0626849 ,Left ,50.1936665453425 ,50.8444640550016 ,10.1058033262514
36.0778158 ,Left ,50.2059810627879 ,50.8261176407468 ,10.1030621312077
36.1002561 ,Left ,50.1961325607668 ,50.8149996597985 ,10.1014582151885
36.122688 ,Left ,50.1982336177705 ,50.8020594411909 ,10.1092676695463
36.137777 ,Left ,50.2090767355356 ,50.7780414227981 ,10.1220185610654
36.1602689 ,Left ,50.2033339278636 ,50.7410936757297 ,10.1328020306839
36.1827538 ,Left ,50.1808332064368 ,50.7034732408936 ,10.138811518951
36.1979669 ,Left ,50.1501375763306 ,50.6726692342246 ,10.1352881999648
36.22029 ,Left ,50.1247420685163 ,50.6400851179951 ,10.1195810500522
36.242716 ,Left ,50.119809138509 ,50.6007814236373 ,10.1104516497706
36.2578172 ,Left ,50.1219435417199 ,50.5632742525409 ,10.1183956297902
36.2802237 ,Left ,50.1140078430407 ,50.5392683380556 ,10.1169483877028
36.302741 ,Left ,50.0901808557063 ,50.5429624509845 ,10.0887319512811
36.3177409 ,Left ,50.0552871163898 ,50.5809115659945 ,10.0725503955716
36.3403036 ,Left ,50.0416321336046 ,50.6385848234763 ,10.0810853225167
36.3627673 ,Left ,50.0587333305024 ,50.690259457159 ,10.0887315154478
36.3851618 ,Left ,50.0979914245268 ,50.7531068160416 ,10.0982256115426
36.4003024 ,Left ,50.1228390146273 ,50.8042354208213 ,10.093756164633
36.4227363 ,Left ,50.1379878075431 ,50.8197095692384 ,10.0877713853558
36.4452847 ,Left ,50.1769690090233 ,50.8131077370832 ,10.0963762716399
36.4602435 ,Left ,50.2096410132572 ,50.794198398716 ,10.0972521567051
36.4826857 ,Left ,50.2267741569754 ,50.7783366833103 ,10.0915660091219
36.5051953 ,Left ,50.2265699298924 ,50.7906790987186 ,10.0853051919956
36.5202463 ,Left ,50.2318764400282 ,50.8073558116159 ,10.0791230989545
36.5445226 ,Left ,50.2898390183695 ,50.7965378132044 ,10.0850518329346
36.5651289 ,Left ,50.3672374690232 ,50.7834812876577 ,10.0803922890849
36.5802512 ,Left ,50.4083379001404 ,50.7843340796506 ,10.0781287541967
36.6027276 ,Left ,50.4078054685024 ,50.8130876709381 ,10.0874152682883
36.6253445 ,Left ,50.3942044017772 ,50.8584522793816 ,10.0917020651686
36.6402349 ,Left ,50.3950588099076 ,50.9113676019851 ,10.0870388593233
36.6627943 ,Left ,50.4104126265113 ,50.9656831857343 ,10.0749916872523
36.6852402 ,Left ,50.4360601159363 ,51.0207735945955 ,10.0584954816917
36.7002492 ,Left ,50.4547624117836 ,51.0740908786854 ,10.0371659815569
36.7227321 ,Left ,50.4525105975387 ,51.1198989648388 ,10.0153180450295
36.7461615 ,Left ,50.4471730134072 ,51.1563769536038 ,9.99508663669507
36.7601717 ,Left ,50.4428876427017 ,51.1905591135403 ,9.96848131797208
36.78289 ,Left ,50.4314215087424 ,51.2290703436067 ,9.9338894075576
36.8051935 ,Left ,50.4177976605206 ,51.2743179265382 ,9.89607072309857
36.8203616 ,Left ,50.40331929687 ,51.3238428059187 ,9.85655284153654
36.8429084 ,Left ,50.383273042545 ,51.3648879986708 ,9.80123322466748
36.8652926 ,Left ,50.3740080038463 ,51.3860455670661 ,9.72160947700529
36.8803431 ,Left ,50.3714768779295 ,51.3785141696569 ,9.63157577580318
36.9102233 ,Left ,50.3553644242677 ,51.3528197041629 ,9.54420857314502
36.9327245 ,Left ,50.3444367838297 ,51.3213996968533 ,9.47261406989673
36.9476742 ,Left ,50.3270109512262 ,51.2960869293631 ,9.39123587444188
36.9702623 ,Left ,50.3106301355292 ,51.2622528135917 ,9.29586890944887
36.985053 ,Left ,50.3065112387291 ,51.212578524217 ,9.21348100589665
36.9927113 ,Left ,50.3091448825995 ,51.1468187305951 ,9.15950588436408
37.0152731 ,Left ,50.2788285144239 ,51.0766722007613 ,9.12015438009395
37.0376657 ,Left ,50.2195536294769 ,50.9967149171184 ,9.08324711457944
37.0528022 ,Left ,50.1497109778093 ,50.9259705817162 ,9.06801462273247
37.0753147 ,Left ,50.0702185646177 ,50.8885689624479 ,9.07888845527931
37.0977472 ,Left ,50.0374654691298 ,50.8861105433714 ,9.09213340634401
37.1127057 ,Left ,50.0705656894207 ,50.894667477442 ,9.09917647901037
37.1427051 ,Left ,50.1121361896244 ,50.9108593670083 ,9.11104475568278
37.1683238 ,Left ,50.2056596097086 ,50.8813701297653 ,9.14190260411149
37.1802876 ,Left ,50.3237860608942 ,50.8159471690407 ,9.20122900453721
37.1951551 ,Left ,50.3778635224169 ,50.7468801629181 ,9.26175591851739
37.2177403 ,Left ,50.360983726972 ,50.6785659402108 ,9.32550912904978
37.232763 ,Left ,50.3627113859278 ,50.6045307545305 ,9.40342702571006
37.2628774 ,Left ,50.3928758440308 ,50.5378901275635 ,9.48611737093574
37.2852134 ,Left ,50.3958524955616 ,50.5160979409897 ,9.56219805377284
37.3005014 ,Left ,50.3477899470226 ,50.5408189483434 ,9.62229821667494
37.3151748 ,Left ,50.2671576362447 ,50.5800890246517 ,9.65857048949004
37.3378461 ,Left ,50.2236594151367 ,50.5570103154902 ,9.67818854382189
37.3527123 ,Left ,50.2669619792246 ,50.4924416352377 ,9.70200141035008
37.3756888 ,Left ,50.3236727094359 ,50.4134464151932 ,9.70862195944943
37.3981979 ,Left ,50.3257358584087 ,50.3884686912006 ,9.69146840845724
37.412615 ,Left ,50.313151051887 ,50.4271275718392 ,9.67450803292887
37.4351446 ,Left ,50.2838967213962 ,50.5035613138728 ,9.65885373369628
37.4578067 ,Left ,50.2766168725732 ,50.5588121733271 ,9.65099600828094
37.4727164 ,Left ,50.3120672378249 ,50.5537511849895 ,9.67005967281419
37.4951266 ,Left ,50.361804610939 ,50.5095262834384 ,9.69372809921876
37.5179214 ,Left ,50.3855541113736 ,50.4672831261794 ,9.71394011541887
37.5326915 ,Left ,50.3928622056921 ,50.4384414093594 ,9.72007834835345
37.5552419 ,Left ,50.4121140673249 ,50.42220073008 ,9.71708258316942
37.5777381 ,Left ,50.4601638911021 ,50.4132413217802 ,9.71259560375484
37.5927382 ,Left ,50.4901674071243 ,50.4120424341265 ,9.70347598298012
37.6154629 ,Left ,50.507350812848 ,50.4208167757397 ,9.71134194907704
37.6377017 ,Left ,50.5104257378976 ,50.4359282323693 ,9.73008846656704
37.6526148 ,Left ,50.5084534403103 ,50.4668342274275 ,9.7551240723028
37.6753111 ,Left ,50.5223733978194 ,50.5005118250151 ,9.81273654653458
37.697834 ,Left ,50.5369101335536 ,50.5335795676989 ,9.9028943155814
37.7351797 ,Left ,50.5241854808653 ,50.5988188409374 ,10.1114059467375
37.7578105 ,Left ,50.5173124200919 ,50.6243739603342 ,10.2377572545477
37.7952138 ,Left ,50.5435217611992 ,50.6496387411449 ,10.5248181287892
37.8177523 ,Left ,50.5684439900634 ,50.6620025108825 ,10.6827009414492
37.855204 ,Left ,50.5584666644619 ,50.7139493489237 ,10.9951516141998
37.8777763 ,Left ,50.5647008092524 ,50.7474848740277 ,11.1458740874032
37.9152761 ,Left ,50.5784694239918 ,50.8063106120067 ,11.420115324147
37.9377629 ,Left ,50.5778671279883 ,50.8158483809746 ,11.5468583684559
37.9753818 ,Left ,50.5920641417945 ,50.7919530328749 ,11.7546026755709
37.9978351 ,Left ,50.6137827786318 ,50.7724371036844 ,11.8240023912936
38.0352017 ,Left ,50.6270252472586 ,50.7582085266623 ,11.8918646552836
38.0725294 ,Left ,50.604427279727 ,50.7570291016022 ,11.8508502984231
38.0952394 ,Left ,50.604853931686 ,50.7614569234558 ,11.8087350992253
38.1326951 ,Left ,50.6244981804681 ,50.7674523486168 ,11.6981092084555
38.1551491 ,Left ,50.6245769843522 ,50.7617924136712 ,11.637939632513
38.192881 ,Left ,50.6077928576231 ,50.7382108558379 ,11.5198621220124
38.2166364 ,Left ,50.5876105254807 ,50.7071125850569 ,11.4452992417496
38.2527522 ,Left ,50.5366675536195 ,50.596685629841 ,11.3182681283477
38.2751508 ,Left ,50.4540699980878 ,50.5384713816508 ,11.2808601541243
38.312559 ,Left ,50.3236622775353 ,50.4295542349506 ,11.2213246362764
38.3351938 ,Left ,50.3002924891601 ,50.3782113017343 ,11.1997903515109
38.3726797 ,Left ,50.3205432649018 ,50.4453598795359 ,11.185186847539
38.3952413 ,Left ,50.2940677846523 ,50.5379069754979 ,11.1654395558693
38.4332663 ,Left ,50.4190832657947 ,50.6018221099894 ,11.174625240297
38.4552427 ,Left ,50.5099668229006 ,50.568728452906 ,11.1558693270318
38.4926803 ,Left ,50.4599553510991 ,50.6084625091763 ,11.053891756369
38.515133 ,Left ,50.4098134742398 ,50.6477721698203 ,10.9593837162064
38.5377894 ,Left ,50.4089362215506 ,50.6364389445977 ,10.8358629061091
38.5752881 ,Left ,50.4202582153756 ,50.5681967582886 ,10.5826645879522
38.5979082 ,Left ,50.3708454857073 ,50.5262199919398 ,10.4840212339933
38.6351856 ,Left ,50.2265686024063 ,50.3663650347373 ,10.3888186015189
38.6578863 ,Left ,50.1737360894615 ,50.2468186534206 ,10.3837936275306
38.696341 ,Left ,50.250878400322 ,50.1342302201343 ,10.4387238720958
38.7326359 ,Left ,50.2823748294483 ,50.2347328159771 ,10.37652034713
38.7551019 ,Left ,50.2216943807414 ,50.3045322415794 ,10.3595657902301
38.8002878 ,Left ,50.0083466533233 ,50.4030073774085 ,10.3190885079493
38.8227462 ,Left ,49.9244544754257 ,50.4306855423691 ,10.2440095265168
38.852634 ,Left ,49.8929971531186 ,50.4595363529063 ,10.2355710839247
38.8678033 ,Left ,49.8619552555645 ,50.5683676219215 ,10.2536783836966
38.8901271 ,Left ,49.8638960507351 ,50.7152377110731 ,10.256229606168
38.9130166 ,Left ,49.9130879621812 ,50.8258289849321 ,10.2557773311779
38.9277752 ,Left ,49.927274416983 ,50.9051132525697 ,10.2564133534965
38.9503036 ,Left ,49.9010476900048 ,50.9733771510011 ,10.2620696709221
38.9725975 ,Left ,49.8733997290901 ,51.0194869718652 ,10.2618376563237
38.9876471 ,Left ,49.8688391514465 ,51.0003641530271 ,10.2545045480242
39.010255 ,Left ,49.901271592676 ,50.9426608444719 ,10.2703446427905
39.0269597 ,Left ,49.9471880304676 ,50.8823975393193 ,10.2881387657655
39.0476593 ,Left ,49.9647421255764 ,50.8436477907232 ,10.2799760852858
39.0702384 ,Left ,49.9707824654655 ,50.8208920744714 ,10.2527486288811
39.0852332 ,Left ,49.9779967720822 ,50.801804645846 ,10.2225112470859
39.1077004 ,Left ,49.9806171500736 ,50.7803185092041 ,10.2027474489179
39.1302454 ,Left ,49.9915317852656 ,50.7520296200932 ,10.1958036805117
39.1452232 ,Left ,50.0114568789218 ,50.7004233704111 ,10.2045888586636
39.1751737 ,Left ,50.0143761123638 ,50.6525170619791 ,10.2234466777464
39.205307 ,Left ,50.0103315598461 ,50.6887429418034 ,10.2369313660933
39.2202648 ,Left ,49.9865893632415 ,50.8276383424916 ,10.2223235606852
39.2352237 ,Left ,49.9819816794363 ,50.9579364639401 ,10.1941026086005
39.250245 ,Left ,49.9903437749893 ,51.0083417084831 ,10.1889726108863
39.2725451 ,Left ,50.0315569586077 ,50.9887006594072 ,10.2090744341378
39.2877122 ,Left ,50.0960525226933 ,50.9469229906675 ,10.2268900225613
39.3103157 ,Left ,50.1586798618299 ,50.9260823543281 ,10.2241950151942
39.3328542 ,Left ,50.2173820045706 ,50.9372219547688 ,10.2149954360119
39.3478408 ,Left ,50.2565074054836 ,50.9569948981586 ,10.2081511187832
39.3703042 ,Left ,50.2893624353116 ,50.9686719299989 ,10.2164939702936
39.3926699 ,Left ,50.316994160011 ,51.0024745413188 ,10.2171285593571
39.4077618 ,Left ,50.3254843864642 ,51.0672794332176 ,10.1953300418344
39.4315081 ,Left ,50.3385999350271 ,51.1345778665659 ,10.1691422985173
39.452844 ,Left ,50.3834397783467 ,51.1811659689207 ,10.137932379374
39.4676888 ,Left ,50.4383488694937 ,51.204142297786 ,10.0947127342514
39.4901903 ,Left ,50.463305489275 ,51.2164456334062 ,10.0585416186025
39.5125531 ,Left ,50.4562140631558 ,51.2434231041633 ,10.0210547013581
39.5277459 ,Left ,50.4282348758169 ,51.2832335245048 ,9.97355025470796
39.5502961 ,Left ,50.4009102106244 ,51.3267583474441 ,9.916677594412
39.5725517 ,Left ,50.3923322504238 ,51.3723677770424 ,9.85557712670498
39.5877678 ,Left ,50.4099872501546 ,51.4115663704697 ,9.79238189987266
39.6102098 ,Left ,50.4245837117321 ,51.4211316240074 ,9.7370970054024
39.6327806 ,Left ,50.4156547812281 ,51.4076199864553 ,9.68255678853072
39.6479462 ,Left ,50.3839389469665 ,51.380778412624 ,9.62109282482006
39.670144 ,Left ,50.3332898261214 ,51.3473965274369 ,9.54347794804173
39.6926197 ,Left ,50.2655150909011 ,51.2967435477235 ,9.46850881943466
39.7077859 ,Left ,50.2109509358361 ,51.2460609087453 ,9.40958450194067
39.7301962 ,Left ,50.1742462965637 ,51.1857847226415 ,9.35616003693148
39.7526424 ,Left ,50.1526071408477 ,51.0944831371157 ,9.29744956016863
39.7676741 ,Left ,50.1258054454328 ,50.996735471696 ,9.25265396009188
39.7901713 ,Left ,50.0796127606966 ,50.8988495415536 ,9.22917889627341
39.8134507 ,Left ,50.0154654459817 ,50.80640108581 ,9.22715552906297
39.8276986 ,Left ,49.9364514922017 ,50.75102472308 ,9.24314552873406
39.8510775 ,Left ,49.8950467192939 ,50.7491071765819 ,9.23119909560887
39.8726804 ,Left ,49.9035681450288 ,50.7929506942688 ,9.21040615037332
39.8877552 ,Left ,49.9418303995155 ,50.8526593579394 ,9.21826721576948
39.9101344 ,Left ,50.0031213172181 ,50.8386084706901 ,9.24044848553081
39.9326053 ,Left ,50.0619893369191 ,50.7542942997726 ,9.27728270153478
39.9505996 ,Left ,50.1526768386999 ,50.6804787133201 ,9.3328752968128
39.9776367 ,Left ,50.1948037804675 ,50.6028307594236 ,9.36204849694344
40.0003191 ,Left ,50.1971209945045 ,50.5289795526223 ,9.38106644152862
40.0151705 ,Left ,50.1835822202631 ,50.4883915212621 ,9.42767621618538
40.0315477 ,Left ,50.1526813346194 ,50.4957612125785 ,9.50975410908052
40.052735 ,Left ,50.1213740753189 ,50.5420976213525 ,9.57436000371255
40.0677812 ,Left ,50.0661688491628 ,50.5654515582221 ,9.60746275792753
40.0901058 ,Left ,50.0617121516849 ,50.4977044939736 ,9.62958941772208
40.1127413 ,Left ,50.1178839375666 ,50.3947076330423 ,9.6880964472427
40.1350685 ,Left ,50.1475910179249 ,50.2875794112349 ,9.71020363517164
40.1503099 ,Left ,50.0964172694665 ,50.254808713738 ,9.69750890186724
40.1727409 ,Left ,50.0560798425284 ,50.3082054530773 ,9.68782042965962
40.1951542 ,Left ,50.0549066950304 ,50.4083527880927 ,9.684296492711
40.2102693 ,Left ,50.0744321195452 ,50.4836731706488 ,9.68105455815047
40.2327378 ,Left ,50.1271392518054 ,50.5017578849367 ,9.69256257133805
40.2551024 ,Left ,50.1898377569184 ,50.4800178187527 ,9.70888271862756
40.2702935 ,Left ,50.2410736166059 ,50.4414393000425 ,9.72340781812357
40.2928263 ,Left ,50.2684849122532 ,50.4185340349968 ,9.72364646570752
40.3227756 ,Left ,50.3117183007273 ,50.4008681108976 ,9.71774452800439
40.3375655 ,Left ,50.3819644511541 ,50.3848721756419 ,9.71355574203608
40.3676201 ,Left ,50.4483645456512 ,50.3762807567287 ,9.70455746516805
40.3828397 ,Left ,50.4765860503677 ,50.3816569042961 ,9.70621960723301
40.3975256 ,Left ,50.4805502440774 ,50.3801361588577 ,9.72951454111705
40.4352335 ,Left ,50.44542251138 ,50.3946886544593 ,9.78982693547441
40.4511727 ,Left ,50.4453163262428 ,50.4104672888571 ,9.84717569906652
40.4726945 ,Left ,50.4682996392562 ,50.4267632826058 ,9.92780699605463
40.4952611 ,Left ,50.4933049588388 ,50.4422523584027 ,10.0145125492498
40.5102506 ,Left ,50.4914598232738 ,50.4622866572023 ,10.1086396946637
40.5328218 ,Left ,50.4818973784863 ,50.4889207545995 ,10.213402388668
40.5550161 ,Left ,50.476266634492 ,50.5143177203681 ,10.3226187918958
40.5703184 ,Left ,50.4665140835539 ,50.539175318212 ,10.4315562271215
40.5926485 ,Left ,50.4533289353006 ,50.5715213729455 ,10.5402285695116
40.6154246 ,Left ,50.4506747443498 ,50.6045566235586 ,10.6411830732596
40.6303315 ,Left ,50.4640023010873 ,50.6238547751393 ,10.7420534748658
40.6531056 ,Left ,50.4687416207918 ,50.6358070031588 ,10.8458370221722
40.6752793 ,Left ,50.4610846684049 ,50.6418791416233 ,10.9478555405604
40.6903413 ,Left ,50.4433984421514 ,50.6434720164341 ,11.0416823466624
40.7130737 ,Left ,50.4285244052703 ,50.6358337048895 ,11.1371771752997
40.7447499 ,Left ,50.4133063860104 ,50.6222731334531 ,11.2246181676652
40.7579258 ,Left ,50.4045583144084 ,50.6105820148009 ,11.2985599467488
40.7802277 ,Left ,50.412476468189 ,50.6051853126314 ,11.3665646568135
40.7950947 ,Left ,50.4265036226545 ,50.6057858788965 ,11.4244291349666
40.810317 ,Left ,50.4462961984244 ,50.6001432480329 ,11.4711592119169
40.8328842 ,Left ,50.4458692766041 ,50.6021147367408 ,11.5089405356244
40.8553886 ,Left ,50.4364192821461 ,50.6138234162128 ,11.5360259264806
40.8705379 ,Left ,50.429382811365 ,50.6330512754968 ,11.5451937191619
40.8943641 ,Left ,50.4428752607736 ,50.6466523262483 ,11.5453471035867
40.9226912 ,Left ,50.4592178200342 ,50.6570818546691 ,11.5428148793058
40.937772 ,Left ,50.4611247915947 ,50.6626782886269 ,11.533608405993
40.9603439 ,Left ,50.4399210224088 ,50.6624511303266 ,11.5214109215868
40.9754802 ,Left ,50.4164378862154 ,50.6568939830061 ,11.4985762962347
40.9902551 ,Left ,50.3974576198594 ,50.6580044803255 ,11.4692667164691
41.0127066 ,Left ,50.3909839650039 ,50.6543409312938 ,11.4332602437815
41.0352722 ,Left ,50.3872234119951 ,50.6414386159158 ,11.3921351782064
41.0504375 ,Left ,50.3738885848189 ,50.6133696303515 ,11.3601362841329
41.0728149 ,Left ,50.3496397937452 ,50.5893447218878 ,11.3266176243265
41.0953472 ,Left ,50.3174466998358 ,50.5661936243846 ,11.2897514808207
41.1179003 ,Left ,50.291249695482 ,50.5365967537739 ,11.2548158388045
41.1328216 ,Left ,50.2584132319971 ,50.4887405470877 ,11.2179797785013
41.1551831 ,Left ,50.2295344922673 ,50.4290906569483 ,11.1719422431736
41.1777873 ,Left ,50.201747395566 ,50.3669829988132 ,11.1064109367534
41.1928217 ,Left ,50.1347947025224 ,50.3437974999212 ,11.0557947220959
41.2151795 ,Left ,50.0370713443635 ,50.3708631379483 ,11.0505333835579
41.2377126 ,Left ,49.9565921280263 ,50.4331835129277 ,11.0717640438412
41.2527215 ,Left ,49.9302853312066 ,50.5027460269966 ,11.0812443648973
41.2753552 ,Left ,49.980620279066 ,50.5733127287049 ,11.0770718022806
41.2977885 ,Left ,50.0752903027154 ,50.6360132592402 ,11.0571793148443
41.3128539 ,Left ,50.1504572786655 ,50.6790576629635 ,11.0414177191146
41.3352645 ,Left ,50.1765998174275 ,50.712908478224 ,11.0192449926157
41.3576591 ,Left ,50.1691468543716 ,50.7692179224593 ,10.983667791963
41.3726202 ,Left ,50.1841803371879 ,50.8256150164617 ,10.9442422293187
41.3954294 ,Left ,50.2533519016753 ,50.8627050700723 ,10.8801223683565
41.4175998 ,Left ,50.3204024686306 ,50.8780919684599 ,10.8039191823431
41.4328269 ,Left ,50.3473570887627 ,50.8913399943621 ,10.7267434087603
41.4552349 ,Left ,50.3310161228297 ,50.905329773432 ,10.6424132911986
41.4789454 ,Left ,50.2998204591183 ,50.9120082715663 ,10.5590854607382
41.4932012 ,Left ,50.27287910013 ,50.89446782973 ,10.4820332558304
41.5153101 ,Left ,50.2554937774217 ,50.8428457782028 ,10.4205613285464
41.5378772 ,Left ,50.2275723160103 ,50.7640194077403 ,10.3774192599256
41.552933 ,Left ,50.1756769167881 ,50.6727631145936 ,10.3555205107306
41.5750257 ,Left ,50.1145223354275 ,50.5765139779886 ,10.3563880932005
41.5977398 ,Left ,50.0735531635366 ,50.4838022449446 ,10.3914791620677
41.6133248 ,Left ,50.0574826980334 ,50.4051942170624 ,10.4130787883299
41.6352342 ,Left ,50.0628126628138 ,50.3725925012135 ,10.4118585781442
41.6574989 ,Left ,50.1102152238286 ,50.3975322455446 ,10.4093172925775
41.6727738 ,Left ,50.1860469897778 ,50.4641578068116 ,10.4023039091764
41.6968858 ,Left ,50.2176962897398 ,50.5109532929842 ,10.3672210219256
41.7176167 ,Left ,50.1474241577709 ,50.5469525055012 ,10.3462820321062
41.7328209 ,Left ,50.041104728966 ,50.597079354038 ,10.3365653242453
41.7552424 ,Left ,49.973142368783 ,50.627970656307 ,10.3135723245039
41.7776684 ,Left ,49.9708291476573 ,50.5917116596644 ,10.292364905461
41.792691 ,Left ,50.0807349791264 ,50.5651266821857 ,10.2899097168777
41.8167883 ,Left ,50.1557227935115 ,50.6055802314298 ,10.287881634339
41.8379718 ,Left ,50.1564038101417 ,50.7015839680167 ,10.2567197114448
41.8528755 ,Left ,50.147827938926 ,50.7944916556798 ,10.2313375621558
41.8752705 ,Left ,50.1270321681647 ,50.8731668989469 ,10.2346213894619
41.9002994 ,Left ,50.1150002579901 ,50.9468550428768 ,10.2443851932689
41.9128354 ,Left ,50.1099017952862 ,51.022427392288 ,10.2571161908793
41.9353052 ,Left ,50.080544783649 ,51.1306403044326 ,10.2592207014597
41.9579785 ,Left ,50.0446006588854 ,51.1835178430079 ,10.2510070932937
41.9730674 ,Left ,50.0563665632465 ,51.1816878522925 ,10.2529458350566
41.9951927 ,Left ,50.1007169186212 ,51.1465286436258 ,10.273627739304
42.0177807 ,Left ,50.1134753116921 ,51.0930881931993 ,10.2700778202117
42.0328258 ,Left ,50.0899058363085 ,51.0556505588619 ,10.2468579872057
42.0553682 ,Left ,50.056957570029 ,51.0397259170527 ,10.2168282981163
42.0777092 ,Left ,50.0155207501635 ,51.0182207933203 ,10.1696436863894
42.1004013 ,Left ,49.9907490835407 ,50.9849536934398 ,10.1217056542855
42.1154322 ,Left ,49.986276084241 ,50.9492492626107 ,10.0914133419589
42.137804 ,Left ,49.9779580776883 ,50.912980799891 ,10.0731114668221
42.1602541 ,Left ,49.9466298246091 ,50.8722753813748 ,10.0882404302326
42.1752556 ,Left ,50.0002164638029 ,50.8282445117268 ,10.1089199795247
42.1976387 ,Left ,50.0704409746633 ,50.823641811487 ,10.1137343870301
42.2201898 ,Left ,50.0523327971348 ,50.8948699757114 ,10.0925043823712
42.2353065 ,Left ,50.0104611398145 ,50.9862625946955 ,10.0838281102897
42.2578 ,Left ,50.013626027654 ,51.0078084536113 ,10.0896995539357
42.2800965 ,Left ,50.0639271996067 ,50.9729947283342 ,10.1009673504358
42.2957296 ,Left ,50.1174661057322 ,50.9350657677403 ,10.1183449860952
42.319838 ,Left ,50.1518292955709 ,50.9093972612862 ,10.1134266921626
42.3410127 ,Left ,50.1676429395006 ,50.8959577680181 ,10.1063386093638
42.3553871 ,Left ,50.1833202502535 ,50.8887202687398 ,10.0944803352492
42.3778251 ,Left ,50.2138146117521 ,50.8828064377069 ,10.0844357651909
42.4001791 ,Left ,50.2485636731612 ,50.9020997936482 ,10.0774262823117
42.4152342 ,Left ,50.2629774474809 ,50.9546162893629 ,10.0543211351541
42.4377241 ,Left ,50.2534861703287 ,51.0169440460572 ,10.0181047930262
42.4678731 ,Left ,50.2852181555457 ,51.0433634271181 ,9.97864934413744
42.4826519 ,Left ,50.340383948767 ,51.0418608828694 ,9.93539184310793
42.505099 ,Left ,50.3730532309388 ,51.0415755621281 ,9.88225268617868
42.5203723 ,Left ,50.3675885707249 ,51.0515824284983 ,9.81240644886588
42.5352479 ,Left ,50.337849138261 ,51.0630369971911 ,9.73725206280468
42.5578244 ,Left ,50.3203665564081 ,51.0746600530743 ,9.66064307965258
42.5801065 ,Left ,50.3120535662785 ,51.0833288125694 ,9.58268376360689
42.5955173 ,Left ,50.3250783104045 ,51.0812499307229 ,9.51317415594292
42.6177395 ,Left ,50.3287309615574 ,51.0740680594443 ,9.45104127167992
42.6401233 ,Left ,50.293794708505 ,51.0602528394032 ,9.3894351344399
42.6626729 ,Left ,50.2369467397869 ,51.0347204783567 ,9.32097576544213
42.6852377 ,Left ,50.1840172293114 ,50.993585888228 ,9.26216318352762
42.7160544 ,Left ,50.0865118345257 ,50.9165974047238 ,9.14627726547915
42.7453168 ,Left ,50.0289072107566 ,50.8907186119775 ,9.09966496217202
42.7611183 ,Left ,49.9789673532273 ,50.8624805061742 ,9.05798951274948
42.7753762 ,Left ,49.9233243936891 ,50.8056604362029 ,9.03545566998788
42.7910122 ,Left ,49.872101430262 ,50.739809491318 ,9.05244296454864
42.812857 ,Left ,49.8879568884638 ,50.7232241420228 ,9.07346984427299
42.8277104 ,Left ,49.9142109752341 ,50.7315190320499 ,9.05205177232011
42.8503913 ,Left ,49.9607686606615 ,50.7541912569312 ,9.0277951684407
42.8727901 ,Left ,49.9859797598676 ,50.7711060237433 ,9.02972512730559
42.88787 ,Left ,50.0007737308653 ,50.7365976268765 ,9.05404111950452
42.910452 ,Left ,50.0331612189738 ,50.6707024992838 ,9.10249513562472
42.9331354 ,Left ,50.0765863652563 ,50.5952794749752 ,9.14312567066803
42.947739 ,Left ,50.1065375484258 ,50.5236699721419 ,9.16910396936604
42.9703509 ,Left ,50.1219781033564 ,50.470486167199 ,9.21958098051229
42.9927389 ,Left ,50.1175580272469 ,50.4454692528208 ,9.28676267811803
43.0154266 ,Left ,50.0872742975046 ,50.4424785772092 ,9.35815509061438
43.0378716 ,Left ,50.0494721157309 ,50.4296742813095 ,9.39980247520691
43.0603868 ,Left ,50.0091412284 ,50.383128902849 ,9.41823374911151
43.0676925 ,Left ,49.9841053343088 ,50.3197828608455 ,9.4557289202225
43.0904202 ,Left ,49.9894015571374 ,50.2633888527521 ,9.48092455460769
43.1127662 ,Left ,50.0318133466575 ,50.2625563098258 ,9.4797331134449
43.1316591 ,Left ,50.085343763873 ,50.3050563412448 ,9.46449250645825
