timestamp,event,roll,pitch,yaw
0.0204184 ,Left ,61,9440638652082 ,47,0466603083913 ,55,6423792553839
0.0430304 ,Left ,61,9440638652082 ,47,0466603083913 ,55,6423792553839
0.065746 ,Left ,61,9446051080461 ,47,0466197696593 ,55,6427440401489
0.0805247 ,Left ,61,9422860059766 ,47,0470087476455 ,55,6427820570635
0.1030939 ,Left ,61,9497940936562 ,47,0401615571722 ,55,6399018836621
0.1331482 ,Left ,61,9505988795177 ,47,0311688759359 ,55,6407336155176
0.1557314 ,Left ,61,9365933157539 ,47,0237257945035 ,55,6403215615328
0.1780756 ,Left ,61,9382616433154 ,47,0187024254827 ,55,6363370672518
0.1930676 ,Left ,61,9352180781925 ,47,010520025222 ,55,6269031973754
0.2081067 ,Left ,61,9378022515603 ,46,9962659911367 ,55,608475733766
0.2230509 ,Left ,61,9416179115765 ,46,9751215095783 ,55,5961126198215
0.245501 ,Left ,61,9411900220417 ,46,9568547111057 ,55,5890646419416
0.2607906 ,Left ,61,9323503776079 ,46,9504722839362 ,55,57855351804
0.2835593 ,Left ,61,928128246445 ,46,9484231732945 ,55,5650179357026
0.3062934 ,Left ,61,9256212411551 ,46,9445502094495 ,55,554975816242
0.3286732 ,Left ,61,9272081777003 ,46,955378877026 ,55,5482421335963
0.3434565 ,Left ,61,9148239043321 ,46,9741424297752 ,55,5449010353411
0.3657645 ,Left ,61,9028540593543 ,46,9957488108184 ,55,5448253869901
0.380895 ,Left ,61,8921183118072 ,47,0079987487759 ,55,5413859777961
0.402996 ,Left ,61,8795454892481 ,47,012743339868 ,55,5410793022145
0.4258445 ,Left ,61,8522974676379 ,47,0031371588344 ,55,5423168637273
0.4480938 ,Left ,61,7965343520898 ,46,9705406977576 ,55,5532987630284
0.4633374 ,Left ,61,7200838983172 ,46,942733614934 ,55,5472076124329
0.4855321 ,Left ,61,6959543559051 ,46,9395773702693 ,55,5465960989702
0.5082415 ,Left ,61,6353742302827 ,46,9472379416179 ,55,5384142067825
0.5233323 ,Left ,61,56281266209 ,46,8888197488543 ,55,5490637455805
0.5457572 ,Left ,61,6755335002113 ,46,8924686086022 ,55,5061812865212
0.5681155 ,Left ,61,6710690815653 ,46,9870618983553 ,55,3769103040842
0.5906337 ,Left ,61,5771126483593 ,47,0664073692587 ,55,2406635725633
0.6132831 ,Left ,61,5630886132754 ,47,095964061238 ,55,1133975432947
0.6355777 ,Left ,61,5967630761251 ,47,1504827770327 ,54,9479457158367
0.650714 ,Left ,61,6014478488671 ,47,1860889641792 ,54,8018058440504
0.6655645 ,Left ,61,6156974549205 ,47,1474810429724 ,54,7272601023627
0.6882444 ,Left ,61,6165109945466 ,47,0312363321528 ,54,7501258374592
0.7032732 ,Left ,61,5356565541643 ,46,9104577340676 ,54,8340761348027
0.7256611 ,Left ,61,5116853655076 ,46,9105080074558 ,54,8564607420539
0.7482004 ,Left ,61,4514226337724 ,46,9364393669953 ,54,8405037675633
0.7710371 ,Left ,61,460362150413 ,46,9480924407816 ,54,8061153858252
0.801027 ,Left ,61,5179824382792 ,47,0377685898687 ,54,7370228615816
0.83076 ,Left ,61,6347609099296 ,47,1098387328416 ,54,723234094254
0.853506 ,Left ,61,6273463315192 ,47,1352438379742 ,54,7904620996375
0.8684637 ,Left ,61,5224984186735 ,47,2775417862808 ,54,814227925992
0.8833029 ,Left ,61,3794163665458 ,47,3953416486952 ,54,837653921499
0.9059074 ,Left ,61,3449938939289 ,47,425503280798 ,54,8409605286023
0.9285465 ,Left ,61,3700845398046 ,47,4472803552865 ,54,7998054282799
0.9435328 ,Left ,61,3565505161009 ,47,467228350428 ,54,7651605671756
0.9658027 ,Left ,61,3603029101125 ,47,4156614470417 ,54,788681722185
0.9883571 ,Left ,61,3515808348901 ,47,3268869588045 ,54,8602700743297
1.0030666 ,Left ,61,2550647264215 ,47,2426247264185 ,54,919544734357
1.0255312 ,Left ,61,2940888441847 ,47,2921785286201 ,54,8747706690246
1.0482827 ,Left ,61,2702120934814 ,47,4224125402964 ,54,7805297347232
1.0704511 ,Left ,61,2937326081064 ,47,5159113281656 ,54,6994049263979
1.0855385 ,Left ,61,4453431114948 ,47,5626122847111 ,54,6012085634834
1.1156935 ,Left ,61,5494473852356 ,47,5773987682736 ,54,4627439179356
1.1381331 ,Left ,61,5387365862012 ,47,5985949821174 ,54,3104726286854
1.1533 ,Left ,61,5036292505895 ,47,6359862582113 ,54,1688376184814
1.1683505 ,Left ,61,5117948043256 ,47,6392538400402 ,54,0436059773479
1.1905193 ,Left ,61,5162464373327 ,47,6101352045417 ,53,9166034488741
1.2058345 ,Left ,61,455920967331 ,47,5672809944674 ,53,8289044866085
1.2283623 ,Left ,61,362635137018 ,47,5426450171906 ,53,7764996585458
1.2503911 ,Left ,61,3560794843483 ,47,5247880508709 ,53,7494410171959
1.2663242 ,Left ,61,3592708144702 ,47,4827400952901 ,53,7928872102795
1.2888828 ,Left ,61,3493043127663 ,47,3448498048197 ,53,944879372506
1.3113515 ,Left ,61,5821353015301 ,47,3148071341321 ,54,0094677995214
1.3264446 ,Left ,61,5989302574372 ,47,3732054876291 ,53,9926451727045
1.3485157 ,Left ,61,5387286527614 ,47,3294979092967 ,54,0271432053111
1.3708974 ,Left ,61,6458318865411 ,47,2058740820592 ,54,063701021881
1.3862198 ,Left ,61,6752528596581 ,47,0728268024555 ,54,0698442383
1.4085995 ,Left ,61,6017480764525 ,47,0068746029008 ,54,06556546421
1.4311634 ,Left ,61,5627644306754 ,46,9863640374185 ,54,0915335144277
1.4462256 ,Left ,61,5842335494908 ,46,9533516303464 ,54,1989039903094
1.4685504 ,Left ,61,5816273961694 ,46,851288711011 ,54,316031507501
1.4908627 ,Left ,61,7124507721354 ,46,8189497306604 ,54,350783400309
1.5059756 ,Left ,61,735581275493 ,46,889051841863 ,54,3228613436537
1.5280349 ,Left ,61,7025308917988 ,46,9231682952165 ,54,3307426279384
1.5504884 ,Left ,61,8205201330501 ,46,9048363438229 ,54,3568033076167
1.5658058 ,Left ,61,9339504459795 ,46,8835717293416 ,54,3861822020245
1.5880253 ,Left ,61,9484500152787 ,46,8702681476479 ,54,4233425140221
1.6104863 ,Left ,61,9878230564772 ,46,8627874619456 ,54,4761882201178
1.6258569 ,Left ,62,0297226275156 ,46,8318509847927 ,54,5179361551364
1.648053 ,Left ,62,0689262297455 ,46,7956982613039 ,54,5577167719542
1.6706349 ,Left ,62,0853786244056 ,46,7660382775139 ,54,5967621342293
1.6859162 ,Left ,62,100381033254 ,46,7412362639878 ,54,6401656457398
1.7155858 ,Left ,62,1252531276283 ,46,7120469263793 ,54,6789452755913
1.7609147 ,Left ,62,1585849017101 ,46,6763537417407 ,54,7195797756655
1.7757791 ,Left ,62,1892784834268 ,46,6604077895431 ,54,7590818852627
1.7984213 ,Left ,62,1863830279196 ,46,6743487282416 ,54,8029995587877
1.8208853 ,Left ,62,1639857616739 ,46,6832022151499 ,54,8481649938469
1.8509102 ,Left ,62,1695756534012 ,46,6796755147039 ,54,9153734015331
1.8657919 ,Left ,62,1876324333817 ,46,677837618477 ,54,9418400437676
1.8807193 ,Left ,62,1876348100307 ,46,6527655859908 ,54,9661717409913
1.8958499 ,Left ,62,1887952410186 ,46,6136943023576 ,54,9831131173534
1.9106959 ,Left ,62,1734569846406 ,46,5787341895773 ,54,9982046486169
1.9259278 ,Left ,62,1487338507776 ,46,5540856698665 ,55,0135962770136
1.9560141 ,Left ,62,1249151102753 ,46,5404423813882 ,55,0220204376327
1.9858138 ,Left ,62,1117669973727 ,46,5341525024511 ,55,0182567232267
2.000472 ,Left ,62,0943235808971 ,46,5332412726923 ,55,0186016585939
2.0156352 ,Left ,62,0745104540018 ,46,5473140717249 ,55,0251360329107
2.0305269 ,Left ,62,0294525988535 ,46,5942985217636 ,55,0404881300678
2.0455795 ,Left ,61,9942272379311 ,46,6487737628234 ,55,0694422637988
2.0681929 ,Left ,61,9520292064211 ,46,6873914495291 ,55,1093034446873
2.0988247 ,Left ,61,920876788945 ,46,7311107168604 ,55,1678561638324
2.1137476 ,Left ,61,8777377675166 ,46,7819910604084 ,55,2358940447808
2.1438127 ,Left ,61,8233289397573 ,46,8150080753099 ,55,3120989065933
2.1733632 ,Left ,61,6987576270099 ,46,8822260931403 ,55,4033625990698
2.1883197 ,Left ,61,6584126607717 ,46,9512203342693 ,55,4259852366201
2.2109197 ,Left ,61,6351892548976 ,47,0099379946691 ,55,4761104137916
2.2259666 ,Left ,61,5362991324826 ,46,9582851059093 ,55,5583514999571
2.2483768 ,Left ,61,6106921758745 ,46,8849549390803 ,55,5121887802268
2.271036 ,Left ,61,6945864567031 ,46,9211766201109 ,55,3027661938833
2.2934719 ,Left ,61,5482646027113 ,46,9716444437563 ,55,1005521356297
2.3158163 ,Left ,61,4964699708886 ,46,9631977544544 ,54,9651991129441
2.3460553 ,Left ,61,55575442811 ,46,9330569536978 ,54,8202870204466
2.3755383 ,Left ,61,581763087281 ,46,9190159665481 ,54,5658640510512
2.3983004 ,Left ,61,6148337175632 ,46,827432245941 ,54,553901918011
2.413336 ,Left ,61,5875895562578 ,46,7390457246617 ,54,6094005685822
2.4281028 ,Left ,61,6380555720343 ,46,7977577035024 ,54,6180605034354
2.450627 ,Left ,61,5933414156266 ,46,8910747700039 ,54,6099194267941
2.4732892 ,Left ,61,5847458782159 ,46,8801832361722 ,54,5937928806801
2.4885034 ,Left ,61,6286849335618 ,46,8939671001977 ,54,543898620863
2.510447 ,Left ,61,6481455776236 ,46,9512128453445 ,54,4750564236018
2.5331481 ,Left ,61,6753707161714 ,46,9613068131911 ,54,458574127552
2.5482521 ,Left ,61,6240595142478 ,46,8803082414611 ,54,5221428663422
2.5707292 ,Left ,61,6209378881321 ,46,8456132149973 ,54,547363383042
2.5933508 ,Left ,61,5468425112842 ,46,9808302029591 ,54,4881299557538
2.6081889 ,Left ,61,3789279229079 ,47,1386815590665 ,54,4486509087956
2.6304614 ,Left ,61,3916311106268 ,47,195470060989 ,54,4477966731445
2.6532597 ,Left ,61,4793280425956 ,47,2129869268064 ,54,4065577667097
2.6682409 ,Left ,61,494449719569 ,47,2607423187384 ,54,3687585455884
2.6908521 ,Left ,61,4158869756578 ,47,321796545043 ,54,3917274073883
2.7132982 ,Left ,61,3653122624747 ,47,3167228148828 ,54,4926433622555
2.7283044 ,Left ,61,3857550368731 ,47,2586649171068 ,54,6399441490293
2.7508941 ,Left ,61,2532344493193 ,47,1561427596796 ,54,7679659828603
2.7732975 ,Left ,61,2714853647301 ,47,0882071920295 ,54,8000887532374
2.7883034 ,Left ,61,3755097376814 ,47,1565508861597 ,54,7195828990594
2.8109919 ,Left ,61,3330085545147 ,47,2475017456079 ,54,6607901469783
2.8333774 ,Left ,61,3814480235204 ,47,2751363600125 ,54,648423992999
2.8484037 ,Left ,61,5001550258731 ,47,2632809935978 ,54,5808369466835
2.8710255 ,Left ,61,5190893417772 ,47,2523031527459 ,54,4874473191611
2.8935078 ,Left ,61,4926725874061 ,47,2561198552695 ,54,4029874485486
2.916091 ,Left ,61,5216599781717 ,47,2785778727932 ,54,3110413482925
2.9310018 ,Left ,61,5506789825044 ,47,3188586937063 ,54,1894257819492
2.9535076 ,Left ,61,5458762051253 ,47,3640887983772 ,54,0375695333371
2.9760362 ,Left ,61,5162967933064 ,47,3945805105805 ,53,8790036991513
2.9908898 ,Left ,61,4890935359266 ,47,4295817453242 ,53,7286176346133
3.0210018 ,Left ,61,4463762804641 ,47,4839716125425 ,53,5925683783365
3.0432614 ,Left ,61,4306666388131 ,47,551706366063 ,53,4814052332494
3.058463 ,Left ,61,4828614470192 ,47,5579221254278 ,53,4353903453983
3.0734064 ,Left ,61,4788773218396 ,47,489240572196 ,53,5068025582436
3.0960558 ,Left ,61,5058594964554 ,47,3662493332116 ,53,6370540507113
3.1107599 ,Left ,61,6304807474761 ,47,3821806708984 ,53,6677115210928
3.133245 ,Left ,61,6006110987564 ,47,4012708207264 ,53,6676276645144
3.1561178 ,Left ,61,705335553234 ,47,2913430445464 ,53,7107442409686
3.1706256 ,Left ,61,8653585565348 ,47,1264867586419 ,53,7113916370517
3.1932366 ,Left ,61,8392853466937 ,46,9836132249735 ,53,7003961443587
3.2156556 ,Left ,61,7059134349495 ,46,9261010425462 ,53,7384582951811
3.2308291 ,Left ,61,670603282372 ,46,9125377694318 ,53,8239411767055
3.253315 ,Left ,61,7208977180136 ,46,8572363773651 ,53,9912769519155
3.2758603 ,Left ,61,7690217001993 ,46,7653866733681 ,54,1280868906923
3.2908351 ,Left ,61,9137912987701 ,46,7779134126845 ,54,1511360729283
3.3132496 ,Left ,61,8702057032902 ,46,905195653644 ,54,1147909547667
3.3358841 ,Left ,61,8279255247286 ,46,9665436612802 ,54,1312097186839
3.3507383 ,Left ,61,9719240499597 ,46,9635007696205 ,54,1831430931361
3.3733313 ,Left ,62,1266797520077 ,46,9519652372954 ,54,2296622359968
3.3959593 ,Left ,62,1371687965149 ,46,9480299904094 ,54,2811638941961
3.4105512 ,Left ,62,1114780068452 ,46,9172976494723 ,54,3510218941909
3.4331511 ,Left ,62,1326545358605 ,46,8768104376479 ,54,4200210273427
3.45569 ,Left ,62,2135442704941 ,46,8536278739931 ,54,4716122189675
3.4709407 ,Left ,62,1998062379965 ,46,8253706798387 ,54,5252970935516
3.4935724 ,Left ,62,1706450546938 ,46,808031593034 ,54,5646862698692
3.5160913 ,Left ,62,2132775606772 ,46,7932319904561 ,54,5761629798107
3.5310126 ,Left ,62,242067408432 ,46,7608616139321 ,54,5750801868044
3.553368 ,Left ,62,2659400656684 ,46,7429685950866 ,54,5822270510865
3.5758644 ,Left ,62,2527226213282 ,46,749629179478 ,54,602451797352
3.5908328 ,Left ,62,2310874249869 ,46,7798365406565 ,54,6257779670413
3.6208556 ,Left ,62,217677561978 ,46,8163536420699 ,54,6409545978474
3.6508215 ,Left ,62,2333740171079 ,46,8325421955631 ,54,650513817286
3.6659042 ,Left ,62,2764856317642 ,46,8390606179555 ,54,6664734041072
3.6805626 ,Left ,62,3003828266746 ,46,8512087704526 ,54,6873508003086
3.7108252 ,Left ,62,282065349207 ,46,8724974540024 ,54,7309619703095
3.7333917 ,Left ,62,2712807589605 ,46,8554942449411 ,54,7462872577906
3.7555971 ,Left ,62,2680942126808 ,46,8350440037518 ,54,7661377306304
3.77078 ,Left ,62,266045350847 ,46,8058849325561 ,54,7912373453928
3.7931751 ,Left ,62,270186944082 ,46,7726364588774 ,54,8080025955933
3.8158798 ,Left ,62,2652425697836 ,46,7318643563421 ,54,811328376363
3.8308203 ,Left ,62,2655563827393 ,46,6968073783255 ,54,8191907650873
3.8535316 ,Left ,62,2675385291031 ,46,6822778009812 ,54,8326416721774
3.8760172 ,Left ,62,2553332092935 ,46,6937796291682 ,54,8462334826801
3.8910538 ,Left ,62,2365914026966 ,46,7055161014422 ,54,8622988037107
3.9133166 ,Left ,62,2160810271809 ,46,7235716112106 ,54,8895332019452
3.9431019 ,Left ,62,186216468401 ,46,7719799468275 ,54,9248298530916
3.9582841 ,Left ,62,1459732168011 ,46,8278273500952 ,54,9672747025068
3.9806505 ,Left ,62,1195332776281 ,46,8693089633445 ,54,9969697616677
4.0105961 ,Left ,62,0528508230585 ,46,8854492476342 ,55,0721993159329
4.0331796 ,Left ,61,9886265175253 ,46,9136972825756 ,55,1064868812198
4.0559815 ,Left ,61,9355846183093 ,46,9399718018094 ,55,1355399842285
4.0707827 ,Left ,61,8690329984599 ,46,9795746791729 ,55,1589066542083
4.1007783 ,Left ,61,796780955697 ,47,0126963877419 ,55,2119610184167
4.1234161 ,Left ,61,7456633113599 ,46,9631394217935 ,55,2717477293491
4.1384093 ,Left ,61,8859550628424 ,46,9544149023449 ,55,2023788417995
4.1606947 ,Left ,61,8642608635578 ,47,0312018196765 ,55,0332138660574
4.1758779 ,Left ,61,6792625809763 ,47,0676307185235 ,54,9103965132048
4.2058995 ,Left ,61,6761230759658 ,47,0644993339977 ,54,8030223520331
4.2282236 ,Left ,61,7166968686973 ,47,0420930638986 ,54,6548336948989
4.2659379 ,Left ,61,7182614659369 ,47,0416695551402 ,54,5017430977774
4.2883259 ,Left ,61,7607592045977 ,47,0424706002618 ,54,3963971297868
4.3107895 ,Left ,61,7670820832023 ,46,9592576104042 ,54,3967192052929
4.3334989 ,Left ,61,7923886955003 ,46,8882934271212 ,54,52619908159
4.348386 ,Left ,61,7032922495008 ,46,9683433056824 ,54,5238375521581
4.3784021 ,Left ,61,783963621854 ,46,9849302649287 ,54,456481905412
4.3933517 ,Left ,61,8099072052563 ,47,07129354486 ,54,3608694473419
4.415902 ,Left ,61,8271415890864 ,47,1001757467124 ,54,3179775114999
4.4381374 ,Left ,61,7886076148186 ,47,0203580475453 ,54,3869711646897
4.4535127 ,Left ,61,7489206015589 ,46,9744591708465 ,54,4561196075376
4.4757493 ,Left ,61,6470867842792 ,47,1255460673522 ,54,438292496695
4.4984706 ,Left ,61,4392710913963 ,47,2843900902882 ,54,4511220633067
4.5134545 ,Left ,61,4723049027941 ,47,3187196471574 ,54,5152126086595
4.535986 ,Left ,61,607713813798 ,47,3362414968903 ,54,5285243377427
4.5583825 ,Left ,61,6032716977983 ,47,3737993393851 ,54,5254971336894
4.5736099 ,Left ,61,5184588687895 ,47,3885427523049 ,54,6012083606945
4.5959976 ,Left ,61,492307222375 ,47,3610783225299 ,54,7377289458688
4.6183917 ,Left ,61,3947578120568 ,47,2947371517348 ,54,8303441188507
4.6335316 ,Left ,61,4347087869259 ,47,3613816587367 ,54,7584626286868
4.6559254 ,Left ,61,3835379428645 ,47,5199690395257 ,54,604123074304
4.6784127 ,Left ,61,3420968367259 ,47,6487830056911 ,54,4660181487948
4.6935099 ,Left ,61,486160887641 ,47,7224010852097 ,54,3319547531606
4.7160219 ,Left ,61,569841926634 ,47,7820755756782 ,54,1647484895647
4.7383435 ,Left ,61,5379488701366 ,47,8284220264466 ,53,9929066711467
4.7533769 ,Left ,61,5029066287891 ,47,8468761257296 ,53,8447381671474
4.7756742 ,Left ,61,5009012785634 ,47,8376894157168 ,53,7173804059268
4.7982329 ,Left ,61,4771920872297 ,47,8255360943177 ,53,5998180422692
4.8206204 ,Left ,61,4171418318331 ,47,7797820433327 ,53,5176003839263
4.8356512 ,Left ,61,3970318751121 ,47,6899442962574 ,53,4974717358685
4.8509793 ,Left ,61,4013028290227 ,47,6161632736097 ,53,514574417811
4.8734212 ,Left ,61,3686478920329 ,47,5632823928836 ,53,5884344348273
4.8882387 ,Left ,61,3417723066597 ,47,4741336993456 ,53,7122308758319
4.9105654 ,Left ,61,6484280391168 ,47,5475078367189 ,53,7523835117944
4.9332859 ,Left ,61,4882938054636 ,47,5476337182999 ,53,8186336928203
4.9483043 ,Left ,61,3576553488268 ,47,4328291606929 ,53,9407537997929
4.9707329 ,Left ,61,4038659992679 ,47,2540490891586 ,53,9959279331125
4.9934769 ,Left ,61,5295630826003 ,47,1377140018147 ,53,9585594961541
5.0087466 ,Left ,61,6275211307271 ,47,0976501346902 ,53,9034174245021
5.0311194 ,Left ,61,4995404723248 ,47,0406304414807 ,53,9621657394525
5.0534883 ,Left ,61,6362762024115 ,47,0681709792981 ,54,0338853043059
5.0762026 ,Left ,61,6441630314923 ,47,0026838788645 ,54,1066716404366
5.0910777 ,Left ,61,7689980434876 ,46,9756807197918 ,54,1015078902144
5.1136071 ,Left ,61,7725308568525 ,47,0388814632301 ,54,0573053643087
5.1359048 ,Left ,61,7791226317535 ,47,0680139313073 ,54,0550312578739
5.1511149 ,Left ,61,9124010864472 ,47,030419130844 ,54,0838660785068
5.1734448 ,Left ,61,999562974399 ,46,9959912244018 ,54,107239709235
5.1961491 ,Left ,62,0230009871148 ,46,9734901059887 ,54,1169397584794
5.2110545 ,Left ,61,9895498283937 ,46,9606318029488 ,54,162092431464
5.2334801 ,Left ,62,0181260200742 ,46,9360415356792 ,54,2365839344482
5.2560987 ,Left ,62,0500870822961 ,46,8985141389723 ,54,299524592969
5.2709091 ,Left ,62,0191768943334 ,46,8716693606423 ,54,363070154026
5.2951551 ,Left ,62,0072676988659 ,46,8618096865159 ,54,4129656468149
5.3156309 ,Left ,61,9992588440945 ,46,8574369994943 ,54,4481211948456
5.3308082 ,Left ,62,0187248846931 ,46,8542566135843 ,54,4888618748875
5.3531887 ,Left ,62,0322635749404 ,46,858523542743 ,54,5238389425806
5.3756743 ,Left ,62,0095568189612 ,46,8793135131266 ,54,5606077368238
5.3906818 ,Left ,61,9814762974155 ,46,8971704449521 ,54,6067709961487
5.4133495 ,Left ,61,9502441648036 ,46,9196440736558 ,54,6486013415423
5.4357852 ,Left ,61,9539104084749 ,46,9250399395988 ,54,6804121356192
5.4509528 ,Left ,61,9610115463892 ,46,9211186199831 ,54,7129455469857
5.4733442 ,Left ,61,9661134719546 ,46,9211230908277 ,54,7468947552528
5.4957656 ,Left ,61,9808613800385 ,46,9140780633148 ,54,7885007588917
5.5108765 ,Left ,61,9551317419084 ,46,8864698902727 ,54,8216551766097
5.5333094 ,Left ,61,9519830849585 ,46,8464314200048 ,54,8385150511517
5.5558718 ,Left ,61,9557037758776 ,46,8104970337879 ,54,8523367225315
5.5708311 ,Left ,61,9495459871285 ,46,7991752100557 ,54,8675204351
5.5933661 ,Left ,61,9461928636999 ,46,7933391002183 ,54,8781776671445
5.6160921 ,Left ,61,9318946298932 ,46,7639152772256 ,54,8846978807358
5.63098 ,Left ,61,9470467179742 ,46,7302989290823 ,54,8927407805967
5.6533545 ,Left ,61,9385466969228 ,46,7343958135361 ,54,9076253980261
5.6759749 ,Left ,61,9099069710523 ,46,7591329551767 ,54,9327896516857
5.6910101 ,Left ,61,8972264356487 ,46,7825351582761 ,54,9596914057675
5.7133659 ,Left ,61,9019935530807 ,46,7991301910339 ,54,9890784813654
5.7358943 ,Left ,61,8911684001665 ,46,8265802126939 ,55,0256068602981
5.7585622 ,Left ,61,8786299737915 ,46,8641258073824 ,55,0742148382031
5.7810551 ,Left ,61,8475505121629 ,46,8992378896819 ,55,1230806595411
5.7960314 ,Left ,61,8189558457659 ,46,9230773097273 ,55,1561332718193
5.8183941 ,Left ,61,7894597995727 ,46,9461378544417 ,55,1766377137103
5.8409085 ,Left ,61,7368054726276 ,46,988108075092 ,55,1875812100588
5.8561586 ,Left ,61,7032036437248 ,47,0420760511944 ,55,196067723288
5.8783681 ,Left ,61,6518808105269 ,47,0489579541324 ,55,2255956043714
5.900812 ,Left ,61,5441458073471 ,46,9994784975641 ,55,2617689345795
5.9158842 ,Left ,61,5588690139383 ,46,9540043551265 ,55,2257261776289
5.9384282 ,Left ,61,5921185647167 ,46,9984059052781 ,55,0960667962654
5.9609886 ,Left ,61,4813788177986 ,47,0470777596825 ,54,9732280611372
5.9831019 ,Left ,61,4483710936943 ,47,0344046621413 ,54,8866559429433
5.9981937 ,Left ,61,4948007055183 ,47,0112735689307 ,54,7620534113701
6.0205174 ,Left ,61,4712555985011 ,47,0186578905123 ,54,619281055271
6.0432117 ,Left ,61,4734112179229 ,47,0642943907655 ,54,4792767129527
6.0582831 ,Left ,61,5358207026857 ,47,0482649509661 ,54,4116589501182
6.0809429 ,Left ,61,4546764247581 ,46,9348106987898 ,54,4919654749781
6.1033628 ,Left ,61,5254384608198 ,46,9442228436856 ,54,5540702333098
6.1184078 ,Left ,61,4592822351067 ,47,0789582315682 ,54,5614728282581
6.1408048 ,Left ,61,3531289941147 ,47,1751200317385 ,54,5727202724908
6.1632448 ,Left ,61,4139060300048 ,47,1675288645582 ,54,5700849745115
6.1708614 ,Left ,61,4899732720582 ,47,1609102628207 ,54,4930427614133
6.1933537 ,Left ,61,4304828959564 ,47,1822280976453 ,54,3887990574134
6.2158922 ,Left ,61,4170150619052 ,47,1784727138519 ,54,3392589114539
6.2309272 ,Left ,61,3313628440152 ,47,1411777784912 ,54,3818711041151
6.2535009 ,Left ,61,3308682418158 ,47,2280373683802 ,54,4174819444252
6.2760946 ,Left ,61,2096931562157 ,47,3946176482027 ,54,478948869238
6.2910406 ,Left ,61,0960358909891 ,47,4891316680443 ,54,5856335730881
6.3133696 ,Left ,61,1744163793354 ,47,5226036320134 ,54,6269128850434
6.3358895 ,Left ,61,243882926874 ,47,5363451607149 ,54,6026532811195
6.3509011 ,Left ,61,1530885905982 ,47,5345226014207 ,54,6106364895936
6.3733906 ,Left ,61,1518599516705 ,47,4658107129177 ,54,6662100562305
6.4107262 ,Left ,60,9540931441661 ,47,2128839665412 ,54,8295563862255
6.433296 ,Left ,61,0127377210478 ,47,2128020799303 ,54,7899703559805
6.4560791 ,Left ,61,0285919733153 ,47,3035113240717 ,54,7011118818414
6.4708329 ,Left ,61,0274888275664 ,47,3262830707 ,54,6794742562307
6.4935196 ,Left ,61,1485388265369 ,47,3306825489768 ,54,660397940964
6.5161431 ,Left ,61,2242100402234 ,47,3512289276189 ,54,6149825880067
6.5310658 ,Left ,61,2022024937411 ,47,3714323252995 ,54,5827939001619
6.5534499 ,Left ,61,2205240124565 ,47,4122949772242 ,54,5548072632966
6.5911021 ,Left ,61,3158172798996 ,47,4927430922607 ,54,3932224622855
6.6135292 ,Left ,61,3361889193802 ,47,5253523024225 ,54,2551198297927
6.6360864 ,Left ,61,3459325667318 ,47,5739089954241 ,54,0850843697595
6.6510476 ,Left ,61,3533669614103 ,47,6389023037431 ,53,9003345260925
6.6734639 ,Left ,61,3574150063482 ,47,6954596633284 ,53,7169789920465
6.6959802 ,Left ,61,3614683936304 ,47,7306979426273 ,53,5514923255672
6.7111752 ,Left ,61,3400025732128 ,47,7494903275464 ,53,3994383845145
6.7334046 ,Left ,61,3154153824112 ,47,758344233987 ,53,2799685935269
6.7559556 ,Left ,61,3091979849809 ,47,7603694530679 ,53,215955108587
6.7934074 ,Left ,61,3072949483376 ,47,531582626722 ,53,4197167634825
6.8158481 ,Left ,61,4878380744297 ,47,5032368326773 ,53,4782509447176
6.8459584 ,Left ,61,5130739964827 ,47,4088171143539 ,53,5999559073707
6.8683975 ,Left ,61,6296614675622 ,47,2648240470017 ,53,6576704494002
6.8910893 ,Left ,61,6458359605992 ,47,1275019320382 ,53,7026698321843
6.9131446 ,Left ,61,5706219043502 ,47,0686929024588 ,53,7645861206664
6.9283007 ,Left ,61,5343248610919 ,47,0607611836719 ,53,8477749768333
6.9508219 ,Left ,61,5490309114544 ,47,0390613701471 ,53,988991205917
6.9733916 ,Left ,61,6044130833966 ,47,0227032350345 ,54,0883066239451
6.9881151 ,Left ,61,7443108285604 ,46,9858013978605 ,54,102094075002
7.0106167 ,Left ,61,7857432391597 ,47,1800463707623 ,54,0506392497419
7.0334832 ,Left ,61,7036423460803 ,47,2434859340277 ,54,0883669606426
7.0484088 ,Left ,61,7307378504042 ,47,198040798285 ,54,1441935924649
7.07086 ,Left ,61,7238551492866 ,47,1222147524169 ,54,1902161207425
7.0933022 ,Left ,61,6412992286699 ,47,0505155015276 ,54,2261590361789
7.1082155 ,Left ,61,5700639753201 ,46,9891384225492 ,54,2636067460768
7.130749 ,Left ,61,5414130582568 ,46,9327986488449 ,54,307691664304
7.1533052 ,Left ,61,5577649754983 ,46,9069924204999 ,54,3502020183847
7.1683274 ,Left ,61,5260252185617 ,46,8583889500438 ,54,3869605225227
7.1907695 ,Left ,61,4766686386217 ,46,8172567233076 ,54,4018009881306
7.2130998 ,Left ,61,4791307069316 ,46,7862331071239 ,54,4157445166473
7.2283524 ,Left ,61,4628414882345 ,46,7391129423416 ,54,4310719786666
7.2507851 ,Left ,61,483096857344 ,46,7199492709091 ,54,4549276399751
7.2737568 ,Left ,61,5172209934507 ,46,7031233926449 ,54,4554143571438
7.2888187 ,Left ,61,5248111419724 ,46,7036008014585 ,54,4721086391548
7.3114142 ,Left ,61,5072827563431 ,46,7325646941799 ,54,5027380993778
7.3337565 ,Left ,61,5328131052387 ,46,7701726032119 ,54,5451677894083
7.3484145 ,Left ,61,5483792985573 ,46,7581903312641 ,54,5843343734499
7.3711232 ,Left ,61,6044519553959 ,46,7362462678386 ,54,6142089255096
7.3936089 ,Left ,61,6271272290754 ,46,7238125533614 ,54,6402529043301
7.4087388 ,Left ,61,6164389987726 ,46,7158374356512 ,54,676349134797
7.4308963 ,Left ,61,6128290060771 ,46,6991388503425 ,54,7040650275321
7.4535161 ,Left ,61,6211165335604 ,46,668565392639 ,54,7241983625464
7.4685795 ,Left ,61,6192107092514 ,46,6369056726487 ,54,7470546859642
7.4985711 ,Left ,61,6070742776514 ,46,6177857901857 ,54,7745538760668
7.5210798 ,Left ,61,6059517936531 ,46,6036290534989 ,54,8054855623403
7.5362862 ,Left ,61,5763520843814 ,46,580921665922 ,54,8347712101477
7.5512144 ,Left ,61,5667788909427 ,46,5647559954767 ,54,8590302431124
7.5736503 ,Left ,61,5486820778575 ,46,5679025252176 ,54,8865965315677
7.588373 ,Left ,61,5283475341539 ,46,587227634351 ,54,9226776755246
7.6110677 ,Left ,61,5092685936457 ,46,6056812327527 ,54,9599219539006
7.6335738 ,Left ,61,5109371003409 ,46,6172737449134 ,55,0047087722712
7.6486844 ,Left ,61,4908707422866 ,46,6348959605111 ,55,0607023392029
7.6709722 ,Left ,61,4674591510123 ,46,6729908499777 ,55,1203718652904
7.6935981 ,Left ,61,4466128407859 ,46,7162829022732 ,55,1814720820244
7.7084443 ,Left ,61,4158147460691 ,46,7447802101663 ,55,2485392539822
7.7312147 ,Left ,61,4097367987007 ,46,765203128733 ,55,3072052172788
7.7535054 ,Left ,61,3948708367903 ,46,7977330152066 ,55,3554556484053
7.7762537 ,Left ,61,38112248884 ,46,8338355684423 ,55,4053026476426
7.8137941 ,Left ,61,3461792338067 ,46,8566753824809 ,55,4572564143803
7.8365276 ,Left ,61,3234989027142 ,46,8601723755314 ,55,455162818575
7.8736517 ,Left ,61,2809747974128 ,46,9898796031955 ,55,4792572349418
7.8961145 ,Left ,61,2532354457066 ,47,0254627775124 ,55,5054269563042
7.9336612 ,Left ,61,3362660686507 ,46,8982525815067 ,55,4744673714787
7.9559158 ,Left ,61,3516220156582 ,46,9634220268467 ,55,2869992359854
8.0012568 ,Left ,61,2280823161337 ,46,9560077916378 ,55,0254629558035
8.0309833 ,Left ,61,2856555815638 ,46,953748894436 ,54,9040508821884
8.091164 ,Left ,61,2708572531199 ,46,8520511052732 ,54,6736766931692
8.1512057 ,Left ,61,2732418981376 ,46,845511740055 ,54,6456700136598
8.1735981 ,Left ,61,1901704938228 ,46,9184830746376 ,54,6034494885037
8.203688 ,Left ,61,2409235484846 ,46,9339565441021 ,54,4947193459054
8.2111781 ,Left ,61,2353936513448 ,46,9996252913385 ,54,3960030726722
8.256149 ,Left ,61,3241801399172 ,46,9060817751743 ,54,55077720967
8.2938175 ,Left ,61,2133295744362 ,47,1922350954313 ,54,58172539404
8.3165026 ,Left ,61,2227871576956 ,47,2341439114486 ,54,6322708843756
8.3539975 ,Left ,61,2773918685465 ,47,3116618008971 ,54,5843161580227
8.3833884 ,Left ,61,226133412614 ,47,2803323341975 ,54,6189229297942
8.4280916 ,Left ,61,102675020079 ,47,0881118034876 ,54,7999676258576
8.443117 ,Left ,61,0518171904797 ,47,0673815147014 ,54,7967133967015
8.4964835 ,Left ,61,2230624278033 ,47,3162504539491 ,54,5920215096909
8.533964 ,Left ,61,4095982282809 ,47,3787679549238 ,54,442035134531
8.5558679 ,Left ,61,394336992989 ,47,412160152579 ,54,3616729601741
8.5933522 ,Left ,61,4051627608306 ,47,5372939924016 ,54,1562021746395
8.6156668 ,Left ,61,3823111143352 ,47,6087408983264 ,54,0335623960511
8.6530753 ,Left ,61,3834764416065 ,47,7145875295649 ,53,7612410526515
8.675839 ,Left ,61,3595088065545 ,47,7627684101788 ,53,6323532141774
8.7134232 ,Left ,61,2709773483504 ,47,8120301089069 ,53,434886258393
8.7361286 ,Left ,61,2567797670138 ,47,7921696090741 ,53,3652965480584
8.7732103 ,Left ,61,1949942183892 ,47,6726013744673 ,53,3617499077065
8.7956707 ,Left ,61,2478506003179 ,47,538298861065 ,53,4622929258668
8.8333884 ,Left ,61,5226857858863 ,47,5426878597812 ,53,466203190185
8.8559147 ,Left ,61,6334630092897 ,47,4372660395004 ,53,4879849307233
8.893159 ,Left ,61,7695508602365 ,47,1360252103443 ,53,4699326442209
8.9157265 ,Left ,61,6525667345016 ,47,0591373550678 ,53,4951897019179
8.9538959 ,Left ,61,64250455294 ,47,0069295250142 ,53,6534377212975
8.9763791 ,Left ,61,5542097975987 ,46,9233581198603 ,53,8000354699303
9.0139059 ,Left ,61,7846063375987 ,46,9964130320136 ,53,8055111078468
9.0359437 ,Left ,61,6858722373404 ,47,0891329739387 ,53,7795984362346
9.0584024 ,Left ,61,7606983927617 ,47,0985488057372 ,53,8219302876627
9.0958228 ,Left ,61,8863781486329 ,47,0995969822205 ,53,9014490761193
9.1183245 ,Left ,61,8634167792609 ,47,0948067130495 ,53,9855302582375
9.163629 ,Left ,61,9018171932039 ,47,0585338248138 ,54,2013768173983
9.1860065 ,Left ,61,892124395351 ,47,0003702416187 ,54,302981375011
9.2612994 ,Left ,61,8445294522811 ,46,9156275119058 ,54,4661743332193
9.2982788 ,Left ,61,8041176200176 ,46,9288013433673 ,54,5982474254482
9.3508866 ,Left ,61,7668325847455 ,46,9505363027202 ,54,7507005726865
9.4558599 ,Left ,61,7621224715992 ,46,890303198456 ,55,0352937809456
9.4935281 ,Left ,61,7674168858573 ,46,8052785568577 ,55,1183160140006
9.5160003 ,Left ,61,7740684396138 ,46,7632319335471 ,55,1517195239844
9.5534376 ,Left ,61,770132947748 ,46,713954259359 ,55,1974116718528
9.575634 ,Left ,61,7616238137633 ,46,6843678068143 ,55,2124378465141
9.6132764 ,Left ,61,7312808058519 ,46,6421115575883 ,55,2382803164989
9.635935 ,Left ,61,7013033464295 ,46,6580635975935 ,55,2457141080525
9.6731895 ,Left ,61,6972882354364 ,46,6692912888365 ,55,2669184422943
9.6955632 ,Left ,61,7002437120332 ,46,6797747838204 ,55,2814108482439
9.726053 ,Left ,61,6666311300302 ,46,7617454827524 ,55,3260100126576
9.7559259 ,Left ,61,6530403776827 ,46,7948688778183 ,55,3450287510341
9.7861336 ,Left ,61,6019440280682 ,46,8155812235077 ,55,3565828190848
9.8086754 ,Left ,61,5611992110639 ,46,8150941022538 ,55,3687365545175
9.830867 ,Left ,61,4869178073835 ,46,8180345699225 ,55,3681663166968
9.8532952 ,Left ,61,4454071453146 ,46,8404687917262 ,55,3650855432896
9.8686217 ,Left ,61,4108429480811 ,46,8777256457821 ,55,3305739513017
9.8909479 ,Left ,61,3014239492674 ,46,8517794789691 ,55,3253356461311
9.9130486 ,Left ,61,397463922438 ,46,8075035248571 ,55,2696264630886
9.928131 ,Left ,61,5418116828067 ,46,8818946069272 ,55,0805754097539
9.9583328 ,Left ,61,4594419083287 ,46,9671162137936 ,54,8981759023152
9.9809072 ,Left ,61,3403196857232 ,46,9723487081151 ,54,8069147473022
9.9960047 ,Left ,61,3398335221177 ,46,9897647864274 ,54,7072967765735
10.0184098 ,Left ,61,3327716100585 ,47,019301653886 ,54,5954875467592
10.0331392 ,Left ,61,3427302185063 ,47,0176740116429 ,54,5079731547689
10.0483282 ,Left ,61,4139915687436 ,46,9403623656829 ,54,4747913056333
10.0714665 ,Left ,61,3306961011909 ,46,7844866165385 ,54,5428700870041
10.1013867 ,Left ,61,360639231625 ,46,7547637325983 ,54,5626189071166
10.1238383 ,Left ,61,3327253355167 ,46,8651904942253 ,54,5063124333132
10.1610825 ,Left ,61,354145298846 ,46,9708672342149 ,54,4230407837899
10.1759134 ,Left ,61,4370979604936 ,47,048061295756 ,54,3372238558623
10.1905902 ,Left ,61,430647906341 ,47,0817170325772 ,54,2802960146769
10.2131818 ,Left ,61,3670694205544 ,47,0030064261422 ,54,33873965247
10.2282474 ,Left ,61,3559575721475 ,46,9322418045901 ,54,430040684797
10.2505152 ,Left ,61,3547397059149 ,47,071586158918 ,54,3999914922568
10.2736234 ,Left ,61,2201788313662 ,47,2471025799379 ,54,3839605721582
10.288828 ,Left ,61,2361846610513 ,47,295063200863 ,54,4320737437496
10.3112137 ,Left ,61,3316649253548 ,47,3048216461706 ,54,4514943289128
10.3337015 ,Left ,61,3279146942395 ,47,324583118648 ,54,4397898899473
10.3560263 ,Left ,61,2451346319407 ,47,3276962662068 ,54,4689185309554
10.3860346 ,Left ,61,2375304364948 ,47,286930519206 ,54,5577821417058
10.4085447 ,Left ,61,1576278447351 ,47,2061716661428 ,54,6540512946626
10.4235848 ,Left ,61,1981501334187 ,47,2252603923808 ,54,6339250762094
10.4386126 ,Left ,61,1952232757184 ,47,3688148370885 ,54,5208853717416
10.4537389 ,Left ,61,1217802075742 ,47,495832114641 ,54,4272136043317
10.4763021 ,Left ,61,2380494963514 ,47,5576094325471 ,54,3557822765177
10.4911216 ,Left ,61,3623398537787 ,47,6083832640779 ,54,223336225579
10.5136293 ,Left ,61,333509022622 ,47,6565719240924 ,54,0648332492963
10.5361195 ,Left ,61,2758333795433 ,47,710615543075 ,53,9180491924659
10.5510678 ,Left ,61,2817641621988 ,47,7398154316969 ,53,794049585613
10.5735943 ,Left ,61,3114698546999 ,47,7503923503974 ,53,6776888897931
10.5961983 ,Left ,61,275734973534 ,47,7386230802848 ,53,5674290247518
10.611186 ,Left ,61,2023932195125 ,47,7001592014609 ,53,463629837186
10.6334551 ,Left ,61,135844728681 ,47,6474397999376 ,53,3777357963166
10.656088 ,Left ,61,098627373048 ,47,6294850867156 ,53,3330496869333
10.6709512 ,Left ,61,1309789726084 ,47,6410100653951 ,53,3297048194319
10.6931458 ,Left ,61,14006862413 ,47,5884970236745 ,53,3670140677052
10.7155482 ,Left ,61,1815820759796 ,47,4621766931512 ,53,4896112417631
10.730803 ,Left ,61,4088346836217 ,47,505671376591 ,53,5113968285031
10.7531838 ,Left ,61,4258975317879 ,47,5603812790376 ,53,5205406134319
10.7757092 ,Left ,61,4899497177743 ,47,481612071709 ,53,5876811316759
10.7907875 ,Left ,61,6343303073542 ,47,3238389740053 ,53,6120753354343
10.8133312 ,Left ,61,652702960472 ,47,1853995833293 ,53,6057211923143
10.8356389 ,Left ,61,579423417343 ,47,115999356281 ,53,6128227006902
10.8509497 ,Left ,61,5564058677046 ,47,0988775002038 ,53,660057542076
10.8733318 ,Left ,61,5806825987051 ,47,0526782854464 ,53,7854536200457
10.8954074 ,Left ,61,602915653911 ,46,9582072035989 ,53,9058058193358
10.9105568 ,Left ,61,7612075749519 ,46,9644558216902 ,53,921496783952
10.9330908 ,Left ,61,690201382383 ,47,0746200710815 ,53,8837754872767
10.9559122 ,Left ,61,6421557667922 ,47,1174087359154 ,53,9061054936014
10.9708576 ,Left ,61,7833925512848 ,47,1041305336682 ,53,941576797706
10.9930906 ,Left ,61,9126046739372 ,47,1060332281634 ,53,9430072791059
11.0156392 ,Left ,61,9091766010822 ,47,0994003219864 ,53,9662373824551
11.0305793 ,Left ,61,8926293168126 ,47,1005214360706 ,54,0120029926382
11.053394 ,Left ,61,9252197267016 ,47,0554433643722 ,54,0843376599776
11.0759396 ,Left ,61,9177348018786 ,47,0047703948924 ,54,1612084534602
11.0908669 ,Left ,61,888876433344 ,46,9793422397626 ,54,2204381319053
11.113379 ,Left ,61,8559307081759 ,46,9468864275012 ,54,2733682270504
11.143916 ,Left ,61,8294478539176 ,46,914372076543 ,54,3239748747062
11.1664536 ,Left ,61,8686484333087 ,46,8648170997085 ,54,3777242827395
11.1964685 ,Left ,61,8978314839741 ,46,8330587246852 ,54,4176369505194
11.2111585 ,Left ,61,8591171812982 ,46,8221206487216 ,54,4515184124001
11.2256283 ,Left ,61,8033176797479 ,46,8528854493624 ,54,4782097159792
11.2407554 ,Left ,61,7839723277622 ,46,87933213115 ,54,4997237127698
11.2557799 ,Left ,61,8138081277582 ,46,9061562224764 ,54,5193201614977
11.2856896 ,Left ,61,8542407310324 ,46,9218325020088 ,54,5510037051668
11.3006925 ,Left ,61,8731198719706 ,46,9331441827478 ,54,5929857982683
11.3234266 ,Left ,61,8856440022403 ,46,9234016187614 ,54,627154528585
11.3536886 ,Left ,61,8643564025244 ,46,8822072340052 ,54,6764008953358
11.3836218 ,Left ,61,8694917606748 ,46,8622052238787 ,54,7026481376129
11.4136719 ,Left ,61,8796439057477 ,46,8462601600547 ,54,7217183409734
11.4285037 ,Left ,61,8856535968287 ,46,8244346643143 ,54,7260504386934
11.458673 ,Left ,61,876797465581 ,46,76450369376 ,54,7271673332462
11.5035922 ,Left ,61,8904071054725 ,46,7014726739488 ,54,7409960101703
11.5260275 ,Left ,61,9692417961825 ,46,7295535108617 ,54,7182327682966
11.5561876 ,Left ,61,7261873386738 ,46,6348270731482 ,54,7751429905692
11.5787333 ,Left ,61,8686339138507 ,46,6580627488942 ,54,7493812130567
11.6160336 ,Left ,61,7690508951704 ,46,6289987035171 ,54,8007413578977
11.6385032 ,Left ,61,7854238922064 ,46,6329937725539 ,54,824929725687
11.6758904 ,Left ,61,6641538870607 ,46,5909820236657 ,54,8938723638519
11.6983274 ,Left ,61,6662685110603 ,46,6019659381811 ,54,9235102934163
11.7134048 ,Left ,61,6605322026907 ,46,6031537948713 ,54,9495418747118
11.7286379 ,Left ,61,6600352132416 ,46,6039144255959 ,54,96927939887
11.7508273 ,Left ,61,6487279448191 ,46,6092969764033 ,54,9929996081751
11.7735878 ,Left ,61,6524085307856 ,46,6245039172537 ,55,000643705002
11.7956252 ,Left ,61,6044643389531 ,46,6095697090003 ,55,0359047869807
11.8107471 ,Left ,61,5429058334674 ,46,5876818799587 ,55,0582316976781
11.8331061 ,Left ,61,5371370310779 ,46,6099196011187 ,55,058136025407
11.8482735 ,Left ,61,5092523476723 ,46,6147349377223 ,55,0761291985683
11.8711087 ,Left ,61,4896326134897 ,46,6130926972876 ,55,0850711845177
11.8934962 ,Left ,61,4576254817313 ,46,6258665612384 ,55,0741417927658
11.9083288 ,Left ,61,4372965737384 ,46,6611718335255 ,55,0961671583984
11.9311487 ,Left ,61,4376907865583 ,46,7260862635607 ,55,0749216942133
11.9534514 ,Left ,61,3815537984648 ,46,7458694111822 ,55,0525762817429
11.9760375 ,Left ,61,3720540786017 ,46,7022245472743 ,55,0077200613391
11.9985116 ,Left ,61,5462688387998 ,46,7492539011821 ,54,8491262554282
12.0210887 ,Left ,61,5405306998441 ,46,8167601751024 ,54,6635262914287
12.0361291 ,Left ,61,4239452835579 ,46,8158118367378 ,54,564499001164
12.0583941 ,Left ,61,3883844797258 ,46,8257803116701 ,54,4959231803055
12.0881487 ,Left ,61,34880135487 ,46,8579835985091 ,54,4140395032847
12.1181181 ,Left ,61,3414185800888 ,46,8509065436199 ,54,3758881440792
12.1332022 ,Left ,61,4041830901915 ,46,7699970601863 ,54,3943323742301
12.1631735 ,Left ,61,387777426832 ,46,6893736949004 ,54,4316640895659
12.1859482 ,Left ,61,2775974044787 ,46,7997830853265 ,54,3692606226757
12.2008737 ,Left ,61,2234048772349 ,46,8155304062306 ,54,3415937485056
12.2156674 ,Left ,61,272272779662 ,46,8319978403702 ,54,2816203614888
12.2382923 ,Left ,61,2960197520085 ,46,8867574763274 ,54,171501987559
12.2606148 ,Left ,61,2838812236197 ,46,8972478013367 ,54,1000515855683
12.2831465 ,Left ,61,2006970813141 ,46,8065190142703 ,54,1496628167348
12.2980978 ,Left ,61,2511756649321 ,46,8176497007529 ,54,1807979822844
12.313493 ,Left ,61,1945487579785 ,47,0226193587797 ,54,1384037961881
12.3359927 ,Left ,61,0127518892514 ,47,2116162811953 ,54,1585231554631
12.358258 ,Left ,61,0515569460305 ,47,2871671955956 ,54,2127293243968
12.3805627 ,Left ,61,138178587237 ,47,3286923457832 ,54,2032624872713
12.395993 ,Left ,61,1233570172871 ,47,3574087554177 ,54,1719764948338
12.4181385 ,Left ,61,0863052463278 ,47,3332398765785 ,54,2026378353888
12.4404595 ,Left ,61,0749513826628 ,47,271138488879 ,54,2734522538536
12.4559339 ,Left ,60,9528645452317 ,47,195551361206 ,54,3526723832069
12.4780791 ,Left ,60,9838197989794 ,47,2219445009259 ,54,329109527425
12.5004907 ,Left ,61,0008496607324 ,47,3493966767969 ,54,2302453269282
12.5158842 ,Left ,60,995387555337 ,47,4500471941083 ,54,1462001784914
12.5380982 ,Left ,61,1282353270434 ,47,4991013704654 ,54,0750719307031
12.5606187 ,Left ,61,2435147500066 ,47,5252906081915 ,53,9631340677117
12.5762576 ,Left ,61,2510153246812 ,47,5609425745678 ,53,8436076618287
12.5989714 ,Left ,61,2367127477049 ,47,6083513623722 ,53,7123048591428
12.6213902 ,Left ,61,2721627142943 ,47,6540704257515 ,53,5830017990411
12.6362885 ,Left ,61,3030289852309 ,47,6802608097477 ,53,4634349766453
12.6586722 ,Left ,61,3233872164162 ,47,6833278598816 ,53,3654184916963
12.6812203 ,Left ,61,2893916027374 ,47,662261845525 ,53,2730554204047
12.6962764 ,Left ,61,2033537026598 ,47,6447998551048 ,53,1882792504566
12.7184262 ,Left ,61,1489004105029 ,47,6206289673082 ,53,1376131300592
12.7409417 ,Left ,61,1956788938753 ,47,5775079380005 ,53,1538866580798
12.7562424 ,Left ,61,1248251384196 ,47,4672711050228 ,53,2509593993663
12.7785257 ,Left ,61,1925009313179 ,47,3820500112264 ,53,3326696920272
12.8011726 ,Left ,61,3332838600838 ,47,4205003027722 ,53,340450824185
12.8162719 ,Left ,61,2904543222268 ,47,426925584458 ,53,3718232863284
12.8386095 ,Left ,61,4117431767904 ,47,309236208417 ,53,4181363563554
12.861004 ,Left ,61,5399507382661 ,47,1370799254239 ,53,4116373157166
12.8759344 ,Left ,61,4866044939957 ,47,0170541330676 ,53,4227888506686
12.8986273 ,Left ,61,3765815119861 ,46,9907545476395 ,53,4780777191888
12.921092 ,Left ,61,3709235575178 ,47,0019024932624 ,53,5602890611491
12.9361612 ,Left ,61,3735792900073 ,46,9511546249702 ,53,6700010782054
12.958577 ,Left ,61,4834388356041 ,46,8931968860127 ,53,7335272182396
12.9812177 ,Left ,61,5893014359624 ,46,9737898229621 ,53,6945452373925
12.9959875 ,Left ,61,5132179244256 ,47,1129617164017 ,53,6674995731277
13.0260422 ,Left ,61,565089175947 ,47,1322333858918 ,53,7272501554376
13.0485717 ,Left ,61,7642278810348 ,47,0941097402988 ,53,7841674956207
13.063725 ,Left ,61,8301565216175 ,47,0661691385863 ,53,8127498700873
13.0787309 ,Left ,61,8009855659008 ,47,0462097965126 ,53,8638821512321
13.1012232 ,Left ,61,7889724650368 ,46,9986445688179 ,53,9352121792565
13.1163039 ,Left ,61,8133055345384 ,46,9677361021745 ,53,9923733374685
13.1385889 ,Left ,61,8327415476857 ,46,9139325668551 ,54,0557313992466
13.1609512 ,Left ,61,7941622796489 ,46,8685839753546 ,54,1170550394339
13.1760866 ,Left ,61,8124319632238 ,46,8518631680273 ,54,145937464692
13.1986894 ,Left ,61,7954237988817 ,46,8544212049119 ,54,1519968909452
13.2212104 ,Left ,61,7855215020223 ,46,8670224962069 ,54,1614689318628
13.2362146 ,Left ,61,8155080972292 ,46,8586009364651 ,54,1910493911806
13.2581273 ,Left ,61,8104282481349 ,46,8456354693176 ,54,2201672111157
13.2807175 ,Left ,61,796169037125 ,46,8459796848033 ,54,2462762850299
13.2959298 ,Left ,61,7834722102848 ,46,8618342338322 ,54,2805488191454
13.325759 ,Left ,61,7946738330252 ,46,8810565765896 ,54,3172681989944
13.3560177 ,Left ,61,7910195397377 ,46,8883735723389 ,54,3581764833167
13.3708012 ,Left ,61,8250372050046 ,46,8846245521356 ,54,3999661193582
13.3858348 ,Left ,61,8193414912208 ,46,8628878265407 ,54,4412377955263
13.4158157 ,Left ,61,8275334488925 ,46,8273907514216 ,54,4995312426546
13.4383456 ,Left ,61,8380135400957 ,46,8162546703166 ,54,5224612681306
13.4610449 ,Left ,61,8415073199309 ,46,7911263157567 ,54,5364761644625
13.4758694 ,Left ,61,848831203037 ,46,7611141835081 ,54,539681529168
13.4984662 ,Left ,61,8422606669206 ,46,7433694575146 ,54,5393574756323
13.5208033 ,Left ,61,8416126177049 ,46,7346561007223 ,54,5405696252215
13.5361413 ,Left ,61,8386354488736 ,46,7262765640943 ,54,5418658147735
13.5584205 ,Left ,61,8460973110231 ,46,7145837668676 ,54,5414479166252
13.5811061 ,Left ,61,8130263239599 ,46,6835638813764 ,54,5757634423031
13.6035317 ,Left ,61,7797001477062 ,46,7072263445375 ,54,6162077089468
13.6185426 ,Left ,61,7483881382151 ,46,7006854103449 ,54,6366591219196
13.6410558 ,Left ,61,8262423287641 ,46,7977770668662 ,54,6524687958286
13.6633835 ,Left ,61,9135230939753 ,46,909294669852 ,54,6910186732998
13.6785654 ,Left ,61,9747243231138 ,46,9964170158761 ,54,7499122863278
13.7007851 ,Left ,61,9835161573305 ,47,0391258035173 ,54,8170496634315
13.7235342 ,Left ,61,9583010504235 ,47,0391172365364 ,54,8756353302777
13.7385696 ,Left ,61,9051114485756 ,47,0201488940003 ,54,9211330729388
13.7608688 ,Left ,61,8351530769518 ,47,0146518189374 ,54,9577364244677
13.7833518 ,Left ,61,8444057407484 ,47,0636427669283 ,54,9887404648851
13.7984635 ,Left ,61,7925607167278 ,47,1064130145284 ,55,0382624673618
13.8210267 ,Left ,61,7107617562184 ,47,0730790057417 ,55,0774075349761
13.8434897 ,Left ,61,8463511786893 ,47,0970877521275 ,54,9885003639297
13.8584928 ,Left ,61,8279281016698 ,47,1636408033477 ,54,7945659195679
13.8884425 ,Left ,61,7086811159671 ,47,1843032845315 ,54,6236141280202
13.9107897 ,Left ,61,7307512979479 ,47,1563047091202 ,54,4932077619705
13.925828 ,Left ,61,750401114406 ,47,1522337111198 ,54,3575307161964
13.940938 ,Left ,61,6887779696939 ,47,1557641535016 ,54,2420815504126
13.9630655 ,Left ,61,7089895902964 ,47,120142802144 ,54,1857883512852
13.9782417 ,Left ,61,6842572645205 ,47,0075221987131 ,54,2103323349504
14.0082443 ,Left ,61,6873443375521 ,46,8977797453397 ,54,2794223491805
14.0381191 ,Left ,61,7454226095229 ,46,9459741748963 ,54,2758366938906
14.0531108 ,Left ,61,6736045401747 ,47,0243400724514 ,54,2575376176611
14.0680904 ,Left ,61,6888177055572 ,47,0230342738821 ,54,2436349336213
14.0981491 ,Left ,61,737386379582 ,47,0700256194488 ,54,0935916283921
14.1205775 ,Left ,61,7374184499182 ,47,0791573506253 ,54,0653018179411
14.14308 ,Left ,61,6545602037899 ,47,001442929367 ,54,1478789682391
14.1581046 ,Left ,61,6917610477948 ,47,0313801742097 ,54,189287897465
14.1882871 ,Left ,61,6085044934248 ,47,2300275783853 ,54,1564961380282
14.2108298 ,Left ,61,446364847055 ,47,3875814355412 ,54,1804236718734
14.2334494 ,Left ,61,4968752210737 ,47,4272158577715 ,54,2461337137811
14.2485197 ,Left ,61,570883127945 ,47,4346807278742 ,54,2656168369491
14.2710785 ,Left ,61,5123080193938 ,47,4246886728073 ,54,2783869491896
14.301038 ,Left ,61,4181080668276 ,47,3755760641055 ,54,3539542284622
14.3161413 ,Left ,61,3694686349224 ,47,3071361987204 ,54,4723597082969
14.3685409 ,Left ,61,2884272528413 ,47,4850193988989 ,54,3595352190875
14.4060619 ,Left ,61,4409008953511 ,47,6953370733534 ,54,1437725242136
14.4209408 ,Left ,61,5057806521907 ,47,7564083251273 ,53,9752574684424
14.4435139 ,Left ,61,4822726494483 ,47,8194386661896 ,53,8098661040331
14.4657799 ,Left ,61,4621137579982 ,47,8649099578795 ,53,6714663582406
14.4810722 ,Left ,61,4582639709752 ,47,8547237870448 ,53,5525097358699
14.5034385 ,Left ,61,4459160710551 ,47,8294903931962 ,53,4424870272584
14.525905 ,Left ,61,40633569494 ,47,7969074604315 ,53,3392882547393
14.5409427 ,Left ,61,3306256178812 ,47,7507405333441 ,53,2452831215212
14.5630705 ,Left ,61,2718442864282 ,47,6961761468512 ,53,1832976079083
14.5855292 ,Left ,61,2868414646512 ,47,6585535891715 ,53,1565313308027
14.600768 ,Left ,61,3161863486437 ,47,6324818860486 ,53,1605806394918
14.6231871 ,Left ,61,2415817654207 ,47,5159238122035 ,53,2468529874708
14.6459026 ,Left ,61,4034056057179 ,47,4303384039478 ,53,3390481035837
14.6607657 ,Left ,61,5029208876648 ,47,489048218807 ,53,3251692992387
14.6840726 ,Left ,61,4791521744772 ,47,4940106259024 ,53,3531961391373
14.7064296 ,Left ,61,626947801073 ,47,3524284447295 ,53,4397420759757
14.7214143 ,Left ,61,7686549156279 ,47,1754838574823 ,53,4551801571948
14.7439199 ,Left ,61,7169424311168 ,47,0658518987347 ,53,4438145872523
14.7663699 ,Left ,61,6190148837198 ,47,0429456252467 ,53,4632931763706
14.7814611 ,Left ,61,6458673282698 ,47,0523764376144 ,53,5308933084204
14.8034423 ,Left ,61,6629136386007 ,46,989602762916 ,53,6417346438729
14.8260193 ,Left ,61,7566696716346 ,46,9092410118726 ,53,7081575580856
14.8409436 ,Left ,61,8505522787496 ,46,9645036464649 ,53,6652702686284
14.8633247 ,Left ,61,7444878718533 ,47,1054420843566 ,53,6305716312714
14.8859125 ,Left ,61,7454033276171 ,47,1644630094138 ,53,6719493683677
14.9160408 ,Left ,61,9803087227187 ,47,1300017250714 ,53,7477372809591
14.9395692 ,Left ,61,9152994263337 ,47,1323688626822 ,53,7876255264433
14.9607663 ,Left ,61,8474116789828 ,47,1150967674745 ,53,8517760515138
14.9760281 ,Left ,61,864833804175 ,47,1054518503793 ,53,9215827325611
14.9986246 ,Left ,61,9526276514236 ,47,0852362294342 ,53,9632117995052
15.0283712 ,Left ,61,8625733772794 ,47,0337989044078 ,54,0172935870252
15.0435923 ,Left ,61,6902793470344 ,46,9682370333146 ,54,089497296811
15.0731697 ,Left ,61,7642178910132 ,46,9554653575998 ,54,1064880699935
15.0882983 ,Left ,61,8800042833222 ,46,9481841231568 ,54,1133194711983
15.1033957 ,Left ,61,7365723426317 ,46,9066584982623 ,54,1933868316781
15.1407701 ,Left ,61,6562555597198 ,46,8207040412479 ,54,2861885912351
15.1559858 ,Left ,61,6678172393011 ,46,8198881102156 ,54,3152354744244
15.1783226 ,Left ,61,6833937808199 ,46,8247469126846 ,54,3435469250688
15.2010356 ,Left ,61,7230454052516 ,46,8277360141916 ,54,3661986624769
15.2160815 ,Left ,61,7448474004139 ,46,8192194130907 ,54,3832887994041
15.2382394 ,Left ,61,7398733760037 ,46,7993491139362 ,54,4037809211794
15.2608318 ,Left ,61,862288476374 ,46,8674498081561 ,54,3898421673005
15.2757239 ,Left ,61,7970435272007 ,46,848146901804 ,54,419333114843
15.2981174 ,Left ,61,8436540692276 ,46,871614226658 ,54,4347747842286
15.3206396 ,Left ,61,8437581261845 ,46,8396211326626 ,54,4567822548343
15.3355656 ,Left ,61,8407614194316 ,46,8219931321072 ,54,4755703501185
15.3581085 ,Left ,61,8446703383557 ,46,8023011851666 ,54,49154988928
15.3806316 ,Left ,61,8260760246545 ,46,7744088804402 ,54,5117627580354
15.3956434 ,Left ,61,8192617502291 ,46,7617215094578 ,54,5304721449982
15.4179788 ,Left ,61,8098709928035 ,46,7632855697067 ,54,5571837721121
15.4414824 ,Left ,61,7931388830639 ,46,7772916875425 ,54,5823682502985
15.4639777 ,Left ,61,7807797968805 ,46,7936118966199 ,54,6103022968372
15.4785829 ,Left ,61,7772549092121 ,46,8159456550171 ,54,6508477994137
15.5013043 ,Left ,61,7662205605158 ,46,8532960271251 ,54,6991883792902
15.5307993 ,Left ,61,7370340019048 ,46,8974060190859 ,54,7552656447463
15.5455382 ,Left ,61,6891188488986 ,46,9411643869163 ,54,8054354468361
15.5688991 ,Left ,61,6497204428047 ,46,9793818450692 ,54,8445922654387
15.5837225 ,Left ,61,6227537776149 ,46,9915738263097 ,54,8693086923369
15.5984904 ,Left ,61,581656230765 ,46,9916353986512 ,54,8834239966053
15.6210388 ,Left ,61,5601738638461 ,47,0020108954096 ,54,9262917463115
15.643604 ,Left ,61,4454879681533 ,47,0339552916812 ,54,9758935311168
15.6589537 ,Left ,61,3372426471737 ,47,0227465610095 ,54,9989264315043
15.6813733 ,Left ,61,4144689063423 ,47,052161572457 ,54,9494695649155
15.7039106 ,Left ,61,4385984231013 ,47,1963668886253 ,54,81459830323
15.7264358 ,Left ,61,3768568754031 ,47,291050190194 ,54,7069084991278
15.7560976 ,Left ,61,4235168441909 ,47,285942054832 ,54,6170198224046
15.7860196 ,Left ,61,4322463805548 ,47,2766753635271 ,54,5011696395827
15.8012755 ,Left ,61,4081847851006 ,47,2864397175835 ,54,3725595071716
15.8387296 ,Left ,61,3904622284683 ,47,1311719830551 ,54,2998762501316
15.8537654 ,Left ,61,4121057242081 ,47,002773690058 ,54,3791804185313
15.8837692 ,Left ,61,3846194407427 ,47,1361905716108 ,54,3547349007525
15.9135531 ,Left ,61,3938620669299 ,47,119829377397 ,54,3441895168039
15.9437335 ,Left ,61,4751616071194 ,47,1132270635516 ,54,298315898901
15.9586399 ,Left ,61,4842304674019 ,47,14500066969 ,54,2125937968367
15.9805455 ,Left ,61,4848394169786 ,47,1376583199435 ,54,1716528576955
16.0037762 ,Left ,61,4296120736558 ,47,0249093315279 ,54,2107551354874
16.0263731 ,Left ,61,3770747585187 ,47,1598158299878 ,54,182143576278
16.0486578 ,Left ,61,2353293199171 ,47,2919022806877 ,54,2034148332458
16.0635742 ,Left ,61,2782361376614 ,47,3162763153811 ,54,2527868771068
16.0861573 ,Left ,61,3937449755127 ,47,3100540890655 ,54,2465137196564
16.1083385 ,Left ,61,3936924501904 ,47,3033139079879 ,54,2314748730972
16.1310632 ,Left ,61,3238756334563 ,47,2557898165233 ,54,2821939415517
16.1459984 ,Left ,61,2921618684792 ,47,1855990622437 ,54,3762890187666
16.168208 ,Left ,61,1644520628599 ,47,1057981214833 ,54,4516492945589
16.191471 ,Left ,61,202635366585 ,47,1275065124661 ,54,398851450804
16.2065194 ,Left ,61,1859649414042 ,47,2649590824962 ,54,2800454269689
16.2286637 ,Left ,61,1506222939414 ,47,4019194201243 ,54,1804847946556
16.2509046 ,Left ,61,2920623069716 ,47,4834780948752 ,54,0979700926048
16.2661217 ,Left ,61,415325554969 ,47,5551430131353 ,53,9584552386001
16.2885784 ,Left ,61,3905119223063 ,47,6251720554503 ,53,8123290237631
16.3109365 ,Left ,61,3659974160478 ,47,6882171514531 ,53,688892561272
16.3260783 ,Left ,61,3843039258455 ,47,7207520861046 ,53,5910762113581
16.3485462 ,Left ,61,3908565881502 ,47,7408563629638 ,53,4975005116005
16.378403 ,Left ,61,3490930483149 ,47,7565407881568 ,53,3997132131575
16.3934707 ,Left ,61,2854938626582 ,47,7397882403814 ,53,3117596017443
16.4158713 ,Left ,61,2141240208491 ,47,70120242407 ,53,2396523613343
16.4306028 ,Left ,61,1619130727422 ,47,6805731396347 ,53,1900873380199
16.4456598 ,Left ,61,172692231055 ,47,6742165816899 ,53,1643398440842
16.4680444 ,Left ,61,177143859781 ,47,626795653117 ,53,1785148288895
16.4906328 ,Left ,61,1303912171773 ,47,5050364247848 ,53,2872795764204
16.5058552 ,Left ,61,3129938256902 ,47,4774745150891 ,53,3349564665251
16.5283539 ,Left ,61,3435850997376 ,47,5410863507324 ,53,3213172013193
16.5507366 ,Left ,61,3620163162771 ,47,5093048950741 ,53,3653576524853
16.5660592 ,Left ,61,4856933468243 ,47,3676452211321 ,53,4132543181182
16.5884968 ,Left ,61,5097237941337 ,47,2202446665031 ,53,4292937117971
16.6108035 ,Left ,61,4560049206101 ,47,1177424219733 ,53,4656172345632
16.6260141 ,Left ,61,4439815258459 ,47,059249664543 ,53,5353489591739
16.6483504 ,Left ,61,5232866643474 ,47,0257221210967 ,53,6243666057658
16.6708214 ,Left ,61,4769026494838 ,46,974385993261 ,53,7047026756168
16.686528 ,Left ,61,6220696189109 ,46,9629083854039 ,53,7417254400671
16.7087074 ,Left ,61,7106037706097 ,47,06674511287 ,53,7043856051625
16.7310412 ,Left ,61,6496572934249 ,47,1638404516846 ,53,6887529550804
16.745859 ,Left ,61,7428461644947 ,47,1681180228511 ,53,7325337350192
16.7683323 ,Left ,61,8738619421425 ,47,1595995444517 ,53,7723602831778
16.7906934 ,Left ,61,861278559325 ,47,1594966429576 ,53,8194836079576
16.8056466 ,Left ,61,8102573780912 ,47,1658960683517 ,53,8811003599847
16.8281236 ,Left ,61,8235711421659 ,47,1546548352623 ,53,9462232802948
16.8508363 ,Left ,61,9129401849494 ,47,1604387775668 ,54,0063584003158
16.8657097 ,Left ,61,9199563382138 ,47,1403106419623 ,54,0536377469087
16.8881253 ,Left ,61,9064109286364 ,47,1038186184755 ,54,0976140178147
16.9110284 ,Left ,61,9155760657268 ,47,0622349191611 ,54,1342580725223
16.9331299 ,Left ,61,9024527726398 ,47,0239817643075 ,54,1562545258888
16.9557912 ,Left ,61,897729085434 ,47,0065162201364 ,54,186118386763
16.9784214 ,Left ,61,8778895079129 ,47,0008648192607 ,54,2291381443866
16.9935359 ,Left ,61,8749717458183 ,46,9921889440282 ,54,2834811212987
17.0161485 ,Left ,61,8677972915218 ,46,9640107842613 ,54,3302932357914
17.0305913 ,Left ,61,8845471033704 ,46,9149714590238 ,54,3770479089535
17.0456519 ,Left ,61,8533277236321 ,46,8406424833012 ,54,4288728197031
17.0681364 ,Left ,61,904253158272 ,46,8808173277178 ,54,4736940831881
17.0908561 ,Left ,61,8366345307304 ,46,780914715863 ,54,5220564948817
17.1058585 ,Left ,61,7528310901241 ,46,6607986629085 ,54,5448224133329
17.1281988 ,Left ,61,7121411388479 ,46,6038877326747 ,54,5531114072519
17.1506284 ,Left ,61,6943891156729 ,46,5957742119801 ,54,555432846369
17.1659367 ,Left ,61,7129087377235 ,46,6056381611153 ,54,5431285194091
17.1883018 ,Left ,61,7596909844623 ,46,6126330283964 ,54,5200082866253
17.2110413 ,Left ,61,8270842987632 ,46,617469780671 ,54,50344789332
17.2259897 ,Left ,61,8632585522281 ,46,6343850039526 ,54,4973595823281
17.2481383 ,Left ,61,87193564734 ,46,6570029584101 ,54,4947236687701
17.2707464 ,Left ,61,8595623480695 ,46,6587350369713 ,54,4962086019906
17.2788328 ,Left ,61,8617021948206 ,46,6645890829016 ,54,5068002286653
17.3016372 ,Left ,61,8215656339949 ,46,6855069591872 ,54,5355944427083
17.3237113 ,Left ,61,7872313437738 ,46,7689475467089 ,54,589866739964
17.3387097 ,Left ,61,7793819172532 ,46,8131102557923 ,54,6410946526125
17.3611668 ,Left ,61,7652692760724 ,46,841714379278 ,54,697182758867
17.3834926 ,Left ,61,7472017150028 ,46,8706083874913 ,54,7492155991716
17.3985331 ,Left ,61,6802864515173 ,46,9208577397293 ,54,8023278468092
17.4209552 ,Left ,61,6493648669486 ,46,9761281093921 ,54,8368474712842
17.4435731 ,Left ,61,6396724835335 ,47,0197851369696 ,54,8429287614046
17.458495 ,Left ,61,5837035940175 ,47,0235553889028 ,54,8651731554993
17.4809271 ,Left ,61,475287212447 ,46,9887916747489 ,54,8777273108443
17.5030931 ,Left ,61,5338735607622 ,46,9849899103579 ,54,7787512358057
17.5180917 ,Left ,61,5306342613428 ,47,0593537708308 ,54,5791583911199
17.5408957 ,Left ,61,445334205381 ,47,1082542916644 ,54,4056780572849
17.57083 ,Left ,61,4450304310808 ,47,1022070588196 ,54,2914614156485
17.6084953 ,Left ,61,436878154285 ,47,0853656293188 ,54,089106850606
17.6235781 ,Left ,61,4438271420687 ,47,0805278946937 ,54,0174013353506
17.6683062 ,Left ,61,4482099786901 ,46,9202074083718 ,54,051276805302
17.721147 ,Left ,61,5174397475606 ,47,1959724349245 ,54,0777018530552
17.7437269 ,Left ,61,5637950859307 ,47,1982306136642 ,54,0366498851769
17.7811095 ,Left ,61,4531915522215 ,47,1940065239885 ,53,8983452853405
17.8034948 ,Left ,61,3643490485658 ,47,0831537448389 ,53,9564252327888
17.8412092 ,Left ,61,3565302101169 ,47,270016873145 ,53,9573880276663
17.8636122 ,Left ,61,209958615164 ,47,3863176944207 ,54,0026530845378
17.9085966 ,Left ,61,3679428115483 ,47,3570325449409 ,54,0476896964955
17.9309777 ,Left ,61,3422729704187 ,47,3317805823736 ,54,0478361568478
17.9612861 ,Left ,61,2412142277466 ,47,1421875990862 ,54,2656180042194
17.9835706 ,Left ,61,1585823565351 ,47,079076545249 ,54,3201911114621
18.0062056 ,Left ,61,1950620610702 ,47,1722675620969 ,54,2340321461438
18.0212011 ,Left ,61,1601874046437 ,47,3331423424566 ,54,1261846931427
18.0435113 ,Left ,61,2004416817143 ,47,435627161676 ,54,0586096659141
18.0660718 ,Left ,61,3777436161321 ,47,5004359358251 ,53,9688429928301
18.0810911 ,Left ,61,4301231387502 ,47,5638920255606 ,53,8368892627902
18.1035682 ,Left ,61,3759694628811 ,47,6177980423427 ,53,711220933823
18.1261604 ,Left ,61,3424938236036 ,47,6745143064781 ,53,5964854106037
18.1410786 ,Left ,61,3382990655645 ,47,7272706645305 ,53,4754236158839
18.1635852 ,Left ,61,3470328996445 ,47,7632096086403 ,53,3498449093073
18.1857887 ,Left ,61,3137435107162 ,47,7487976658351 ,53,2451364525438
18.2009326 ,Left ,61,2776325243384 ,47,7288897369034 ,53,155381610131
18.2231334 ,Left ,61,233466363308 ,47,7163934533843 ,53,081354524185
18.245793 ,Left ,61,2276756898355 ,47,6966106602411 ,53,0304930360615
18.261018 ,Left ,61,2108013808506 ,47,6709825472784 ,52,9820235549382
18.283574 ,Left ,61,2195357710732 ,47,675675473264 ,52,9333476992249
18.3210181 ,Left ,61,1703796569279 ,47,5852189893258 ,53,013338357568
18.3435422 ,Left ,61,340627355972 ,47,525388670794 ,53,0996836166006
18.3658817 ,Left ,61,4605381422793 ,47,5591893257988 ,53,0860448986292
18.380848 ,Left ,61,3916526119187 ,47,5394353720442 ,53,1005212565248
18.4032926 ,Left ,61,4830591465812 ,47,4248898023156 ,53,1405532473185
18.4257357 ,Left ,61,5946812219323 ,47,2576654366198 ,53,1570859420464
18.4405732 ,Left ,61,5787392655059 ,47,1025382713852 ,53,1906424865172
18.4633641 ,Left ,61,4901420995162 ,46,9972280297399 ,53,2238828375491
18.4856673 ,Left ,61,4509398890542 ,46,9675468634139 ,53,2823729488635
18.5006203 ,Left ,61,5236211230732 ,46,958621353175 ,53,403500109621
18.5230453 ,Left ,61,4840275679539 ,46,9076795974293 ,53,5175572760574
18.5456424 ,Left ,61,6367927260923 ,46,9052945149291 ,53,5355869034392
18.5681373 ,Left ,61,6595732676637 ,47,0258418364323 ,53,4760610663275
18.5908329 ,Left ,61,5630827623333 ,47,1379208198836 ,53,4658453101165
18.6132175 ,Left ,61,6394318083848 ,47,1444794473675 ,53,5066662580229
18.6207558 ,Left ,61,7574149153585 ,47,1286856030306 ,53,524480002822
18.6436358 ,Left ,61,7491427531865 ,47,1091796175115 ,53,5452864060918
18.6663997 ,Left ,61,6873909072652 ,47,1019241948084 ,53,5812492117707
18.6813981 ,Left ,61,6822279105547 ,47,0487108673018 ,53,6438780012019
18.7040491 ,Left ,61,6996476908753 ,46,9903121869241 ,53,7055142751898
18.7414347 ,Left ,61,7100665213671 ,46,8639745372635 ,53,8037724022196
18.763836 ,Left ,61,7316562777685 ,46,8131826121377 ,53,8386813554593
18.8010707 ,Left ,61,8007115412163 ,46,7376393477102 ,53,8529004479853
18.8233455 ,Left ,61,819157692515 ,46,7112159136909 ,53,8696671061529
18.8608474 ,Left ,61,8180015018698 ,46,7188572775233 ,53,9295714183854
18.8832702 ,Left ,61,8171098041867 ,46,7597358167573 ,53,9749442699528
18.9213971 ,Left ,61,8764550690549 ,46,7649326538517 ,54,0738636923071
18.9440172 ,Left ,61,9243979618764 ,46,7617784157511 ,54,1187834655514
18.9808922 ,Left ,61,8976456012582 ,46,7920879037755 ,54,206384304573
19.0034633 ,Left ,61,8911378793459 ,46,7854421135817 ,54,2359752624241
19.041066 ,Left ,61,898921680599 ,46,753013140609 ,54,2765200623924
19.0634331 ,Left ,61,8963906782071 ,46,751114532126 ,54,2823536698202
19.1010785 ,Left ,61,84910585009 ,46,7061943873802 ,54,2889142577534
19.1235628 ,Left ,61,8281542436284 ,46,7130000536608 ,54,2968637495243
19.1534115 ,Left ,61,796452075675 ,46,7450822427732 ,54,3039154923335
19.1906628 ,Left ,61,7597885094118 ,46,7755498379584 ,54,3386636877169
19.2058473 ,Left ,61,7635270102156 ,46,8236773268171 ,54,358633957356
19.2435073 ,Left ,61,7057111103997 ,46,9175407778393 ,54,4388916147953
19.2658689 ,Left ,61,6832838354071 ,46,9404276004196 ,54,4760806207544
19.3034681 ,Left ,61,5787856689589 ,46,9424302815184 ,54,5340041092641
19.3260884 ,Left ,61,5400348450286 ,46,9271653939236 ,54,5640923388746
19.3634486 ,Left ,61,4087612070015 ,46,9414583023533 ,54,6533260995151
19.3935751 ,Left ,61,3906318456214 ,46,9495272159243 ,54,6462331756448
19.4384953 ,Left ,61,5158306380035 ,47,1015304021925 ,54,4128953872501
19.4536031 ,Left ,61,4616233543713 ,47,1606448192219 ,54,2845713161608
19.4910111 ,Left ,61,4782715918468 ,47,126164557348 ,54,0472914315237
19.5134516 ,Left ,61,4475632162765 ,47,1345532161393 ,53,9462060578968
19.5510757 ,Left ,61,4265670832282 ,47,0462003856873 ,53,9128591035136
19.5730356 ,Left ,61,4655755779587 ,46,9929907030058 ,53,9696460161934
19.6033209 ,Left ,61,3513323405564 ,47,207588037242 ,53,9368793617504
19.6265659 ,Left ,61,3671661056041 ,47,2010986316924 ,53,9529683030974
19.6638427 ,Left ,61,4079960500002 ,47,1796614821304 ,53,8886662591191
19.6865633 ,Left ,61,3564164447455 ,47,1403454722121 ,53,9249961244123
19.7238142 ,Left ,61,2950620659679 ,46,9970079533731 ,54,0086131146082
19.7460543 ,Left ,61,27248703903 ,47,12144494933 ,53,932574228316
19.7835222 ,Left ,61,1663831294847 ,47,2353681804619 ,54,0009550184519
19.8058381 ,Left ,61,2742425005141 ,47,2157485059641 ,54,0463824358899
19.8434385 ,Left ,61,2297085820183 ,47,2443306414828 ,54,0667510260113
19.8660152 ,Left ,61,1720312324612 ,47,2827583214956 ,54,072098977801
19.9035128 ,Left ,61,2205186827292 ,47,391361381498 ,54,0734300201962
19.9264077 ,Left ,61,2082722548686 ,47,3874691731166 ,54,1167075993172
19.9640198 ,Left ,61,2697127156392 ,47,3098024342453 ,54,1856482260763
19.9863871 ,Left ,61,194817782578 ,47,3253492675417 ,54,2044024054255
20.0240091 ,Left ,61,1293334867931 ,47,3865862137556 ,54,2811424551701
20.0465051 ,Left ,61,1778480431686 ,47,3583090574693 ,54,3072055022305
20.0835567 ,Left ,61,1489184556195 ,47,3504302832065 ,54,3242022019299
20.1060438 ,Left ,61,1083592133788 ,47,3651501367315 ,54,3308740497011
20.1436954 ,Left ,61,0809452237182 ,47,3472628138129 ,54,2792737529038
20.1663492 ,Left ,61,0477318246253 ,47,3404271778773 ,54,2507879850454
20.2040499 ,Left ,60,9881972667618 ,47,3818602118088 ,54,204191268247
20.225985 ,Left ,60,9035975106398 ,47,3250099738037 ,54,2378210886994
20.2560159 ,Left ,61,0046997841339 ,47,2420181203012 ,54,2261583980841
20.2861238 ,Left ,60,893379887232 ,47,3008512845713 ,54,1605596707513
20.3233176 ,Left ,60,9263477691357 ,47,3281715762045 ,54,0262255028405
20.3461011 ,Left ,61,029847487953 ,47,338659415953 ,53,9317272384828
20.3830869 ,Left ,61,003235990953 ,47,4486332739925 ,53,7910955422091
20.405865 ,Left ,60,9891593266521 ,47,5249995405457 ,53,6910945473045
20.4438452 ,Left ,60,9705367706834 ,47,6298762234116 ,53,4630741037656
20.4664505 ,Left ,60,989593373423 ,47,6674089596469 ,53,3649560320184
20.5040238 ,Left ,60,9609303815615 ,47,7115641313338 ,53,2146734350736
20.5264879 ,Left ,60,950011434561 ,47,7041400740109 ,53,147674273781
20.5636261 ,Left ,60,9222661819009 ,47,6763081888552 ,53,0056202050166
20.5866278 ,Left ,60,9725091081959 ,47,6260048418532 ,52,973520622469
20.6237505 ,Left ,61,1868169771384 ,47,435857581722 ,53,0737987279261
20.6462508 ,Left ,61,3150974910175 ,47,4556627947775 ,53,0502459198075
20.683496 ,Left ,61,4525059494464 ,47,2913378708744 ,53,1073005697842
20.7060048 ,Left ,61,5396754138848 ,47,1600764563668 ,53,1257606605517
20.7433237 ,Left ,61,4409449253611 ,47,0875293401841 ,53,2615999763925
20.7659592 ,Left ,61,5346887870754 ,47,097243902885 ,53,376103736657
20.7961001 ,Left ,61,5972527830361 ,47,0268825803222 ,53,4964763486448
20.8185636 ,Left ,61,6788603860966 ,47,088138574998 ,53,4329282428674
20.8410222 ,Left ,61,6209169976773 ,47,1895599994452 ,53,3872582626033
20.863617 ,Left ,61,6594562491946 ,47,2321890678512 ,53,4037209627433
20.8785739 ,Left ,61,7723138290715 ,47,2125953159062 ,53,4396131520308
20.9010891 ,Left ,61,7913842809624 ,47,1773970503694 ,53,4739858990479
20.923501 ,Left ,61,773961082282 ,47,1446966136686 ,53,5258779483363
20.9384976 ,Left ,61,7494215357108 ,47,1139443768653 ,53,591452463839
20.9608421 ,Left ,61,7557123531978 ,47,1227745610976 ,53,6515398922796
20.9835746 ,Left ,61,814087158367 ,47,145601306789 ,53,7038863484385
20.9980747 ,Left ,61,8179387312819 ,47,1677106727198 ,53,7522802790232
21.0205507 ,Left ,61,8507007181109 ,47,1596754553131 ,53,8178413753806
21.0432412 ,Left ,61,8357280145532 ,47,1189893935058 ,53,883393671075
21.0583577 ,Left ,61,8521534112298 ,47,0919681416999 ,53,9446183173539
21.0805792 ,Left ,61,8193103471926 ,47,0871450087178 ,54,0012579151635
21.0959004 ,Left ,61,7614848670811 ,47,1053280267756 ,54,05291158136
21.1260699 ,Left ,61,7528619676086 ,47,1005441041769 ,54,1111672146411
21.1563721 ,Left ,61,7971037485151 ,47,0742780165545 ,54,1587620722174
21.1711208 ,Left ,61,830012625934 ,47,0446148880006 ,54,2030951746784
21.2008215 ,Left ,61,8274887798393 ,47,0331054150675 ,54,2435963299774
21.2459734 ,Left ,61,7818572634136 ,46,969164255113 ,54,3124687639113
21.2605731 ,Left ,61,7844023341068 ,46,9380144845317 ,54,336945772812
21.2908161 ,Left ,61,7724009761096 ,46,8593509261054 ,54,3866463392603
21.305772 ,Left ,61,7602321072641 ,46,8122624232046 ,54,4099307204865
21.3211022 ,Left ,61,7535165636446 ,46,7754253926922 ,54,4261318793408
21.3435564 ,Left ,61,729539014403 ,46,7629475280963 ,54,4522401956773
21.3583479 ,Left ,61,7247352861157 ,46,7716017507453 ,54,4855651185972
21.3811006 ,Left ,61,719965289106 ,46,7875923626168 ,54,5211878741548
21.4035848 ,Left ,61,7115270290301 ,46,8180352958607 ,54,5545372918412
21.4185705 ,Left ,61,6905566008731 ,46,8367521118535 ,54,5856186844006
21.4410535 ,Left ,61,6635583451043 ,46,8534491315739 ,54,614320493191
21.4635105 ,Left ,61,6162526746735 ,46,8896269944622 ,54,6300215498255
21.4785779 ,Left ,61,6022068863271 ,46,9356348831414 ,54,6262758550288
21.5010763 ,Left ,61,6282008864477 ,46,9956215675496 ,54,6220200116633
21.5234429 ,Left ,61,581071867735 ,47,0065567781821 ,54,6530585659408
21.5384733 ,Left ,61,4889996889117 ,46,9658230437676 ,54,6715329634878
21.5614721 ,Left ,61,5467816745689 ,46,9749618725422 ,54,5727586951261
21.5914797 ,Left ,61,5239103416051 ,47,063291138891 ,54,3839356199179
21.6064609 ,Left ,61,4531886489614 ,47,1192282014622 ,54,2273875219098
21.6287419 ,Left ,61,4856702667451 ,47,1332938115977 ,54,0962548377938
21.6439093 ,Left ,61,5048695490196 ,47,1451548062878 ,53,9602712361365
21.6584129 ,Left ,61,4593251402351 ,47,1541752429948 ,53,8201950744028
21.6808876 ,Left ,61,4644484829526 ,47,1395164120944 ,53,7260688207456
21.7107247 ,Left ,61,4795795070564 ,47,0410099149128 ,53,7206986270671
21.740894 ,Left ,61,4407543659277 ,46,9205656833516 ,53,7881051103044
21.7709233 ,Left ,61,5016785806881 ,46,9655818703867 ,53,7824369532506
21.7860315 ,Left ,61,4306190097142 ,47,0828626174772 ,53,7616687117172
21.8086351 ,Left ,61,529180430922 ,47,0672122824559 ,53,7470486866983
21.8233115 ,Left ,61,5207068465255 ,47,0600858889754 ,53,6877517180495
21.8384418 ,Left ,61,4728013232467 ,47,0325721713457 ,53,6693236922615
21.8608188 ,Left ,61,4067180860782 ,46,9545612929133 ,53,7242133975293
21.8905829 ,Left ,61,4724465796112 ,46,9623401514853 ,53,7700412243968
21.906417 ,Left ,61,4830644512147 ,47,1344761988113 ,53,7697122551834
21.9289088 ,Left ,61,3763760069415 ,47,3030748667456 ,53,7916338307652
21.9439276 ,Left ,61,3817678651947 ,47,3713690919197 ,53,8186505673205
21.9663023 ,Left ,61,4252295326136 ,47,4314477908992 ,53,8137704146281
21.9809509 ,Left ,61,4234447446744 ,47,4838180339484 ,53,8139825118738
22.0106598 ,Left ,61,3833709362596 ,47,4560460690083 ,53,8640852407896
22.0408475 ,Left ,61,3559079146664 ,47,3653343188483 ,53,9267112974239
22.0557976 ,Left ,61,2272872712103 ,47,2601110391625 ,54,0094588008988
22.1086552 ,Left ,61,233556904793 ,47,5343123317169 ,53,8492169339104
22.1311409 ,Left ,61,3494102618303 ,47,6113308919517 ,53,8042350956655
22.1460517 ,Left ,61,506814863387 ,47,6512503410366 ,53,7216090854429
22.1610297 ,Left ,61,5252703378117 ,47,697794958092 ,53,5996316709177
22.1830957 ,Left ,61,4579782657639 ,47,7782477671452 ,53,4631426219474
22.2056358 ,Left ,61,4327434297163 ,47,8621937637707 ,53,3396511184065
22.2209219 ,Left ,61,4602830948062 ,47,928285464133 ,53,2230049603558
22.2432412 ,Left ,61,4618195558344 ,47,9423985878592 ,53,1254470057153
22.2660426 ,Left ,61,4310339031072 ,47,9216812067811 ,53,0473887810057
22.2811321 ,Left ,61,3578263841889 ,47,8910122771224 ,52,9755281275635
22.3036609 ,Left ,61,2684386756858 ,47,8628522371931 ,52,9012349037475
22.3260235 ,Left ,61,2145307131777 ,47,8343177897349 ,52,8384709833385
22.3411549 ,Left ,61,2429993330188 ,47,7816804314055 ,52,8203611007933
22.3633645 ,Left ,61,2277813679379 ,47,6804549673427 ,52,8844755879272
22.3861395 ,Left ,61,2516812252087 ,47,5383987113222 ,52,9951077929773
22.4010064 ,Left ,61,4124517563064 ,47,5457400781778 ,53,0225137610026
22.423553 ,Left ,61,3834447569976 ,47,6086137716034 ,53,0089991279523
22.44618 ,Left ,61,4633502414388 ,47,5509109050668 ,53,0577592637071
22.4611726 ,Left ,61,6376289651931 ,47,4256842237733 ,53,0710791345497
22.4834618 ,Left ,61,6599970111659 ,47,3317214115689 ,53,0473350951264
22.5061619 ,Left ,61,5924210187087 ,47,3113752657329 ,53,0681275935088
22.5211757 ,Left ,61,5662386467167 ,47,2809708150911 ,53,1337374466021
22.5436291 ,Left ,61,5757556554711 ,47,1843291834062 ,53,2717269151213
22.5661426 ,Left ,61,6420018522924 ,47,0666724981064 ,53,3781605376487
22.5883956 ,Left ,61,7666218417704 ,47,0859536546712 ,53,3643253220047
22.6036738 ,Left ,61,7004649817322 ,47,1976942878262 ,53,3275801371977
22.6260112 ,Left ,61,7024684401765 ,47,2308202790037 ,53,3757105236317
22.6410191 ,Left ,61,849184527077 ,47,2010384130501 ,53,4463990524285
22.6636707 ,Left ,61,9036135339619 ,47,1709300249779 ,53,5021807826319
22.6862303 ,Left ,61,8473082859468 ,47,1620775786249 ,53,5605848636838
22.7011391 ,Left ,61,8023153580359 ,47,1254871231341 ,53,6481309450394
22.723648 ,Left ,61,8025034631102 ,47,0775941751976 ,53,7420701973476
22.7535236 ,Left ,61,8560579484737 ,47,037077667082 ,53,8385625485535
22.7759865 ,Left ,61,8192267336256 ,46,9686671940321 ,53,9140041610991
22.7908013 ,Left ,61,8134434541618 ,46,9038799893786 ,53,9574904912153
22.8356106 ,Left ,61,7792198409628 ,46,8799011877394 ,54,0052197130134
22.8506192 ,Left ,61,7911824080435 ,46,9072019822858 ,54,0320535444018
22.8881367 ,Left ,61,8490898602472 ,46,9512895463969 ,54,060942147511
22.9106555 ,Left ,61,8631392304855 ,46,9804205116274 ,54,0926566514192
22.9481245 ,Left ,61,8130819082812 ,47,0301208238448 ,54,1729570943739
22.9704052 ,Left ,61,7966169744653 ,47,0307246772102 ,54,209891463439
23.0006791 ,Left ,61,8139096694353 ,47,0154213780195 ,54,2779415449541
23.023349 ,Left ,61,8124296015717 ,46,9932083754322 ,54,3077372268191
23.045737 ,Left ,61,8152326902295 ,46,9480940110998 ,54,3351662156205
23.0609886 ,Left ,61,7999681390455 ,46,8900634936151 ,54,3607938937256
23.0832205 ,Left ,61,801131465558 ,46,8473555642404 ,54,3829530076896
23.1056614 ,Left ,61,7930903516823 ,46,8169108095754 ,54,399522917789
23.1281717 ,Left ,61,785719811118 ,46,778678214929 ,54,4192063429301
23.1433277 ,Left ,61,7611007947842 ,46,7479973897427 ,54,4281231392918
23.1660276 ,Left ,61,7611552549203 ,46,7314958951521 ,54,4324359899711
23.187984 ,Left ,61,7639608532054 ,46,7391147590348 ,54,4439770440681
23.2031504 ,Left ,61,7534207468259 ,46,7500495035251 ,54,4634227658482
23.2259436 ,Left ,61,7513823417519 ,46,763817933811 ,54,4877101378643
23.2485758 ,Left ,61,7507067123549 ,46,7880195004211 ,54,5117408430269
23.2632433 ,Left ,61,7245389094128 ,46,8180360217988 ,54,5431487975438
23.2859008 ,Left ,61,7011495317054 ,46,8521032293598 ,54,5738179666809
23.3081393 ,Left ,61,6692348170239 ,46,8815866934514 ,54,5989216766585
23.3231217 ,Left ,61,6328236329238 ,46,8989253287995 ,54,5983516262632
23.345958 ,Left ,61,6211459604624 ,46,9013261907504 ,54,5872129836893
23.3684222 ,Left ,61,6195726904502 ,46,9422028109194 ,54,5747042419955
23.3834791 ,Left ,61,5333048347001 ,46,9587322275108 ,54,6100310669708
23.4058727 ,Left ,61,5230206866731 ,46,9407546189543 ,54,6016257760144
23.4360961 ,Left ,61,6682425588924 ,46,9853550263831 ,54,438196466767
23.4509064 ,Left ,61,6221786959583 ,47,0541546943647 ,54,2302778580534
23.4810875 ,Left ,61,5324058947755 ,47,0699384127004 ,54,0941066860922
23.5111106 ,Left ,61,5267982238108 ,47,0585714626441 ,53,8240970065366
23.5334586 ,Left ,61,5353709245405 ,47,0394467630192 ,53,7405603072889
23.5560878 ,Left ,61,6271114322569 ,46,9462512823628 ,53,7394564642976
23.5708103 ,Left ,61,5319638881113 ,46,8179793986012 ,53,8216881359922
23.5860299 ,Left ,61,5596130359487 ,46,8590060430014 ,53,8394565990767
23.6084165 ,Left ,61,5146687663553 ,47,0009694805436 ,53,837066875324
23.6231895 ,Left ,61,4879084933889 ,47,048942752522 ,53,8644208265371
23.6531493 ,Left ,61,5423766205764 ,47,0780213647703 ,53,8432304932023
23.6833415 ,Left ,61,5607410484078 ,47,1133821001751 ,53,7771540701824
23.7060402 ,Left ,61,5582217269838 ,47,0774839401626 ,53,7682504957554
23.7357735 ,Left ,61,4293660120475 ,46,9740550027466 ,53,8547216550909
23.7733421 ,Left ,61,2345272894712 ,47,2693737430972 ,53,8548785906707
23.8112446 ,Left ,61,3607055813808 ,47,287725253744 ,53,8437402266304
23.826064 ,Left ,61,3339397965799 ,47,2689409756577 ,53,8379654883354
23.8560148 ,Left ,61,295366955276 ,47,2226172253062 ,53,8983490991359
23.8787095 ,Left ,61,2385192422461 ,47,167004401943 ,53,9861892145903
23.8935078 ,Left ,61,1924687576451 ,47,1395337671184 ,54,0118397484598
23.9310166 ,Left ,61,1972541013584 ,47,4448288859705 ,53,8077594431138
23.9459596 ,Left ,61,2149655296254 ,47,5587144124604 ,53,7308499899133
23.968488 ,Left ,61,3716016741634 ,47,6291517440642 ,53,6061366981093
23.990979 ,Left ,61,4121564941608 ,47,702606073624 ,53,4534279368797
24.0061521 ,Left ,61,3648911618693 ,47,7928933737386 ,53,3203127022592
24.028551 ,Left ,61,353848161081 ,47,8482072423507 ,53,2111544467309
24.0507454 ,Left ,61,3625758595237 ,47,8498312966112 ,53,1212448952743
24.0659522 ,Left ,61,3469711041238 ,47,8247198906862 ,53,0330516994673
24.0883962 ,Left ,61,2908842175947 ,47,7776276085614 ,52,938445492206
24.1110387 ,Left ,61,1773310162876 ,47,7213772326627 ,52,8574714967943
24.1257067 ,Left ,61,0942382732397 ,47,6986261039107 ,52,8044571829773
24.1482594 ,Left ,61,1717410341421 ,47,6622854600013 ,52,7945177229309
24.1706818 ,Left ,61,166049314686 ,47,5117199653753 ,52,8660430763777
24.1856129 ,Left ,61,2894944760594 ,47,3832759453434 ,52,9580305819051
24.209017 ,Left ,61,4536524774278 ,47,4376998413786 ,52,9262599743133
24.2312762 ,Left ,61,4157720117217 ,47,4801347185703 ,52,9308221191202
24.246027 ,Left ,61,5192307797871 ,47,3781129486129 ,53,0058272787246
24.2685126 ,Left ,61,6639194044721 ,47,2228741765206 ,53,03544993833
24.2910792 ,Left ,61,626049222928 ,47,1194348222541 ,53,0343814839347
24.3062357 ,Left ,61,5102370906172 ,47,098079636229 ,53,0473937601408
24.3286734 ,Left ,61,5086179889767 ,47,0882264867912 ,53,1005049750016
24.3511533 ,Left ,61,5074149657278 ,47,0112453247429 ,53,2301160030868
24.3663328 ,Left ,61,5811311808542 ,46,9231388125459 ,53,3068362762252
24.3884835 ,Left ,61,6540974373024 ,46,9490490005969 ,53,2786195302256
24.4112753 ,Left ,61,5381620295897 ,47,0406743615453 ,53,2348686022007
24.4335438 ,Left ,61,5383861640606 ,47,0656798891054 ,53,2674635560576
24.4486281 ,Left ,61,6891020614921 ,47,0571085210105 ,53,3109099878208
24.4712931 ,Left ,61,7350619294889 ,47,0596652445032 ,53,3307913163701
24.493509 ,Left ,61,6703626058531 ,47,0712966808775 ,53,3722735639587
24.508698 ,Left ,61,6213890533002 ,47,0885084310035 ,53,4422513885104
24.5309798 ,Left ,61,6652909619722 ,47,121221456836 ,53,5030518283642
24.5534816 ,Left ,61,6661268877962 ,47,1188356929347 ,53,5674913262269
24.5685856 ,Left ,61,6633160802665 ,47,0865157481558 ,53,618902088393
24.5911853 ,Left ,61,6762197900312 ,47,0600086845247 ,53,654722549462
24.6061975 ,Left ,61,6787262354214 ,47,0590912731565 ,53,6880435803801
24.628028 ,Left ,61,6455045920813 ,47,0597653694154 ,53,7259474362529
24.6505598 ,Left ,61,6443202540059 ,47,0447286645246 ,53,7646374085329
24.6658342 ,Left ,61,6764827307973 ,47,0165684617636 ,53,7970373743421
24.6882509 ,Left ,61,6828503473393 ,47,0096753433061 ,53,8279741459826
24.7107075 ,Left ,61,6675149718524 ,47,0240161590592 ,53,8614688674435
24.7332832 ,Left ,61,6745828183418 ,47,0305636983386 ,53,9059654524688
24.7560338 ,Left ,61,6771989619088 ,47,0098747459786 ,53,9467626501736
24.7858841 ,Left ,61,7088117031523 ,46,9650927584599 ,54,0048693793897
24.8083925 ,Left ,61,6898303630935 ,46,9550736578486 ,54,0273861266687
24.8384833 ,Left ,61,6742350179619 ,46,9329427825705 ,54,0474358727961
24.8606687 ,Left ,61,6824708757736 ,46,895008908321 ,54,0601520671597
24.8833612 ,Left ,61,6842378733322 ,46,8669898491897 ,54,0668038394636
24.8983004 ,Left ,61,6708818539394 ,46,8610095366011 ,54,0716836306789
24.9131847 ,Left ,61,6436744568847 ,46,8502419791707 ,54,0837362175703
24.9282774 ,Left ,61,6391416296158 ,46,8351373875725 ,54,0971878398294
24.9510064 ,Left ,61,6492327423126 ,46,8210867177276 ,54,1232273985681
24.9658644 ,Left ,61,658905094226 ,46,8315847327562 ,54,1671117002728
24.9882851 ,Left ,61,6514287278383 ,46,8498289667958 ,54,2251467392059
25.010749 ,Left ,61,6418971938331 ,46,8705773137633 ,54,2884112988851
25.0331686 ,Left ,61,6406344180263 ,46,9063366602149 ,54,3528174606783
25.0483921 ,Left ,61,623242172651 ,46,9509221054287 ,54,4123920121006
25.0704903 ,Left ,61,5953787905528 ,46,9863968780647 ,54,4629102649287
25.0931138 ,Left ,61,5535981356781 ,46,9913095476439 ,54,5065692414458
25.1089484 ,Left ,61,4816276045684 ,47,0012246748632 ,54,5300603261177
25.1311781 ,Left ,61,4437595850294 ,47,0540305553967 ,54,5570512403746
25.153694 ,Left ,61,4203925751826 ,47,1175852232097 ,54,5768199454826
25.1690464 ,Left ,61,3177103638182 ,47,0974845794837 ,54,6115759135533
25.1908597 ,Left ,61,3533577338296 ,47,0496258571202 ,54,5887087232473
25.2209842 ,Left ,61,4423754975969 ,47,1289404156427 ,54,4237685098699
25.2358319 ,Left ,61,3310946690127 ,47,2469265901756 ,54,2366392481245
25.2582963 ,Left ,61,2826094407843 ,47,2839820605476 ,54,1106568488282
25.2810182 ,Left ,61,3381844541144 ,47,274407944734 ,53,9534129847464
25.2959558 ,Left ,61,3478184854324 ,47,283755122554 ,53,788072174765
25.3259444 ,Left ,61,3342790649017 ,47,2897479757499 ,53,6623197554649
25.3632931 ,Left ,61,263575818885 ,47,1149320895146 ,53,7056087505657
25.3780568 ,Left ,61,3317904975571 ,47,0733351885196 ,53,7440533560799
25.4159799 ,Left ,61,2413595509838 ,47,1520558476919 ,53,6987461525737
25.4307596 ,Left ,61,3161346067127 ,47,1241887732006 ,53,6769778778166
25.4533521 ,Left ,61,368521567258 ,47,1437283997232 ,53,6160879068018
25.4685011 ,Left ,61,3848203309112 ,47,1507734369138 ,53,5968983363308
25.4909682 ,Left ,61,3195970114695 ,47,10897851822 ,53,6606236997623
25.513179 ,Left ,61,3835515199609 ,47,1556357017679 ,53,6830598294926
25.528225 ,Left ,61,3254541443437 ,47,3086581901888 ,53,6654857830952
25.5507056 ,Left ,61,1990765980214 ,47,4086365004869 ,53,6815558974752
25.5733284 ,Left ,61,2070331237786 ,47,4534114039639 ,53,6868815618495
25.5957464 ,Left ,61,2346165294531 ,47,4773655980983 ,53,673396146402
25.6185454 ,Left ,61,2133619907481 ,47,4616156889223 ,53,6956890820639
25.6482273 ,Left ,61,1984771303181 ,47,3830222014661 ,53,7500963692406
25.6709676 ,Left ,61,1337622616963 ,47,3055365892033 ,53,8213158537049
25.6858453 ,Left ,60,979043714197 ,47,2251721355446 ,53,8940779243284
25.7160238 ,Left ,61,0816019015531 ,47,3218879567484 ,53,8042049856114
25.731112 ,Left ,61,1068366525143 ,47,3892088653836 ,53,7475060371246
25.7534698 ,Left ,61,2263544361746 ,47,4005698189264 ,53,7088803203201
25.7760753 ,Left ,61,2944856660418 ,47,4221828094411 ,53,6366433820658
25.7911167 ,Left ,61,2663100898979 ,47,4707928914526 ,53,5461631191215
25.8133558 ,Left ,61,2618950907153 ,47,5301399725554 ,53,4566215544596
25.8285157 ,Left ,61,294554751048 ,47,5811228307194 ,53,364924944034
25.8511585 ,Left ,61,3107535265575 ,47,6176317124972 ,53,2789917160173
25.8733904 ,Left ,61,289575425373 ,47,6386109545683 ,53,2140967645825
25.8886259 ,Left ,61,225662732989 ,47,6481135628765 ,53,1551277559699
25.9111506 ,Left ,61,1610730285509 ,47,6512475837333 ,53,0959052323299
25.9335524 ,Left ,61,1169298587001 ,47,6457695208969 ,53,0413801144319
25.9561151 ,Left ,61,0886991993299 ,47,6578795322553 ,52,9841951711116
25.9708492 ,Left ,61,1488206328581 ,47,6503465411591 ,52,9289713121642
25.9936041 ,Left ,61,1052522164116 ,47,5641249112512 ,52,9459907279162
26.0158264 ,Left ,61,2092755548321 ,47,4589600335595 ,53,0267016694751
26.0310573 ,Left ,61,3223963731859 ,47,5029047629984 ,53,0439546516296
26.0539517 ,Left ,61,2623060099292 ,47,5273398208345 ,53,0765287588941
26.0764724 ,Left ,61,4032276835527 ,47,4116292636963 ,53,1202748001234
26.0914916 ,Left ,61,5331299658783 ,47,2623182720541 ,53,090368714409
26.1138227 ,Left ,61,4904395982316 ,47,1814455684459 ,53,0436359422065
26.1359933 ,Left ,61,4353969462406 ,47,1713297702171 ,53,0450701241836
26.1509815 ,Left ,61,5032268695023 ,47,1438538559788 ,53,1152392513653
26.1734864 ,Left ,61,478188010239 ,47,0598452279959 ,53,2389126542728
26.1957529 ,Left ,61,5553144800662 ,47,0410675898991 ,53,2764434220498
26.2107787 ,Left ,61,5651150006917 ,47,1467900355145 ,53,2268110723936
26.2334559 ,Left ,61,4795563952516 ,47,2650499485147 ,53,1990304580881
26.2560881 ,Left ,61,5676254913471 ,47,3071346348529 ,53,2274735398271
26.270982 ,Left ,61,7323113156626 ,47,3255859665941 ,53,2415268275461
26.2932386 ,Left ,61,7509806282245 ,47,3273631147996 ,53,2519256908487
26.3160204 ,Left ,61,687795933679 ,47,3309048025549 ,53,2647152857508
26.3309751 ,Left ,61,6715018077182 ,47,3246726032371 ,53,2861918229607
26.3530414 ,Left ,61,6852251900186 ,47,3222596165797 ,53,3035933122381
26.3757588 ,Left ,61,6852555468515 ,47,3004651027304 ,53,3164896105813
26.3908377 ,Left ,61,6447474005558 ,47,273775916761 ,53,3293260410214
26.4133476 ,Left ,61,6418255205998 ,47,2402882052537 ,53,3465621398036
26.435726 ,Left ,61,6504877668328 ,47,2030746237644 ,53,3635386430802
26.4506608 ,Left ,61,6677006749051 ,47,1889614675059 ,53,3828213625867
26.4734401 ,Left ,61,6523984280726 ,47,1943266709918 ,53,4067641270528
26.4960988 ,Left ,61,6288320678331 ,47,1875738312134 ,53,443154357915
26.5111597 ,Left ,61,6484132452766 ,47,1659864319757 ,53,480409837951
26.5338929 ,Left ,61,6711858549618 ,47,1486805920178 ,53,510941524132
26.5560979 ,Left ,61,6794742785622 ,47,1569572032936 ,53,5349614241618
26.5715479 ,Left ,61,6509210473378 ,47,1649909811989 ,53,5622537335175
26.5938231 ,Left ,61,6580376976188 ,47,161389336492 ,53,5902682112545
26.6161588 ,Left ,61,6742268312132 ,47,1399746317831 ,53,6174648010633
26.6310834 ,Left ,61,7084486712174 ,47,1150437233634 ,53,6463693445148
26.6535166 ,Left ,61,6992675583773 ,47,0909701578607 ,53,6738986215375
26.6835418 ,Left ,61,683763046193 ,47,0679971650301 ,53,6956358681907
26.7136269 ,Left ,61,6723190997738 ,47,0230598590395 ,53,723677792044
26.7511675 ,Left ,61,6793384511703 ,46,9701164641084 ,53,7434531725696
26.7735657 ,Left ,61,6883884883524 ,46,9333043843334 ,53,7589032253604
26.8111418 ,Left ,61,678624411385 ,46,9323931883145 ,53,8290078155775
26.8334841 ,Left ,61,6887331500681 ,46,9546366622131 ,53,8748751220475
26.8562211 ,Left ,61,6812378869291 ,46,9961876416636 ,53,9266831980467
26.8711623 ,Left ,61,6694358501548 ,47,0313524194695 ,53,9807579391427
26.8936569 ,Left ,61,656934952141 ,47,0425665224636 ,54,0425494284104
26.9086385 ,Left ,61,6299222448583 ,47,036698537997 ,54,1113094960293
26.9236815 ,Left ,61,5777226030411 ,47,0476706335044 ,54,1641041465074
26.9535094 ,Left ,61,4639068242406 ,47,0556291474283 ,54,2248270377398
26.9761602 ,Left ,61,4996674076725 ,47,0728208923743 ,54,2190430652091
26.9985965 ,Left ,61,4419757669598 ,47,0848934936634 ,54,2726135547504
27.0136355 ,Left ,61,383489873715 ,47,0688615286732 ,54,2692322255369
27.0434801 ,Left ,61,4490327052013 ,47,0940412485549 ,54,1698779395665
27.0734993 ,Left ,61,3981764691403 ,47,1609415906553 ,54,0341362370418
27.088567 ,Left ,61,3146545857164 ,47,1998353565288 ,53,95058980298
27.11112 ,Left ,61,379787767396 ,47,1823049528203 ,53,8547897673066
27.1331459 ,Left ,61,3613992092026 ,47,2103400278125 ,53,5756887201378
27.1560075 ,Left ,61,3822713904137 ,47,2283265716088 ,53,5095705196266
27.1781629 ,Left ,61,3543682902181 ,47,1112057753481 ,53,5480630154391
27.1933126 ,Left ,61,3958748074092 ,47,0025976889993 ,53,6033133337487
27.2158902 ,Left ,61,3743746155099 ,47,0542372122956 ,53,5750413819465
27.2382904 ,Left ,61,2499904979268 ,47,0954407363085 ,53,5582778377252
27.2607689 ,Left ,61,2962626746435 ,47,0661854227294 ,53,551624027591
27.2830425 ,Left ,61,381315179614 ,47,0777899204299 ,53,5051115604376
27.3209304 ,Left ,61,3375588082292 ,47,118333240858 ,53,4866686025329
27.3512864 ,Left ,61,337138117234 ,47,1066201481041 ,53,5558569350743
27.3812283 ,Left ,61,2282213077359 ,47,4433446169926 ,53,5503177410697
27.396144 ,Left ,61,2081650954519 ,47,5074529178627 ,53,6033197803059
27.4184831 ,Left ,61,2655784387152 ,47,5181725944321 ,53,6029178489665
27.4337404 ,Left ,61,2576397180489 ,47,5113511901115 ,53,5798679284477
27.4559952 ,Left ,61,2064494892218 ,47,4789719615292 ,53,5911812077678
27.47874 ,Left ,61,1607085553248 ,47,4037040374688 ,53,6373516613062
27.4937481 ,Left ,61,071848369625 ,47,3061756182756 ,53,7047514312287
27.516002 ,Left ,61,1052559136908 ,47,3200043764821 ,53,6765564691928
27.5385835 ,Left ,61,1044426949147 ,47,4541688398349 ,53,5736593569536
27.5611087 ,Left ,61,0799684463063 ,47,5728803603833 ,53,4870718481274
27.5759897 ,Left ,61,2002979516341 ,47,6350625453633 ,53,421257742615
27.5984469 ,Left ,61,288358901872 ,47,6981927968447 ,53,3217515653873
27.6210839 ,Left ,61,2515050275582 ,47,7726207123635 ,53,2138938539417
27.6363586 ,Left ,61,2137727002916 ,47,8646548536775 ,53,1084212042406
27.658692 ,Left ,61,2372271981525 ,47,916004716563 ,53,0135258938529
27.6812252 ,Left ,61,253217250752 ,47,9335612451538 ,52,933659580771
27.6960843 ,Left ,61,237905893725 ,47,9471075825459 ,52,8577114932498
27.7184203 ,Left ,61,187301470398 ,47,9417038400727 ,52,7926040970991
27.748535 ,Left ,61,1293887415668 ,47,9239411082806 ,52,7400967324272
27.7637282 ,Left ,61,0944844880928 ,47,9022047876287 ,52,6855596855934
27.7862679 ,Left ,61,1128392137205 ,47,8613468248879 ,52,6391448046708
27.8009974 ,Left ,61,1471190047793 ,47,7791790164748 ,52,6435465814685
27.8160369 ,Left ,61,1432519336445 ,47,6298376134156 ,52,7340094888401
27.8383878 ,Left ,61,3186477020521 ,47,6156386120473 ,52,7630551278715
27.8611996 ,Left ,61,3291207203267 ,47,6781562149806 ,52,7541804332122
27.8762487 ,Left ,61,3659405239009 ,47,59851366114 ,52,8049163157759
27.8985025 ,Left ,61,5237604515519 ,47,4539615244737 ,52,8345783852712
27.9207637 ,Left ,61,5142829215194 ,47,3554574705114 ,52,8278170026939
27.9360607 ,Left ,61,44937567239 ,47,3159527462522 ,52,8206100597585
27.9585705 ,Left ,61,4680358846112 ,47,3123093286345 ,52,8623745029831
27.981017 ,Left ,61,5575281455334 ,47,2637347293359 ,52,9490636222251
27.9959806 ,Left ,61,4767782041416 ,47,1590634673191 ,53,0738223240155
28.0185641 ,Left ,61,5450083501323 ,47,1055803759577 ,53,1135068104475
28.041119 ,Left ,61,5619737602629 ,47,1856737462634 ,53,0520924032431
28.0558876 ,Left ,61,5411710441577 ,47,2721960685164 ,53,0242433354021
28.0783296 ,Left ,61,6660221038698 ,47,2585977558267 ,53,0825347705616
28.1009234 ,Left ,61,8078885646749 ,47,2366573230478 ,53,1176097069318
28.1158772 ,Left ,61,7946342985663 ,47,2368604203263 ,53,1375156517198
28.1459684 ,Left ,61,743806025238 ,47,2539329351702 ,53,1697811318828
28.1685041 ,Left ,61,759358182008 ,47,2372195414319 ,53,2175157076303
28.1834267 ,Left ,61,8107788824131 ,47,2189853932873 ,53,2564696496387
28.2059489 ,Left ,61,8324814664433 ,47,2192958181707 ,53,2958557381429
28.2209342 ,Left ,61,7328051270017 ,47,1947672626969 ,53,350173406378
28.2359218 ,Left ,61,6761275589772 ,47,1739498761091 ,53,4020268929191
28.2585898 ,Left ,61,7273385339731 ,47,1608911046394 ,53,4223016325282
28.281059 ,Left ,61,7244196739514 ,47,1386775818351 ,53,4369498003377
28.2957759 ,Left ,61,7373642761658 ,47,1227270667024 ,53,4622983582995
28.3107191 ,Left ,61,7454734330032 ,47,1168218889745 ,53,4953482288221
28.3334024 ,Left ,61,7517513483636 ,47,1103467799058 ,53,5306387547305
28.348193 ,Left ,61,7583304353682 ,47,1114801698534 ,53,5730589104055
28.3857837 ,Left ,61,7624709116653 ,47,1117737324336 ,53,6238094005842
28.4084297 ,Left ,61,7723955107564 ,47,110294094575 ,53,6820375943532
28.4159977 ,Left ,61,7693292225617 ,47,0836679789933 ,53,7396010800459
28.4309751 ,Left ,61,7766428087984 ,47,0415457598721 ,53,7848394931908
28.4533644 ,Left ,61,7842755482843 ,47,0041057573752 ,53,8231844439023
28.4684557 ,Left ,61,7655018294836 ,46,9793120527783 ,53,8613008024489
28.4910053 ,Left ,61,7490292798869 ,46,9542573993298 ,53,8993892934605
28.5133812 ,Left ,61,7421692902304 ,46,9203973607671 ,53,929130122934
28.5285116 ,Left ,61,7398012338938 ,46,8830399331307 ,53,9555073946004
28.5510961 ,Left ,61,734095779152 ,46,8592598684044 ,53,9806217766148
28.5735111 ,Left ,61,7291028368304 ,46,8576713603282 ,53,997382105365
28.5883268 ,Left ,61,7175228549692 ,46,8529032270002 ,54,008911385291
28.6108236 ,Left ,61,707016087776 ,46,8381239181315 ,54,0295536063999
28.6333777 ,Left ,61,7107443581605 ,46,8446049909704 ,54,0486718814498
28.6484876 ,Left ,61,7087120532648 ,46,8814398085146 ,54,0622877452659
28.6707846 ,Left ,61,6866209492146 ,46,9273970144648 ,54,0827469940894
28.6932692 ,Left ,61,6740937412362 ,46,9648555683228 ,54,1101053346325
28.708198 ,Left ,61,6660663881371 ,46,9882480070232 ,54,1445003203789
28.7307804 ,Left ,61,6315487494094 ,47,0012386779347 ,54,1847107343229
28.7531815 ,Left ,61,5761270827243 ,47,0082541630418 ,54,2175115322999
28.768222 ,Left ,61,479832455145 ,47,0239388010191 ,54,2296009518194
28.7907544 ,Left ,61,4825779398236 ,47,0297933124365 ,54,2295442913621
28.8133721 ,Left ,61,4546636579505 ,47,0414894124532 ,54,2710792637498
28.82834 ,Left ,61,3300040274194 ,47,0079221002028 ,54,3316577741305
28.8507189 ,Left ,61,4028596230869 ,47,0367043299245 ,54,2733422888246
28.8733234 ,Left ,61,4187298093597 ,47,1716491554879 ,54,1171921536402
28.9109494 ,Left ,61,3254602829848 ,47,3016306211074 ,53,9089691523897
28.9339232 ,Left ,61,3749189303008 ,47,2974694320557 ,53,7687294934804
28.9863527 ,Left ,61,2764027580859 ,47,3502151699124 ,53,4641903364435
29.0087322 ,Left ,61,3373143070523 ,47,296352106362 ,53,4189264358521
29.0538128 ,Left ,61,2920080660048 ,47,1474742944082 ,53,5205598140856
29.0914549 ,Left ,61,3083303885539 ,47,2529728836978 ,53,478062451048
29.1140257 ,Left ,61,4376424267976 ,47,2325164231183 ,53,4183231341008
29.1513492 ,Left ,61,3236433447247 ,47,2256517074645 ,53,3244318763285
29.1736007 ,Left ,61,2640271002507 ,47,1613371638566 ,53,3841163996341
29.2113424 ,Left ,61,2407429922993 ,47,3433225079637 ,53,4570839458979
29.2335496 ,Left ,61,1869699113945 ,47,4179105818445 ,53,5280262969806
29.2713594 ,Left ,61,3351213427769 ,47,4663910291985 ,53,5375018220293
29.3013675 ,Left ,61,2890091037802 ,47,4927985629517 ,53,5512213191463
29.3306141 ,Left ,61,2020360843967 ,47,3535678276391 ,53,6994717601765
29.3533924 ,Left ,61,0791645134952 ,47,2577667813576 ,53,7313694453759
29.3911003 ,Left ,60,9588824718743 ,47,2724692465322 ,53,7227111063713
29.4135502 ,Left ,61,0300672027285 ,47,3783386973025 ,53,7005324774172
29.451111 ,Left ,61,2640175403535 ,47,6615872125106 ,53,787110346496
29.4734231 ,Left ,61,3140898672355 ,47,7616392983073 ,53,8452711140454
29.5110704 ,Left ,61,3084988372421 ,47,8214268892282 ,53,871234565029
29.5335744 ,Left ,61,253438651828 ,47,8148379710657 ,53,8659502568201
29.5708233 ,Left ,61,1935968551752 ,47,8341108524229 ,53,8326101415695
29.593607 ,Left ,61,2232608755652 ,47,8562887569277 ,53,806187752074
29.6309405 ,Left ,61,2509222487303 ,47,8187233284419 ,53,7460392253067
29.653366 ,Left ,61,2409121986484 ,47,796327391904 ,53,7149498742867
29.6909778 ,Left ,61,1672544774239 ,47,7441229553446 ,53,6375097747317
29.7137796 ,Left ,61,1866544532873 ,47,7098218714265 ,53,5826398923267
29.7516523 ,Left ,61,1468190491048 ,47,6201845529655 ,53,4806055111639
29.7738326 ,Left ,61,1049001972656 ,47,5725973459878 ,53,4337463804273
29.8111056 ,Left ,61,0569892278348 ,47,5718579537317 ,53,3182364045047
29.8336814 ,Left ,61,0531112641051 ,47,5997773675997 ,53,2551303361715
29.8713474 ,Left ,61,0621738083505 ,47,6577336438685 ,53,1228087116532
29.8936355 ,Left ,61,0573112475084 ,47,6885628941941 ,53,0465526032754
29.9313063 ,Left ,61,041512824168 ,47,7584989711157 ,52,8612045411451
29.9534716 ,Left ,60,9880133382339 ,47,77007754279 ,52,7612516340291
29.9760564 ,Left ,60,9488541350151 ,47,774579813232 ,52,6583426512288
29.9911537 ,Left ,60,930080941434 ,47,7855426083415 ,52,5650810047355
30.0137097 ,Left ,60,8834872091797 ,47,7942012868516 ,52,4973115232502
30.0360602 ,Left ,60,8899992113128 ,47,7954423776503 ,52,45194658481
30.051308 ,Left ,60,8472290917165 ,47,7718539474393 ,52,4432519531524
30.0737095 ,Left ,60,8230617048851 ,47,689655242292 ,52,4717020082736
30.0962283 ,Left ,60,8990308087364 ,47,5944603660172 ,52,5243514529557
30.1113403 ,Left ,61,0174835718595 ,47,5749836885845 ,52,5034243894231
30.1335429 ,Left ,61,0059307349142 ,47,5692940944585 ,52,4769533424625
30.1561179 ,Left ,61,043194608943 ,47,54228139448 ,52,4946496809844
30.193617 ,Left ,61,1258304465478 ,47,4446806522811 ,52,5326526900908
30.2313215 ,Left ,61,1672773027527 ,47,4106181875155 ,52,6289678087181
30.2535541 ,Left ,61,1817243880725 ,47,3861037438312 ,52,6904693209028
30.2910655 ,Left ,61,1755102925076 ,47,3713764250705 ,52,7876468675559
30.3136613 ,Left ,61,1675977011988 ,47,369990569788 ,52,827483098964
30.3513246 ,Left ,61,2532742776979 ,47,3657875592253 ,52,8613008723662
30.3734683 ,Left ,61,2728029385025 ,47,3593845273028 ,52,8831552410174
30.4112908 ,Left ,61,2965008833379 ,47,3919665388667 ,52,9106050168036
30.4336239 ,Left ,61,2953400956996 ,47,4133396816284 ,52,9205810059411
30.4711354 ,Left ,61,3043333566416 ,47,4543162184507 ,52,9580062911866
30.4936036 ,Left ,61,3088255118284 ,47,472396959211 ,52,9748144896886
30.5309366 ,Left ,61,2888581136101 ,47,5275909134554 ,52,9895790641398
30.5536026 ,Left ,61,280867966044 ,47,5743646436509 ,53,0005819223738
30.5909529 ,Left ,61,2997684373884 ,47,6614886783366 ,52,9897551074558
30.6132996 ,Left ,61,318715035442 ,47,6804029523174 ,52,9666629664764
30.6506732 ,Left ,61,3872478035436 ,47,7290738652037 ,52,9045806707252
30.6733676 ,Left ,61,3963054222805 ,47,760209808206 ,52,8800621694105
30.7186173 ,Left ,61,441791454887 ,47,7850938338374 ,52,8226744830789
30.7710248 ,Left ,61,467080933051 ,47,8302673048477 ,52,7841596216047
30.7936414 ,Left ,61,4545627275462 ,47,8153203859205 ,52,7560094100235
30.8308003 ,Left ,61,4440108867342 ,47,7816132567422 ,52,6998787716553
30.8533713 ,Left ,61,4313755197416 ,47,7619916379976 ,52,6785601156776
30.8909981 ,Left ,61,4602890189401 ,47,6887955059366 ,52,6270529407759
30.9134186 ,Left ,61,4884657300722 ,47,6213550638925 ,52,6154230316531
30.9510935 ,Left ,61,5071081533777 ,47,4843403683116 ,52,6410553674163
30.9734576 ,Left ,61,495936689728 ,47,424290737934 ,52,6758617136439
31.011055 ,Left ,61,4923580365067 ,47,2766484080218 ,52,7953469049689
31.0411482 ,Left ,61,4983747574257 ,47,1977793197141 ,52,8792639436269
31.0711357 ,Left ,61,4803794200167 ,47,1214835240281 ,52,9695198035992
31.1162177 ,Left ,61,498867363218 ,46,9450691600229 ,53,1555662134656
31.1386683 ,Left ,61,4871081085508 ,46,8767468441974 ,53,2447415521478
31.168649 ,Left ,61,4519287539269 ,46,7908601673964 ,53,415328621766
31.2135303 ,Left ,61,5035263625354 ,46,688317134064 ,53,6550071271642
31.2361752 ,Left ,61,5045084611085 ,46,6889533992455 ,53,7123264137667
31.2734704 ,Left ,61,5011869288758 ,46,7052181529135 ,53,7903568036096
31.2963001 ,Left ,61,4769404166563 ,46,7282607005177 ,53,8001060576075
31.3334013 ,Left ,61,371202016106 ,46,7553908458209 ,53,8055699357726
31.3562035 ,Left ,61,3674721345827 ,46,7401635894 ,53,8085816874547
31.3931625 ,Left ,61,3286531026918 ,46,8061948345855 ,53,8159736217504
31.4163759 ,Left ,61,2271781650942 ,46,8444875494535 ,53,839481942716
31.4539724 ,Left ,61,346501048651 ,47,0828922850165 ,53,6310523720551
31.4838799 ,Left ,61,2479728559595 ,47,1871639202831 ,53,4928258374518
31.5281755 ,Left ,61,2693294666692 ,47,2295394813256 ,53,251188532306
31.5505843 ,Left ,61,2314256995439 ,47,2172055471258 ,53,1478401082177
31.603214 ,Left ,61,1567662752153 ,46,8965073526468 ,53,2025177571185
31.6557189 ,Left ,61,1737884786727 ,47,0162698642434 ,53,0765015450013
31.6937608 ,Left ,61,2751876612377 ,47,0851594094665 ,52,9637206945635
31.7159452 ,Left ,61,2407170475513 ,47,0206165620557 ,52,9864333791135
31.7681882 ,Left ,61,2249954765998 ,46,9288387982504 ,53,0864264926263
31.8284602 ,Left ,61,2104003971103 ,47,3005020367017 ,53,0050195042515
31.8433974 ,Left ,61,2716729052729 ,47,3402481183304 ,52,9619680291929
31.8958165 ,Left ,61,0872100404048 ,47,465547335637 ,52,8363886801063
31.9106975 ,Left ,61,0816942889894 ,47,5056916652101 ,52,7799514453145
31.925767 ,Left ,61,0646482522402 ,47,5517334853064 ,52,7052698885204
31.9481994 ,Left ,61,0313190805695 ,47,5881340422581 ,52,6219929094149
31.9709101 ,Left ,61,0403707395621 ,47,6282075872847 ,52,5213508076219
31.9862061 ,Left ,61,0536904957805 ,47,6736789011105 ,52,4161460547575
32.0085925 ,Left ,61,0595362792527 ,47,705836052877 ,52,3211802076049
32.0311021 ,Left ,61,0457618935679 ,47,7119288509762 ,52,2572500082585
32.0535076 ,Left ,61,0376716955779 ,47,7137766334144 ,52,2147095635981
32.0681174 ,Left ,61,0298684156408 ,47,69767896146 ,52,1927719434509
32.090683 ,Left ,61,0587906640949 ,47,6615057000617 ,52,1990751689973
32.1066227 ,Left ,61,0880938969238 ,47,620201221535 ,52,2079369987429
32.1287529 ,Left ,61,1169427176066 ,47,5741372996703 ,52,2127578222294
32.1588855 ,Left ,61,1479543620815 ,47,5313286634617 ,52,2249535201133
32.1738649 ,Left ,61,1738146656407 ,47,4881989537612 ,52,2560229342193
32.1965526 ,Left ,61,1923263242124 ,47,4444335555935 ,52,3017203513006
32.2113001 ,Left ,61,2120045192443 ,47,40715456481 ,52,3684860523376
32.2261204 ,Left ,61,2181036828783 ,47,3952467020614 ,52,4432933060919
32.2484707 ,Left ,61,1991364574646 ,47,4107300625201 ,52,5354128046848
32.2709241 ,Left ,61,2002838499064 ,47,4410833340513 ,52,6321223855894
32.2861445 ,Left ,61,2093463173467 ,47,4689741880924 ,52,727246428934
32.3085622 ,Left ,61,2330975852899 ,47,4982251771255 ,52,7974609108899
32.3310422 ,Left ,61,2308509891612 ,47,5387083425083 ,52,8454683089645
32.3461322 ,Left ,61,1904082074508 ,47,5830707634322 ,52,8843142921445
32.3686431 ,Left ,61,154528411592 ,47,6278067317936 ,52,903872434673
32.3910208 ,Left ,61,1636008213113 ,47,6398054811199 ,52,9078699747151
32.4061215 ,Left ,61,1722441305703 ,47,5911650062658 ,52,9297693315228
32.4286415 ,Left ,61,1739468246543 ,47,5452265812631 ,52,9632297015672
32.4511379 ,Left ,61,1495825555075 ,47,5122323110648 ,52,9985261669001
32.4659782 ,Left ,61,1078779608351 ,47,4784301454965 ,53,0362388453374
32.4883327 ,Left ,61,1211634861956 ,47,4511013447707 ,53,071852061016
32.5106907 ,Left ,61,1792353578328 ,47,4317445383608 ,53,1042227789993
32.5336918 ,Left ,61,1854813749283 ,47,4256356839908 ,53,1350548945967
32.548505 ,Left ,61,1317597273489 ,47,4428367218104 ,53,1521096220213
32.5711131 ,Left ,61,1129210483958 ,47,4903755937472 ,53,176058166776
32.5934611 ,Left ,61,1191321270107 ,47,5450874962384 ,53,2225169803803
32.6161673 ,Left ,61,0784088544062 ,47,497619353034 ,53,3202833495931
32.6459553 ,Left ,61,0891552106459 ,47,4048687679404 ,53,3871200364399
32.6683982 ,Left ,61,1772943854602 ,47,4231038923321 ,53,3230160096479
32.6834412 ,Left ,61,0815131861203 ,47,4844370298884 ,53,2256523093001
32.6984226 ,Left ,61,0866036983005 ,47,5142374928238 ,53,1545072524131
32.7134877 ,Left ,61,2130461947295 ,47,5277836734307 ,53,0472309077813
32.7285662 ,Left ,61,2654501971042 ,47,5416085090433 ,52,9267242710221
32.7507824 ,Left ,61,232134176321 ,47,5773242688665 ,52,8196305736357
32.773273 ,Left ,61,2069025647691 ,47,6017225533841 ,52,7232342944397
32.788324 ,Left ,61,1858392866451 ,47,6169675897076 ,52,6438938149353
32.8114224 ,Left ,61,1910738667806 ,47,6546520799708 ,52,58022672677
32.8337872 ,Left ,61,149444022297 ,47,6919587845538 ,52,5308999170918
32.848704 ,Left ,61,1111679238908 ,47,7215636497706 ,52,4784072748962
32.8707524 ,Left ,61,0769548021696 ,47,754635149886 ,52,3981178610348
32.8933779 ,Left ,61,0530201872799 ,47,7759460145242 ,52,306973460881
32.9082373 ,Left ,61,0417184943317 ,47,791183629469 ,52,2399421027961
32.9309094 ,Left ,61,0122232224603 ,47,8448603341895 ,52,2083850661691
32.9534525 ,Left ,61,0151129069153 ,47,8844977330055 ,52,1956052699324
32.9682886 ,Left ,61,0619180062279 ,47,7985237349118 ,52,2146534733891
32.990795 ,Left ,60,9991079640773 ,47,5562102222561 ,52,3103488236032
33.0131146 ,Left ,61,148250389829 ,47,4435799440733 ,52,3497904004786
33.0283846 ,Left ,61,2397850759167 ,47,4526934800716 ,52,3167336000216
33.050692 ,Left ,61,3340252625981 ,47,3905923994743 ,52,3455099857648
33.0739361 ,Left ,61,513199571262 ,47,2965258359307 ,52,3570406426708
33.0889593 ,Left ,61,5705579777259 ,47,2362093516877 ,52,3352854355805
33.1114692 ,Left ,61,5237331832888 ,47,2097913705712 ,52,3681534456995
33.1336566 ,Left ,61,5015556507354 ,47,1997284066834 ,52,4495199096958
33.1562975 ,Left ,61,540913632014 ,47,1353693063819 ,52,5890577505286
33.1709643 ,Left ,61,4302592138267 ,47,0283789891606 ,52,7388003906423
33.1933591 ,Left ,61,4976888661572 ,47,0027642743729 ,52,7731983280617
33.2160798 ,Left ,61,4983444598708 ,47,107548987801 ,52,7176846858333
33.2310281 ,Left ,61,4789554464603 ,47,2302753582733 ,52,6865569569777
33.2535329 ,Left ,61,5813409363847 ,47,2845128237414 ,52,7096299350265
33.2759123 ,Left ,61,7237193491143 ,47,3046776463796 ,52,7434765611626
33.2911724 ,Left ,61,7267565522807 ,47,2875466947546 ,52,7915957553046
33.3135149 ,Left ,61,7067008500645 ,47,2775555045755 ,52,8392380260499
33.3358326 ,Left ,61,7049973883406 ,47,2314716271429 ,52,904007529083
33.3510657 ,Left ,61,6879887954256 ,47,1842612440166 ,52,9711794648511
33.373376 ,Left ,61,678005746655 ,47,1639591319848 ,53,0210108991136
33.3886124 ,Left ,61,641041985849 ,47,1465696205864 ,53,0562585845747
33.418657 ,Left ,61,6199242806355 ,47,1309076548601 ,53,0875617189689
33.4410157 ,Left ,61,6735712226999 ,47,1241950413927 ,53,1346894728912
33.4559837 ,Left ,61,6811473039899 ,47,1189473217687 ,53,1828476446445
33.4782736 ,Left ,61,6584313019271 ,47,1294403958433 ,53,2280281868476
33.4932394 ,Left ,61,6207736528937 ,47,1556453416794 ,53,265274871414
33.5160455 ,Left ,61,5974413106746 ,47,1601694767836 ,53,3100810198469
33.5311777 ,Left ,61,5776862520233 ,47,149754918057 ,53,3491887568
33.5534841 ,Left ,61,5988872636922 ,47,1400904517931 ,53,3826741847539
33.5758692 ,Left ,61,5817477062283 ,47,1079058602172 ,53,4176697323533
33.5913525 ,Left ,61,56207979644 ,47,059915556563 ,53,4516047037034
33.6211248 ,Left ,61,5692109755695 ,47,0068392354548 ,53,4777692086419
33.6509178 ,Left ,61,5773029985604 ,46,9601410915458 ,53,4979385865984
33.6659871 ,Left ,61,5762914704189 ,46,9297048470023 ,53,5119442907929
33.6811342 ,Left ,61,5590616752778 ,46,9013543518668 ,53,5214674962524
33.6960946 ,Left ,61,5602324539472 ,46,8658855257367 ,53,5315574877651
33.7113068 ,Left ,61,5669343445094 ,46,8502512915772 ,53,5422844074341
33.7335084 ,Left ,61,5498231038067 ,46,8551320517124 ,53,557908101855
33.763516 ,Left ,61,5330358724731 ,46,8587048132332 ,53,5872341988
33.7785184 ,Left ,61,5307892510259 ,46,8537315153876 ,53,6279886600681
33.8085392 ,Left ,61,5258470603314 ,46,8764975477118 ,53,6681603767034
33.846141 ,Left ,61,4902912435679 ,46,9693666532769 ,53,7720059429227
33.8611073 ,Left ,61,4832408450935 ,47,0021182109823 ,53,8304695225491
33.8911191 ,Left ,61,4456438792323 ,47,0052645843455 ,53,9244527862274
33.9136299 ,Left ,61,3874818360672 ,46,9956755312746 ,53,9678194835686
33.9358471 ,Left ,61,3236153148032 ,47,0054327336324 ,54,001896743089
33.9509054 ,Left ,61,3356845296459 ,47,0222693706267 ,54,0075668088922
33.9732483 ,Left ,61,3641256291881 ,47,0393087264504 ,54,0165568356412
33.9958023 ,Left ,61,2948805497555 ,46,9844674680671 ,54,0800927678664
34.0109454 ,Left ,61,300062867046 ,46,9293924035784 ,54,0853642069113
34.0410141 ,Left ,61,3912481999439 ,47,0303697751068 ,53,9085250074642
34.0632678 ,Left ,61,2751745015772 ,47,1367587274001 ,53,714845409874
34.0785722 ,Left ,61,2041630128547 ,47,173031137108 ,53,5969399053921
34.1011744 ,Left ,61,2630708411844 ,47,1819328430557 ,53,4733409223852
34.1160931 ,Left ,61,2389300118038 ,47,1874173594116 ,53,3295356555146
34.1381275 ,Left ,61,1874885515867 ,47,1840268286323 ,53,2240436155549
34.1607232 ,Left ,61,2280928007175 ,47,1321314165676 ,53,1758346055006
34.183254 ,Left ,61,1774120437061 ,46,9811525934764 ,53,2358727519624
34.2059395 ,Left ,61,2142967797935 ,46,8954378842194 ,53,2953179912346
34.2284989 ,Left ,61,2350506863034 ,46,965095898447 ,53,2686055442839
34.258333 ,Left ,61,1785804346037 ,47,0269460575597 ,53,2355082030124
34.2732525 ,Left ,61,2365854425479 ,47,0257813753819 ,53,2065467561671
34.2959357 ,Left ,61,3119404324864 ,47,0569379413681 ,53,1359850123637
34.3190037 ,Left ,61,3236304459963 ,47,0762840093669 ,53,0917616404744
34.3340938 ,Left ,61,2855865343175 ,47,0150379270196 ,53,1788300493559
34.3560044 ,Left ,61,2986776197208 ,47,1407193240555 ,53,166966897769
34.3784481 ,Left ,61,1321926147852 ,47,3320591176127 ,53,1478006038751
34.3934122 ,Left ,61,1026362287516 ,47,4086291701765 ,53,1871755709549
34.4166517 ,Left ,61,2040154532843 ,47,4335880768097 ,53,201981425795
34.4389573 ,Left ,61,2368966964925 ,47,4413156633333 ,53,1867179343133
34.4538058 ,Left ,61,1538211411874 ,47,4117995377898 ,53,2109696440185
34.4758876 ,Left ,61,1100911296628 ,47,3341372819668 ,53,2732474746978
34.4984511 ,Left ,60,9896475864048 ,47,2466936620261 ,53,3400983699413
34.5134253 ,Left ,60,9889568745705 ,47,2892324030175 ,53,2924508255772
34.5357876 ,Left ,60,9872838592268 ,47,4680614612207 ,53,1507105598453
34.5584064 ,Left ,60,9359606132167 ,47,6433641628849 ,53,0290330654823
34.5735225 ,Left ,61,0420645393475 ,47,7269148607692 ,52,958386735028
34.596063 ,Left ,61,152236315887 ,47,776923265228 ,52,8387186745827
34.6184333 ,Left ,61,1433645977689 ,47,8208227651132 ,52,7004596247446
34.6335548 ,Left ,61,1048945836405 ,47,8557316022786 ,52,566623296354
34.6560959 ,Left ,61,0892975289425 ,47,8677913287173 ,52,442342909113
34.6784257 ,Left ,61,0805585044725 ,47,8683826465706 ,52,3471344884161
34.6935069 ,Left ,61,0211558170158 ,47,8562866029844 ,52,2599730386857
34.7159693 ,Left ,60,9275637297721 ,47,8248065505031 ,52,1885538018514
34.7385231 ,Left ,60,9347554881568 ,47,7667941023931 ,52,1467606474135
34.7534743 ,Left ,60,9486804111722 ,47,6779053627751 ,52,1771718635002
34.7758029 ,Left ,60,9066868386463 ,47,5323592750862 ,52,304522791205
34.7985609 ,Left ,61,10926873663 ,47,5167134244679 ,52,3593123138571
34.8208956 ,Left ,61,1781455624713 ,47,6015328100042 ,52,3466923810974
34.8359655 ,Left ,61,1564518103273 ,47,5660089743585 ,52,4205316279365
34.8582772 ,Left ,61,2938698562579 ,47,4247996905801 ,52,4980559639532
34.8733817 ,Left ,61,3417874070041 ,47,2828851483021 ,52,529323499522
34.8958499 ,Left ,61,2645429700911 ,47,1953239613021 ,52,5581711671445
34.9189144 ,Left ,61,2221410878113 ,47,1542023556926 ,52,6086335897972
34.9338099 ,Left ,61,248364495796 ,47,0975051985398 ,52,7184081655492
34.9559847 ,Left ,61,2835042560132 ,47,0105077135433 ,52,8164875424484
34.9784517 ,Left ,61,453652602193 ,47,0378625867865 ,52,8101128633111
34.9934551 ,Left ,61,4200369780945 ,47,1768096403287 ,52,7518898723735
35.0158202 ,Left ,61,3833419179971 ,47,2566165962416 ,52,7727593459077
35.0383692 ,Left ,61,529980808859 ,47,2598840422395 ,52,8272025895185
35.0609653 ,Left ,61,6457200280921 ,47,2623665347451 ,52,859710159124
35.0762823 ,Left ,61,6093501905588 ,47,2708614558796 ,52,8816088129516
35.098533 ,Left ,61,5873497477817 ,47,281113648414 ,52,9160951350939
35.1212453 ,Left ,61,6178534229621 ,47,2600892542224 ,52,9550784069874
35.1361874 ,Left ,61,6817678533001 ,47,2332986276598 ,52,9814772279464
35.1587989 ,Left ,61,7325640559754 ,47,2082277513069 ,52,9970083105051
35.1731633 ,Left ,61,7103348003295 ,47,1939534069368 ,53,0033047327952
35.1957723 ,Left ,61,7225802850917 ,47,1869873315668 ,52,9956160688248
35.2184117 ,Left ,61,75442789331 ,47,1607456710146 ,52,9986680774172
35.2334592 ,Left ,61,7875691783417 ,47,1303746568597 ,53,017030693534
35.2560254 ,Left ,61,7814493279109 ,47,1255438976271 ,53,0471595190623
35.2857037 ,Left ,61,7527277566738 ,47,1370969193578 ,53,0912090367036
35.3159471 ,Left ,61,718150312766 ,47,1311372696853 ,53,1392391273191
35.3464233 ,Left ,61,755374069383 ,47,1111685222486 ,53,171996403716
35.3612205 ,Left ,61,7853460269625 ,47,075844508949 ,53,1926505923711
35.3838916 ,Left ,61,7982232280225 ,47,0294092029254 ,53,2525089603181
35.3987836 ,Left ,61,7737111881072 ,46,998406388159 ,53,2758280592085
35.4211606 ,Left ,61,7700115566919 ,46,9510558193442 ,53,2855371184966
35.4360705 ,Left ,61,7785921855243 ,46,9017260051639 ,53,2957907212133
35.4662694 ,Left ,61,7677387281128 ,46,8692730526534 ,53,307625435005
35.49612 ,Left ,61,7653545963063 ,46,8450939860636 ,53,3218977146979
35.5181807 ,Left ,61,7341193834027 ,46,8045940037481 ,53,3401834294524
35.533389 ,Left ,61,7373273189049 ,46,7758413393169 ,53,35868355498
35.5714799 ,Left ,61,7029686141031 ,46,8322650587553 ,53,5045460192117
35.6008468 ,Left ,61,7022722555126 ,46,849631348987 ,53,5722800509146
35.623573 ,Left ,61,6768211183945 ,46,8807673984796 ,53,6573278470048
35.6385605 ,Left ,61,4677126871531 ,46,8073909892443 ,53,7833188524954
35.6536391 ,Left ,61,3447001667725 ,46,7893523392696 ,53,880679738035
35.6761464 ,Left ,61,128680147802 ,46,767245825181 ,53,9753709751122
35.6911768 ,Left ,61,0961121311983 ,46,7746944543018 ,54,0029021642223
35.7132299 ,Left ,61,24153923299 ,46,8275093071334 ,54,0159772638635
35.7357273 ,Left ,61,001048381513 ,46,8145129648199 ,54,1167760612216
35.7507301 ,Left ,60,8404734061855 ,46,7846295666155 ,54,157177311187
35.7737848 ,Left ,60,9882727479705 ,46,8343316460759 ,54,0803663257665
35.7966255 ,Left ,60,9055483613966 ,46,9719479109417 ,53,9350689519167
35.8117899 ,Left ,60,8379934425178 ,47,0576863660556 ,53,8486593818747
35.8341018 ,Left ,60,9483420395546 ,47,075275350144 ,53,732184705254
35.856753 ,Left ,60,9840298226066 ,47,0596238675473 ,53,5737946199865
35.8715867 ,Left ,60,9214033423837 ,47,0641508457716 ,53,4217960624001
35.8932814 ,Left ,60,8756820602046 ,47,0343685822706 ,53,2988930030008
35.9233478 ,Left ,60,7371760142785 ,46,9510712803791 ,53,220120898648
35.9381469 ,Left ,60,7385411977379 ,46,896475442854 ,53,238906380486
35.9607102 ,Left ,60,805875262633 ,46,8663659258498 ,53,2909413689238
35.9908681 ,Left ,60,7505649855786 ,47,0405696290459 ,53,3061136347582
36.0135687 ,Left ,60,7986634767461 ,47,0278935039484 ,53,2885825219796
36.0359782 ,Left ,60,8400960646955 ,47,0493986790024 ,53,2079441783194
36.0510108 ,Left ,60,8571493792194 ,47,0909947578914 ,53,1442540666038
36.0735904 ,Left ,60,843782125451 ,47,0421471184252 ,53,2094507708549
36.0959764 ,Left ,60,9316793742989 ,46,9909073933441 ,53,2888990071685
36.1185137 ,Left ,60,9536143484985 ,47,0820555599939 ,53,2756928679858
36.140974 ,Left ,60,8085653529988 ,47,1828934106987 ,53,2747794363571
36.171348 ,Left ,60,8904433539577 ,47,2123827711459 ,53,2661429121486
36.1934839 ,Left ,60,8596456504665 ,47,2572708891722 ,53,2395443566088
36.2235458 ,Left ,60,7749708588605 ,47,341267634837 ,53,255900846011
36.2459713 ,Left ,60,6466466075632 ,47,3905005731389 ,53,3162158117866
36.2611412 ,Left ,60,5470536932567 ,47,3823190233101 ,53,3887908405318
36.2986121 ,Left ,60,2004036273714 ,47,3687055581293 ,53,5413306641233
36.3132615 ,Left ,60,2542355528712 ,47,3985635291777 ,53,5527180270577
36.3369674 ,Left ,60,4016104598173 ,47,5069752421986 ,53,4846891752934
36.3590332 ,Left ,60,4288793485009 ,47,5864970115477 ,53,4352352739227
36.3737886 ,Left ,60,5173178085326 ,47,5872932783978 ,53,4050173872097
36.396149 ,Left ,60,5721266133016 ,47,5730123295276 ,53,354358342274
36.4185913 ,Left ,60,5677752672896 ,47,5494847236977 ,53,3112087769082
36.4409349 ,Left ,60,5753288582928 ,47,5462268118334 ,53,2766181439818
36.4636476 ,Left ,60,6595337982316 ,47,5690740579032 ,53,2456057661961
36.4785575 ,Left ,60,7083960798627 ,47,6035384113451 ,53,2240151167397
36.5010144 ,Left ,60,7552643628343 ,47,6534091678631 ,53,1894701441491
36.5236415 ,Left ,60,8185727331692 ,47,6781599304174 ,53,155978118537
36.5383931 ,Left ,60,870303595889 ,47,6765444225024 ,53,114018256638
36.5608259 ,Left ,60,9326523014379 ,47,6778978120308 ,53,0662626379543
36.5833314 ,Left ,60,9433501270468 ,47,6881784425787 ,53,0172461252024
36.5984915 ,Left ,60,9292919779488 ,47,6959300097069 ,52,9664053189091
36.6209151 ,Left ,60,9239970903574 ,47,7059993706381 ,52,9119511466661
36.6433948 ,Left ,60,9167408420468 ,47,7224119874032 ,52,8575996783102
36.6585926 ,Left ,60,9351509327974 ,47,7472405686734 ,52,7947323793416
36.6808097 ,Left ,60,9347224817491 ,47,7601754360268 ,52,7308222466098
36.7040593 ,Left ,60,9527490136739 ,47,7717528773031 ,52,6592390101276
36.719061 ,Left ,60,9658022353664 ,47,799503425571 ,52,5790298482395
36.7415738 ,Left ,60,9623941868319 ,47,831084187547 ,52,4988115222508
36.7636113 ,Left ,60,9473874044186 ,47,84412911648 ,52,4271678614118
36.7784816 ,Left ,60,9307222611667 ,47,8427348834442 ,52,3669416164129
36.8012284 ,Left ,60,9375041317201 ,47,8190131269493 ,52,3334875794689
36.823546 ,Left ,60,9132963648472 ,47,7803960832702 ,52,320893321171
36.8383295 ,Left ,60,8298652160831 ,47,7772895674166 ,52,3234211658178
36.8609993 ,Left ,60,898130426556 ,47,8051841012748 ,52,3136416117966
36.8832165 ,Left ,60,9358377625029 ,47,7784049915951 ,52,331783101
36.8983435 ,Left ,60,9035424207764 ,47,6860469165447 ,52,3899286593084
36.9209063 ,Left ,61,058810650833 ,47,7154659936534 ,52,3912163997374
36.9433434 ,Left ,61,0344470440542 ,47,7661908864619 ,52,3896300928343
36.9659772 ,Left ,61,0455727076473 ,47,7212319085678 ,52,4583249553629
36.9811252 ,Left ,61,2007545938403 ,47,6206416785383 ,52,5068988412093
37.0035311 ,Left ,61,3049864435369 ,47,509885559217 ,52,5286018201174
37.026189 ,Left ,61,2770921165839 ,47,4399509912175 ,52,5567535752418
37.0412555 ,Left ,61,2532198111936 ,47,4315216774971 ,52,6028742310639
37.0636235 ,Left ,61,3309522734083 ,47,4517464899827 ,52,6586316985407
37.0859966 ,Left ,61,3424318031704 ,47,4152635954146 ,52,768209340896
37.101173 ,Left ,61,3308110114212 ,47,3019702404037 ,52,8676475813601
37.1236471 ,Left ,61,4900234959832 ,47,279997328508 ,52,8471738040267
37.1459843 ,Left ,61,4657952624621 ,47,3804442169601 ,52,7722580658995
37.1609943 ,Left ,61,4259070922098 ,47,424669569087 ,52,7778893552686
37.1838024 ,Left ,61,5434603812229 ,47,3954785399432 ,52,8285054719237
37.2062252 ,Left ,61,6194601386304 ,47,3273413456592 ,52,8729051159076
37.2213255 ,Left ,61,5823200726107 ,47,2692116360666 ,52,9160382175415
37.2434929 ,Left ,61,5723545466027 ,47,2130679703007 ,52,9671713624846
37.2661498 ,Left ,61,5983198021175 ,47,1335729576664 ,53,0180216280783
37.2811604 ,Left ,61,6125824761062 ,47,0747521404292 ,53,0730226307276
37.3035954 ,Left ,61,6163070999889 ,47,0197988955588 ,53,1322457935495
37.3262137 ,Left ,61,5629257336203 ,46,9695025109546 ,53,1672213733816
37.3412912 ,Left ,61,5883253362456 ,46,9514350970158 ,53,1778582745147
37.3632109 ,Left ,61,5934629855709 ,46,9385842158393 ,53,1876350933523
37.3857162 ,Left ,61,584400380196 ,46,9406654651577 ,53,2016086221817
37.4007441 ,Left ,61,5615225789278 ,46,970472830181 ,53,2243634011159
37.4233976 ,Left ,61,5595630067854 ,47,0059505781986 ,53,2629136305072
37.4459511 ,Left ,61,5483929710859 ,47,034814571831 ,53,3165576935267
37.4683841 ,Left ,61,5657924954895 ,47,0574968477895 ,53,3702345140512
37.4910475 ,Left ,61,5669054066492 ,47,0515564243202 ,53,4228028446259
37.5210724 ,Left ,61,5803916662871 ,46,9865551649675 ,53,520367481029
37.5432676 ,Left ,61,585158696377 ,46,961420099392 ,53,5507655422655
37.566063 ,Left ,61,581435230335 ,46,949875940524 ,53,5657042532651
37.5811109 ,Left ,61,5774869798676 ,46,9350780582433 ,53,5837929788273
37.6036634 ,Left ,61,5886324413944 ,46,9003487642844 ,53,5932352856079
37.6261456 ,Left ,61,5937002967455 ,46,8607664790432 ,53,6015374677751
37.64115 ,Left ,61,5832675472301 ,46,8393372470957 ,53,606803336224
37.6637156 ,Left ,61,5625159869362 ,46,8278838452303 ,53,6227588653191
37.6860666 ,Left ,61,5597333209133 ,46,8538288680329 ,53,6434455193131
37.7013206 ,Left ,61,6232539453808 ,46,9262994389884 ,53,658171489186
37.7237582 ,Left ,61,5508605565554 ,46,8983391227953 ,53,7043721497042
37.7463422 ,Left ,61,5153179388823 ,46,9672215214799 ,53,7297503257828
37.76139 ,Left ,61,5812650597441 ,47,0907617808484 ,53,7575067424571
